"SPL Horizontal"
"On-Axis"		"10°"		"-10°"		"20°"		"-20°"		"30°"		"-30°"		"40°"		"-40°"		"50°"		"-50°"		"60°"		"-60°"		"70°"		"-70°"		"80°"		"-80°"		"90°"		"-90°"		"100°"		"-100°"		"110°"		"-110°"		"120°"		"-120°"		"130°"		"-130°"		"140°"		"-140°"		"150°"		"-150°"		"160°"		"-160°"		"170°"		"-170°"		"180°"
"Frequency [Hz]"	"Sound Pessure Level [dB]   [2.83V at 1m]"	"Frequency [Hz]"	"Sound Pessure Level [dB]   [2.83V at 1m]"	"Frequency [Hz]"	"Sound Pessure Level [dB]   [2.83V at 1m]"	"Frequency [Hz]"	"Sound Pessure Level [dB]   [2.83V at 1m]"	"Frequency [Hz]"	"Sound Pessure Level [dB]   [2.83V at 1m]"	"Frequency [Hz]"	"Sound Pessure Level [dB]   [2.83V at 1m]"	"Frequency [Hz]"	"Sound Pessure Level [dB]   [2.83V at 1m]"	"Frequency [Hz]"	"Sound Pessure Level [dB]   [2.83V at 1m]"	"Frequency [Hz]"	"Sound Pessure Level [dB]   [2.83V at 1m]"	"Frequency [Hz]"	"Sound Pessure Level [dB]   [2.83V at 1m]"	"Frequency [Hz]"	"Sound Pessure Level [dB]   [2.83V at 1m]"	"Frequency [Hz]"	"Sound Pessure Level [dB]   [2.83V at 1m]"	"Frequency [Hz]"	"Sound Pessure Level [dB]   [2.83V at 1m]"	"Frequency [Hz]"	"Sound Pessure Level [dB]   [2.83V at 1m]"	"Frequency [Hz]"	"Sound Pessure Level [dB]   [2.83V at 1m]"	"Frequency [Hz]"	"Sound Pessure Level [dB]   [2.83V at 1m]"	"Frequency [Hz]"	"Sound Pessure Level [dB]   [2.83V at 1m]"	"Frequency [Hz]"	"Sound Pessure Level [dB]   [2.83V at 1m]"	"Frequency [Hz]"	"Sound Pessure Level [dB]   [2.83V at 1m]"	"Frequency [Hz]"	"Sound Pessure Level [dB]   [2.83V at 1m]"	"Frequency [Hz]"	"Sound Pessure Level [dB]   [2.83V at 1m]"	"Frequency [Hz]"	"Sound Pessure Level [dB]   [2.83V at 1m]"	"Frequency [Hz]"	"Sound Pessure Level [dB]   [2.83V at 1m]"	"Frequency [Hz]"	"Sound Pessure Level [dB]   [2.83V at 1m]"	"Frequency [Hz]"	"Sound Pessure Level [dB]   [2.83V at 1m]"	"Frequency [Hz]"	"Sound Pessure Level [dB]   [2.83V at 1m]"	"Frequency [Hz]"	"Sound Pessure Level [dB]   [2.83V at 1m]"	"Frequency [Hz]"	"Sound Pessure Level [dB]   [2.83V at 1m]"	"Frequency [Hz]"	"Sound Pessure Level [dB]   [2.83V at 1m]"	"Frequency [Hz]"	"Sound Pessure Level [dB]   [2.83V at 1m]"	"Frequency [Hz]"	"Sound Pessure Level [dB]   [2.83V at 1m]"	"Frequency [Hz]"	"Sound Pessure Level [dB]   [2.83V at 1m]"	"Frequency [Hz]"	"Sound Pessure Level [dB]   [2.83V at 1m]"	"Frequency [Hz]"	"Sound Pessure Level [dB]   [2.83V at 1m]"	"Frequency [Hz]"	"Sound Pessure Level [dB]   [2.83V at 1m]"	"Frequency [Hz]"	"Sound Pessure Level [dB]   [2.83V at 1m]"
20.5078	50.9379	20.5078	50.9983	20.5078	50.8812	20.5078	51.0604	20.5078	50.8308	20.5078	51.1223	20.5078	50.7892	20.5078	51.1824	20.5078	50.7592	20.5078	51.2396	20.5078	50.7433	20.5078	51.293	20.5078	50.7432	20.5078	51.3422	20.5078	50.7595	20.5078	51.3869	20.5078	50.7914	20.5078	51.4271	20.5078	50.8366	20.5078	51.4625	20.5078	50.8912	20.5078	51.492	20.5078	50.951	20.5078	51.5137	20.5078	51.0124	20.5078	51.525	20.5078	51.0729	20.5078	51.5228	20.5078	51.1319	20.5078	51.5052	20.5078	51.1904	20.5078	51.4719	20.5078	51.2496	20.5078	51.4254	20.5078	51.3101	20.5078	51.3699
21.9727	53.1134	21.9727	53.1223	21.9727	53.104	21.9727	53.1305	21.9727	53.0947	21.9727	53.138	21.9727	53.0864	21.9727	53.1449	21.9727	53.0802	21.9727	53.1514	21.9727	53.0778	21.9727	53.158	21.9727	53.0803	21.9727	53.1656	21.9727	53.0888	21.9727	53.1752	21.9727	53.1032	21.9727	53.1881	21.9727	53.1226	21.9727	53.2053	21.9727	53.1454	21.9727	53.2273	21.9727	53.1697	21.9727	53.2532	21.9727	53.194	21.9727	53.2808	21.9727	53.2178	21.9727	53.3065	21.9727	53.2411	21.9727	53.3262	21.9727	53.2644	21.9727	53.3367	21.9727	53.2876	21.9727	53.3366	21.9727	53.3092	21.9727	53.3266
23.4375	55.8282	23.4375	55.7896	23.4375	55.8949	23.4375	55.7824	23.4375	55.9856	23.4375	55.8086	23.4375	56.096	23.4375	55.8691	23.4375	56.2217	23.4375	55.9636	23.4375	56.3588	23.4375	56.091	23.4375	56.5043	23.4375	56.2488	23.4375	56.6561	23.4375	56.4337	23.4375	56.813	23.4375	56.641	23.4375	56.9741	23.4375	56.865	23.4375	57.1391	23.4375	57.0981	23.4375	57.3071	23.4375	57.3315	23.4375	57.476	23.4375	57.5548	23.4375	57.6423	23.4375	57.7567	23.4375	57.7996	23.4375	57.9259	23.4375	57.9393	23.4375	58.0526	23.4375	58.0515	23.4375	58.1296	23.4375	58.1258	23.4375	58.1536
24.9023	58.1344	24.9023	58.15	24.9023	58.1312	24.9023	58.177	24.9023	58.1407	24.9023	58.2147	24.9023	58.1631	24.9023	58.2622	24.9023	58.1982	24.9023	58.3187	24.9023	58.2455	24.9023	58.3837	24.9023	58.3045	24.9023	58.4569	24.9023	58.3744	24.9023	58.5379	24.9023	58.4545	24.9023	58.6261	24.9023	58.5442	24.9023	58.7206	24.9023	58.6421	24.9023	58.8198	24.9023	58.7467	24.9023	58.9209	24.9023	58.8551	24.9023	59.0202	24.9023	58.9633	24.9023	59.1129	24.9023	59.0662	24.9023	59.193	24.9023	59.1575	24.9023	59.2544	24.9023	59.2306	24.9023	59.2916	24.9023	59.2796	24.9023	59.3004
26.3672	58.21	26.3672	58.2513	26.3672	58.1919	26.3672	58.3142	26.3672	58.1986	26.3672	58.3974	26.3672	58.2317	26.3672	58.4996	26.3672	58.2921	26.3672	58.6199	26.3672	58.3802	26.3672	58.7572	26.3672	58.4954	26.3672	58.9101	26.3672	58.6357	26.3672	59.0762	26.3672	58.7979	26.3672	59.2521	26.3672	58.9774	26.3672	59.4332	26.3672	59.1682	26.3672	59.6136	26.3672	59.3635	26.3672	59.7865	26.3672	59.5561	26.3672	59.9443	26.3672	59.7388	26.3672	60.0798	26.3672	59.9046	26.3672	60.1862	26.3672	60.0474	26.3672	60.2583	26.3672	60.1617	26.3672	60.2925	26.3672	60.2428	26.3672	60.2872
27.832	60.7176	27.832	60.7599	27.832	60.6804	27.832	60.8059	27.832	60.6499	27.832	60.8541	27.832	60.6279	27.832	60.9034	27.832	60.6161	27.832	60.9531	27.832	60.6162	27.832	61.0027	27.832	60.63	27.832	61.0523	27.832	60.6587	27.832	61.102	27.832	60.7032	27.832	61.1522	27.832	60.7635	27.832	61.2031	27.832	60.8384	27.832	61.2545	27.832	60.9255	27.832	61.3057	27.832	61.0209	27.832	61.3548	27.832	61.1195	27.832	61.3994	27.832	61.2154	27.832	61.4361	27.832	61.3023	27.832	61.4609	27.832	61.3744	27.832	61.4698	27.832	61.4275	27.832	61.4594
29.2969	63.5291	29.2969	63.5362	29.2969	63.5058	29.2969	63.527	29.2969	63.4668	29.2969	63.5014	29.2969	63.4128	29.2969	63.4595	29.2969	63.3447	29.2969	63.4018	29.2969	63.2635	29.2969	63.3287	29.2969	63.171	29.2969	63.2414	29.2969	63.0689	29.2969	63.1414	29.2969	62.9596	29.2969	63.0307	29.2969	62.8461	29.2969	62.9119	29.2969	62.7314	29.2969	62.7886	29.2969	62.6191	29.2969	62.6651	29.2969	62.5129	29.2969	62.5463	29.2969	62.4164	29.2969	62.4375	29.2969	62.3333	29.2969	62.344	29.2969	62.2669	29.2969	62.2706	29.2969	62.2201	29.2969	62.2204	29.2969	62.1956	29.2969	62.1954
30.7617	64.9566	30.7617	64.9656	30.7617	64.9391	30.7617	64.9658	30.7617	64.9134	30.7617	64.957	30.7617	64.8798	30.7617	64.939	30.7617	64.8385	30.7617	64.9117	30.7617	64.7901	30.7617	64.8752	30.7617	64.7352	30.7617	64.8298	30.7617	64.6747	30.7617	64.7762	30.7617	64.6101	30.7617	64.7155	30.7617	64.5429	30.7617	64.6492	30.7617	64.4753	30.7617	64.5791	30.7617	64.4096	30.7617	64.5078	30.7617	64.3483	30.7617	64.4377	30.7617	64.2942	30.7617	64.3717	30.7617	64.2496	30.7617	64.3128	30.7617	64.2168	30.7617	64.2634	30.7617	64.1973	30.7617	64.2259	30.7617	64.1922	30.7617	64.2018
32.2266	66.2502	32.2266	66.2545	32.2266	66.2389	32.2266	66.2515	32.2266	66.2207	32.2266	66.241	32.2266	66.196	32.2266	66.2231	32.2266	66.1654	32.2266	66.1977	32.2266	66.1292	32.2266	66.1654	32.2266	66.0883	32.2266	66.1265	32.2266	66.0434	32.2266	66.0819	32.2266	65.9958	32.2266	66.0328	32.2266	65.9467	32.2266	65.9805	32.2266	65.8976	32.2266	65.9269	32.2266	65.8501	32.2266	65.8739	32.2266	65.8058	32.2266	65.8237	32.2266	65.7663	32.2266	65.7786	32.2266	65.733	32.2266	65.7405	32.2266	65.707	32.2266	65.7109	32.2266	65.6891	32.2266	65.6907	32.2266	65.6801	32.2266	65.6805
33.6914	67.3749	33.6914	67.3739	33.6914	67.368	33.6914	67.365	33.6914	67.3534	33.6914	67.3482	33.6914	67.3315	33.6914	67.3235	33.6914	67.3027	33.6914	67.2913	33.6914	67.2674	33.6914	67.2522	33.6914	67.2265	33.6914	67.207	33.6914	67.1808	33.6914	67.1568	33.6914	67.1314	33.6914	67.103	33.6914	67.0796	33.6914	67.0472	33.6914	67.0269	33.6914	66.9915	33.6914	66.9748	33.6914	66.9377	33.6914	66.9251	33.6914	66.8881	33.6914	66.8794	33.6914	66.8447	33.6914	66.8393	33.6914	66.8092	33.6914	66.8064	33.6914	66.7829	33.6914	66.7818	33.6914	66.7669	33.6914	66.7666	33.6914	66.7615
35.1562	68.9607	35.1562	68.9599	35.1562	68.955	35.1562	68.9525	35.1562	68.9428	35.1562	68.9384	35.1562	68.9244	35.1562	68.9176	35.1562	68.9001	35.1562	68.8902	35.1562	68.87	35.1562	68.8567	35.1562	68.8346	35.1562	68.8175	35.1562	68.7944	35.1562	68.7734	35.1562	68.7503	35.1562	68.7254	35.1562	68.7031	35.1562	68.6747	35.1562	68.6541	35.1562	68.623	35.1562	68.6047	35.1562	68.572	35.1562	68.5567	35.1562	68.5237	35.1562	68.5117	35.1562	68.4804	35.1562	68.4718	35.1562	68.4441	35.1562	68.4386	35.1562	68.4168	35.1562	68.4137	35.1562	68.3997	35.1562	68.3983	35.1562	68.3935
36.6211	70.4095	36.6211	70.4047	36.6211	70.4049	36.6211	70.3902	36.6211	70.3912	36.6211	70.3662	36.6211	70.3689	36.6211	70.3329	36.6211	70.3388	36.6211	70.2909	36.6211	70.3015	36.6211	70.2413	36.6211	70.2581	36.6211	70.1852	36.6211	70.2098	36.6211	70.1244	36.6211	70.1578	36.6211	70.0609	36.6211	70.1034	36.6211	69.997	36.6211	70.048	36.6211	69.935	36.6211	69.993	36.6211	69.8774	36.6211	69.9398	36.6211	69.8267	36.6211	69.8898	36.6211	69.7848	36.6211	69.8441	36.6211	69.7536	36.6211	69.804	36.6211	69.734	36.6211	69.7709	36.6211	69.7265	36.6211	69.746	36.6211	69.7308
38.0859	71.4919	38.0859	71.4873	38.0859	71.4879	38.0859	71.4741	38.0859	71.4755	38.0859	71.4524	38.0859	71.4551	38.0859	71.4225	38.0859	71.4271	38.0859	71.385	38.0859	71.3921	38.0859	71.3406	38.0859	71.3512	38.0859	71.2903	38.0859	71.3053	38.0859	71.2355	38.0859	71.2557	38.0859	71.1778	38.0859	71.2037	38.0859	71.1191	38.0859	71.1508	38.0859	71.0615	38.0859	71.0985	38.0859	71.0072	38.0859	71.048	38.0859	70.9584	38.0859	71.0007	38.0859	70.9173	38.0859	70.9578	38.0859	70.8855	38.0859	70.9205	38.0859	70.8643	38.0859	70.8903	38.0859	70.8545	38.0859	70.8683	38.0859	70.856
39.5508	72.4449	39.5508	72.4708	39.5508	72.4118	39.5508	72.4887	39.5508	72.3724	39.5508	72.498	39.5508	72.3277	39.5508	72.4982	39.5508	72.2789	39.5508	72.4887	39.5508	72.2271	39.5508	72.4694	39.5508	72.1737	39.5508	72.4404	39.5508	72.1201	39.5508	72.402	39.5508	72.0675	39.5508	72.3549	39.5508	72.0173	39.5508	72.3003	39.5508	71.9707	39.5508	72.2401	39.5508	71.929	39.5508	72.1763	39.5508	71.8933	39.5508	72.1117	39.5508	71.8649	39.5508	72.0488	39.5508	71.8447	39.5508	71.9905	39.5508	71.8338	39.5508	71.9392	39.5508	71.8331	39.5508	71.8967	39.5508	71.8432	39.5508	71.8645
41.0156	73.1402	41.0156	73.1304	41.0156	73.1428	41.0156	73.1136	41.0156	73.1382	41.0156	73.0904	41.0156	73.1267	41.0156	73.0615	41.0156	73.1088	41.0156	73.0282	41.0156	73.0852	41.0156	72.9915	41.0156	73.057	41.0156	72.9529	41.0156	73.0252	41.0156	72.9139	41.0156	72.991	41.0156	72.8759	41.0156	72.9557	41.0156	72.8404	41.0156	72.9203	41.0156	72.8083	41.0156	72.8859	41.0156	72.7808	41.0156	72.8533	41.0156	72.7583	41.0156	72.8233	41.0156	72.7413	41.0156	72.7963	41.0156	72.7299	41.0156	72.773	41.0156	72.7241	41.0156	72.7537	41.0156	72.7238	41.0156	72.7389	41.0156	72.7288
42.4805	73.7166	42.4805	73.7052	42.4805	73.7197	42.4805	73.6856	42.4805	73.7144	42.4805	73.6587	42.4805	73.7011	42.4805	73.625	42.4805	73.6801	42.4805	73.5859	42.4805	73.6524	42.4805	73.5427	42.4805	73.619	42.4805	73.4969	42.4805	73.5811	42.4805	73.4503	42.4805	73.5401	42.4805	73.4046	42.4805	73.4975	42.4805	73.3616	42.4805	73.4547	42.4805	73.3227	42.4805	73.4131	42.4805	73.2893	42.4805	73.3741	42.4805	73.2622	42.4805	73.3385	42.4805	73.2421	42.4805	73.307	42.4805	73.229	42.4805	73.2802	42.4805	73.2228	42.4805	73.2581	42.4805	73.2231	42.4805	73.2411	42.4805	73.2293
43.9453	74.9711	43.9453	74.9588	43.9453	74.9759	43.9453	74.9387	43.9453	74.9739	43.9453	74.9108	43.9453	74.9659	43.9453	74.8753	43.9453	74.9526	43.9453	74.833	43.9453	74.9349	43.9453	74.7851	43.9453	74.9138	43.9453	74.7335	43.9453	74.8903	43.9453	74.6805	43.9453	74.865	43.9453	74.6289	43.9453	74.8386	43.9453	74.5818	43.9453	74.8115	43.9453	74.5419	43.9453	74.7838	43.9453	74.512	43.9453	74.7554	43.9453	74.4936	43.9453	74.7259	43.9453	74.4875	43.9453	74.695	43.9453	74.4931	43.9453	74.6627	43.9453	74.509	43.9453	74.6292	43.9453	74.533	43.9453	74.5953	43.9453	74.5625
45.4102	75.6468	45.4102	75.6557	45.4102	75.6249	45.4102	75.6515	45.4102	75.5905	45.4102	75.6345	45.4102	75.5445	45.4102	75.6049	45.4102	75.488	45.4102	75.5637	45.4102	75.4227	45.4102	75.5119	45.4102	75.3504	45.4102	75.4509	45.4102	75.2734	45.4102	75.3823	45.4102	75.194	45.4102	75.3079	45.4102	75.1149	45.4102	75.2299	45.4102	75.0386	45.4102	75.1507	45.4102	74.9676	45.4102	75.0727	45.4102	74.904	45.4102	74.9984	45.4102	74.8497	45.4102	74.9304	45.4102	74.8063	45.4102	74.8709	45.4102	74.775	45.4102	74.8219	45.4102	74.7567	45.4102	74.7852	45.4102	74.7522	45.4102	74.7617
46.875	76.3596	46.875	76.3674	46.875	76.339	46.875	76.3626	46.875	76.306	46.875	76.3452	46.875	76.2612	46.875	76.3157	46.875	76.2052	46.875	76.2746	46.875	76.1393	46.875	76.2229	46.875	76.065	46.875	76.1615	46.875	75.9842	46.875	76.0918	46.875	75.899	46.875	76.0152	46.875	75.8122	46.875	75.9336	46.875	75.7265	46.875	75.8492	46.875	75.6452	46.875	75.7645	46.875	75.5711	46.875	75.6823	46.875	75.5071	46.875	75.6054	46.875	75.4556	46.875	75.5368	46.875	75.4186	46.875	75.4792	46.875	75.3976	46.875	75.4349	46.875	75.3932	46.875	75.4059
48.3398	76.9842	48.3398	76.9827	48.3398	76.9749	48.3398	76.9706	48.3398	76.9551	48.3398	76.9482	48.3398	76.9251	48.3398	76.9159	48.3398	76.8858	48.3398	76.8747	48.3398	76.8379	48.3398	76.8254	48.3398	76.7828	48.3398	76.7693	48.3398	76.7217	48.3398	76.7079	48.3398	76.6564	48.3398	76.6427	48.3398	76.5889	48.3398	76.5758	48.3398	76.5212	48.3398	76.509	48.3398	76.4555	48.3398	76.4445	48.3398	76.394	48.3398	76.3846	48.3398	76.339	48.3398	76.3312	48.3398	76.2924	48.3398	76.2862	48.3398	76.2557	48.3398	76.2513	48.3398	76.2303	48.3398	76.2276	48.3398	76.2169	48.3398	76.216
51.2695	78.0971	51.2695	78.085	51.2695	78.0988	51.2695	78.0628	51.2695	78.0902	51.2695	78.031	51.2695	78.072	51.2695	77.9905	51.2695	78.0448	51.2695	77.9426	51.2695	78.0097	51.2695	77.8889	51.2695	77.9679	51.2695	77.8316	51.2695	77.9209	51.2695	77.7727	51.2695	77.8701	51.2695	77.7144	51.2695	77.8173	51.2695	77.6591	51.2695	77.7639	51.2695	77.6086	51.2695	77.7116	51.2695	77.5647	51.2695	77.6617	51.2695	77.5284	51.2695	77.6156	51.2695	77.5005	51.2695	77.5745	51.2695	77.4813	51.2695	77.5391	51.2695	77.4707	51.2695	77.5104	51.2695	77.4687	51.2695	77.4888	51.2695	77.4748
52.7344	78.5917	52.7344	78.5742	52.7344	78.5995	52.7344	78.5476	52.7344	78.5975	52.7344	78.5127	52.7344	78.5861	52.7344	78.4709	52.7344	78.5662	52.7344	78.424	52.7344	78.5388	52.7344	78.3741	52.7344	78.5055	52.7344	78.3232	52.7344	78.4678	52.7344	78.2736	52.7344	78.4274	52.7344	78.2274	52.7344	78.3861	52.7344	78.1866	52.7344	78.3453	52.7344	78.1526	52.7344	78.3064	52.7344	78.1264	52.7344	78.2701	52.7344	78.1083	52.7344	78.237	52.7344	78.0981	52.7344	78.2072	52.7344	78.0951	52.7344	78.1806	52.7344	78.0985	52.7344	78.1573	52.7344	78.1071	52.7344	78.1371	52.7344	78.1202
54.1992	79.204	54.1992	79.2003	54.1992	79.1953	54.1992	79.1843	54.1992	79.1747	54.1992	79.1563	54.1992	79.143	54.1992	79.1172	54.1992	79.1014	54.1992	79.0683	54.1992	79.0517	54.1992	79.0112	54.1992	78.9957	54.1992	78.9481	54.1992	78.9357	54.1992	78.8813	54.1992	78.874	54.1992	78.8134	54.1992	78.8128	54.1992	78.7471	54.1992	78.7545	54.1992	78.6851	54.1992	78.7006	54.1992	78.6298	54.1992	78.6525	54.1992	78.5831	54.1992	78.611	54.1992	78.5464	54.1992	78.5761	54.1992	78.5202	54.1992	78.5478	54.1992	78.5044	54.1992	78.5257	54.1992	78.4982	54.1992	78.5098	54.1992	78.5004
55.6641	79.8024	55.6641	79.8037	55.6641	79.7874	55.6641	79.7914	55.6641	79.7591	55.6641	79.7659	55.6641	79.7182	55.6641	79.7283	55.6641	79.6661	55.6641	79.6798	55.6641	79.6044	55.6641	79.6222	55.6641	79.5353	55.6641	79.5574	55.6641	79.4613	55.6641	79.4879	55.6641	79.3849	55.6641	79.4159	55.6641	79.3091	55.6641	79.3441	55.6641	79.2368	55.6641	79.2748	55.6641	79.1705	55.6641	79.2101	55.6641	79.1124	55.6641	79.1518	55.6641	79.0641	55.6641	79.1011	55.6641	79.0266	55.6641	79.0588	55.6641	79.0004	55.6641	79.0253	55.6641	78.9851	55.6641	79.001	55.6641	78.9805	55.6641	78.9859
58.5938	80.6569	58.5938	80.6522	58.5938	80.6485	58.5938	80.6345	58.5938	80.6273	58.5938	80.6046	58.5938	80.5939	58.5938	80.5636	58.5938	80.5497	58.5938	80.513	58.5938	80.4963	58.5938	80.4548	58.5938	80.4356	58.5938	80.3912	58.5938	80.3701	58.5938	80.3246	58.5938	80.3023	58.5938	80.2575	58.5938	80.2349	58.5938	80.1925	58.5938	80.1701	58.5938	80.1318	58.5938	80.1104	58.5938	80.0771	58.5938	80.0575	58.5938	80.0298	58.5938	80.0125	58.5938	79.9908	58.5938	79.9763	58.5938	79.9603	58.5938	79.949	58.5938	79.9382	58.5938	79.9305	58.5938	79.9244	58.5938	79.9204	58.5938	79.9184
60.0586	81.1275	60.0586	81.1233	60.0586	81.118	60.0586	81.1057	60.0586	81.0951	60.0586	81.0753	60.0586	81.0595	60.0586	81.0334	60.0586	81.0124	60.0586	80.9818	60.0586	80.9556	60.0586	80.9223	60.0586	80.8912	60.0586	80.8573	60.0586	80.8217	60.0586	80.7895	60.0586	80.75	60.0586	80.7214	60.0586	80.6788	60.0586	80.6555	60.0586	80.6109	60.0586	80.594	60.0586	80.549	60.0586	80.5386	60.0586	80.4949	60.0586	80.4907	60.0586	80.4502	60.0586	80.4507	60.0586	80.4154	60.0586	80.4189	60.0586	80.3906	60.0586	80.3951	60.0586	80.3752	60.0586	80.3788	60.0586	80.3685	60.0586	80.3699
62.9883	82.0295	62.9883	82.0213	62.9883	82.0226	62.9883	81.9984	62.9883	82.0008	62.9883	81.9617	62.9883	81.965	62.9883	81.9126	62.9883	81.9165	62.9883	81.8529	62.9883	81.8572	62.9883	81.7852	62.9883	81.7893	62.9883	81.7122	62.9883	81.7156	62.9883	81.6369	62.9883	81.6392	62.9883	81.5624	62.9883	81.5633	62.9883	81.4917	62.9883	81.4909	62.9883	81.4272	62.9883	81.4247	62.9883	81.3709	62.9883	81.3669	62.9883	81.3239	62.9883	81.319	62.9883	81.2867	62.9883	81.2815	62.9883	81.2589	62.9883	81.2541	62.9883	81.2396	62.9883	81.236	62.9883	81.2281	62.9883	81.2262	62.9883	81.2237
64.4531	82.4445	64.4531	82.4307	64.4531	82.4428	64.4531	82.402	64.4531	82.4258	64.4531	82.3593	64.4531	82.3941	64.4531	82.3044	64.4531	82.3491	64.4531	82.2395	64.4531	82.2928	64.4531	82.1674	64.4531	82.2273	64.4531	82.0911	64.4531	82.1556	64.4531	82.0141	64.4531	82.0808	64.4531	81.9395	64.4531	82.006	64.4531	81.8705	64.4531	81.9344	64.4531	81.8096	64.4531	81.8686	64.4531	81.7584	64.4531	81.8109	64.4531	81.7178	64.4531	81.7626	64.4531	81.6878	64.4531	81.7239	64.4531	81.6675	64.4531	81.6946	64.4531	81.6557	64.4531	81.6737	64.4531	81.651	64.4531	81.66	64.4531	81.6526
67.3828	83.2295	67.3828	83.215	67.3828	83.2274	67.3828	83.1844	67.3828	83.209	67.3828	83.1384	67.3828	83.175	67.3828	83.0784	67.3828	83.1265	67.3828	83.0063	67.3828	83.0652	67.3828	82.9246	67.3828	82.9931	67.3828	82.8361	67.3828	82.9129	67.3828	82.7441	67.3828	82.8273	67.3828	82.6523	67.3828	82.7394	67.3828	82.5641	67.3828	82.6524	67.3828	82.483	67.3828	82.5693	67.3828	82.4117	67.3828	82.4928	67.3828	82.3523	67.3828	82.4249	67.3828	82.3058	67.3828	82.3672	67.3828	82.2725	67.3828	82.3204	67.3828	82.2519	67.3828	82.2847	67.3828	82.2434	67.3828	82.2601	67.3828	82.2463
68.8477	83.4799	68.8477	83.4675	68.8477	83.4768	68.8477	83.4398	68.8477	83.4585	68.8477	83.3974	68.8477	83.4259	68.8477	83.3414	68.8477	83.3802	68.8477	83.2736	68.8477	83.3231	68.8477	83.1961	68.8477	83.2566	68.8477	83.1115	68.8477	83.1831	68.8477	83.0231	68.8477	83.1051	68.8477	82.9341	68.8477	83.0253	68.8477	82.8482	68.8477	82.9463	68.8477	82.7687	68.8477	82.8705	68.8477	82.6988	68.8477	82.8	68.8477	82.6407	68.8477	82.7364	68.8477	82.5959	68.8477	82.6809	68.8477	82.5651	68.8477	82.6342	68.8477	82.5479	68.8477	82.5967	68.8477	82.5435	68.8477	82.5687	68.8477	82.5507
71.7773	83.9016	71.7773	83.9	71.7773	83.8876	71.7773	83.883	71.7773	83.8584	71.7773	83.8515	71.7773	83.8149	71.7773	83.8068	71.7773	83.7588	71.7773	83.7507	71.7773	83.692	71.7773	83.6856	71.7773	83.6172	71.7773	83.6141	71.7773	83.5375	71.7773	83.539	71.7773	83.4561	71.7773	83.4632	71.7773	83.3765	71.7773	83.3895	71.7773	83.3018	71.7773	83.3204	71.7773	83.2349	71.7773	83.2581	71.7773	83.1779	71.7773	83.2039	71.7773	83.1321	71.7773	83.1586	71.7773	83.098	71.7773	83.1223	71.7773	83.0749	71.7773	83.0946	71.7773	83.0622	71.7773	83.0749	71.7773	83.0585	71.7773	83.0629
74.707	84.2792	74.707	84.2729	74.707	84.2688	74.707	84.2501	74.707	84.2419	74.707	84.2119	74.707	84.1995	74.707	84.16	74.707	84.1432	74.707	84.0966	74.707	84.0752	74.707	84.0243	74.707	83.9983	74.707	83.9463	74.707	83.9157	74.707	83.8657	74.707	83.8309	74.707	83.7859	74.707	83.7475	74.707	83.7098	74.707	83.6688	74.707	83.6399	74.707	83.5978	74.707	83.5784	74.707	83.5368	74.707	83.5262	74.707	83.4872	74.707	83.4837	74.707	83.4493	74.707	83.4507	74.707	83.4229	74.707	83.4265	74.707	83.407	74.707	83.4102	74.707	83.4001	74.707	83.4014
77.6367	84.5073	77.6367	84.4978	77.6367	84.4993	77.6367	84.4711	77.6367	84.474	77.6367	84.4286	77.6367	84.4324	77.6367	84.3719	77.6367	84.3762	77.6367	84.3035	77.6367	84.3076	77.6367	84.2264	77.6367	84.2296	77.6367	84.144	77.6367	84.1454	77.6367	84.0597	77.6367	84.0587	77.6367	83.9771	77.6367	83.9733	77.6367	83.8995	77.6367	83.8925	77.6367	83.8293	77.6367	83.8195	77.6367	83.7686	77.6367	83.7566	77.6367	83.7183	77.6367	83.7051	77.6367	83.6786	77.6367	83.6655	77.6367	83.6488	77.6367	83.6372	77.6367	83.6278	77.6367	83.6192	77.6367	83.6147	77.6367	83.6102	77.6367	83.6089
79.1016	84.5413	79.1016	84.5308	79.1016	84.5344	79.1016	84.5033	79.1016	84.5105	79.1016	84.4601	79.1016	84.4705	79.1016	84.4029	79.1016	84.4162	79.1016	84.3341	79.1016	84.3497	79.1016	84.2568	79.1016	84.2739	79.1016	84.1743	79.1016	84.1921	79.1016	84.0902	79.1016	84.1077	79.1016	84.008	79.1016	84.0242	79.1016	83.9309	79.1016	83.9449	79.1016	83.8616	79.1016	83.8727	79.1016	83.8018	79.1016	83.8098	79.1016	83.7526	79.1016	83.7575	79.1016	83.714	79.1016	83.7163	79.1016	83.6854	79.1016	83.686	79.1016	83.6659	79.1016	83.6656	79.1016	83.6545	79.1016	83.6542	79.1016	83.6506
82.0312	84.5229	82.0312	84.5102	82.0312	84.5183	82.0312	84.4806	82.0312	84.4965	82.0312	84.4354	82.0312	84.4586	82.0312	84.3766	82.0312	84.4066	82.0312	84.3069	82.0312	84.3428	82.0312	84.2294	82.0312	84.2702	82.0312	84.1477	82.0312	84.1924	82.0312	84.0657	82.0312	84.113	82.0312	83.9868	82.0312	84.0353	82.0312	83.9142	82.0312	83.9626	82.0312	83.8506	82.0312	83.8973	82.0312	83.7976	82.0312	83.8411	82.0312	83.7558	82.0312	83.7946	82.0312	83.725	82.0312	83.7578	82.0312	83.7042	82.0312	83.7299	82.0312	83.6921	82.0312	83.7098	82.0312	83.6874	82.0312	83.6964	82.0312	83.6889
84.9609	84.5871	84.9609	84.5729	84.9609	84.583	84.9609	84.5411	84.9609	84.5607	84.9609	84.4932	84.9609	84.5215	84.9609	84.4315	84.9609	84.4673	84.9609	84.3592	84.9609	84.4009	84.9609	84.2799	84.9609	84.3258	84.9609	84.1975	84.9609	84.2458	84.9609	84.1161	84.9609	84.165	84.9609	84.0394	84.9609	84.0873	84.9609	83.9706	84.9609	84.016	84.9609	83.9117	84.9609	83.9536	84.9609	83.864	84.9609	83.9015	84.9609	83.8275	84.9609	83.86	84.9609	83.8015	84.9609	83.8283	84.9609	83.7845	84.9609	83.8052	84.9609	83.775	84.9609	83.7891	84.9609	83.7714	84.9609	83.7786	84.9609	83.7728
87.8906	84.6235	87.8906	84.6108	87.8906	84.616	87.8906	84.5786	87.8906	84.5889	87.8906	84.5283	87.8906	84.5438	87.8906	84.4626	87.8906	84.4833	87.8906	84.3852	87.8906	84.4109	87.8906	84.3004	87.8906	84.3307	87.8906	84.2131	87.8906	84.2475	87.8906	84.1284	87.8906	84.1662	87.8906	84.0511	87.8906	84.0913	87.8906	83.9851	87.8906	84.0263	87.8906	83.933	87.8906	83.9737	87.8906	83.8956	87.8906	83.9343	87.8906	83.8722	87.8906	83.9072	87.8906	83.8604	87.8906	83.8904	87.8906	83.8572	87.8906	83.8809	87.8906	83.8593	87.8906	83.8756	87.8906	83.8636	87.8906	83.8719	87.8906	83.8681
90.8203	84.6837	90.8203	84.6751	90.8203	84.6709	90.8203	84.6456	90.8203	84.6374	90.8203	84.5969	90.8203	84.585	90.8203	84.5315	90.8203	84.5165	90.8203	84.4532	90.8203	84.4357	90.8203	84.3665	90.8203	84.3474	90.8203	84.2767	90.8203	84.257	90.8203	84.1893	90.8203	84.1699	90.8203	84.1097	90.8203	84.0917	90.8203	84.0424	90.8203	84.0266	90.8203	83.9905	90.8203	83.9777	90.8203	83.9553	90.8203	83.9456	90.8203	83.9358	90.8203	83.9293	90.8203	83.9293	90.8203	83.9254	90.8203	83.9315	90.8203	83.9297	90.8203	83.9377	90.8203	83.9371	90.8203	83.9436	90.8203	83.9434	90.8203	83.9459
95.2148	84.6548	95.2148	84.6455	95.2148	84.6404	95.2148	84.6131	95.2148	84.6029	95.2148	84.5594	95.2148	84.5439	95.2148	84.4873	95.2148	84.4664	95.2148	84.4006	95.2148	84.3743	95.2148	84.3044	95.2148	84.2726	95.2148	84.2041	95.2148	84.167	95.2148	84.1058	95.2148	84.0638	95.2148	84.0152	95.2148	83.969	95.2148	83.9371	95.2148	83.8879	95.2148	83.875	95.2148	83.8245	95.2148	83.8304	95.2148	83.7805	95.2148	83.8023	95.2148	83.7553	95.2148	83.7878	95.2148	83.7463	95.2148	83.7825	95.2148	83.7489	95.2148	83.7815	95.2148	83.7578	95.2148	83.7804	95.2148	83.7681	95.2148	83.7762
98.1445	84.5447	98.1445	84.5336	98.1445	84.5311	98.1445	84.4984	98.1445	84.4933	98.1445	84.4411	98.1445	84.4331	98.1445	84.3649	98.1445	84.3535	98.1445	84.2741	98.1445	84.2589	98.1445	84.1739	98.1445	84.1544	98.1445	84.0705	98.1445	84.0461	98.1445	83.9703	98.1445	83.9405	98.1445	83.8792	98.1445	83.8439	98.1445	83.8023	98.1445	83.7618	98.1445	83.7429	98.1445	83.6981	98.1445	83.7018	98.1445	83.6545	98.1445	83.6778	98.1445	83.6305	98.1445	83.6671	98.1445	83.6229	98.1445	83.6647	98.1445	83.6273	98.1445	83.6653	98.1445	83.6381	98.1445	83.6646	98.1445	83.6502	98.1445	83.6597
101.074	84.4296	101.074	84.4145	101.074	84.4175	101.074	84.373	101.074	84.3787	101.074	84.3068	101.074	84.3152	101.074	84.2194	101.074	84.2301	101.074	84.1152	101.074	84.1278	101.074	83.9998	101.074	84.0137	101.074	83.8798	101.074	83.8944	101.074	83.7625	101.074	83.7768	101.074	83.6547	101.074	83.6678	101.074	83.5626	101.074	83.5735	101.074	83.4904	101.074	83.4985	101.074	83.4401	101.074	83.4448	101.074	83.4104	101.074	83.4119	101.074	83.3978	101.074	83.3966	101.074	83.3967	101.074	83.394	101.074	83.4012	101.074	83.3983	101.074	83.4057	101.074	83.4039	101.074	83.407
105.469	84.2833	105.469	84.2665	105.469	84.2725	105.469	84.2227	105.469	84.2346	105.469	84.1539	105.469	84.1712	105.469	84.063	105.469	84.0853	105.469	83.9545	105.469	83.9809	105.469	83.8338	105.469	83.8632	105.469	83.7072	105.469	83.7385	105.469	83.582	105.469	83.6137	105.469	83.465	105.469	83.4957	105.469	83.3627	105.469	83.3909	105.469	83.2798	105.469	83.3043	105.469	83.2185	105.469	83.2386	105.469	83.1784	105.469	83.1938	105.469	83.1566	105.469	83.1676	105.469	83.1482	105.469	83.1553	105.469	83.1477	105.469	83.1517	105.469	83.1499	105.469	83.1517	105.469	83.1516
108.398	84.1815	108.398	84.1639	108.398	84.171	108.398	84.1189	108.398	84.1327	108.398	84.0483	108.398	84.0687	108.398	83.9556	108.398	83.9819	108.398	83.8453	108.398	83.8768	108.398	83.7229	108.398	83.7589	108.398	83.5952	108.398	83.6346	108.398	83.4691	108.398	83.511	108.398	83.3519	108.398	83.3952	108.398	83.2499	108.398	83.2934	108.398	83.1679	108.398	83.2104	108.398	83.1081	108.398	83.1485	108.398	83.0704	108.398	83.1074	108.398	83.0519	108.398	83.084	108.398	83.0477	108.398	83.0734	108.398	83.0519	108.398	83.07	108.398	83.059	108.398	83.0684	108.398	83.0651
112.793	83.9693	112.793	83.954	112.793	83.9553	112.793	83.9101	112.793	83.9127	112.793	83.8397	112.793	83.8436	112.793	83.7465	112.793	83.7515	112.793	83.6354	112.793	83.6414	112.793	83.5126	112.793	83.5194	112.793	83.3856	112.793	83.3928	112.793	83.2623	112.793	83.2694	112.793	83.1503	112.793	83.157	112.793	83.0566	112.793	83.0624	112.793	82.9858	112.793	82.9904	112.793	82.9397	112.793	82.9431	112.793	82.917	112.793	82.9193	112.793	82.9131	112.793	82.9146	112.793	82.9214	112.793	82.9224	112.793	82.9345	112.793	82.9351	112.793	82.9455	112.793	82.9458	112.793	82.9499
117.188	83.6677	117.188	83.6608	117.188	83.6408	117.188	83.6203	117.188	83.5813	117.188	83.548	117.188	83.4926	117.188	83.448	117.188	83.3792	117.188	83.3258	117.188	83.247	117.188	83.1889	117.188	83.1035	117.188	83.0459	117.188	82.9569	117.188	82.906	117.188	82.816	117.188	82.7786	117.188	82.6893	117.188	82.6712	117.188	82.584	117.188	82.5892	117.188	82.5052	117.188	82.5342	117.188	82.4545	117.188	82.504	117.188	82.4303	117.188	82.4931	117.188	82.4278	117.188	82.4938	117.188	82.4402	117.188	82.498	117.188	82.4596	117.188	82.499	117.188	82.4789	117.188	82.4929
120.117	83.7344	120.117	83.7229	120.117	83.7089	120.117	83.6749	120.117	83.6476	120.117	83.5925	120.117	83.5533	120.117	83.48	120.117	83.4305	120.117	83.3431	120.117	83.2851	120.117	83.1896	120.117	83.1245	120.117	83.0282	120.117	82.957	120.117	82.8688	120.117	82.792	120.117	82.7209	120.117	82.6386	120.117	82.5927	120.117	82.5053	120.117	82.4897	120.117	82.3984	120.117	82.4142	120.117	82.3211	120.117	82.3643	120.117	82.2733	120.117	82.3351	120.117	82.2512	120.117	82.3194	120.117	82.2488	120.117	82.31	120.117	82.2587	120.117	82.3009	120.117	82.2739	120.117	82.289
124.512	83.6422	124.512	83.6228	124.512	83.6281	124.512	83.5708	124.512	83.5813	124.512	83.4883	124.512	83.5044	124.512	83.3792	124.512	83.4012	124.512	83.2491	124.512	83.2774	124.512	83.1054	124.512	83.1404	124.512	82.9566	124.512	82.9985	124.512	82.8124	124.512	82.8609	124.512	82.6823	124.512	82.7364	124.512	82.5747	124.512	82.6327	124.512	82.4951	124.512	82.5544	124.512	82.4455	124.512	82.5032	124.512	82.4235	124.512	82.4769	124.512	82.4237	124.512	82.4699	124.512	82.438	124.512	82.4748	124.512	82.458	124.512	82.4835	124.512	82.4761	124.512	82.4892	124.512	82.4872
128.906	83.4047	128.906	83.3927	128.906	83.3804	128.906	83.3451	128.906	83.3208	128.906	83.2646	128.906	83.2283	128.906	83.1552	128.906	83.1078	128.906	83.0234	128.906	82.9659	128.906	82.8771	128.906	82.8115	128.906	82.7264	128.906	82.6555	128.906	82.5822	128.906	82.5097	128.906	82.4557	128.906	82.3858	128.906	82.3563	128.906	82.2934	128.906	82.2903	128.906	82.2381	128.906	82.2593	128.906	82.2201	128.906	82.2598	128.906	82.234	128.906	82.284	128.906	82.2698	128.906	82.3208	128.906	82.3152	128.906	82.3585	128.906	82.3577	128.906	82.3866	128.906	82.3872	128.906	82.3973
133.301	83.2942	133.301	83.2751	133.301	83.2733	133.301	83.2167	133.301	83.213	133.301	83.1213	133.301	83.1153	133.301	82.9927	133.301	82.9842	133.301	82.837	133.301	82.8252	133.301	82.6623	133.301	82.6468	133.301	82.4796	133.301	82.4596	133.301	82.3016	133.301	82.2766	133.301	82.1421	133.301	82.112	133.301	82.0139	133.301	81.9791	133.301	81.9259	133.301	81.8879	133.301	81.8813	133.301	81.8421	133.301	81.8762	133.301	81.8386	133.301	81.9005	133.301	81.8672	133.301	81.9402	133.301	81.9135	133.301	81.9804	133.301	81.962	133.301	82.0085	133.301	81.999	133.301	82.0156
139.16	83.0037	139.16	82.9888	139.16	82.9834	139.16	82.9391	139.16	82.9283	139.16	82.8563	139.16	82.8401	139.16	82.7432	139.16	82.7217	139.16	82.6041	139.16	82.5776	139.16	82.4448	139.16	82.4139	139.16	82.2726	139.16	82.2388	139.16	82.0967	139.16	82.062	139.16	81.9275	139.16	81.8945	139.16	81.7754	139.16	81.7472	139.16	81.6495	139.16	81.6292	139.16	81.5561	139.16	81.5454	139.16	81.4967	139.16	81.4959	139.16	81.4679	139.16	81.475	139.16	81.4624	139.16	81.4737	139.16	81.4701	139.16	81.4811	139.16	81.4813	139.16	81.488	139.16	81.4885
143.555	82.6464	143.555	82.6264	143.555	82.6266	143.555	82.5674	143.555	82.5675	143.555	82.4724	143.555	82.4716	143.555	82.3458	143.555	82.3433	143.555	82.1942	143.555	82.1887	143.555	82.0263	143.555	82.0164	143.555	81.8523	143.555	81.8366	143.555	81.6838	143.555	81.6614	143.555	81.5325	143.555	81.5032	143.555	81.4084	143.555	81.3732	143.555	81.3185	143.555	81.2792	143.555	81.2646	143.555	81.2241	143.555	81.2435	143.555	81.2049	143.555	81.2472	143.555	81.2135	143.555	81.2653	143.555	81.2386	143.555	81.2867	143.555	81.2684	143.555	81.302	143.555	81.2926	143.555	81.3046
147.949	82.8532	147.949	82.8311	147.949	82.8287	147.949	82.7629	147.949	82.7587	147.949	82.6507	147.949	82.6461	147.949	82.4986	147.949	82.4952	147.949	82.3132	147.949	82.3128	147.949	82.1037	147.949	82.1079	147.949	81.8822	147.949	81.8926	147.949	81.6635	147.949	81.6813	147.949	81.4641	147.949	81.4902	147.949	81.2996	147.949	81.3347	147.949	81.1821	147.949	81.2262	147.949	81.1168	147.949	81.1689	147.949	81.1009	147.949	81.1582	147.949	81.1237	147.949	81.1816	147.949	81.1697	147.949	81.2219	147.949	81.2219	147.949	81.2617	147.949	81.2651	147.949	81.2866	147.949	81.2883
153.809	82.837	153.809	82.8168	153.809	82.8171	153.809	82.7574	153.809	82.7578	153.809	82.6605	153.809	82.6608	153.809	82.5296	153.809	82.5291	153.809	82.3696	153.809	82.3679	153.809	82.1877	153.809	82.1843	153.809	81.9935	153.809	81.9879	153.809	81.7996	153.809	81.7912	153.809	81.6204	153.809	81.6089	153.809	81.471	153.809	81.4563	153.809	81.364	153.809	81.3467	153.809	81.3064	153.809	81.2881	153.809	81.297	153.809	81.2794	153.809	81.3258	153.809	81.3108	153.809	81.3764	153.809	81.3651	153.809	81.4299	153.809	81.4227	153.809	81.4693	153.809	81.4659	153.809	81.4827
159.668	82.2987	159.668	82.2772	159.668	82.2809	159.668	82.2177	159.668	82.2243	159.668	82.1232	159.668	82.1309	159.668	81.9979	159.668	82.0042	159.668	81.8474	159.668	81.8493	159.668	81.6783	159.668	81.6726	159.668	81.4982	159.668	81.4818	159.668	81.3158	159.668	81.2859	159.668	81.1406	159.668	81.095	159.668	80.9822	159.668	80.9203	159.668	80.8499	159.668	80.7728	159.668	80.7505	159.668	80.6621	159.668	80.6868	159.668	80.5935	159.668	80.6555	159.668	80.5658	159.668	80.6479	159.668	80.571	159.668	80.6516	159.668	80.5954	159.668	80.6538	159.668	80.6242	159.668	80.6455
165.527	82.0692	165.527	82.0365	165.527	82.0474	165.527	81.9511	165.527	81.9725	165.527	81.8182	165.527	81.8493	165.527	81.6467	165.527	81.686	165.527	81.4493	165.527	81.4941	165.527	81.2414	165.527	81.2879	165.527	81.0405	165.527	81.0839	165.527	80.8628	165.527	80.898	165.527	80.7207	165.527	80.743	165.527	80.6198	165.527	80.6255	165.527	80.5579	165.527	80.5452	165.527	80.5265	165.527	80.496	165.527	80.5141	165.527	80.4693	165.527	80.5097	165.527	80.457	165.527	80.5056	165.527	80.4538	165.527	80.4983	165.527	80.4567	165.527	80.4875	165.527	80.4644	165.527	80.4753
171.387	82.2856	171.387	82.2624	171.387	82.2448	171.387	82.1754	171.387	82.1401	171.387	82.026	171.387	81.9728	171.387	81.8168	171.387	81.7454	171.387	81.5531	171.387	81.4636	171.387	81.244	171.387	81.1373	171.387	80.9054	171.387	80.7835	171.387	80.5605	171.387	80.4274	171.387	80.2403	171.387	80.1023	171.387	79.979	171.387	79.8445	171.387	79.8049	171.387	79.6824	171.387	79.73	171.387	79.626	171.387	79.744	171.387	79.6616	171.387	79.8185	171.387	79.7573	171.387	79.918	171.387	79.8756	171.387	80.0102	171.387	79.9837	171.387	80.0718	171.387	80.0591	171.387	80.0896
177.246	82.3261	177.246	82.2928	177.246	82.3119	177.246	82.2127	177.246	82.2507	177.246	82.0887	177.246	82.1448	177.246	81.9249	177.246	81.9978	177.246	81.7278	177.246	81.8149	177.246	81.5057	177.246	81.6029	177.246	81.2691	177.246	81.3707	177.246	81.0313	177.246	81.1296	177.246	80.8077	177.246	80.8935	177.246	80.6149	177.246	80.6793	177.246	80.4686	177.246	80.5043	177.246	80.379	177.246	80.3832	177.246	80.3471	177.246	80.323	177.246	80.3628	177.246	80.3195	177.246	80.4066	177.246	80.3571	177.246	80.4552	177.246	80.413	177.246	80.488	177.246	80.4639	177.246	80.4917
183.105	82.3587	183.105	82.3315	183.105	82.336	183.105	82.2558	183.105	82.2637	183.105	82.1336	183.105	82.1434	183.105	81.969	183.105	81.9789	183.105	81.7675	183.105	81.7765	183.105	81.5377	183.105	81.5457	183.105	81.2912	183.105	81.2996	183.105	81.0431	183.105	81.0546	183.105	80.8109	183.105	80.8287	183.105	80.6129	183.105	80.6394	183.105	80.4644	183.105	80.5001	183.105	80.3739	183.105	80.4167	183.105	80.3406	183.105	80.386	183.105	80.3541	183.105	80.3967	183.105	80.3968	183.105	80.4319	183.105	80.4483	183.105	80.4729	183.105	80.4902	183.105	80.5028	183.105	80.5099
188.965	82.4378	188.965	82.4044	188.965	82.4161	188.965	82.3171	188.965	82.34	188.965	82.1786	188.965	82.2117	188.965	81.9939	188.965	82.0352	188.965	81.7709	188.965	81.817	188.965	81.5212	188.965	81.5673	188.965	81.2601	188.965	81.3009	188.965	81.0068	188.965	81.0378	188.965	80.7832	188.965	80.8021	188.965	80.6101	188.965	80.618	188.965	80.503	188.965	80.5034	188.965	80.4668	188.965	80.4641	188.965	80.4935	188.965	80.4906	188.965	80.5638	188.965	80.5619	188.965	80.6527	188.965	80.6516	188.965	80.7357	188.965	80.735	188.965	80.7934	188.965	80.7929	188.965	80.8137
196.289	82.774	196.289	82.7451	196.289	82.7438	196.289	82.6575	196.289	82.6558	196.289	82.5137	196.289	82.5134	196.289	82.3186	196.289	82.3218	196.289	82.08	196.289	82.0887	196.289	81.8093	196.289	81.8245	196.289	81.5223	196.289	81.5428	196.289	81.2388	196.289	81.2614	196.289	80.9814	196.289	81.0014	196.289	80.7726	196.289	80.7856	196.289	80.6297	196.289	80.634	196.289	80.5601	196.289	80.558	196.289	80.5583	196.289	80.5548	196.289	80.6078	196.289	80.6071	196.289	80.6846	196.289	80.6881	196.289	80.7633	196.289	80.7689	196.289	80.8218	196.289	80.8259	196.289	80.8448
203.613	82.7499	203.613	82.7029	203.613	82.7299	203.613	82.5896	203.613	82.6439	203.613	82.4125	203.613	82.4947	203.613	82.1771	203.613	82.2872	203.613	81.8923	203.613	82.0295	203.613	81.5719	203.613	81.7332	203.613	81.2366	203.613	81.4154	203.613	80.9138	203.613	81.099	203.613	80.6362	203.613	80.8123	203.613	80.4359	203.613	80.5853	203.613	80.3351	203.613	80.443	203.613	80.3371	203.613	80.3972	203.613	80.4241	203.613	80.4408	203.613	80.5628	203.613	80.549	203.613	80.7148	203.613	80.6869	203.613	80.8456	203.613	80.8184	203.613	80.9301	203.613	80.9139	203.613	80.9539
210.938	83.465	210.938	83.4559	210.938	83.408	210.938	83.3795	210.938	83.2864	210.938	83.2354	210.938	83.1024	210.938	83.0243	210.938	82.8596	210.938	82.7491	210.938	82.5641	210.938	82.4161	210.938	82.2256	210.938	82.0372	210.938	81.8595	210.938	81.6318	210.938	81.4876	210.938	81.2282	210.938	81.1382	210.938	80.8628	210.938	80.8429	210.938	80.5747	210.938	80.6306	210.938	80.3953	210.938	80.5183	210.938	80.3359	210.938	80.5037	210.938	80.3814	210.938	80.5639	210.938	80.4949	210.938	80.6612	210.938	80.6301	210.938	80.7551	210.938	80.7448	210.938	80.8115	210.938	80.8096
218.262	84.0102	218.262	83.9987	218.262	83.9678	218.262	83.9331	218.262	83.8712	218.262	83.813	218.262	83.72	218.262	83.6382	218.262	83.5139	218.262	83.409	218.262	83.2536	218.262	83.1281	218.262	82.9422	218.262	82.802	218.262	82.5879	218.262	82.4437	218.262	82.2062	218.262	82.0739	218.262	81.8212	218.262	81.721	218.262	81.4639	218.262	81.4165	218.262	81.167	218.262	81.1871	218.262	80.9562	218.262	81.0454	218.262	80.8416	218.262	80.9848	218.262	80.8142	218.262	80.982	218.262	80.8492	218.262	81.0049	218.262	80.9138	218.262	81.0234	218.262	80.977	218.262	81.0164
225.586	84.1447	225.586	84.1269	225.586	84.1072	225.586	84.0554	225.586	84.0143	225.586	83.9332	225.586	83.8677	225.586	83.7642	225.586	83.6706	225.586	83.5537	225.586	83.4285	225.586	83.3086	225.586	83.1499	225.586	83.0386	225.586	82.8475	225.586	82.7579	225.586	82.5403	225.586	82.4863	225.586	82.2538	225.586	82.2481	225.586	82.0178	225.586	82.0673	225.586	81.8586	225.586	81.9607	225.586	81.79	225.586	81.9309	225.586	81.8062	225.586	81.9637	225.586	81.8833	225.586	82.0333	225.586	81.9881	225.586	82.1098	225.586	82.0881	225.586	82.1667	225.586	82.1586	225.586	82.1857
232.91	84.186	232.91	84.144	232.91	84.1572	232.91	84.0318	232.91	84.059	232.91	83.8523	232.91	83.8945	232.91	83.6112	232.91	83.6679	232.91	83.318	232.91	83.3852	232.91	82.9865	232.91	83.0546	232.91	82.6363	232.91	82.689	232.91	82.2937	232.91	82.3088	232.91	81.99	232.91	81.9449	232.91	81.7575	232.91	81.6374	232.91	81.6204	232.91	81.4276	232.91	81.5857	232.91	81.3421	232.91	81.6385	232.91	81.3792	232.91	81.7473	232.91	81.5075	232.91	81.8735	232.91	81.6793	232.91	81.9813	232.91	81.8473	232.91	82.0434	232.91	81.9756	232.91	82.0433
241.699	84.7668	241.699	84.7437	241.699	84.7119	241.699	84.6449	241.699	84.5774	241.699	84.4727	241.699	84.3626	241.699	84.2299	241.699	84.0693	241.699	83.9212	241.699	83.7027	241.699	83.5551	241.699	83.2737	241.699	83.1469	241.699	82.8002	241.699	82.7204	241.699	82.3095	241.699	82.3096	241.699	81.8406	241.699	81.9551	241.699	81.4424	241.699	81.6959	241.699	81.1649	241.699	81.5557	241.699	81.0419	241.699	81.5324	241.699	81.0728	241.699	81.5974	241.699	81.2198	241.699	81.7054	241.699	81.4236	241.699	81.8094	241.699	81.6252	241.699	81.8707	241.699	81.7804	241.699	81.8643
250.488	84.4168	250.488	84.3277	250.488	84.431	250.488	84.1679	250.488	84.3674	250.488	83.942	250.488	84.2237	250.488	83.6558	250.488	83.9991	250.488	83.316	250.488	83.6948	250.488	82.9321	250.488	83.3166	250.488	82.5182	250.488	82.8769	250.488	82.0963	250.488	82.3982	250.488	81.6983	250.488	81.9145	250.488	81.363	250.488	81.4703	250.488	81.1264	250.488	81.1134	250.488	81.0072	250.488	80.8823	250.488	80.9966	250.488	80.7918	250.488	81.0618	250.488	80.8254	250.488	81.159	250.488	80.9401	250.488	81.2466	250.488	81.083	250.488	81.2937	250.488	81.2072	250.488	81.2818
259.277	84.6648	259.277	84.6116	259.277	84.6439	259.277	84.4814	259.277	84.5507	259.277	84.2711	259.277	84.3849	259.277	83.9789	259.277	84.1442	259.277	83.6058	259.277	83.8254	259.277	83.1571	259.277	83.4269	259.277	82.6459	259.277	82.9537	259.277	82.0982	259.277	82.4234	259.277	81.5576	259.277	81.8732	259.277	81.086	259.277	81.3623	259.277	80.7514	259.277	80.9626	259.277	80.6002	259.277	80.7321	259.277	80.6294	259.277	80.685	259.277	80.7857	259.277	80.7834	259.277	80.9928	259.277	80.959	259.277	81.1816	259.277	81.1423	259.277	81.3049	259.277	81.2799	259.277	81.3389
268.066	84.9661	268.066	84.9472	268.066	84.9338	268.066	84.8732	268.066	84.8531	268.066	84.7402	268.066	84.7254	268.066	84.5434	268.066	84.5493	268.066	84.2782	268.066	84.3202	268.066	83.9406	268.066	84.031	268.066	83.5307	268.066	83.6757	268.066	83.0568	268.066	83.2545	268.066	82.541	268.066	82.7811	268.066	82.0245	268.066	82.2881	268.066	81.5654	268.066	81.8265	268.066	81.2241	268.066	81.4537	268.066	81.0361	268.066	81.2105	268.066	80.9917	268.066	81.1011	268.066	81.0413	268.066	81.0938	268.066	81.1234	268.066	81.1389	268.066	81.1887	268.066	81.1895	268.066	81.2117
276.855	83.896	276.855	83.8353	276.855	83.8827	276.855	83.7002	276.855	83.7965	276.855	83.4914	276.855	83.6397	276.855	83.2115	276.855	83.4157	276.855	82.8663	276.855	83.1296	276.855	82.4665	276.855	82.7893	276.855	82.0307	276.855	82.4069	276.855	81.5891	276.855	82.0027	276.855	81.1858	276.855	81.6094	276.855	80.8758	276.855	81.2733	276.855	80.7114	276.855	81.0475	276.855	80.7186	276.855	80.9713	276.855	80.8792	276.855	81.0478	276.855	81.1369	276.855	81.2374	276.855	81.4202	276.855	81.4742	276.855	81.666	276.855	81.6921	276.855	81.8308	276.855	81.8411	276.855	81.891
287.109	84.0288	287.109	84.0502	287.109	83.9343	287.109	83.994	287.109	83.7713	287.109	83.8548	287.109	83.5462	287.109	83.6265	287.109	83.2675	287.109	83.3036	287.109	82.9453	287.109	82.8844	287.109	82.5889	287.109	82.3756	287.109	82.2043	287.109	81.7966	287.109	81.7948	287.109	81.1849	287.109	81.3656	287.109	80.5983	287.109	80.9345	287.109	80.1129	287.109	80.5411	287.109	79.8046	287.109	80.2439	287.109	79.7149	287.109	80.0947	287.109	79.821	287.109	80.1035	287.109	80.043	287.109	80.2256	287.109	80.283	287.109	80.3846	287.109	80.4631	287.109	80.5065	287.109	80.5403
297.363	84.1774	297.363	84.1194	297.363	84.1802	297.363	84.011	297.363	84.1186	297.363	83.8524	297.363	83.9797	297.363	83.6379	297.363	83.7476	297.363	83.3548	297.363	83.4063	297.363	82.9849	297.363	82.9452	297.363	82.5101	297.363	82.3678	297.363	81.9223	297.363	81.7027	297.363	81.2379	297.363	81.0132	297.363	80.5125	297.363	80.3943	297.363	79.8464	297.363	79.9443	297.363	79.3627	297.363	79.7183	297.363	79.1467	297.363	79.7009	297.363	79.1929	297.363	79.8223	297.363	79.415	297.363	79.9949	297.363	79.7029	297.363	80.1395	297.363	79.9649	297.363	80.198	297.363	80.14
307.617	83.9364	307.617	83.9431	307.617	83.8701	307.617	83.8881	307.617	83.75	307.617	83.7722	307.617	83.5839	307.617	83.5981	307.617	83.3782	307.617	83.3678	307.617	83.1341	307.617	83.0818	307.617	82.8446	307.617	82.7392	307.617	82.4968	307.617	82.3414	307.617	82.0804	307.617	81.8997	307.617	81.6014	307.617	81.4429	307.617	81.0957	307.617	81.0211	307.617	80.6328	307.617	80.6951	307.617	80.2975	307.617	80.5103	307.617	80.146	307.617	80.4693	307.617	80.1708	307.617	80.5288	307.617	80.3084	307.617	80.6226	307.617	80.4793	307.617	80.6908	307.617	80.6203	307.617	80.6945
319.336	83.3697	319.336	83.329	319.336	83.3466	319.336	83.2264	319.336	83.2566	319.336	83.0629	319.336	83.0956	319.336	82.8381	319.336	82.8579	319.336	82.5491	319.336	82.5365	319.336	82.1906	319.336	82.1244	319.336	81.7572	319.336	81.6172	319.336	81.2497	319.336	81.021	319.336	80.6869	319.336	80.3669	319.336	80.1205	319.336	79.7294	319.336	79.6423	319.336	79.2312	319.336	79.3598	319.336	78.9995	319.336	79.3327	319.336	79.0757	319.336	79.5225	319.336	79.3747	319.336	79.8183	319.336	79.7507	319.336	80.105	319.336	80.0816	319.336	80.3037	319.336	80.2984	319.336	80.3734
329.59	83.4587	329.59	83.401	329.59	83.4365	329.59	83.2638	329.59	83.337	329.59	83.0519	329.59	83.1627	329.59	82.7747	329.59	82.9139	329.59	82.4446	329.59	82.5875	329.59	82.0753	329.59	82.1791	329.59	81.6809	329.59	81.6874	329.59	81.2766	329.59	81.1216	329.59	80.8823	329.59	80.5104	329.59	80.5265	329.59	79.9122	329.59	80.2477	329.59	79.4181	329.59	80.0864	329.59	79.13	329.59	80.0645	329.59	79.1065	329.59	80.1641	329.59	79.3169	329.59	80.3259	329.59	79.6591	329.59	80.4738	329.59	80.019	329.59	80.5423	329.59	80.3125	329.59	80.4923
341.309	83.3929	341.309	83.3314	341.309	83.3865	341.309	83.2027	341.309	83.3123	341.309	83.0047	341.309	83.1722	341.309	82.7321	341.309	82.9699	341.309	82.3754	341.309	82.7068	341.309	81.9233	341.309	82.3769	341.309	81.3662	341.309	81.9645	341.309	80.7041	341.309	81.4484	341.309	79.9613	341.309	80.8154	341.309	79.2088	341.309	80.0832	341.309	78.5801	341.309	79.33	341.309	78.2381	341.309	78.7103	341.309	78.2685	341.309	78.403	341.309	78.5972	341.309	78.4785	341.309	79.0464	341.309	78.8263	341.309	79.4493	341.309	79.2495	341.309	79.6999	341.309	79.587	341.309	79.7484
353.027	83.441	353.027	83.377	353.027	83.4306	353.027	83.235	353.027	83.3456	353.027	83.0073	353.027	83.1819	353.027	82.6819	353.027	82.9318	353.027	82.2437	353.027	82.5856	353.027	81.6797	353.027	82.1343	353.027	80.9896	353.027	81.5752	353.027	80.2019	353.027	80.9193	353.027	79.3968	353.027	80.2032	353.027	78.7192	353.027	79.5055	353.027	78.3446	353.027	78.9539	353.027	78.3718	353.027	78.6902	353.027	78.738	353.027	78.7789	353.027	79.2711	353.027	79.1453	353.027	79.8038	353.027	79.6282	353.027	80.2254	353.027	80.0773	353.027	80.4775	353.027	80.3959	353.027	80.5353
366.211	83.6811	366.211	83.7245	366.211	83.6075	366.211	83.7293	366.211	83.5129	366.211	83.6886	366.211	83.4046	366.211	83.5937	366.211	83.2815	366.211	83.4291	366.211	83.1292	366.211	83.167	366.211	82.9177	366.211	82.7667	366.211	82.6065	366.211	82.1801	366.211	82.1551	366.211	81.364	366.211	81.5384	366.211	80.3014	366.211	80.7652	366.211	79.0437	366.211	79.9027	366.211	77.7863	366.211	79.0975	366.211	76.913	366.211	78.5468	366.211	76.7652	366.211	78.3739	366.211	77.2379	366.211	78.5096	366.211	77.9191	366.211	78.7488	366.211	78.4934	366.211	78.8949	366.211	78.8261
379.395	83.1805	379.395	83.222	379.395	83.0747	379.395	83.2044	379.395	82.904	379.395	83.1329	379.395	82.6724	379.395	83.0069	379.395	82.383	379.395	82.8147	379.395	82.0307	379.395	82.5338	379.395	81.5969	379.395	82.1353	379.395	81.0495	379.395	81.5907	379.395	80.3559	379.395	80.8836	379.395	79.5123	379.395	80.0325	379.395	78.594	379.395	79.1281	379.395	77.8074	379.395	78.3651	379.395	77.4392	379.395	77.9832	379.395	77.6123	379.395	78.0747	379.395	78.1407	379.395	78.484	379.395	78.736	379.395	78.964	379.395	79.2086	379.395	79.3378	379.395	79.4775	379.395	79.5194
392.578	83.3425	392.578	83.2685	392.578	83.3547	392.578	83.1382	392.578	83.2995	392.578	82.9597	392.578	83.1711	392.578	82.7428	392.578	82.9634	392.578	82.4939	392.578	82.6719	392.578	82.207	392.578	82.2949	392.578	81.8571	392.578	81.8317	392.578	81.4065	392.578	81.2767	392.578	80.8232	392.578	80.616	392.578	80.1106	392.578	79.8371	392.578	79.3413	392.578	78.9679	392.578	78.6749	392.578	78.143	392.578	78.3067	392.578	77.6256	392.578	78.3242	392.578	77.6333	392.578	78.6201	392.578	78.0773	392.578	78.9877	392.578	78.6495	392.578	79.2504	392.578	79.0959	392.578	79.3018
405.762	83.2646	405.762	83.2167	405.762	83.2431	405.762	83.1001	405.762	83.1607	405.762	82.9216	405.762	83.0304	405.762	82.6892	405.762	82.8598	405.762	82.4057	405.762	82.6381	405.762	82.0658	405.762	82.3307	405.762	81.6567	405.762	81.8837	405.762	81.161	405.762	81.2397	405.762	80.5649	405.762	80.36	405.762	79.8734	405.762	79.2612	405.762	79.1428	405.762	78.0812	405.762	78.519	405.762	77.1528	405.762	78.2152	405.762	76.8872	405.762	78.3485	405.762	77.3438	405.762	78.7931	405.762	78.1486	405.762	79.2888	405.762	78.9188	405.762	79.6261	405.762	79.4574	405.762	79.6955
420.41	83.3173	420.41	83.2479	420.41	83.3001	420.41	83.0989	420.41	83.2023	420.41	82.8873	420.41	83.0404	420.41	82.6329	420.41	82.8357	420.41	82.3454	420.41	82.6031	420.41	82.0126	420.41	82.3383	420.41	81.5942	420.41	82.0102	420.41	81.0282	420.41	81.5637	420.41	80.2477	420.41	80.9337	420.41	79.2185	420.41	80.0668	420.41	78.0165	420.41	78.9571	420.41	76.9534	420.41	77.7178	420.41	76.534	420.41	76.6807	420.41	76.9137	420.41	76.3122	420.41	77.6558	420.41	76.7177	420.41	78.2969	420.41	77.483	420.41	78.6242	420.41	78.1756	420.41	78.5806
435.059	83.1863	435.059	83.1758	435.059	83.1127	435.059	83.0835	435.059	82.9601	435.059	82.9175	435.059	82.7427	435.059	82.6882	435.059	82.4817	435.059	82.404	435.059	82.1976	435.059	82.0661	435.059	81.8971	435.059	81.6643	435.059	81.5603	435.059	81.1764	435.059	81.1414	435.059	80.5738	435.059	80.5857	435.059	79.8372	435.059	79.8619	435.059	78.9901	435.059	79.0093	435.059	78.1544	435.059	78.1961	435.059	77.5831	435.059	77.7118	435.059	77.5253	435.059	77.758	435.059	77.9474	435.059	78.2103	435.059	78.545	435.059	78.7527	435.059	79.0261	435.059	79.1358	435.059	79.2377
451.172	83.1287	451.172	83.1833	451.172	83.0156	451.172	83.171	451.172	82.8617	451.172	83.0951	451.172	82.6884	451.172	82.9705	451.172	82.5146	451.172	82.8126	451.172	82.3469	451.172	82.615	451.172	82.1658	451.172	82.3293	451.172	81.9191	451.172	81.8676	451.172	81.5293	451.172	81.1305	451.172	80.9169	451.172	80.0505	451.172	80.0298	451.172	78.6556	451.172	78.8826	451.172	77.1851	451.172	77.6246	451.172	76.1804	451.172	76.6143	451.172	76.1081	451.172	76.2834	451.172	76.7302	451.172	76.6665	451.172	77.4732	451.172	77.3416	451.172	77.9856	451.172	77.8995	451.172	78.1353
465.82	83.0407	465.82	82.9992	465.82	82.994	465.82	82.8913	465.82	82.8603	465.82	82.7513	465.82	82.6644	465.82	82.6091	465.82	82.4431	465.82	82.4756	465.82	82.2217	465.82	82.3342	465.82	81.9924	465.82	82.143	465.82	81.7089	465.82	81.84	465.82	81.2968	465.82	81.3474	465.82	80.6694	465.82	80.5786	465.82	79.7451	465.82	79.4639	465.82	78.4882	465.82	78.0285	465.82	77.0248	465.82	76.576	465.82	75.8519	465.82	75.8048	465.82	75.6623	465.82	76.1073	465.82	76.3699	465.82	76.926	465.82	77.2374	465.82	77.6207	465.82	77.8029	465.82	77.9336
483.398	83.256	483.398	83.1541	483.398	83.2113	483.398	82.9164	483.398	83.0337	483.398	82.5876	483.398	82.7533	483.398	82.2459	483.398	82.4148	483.398	81.9747	483.398	82.0734	483.398	81.8098	483.398	81.776	483.398	81.7016	483.398	81.5242	483.398	81.5306	483.398	81.2473	483.398	81.156	483.398	80.8204	483.398	80.4609	483.398	80.1169	483.398	79.4017	483.398	79.0715	483.398	78.111	483.398	77.777	483.398	77.0664	483.398	76.6505	483.398	76.913	483.398	76.3647	483.398	77.6074	483.398	77.038	483.398	78.4811	483.398	78.0389	483.398	79.0637	483.398	78.8281	483.398	79.1884
499.512	82.9745	499.512	82.8765	499.512	82.9447	499.512	82.6662	499.512	82.7956	499.512	82.3776	499.512	82.5616	499.512	82.0549	499.512	82.298	499.512	81.7375	499.512	82.0642	499.512	81.4401	499.512	81.8899	499.512	81.1361	499.512	81.7418	499.512	80.7643	499.512	81.5219	499.512	80.262	499.512	81.1027	499.512	79.6033	499.512	80.3717	499.512	78.8348	499.512	79.2809	499.512	78.1087	499.512	77.9368	499.512	77.677	499.512	76.7602	499.512	77.7371	499.512	76.4106	499.512	78.2013	499.512	77.0041	499.512	78.7531	499.512	77.9386	499.512	79.1056	499.512	78.7045	499.512	79.1057
517.09	83.8668	517.09	83.7813	517.09	83.771	517.09	83.5241	517.09	83.5047	517.09	83.124	517.09	83.1037	517.09	82.6321	517.09	82.6266	517.09	82.1207	517.09	82.1348	517.09	81.652	517.09	81.6604	517.09	81.2194	517.09	81.1823	517.09	80.7129	517.09	80.6256	517.09	79.9581	517.09	79.8755	517.09	78.7933	517.09	78.8005	517.09	77.168	517.09	77.3079	517.09	75.385	517.09	75.5365	517.09	74.4793	517.09	74.331	517.09	75.237	517.09	74.831	517.09	76.7403	517.09	76.3991	517.09	78.0338	517.09	77.8391	517.09	78.8245	517.09	78.7425	517.09	79.065
536.133	83.7321	536.133	83.7312	536.133	83.6107	536.133	83.6152	536.133	83.3758	536.133	83.4097	536.133	83.0529	536.133	83.1576	536.133	82.6928	536.133	82.9052	536.133	82.3762	536.133	82.6751	536.133	82.1866	536.133	82.44	536.133	82.1367	536.133	82.1119	536.133	82.1116	536.133	81.5546	536.133	81.9043	536.133	80.604	536.133	81.2992	536.133	79.0889	536.133	80.1254	536.133	76.8989	536.133	78.3085	536.133	74.3939	536.133	76.0901	536.133	73.4408	536.133	74.6117	536.133	74.9486	536.133	75.1088	536.133	76.7612	536.133	76.5456	536.133	77.8594	536.133	77.6816	536.133	78.1492
555.176	84.0488	555.176	83.9783	555.176	83.9135	555.176	83.7213	555.176	83.5913	555.176	83.3445	555.176	83.1373	555.176	82.9559	555.176	82.6511	555.176	82.6582	555.176	82.2702	555.176	82.4752	555.176	82.104	555.176	82.3306	555.176	82.129	555.176	82.1014	555.176	82.1751	555.176	81.6706	555.176	82.0215	555.176	80.9252	555.176	81.474	555.176	79.735	555.176	80.3769	555.176	77.9773	555.176	78.6394	555.176	75.7633	555.176	76.478	555.176	74.2038	555.176	75.1176	555.176	74.8731	555.176	75.8146	555.176	76.5922	555.176	77.2707	555.176	77.896	555.176	78.2393	555.176	78.4528
574.219	84.1741	574.219	84.0801	574.219	84.0885	574.219	83.8151	574.219	83.8238	574.219	83.404	574.219	83.39	574.219	82.8966	574.219	82.8231	574.219	82.3775	574.219	82.2233	574.219	81.9536	574.219	81.7688	574.219	81.686	574.219	81.6077	574.219	81.5045	574.219	81.6676	574.219	81.2201	574.219	81.6623	574.219	80.6207	574.219	81.2802	574.219	79.5365	574.219	80.2864	574.219	77.8791	574.219	78.5431	574.219	75.8671	574.219	76.2371	574.219	74.698	574.219	74.7836	574.219	75.6016	574.219	75.7642	574.219	77.3034	574.219	77.5247	574.219	78.5412	574.219	78.6819	574.219	79.0151
594.727	84.9196	594.727	84.8169	594.727	84.7779	594.727	84.4892	594.727	84.3789	594.727	83.966	594.727	83.7335	594.727	83.3151	594.727	82.9073	594.727	82.6771	594.727	82.0512	594.727	82.2446	594.727	81.3805	594.727	82.1204	594.727	81.0305	594.727	82.1665	594.727	80.9016	594.727	82.0591	594.727	80.7372	594.727	81.4498	594.727	80.3166	594.727	80.0338	594.727	79.5204	594.727	77.5587	594.727	78.2868	594.727	74.1976	594.727	76.6396	594.727	72.7276	594.727	75.0914	594.727	74.9906	594.727	75.0259	594.727	77.2816	594.727	76.5256	594.727	78.5285	594.727	78.0297	594.727	78.7556
615.234	84.8751	615.234	84.6648	615.234	84.7861	615.234	84.177	615.234	84.3901	615.234	83.4561	615.234	83.6946	615.234	82.5883	615.234	82.7467	615.234	81.7525	615.234	81.6904	615.234	81.2477	615.234	80.8045	615.234	81.2813	615.234	80.3635	615.234	81.6443	615.234	80.3313	615.234	81.8736	615.234	80.3404	615.234	81.6031	615.234	79.9783	615.234	80.6072	615.234	78.9451	615.234	78.6934	615.234	77.112	615.234	75.706	615.234	74.9248	615.234	72.5713	615.234	74.2965	615.234	73.2266	615.234	75.8639	615.234	75.9589	615.234	77.5702	615.234	77.8224	615.234	78.5284	615.234	78.6316
637.207	84.7162	637.207	84.6631	637.207	84.5884	637.207	84.3683	637.207	84.3033	637.207	83.7612	637.207	83.8479	637.207	82.8106	637.207	83.1895	637.207	81.5847	637.207	82.3076	637.207	80.3235	637.207	81.2645	637.207	79.4587	637.207	80.3006	637.207	79.3113	637.207	79.741	637.207	79.608	637.207	79.5418	637.207	79.6818	637.207	79.1642	637.207	78.9423	637.207	77.9704	637.207	76.9013	637.207	75.3055	637.207	73.019	637.207	70.2447	637.207	68.7364	637.207	66.9346	637.207	71.7215	637.207	72.285	637.207	75.2489	637.207	75.6279	637.207	77.0711	637.207	77.2206	637.207	77.66
659.18	84.1637	659.18	84.0116	659.18	84.0891	659.18	83.6441	659.18	83.7928	659.18	83.0745	659.18	83.298	659.18	82.3152	659.18	82.6505	659.18	81.4455	659.18	81.9502	659.18	80.7192	659.18	81.3802	659.18	80.4518	659.18	81.126	659.18	80.5948	659.18	81.1767	659.18	80.732	659.18	81.2743	659.18	80.4983	659.18	81.0718	659.18	79.6671	659.18	80.2279	659.18	77.9697	659.18	78.3434	659.18	74.9053	659.18	74.7278	659.18	70.0307	659.18	67.9612	659.18	69.3265	659.18	67.5663	659.18	73.5257	659.18	73.2559	659.18	75.8719	659.18	75.8097	659.18	76.5524
682.617	85.1236	682.617	85.114	682.617	84.9261	682.617	84.8625	682.617	84.5167	682.617	84.3189	682.617	83.8587	682.617	83.457	682.617	82.9227	682.617	82.3314	682.617	81.7552	682.617	81.1832	682.617	80.605	682.617	80.4983	682.617	80.0057	682.617	80.5866	682.617	80.2752	682.617	81.0498	682.617	80.9004	682.617	81.2176	682.617	81.1391	682.617	80.6002	682.617	80.5304	682.617	78.7683	682.617	78.7278	682.617	74.9668	682.617	75.1215	682.617	66.8663	682.617	67.9145	682.617	67.0864	682.617	66.3067	682.617	73.8466	682.617	73.3108	682.617	76.5636	682.617	76.3305	682.617	77.27
707.52	85.1792	707.52	85.1185	707.52	85.0257	707.52	84.8273	707.52	84.6389	707.52	84.2496	707.52	83.9446	707.52	83.27	707.52	82.798	707.52	81.7143	707.52	81.0048	707.52	79.4831	707.52	78.5317	707.52	77.3659	707.52	76.6442	707.52	77.8211	707.52	77.8081	707.52	79.9773	707.52	80.0628	707.52	81.4333	707.52	81.3664	707.52	81.5792	707.52	81.339	707.52	80.1958	707.52	79.7855	707.52	76.6597	707.52	76.0297	707.52	67.7855	707.52	66.287	707.52	66.2514	707.52	67.43	707.52	75.3689	707.52	75.7097	707.52	78.547	707.52	78.6916	707.52	79.488
732.422	83.6786	732.422	83.7256	732.422	83.6434	732.422	83.7644	732.422	83.5718	732.422	83.6872	732.422	83.3763	732.422	83.3115	732.422	82.9271	732.422	82.4068	732.422	82.023	732.422	80.7238	732.422	80.3811	732.422	78.1498	732.422	77.7653	732.422	75.8154	732.422	75.188	732.422	76.8403	732.422	76.3237	732.422	79.4235	732.422	79.0749	732.422	81.1056	732.422	80.6794	732.422	81.4882	732.422	80.8231	732.422	80.4777	732.422	79.4602	732.422	77.9875	732.422	76.6034	732.422	74.81	732.422	73.7617	732.422	74.7441	732.422	74.7383	732.422	76.7389	732.422	76.805	732.422	77.5581
757.324	82.2228	757.324	82.2211	757.324	82.2526	757.324	82.2644	757.324	82.3296	757.324	82.3566	757.324	82.4486	757.324	82.4046	757.324	82.4982	757.324	82.2109	757.324	82.2642	757.324	81.503	757.324	81.4792	757.324	79.9664	757.324	79.8366	757.324	77.4927	757.324	77.0749	757.324	75.5961	757.324	74.2854	757.324	76.8885	757.324	75.5939	757.324	78.8902	757.324	78.3453	757.324	79.8086	757.324	79.7635	757.324	79.4834	757.324	79.7102	757.324	77.8948	757.324	78.2639	757.324	74.9326	757.324	75.4492	757.324	70.666	757.324	71.5552	757.324	67.0863	757.324	68.212	757.324	66.8891
785.156	82.8533	785.156	82.8005	785.156	82.8113	785.156	82.655	785.156	82.6521	785.156	82.4083	785.156	82.3583	785.156	82.0494	785.156	81.9385	785.156	81.5122	785.156	81.3884	785.156	80.6112	785.156	80.5982	785.156	79.0474	785.156	79.2938	785.156	76.5106	785.156	77.1228	785.156	73.5917	785.156	74.2796	785.156	74.1371	785.156	73.7956	785.156	77.0372	785.156	76.4291	785.156	78.8978	785.156	78.4971	785.156	79.3534	785.156	79.1637	785.156	78.4681	785.156	78.4427	785.156	76.2369	785.156	76.3589	785.156	72.7015	785.156	72.9752	785.156	68.5419	785.156	68.8661	785.156	66.4722
811.523	83.0578	811.523	82.934	811.523	82.8901	811.523	82.5356	811.523	82.4922	811.523	81.9715	811.523	82.0005	811.523	81.4339	811.523	81.5688	811.523	81.0546	811.523	81.2341	811.523	80.721	811.523	80.8514	811.523	80.1407	811.523	80.1961	811.523	79.0557	811.523	79.0798	811.523	77.4234	811.523	77.4985	811.523	75.8419	811.523	76.1238	811.523	75.8133	811.523	76.1746	811.523	77.1416	811.523	77.1097	811.523	78.046	811.523	77.5964	811.523	77.7756	811.523	77.1764	811.523	76.2976	811.523	75.8305	811.523	73.9624	811.523	73.7582	811.523	71.6693	811.523	71.6399	811.523	70.7059
840.82	83.7694	840.82	83.6551	840.82	83.5997	840.82	83.2845	840.82	83.1264	840.82	82.6818	840.82	82.3551	840.82	81.852	840.82	81.3922	840.82	80.8576	840.82	80.5148	840.82	79.9849	840.82	79.9545	840.82	79.5049	840.82	79.516	840.82	79.0917	840.82	78.8047	840.82	78.2574	840.82	77.7238	840.82	77.2112	840.82	76.6296	840.82	76.7701	840.82	76.2816	840.82	76.946	840.82	76.9239	840.82	77.0333	840.82	77.5366	840.82	76.7728	840.82	77.2491	840.82	76.1509	840.82	76.024	840.82	75.1363	840.82	74.4403	840.82	73.9327	840.82	73.2963	840.82	73.1321
870.117	83.2851	870.117	83.2622	870.117	83.1792	870.117	83.0736	870.117	82.9603	870.117	82.6916	870.117	82.6067	870.117	82.0987	870.117	82.046	870.117	81.2298	870.117	81.1635	870.117	79.9657	870.117	79.88	870.117	78.2869	870.117	78.2682	870.117	76.4669	870.117	76.5302	870.117	74.9209	870.117	74.906	870.117	74.0076	870.117	74.0755	870.117	74.2814	870.117	74.4579	870.117	75.1801	870.117	75.0118	870.117	75.5417	870.117	75.221	870.117	75.2898	870.117	75.2679	870.117	74.9697	870.117	75.1536	870.117	74.8818	870.117	74.9993	870.117	74.9859	870.117	75.0415	870.117	75.094
900.879	82.9097	900.879	82.8544	900.879	82.835	900.879	82.7042	900.879	82.6056	900.879	82.4758	900.879	82.2148	900.879	82.104	900.879	81.7148	900.879	81.5009	900.879	81.1886	900.879	80.7122	900.879	80.5572	900.879	79.8317	900.879	79.5603	900.879	78.6881	900.879	78.1396	900.879	77.084	900.879	76.67	900.879	75.6266	900.879	75.5202	900.879	75.2095	900.879	74.9131	900.879	75.202	900.879	74.9137	900.879	74.7749	900.879	74.6393	900.879	73.5926	900.879	73.2856	900.879	71.8059	900.879	71.3929	900.879	70.8848	900.879	70.7106	900.879	71.3092	900.879	71.2199	900.879	71.5823
933.105	82.6478	933.105	82.5936	933.105	82.5634	933.105	82.4223	933.105	82.3061	933.105	82.0912	933.105	81.9032	933.105	81.5808	933.105	81.41	933.105	80.9585	933.105	80.7947	933.105	80.1957	933.105	79.9	933.105	79.0519	933.105	78.5862	933.105	77.497	933.105	76.9563	933.105	76.4262	933.105	75.6548	933.105	76.7138	933.105	75.5672	933.105	77.3029	933.105	76.1892	933.105	77.1926	933.105	76.4047	933.105	76.2393	933.105	75.7855	933.105	74.698	933.105	74.3437	933.105	73.221	933.105	72.8256	933.105	72.6446	933.105	72.4921	933.105	72.8774	933.105	72.8869	933.105	73.0804
965.332	82.6397	965.332	82.5161	965.332	82.453	965.332	82.159	965.332	82.0015	965.332	81.7084	965.332	81.4434	965.332	81.258	965.332	80.9507	965.332	80.7887	965.332	80.5392	965.332	80.1813	965.332	79.9718	965.332	79.1899	965.332	78.9449	965.332	77.5032	965.332	77.4935	965.332	75.1936	965.332	76.0366	965.332	73.6387	965.332	74.7554	965.332	74.1065	965.332	74.0301	965.332	75.1265	965.332	74.3059	965.332	75.369	965.332	74.1359	965.332	74.3318	965.332	72.5773	965.332	72.4243	965.332	70.6225	965.332	71.4832	965.332	70.1604	965.332	71.8431	965.332	71.0741	965.332	71.8739
1000.49	82.6049	1000.49	82.4051	1000.49	82.4192	1000.49	81.9087	1000.49	81.8185	1000.49	81.2251	1000.49	80.9081	1000.49	80.4902	1000.49	80.0368	1000.49	79.9075	1000.49	79.5651	1000.49	79.5996	1000.49	79.3204	1000.49	79.3417	1000.49	78.809	1000.49	78.6827	1000.49	77.7272	1000.49	77.4725	1000.49	76.0445	1000.49	76.1468	1000.49	74.3017	1000.49	75.1763	1000.49	73.7468	1000.49	74.5263	1000.49	74.1637	1000.49	73.9896	1000.49	74.2971	1000.49	73.3428	1000.49	73.7157	1000.49	72.5915	1000.49	72.5463	1000.49	72.2012	1000.49	72.0114	1000.49	72.6441	1000.49	72.8145	1000.49	73.1969
1035.64	82.8949	1035.64	82.7829	1035.64	82.6734	1035.64	82.3346	1035.64	82.1304	1035.64	81.5739	1035.64	81.3643	1035.64	80.5735	1035.64	80.5468	1035.64	79.403	1035.64	79.778	1035.64	78.2291	1035.64	79.0673	1035.64	77.2914	1035.64	78.4621	1035.64	76.3149	1035.64	77.784	1035.64	74.5528	1035.64	76.434	1035.64	72.1917	1035.64	74.1379	1035.64	71.8196	1035.64	72.4398	1035.64	73.0891	1035.64	73.0789	1035.64	73.5802	1035.64	73.6443	1035.64	72.7035	1035.64	72.8208	1035.64	71.2389	1035.64	71.4184	1035.64	71.5049	1035.64	71.0632	1035.64	72.4968	1035.64	71.6808	1035.64	72.4262
1072.27	82.8644	1072.27	82.8316	1072.27	82.7576	1072.27	82.5557	1072.27	82.5837	1072.27	82.0577	1072.27	82.1797	1072.27	81.4098	1072.27	81.3216	1072.27	80.6754	1072.27	80.1468	1072.27	79.862	1072.27	79.1656	1072.27	79.078	1072.27	78.4218	1072.27	78.6696	1072.27	77.5842	1072.27	78.2791	1072.27	76.998	1072.27	77.1487	1072.27	76.6923	1072.27	75.5328	1072.27	75.9251	1072.27	73.9916	1072.27	75.0934	1072.27	72.291	1072.27	74.4906	1072.27	70.8458	1072.27	72.7226	1072.27	69.9138	1072.27	69.6317	1072.27	69.5645	1072.27	69.1138	1072.27	70.7788	1072.27	71.0052	1072.27	71.7227
1108.89	84.148	1108.89	83.8122	1108.89	83.9675	1108.89	83.2106	1108.89	83.2214	1108.89	82.5165	1108.89	82.1166	1108.89	81.6438	1108.89	80.9393	1108.89	80.4362	1108.89	79.9099	1108.89	79.0938	1108.89	79.158	1108.89	78.1398	1108.89	78.7013	1108.89	77.2763	1108.89	78.3754	1108.89	75.6216	1108.89	77.5714	1108.89	74.3066	1108.89	76.0276	1108.89	75.802	1108.89	75.2998	1108.89	77.1528	1108.89	75.8751	1108.89	76.6202	1108.89	75.7763	1108.89	74.5486	1108.89	74.2101	1108.89	72.1771	1108.89	72.05	1108.89	72.1887	1108.89	72.3466	1108.89	73.6848	1108.89	73.7851	1108.89	74.2862
1148.44	83.213	1148.44	83.2824	1148.44	82.9633	1148.44	82.9256	1148.44	82.6412	1148.44	82.0827	1148.44	82.068	1148.44	80.9378	1148.44	81.0404	1148.44	79.8152	1148.44	79.6057	1148.44	79.1192	1148.44	78.0847	1148.44	78.7803	1148.44	77.0156	1148.44	78.2797	1148.44	76.5277	1148.44	77.4361	1148.44	75.7745	1148.44	76.3005	1148.44	74.5068	1148.44	75.0881	1148.44	74.2403	1148.44	74.4855	1148.44	75.2207	1148.44	74.2337	1148.44	75.5774	1148.44	72.6815	1148.44	74.365	1148.44	70.1433	1148.44	71.5157	1148.44	70.65	1148.44	69.505	1148.44	72.2845	1148.44	71.5383	1148.44	72.8138
1189.45	83.0971	1189.45	82.947	1189.45	82.8934	1189.45	82.5294	1189.45	82.3268	1189.45	81.8516	1189.45	81.552	1189.45	80.9243	1189.45	80.6455	1189.45	79.7618	1189.45	79.3874	1189.45	78.1851	1189.45	77.7257	1189.45	76.2792	1189.45	76.3693	1189.45	74.9411	1189.45	75.6869	1189.45	73.7675	1189.45	74.8987	1189.45	72.1239	1189.45	73.56	1189.45	73.3013	1189.45	72.5334	1189.45	75.1806	1189.45	73.4168	1189.45	75.2401	1189.45	74.422	1189.45	73.8878	1189.45	73.5458	1189.45	71.3054	1189.45	70.9269	1189.45	69.8692	1189.45	69.8968	1189.45	71.3169	1189.45	70.8546	1189.45	71.6287
1230.47	82.1838	1230.47	82.1582	1230.47	81.9956	1230.47	81.8646	1230.47	81.6074	1230.47	81.3091	1230.47	80.9157	1230.47	80.5233	1230.47	79.8218	1230.47	79.4404	1230.47	78.5764	1230.47	78.205	1230.47	77.5842	1230.47	77.279	1230.47	76.5105	1230.47	76.671	1230.47	74.9176	1230.47	76.0055	1230.47	73.4748	1230.47	74.4921	1230.47	72.2349	1230.47	72.1388	1230.47	70.8052	1230.47	72.361	1230.47	71.7908	1230.47	73.7992	1230.47	73.581	1230.47	73.5536	1230.47	73.4659	1230.47	71.5034	1230.47	71.4086	1230.47	69.5291	1230.47	69.3986	1230.47	70.5606	1230.47	70.37	1230.47	71.3574
1274.41	82.3684	1274.41	82.2047	1274.41	82.2025	1274.41	81.8174	1274.41	81.6805	1274.41	81.1756	1274.41	80.8137	1274.41	80.2107	1274.41	79.6166	1274.41	78.9693	1274.41	78.3332	1274.41	77.5507	1274.41	77.154	1274.41	76.1172	1274.41	75.8965	1274.41	74.841	1274.41	74.8824	1274.41	73.4678	1274.41	74.2653	1274.41	71.5993	1274.41	72.7807	1274.41	71.1961	1274.41	71.114	1274.41	72.2749	1274.41	71.3886	1274.41	72.7711	1274.41	72.2227	1274.41	72.4049	1274.41	71.9645	1274.41	70.8312	1274.41	70.4752	1274.41	70.0282	1274.41	69.9404	1274.41	71.1784	1274.41	70.9552	1274.41	71.6199
1319.82	82.6063	1319.82	82.3729	1319.82	82.4432	1319.82	81.6644	1319.82	81.8878	1319.82	80.6301	1319.82	81.0601	1319.82	79.5144	1319.82	80.1602	1319.82	78.2805	1319.82	79.0625	1319.82	77.082	1319.82	77.6601	1319.82	76.1165	1319.82	76.2581	1319.82	74.8055	1319.82	75.1441	1319.82	73.8421	1319.82	74.1152	1319.82	73.4327	1319.82	72.7223	1319.82	71.2948	1319.82	70.9836	1319.82	69.9333	1319.82	70.4695	1319.82	71.6714	1319.82	72.2911	1319.82	72.2696	1319.82	73.1897	1319.82	71.4943	1319.82	71.7751	1319.82	70.2536	1319.82	69.7905	1319.82	70.9165	1319.82	70.789	1319.82	71.7241
1366.7	82.5346	1366.7	82.5767	1366.7	82.2745	1366.7	82.3245	1366.7	82.05	1366.7	81.6149	1366.7	81.634	1366.7	80.2677	1366.7	80.6767	1366.7	78.6835	1366.7	79.4877	1366.7	77.1714	1366.7	78.0935	1366.7	75.6964	1366.7	76.4948	1366.7	74.5754	1366.7	75.7275	1366.7	73.5665	1366.7	74.9981	1366.7	71.5619	1366.7	73.5381	1366.7	69.6263	1366.7	70.731	1366.7	71.2526	1366.7	68.4326	1366.7	72.0109	1366.7	71.6179	1366.7	72.4213	1366.7	72.7578	1366.7	72.1628	1366.7	71.6167	1366.7	70.9682	1366.7	71.071	1366.7	72.0992	1366.7	72.6219	1366.7	73.346
1413.57	83.0138	1413.57	82.8522	1413.57	83.0284	1413.57	82.4371	1413.57	82.7212	1413.57	81.8561	1413.57	82.0781	1413.57	81.1808	1413.57	81.369	1413.57	80.0823	1413.57	80.2519	1413.57	78.2365	1413.57	78.3232	1413.57	75.9605	1413.57	76.4495	1413.57	74.7508	1413.57	74.9692	1413.57	73.4225	1413.57	73.7054	1413.57	72.3426	1413.57	73.4264	1413.57	72.5633	1413.57	72.4965	1413.57	70.9686	1413.57	70.995	1413.57	71.2384	1413.57	70.2891	1413.57	71.5471	1413.57	70.8244	1413.57	70.6836	1413.57	70.8716	1413.57	71.3783	1413.57	70.5681	1413.57	72.4435	1413.57	72.325	1413.57	73.1333
1463.38	83.1796	1463.38	82.8896	1463.38	82.7703	1463.38	82.2401	1463.38	82.0546	1463.38	81.5767	1463.38	81.5312	1463.38	80.7206	1463.38	80.9462	1463.38	79.749	1463.38	79.609	1463.38	78.5391	1463.38	77.7953	1463.38	77.0201	1463.38	76.5758	1463.38	75.6677	1463.38	75.2985	1463.38	74.6176	1463.38	73.9208	1463.38	73.4169	1463.38	72.5558	1463.38	69.9531	1463.38	70.9915	1463.38	69.3986	1463.38	70.4642	1463.38	72.1262	1463.38	70.5789	1463.38	71.7043	1463.38	70.8884	1463.38	71.0478	1463.38	69.5742	1463.38	71.8531	1463.38	70.597	1463.38	74.054	1463.38	73.2022	1463.38	74.6771
1516.11	82.7607	1516.11	82.714	1516.11	82.372	1516.11	82.4125	1516.11	81.8034	1516.11	81.8131	1516.11	81.2951	1516.11	80.8912	1516.11	80.5813	1516.11	79.7961	1516.11	79.4174	1516.11	78.2972	1516.11	77.7612	1516.11	76.5116	1516.11	75.6772	1516.11	74.8633	1516.11	74.2229	1516.11	73.4846	1516.11	73.3909	1516.11	72.194	1516.11	71.8171	1516.11	70.8265	1516.11	69.9301	1516.11	70.5117	1516.11	68.4446	1516.11	69.8084	1516.11	68.9626	1516.11	69.0434	1516.11	69.4326	1516.11	69.427	1516.11	68.705	1516.11	70.1856	1516.11	68.6958	1516.11	71.6681	1516.11	71.7915	1516.11	72.9624
1568.85	82.735	1568.85	82.7846	1568.85	82.6901	1568.85	82.3596	1568.85	82.355	1568.85	81.4792	1568.85	81.2567	1568.85	80.5065	1568.85	79.9156	1568.85	79.5386	1568.85	78.9116	1568.85	78.1622	1568.85	78.0783	1568.85	76.4169	1568.85	76.7579	1568.85	74.8772	1568.85	74.285	1568.85	73.1932	1568.85	72.1126	1568.85	72.6663	1568.85	72.6807	1568.85	71.4936	1568.85	72.0269	1568.85	68.5317	1568.85	69.1719	1568.85	68.4541	1568.85	69.3241	1568.85	68.7642	1568.85	71.0494	1568.85	68.574	1568.85	70.0465	1568.85	68.3558	1568.85	66.2122	1568.85	70.0532	1568.85	69.3053	1568.85	71.2494
1624.51	83.7767	1624.51	83.3915	1624.51	83.6436	1624.51	82.7959	1624.51	82.9105	1624.51	81.8223	1624.51	82.048	1624.51	80.5947	1624.51	80.9944	1624.51	79.5777	1624.51	79.5691	1624.51	78.4038	1624.51	78.2256	1624.51	76.7671	1624.51	77	1624.51	75.2576	1624.51	75.4504	1624.51	74.5374	1624.51	73.899	1624.51	73.2184	1624.51	73.3459	1624.51	70.9272	1624.51	71.7983	1624.51	68.7063	1624.51	70.1289	1624.51	68.7109	1624.51	69.6352	1624.51	69.4131	1624.51	71.0641	1624.51	67.2998	1624.51	69.8474	1624.51	68.1347	1624.51	66.6637	1624.51	71.0747	1624.51	69.6719	1624.51	71.7534
1681.64	84.0367	1681.64	83.7376	1681.64	83.9033	1681.64	83.3625	1681.64	83.0205	1681.64	82.4779	1681.64	82.2046	1681.64	81.22	1681.64	81.4422	1681.64	79.9564	1681.64	80.1298	1681.64	78.5355	1681.64	78.7318	1681.64	77.1286	1681.64	76.9108	1681.64	75.5166	1681.64	75.3403	1681.64	73.5195	1681.64	73.7984	1681.64	70.9565	1681.64	71.1669	1681.64	71.0658	1681.64	70.9375	1681.64	70.32	1681.64	70.4278	1681.64	68.8285	1681.64	69.8377	1681.64	69.9591	1681.64	70.4172	1681.64	67.6289	1681.64	69.4749	1681.64	65.8161	1681.64	67.3483	1681.64	69.9876	1681.64	70.7912	1681.64	71.9558
1741.7	83.7704	1741.7	83.6156	1741.7	83.4484	1741.7	83.2644	1741.7	82.7766	1741.7	82.3609	1741.7	81.978	1741.7	81.2099	1741.7	80.8577	1741.7	80.2795	1741.7	79.7323	1741.7	78.9212	1741.7	78.6866	1741.7	77.3538	1741.7	77.1582	1741.7	75.3703	1741.7	75.4588	1741.7	72.4762	1741.7	73.4622	1741.7	71.204	1741.7	70.8339	1741.7	71.0591	1741.7	70.5093	1741.7	69.9451	1741.7	70.3963	1741.7	70.0734	1741.7	69.7533	1741.7	71.5085	1741.7	69.125	1741.7	71.4037	1741.7	68.5138	1741.7	67.4789	1741.7	65.806	1741.7	69.9213	1741.7	68.242	1741.7	70.784
1803.22	83.0248	1803.22	83.1001	1803.22	82.7848	1803.22	82.8985	1803.22	82.482	1803.22	82.068	1803.22	81.8371	1803.22	80.649	1803.22	80.8765	1803.22	79.5028	1803.22	79.2808	1803.22	78.2612	1803.22	77.7402	1803.22	76.8755	1803.22	76.5505	1803.22	75.6972	1803.22	75.5976	1803.22	75.3778	1803.22	75.1502	1803.22	74.4698	1803.22	73.2802	1803.22	71.0559	1803.22	70.0126	1803.22	69.6473	1803.22	70.4691	1803.22	68.4641	1803.22	69.6966	1803.22	70.8877	1803.22	68.7715	1803.22	69.7263	1803.22	68.7727	1803.22	65.3528	1803.22	62.4494	1803.22	69.1979	1803.22	67.4676	1803.22	71.2905
1866.21	83.3523	1866.21	83.4511	1866.21	83.1937	1866.21	82.9965	1866.21	82.8984	1866.21	82.1354	1866.21	82.2006	1866.21	81.0919	1866.21	81.2848	1866.21	79.723	1866.21	80.2629	1866.21	78.6053	1866.21	78.7342	1866.21	77.1283	1866.21	76.9232	1866.21	75.9173	1866.21	75.3383	1866.21	75.8314	1866.21	75.5184	1866.21	73.8504	1866.21	73.9192	1866.21	69.3763	1866.21	71.0646	1866.21	69.5339	1866.21	70.4054	1866.21	69.2359	1866.21	69.8909	1866.21	69.6403	1866.21	70.6904	1866.21	69.1981	1866.21	69.7275	1866.21	64.1341	1866.21	63.836	1866.21	66.2721	1866.21	64.9352	1866.21	69.0877
1932.13	83.2084	1932.13	83.3697	1932.13	83.4317	1932.13	83.1163	1932.13	83.3027	1932.13	82.374	1932.13	82.0703	1932.13	81.4304	1932.13	81.0871	1932.13	80.1947	1932.13	80.3675	1932.13	79.2482	1932.13	78.9435	1932.13	77.9943	1932.13	77.4528	1932.13	75.533	1932.13	74.972	1932.13	74.8172	1932.13	73.7188	1932.13	72.8015	1932.13	72.7094	1932.13	71.2211	1932.13	70.9744	1932.13	70.0207	1932.13	70.9821	1932.13	69.1624	1932.13	69.9982	1932.13	69.3086	1932.13	70.4292	1932.13	70.9273	1932.13	70.5231	1932.13	65.4744	1932.13	67.4895	1932.13	65.0191	1932.13	65.6863	1932.13	68.4132
1999.51	82.6241	1999.51	82.5723	1999.51	82.6368	1999.51	82.5414	1999.51	82.091	1999.51	82.1349	1999.51	81.8655	1999.51	81.3905	1999.51	81.1371	1999.51	79.865	1999.51	79.3474	1999.51	78.5176	1999.51	78.3336	1999.51	77.4508	1999.51	76.7081	1999.51	75.8399	1999.51	73.7365	1999.51	73.1035	1999.51	72.1922	1999.51	72.3276	1999.51	72.9702	1999.51	72.0373	1999.51	71.3777	1999.51	70.9587	1999.51	68.5549	1999.51	70.6276	1999.51	68.9011	1999.51	69.1103	1999.51	69.5043	1999.51	71.1638	1999.51	72.1954	1999.51	68.7631	1999.51	68.5378	1999.51	67.6478	1999.51	64.8258	1999.51	68.2819
2069.82	82.5528	2069.82	82.7006	2069.82	82.5498	2069.82	82.6901	2069.82	82.6863	2069.82	82.1855	2069.82	82.1871	2069.82	81.6512	2069.82	81.9013	2069.82	80.3112	2069.82	80.6666	2069.82	78.749	2069.82	78.8632	2069.82	77.6399	2069.82	78.6509	2069.82	75.028	2069.82	76.032	2069.82	71.0403	2069.82	71.8297	2069.82	72.3907	2069.82	73.0508	2069.82	71.8936	2069.82	70.1483	2069.82	69.799	2069.82	67.8248	2069.82	70.4398	2069.82	69.6359	2069.82	67.8331	2069.82	66.6292	2069.82	69.9042	2069.82	69.8515	2069.82	68.8967	2069.82	68.3825	2069.82	68.0779	2069.82	64.8116	2069.82	67.4309
2143.07	83.5323	2143.07	83.3809	2143.07	83.6646	2143.07	82.9099	2143.07	83.4834	2143.07	83.0336	2143.07	82.8951	2143.07	82.3457	2143.07	82.8195	2143.07	81.3081	2143.07	81.7221	2143.07	79.6104	2143.07	79.7178	2143.07	77.2219	2143.07	77.9053	2143.07	75.6973	2143.07	77.6647	2143.07	71.9932	2143.07	75.684	2143.07	72.2603	2143.07	73.4982	2143.07	71.4234	2143.07	71.3561	2143.07	66.7171	2143.07	70.4501	2143.07	68.6403	2143.07	70.5014	2143.07	69.1862	2143.07	68.9114	2143.07	68.7842	2143.07	68.8415	2143.07	64.2133	2143.07	68.7435	2143.07	67.6436	2143.07	67.4646	2143.07	68.8411
2219.24	83.5133	2219.24	83.7051	2219.24	83.2688	2219.24	83.5081	2219.24	83.2642	2219.24	83.2282	2219.24	82.716	2219.24	82.8091	2219.24	82.0329	2219.24	81.6607	2219.24	81.3749	2219.24	80.3067	2219.24	79.5909	2219.24	78.7165	2219.24	77.9076	2219.24	77.7646	2219.24	77.0473	2219.24	74.9058	2219.24	74.6678	2219.24	72.6548	2219.24	73.3417	2219.24	71.5704	2219.24	71.9074	2219.24	70.9771	2219.24	70.5941	2219.24	70.7881	2219.24	69.4317	2219.24	69.1902	2219.24	69.4098	2219.24	69.4396	2219.24	69.996	2219.24	67.3481	2219.24	66.9911	2219.24	64.5975	2219.24	62.6692	2219.24	67.8321
2296.88	82.9274	2296.88	83.0066	2296.88	82.7531	2296.88	83.144	2296.88	82.5549	2296.88	83.0311	2296.88	82.5215	2296.88	82.7482	2296.88	82.0641	2296.88	81.8504	2296.88	81.0735	2296.88	80.1505	2296.88	79.3355	2296.88	78.4205	2296.88	77.3407	2296.88	76.9127	2296.88	75.8073	2296.88	75.115	2296.88	73.434	2296.88	73.5629	2296.88	72.3355	2296.88	73.2647	2296.88	71.719	2296.88	70.3654	2296.88	69.6674	2296.88	71.453	2296.88	69.6021	2296.88	69.9582	2296.88	67.7096	2296.88	71.6213	2296.88	69.3996	2296.88	69.5664	2296.88	67.7467	2296.88	66.7104	2296.88	65.6621	2296.88	68.0072
2378.91	82.8056	2378.91	82.9178	2378.91	82.9115	2378.91	83.1823	2378.91	83.153	2378.91	83.2118	2378.91	83.1097	2378.91	83.1286	2378.91	82.6287	2378.91	82.2111	2378.91	81.7339	2378.91	80.2455	2378.91	80.2819	2378.91	78.0536	2378.91	78.3953	2378.91	76.2091	2378.91	76.5803	2378.91	74.0756	2378.91	74.2751	2378.91	73.3139	2378.91	72.45	2378.91	71.8395	2378.91	71.9526	2378.91	71.789	2378.91	70.8718	2378.91	71.001	2378.91	70.8882	2378.91	69.9371	2378.91	69.2639	2378.91	70.7934	2378.91	71.0068	2378.91	68.5766	2378.91	67.3275	2378.91	65.7542	2378.91	67.3256	2378.91	69.234
2462.4	82.7525	2462.4	83.1387	2462.4	83.0807	2462.4	83.6162	2462.4	83.3116	2462.4	83.6184	2462.4	83.2861	2462.4	83.0428	2462.4	82.6488	2462.4	82.4536	2462.4	81.5249	2462.4	81.2514	2462.4	80.2067	2462.4	78.468	2462.4	78.0702	2462.4	76.1804	2462.4	76.0748	2462.4	74.5517	2462.4	73.9197	2462.4	70.8602	2462.4	71.4027	2462.4	71.6412	2462.4	71.3672	2462.4	68.6013	2462.4	69.567	2462.4	70.7914	2462.4	71.2255	2462.4	69.4653	2462.4	68.6043	2462.4	70.4222	2462.4	70.0338	2462.4	69.8107	2462.4	69.2934	2462.4	68.3028	2462.4	63.7459	2462.4	69.4632
2548.83	82.1972	2548.83	82.5479	2548.83	82.5072	2548.83	82.9883	2548.83	82.774	2548.83	83.2581	2548.83	82.7912	2548.83	82.8236	2548.83	82.1727	2548.83	81.6615	2548.83	80.9053	2548.83	80.2546	2548.83	79.449	2548.83	78.7427	2548.83	77.4326	2548.83	76.1094	2548.83	75.5657	2548.83	74.5797	2548.83	74.335	2548.83	71.5951	2548.83	70.9395	2548.83	70.6731	2548.83	69.7589	2548.83	69.5338	2548.83	66.8012	2548.83	69.8274	2548.83	69.0853	2548.83	69.6669	2548.83	68.8933	2548.83	69.5483	2548.83	68.9655	2548.83	68.0393	2548.83	67.0667	2548.83	65.7905	2548.83	67.7484	2548.83	69.6662
2639.65	82.1649	2639.65	82.2773	2639.65	82.5365	2639.65	82.717	2639.65	82.8939	2639.65	82.6251	2639.65	82.7885	2639.65	82.2885	2639.65	82.4076	2639.65	81.1926	2639.65	81.035	2639.65	79.5244	2639.65	79.1745	2639.65	77.1732	2639.65	77.0922	2639.65	74.7587	2639.65	74.2219	2639.65	73.0291	2639.65	72.5922	2639.65	70.9318	2639.65	70.9698	2639.65	69.2424	2639.65	68.9459	2639.65	67.33	2639.65	68.0795	2639.65	69.37	2639.65	67.6457	2639.65	69.4994	2639.65	68.8562	2639.65	68.4542	2639.65	68.1866	2639.65	67.4193	2639.65	67.9007	2639.65	65.3562	2639.65	60.2164	2639.65	68.4529
2731.93	82.2703	2731.93	82.3497	2731.93	82.395	2731.93	82.6379	2731.93	82.5322	2731.93	82.6123	2731.93	82.6357	2731.93	81.9952	2731.93	81.96	2731.93	81.1353	2731.93	80.7921	2731.93	79.3492	2731.93	78.978	2731.93	77.7993	2731.93	76.8026	2731.93	75.2061	2731.93	74.5607	2731.93	72.4554	2731.93	72.5728	2731.93	70.3194	2731.93	70.2312	2731.93	69.9797	2731.93	69.8553	2731.93	69.038	2731.93	66.8373	2731.93	67.1672	2731.93	68.2524	2731.93	68.1656	2731.93	68.5358	2731.93	69.5819	2731.93	68.3337	2731.93	68.2223	2731.93	68.4953	2731.93	64.9731	2731.93	65.714	2731.93	65.3425
2828.61	82.3134	2828.61	82.5762	2828.61	82.4497	2828.61	82.9578	2828.61	82.6059	2828.61	82.8198	2828.61	82.3564	2828.61	82.2108	2828.61	81.5986	2828.61	80.9032	2828.61	80.3079	2828.61	79.451	2828.61	78.5832	2828.61	77.3215	2828.61	76.5517	2828.61	74.7122	2828.61	74.0471	2828.61	72.3962	2828.61	71.2294	2828.61	70.9849	2828.61	69.8801	2828.61	68.9173	2828.61	67.8453	2828.61	67.1782	2828.61	68.725	2828.61	67.6233	2828.61	66.1095	2828.61	69.6211	2828.61	67.8767	2828.61	67.838	2828.61	67.7465	2828.61	68.4263	2828.61	66.6018	2828.61	63.9903	2828.61	61.9839	2828.61	66.5502
2928.22	81.8042	2928.22	81.9479	2928.22	81.7484	2928.22	82.2694	2928.22	82.0784	2928.22	82.4624	2928.22	82.0468	2928.22	81.8542	2928.22	81.3828	2928.22	80.4769	2928.22	80.0287	2928.22	78.6281	2928.22	78.2631	2928.22	76.6296	2928.22	75.8767	2928.22	74.6293	2928.22	73.6472	2928.22	71.9344	2928.22	72.0444	2928.22	70.9605	2928.22	69.2575	2928.22	68.3981	2928.22	68.3961	2928.22	69.3667	2928.22	65.1793	2928.22	64.1113	2928.22	67.4323	2928.22	66.2883	2928.22	70.0389	2928.22	67.4064	2928.22	67.8063	2928.22	68.4114	2928.22	68.677	2928.22	64.8769	2928.22	66.177	2928.22	64.286
3030.76	81.7183	3030.76	81.8941	3030.76	81.9544	3030.76	82.3672	3030.76	82.5091	3030.76	82.5238	3030.76	82.6133	3030.76	82.0794	3030.76	81.8541	3030.76	80.7155	3030.76	80.4852	3030.76	78.4653	3030.76	78.8588	3030.76	76.2376	3030.76	76.7347	3030.76	73.9153	3030.76	74.5782	3030.76	71.4437	3030.76	71.0827	3030.76	68.6992	3030.76	70.4909	3030.76	68.1669	3030.76	68.8509	3030.76	67.3165	3030.76	68.0285	3030.76	65.2289	3030.76	62.6126	3030.76	69.7787	3030.76	67.009	3030.76	68.6789	3030.76	66.6476	3030.76	67.0692	3030.76	68.0607	3030.76	64.4675	3030.76	61.961	3030.76	67.5963
3137.7	81.1521	3137.7	81.5245	3137.7	81.4665	3137.7	82.1583	3137.7	82.1173	3137.7	82.6033	3137.7	82.3216	3137.7	82.199	3137.7	81.7269	3137.7	81.1663	3137.7	80.5166	3137.7	79.6371	3137.7	78.8097	3137.7	77.1824	3137.7	76.8304	3137.7	75.5013	3137.7	74.2735	3137.7	72.6161	3137.7	72.168	3137.7	69.7979	3137.7	69.613	3137.7	69.4139	3137.7	68.1059	3137.7	68.3905	3137.7	68.1212	3137.7	67.845	3137.7	64.9318	3137.7	68.9069	3137.7	70.5485	3137.7	67.9226	3137.7	69.2116	3137.7	67.7601	3137.7	68.1603	3137.7	63.7975	3137.7	63.935	3137.7	68.9191
3249.02	81.6825	3249.02	81.8629	3249.02	82.1097	3249.02	82.1079	3249.02	82.7989	3249.02	82.0684	3249.02	82.5422	3249.02	81.2944	3249.02	81.9063	3249.02	80.2337	3249.02	81.039	3249.02	78.5256	3249.02	79.1439	3249.02	76.4367	3249.02	77.2698	3249.02	74.4281	3249.02	75.2832	3249.02	72.2399	3249.02	73.221	3249.02	70.1403	3249.02	69.6281	3249.02	66.7038	3249.02	67.956	3249.02	67.2778	3249.02	67.7358	3249.02	63.681	3249.02	67.4527	3249.02	67.2284	3249.02	68.9922	3249.02	67.1161	3249.02	67.6961	3249.02	67.9314	3249.02	68.8048	3249.02	66.3094	3249.02	64.7901	3249.02	65.8502
3363.28	82.6328	3363.28	82.7084	3363.28	82.4925	3363.28	82.8171	3363.28	82.8617	3363.28	82.8795	3363.28	82.4065	3363.28	81.912	3363.28	81.6554	3363.28	80.7557	3363.28	80.5315	3363.28	79.3947	3363.28	78.6874	3363.28	77.8607	3363.28	76.3615	3363.28	74.971	3363.28	74.6749	3363.28	72.5765	3363.28	70.5057	3363.28	70.0094	3363.28	69.1789	3363.28	66.8756	3363.28	68.6457	3363.28	65.142	3363.28	66.0151	3363.28	65.4358	3363.28	62.8115	3363.28	65.5025	3363.28	65.3253	3363.28	66.6036	3363.28	66.9838	3363.28	68.8433	3363.28	67.7575	3363.28	62.6334	3363.28	62.5519	3363.28	65.3013
3481.93	83.3414	3481.93	82.8576	3481.93	83.1632	3481.93	82.7534	3481.93	83.0633	3481.93	82.3762	3481.93	82.8619	3481.93	81.5895	3481.93	81.6911	3481.93	79.83	3481.93	80.1668	3481.93	78.089	3481.93	79.0372	3481.93	76.1249	3481.93	76.7306	3481.93	73.989	3481.93	74.7793	3481.93	71.9651	3481.93	73.3927	3481.93	68.8009	3481.93	71.0846	3481.93	68.6233	3481.93	67.8691	3481.93	66.2629	3481.93	67.0097	3481.93	66.9909	3481.93	66.2776	3481.93	66.372	3481.93	66.663	3481.93	66.1674	3481.93	69.5846	3481.93	68.2078	3481.93	68.6014	3481.93	59.8606	3481.93	64.8427	3481.93	66.1126
3604.98	83.4563	3604.98	83.3303	3604.98	83.091	3604.98	82.9978	3604.98	82.8442	3604.98	82.6712	3604.98	82.2518	3604.98	81.4971	3604.98	81.1916	3604.98	80.1842	3604.98	79.6056	3604.98	78.4513	3604.98	78.2292	3604.98	76.5558	3604.98	76.2745	3604.98	74.8232	3604.98	74.2615	3604.98	71.7801	3604.98	71.5464	3604.98	70.3792	3604.98	70.3243	3604.98	68.5239	3604.98	67.1746	3604.98	65.3697	3604.98	65.4086	3604.98	66.4846	3604.98	65.0054	3604.98	65.8105	3604.98	66.3264	3604.98	66.0716	3604.98	67.2091	3604.98	66.0094	3604.98	67.5147	3604.98	61.089	3604.98	61.4937	3604.98	67.8265
3732.42	83.7577	3732.42	83.2868	3732.42	83.5351	3732.42	82.5637	3732.42	82.9879	3732.42	82.087	3732.42	82.3284	3732.42	81.1549	3732.42	81.7266	3732.42	80.0474	3732.42	80.734	3732.42	78.4305	3732.42	79.2959	3732.42	76.7943	3732.42	77.8481	3732.42	75.4585	3732.42	76.1621	3732.42	73.3181	3732.42	73.1589	3732.42	71.343	3732.42	70.6724	3732.42	69.1699	3732.42	68.9967	3732.42	66.2178	3732.42	67.9041	3732.42	64.9265	3732.42	66.6327	3732.42	65.2326	3732.42	65.4872	3732.42	67.6233	3732.42	66.9293	3732.42	68.0115	3732.42	68.6422	3732.42	61.4381	3732.42	62.5575	3732.42	67.0371
3864.26	83.9251	3864.26	83.5793	3864.26	83.3918	3864.26	82.7948	3864.26	82.664	3864.26	82.513	3864.26	81.9918	3864.26	81.7694	3864.26	81.4142	3864.26	80.9376	3864.26	80.7813	3864.26	79.4751	3864.26	79.339	3864.26	78.0082	3864.26	77.8336	3864.26	75.5256	3864.26	75.5193	3864.26	72.8511	3864.26	73.4534	3864.26	70.514	3864.26	70.4339	3864.26	68.0645	3864.26	68.6979	3864.26	67.5703	3864.26	67.0983	3864.26	63.1055	3864.26	66.2342	3864.26	62.0432	3864.26	64.3856	3864.26	66.4451	3864.26	67.0522	3864.26	67.9193	3864.26	67.8171	3864.26	63.3368	3864.26	64.9681	3864.26	65.6153
4000.49	84.0098	4000.49	83.1697	4000.49	83.4721	4000.49	82.3225	4000.49	82.689	4000.49	81.2996	4000.49	81.7483	4000.49	81.0101	4000.49	81.3213	4000.49	80.0389	4000.49	80.7766	4000.49	79.0976	4000.49	79.3708	4000.49	77.1168	4000.49	77.5096	4000.49	74.746	4000.49	75.3364	4000.49	72.52	4000.49	73.5701	4000.49	70.3771	4000.49	71.3556	4000.49	68.1024	4000.49	69.3071	4000.49	65.9252	4000.49	67.053	4000.49	68.3291	4000.49	65.0066	4000.49	64.7891	4000.49	60.8835	4000.49	66.588	4000.49	66.1373	4000.49	67.4728	4000.49	66.4326	4000.49	64.4374	4000.49	62.723	4000.49	65.545
4141.11	84.0994	4141.11	83.6003	4141.11	83.3471	4141.11	82.3568	4141.11	82.1893	4141.11	81.7747	4141.11	81.7007	4141.11	81.2252	4141.11	81.2489	4141.11	80.6274	4141.11	80.668	4141.11	79.0168	4141.11	79.1432	4141.11	77.43	4141.11	77.2932	4141.11	74.9505	4141.11	74.1043	4141.11	72.2186	4141.11	70.8336	4141.11	70.2047	4141.11	70.2186	4141.11	68.0314	4141.11	68.2632	4141.11	64.6707	4141.11	67.2221	4141.11	64.6189	4141.11	65.6759	4141.11	60.62	4141.11	63.5872	4141.11	64.0322	4141.11	65.3226	4141.11	65.7703	4141.11	66.5381	4141.11	62.3629	4141.11	62.6026	4141.11	65.8906
4287.6	83.6709	4287.6	83.0286	4287.6	82.9782	4287.6	81.4057	4287.6	81.8021	4287.6	80.9193	4287.6	81.3581	4287.6	80.2635	4287.6	81.1029	4287.6	79.495	4287.6	80.5316	4287.6	78.0812	4287.6	78.7733	4287.6	76.077	4287.6	76.8684	4287.6	73.9106	4287.6	74.9265	4287.6	71.8136	4287.6	71.9742	4287.6	70.2884	4287.6	69.469	4287.6	67.7998	4287.6	66.6833	4287.6	67.5401	4287.6	65.9272	4287.6	65.778	4287.6	65.0686	4287.6	63.9895	4287.6	63.8035	4287.6	64.9324	4287.6	64.7674	4287.6	64.3667	4287.6	67.0654	4287.6	63.9169	4287.6	63.4772	4287.6	60.5909
4438.48	83.8512	4438.48	82.7527	4438.48	83.0253	4438.48	81.4623	4438.48	81.5037	4438.48	80.5741	4438.48	80.4608	4438.48	81.0102	4438.48	80.4922	4438.48	80.2896	4438.48	79.6901	4438.48	78.5879	4438.48	78.0001	4438.48	75.7134	4438.48	75.9451	4438.48	73.594	4438.48	73.4249	4438.48	71.1179	4438.48	71.8088	4438.48	67.8431	4438.48	68.861	4438.48	66.0164	4438.48	67.2306	4438.48	63.4736	4438.48	65.0098	4438.48	64.3205	4438.48	63.8303	4438.48	62.66	4438.48	61.1513	4438.48	64.4502	4438.48	63.6152	4438.48	64.6139	4438.48	65.2184	4438.48	64.6884	4438.48	63.506	4438.48	61.2751
4595.21	83.4568	4595.21	82.4827	4595.21	82.6761	4595.21	80.348	4595.21	80.7759	4595.21	80.0408	4595.21	80.2958	4595.21	79.5896	4595.21	79.7285	4595.21	79.1703	4595.21	79.3358	4595.21	77.7035	4595.21	77.6209	4595.21	76.7421	4595.21	75.4903	4595.21	74.7686	4595.21	72.929	4595.21	71.3424	4595.21	68.9703	4595.21	69.5363	4595.21	68.338	4595.21	67.7349	4595.21	66.0271	4595.21	65.4641	4595.21	63.5245	4595.21	63.8339	4595.21	64.3287	4595.21	62.1989	4595.21	63.1561	4595.21	65.5247	4595.21	62.2769	4595.21	65.3581	4595.21	63.3627	4595.21	63.946	4595.21	63.6307	4595.21	60.673
4756.35	83.5141	4756.35	82.7088	4756.35	82.3893	4756.35	81.359	4756.35	81.0616	4756.35	80.4768	4756.35	79.9723	4756.35	80.9209	4756.35	79.7743	4756.35	80.2127	4756.35	78.8718	4756.35	78.6989	4756.35	77.0347	4756.35	75.8916	4756.35	75.2228	4756.35	73.7909	4756.35	73.1797	4756.35	72.2354	4756.35	71.2773	4756.35	69.1388	4756.35	66.9138	4756.35	66.0798	4756.35	65.9343	4756.35	64.2907	4756.35	65.4858	4756.35	64.129	4756.35	63.3808	4756.35	62.6398	4756.35	62.8471	4756.35	64.1424	4756.35	64.9799	4756.35	64.7966	4756.35	61.4057	4756.35	65.9926	4756.35	61.4435	4756.35	63.0822
4924.8	84.0901	4924.8	83.3489	4924.8	83.1483	4924.8	81.4119	4924.8	80.8122	4924.8	80.7217	4924.8	80.1253	4924.8	80.2379	4924.8	79.6016	4924.8	79.662	4924.8	78.8313	4924.8	78.1029	4924.8	77.4447	4924.8	76.0245	4924.8	75.1514	4924.8	73.9928	4924.8	72.8692	4924.8	71.7241	4924.8	70.56	4924.8	69.6549	4924.8	68.9355	4924.8	67.4195	4924.8	65.7134	4924.8	65.1799	4924.8	63.0293	4924.8	63.2359	4924.8	62.9667	4924.8	61.6997	4924.8	62.8373	4924.8	65.2359	4924.8	63.4776	4924.8	65.0489	4924.8	61.7289	4924.8	64.5087	4924.8	63.5308	4924.8	61.9498
5097.66	83.8274	5097.66	83.3105	5097.66	82.9977	5097.66	81.5742	5097.66	81.544	5097.66	80.3828	5097.66	80.4959	5097.66	80.3037	5097.66	79.9549	5097.66	79.5086	5097.66	79.2134	5097.66	78.6861	5097.66	77.3833	5097.66	77.2276	5097.66	75.9925	5097.66	75.2074	5097.66	74.0968	5097.66	72.5972	5097.66	71.9201	5097.66	70.6446	5097.66	68.4375	5097.66	68.2505	5097.66	67.0557	5097.66	65.112	5097.66	66.0353	5097.66	63.1163	5097.66	61.9844	5097.66	63.6672	5097.66	63.4495	5097.66	64.4531	5097.66	63.8098	5097.66	63.4294	5097.66	63.7799	5097.66	65.721	5097.66	64.1537	5097.66	60.5354
5277.83	83.7105	5277.83	83.1821	5277.83	82.907	5277.83	82.0037	5277.83	81.2419	5277.83	81.1606	5277.83	80.1312	5277.83	80.7769	5277.83	79.4277	5277.83	80.0733	5277.83	78.7571	5277.83	78.7125	5277.83	78.1063	5277.83	77.0029	5277.83	77.0856	5277.83	75.0824	5277.83	74.8141	5277.83	72.6464	5277.83	72.1089	5277.83	69.3827	5277.83	69.8157	5277.83	66.5397	5277.83	66.8917	5277.83	64.7773	5277.83	64.2967	5277.83	63.3822	5277.83	63.7219	5277.83	61.9394	5277.83	64.055	5277.83	63.0474	5277.83	63.1452	5277.83	63.1996	5277.83	62.9661	5277.83	65.0602	5277.83	64.0838	5277.83	63.3316
5463.87	83.9777	5463.87	83.7599	5463.87	83.4259	5463.87	82.3241	5463.87	82.1844	5463.87	80.9769	5463.87	80.6582	5463.87	79.9073	5463.87	80.2446	5463.87	79.5169	5463.87	79.7411	5463.87	78.9604	5463.87	79.2495	5463.87	77.4896	5463.87	77.6034	5463.87	75.729	5463.87	75.4075	5463.87	72.8972	5463.87	73.2078	5463.87	70.7525	5463.87	70.0388	5463.87	67.5828	5463.87	67.7884	5463.87	65.7261	5463.87	66.3326	5463.87	62.8767	5463.87	64.6019	5463.87	64.2694	5463.87	59.8451	5463.87	65.0445	5463.87	64.3706	5463.87	63.9256	5463.87	64.637	5463.87	64.4525	5463.87	64.8213	5463.87	61.3026
5657.23	83.2413	5657.23	83.064	5657.23	83.1751	5657.23	81.9809	5657.23	82.1687	5657.23	80.0101	5657.23	80.5533	5657.23	79.492	5657.23	79.3152	5657.23	79.2054	5657.23	80.0804	5657.23	79.3305	5657.23	79.5673	5657.23	77.9596	5657.23	78.5176	5657.23	76.1473	5657.23	76.3197	5657.23	73.4509	5657.23	72.7175	5657.23	70.8999	5657.23	70.5491	5657.23	68.4367	5657.23	68.5565	5657.23	67.1469	5657.23	65.8985	5657.23	63.4501	5657.23	62.1127	5657.23	62.4698	5657.23	62.8966	5657.23	63.4022	5657.23	63.3717	5657.23	64.2402	5657.23	64.2145	5657.23	66.0107	5657.23	65.8044	5657.23	59.5671
5856.45	82.4824	5856.45	82.7371	5856.45	82.8293	5856.45	82.0638	5856.45	82.0924	5856.45	80.2025	5856.45	80.1124	5856.45	79.4001	5856.45	79.2872	5856.45	79.955	5856.45	79.9487	5856.45	80.0454	5856.45	80.089	5856.45	78.7642	5856.45	78.3987	5856.45	76.2734	5856.45	75.8591	5856.45	73.6511	5856.45	73.5365	5856.45	70.7601	5856.45	70.2188	5856.45	66.2968	5856.45	67.7974	5856.45	65.3752	5856.45	65.6527	5856.45	61.8756	5856.45	62.1778	5856.45	62.4789	5856.45	63.1776	5856.45	62.5698	5856.45	63.8817	5856.45	63.1311	5856.45	63.3858	5856.45	65.2768	5856.45	64.8258	5856.45	60.88
6062.99	81.0284	6062.99	82.1715	6062.99	81.8783	6062.99	81.8036	6062.99	81.2818	6062.99	79.5576	6062.99	78.8844	6062.99	79.2372	6062.99	78.5783	6062.99	80.3387	6062.99	79.5443	6062.99	79.7262	6062.99	78.9703	6062.99	78.279	6062.99	77.8736	6062.99	75.8487	6062.99	75.3441	6062.99	72.7257	6062.99	72.2662	6062.99	70.9131	6062.99	69.6923	6062.99	67.4042	6062.99	66.187	6062.99	64.5913	6062.99	64.4647	6062.99	63.0557	6062.99	61.6361	6062.99	63.3854	6062.99	61.6366	6062.99	62.1194	6062.99	61.2006	6062.99	63.4959	6062.99	64.0642	6062.99	65.2366	6062.99	63.6136	6062.99	56.4763
6276.86	80.5567	6276.86	81.9837	6276.86	81.4353	6276.86	81.627	6276.86	80.2071	6276.86	79.4333	6276.86	78.0129	6276.86	79.5762	6276.86	78.1341	6276.86	80.2183	6276.86	79.4238	6276.86	80.0092	6276.86	79.1259	6276.86	78.6592	6276.86	77.6356	6276.86	76.3629	6276.86	74.8733	6276.86	73.7183	6276.86	72.0174	6276.86	70.8425	6276.86	69.1317	6276.86	68.296	6276.86	66.5593	6276.86	66.4559	6276.86	64.1729	6276.86	62.6044	6276.86	61.1863	6276.86	62.9788	6276.86	61.6341	6276.86	63.5362	6276.86	60.2107	6276.86	64.3971	6276.86	63.6814	6276.86	64.4739	6276.86	64.6291	6276.86	57.197
6498.05	80.7734	6498.05	81.9247	6498.05	81.1859	6498.05	81.4379	6498.05	80.0148	6498.05	79.9897	6498.05	79.0287	6498.05	80.1061	6498.05	78.8166	6498.05	80.6768	6498.05	79.4167	6498.05	80.2997	6498.05	78.3925	6498.05	78.7863	6498.05	76.9399	6498.05	76.5396	6498.05	74.1151	6498.05	73.6496	6498.05	71.4512	6498.05	70.6702	6498.05	68.2816	6498.05	68.1309	6498.05	65.951	6498.05	65.0749	6498.05	62.7456	6498.05	62.1412	6498.05	59.0482	6498.05	60.1246	6498.05	56.8019	6498.05	60.4253	6498.05	60.025	6498.05	63.5051	6498.05	62.8689	6498.05	63.998	6498.05	63.2161	6498.05	54.7078
6726.56	80.5542	6726.56	81.1865	6726.56	80.5442	6726.56	81.0153	6726.56	80.1806	6726.56	80.5014	6726.56	80.0856	6726.56	80.5826	6726.56	79.7218	6726.56	80.3598	6726.56	79.4043	6726.56	79.8532	6726.56	78.4278	6726.56	78.5746	6726.56	76.5534	6726.56	75.8652	6726.56	73.8282	6726.56	73.1876	6726.56	70.9536	6726.56	69.8198	6726.56	68.2447	6726.56	68.1508	6726.56	65.5784	6726.56	65.0089	6726.56	64.4581	6726.56	61.3861	6726.56	60.3509	6726.56	57.9933	6726.56	56.1954	6726.56	59.3564	6726.56	54.9741	6726.56	64.4578	6726.56	62.1295	6726.56	61.6982	6726.56	62.9765	6726.56	49.4486
6963.87	80.5875	6963.87	80.4676	6963.87	80.1851	6963.87	80.8064	6963.87	80.3863	6963.87	81.0348	6963.87	80.8654	6963.87	80.4127	6963.87	80.0108	6963.87	80.3184	6963.87	79.5498	6963.87	79.5899	6963.87	78.3942	6963.87	78.2046	6963.87	77.0544	6963.87	76.0569	6963.87	74.3131	6963.87	72.8495	6963.87	71.157	6963.87	70.3105	6963.87	67.9319	6963.87	65.4808	6963.87	65.8502	6963.87	64.7263	6963.87	63.1311	6963.87	61.6223	6963.87	60.8837	6963.87	58.455	6963.87	55.6024	6963.87	59.0489	6963.87	56.0352	6963.87	63.6264	6963.87	62.8528	6963.87	61.7668	6963.87	62.5706	6963.87	52.3846
7209.96	80.7935	7209.96	80.767	7209.96	80.5853	7209.96	81.1022	7209.96	81.4676	7209.96	81.5272	7209.96	81.7484	7209.96	80.4314	7209.96	80.2361	7209.96	79.9414	7209.96	79.622	7209.96	79.4026	7209.96	79.0457	7209.96	78.2165	7209.96	77.1835	7209.96	75.3023	7209.96	74.4718	7209.96	72.1586	7209.96	70.5069	7209.96	68.826	7209.96	67.9341	7209.96	66.4861	7209.96	65.9569	7209.96	65.1955	7209.96	63.9337	7209.96	59.5411	7209.96	59.7473	7209.96	58.7438	7209.96	59.354	7209.96	54.8719	7209.96	54.8078	7209.96	64.8007	7209.96	60.0136	7209.96	61.9061	7209.96	60.8202	7209.96	46.0433
7464.84	80.9675	7464.84	80.6118	7464.84	80.7812	7464.84	81.277	7464.84	81.8423	7464.84	82.0005	7464.84	82.1709	7464.84	80.7747	7464.84	80.6296	7464.84	79.804	7464.84	79.9022	7464.84	79.3028	7464.84	79.2068	7464.84	77.6639	7464.84	77.2307	7464.84	74.9555	7464.84	74.0699	7464.84	71.5232	7464.84	70.4298	7464.84	68.4458	7464.84	67.7903	7464.84	64.7046	7464.84	65.2556	7464.84	63.0538	7464.84	62.5392	7464.84	60.9578	7464.84	59.3352	7464.84	58.1561	7464.84	57.4558	7464.84	57.4269	7464.84	54.1596	7464.84	62.4132	7464.84	61.315	7464.84	60.2149	7464.84	61.1846	7464.84	46.8437
7727.05	81.4881	7727.05	81.335	7727.05	81.331	7727.05	81.887	7727.05	82.3048	7727.05	82.0686	7727.05	82.0986	7727.05	80.7849	7727.05	80.3116	7727.05	79.4627	7727.05	79.1401	7727.05	78.4742	7727.05	78.2901	7727.05	76.6278	7727.05	76.0058	7727.05	73.8412	7727.05	72.8209	7727.05	70.3682	7727.05	70.111	7727.05	67.1443	7727.05	66.2295	7727.05	63.5919	7727.05	64.033	7727.05	62.4262	7727.05	61.6714	7727.05	57.3777	7727.05	57.4195	7727.05	56.9154	7727.05	57.5777	7727.05	51.8917	7727.05	53.8819	7727.05	61.6784	7727.05	60.1809	7727.05	59.9113	7727.05	59.7532	7727.05	46.5835
7999.51	82.6053	7999.51	82.3344	7999.51	82.2763	7999.51	82.2853	7999.51	82.3815	7999.51	81.8974	7999.51	81.7475	7999.51	80.2437	7999.51	79.9221	7999.51	78.614	7999.51	78.5587	7999.51	77.2937	7999.51	77.2923	7999.51	75.4465	7999.51	75.1831	7999.51	72.1254	7999.51	72.2587	7999.51	68.8593	7999.51	68.8526	7999.51	65.5713	7999.51	65.8581	7999.51	62.4663	7999.51	63.0918	7999.51	60.1325	7999.51	61.9109	7999.51	58.0889	7999.51	58.7175	7999.51	50.75	7999.51	55.5437	7999.51	53.0406	7999.51	48.1812	7999.51	58.8052	7999.51	56.544	7999.51	57.5322	7999.51	59.3885	7999.51	48.1498
8282.23	82.3812	8282.23	82.4366	8282.23	82.251	8282.23	82.2809	8282.23	82.2608	8282.23	81.7667	8282.23	81.6828	8282.23	80.4012	8282.23	80.3126	8282.23	78.3535	8282.23	78.7561	8282.23	76.8063	8282.23	77.1596	8282.23	74.5537	8282.23	74.8756	8282.23	71.295	8282.23	71.8337	8282.23	67.8055	8282.23	67.8928	8282.23	64.1905	8282.23	64.7298	8282.23	61.5688	8282.23	62.0745	8282.23	59.0417	8282.23	60.4118	8282.23	57.5262	8282.23	57.0178	8282.23	53.7885	8282.23	54.3057	8282.23	46.2518	8282.23	49.1141	8282.23	58.0533	8282.23	57.7806	8282.23	56.3928	8282.23	56.5906	8282.23	47.1648
8573.73	81.9508	8573.73	82.2313	8573.73	82.2155	8573.73	82.0666	8573.73	82.0364	8573.73	81.6073	8573.73	81.5032	8573.73	80.6051	8573.73	80.1744	8573.73	78.2629	8573.73	78.2461	8573.73	76.1601	8573.73	76.1546	8573.73	73.6887	8573.73	73.8465	8573.73	70.5678	8573.73	70.5305	8573.73	66.5259	8573.73	65.8149	8573.73	63.2603	8573.73	63.4062	8573.73	61.7727	8573.73	60.465	8573.73	57.6177	8573.73	57.6701	8573.73	53.6555	8573.73	55.9717	8573.73	54.3707	8573.73	53.235	8573.73	40.4628	8573.73	48.1744	8573.73	56.4021	8573.73	56.7882	8573.73	54.8479	8573.73	56.2366	8573.73	41.8977
8876.95	81.2494	8876.95	82.1131	8876.95	81.7255	8876.95	82.3683	8876.95	81.4732	8876.95	82.2744	8876.95	81.0489	8876.95	81.203	8876.95	79.3472	8876.95	78.7214	8876.95	76.6917	8876.95	76.3359	8876.95	74.4556	8876.95	73.9459	8876.95	71.6164	8876.95	70.6011	8876.95	67.9727	8876.95	67.14	8876.95	64.3741	8876.95	63.6201	8876.95	60.4977	8876.95	60.9905	8876.95	58.4178	8876.95	58.0236	8876.95	55.2546	8876.95	56.4903	8876.95	55.0252	8876.95	52.0574	8876.95	50.0594	8876.95	42.85	8876.95	48.4664	8876.95	57.0697	8876.95	53.9838	8876.95	54.3926	8876.95	54.4209	8876.95	38.9314
9188.96	81.6677	9188.96	82.5241	9188.96	82.1176	9188.96	82.5886	9188.96	81.8837	9188.96	82.2754	9188.96	81.1609	9188.96	80.7936	9188.96	79.1195	9188.96	78.3512	9188.96	75.9945	9188.96	75.6607	9188.96	73.4045	9188.96	73.2235	9188.96	70.041	9188.96	69.4405	9188.96	66.7425	9188.96	65.714	9188.96	63.2348	9188.96	62.1454	9188.96	58.9493	9188.96	59.1266	9188.96	56.4626	9188.96	55.5904	9188.96	52.6159	9188.96	56.3222	9188.96	53.0637	9188.96	49.2606	9188.96	49.2287	9188.96	25.9216	9188.96	46.7482	9188.96	56.1901	9188.96	53.055	9188.96	53	9188.96	52.6375	9188.96	39.6766
9514.16	82.2712	9514.16	82.7099	9514.16	82.9107	9514.16	82.3166	9514.16	82.8441	9514.16	81.731	9514.16	81.9078	9514.16	79.9253	9514.16	79.9375	9514.16	76.8897	9514.16	76.8223	9514.16	73.8945	9514.16	73.7938	9514.16	70.9168	9514.16	70.0131	9514.16	66.4963	9514.16	66.164	9514.16	62.6408	9514.16	61.0615	9514.16	59.354	9514.16	58.483	9514.16	56.7463	9514.16	55.3784	9514.16	52.6169	9514.16	51.2929	9514.16	53.2143	9514.16	53.5252	9514.16	50.2759	9514.16	46.2656	9514.16	39.414	9514.16	42.1769	9514.16	54.1257	9514.16	53.016	9514.16	51.533	9514.16	52.0901	9514.16	37.9831
9849.61	83.2432	9849.61	83.3058	9849.61	83.7619	9849.61	82.8955	9849.61	83.5089	9849.61	81.7458	9849.61	82.1351	9849.61	79.6813	9849.61	79.7621	9849.61	75.7487	9849.61	76.0284	9849.61	72.1913	9849.61	72.2305	9849.61	68.4683	9849.61	67.7465	9849.61	64.6873	9849.61	63.6598	9849.61	60.4916	9849.61	58.2333	9849.61	56.4168	9849.61	56.2144	9849.61	55.0633	9849.61	53.5646	9849.61	50.5007	9849.61	49.7792	9849.61	52.1199	9849.61	48.8889	9849.61	50.4545	9849.61	46.524	9849.61	39.7363	9849.61	45.7118	9849.61	50.2072	9849.61	49.7965	9849.61	50.3416	9849.61	51.1701	9849.61	34.2951
10196.8	83.8152	10196.8	83.5722	10196.8	84.0162	10196.8	83.0613	10196.8	83.4576	10196.8	81.4209	10196.8	81.5976	10196.8	79.0195	10196.8	79.0641	10196.8	75.1093	10196.8	74.9078	10196.8	71.771	10196.8	71.1824	10196.8	68.4325	10196.8	67.7037	10196.8	64.5094	10196.8	63.5383	10196.8	60.9021	10196.8	60.602	10196.8	56.7008	10196.8	56.1596	10196.8	54.2439	10196.8	53.6391	10196.8	47.7167	10196.8	49.7089	10196.8	53.1334	10196.8	51.2296	10196.8	50.2243	10196.8	47.6432	10196.8	42.9266	10196.8	47.1465	10196.8	46.5425	10196.8	48.897	10196.8	51.2618	10196.8	50.6055	10196.8	41.1744
10555.7	83.4139	10555.7	83.3914	10555.7	83.545	10555.7	82.9097	10555.7	83.3541	10555.7	81.4475	10555.7	81.3956	10555.7	79.1624	10555.7	78.8166	10555.7	75.2295	10555.7	74.6089	10555.7	71.6822	10555.7	71.307	10555.7	69.1084	10555.7	67.2729	10555.7	64.0461	10555.7	63.2419	10555.7	60.163	10555.7	58.2722	10555.7	56.9842	10555.7	52.865	10555.7	53.4507	10555.7	52.5516	10555.7	42.8418	10555.7	49.3592	10555.7	51.8722	10555.7	51.0779	10555.7	50.4682	10555.7	45.7533	10555.7	46.8198	10555.7	46.4104	10555.7	50.17	10555.7	47.5001	10555.7	50.4357	10555.7	49.0536	10555.7	42.1483
10927.7	82.8822	10927.7	82.8822	10927.7	83.02	10927.7	82.6488	10927.7	83.196	10927.7	81.179	10927.7	81.1956	10927.7	78.9648	10927.7	78.4583	10927.7	74.8823	10927.7	74.205	10927.7	71.4478	10927.7	71.0215	10927.7	68.8628	10927.7	66.5468	10927.7	63.1476	10927.7	60.8565	10927.7	58.2212	10927.7	53.0899	10927.7	54.7606	10927.7	49.9506	10927.7	49.3061	10927.7	48.2345	10927.7	45.5073	10927.7	45.7904	10927.7	49.3542	10927.7	50.4848	10927.7	47.8545	10927.7	42.6076	10927.7	46.8277	10927.7	45.041	10927.7	52.0398	10927.7	44.7752	10927.7	50.408	10927.7	46.0865	10927.7	40.263
11313	83.0503	11313	82.7031	11313	83.3178	11313	82.433	11313	82.998	11313	80.2798	11313	80.6472	11313	77.7758	11313	77.1569	11313	73.8605	11313	72.6516	11313	70.3985	11313	68.6819	11313	66.75	11313	62.0596	11313	60.5188	11313	53.231	11313	55.4963	11313	47.0121	11313	49.7436	11313	49.1116	11313	44.1855	11313	44.238	11313	41.5968	11313	41.0797	11313	44.8103	11313	41.3823	11313	48.7408	11313	44.4765	11313	42.7377	11313	48.1032	11313	50.0985	11313	41.4152	11313	48.5757	11313	44.6944	11313	39.4243
11712.9	82.4803	11712.9	82.3788	11712.9	82.5199	11712.9	81.9435	11712.9	82.2176	11712.9	80.1172	11712.9	79.9111	11712.9	77.0939	11712.9	76.3101	11712.9	71.7734	11712.9	70.6758	11712.9	67.8212	11712.9	65.6212	11712.9	64.0309	11712.9	58.7815	11712.9	57.6342	11712.9	52.7105	11712.9	49.2576	11712.9	47.727	11712.9	50.5846	11712.9	50.9547	11712.9	39.5696	11712.9	49.3913	11712.9	48.9695	11712.9	51.1594	11712.9	39.6972	11712.9	49.2742	11712.9	38.7025	11712.9	44.4145	11712.9	39.0012	11712.9	42.4217	11712.9	49.3721	11712.9	43.2705	11712.9	44.5567	11712.9	44.1914	11712.9	39.706
12126	82.6937	12126	83.028	12126	82.7057	12126	82.6561	12126	82.3571	12126	79.9583	12126	79.266	12126	76.0293	12126	74.7213	12126	71.2717	12126	68.569	12126	66.2039	12126	62.5286	12126	59.7127	12126	59.2914	12126	37.969	12126	58.9475	12126	47.5777	12126	59.7478	12126	46.4188	12126	53.9411	12126	42.8743	12126	49.8766	12126	45.9115	12126	52.9809	12126	45.4333	12126	52.8586	12126	47.8354	12126	47.6595	12126	42.8791	12126	48.3086	12126	38.5185	12126	46.0179	12126	31.5554	12126	31.8241	12126	45.9281
12553.7	81.908	12553.7	82.5703	12553.7	82.2658	12553.7	82.6765	12553.7	82.4965	12553.7	80.0253	12553.7	80.0552	12553.7	76.16	12553.7	76.1706	12553.7	71.0402	12553.7	71.2817	12553.7	63.8105	12553.7	67.4137	12553.7	49.8349	12553.7	64.509	12553.7	51.2737	12553.7	63.5587	12553.7	52.9406	12553.7	61.9113	12553.7	49.4559	12553.7	57.3279	12553.7	46.8837	12553.7	53.9288	12553.7	50.849	12553.7	53.8072	12553.7	46.4283	12553.7	49.1468	12553.7	44.6049	12553.7	52.6381	12553.7	40.0484	12553.7	50.4862	12553.7	36.3141	12553.7	46.9557	12553.7	36.9092	12553.7	43.5067	12553.7	44.7501
12996.1	81.5407	12996.1	82.6019	12996.1	82.0107	12996.1	83.0036	12996.1	82.8725	12996.1	80.6317	12996.1	80.129	12996.1	76.3094	12996.1	76.4123	12996.1	71.0627	12996.1	70.6781	12996.1	62.0095	12996.1	65.3887	12996.1	61.2944	12996.1	66.4236	12996.1	63.1022	12996.1	66.1322	12996.1	62.7055	12996.1	63.8037	12996.1	56.2931	12996.1	59.6866	12996.1	55.737	12996.1	57.4591	12996.1	53.9816	12996.1	57.7918	12996.1	51.6715	12996.1	47.6722	12996.1	48.3036	12996.1	52.1355	12996.1	39.3196	12996.1	51.9061	12996.1	34.7448	12996.1	40.0791	12996.1	42.479	12996.1	48.0496	12996.1	47.5847
13454.6	82.0835	13454.6	83.3565	13454.6	82.3136	13454.6	84.1364	13454.6	83.372	13454.6	81.9675	13454.6	80.9582	13454.6	78.4446	13454.6	77.9133	13454.6	72.4427	13454.6	71.5595	13454.6	63.0168	13454.6	66.2738	13454.6	65.2551	13454.6	68.7083	13454.6	66.5023	13454.6	68.6222	13454.6	64.6827	13454.6	65.9873	13454.6	59.4843	13454.6	61.4563	13454.6	57.6973	13454.6	59.0777	13454.6	55.2687	13454.6	58.1657	13454.6	52.1723	13454.6	52.0176	13454.6	50.786	13454.6	50.8521	13454.6	40.0553	13454.6	50.8061	13454.6	37.419	13454.6	45.7797	13454.6	47.4375	13454.6	47.6641	13454.6	49.2293
13929.2	82.6532	13929.2	83.5918	13929.2	82.7367	13929.2	84.391	13929.2	83.3842	13929.2	82.0584	13929.2	80.7244	13929.2	78.6829	13929.2	77.6804	13929.2	71.7729	13929.2	70.076	13929.2	60.5151	13929.2	64.777	13929.2	67.8184	13929.2	70.3528	13929.2	68.0368	13929.2	69.5941	13929.2	65.4725	13929.2	65.9924	13929.2	60.524	13929.2	61.556	13929.2	58.2792	13929.2	58.9514	13929.2	56.0828	13929.2	57.1726	13929.2	52.2729	13929.2	51.5213	13929.2	51.5524	13929.2	50.438	13929.2	40.0964	13929.2	48.9624	13929.2	43.7132	13929.2	47.8901	13929.2	47.5867	13929.2	46.7102	13929.2	49.3173
14419.9	82.747	14419.9	83.2827	14419.9	82.869	14419.9	83.8707	14419.9	83.119	14419.9	81.408	14419.9	80.3805	14419.9	78.1083	14419.9	76.6972	14419.9	69.4512	14419.9	66.3842	14419.9	59.9232	14419.9	67.3592	14419.9	69.5493	14419.9	71.0848	14419.9	68.6525	14419.9	69.6076	14419.9	65.6154	14419.9	65.8678	14419.9	60.3299	14419.9	61.1527	14419.9	57.5095	14419.9	58.3376	14419.9	55.3968	14419.9	57.0353	14419.9	52.9493	14419.9	51.5377	14419.9	52.2822	14419.9	49.5022	14419.9	42.0261	14419.9	47.73	14419.9	44.653	14419.9	49.8894	14419.9	47.2112	14419.9	46.381	14419.9	46.8138
14928.2	82.8901	14928.2	83.2032	14928.2	82.7323	14928.2	83.157	14928.2	82.5798	14928.2	80.8252	14928.2	80.0045	14928.2	77.393	14928.2	75.4593	14928.2	65.1813	14928.2	63.39	14928.2	65.3418	14928.2	70.4897	14928.2	69.7769	14928.2	71.6984	14928.2	67.5196	14928.2	69.656	14928.2	64.2776	14928.2	65.5921	14928.2	58.506	14928.2	60.7988	14928.2	56.8486	14928.2	57.9773	14928.2	54.1102	14928.2	56.6521	14928.2	51.4072	14928.2	52.2956	14928.2	50.8395	14928.2	49.5515	14928.2	41.9879	14928.2	46.3075	14928.2	45.9676	14928.2	50.5967	14928.2	46.9133	14928.2	47.3972	14928.2	44.569
15455.6	83.3178	15455.6	83.1973	15455.6	82.8485	15455.6	82.3444	15455.6	82.0696	15455.6	80.2031	15455.6	79.5033	15455.6	75.6873	15455.6	73.3906	15455.6	55.8151	15455.6	68.1885	15455.6	67.8695	15455.6	72.067	15455.6	69.3113	15455.6	72.1541	15455.6	66.2648	15455.6	69.611	15455.6	63.2433	15455.6	65.4241	15455.6	58.2227	15455.6	60.5638	15455.6	56.2841	15455.6	58.1752	15455.6	53.0836	15455.6	56.4475	15455.6	51.5813	15455.6	52.2471	15455.6	50.6758	15455.6	49.6199	15455.6	39.4701	15455.6	44.1922	15455.6	45.039	15455.6	50.5103	15455.6	46.1618	15455.6	46.3921	15455.6	41.6018
16000.5	83.2813	16000.5	82.3418	16000.5	82.1333	16000.5	80.7438	16000.5	80.8529	16000.5	78.6408	16000.5	78.1469	16000.5	72.4579	16000.5	71.0687	16000.5	65.3412	16000.5	71.1484	16000.5	68.3913	16000.5	71.9517	16000.5	68.5893	16000.5	71.3464	16000.5	65.5516	16000.5	68.8904	16000.5	62.1864	16000.5	64.4061	16000.5	58.9289	16000.5	60.1882	16000.5	55.4731	16000.5	57.2047	16000.5	50.2141	16000.5	53.7911	16000.5	50.6181	16000.5	51.5754	16000.5	50.8243	16000.5	48.1211	16000.5	31.7777	16000.5	41.3153	16000.5	43.1738	16000.5	50.2562	16000.5	46.1428	16000.5	43.7692	16000.5	40.9264
16564.5	82.6774	16564.5	80.9143	16564.5	80.9387	16564.5	78.4646	16564.5	79.0496	16564.5	76.6794	16564.5	75.9348	16564.5	68.9061	16564.5	69.3656	16564.5	68.2564	16564.5	70.6613	16564.5	66.8575	16564.5	70.4054	16564.5	66.508	16564.5	68.7055	16564.5	63.7084	16564.5	66.7056	16564.5	60.0789	16564.5	62.6058	16564.5	57.3011	16564.5	58.185	16564.5	54.3212	16564.5	55.193	16564.5	49.6214	16564.5	51.6367	16564.5	47.9333	16564.5	46.1161	16564.5	48.4994	16564.5	47.3732	16564.5	29.29	16564.5	32.425	16564.5	43.111	16564.5	46.2935	16564.5	40.0391	16564.5	39.9704	16564.5	41.3627
17148.9	82.1999	17148.9	79.8445	17148.9	79.9168	17148.9	77.4335	17148.9	78.0945	17148.9	75.3828	17148.9	74.3387	17148.9	67.551	17148.9	69.5955	17148.9	66.2066	17148.9	70.246	17148.9	62.8812	17148.9	68.0568	17148.9	62.6209	17148.9	67.5154	17148.9	62.3328	17148.9	65.075	17148.9	58.5827	17148.9	61.1662	17148.9	55.1651	17148.9	56.059	17148.9	51.7683	17148.9	54.1035	17148.9	46.4055	17148.9	50.4304	17148.9	46.0263	17148.9	45.0073	17148.9	44.4188	17148.9	46.2033	17148.9	29.0251	17148.9	33.6348	17148.9	39.7791	17148.9	43.3564	17148.9	39.3658	17148.9	40.9454	17148.9	44.0051
17752.4	82.1972	17752.4	79.6845	17752.4	79.352	17752.4	76.8554	17752.4	77.2584	17752.4	72.6787	17752.4	72.4506	17752.4	64.0614	17752.4	67.477	17752.4	63.2055	17752.4	67.0962	17752.4	59.6604	17752.4	65.5025	17752.4	63.1239	17752.4	66.2484	17752.4	62.2179	17752.4	63.9	17752.4	58.0611	17752.4	59.6857	17752.4	52.6208	17752.4	54.3342	17752.4	51.3545	17752.4	52.9927	17752.4	47.9411	17752.4	49.4646	17752.4	44.2111	17752.4	44.527	17752.4	40.6214	17752.4	43.9621	17752.4	32.4007	17752.4	31.086	17752.4	33.9977	17752.4	40.2991	17752.4	38.5546	17752.4	36.8039	17752.4	43.2008
18379.4	81.4309	18379.4	79.1608	18379.4	78.3618	18379.4	76.2563	18379.4	75.2988	18379.4	69.5317	18379.4	68.9018	18379.4	62.1571	18379.4	66.9689	18379.4	57.5181	18379.4	65.4573	18379.4	59.5098	18379.4	64.8386	18379.4	61.5393	18379.4	64.8644	18379.4	60.5109	18379.4	61.9894	18379.4	56.2377	18379.4	57.7374	18379.4	49.5164	18379.4	52.0228	18379.4	48.9286	18379.4	50.3582	18379.4	45.0357	18379.4	47.8058	18379.4	40.8773	18379.4	42.992	18379.4	37.2367	18379.4	43.3862	18379.4	35.3479	18379.4	26.4146	18379.4	30.5322	18379.4	28.1467	18379.4	34.8762	18379.4	31.2908	18379.4	40.8417
19026.9	80.2327	19026.9	77.9991	19026.9	77.5711	19026.9	75.0509	19026.9	74.9506	19026.9	67.1131	19026.9	69.6274	19026.9	59.8811	19026.9	66.9641	19026.9	54.0964	19026.9	63.5999	19026.9	60.1435	19026.9	63.7828	19026.9	59.9102	19026.9	61.8738	19026.9	57.4946	19026.9	58.8578	19026.9	53.411	19026.9	53.8157	19026.9	46.1677	19026.9	50.3569	19026.9	47.2247	19026.9	46.8445	19026.9	41.9777	19026.9	43.7821	19026.9	39.8345	19026.9	41.0366	19026.9	34.537	19026.9	42.0638	19026.9	34.5975	19026.9	33.7464	19026.9	26.258	19026.9	29.0855	19026.9	28.0822	19026.9	37.1716	19026.9	40.3874
19697.8	79.4129	19697.8	77.7197	19697.8	77.0804	19697.8	74.7663	19697.8	74.6786	19697.8	66.9051	19697.8	70.2538	19697.8	57.275	19697.8	66.1219	19697.8	54.5103	19697.8	64.008	19697.8	60.6234	19697.8	64.0364	19697.8	59.1286	19697.8	60.1774	19697.8	55.0157	19697.8	57.9791	19697.8	48.6563	19697.8	51.6929	19697.8	47.014	19697.8	50.3858	19697.8	40.9599	19697.8	45.6502	19697.8	35.8192	19697.8	37.7111	19697.8	36.3823	19697.8	36.6519	19697.8	34.9994	19697.8	40.9635	19697.8	36.5326	19697.8	34.8417	19697.8	27.958	19697.8	25.9173	19697.8	32.3079	19697.8	34.7692	19697.8	41.0622
19999.5	79.1456	19999.5	77.5695	19999.5	76.741	19999.5	74.9217	19999.5	74.4927	19999.5	66.3155	19999.5	69.8129	19999.5	53.7691	19999.5	64.1679	19999.5	53.4721	19999.5	63.2098	19999.5	60.9166	19999.5	63.4677	19999.5	57.7027	19999.5	58.8601	19999.5	55.6783	19999.5	58.3765	19999.5	47.6176	19999.5	53.3343	19999.5	47.4612	19999.5	50.895	19999.5	34.4144	19999.5	44.438	19999.5	40.9584	19999.5	40.4257	19999.5	42.8201	19999.5	41.0976	19999.5	43.3334	19999.5	48.0289	19999.5	39.125	19999.5	41.5047	19999.5	37.4271	19999.5	36.1763	19999.5	38.9814	19999.5	36.0494	19999.5	37.7846
