"SPL Vertical"
"On-Axis"		"10°"		"-10°"		"20°"		"-20°"		"30°"		"-30°"		"40°"		"-40°"		"50°"		"-50°"		"60°"		"-60°"		"70°"		"-70°"		"80°"		"-80°"		"90°"		"-90°"		"100°"		"-100°"		"110°"		"-110°"		"120°"		"-120°"		"130°"		"-130°"		"140°"		"-140°"		"150°"		"-150°"		"160°"		"-160°"		"170°"		"-170°"		"180°"
"Frequency [Hz]"	"Sound Pessure Level [dB]  / [2.83V 1m] "	"Frequency [Hz]"	"Sound Pessure Level [dB]  / [2.83V 1m] "	"Frequency [Hz]"	"Sound Pessure Level [dB]  / [2.83V 1m] "	"Frequency [Hz]"	"Sound Pessure Level [dB]  / [2.83V 1m] "	"Frequency [Hz]"	"Sound Pessure Level [dB]  / [2.83V 1m] "	"Frequency [Hz]"	"Sound Pessure Level [dB]  / [2.83V 1m] "	"Frequency [Hz]"	"Sound Pessure Level [dB]  / [2.83V 1m] "	"Frequency [Hz]"	"Sound Pessure Level [dB]  / [2.83V 1m] "	"Frequency [Hz]"	"Sound Pessure Level [dB]  / [2.83V 1m] "	"Frequency [Hz]"	"Sound Pessure Level [dB]  / [2.83V 1m] "	"Frequency [Hz]"	"Sound Pessure Level [dB]  / [2.83V 1m] "	"Frequency [Hz]"	"Sound Pessure Level [dB]  / [2.83V 1m] "	"Frequency [Hz]"	"Sound Pessure Level [dB]  / [2.83V 1m] "	"Frequency [Hz]"	"Sound Pessure Level [dB]  / [2.83V 1m] "	"Frequency [Hz]"	"Sound Pessure Level [dB]  / [2.83V 1m] "	"Frequency [Hz]"	"Sound Pessure Level [dB]  / [2.83V 1m] "	"Frequency [Hz]"	"Sound Pessure Level [dB]  / [2.83V 1m] "	"Frequency [Hz]"	"Sound Pessure Level [dB]  / [2.83V 1m] "	"Frequency [Hz]"	"Sound Pessure Level [dB]  / [2.83V 1m] "	"Frequency [Hz]"	"Sound Pessure Level [dB]  / [2.83V 1m] "	"Frequency [Hz]"	"Sound Pessure Level [dB]  / [2.83V 1m] "	"Frequency [Hz]"	"Sound Pessure Level [dB]  / [2.83V 1m] "	"Frequency [Hz]"	"Sound Pessure Level [dB]  / [2.83V 1m] "	"Frequency [Hz]"	"Sound Pessure Level [dB]  / [2.83V 1m] "	"Frequency [Hz]"	"Sound Pessure Level [dB]  / [2.83V 1m] "	"Frequency [Hz]"	"Sound Pessure Level [dB]  / [2.83V 1m] "	"Frequency [Hz]"	"Sound Pessure Level [dB]  / [2.83V 1m] "	"Frequency [Hz]"	"Sound Pessure Level [dB]  / [2.83V 1m] "	"Frequency [Hz]"	"Sound Pessure Level [dB]  / [2.83V 1m] "	"Frequency [Hz]"	"Sound Pessure Level [dB]  / [2.83V 1m] "	"Frequency [Hz]"	"Sound Pessure Level [dB]  / [2.83V 1m] "	"Frequency [Hz]"	"Sound Pessure Level [dB]  / [2.83V 1m] "	"Frequency [Hz]"	"Sound Pessure Level [dB]  / [2.83V 1m] "	"Frequency [Hz]"	"Sound Pessure Level [dB]  / [2.83V 1m] "	"Frequency [Hz]"	"Sound Pessure Level [dB]  / [2.83V 1m] "	"Frequency [Hz]"	"Sound Pessure Level [dB]  / [2.83V 1m] "
20.5078	72.2397	20.5078	71.5965	20.5078	72.9683	20.5078	71.0379	20.5078	73.777	20.5078	70.5601	20.5078	74.6507	20.5078	70.1578	20.5078	75.5576	20.5078	69.8254	20.5078	76.4422	20.5078	69.5575	20.5078	77.2179	20.5078	69.3493	20.5078	77.7692	20.5078	69.1968	20.5078	77.9745	20.5078	69.097	20.5078	77.7519	20.5078	69.0475	20.5078	77.112	20.5078	69.0473	20.5078	76.1819	20.5078	69.0961	20.5078	75.1436	20.5078	69.195	20.5078	74.1318	20.5078	69.3463	20.5078	73.2073	20.5078	69.5537	20.5078	72.3895	20.5078	69.8229	20.5078	71.6818	20.5078	70.1609	20.5078	71.0802	20.5078	70.5766
23.4375	77.3191	23.4375	76.7231	23.4375	77.9872	23.4375	76.1997	23.4375	78.7222	23.4375	75.747	23.4375	79.5109	23.4375	75.362	23.4375	80.3265	23.4375	75.0413	23.4375	81.1225	23.4375	74.7815	23.4375	81.8255	23.4375	74.5796	23.4375	82.3349	23.4375	74.4332	23.4375	82.5397	23.4375	74.3403	23.4375	82.3614	23.4375	74.2994	23.4375	81.8108	23.4375	74.3101	23.4375	81.006	23.4375	74.3721	23.4375	80.1039	23.4375	74.4864	23.4375	79.2151	23.4375	74.6544	23.4375	78.3903	23.4375	74.8785	23.4375	77.647	23.4375	75.1622	23.4375	76.9901	23.4375	75.5098	23.4375	76.418	23.4375	75.9265
26.3672	79.7335	26.3672	79.1783	26.3672	80.3527	26.3672	78.6884	26.3672	81.0307	26.3672	78.2628	26.3672	81.7552	26.3672	77.8997	26.3672	82.5021	26.3672	77.5966	26.3672	83.2293	26.3672	77.3513	26.3672	83.8704	26.3672	77.1617	26.3672	84.3334	26.3672	77.026	26.3672	84.5166	26.3672	76.9427	26.3672	84.3517	26.3672	76.9108	26.3672	83.8585	26.3672	76.9298	26.3672	83.1492	26.3672	76.9996	26.3672	82.3566	26.3672	77.1205	26.3672	81.5691	26.3672	77.2936	26.3672	80.8287	26.3672	77.5201	26.3672	80.1526	26.3672	77.8023	26.3672	79.5468	26.3672	78.1428	26.3672	79.0115	26.3672	78.5447
29.2969	81.3141	29.2969	80.8087	29.2969	81.874	29.2969	80.3598	29.2969	82.4832	29.2969	79.9673	29.2969	83.1304	29.2969	79.6303	29.2969	83.7945	29.2969	79.3475	29.2969	84.4388	29.2969	79.1174	29.2969	85.0058	29.2969	78.9389	29.2969	85.4155	29.2969	78.8108	29.2969	85.5781	29.2969	78.7322	29.2969	85.4333	29.2969	78.7027	29.2969	85.0021	29.2969	78.7219	29.2969	84.3864	29.2969	78.7899	29.2969	83.6982	29.2969	78.9071	29.2969	83.0085	29.2969	79.0741	29.2969	82.3518	29.2969	79.2919	29.2969	81.7441	29.2969	79.5617	29.2969	81.1923	29.2969	79.885	29.2969	80.6988	29.2969	80.2635
32.2266	81.8241	32.2266	81.3554	32.2266	82.3426	32.2266	80.9388	32.2266	82.9056	32.2266	80.5748	32.2266	83.5029	32.2266	80.2632	32.2266	84.1155	32.2266	80.0033	32.2266	84.712	32.2266	79.7943	32.2266	85.2427	32.2266	79.6354	32.2266	85.6384	32.2266	79.5259	32.2266	85.8202	32.2266	79.4652	32.2266	85.7352	32.2266	79.4529	32.2266	85.4034	32.2266	79.4888	32.2266	84.9083	32.2266	79.573	32.2266	84.3321	32.2266	79.7056	32.2266	83.7276	32.2266	79.8869	32.2266	83.1285	32.2266	80.1174	32.2266	82.557	32.2266	80.3977	32.2266	82.0263	32.2266	80.7284	32.2266	81.5431	32.2266	81.1102
35.1562	82.5601	35.1562	82.1122	35.1562	83.0529	35.1562	81.7121	35.1562	83.585	35.1562	81.3612	35.1562	84.1457	35.1562	81.0595	35.1562	84.7167	35.1562	80.8072	35.1562	85.2677	35.1562	80.6036	35.1562	85.7518	35.1562	80.4485	35.1562	86.1044	35.1562	80.3414	35.1562	86.2552	35.1562	80.2821	35.1562	86.1633	35.1562	80.2702	35.1562	85.855	35.1562	80.3056	35.1562	85.4047	35.1562	80.3884	35.1562	84.88	35.1562	80.5185	35.1562	84.3261	35.1562	80.696	35.1562	83.7737	35.1562	80.9209	35.1562	83.2433	35.1562	81.1933	35.1562	82.747	35.1562	81.5128	35.1562	82.2911	35.1562	81.8791
38.0859	82.9881	38.0859	82.5679	38.0859	83.4489	38.0859	82.1917	38.0859	83.9438	38.0859	81.8616	38.0859	84.4624	38.0859	81.5786	38.0859	84.9876	38.0859	81.343	38.0859	85.4928	38.0859	81.155	38.0859	85.9384	38.0859	81.0144	38.0859	86.2719	38.0859	80.9211	38.0859	86.4363	38.0859	80.8749	38.0859	86.3983	38.0859	80.8756	38.0859	86.1777	38.0859	80.923	38.0859	85.8273	38.0859	81.0171	38.0859	85.3899	38.0859	81.1576	38.0859	84.8995	38.0859	81.3443	38.0859	84.3887	38.0859	81.5771	38.0859	83.8841	38.0859	81.8555	38.0859	83.4029	38.0859	82.1789	38.0859	82.9551	38.0859	82.546
41.0156	83.8415	41.0156	83.4309	41.0156	84.2882	41.0156	83.0606	41.0156	84.7644	41.0156	82.7331	41.0156	85.2594	41.0156	82.4498	41.0156	85.7564	41.0156	82.2117	41.0156	86.23	41.0156	82.0193	41.0156	86.6428	41.0156	81.8728	41.0156	86.9455	41.0156	81.7726	41.0156	87.0852	41.0156	81.7187	41.0156	87.0338	41.0156	81.7113	41.0156	86.8151	41.0156	81.7505	41.0156	86.479	41.0156	81.8362	41.0156	86.0618	41.0156	81.9686	41.0156	85.5922	41.0156	82.1472	41.0156	85.101	41.0156	82.372	41.0156	84.6138	41.0156	82.6422	41.0156	84.1478	41.0156	82.9569	41.0156	83.7127	41.0156	83.3145
43.9453	84.5155	43.9453	84.1227	43.9453	84.9426	43.9453	83.7685	43.9453	85.397	43.9453	83.4559	43.9453	85.8683	43.9453	83.1865	43.9453	86.3405	43.9453	82.9615	43.9453	86.7901	43.9453	82.7815	43.9453	87.1845	43.9453	82.6468	43.9453	87.4808	43.9453	82.5577	43.9453	87.633	43.9453	82.5143	43.9453	87.6141	43.9453	82.5166	43.9453	87.4385	43.9453	82.5645	43.9453	87.1447	43.9453	82.658	43.9453	86.7642	43.9453	82.7967	43.9453	86.3268	43.9453	82.9803	43.9453	85.8637	43.9453	83.208	43.9453	85.4005	43.9453	83.4788	43.9453	84.9533	43.9453	83.7914	43.9453	84.5322	43.9453	84.1435
46.875	85.1088	46.875	84.7167	46.875	85.5318	46.875	84.3603	46.875	85.978	46.875	84.043	46.875	86.4365	46.875	83.767	46.875	86.891	46.875	83.5337	46.875	87.3181	46.875	83.3442	46.875	87.6856	46.875	83.1992	46.875	87.9525	46.875	83.0993	46.875	88.076	46.875	83.0448	46.875	88.0333	46.875	83.0361	46.875	87.8439	46.875	83.0733	46.875	87.5476	46.875	83.1565	46.875	87.1725	46.875	83.2855	46.875	86.7436	46.875	83.46	46.875	86.2891	46.875	83.6795	46.875	85.8333	46.875	83.9429	46.875	85.3926	46.875	84.2487	46.875	84.9775	46.875	84.5946
49.8047	85.7212	49.8047	85.341	49.8047	86.1301	49.8047	84.9949	49.8047	86.56	49.8047	84.6865	49.8047	86.9992	49.8047	84.4182	49.8047	87.4316	49.8047	84.1918	49.8047	87.8345	49.8047	84.0083	49.8047	88.1779	49.8047	83.8686	49.8047	88.4259	49.8047	83.7734	49.8047	88.544	49.8047	83.7229	49.8047	88.5153	49.8047	83.7175	49.8047	88.3539	49.8047	83.7573	49.8047	88.0871	49.8047	83.8423	49.8047	87.7379	49.8047	83.9722	49.8047	87.3325	49.8047	84.1466	49.8047	86.9	49.8047	84.3646	49.8047	86.4639	49.8047	84.625	49.8047	86.0397	49.8047	84.926	49.8047	85.6377	49.8047	85.2648
52.7344	86.3668	52.7344	85.9894	52.7344	86.771	52.7344	85.6448	52.7344	87.1941	52.7344	85.3367	52.7344	87.6243	52.7344	85.0679	52.7344	88.0451	52.7344	84.8403	52.7344	88.4339	52.7344	84.6553	52.7344	88.7616	52.7344	84.5138	52.7344	88.9935	52.7344	84.4165	52.7344	89.0976	52.7344	84.3641	52.7344	89.0613	52.7344	84.3568	52.7344	88.902	52.7344	84.3947	52.7344	88.6454	52.7344	84.4779	52.7344	88.3094	52.7344	84.6061	52.7344	87.9167	52.7344	84.7787	52.7344	87.4952	52.7344	84.9949	52.7344	87.0683	52.7344	85.2531	52.7344	86.6515	52.7344	85.5513	52.7344	86.2552	52.7344	85.8867
55.6641	86.8893	55.6641	86.5184	55.6641	87.2848	55.6641	86.178	55.6641	87.6964	55.6641	85.8725	55.6641	88.1122	55.6641	85.6046	55.6641	88.5159	55.6641	85.3765	55.6641	88.8857	55.6641	85.1898	55.6641	89.1943	55.6641	85.0456	55.6641	89.4109	55.6641	84.9446	55.6641	89.507	55.6641	84.8877	55.6641	89.4698	55.6641	84.8751	55.6641	89.3119	55.6641	84.9072	55.6641	89.0558	55.6641	84.9839	55.6641	88.7213	55.6641	85.1051	55.6641	88.3327	55.6641	85.2703	55.6641	87.9178	55.6641	85.4786	55.6641	87.499	55.6641	85.7286	55.6641	87.0912	55.6641	86.0182	55.6641	86.7041	55.6641	86.3447
58.5938	87.3307	58.5938	86.9599	58.5938	87.7265	58.5938	86.6201	58.5938	88.1389	58.5938	86.3156	58.5938	88.5558	58.5938	86.0494	58.5938	88.9611	58.5938	85.8237	58.5938	89.3333	58.5938	85.64	58.5938	89.6455	58.5938	85.4996	58.5938	89.8676	58.5938	85.4032	58.5938	89.9722	58.5938	85.3516	58.5938	89.948	58.5938	85.3451	58.5938	89.8063	58.5938	85.384	58.5938	89.5661	58.5938	85.4682	58.5938	89.2453	58.5938	85.5974	58.5938	88.8675	58.5938	85.7709	58.5938	88.4598	58.5938	85.9878	58.5938	88.0439	58.5938	86.2464	58.5938	87.635	58.5938	86.5443	58.5938	87.2439	58.5938	86.8783
61.5234	87.6488	61.5234	87.2822	61.5234	88.0398	61.5234	86.9461	61.5234	88.4467	61.5234	86.6447	61.5234	88.8576	61.5234	86.3813	61.5234	89.2567	61.5234	86.158	61.5234	89.6235	61.5234	85.9766	61.5234	89.933	61.5234	85.8383	61.5234	90.1579	61.5234	85.744	61.5234	90.273	61.5234	85.6945	61.5234	90.2642	61.5234	85.6903	61.5234	90.1351	61.5234	85.7314	61.5234	89.9006	61.5234	85.818	61.5234	89.5827	61.5234	85.9498	61.5234	89.2096	61.5234	86.1259	61.5234	88.8084	61.5234	86.3453	61.5234	88.3987	61.5234	86.6061	61.5234	87.9943	61.5234	86.9058	61.5234	87.6056	61.5234	87.2406
64.4531	87.8556	64.4531	87.4865	64.4531	88.2477	64.4531	87.1468	64.4531	88.6538	64.4531	86.8412	64.4531	89.0614	64.4531	86.5729	64.4531	89.4539	64.4531	86.3444	64.4531	89.8101	64.4531	86.1576	64.4531	90.1042	64.4531	86.0136	64.4531	90.3103	64.4531	85.9137	64.4531	90.4075	64.4531	85.8584	64.4531	90.3862	64.4531	85.8484	64.4531	90.246	64.4531	85.8839	64.4531	89.997	64.4531	85.9648	64.4531	89.6653	64.4531	86.0907	64.4531	89.2858	64.4531	86.261	64.4531	88.886	64.4531	86.4743	64.4531	88.4827	64.4531	86.7289	64.4531	88.0866	64.4531	87.0217	64.4531	87.7063	64.4531	87.3492
67.3828	87.9915	67.3828	87.6234	67.3828	88.3821	67.3828	87.2842	67.3828	88.7859	67.3828	86.9789	67.3828	89.1904	67.3828	86.7108	67.3828	89.5788	67.3828	86.4824	67.3828	89.9301	67.3828	86.2955	67.3828	90.2193	67.3828	86.1515	67.3828	90.4212	67.3828	86.0513	67.3828	90.515	67.3828	85.9955	67.3828	90.4877	67.3828	85.9846	67.3828	90.3357	67.3828	86.0187	67.3828	90.0715	67.3828	86.0975	67.3828	89.7285	67.3828	86.2207	67.3828	89.3456	67.3828	86.3871	67.3828	88.9495	67.3828	86.5956	67.3828	88.5541	67.3828	86.8442	67.3828	88.1675	67.3828	87.1299	67.3828	87.797	67.3828	87.4491
70.3125	88.1877	70.3125	87.8245	70.3125	88.5736	70.3125	87.4906	70.3125	88.9731	70.3125	87.1907	70.3125	89.374	70.3125	86.9284	70.3125	89.7604	70.3125	86.7063	70.3125	90.1125	70.3125	86.5261	70.3125	90.4079	70.3125	86.3894	70.3125	90.6246	70.3125	86.2973	70.3125	90.745	70.3125	86.2503	70.3125	90.7545	70.3125	86.2488	70.3125	90.6398	70.3125	86.2931	70.3125	90.404	70.3125	86.3826	70.3125	90.0793	70.3125	86.5169	70.3125	89.7071	70.3125	86.6948	70.3125	89.316	70.3125	86.9146	70.3125	88.921	70.3125	87.1742	70.3125	88.5313	70.3125	87.4704	70.3125	88.1549	70.3125	87.7991
73.2422	88.3811	73.2422	88.0175	73.2422	88.7654	73.2422	87.6813	73.2422	89.1607	73.2422	87.3777	73.2422	89.5548	73.2422	87.1106	73.2422	89.9313	73.2422	86.8827	73.2422	90.2707	73.2422	86.6965	73.2422	90.5514	73.2422	86.5537	73.2422	90.754	73.2422	86.4555	73.2422	90.8666	73.2422	86.4031	73.2422	90.88	73.2422	86.397	73.2422	90.7782	73.2422	86.4376	73.2422	90.5554	73.2422	86.5248	73.2422	90.2389	73.2422	86.658	73.2422	89.8708	73.2422	86.8361	73.2422	89.481	73.2422	87.0575	73.2422	89.0851	73.2422	87.3198	73.2422	88.6927	73.2422	87.6196	73.2422	88.3125	73.2422	87.9524
76.1719	88.5514	76.1719	88.1919	76.1719	88.9306	76.1719	87.859	76.1719	89.3202	76.1719	87.5577	76.1719	89.7081	76.1719	87.292	76.1719	90.0787	76.1719	87.0648	76.1719	90.4135	76.1719	86.8783	76.1719	90.6923	76.1719	86.7346	76.1719	90.8976	76.1719	86.635	76.1719	91.0166	76.1719	86.5806	76.1719	91.0359	76.1719	86.5722	76.1719	90.9347	76.1719	86.6102	76.1719	90.7069	76.1719	86.6945	76.1719	90.3843	76.1719	86.8248	76.1719	90.0129	76.1719	87	76.1719	89.6229	76.1719	87.2184	76.1719	89.2287	76.1719	87.4777	76.1719	88.839	76.1719	87.7746	76.1719	88.4617	76.1719	88.1045
79.1016	88.7494	79.1016	88.382	79.1016	89.1352	79.1016	88.0402	79.1016	89.5298	79.1016	87.7292	79.1016	89.9205	79.1016	87.4531	79.1016	90.2911	79.1016	87.215	79.1016	90.6217	79.1016	87.0172	79.1016	90.8905	79.1016	86.862	79.1016	91.0781	79.1016	86.7508	79.1016	91.1724	79.1016	86.6849	79.1016	91.1641	79.1016	86.6653	79.1016	91.0371	79.1016	86.6925	79.1016	90.7872	79.1016	86.7666	79.1016	90.4472	79.1016	86.8875	79.1016	90.0633	79.1016	87.0543	79.1016	89.6651	79.1016	87.2655	79.1016	89.2657	79.1016	87.5189	79.1016	88.873	79.1016	87.8113	79.1016	88.4947	79.1016	88.1385
82.0312	88.7928	82.0312	88.4249	82.0312	89.178	82.0312	88.0818	82.0312	89.5707	82.0312	87.7693	82.0312	89.9573	82.0312	87.4914	82.0312	90.3209	82.0312	87.2514	82.0312	90.6407	82.0312	87.052	82.0312	90.8946	82.0312	86.895	82.0312	91.0653	82.0312	86.7822	82.0312	91.1471	82.0312	86.7148	82.0312	91.1363	82.0312	86.6936	82.0312	91.0122	82.0312	86.7192	82.0312	90.7623	82.0312	86.7916	82.0312	90.4214	82.0312	86.9106	82.0312	90.0406	82.0312	87.0752	82.0312	89.649	82.0312	87.2841	82.0312	89.2574	82.0312	87.5348	82.0312	88.8718	82.0312	87.8242	82.0312	88.4993	82.0312	88.1476
84.9609	88.8205	84.9609	88.4505	84.9609	89.2092	84.9609	88.1069	84.9609	89.6063	84.9609	87.7953	84.9609	89.9979	84.9609	87.5198	84.9609	90.3662	84.9609	87.2833	84.9609	90.6891	84.9609	87.0881	84.9609	90.9424	84.9609	86.936	84.9609	91.1053	84.9609	86.8279	84.9609	91.1679	84.9609	86.7646	84.9609	91.1228	84.9609	86.7464	84.9609	90.9504	84.9609	86.7732	84.9609	90.6507	84.9609	86.8445	84.9609	90.2762	84.9609	86.9594	84.9609	89.8864	84.9609	87.1164	84.9609	89.5069	84.9609	87.3136	84.9609	89.1398	84.9609	87.5486	84.9609	88.7837	84.9609	87.8178	84.9609	88.441	84.9609	88.1171
87.8906	88.7877	87.8906	88.4332	87.8906	89.1611	87.8906	88.1049	87.8906	89.5438	87.8906	87.8083	87.8906	89.9228	87.8906	87.5473	87.8906	90.2817	87.8906	87.325	87.8906	90.6007	87.8906	87.1437	87.8906	90.859	87.8906	87.005	87.8906	91.0401	87.8906	86.9103	87.8906	91.1363	87.8906	86.8603	87.8906	91.1355	87.8906	86.8553	87.8906	91.007	87.8906	86.8951	87.8906	90.7436	87.8906	86.9791	87.8906	90.3976	87.8906	87.1062	87.8906	90.03	87.8906	87.2745	87.8906	89.6674	87.8906	87.4817	87.8906	89.3125	87.8906	87.7247	87.8906	88.9642	87.8906	87.9998	87.8906	88.6255	87.8906	88.302
90.8203	88.4961	90.8203	88.1549	90.8203	88.8584	90.8203	87.8417	90.8203	89.2327	90.8203	87.5619	90.8203	89.6068	90.8203	87.3192	90.8203	89.9655	90.8203	87.1168	90.8203	90.2908	90.8203	86.9571	90.8203	90.5645	90.8203	86.8417	90.8203	90.7755	90.8203	86.7721	90.8203	90.9246	90.8203	86.7489	90.8203	91.0039	90.8203	86.7723	90.8203	90.9681	90.8203	86.8419	90.8203	90.786	90.8203	86.9566	90.8203	90.4977	90.8203	87.1147	90.8203	90.1664	90.8203	87.3138	90.8203	89.8242	90.8203	87.5505	90.8203	89.4777	90.8203	87.821	90.8203	89.1287	90.8203	88.1204	90.8203	88.7814	90.8203	88.4428
93.75	88.714	93.75	88.3927	93.75	89.046	93.75	88.0897	93.75	89.3791	93.75	87.8112	93.75	89.7018	93.75	87.5621	93.75	90.0012	93.75	87.3467	93.75	90.2651	93.75	87.1684	93.75	90.4874	93.75	87.0302	93.75	90.6751	93.75	86.9347	93.75	90.8476	93.75	86.8841	93.75	90.9984	93.75	86.88	93.75	91.0553	93.75	86.9235	93.75	90.9499	93.75	87.0152	93.75	90.7025	93.75	87.1548	93.75	90.3774	93.75	87.3415	93.75	90.0168	93.75	87.5733	93.75	89.6385	93.75	87.8472	93.75	89.2528	93.75	88.159	93.75	88.8706	93.75	88.5028
96.6797	88.5699	96.6797	88.2339	96.6797	88.9205	96.6797	87.9203	96.6797	89.2761	96.6797	87.6351	96.6797	89.6243	96.6797	87.3829	96.6797	89.9505	96.6797	87.1674	96.6797	90.2391	96.6797	86.9917	96.6797	90.4767	96.6797	86.8581	96.6797	90.6594	96.6797	86.7684	96.6797	90.794	96.6797	86.7238	96.6797	90.8704	96.6797	86.725	96.6797	90.8307	96.6797	86.7719	96.6797	90.6344	96.6797	86.8639	96.6797	90.326	96.6797	86.9997	96.6797	89.9771	96.6797	87.1774	96.6797	89.6229	96.6797	87.3944	96.6797	89.2698	96.6797	87.6472	96.6797	88.9189	96.6797	87.9318	96.6797	88.5744	96.6797	88.243
102.539	88.2971	102.539	87.9728	102.539	88.6305	102.539	87.6658	102.539	88.9624	102.539	87.3831	102.539	89.2802	102.539	87.1301	102.539	89.5695	102.539	86.9114	102.539	89.8159	102.539	86.7309	102.539	90.0097	102.539	86.5918	102.539	90.1531	102.539	86.4965	102.539	90.262	102.539	86.4469	102.539	90.3322	102.539	86.4439	102.539	90.3019	102.539	86.4878	102.539	90.1224	102.539	86.5777	102.539	89.8373	102.539	86.7118	102.539	89.5191	102.539	86.8875	102.539	89.1994	102.539	87.1013	102.539	88.8798	102.539	87.3489	102.539	88.558	102.539	87.625	102.539	88.237	102.539	87.9234
105.469	88.2384	105.469	87.9168	105.469	88.565	105.469	87.6089	105.469	88.8858	105.469	87.3218	105.469	89.188	105.469	87.0613	105.469	89.4574	105.469	86.8326	105.469	89.6806	105.469	86.6398	105.469	89.8497	105.469	86.4868	105.469	89.9705	105.469	86.3766	105.469	90.0624	105.469	86.3116	105.469	90.1217	105.469	86.2934	105.469	90.083	105.469	86.3227	105.469	89.8958	105.469	86.3991	105.469	89.6054	105.469	86.5211	105.469	89.2846	105.469	86.6863	105.469	88.9645	105.469	86.8913	105.469	88.6455	105.469	87.1316	105.469	88.3251	105.469	87.4019	105.469	88.0063	105.469	87.6959
108.398	88.415	108.398	88.1007	108.398	88.7306	108.398	87.7968	108.398	89.0367	108.398	87.5107	108.398	89.3202	108.398	87.2486	108.398	89.5673	108.398	87.0159	108.398	89.7654	108.398	86.8171	108.398	89.9085	108.398	86.6564	108.398	90.0057	108.398	86.5371	108.398	90.0799	108.398	86.4621	108.398	90.1271	108.398	86.4333	108.398	90.0788	108.398	86.4516	108.398	89.8852	108.398	86.5171	108.398	89.5956	108.398	86.6283	108.398	89.2831	108.398	86.7831	108.398	88.975	108.398	86.9778	108.398	88.6687	108.398	87.2082	108.398	88.3602	108.398	87.4686	108.398	88.0525	108.398	87.7525
111.328	88.4937	111.328	88.1808	111.328	88.8065	111.328	87.8773	111.328	89.108	111.328	87.5909	111.328	89.3852	111.328	87.3282	111.328	89.624	111.328	87.0948	111.328	89.8125	111.328	86.8957	111.328	89.9467	111.328	86.7351	111.328	90.039	111.328	86.6165	111.328	90.1167	111.328	86.5427	111.328	90.1752	111.328	86.5158	111.328	90.1365	111.328	86.5364	111.328	89.9444	111.328	86.6043	111.328	89.6529	111.328	86.7179	111.328	89.3416	111.328	86.8745	111.328	89.0389	111.328	87.0704	111.328	88.7399	111.328	87.3009	111.328	88.4386	111.328	87.56	111.328	88.1368	111.328	87.8413
117.188	88.2858	117.188	87.966	117.188	88.6019	117.188	87.6528	117.188	88.9026	117.188	87.3547	117.188	89.1743	117.188	87.0788	117.188	89.4033	117.188	86.8316	117.188	89.5792	117.188	86.6186	117.188	89.7013	117.188	86.4448	117.188	89.7877	117.188	86.3143	117.188	89.8693	117.188	86.2304	117.188	89.936	117.188	86.1954	117.188	89.8953	117.188	86.2102	117.188	89.6839	117.188	86.2743	117.188	89.3637	117.188	86.3857	117.188	89.0268	117.188	86.5411	117.188	88.7072	117.188	86.7361	117.188	88.3999	117.188	86.9654	117.188	88.0961	117.188	87.2228	117.188	87.7951	117.188	87.5017
120.117	88.3263	120.117	87.9967	120.117	88.65	120.117	87.6719	120.117	88.9554	120.117	87.3605	120.117	89.2283	120.117	87.0701	120.117	89.4539	120.117	86.8071	120.117	89.6204	120.117	86.5773	120.117	89.7255	120.117	86.3857	120.117	89.785	120.117	86.2368	120.117	89.8286	120.117	86.1341	120.117	89.8479	120.117	86.0802	120.117	89.7576	120.117	86.0762	120.117	89.503	120.117	86.1221	120.117	89.1511	120.117	86.2161	120.117	88.7936	120.117	86.3551	120.117	88.4623	120.117	86.5349	120.117	88.1499	120.117	86.7502	120.117	87.8463	120.117	86.9954	120.117	87.5498	120.117	87.2641
125.977	88.2312	125.977	87.8979	125.977	88.56	125.977	87.5711	125.977	88.8715	125.977	87.2599	125.977	89.151	125.977	86.9718	125.977	89.383	125.977	86.7136	125.977	89.5549	125.977	86.4908	125.977	89.663	125.977	86.3084	125.977	89.721	125.977	86.1704	125.977	89.7551	125.977	86.0797	125.977	89.7524	125.977	86.0384	125.977	89.627	125.977	86.0468	125.977	89.3367	125.977	86.1038	125.977	88.9672	125.977	86.2067	125.977	88.6172	125.977	86.3513	125.977	88.311	125.977	86.5322	125.977	88.0309	125.977	86.7433	125.977	87.7599	125.977	86.9781	125.977	87.4922	125.977	87.2299
128.906	88.0853	128.906	87.7425	128.906	88.424	128.906	87.4071	128.906	88.7456	128.906	87.0881	128.906	89.0347	128.906	86.7934	128.906	89.2755	128.906	86.5298	128.906	89.4543	128.906	86.3027	128.906	89.5662	128.906	86.1172	128.906	89.6233	128.906	85.9772	128.906	89.651	128.906	85.8857	128.906	89.6357	128.906	85.8443	128.906	89.489	128.906	85.8532	128.906	89.1695	128.906	85.911	128.906	88.7712	128.906	86.0145	128.906	88.4014	128.906	86.159	128.906	88.0868	128.906	86.3387	128.906	87.8068	128.906	86.5472	128.906	87.5404	128.906	86.7777	128.906	87.2793	128.906	87.0237
134.766	87.888	134.766	87.5624	134.766	88.2106	134.766	87.2445	134.766	88.5178	134.766	86.9435	134.766	88.7955	134.766	86.6669	134.766	89.0297	134.766	86.4212	134.766	89.2094	134.766	86.212	134.766	89.3331	134.766	86.0442	134.766	89.4172	134.766	85.9219	134.766	89.49	134.766	85.848	134.766	89.5329	134.766	85.8241	134.766	89.4377	134.766	85.8502	134.766	89.1449	134.766	85.9242	134.766	88.7522	134.766	86.0421	134.766	88.383	134.766	86.1983	134.766	88.0742	134.766	86.3861	134.766	87.8063	134.766	86.5979	134.766	87.5553	134.766	86.8265	134.766	87.3091	134.766	87.0653
137.695	87.7096	137.695	87.3929	137.695	88.022	137.695	87.0826	137.695	88.3178	137.695	86.7875	137.695	88.5838	137.695	86.5156	137.695	88.8075	137.695	86.2735	137.695	88.9808	137.695	86.0671	137.695	89.1061	137.695	85.9016	137.695	89.2046	137.695	85.7813	137.695	89.3061	137.695	85.7095	137.695	89.3864	137.695	85.6879	137.695	89.3257	137.695	85.7166	137.695	89.055	137.695	85.7933	137.695	88.6697	137.695	85.9141	137.695	88.2967	137.695	86.0729	137.695	87.9789	137.695	86.2628	137.695	87.7016	137.695	86.4762	137.695	87.4435	137.695	86.7062	137.695	87.1929	137.695	86.9466
143.555	87.4297	143.555	87.1198	143.555	87.732	143.555	86.8134	143.555	88.0147	143.555	86.52	143.555	88.2648	143.555	86.2479	143.555	88.4719	143.555	86.0043	143.555	88.6317	143.555	85.7958	143.555	88.7528	143.555	85.628	143.555	88.8611	143.555	85.5057	143.555	88.9838	143.555	85.4326	143.555	89.0831	143.555	85.4105	143.555	89.0278	143.555	85.4392	143.555	88.7484	143.555	85.5157	143.555	88.3449	143.555	85.6351	143.555	87.9507	143.555	85.7902	143.555	87.6163	143.555	85.9731	143.555	87.3329	143.555	86.1756	143.555	87.0799	143.555	86.3908	143.555	86.8427	143.555	86.6137
149.414	87.0598	149.414	86.7458	149.414	87.3596	149.414	86.4305	149.414	87.6307	149.414	86.1251	149.414	87.8586	149.414	85.8394	149.414	88.0313	149.414	85.5822	149.414	88.145	149.414	85.3612	149.414	88.2111	149.414	85.1832	149.414	88.2612	149.414	85.0541	149.414	88.3292	149.414	84.9777	149.414	88.3847	149.414	84.9557	149.414	88.3009	149.414	84.9868	149.414	88.0094	149.414	85.0665	149.414	87.6097	149.414	85.1875	149.414	87.2323	149.414	85.3403	149.414	86.9242	149.414	85.5144	149.414	86.6751	149.414	85.7002	149.414	86.4626	149.414	85.8898	149.414	86.2679	149.414	86.079
155.273	87.2602	155.273	86.9486	155.273	87.5456	155.273	86.6245	155.273	87.7897	155.273	86.2998	155.273	87.9767	155.273	85.9851	155.273	88.0931	155.273	85.6905	155.273	88.1337	155.273	85.4254	155.273	88.1098	155.273	85.1994	155.273	88.0576	155.273	85.0209	155.273	88.0248	155.273	84.8972	155.273	87.9959	155.273	84.8329	155.273	87.8417	155.273	84.8286	155.273	87.4839	155.273	84.8803	155.273	87.0337	155.273	84.9797	155.273	86.6409	155.273	85.1145	155.273	86.3563	155.273	85.2707	155.273	86.1585	155.273	85.4342	155.273	86.0092	155.273	85.5933	155.273	85.8766	155.273	85.7409
158.203	87.4772	158.203	87.1666	158.203	87.7588	158.203	86.8407	158.203	87.996	158.203	86.5119	158.203	88.1733	158.203	86.1911	158.203	88.2782	158.203	85.8887	158.203	88.3075	158.203	85.6147	158.203	88.2767	158.203	85.3789	158.203	88.2265	158.203	85.1905	158.203	88.2067	158.203	85.0573	158.203	88.1981	158.203	84.9845	158.203	88.0646	158.203	84.9735	158.203	87.7213	158.203	85.021	158.203	87.2736	158.203	85.1186	158.203	86.8713	158.203	85.2542	158.203	86.571	158.203	85.4135	158.203	86.3569	158.203	85.5821	158.203	86.1933	158.203	85.7479	158.203	86.049	158.203	85.9036
164.062	87.7331	164.062	87.3947	164.062	88.0367	164.062	87.0367	164.062	88.2891	164.062	86.6724	164.062	88.4731	164.062	86.314	164.062	88.5746	164.062	85.9729	164.062	88.589	164.062	85.6601	164.062	88.5298	164.062	85.3865	164.062	88.4353	164.062	85.1623	164.062	88.3521	164.062	84.9963	164.062	88.2666	164.062	84.8943	164.062	88.062	164.062	84.858	164.062	87.6685	164.062	84.8836	164.062	87.1817	164.062	84.9618	164.062	86.732	164.062	85.0789	164.062	86.3768	164.062	85.2193	164.062	86.1171	164.062	85.3677	164.062	85.9294	164.062	85.5125	164.062	85.7824	164.062	85.649
169.922	87.7805	169.922	87.4422	169.922	88.0858	169.922	87.0846	169.922	88.3438	169.922	86.7204	169.922	88.5406	169.922	86.362	169.922	88.6658	169.922	86.0215	169.922	88.7161	169.922	85.7112	169.922	88.6999	169.922	85.4436	169.922	88.6376	169.922	85.2306	169.922	88.5492	169.922	85.0827	169.922	88.4047	169.922	85.0066	169.922	88.0982	169.922	85.0037	169.922	87.5932	169.922	85.0683	169.922	87.0299	169.922	85.1879	169.922	86.5733	169.922	85.3442	169.922	86.2829	169.922	85.5159	169.922	86.1308	169.922	85.6817	169.922	86.0565	169.922	85.8235	169.922	86.0024	169.922	85.9303
175.781	87.5977	175.781	87.2521	175.781	87.9041	175.781	86.8811	175.781	88.1581	175.781	86.4988	175.781	88.3504	175.781	86.1194	175.781	88.4786	175.781	85.7572	175.781	88.5533	175.781	85.4273	175.781	88.5999	175.781	85.145	175.781	88.6509	175.781	84.9258	175.781	88.7212	175.781	84.7839	175.781	88.761	175.781	84.7296	175.781	88.6497	175.781	84.7666	175.781	88.3411	175.781	84.8907	175.781	87.9461	175.781	85.0887	175.781	87.5874	175.781	85.3409	175.781	87.3034	175.781	85.624	175.781	87.0775	175.781	85.9149	175.781	86.8774	175.781	86.1941	175.781	86.6741	175.781	86.4486
181.641	87.015	181.641	86.6249	181.641	87.3627	181.641	86.2068	181.641	87.6555	181.641	85.7758	181.641	87.886	181.641	85.3469	181.641	88.0564	181.641	84.9358	181.641	88.184	181.641	84.5587	181.641	88.3003	181.641	84.2326	181.641	88.4356	181.641	83.9748	181.641	88.5892	181.641	83.8015	181.641	88.702	181.641	83.7253	181.641	88.6711	181.641	83.7519	181.641	88.4549	181.641	83.8777	181.641	88.1126	181.641	84.0896	181.641	87.7093	181.641	84.3676	181.641	87.2828	181.641	84.6889	181.641	86.8623	181.641	85.0326	181.641	86.4657	181.641	85.3839	181.641	86.0937	181.641	85.7365
190.43	86.9693	190.43	86.6067	190.43	87.2614	190.43	86.1872	190.43	87.4737	190.43	85.7265	190.43	87.6059	190.43	85.2409	190.43	87.6731	190.43	84.7477	190.43	87.7089	190.43	84.2658	190.43	87.7532	190.43	83.8159	190.43	87.8209	190.43	83.4209	190.43	87.8853	190.43	83.1038	190.43	87.8988	190.43	82.8847	190.43	87.8008	190.43	82.7754	190.43	87.553	190.43	82.7749	190.43	87.1555	190.43	82.8681	190.43	86.6051	190.43	83.0293	190.43	85.9421	190.43	83.23	190.43	85.2708	190.43	83.4482	190.43	84.6949	190.43	83.6774	190.43	84.2565	190.43	83.9336
196.289	87.6341	196.289	87.2644	196.289	87.9132	196.289	86.8186	196.289	88.0936	196.289	86.3146	196.289	88.1806	196.289	85.7715	196.289	88.2001	196.289	85.2101	196.289	88.1992	196.289	84.6526	196.289	88.2243	196.289	84.1242	196.289	88.2796	196.289	83.653	196.289	88.3212	196.289	83.2693	196.289	88.2977	196.289	83.0013	196.289	88.1426	196.289	82.8675	196.289	87.8037	196.289	82.8692	196.289	87.2691	196.289	82.9861	196.289	86.546	196.289	83.1806	196.289	85.7302	196.289	83.4076	196.289	84.9974	196.289	83.6265	196.289	84.4774	196.289	83.8143	196.289	84.1682	196.289	83.9781
202.148	88.8322	202.148	88.2714	202.148	89.2253	202.148	87.5746	202.148	89.4219	202.148	86.7761	202.148	89.397	202.148	85.9124	202.148	89.1315	202.148	85.0231	202.148	88.6164	202.148	84.1518	202.148	87.8608	202.148	83.3456	202.148	86.9084	202.148	82.6537	202.148	85.8668	202.148	82.1222	202.148	84.9338	202.148	81.7853	202.148	84.338	202.148	81.6565	202.148	84.1544	202.148	81.7239	202.148	84.2345	202.148	81.9535	202.148	84.3767	202.148	82.2983	202.148	84.4643	202.148	82.7078	202.148	84.4597	202.148	83.1346	202.148	84.3592	202.148	83.5387	202.148	84.167	202.148	83.8897
210.938	87.8827	210.938	87.2814	210.938	88.306	210.938	86.5401	210.938	88.5176	210.938	85.6994	210.938	88.4886	210.938	84.8028	210.938	88.1976	210.938	83.8953	210.938	87.6348	210.938	83.0232	210.938	86.8106	210.938	82.2323	210.938	85.7763	210.938	81.5665	210.938	84.665	210.938	81.0641	210.938	83.7383	210.938	80.7531	210.938	83.3021	210.938	80.6461	210.938	83.4118	210.938	80.7367	210.938	83.7955	210.938	81.0003	210.938	84.157	210.938	81.3986	210.938	84.3516	210.938	81.8865	210.938	84.3508	210.938	82.4177	210.938	84.1759	210.938	82.9488	210.938	83.8614	210.938	83.4414
216.797	87.6393	216.797	87.0164	216.797	88.0791	216.797	86.2509	216.797	88.2995	216.797	85.386	216.797	88.2708	216.797	84.4658	216.797	87.9719	216.797	83.5335	216.797	87.3931	216.797	82.6308	216.797	86.5419	216.797	81.7981	216.797	85.4531	216.797	81.0747	216.797	84.2165	216.797	80.4975	216.797	83.0236	216.797	80.0979	216.797	82.1702	216.797	79.8959	216.797	81.8647	216.797	79.894	216.797	82.0056	216.797	80.0742	216.797	82.3146	216.797	80.4002	216.797	82.582	216.797	80.8247	216.797	82.7136	216.797	81.296	216.797	82.6828	216.797	81.7629	216.797	82.4959	216.797	82.1774
225.586	88.2181	225.586	87.5171	225.586	88.7034	225.586	86.6532	225.586	88.9267	225.586	85.6848	225.586	88.8493	225.586	84.673	225.586	88.4432	225.586	83.6788	225.586	87.6979	225.586	82.7575	225.586	86.6359	225.586	81.9547	225.586	85.3452	225.586	81.3042	225.586	84.0319	225.586	80.8273	225.586	83.0312	225.586	80.5358	225.586	82.6161	225.586	80.4324	225.586	82.7217	225.586	80.5109	225.586	83.0564	225.586	80.7541	225.586	83.3879	225.586	81.1316	225.586	83.6073	225.586	81.6006	225.586	83.6792	225.586	82.1097	225.586	83.6011	225.586	82.6064	225.586	83.3834	225.586	83.0432
234.375	88.1962	234.375	87.455	234.375	88.7021	234.375	86.5326	234.375	88.9259	234.375	85.4907	234.375	88.828	234.375	84.3995	234.375	88.3786	234.375	83.3362	234.375	87.5634	234.375	82.38	234.375	86.3962	234.375	81.6017	234.375	84.9452	234.375	81.0505	234.375	83.3821	234.375	80.7438	234.375	82.0374	234.375	80.6661	234.375	81.3108	234.375	80.7789	234.375	81.3209	234.375	81.0327	234.375	81.789	234.375	81.3775	234.375	82.3729	234.375	81.7675	234.375	82.8681	234.375	82.1644	234.375	83.1889	234.375	82.5379	234.375	83.3206	234.375	82.8647	234.375	83.2863	234.375	83.1229
240.234	88.1846	240.234	87.4529	240.234	88.6764	240.234	86.5371	240.234	88.879	240.234	85.4977	240.234	88.7503	240.234	84.4002	240.234	88.2605	240.234	83.3141	240.234	87.3993	240.234	82.312	240.234	86.1919	240.234	81.4652	240.234	84.7226	240.234	80.8367	240.234	83.1619	240.234	80.4679	240.234	81.7656	240.234	80.3672	240.234	80.79	240.234	80.5065	240.234	80.351	240.234	80.8286	240.234	80.3876	240.234	81.2619	240.234	80.7492	240.234	81.732	240.234	81.2732	240.234	82.17	240.234	81.82	240.234	82.5162	240.234	82.2877	240.234	82.7235	240.234	82.612	240.234	82.7599
249.023	87.8913	249.023	87.1986	249.023	88.3276	249.023	86.31	249.023	88.4537	249.023	85.291	249.023	88.2236	249.023	84.2117	249.023	87.604	249.023	83.1443	249.023	86.5863	249.023	82.1613	249.023	85.2139	249.023	81.3326	249.023	83.6357	249.023	80.7214	249.023	82.167	249.023	80.376	249.023	81.221	249.023	80.3171	249.023	80.9728	249.023	80.5255	249.023	81.1885	249.023	80.9431	249.023	81.5553	249.023	81.487	249.023	81.9353	249.023	82.0687	249.023	82.3213	249.023	82.6088	249.023	82.716	249.023	83.0427	249.023	83.0756	249.023	83.3227	249.023	83.3294	249.023	83.4201
257.812	88.7051	257.812	88.0071	257.812	89.0989	257.812	87.0729	257.812	89.1226	257.812	85.973	257.812	88.7126	257.812	84.7805	257.812	87.8126	257.812	83.5711	257.812	86.3885	257.812	82.4211	257.812	84.4766	257.812	81.4043	257.812	82.3056	257.812	80.5854	257.812	80.4698	257.812	80.0137	257.812	79.6663	257.812	79.7181	257.812	79.8491	257.812	79.706	257.812	80.4664	257.812	79.9621	257.812	81.1882	257.812	80.4436	257.812	81.8917	257.812	81.0775	257.812	82.5084	257.812	81.7687	257.812	82.9879	257.812	82.418	257.812	83.2924	257.812	82.9399	257.812	83.3937	257.812	83.2752
266.602	89.1527	266.602	88.407	266.602	89.6325	266.602	87.4598	266.602	89.7839	266.602	86.3773	266.602	89.5458	266.602	85.2257	266.602	88.8579	266.602	84.0689	266.602	87.6642	266.602	82.9671	266.602	85.9268	266.602	81.9788	266.602	83.6758	266.602	81.1638	266.602	81.1675	266.602	80.5819	266.602	79.1783	266.602	80.2802	266.602	78.6059	266.602	80.2731	266.602	79.1308	266.602	80.5296	266.602	79.9404	266.602	80.9814	266.602	80.7359	266.602	81.5424	266.602	81.4914	266.602	82.1231	266.602	82.1823	266.602	82.6375	266.602	82.7367	266.602	83.0072	266.602	83.0788	266.602	83.1677
278.32	88.2371	278.32	87.6299	278.32	88.6158	278.32	86.8575	278.32	88.6994	278.32	85.9783	278.32	88.4208	278.32	85.0432	278.32	87.7166	278.32	84.0947	278.32	86.5374	278.32	83.1677	278.32	84.8746	278.32	82.2926	278.32	82.8298	278.32	81.5022	278.32	80.7515	278.32	80.8397	278.32	79.2983	278.32	80.363	278.32	78.9537	278.32	80.1363	278.32	79.4732	278.32	80.2023	278.32	80.3478	278.32	80.5469	278.32	81.2592	278.32	81.0909	278.32	82.0548	278.32	81.7183	278.32	82.6606	278.32	82.3162	278.32	83.0421	278.32	82.7964	278.32	83.187	278.32	83.0989
287.109	88.8563	287.109	88.3635	287.109	89.1611	287.109	87.7264	287.109	89.2234	287.109	86.9832	287.109	88.9738	287.109	86.1702	287.109	88.33	287.109	85.3229	287.109	87.2094	287.109	84.4766	287.109	85.5642	287.109	83.6658	287.109	83.4779	287.109	82.9241	287.109	81.3745	287.109	82.2821	287.109	80.0809	287.109	81.7634	287.109	79.9691	287.109	81.3825	287.109	80.4874	287.109	81.1488	287.109	81.1422	287.109	81.0755	287.109	81.7996	287.109	81.1812	287.109	82.4155	287.109	81.4721	287.109	82.9006	287.109	81.9136	287.109	83.1566	287.109	82.4176	287.109	83.137	287.109	82.8639
295.898	88.3453	295.898	87.8922	295.898	88.5232	295.898	87.2362	295.898	88.3608	295.898	86.452	295.898	87.8075	295.898	85.6118	295.898	86.8381	295.898	84.7805	295.898	85.4722	295.898	84.0111	295.898	83.8055	295.898	83.3421	295.898	82.0515	295.898	82.7991	295.898	80.5645	295.898	82.399	295.898	79.7118	295.898	82.1526	295.898	79.5424	295.898	82.062	295.898	79.7359	295.898	82.1152	295.898	80.0159	295.898	82.2855	295.898	80.3736	295.898	82.5364	295.898	80.9132	295.898	82.8241	295.898	81.6252	295.898	83.0896	295.898	82.3524	295.898	83.2511	295.898	82.9158	295.898	83.2158
307.617	89.202	307.617	88.8511	307.617	89.3343	307.617	88.275	307.617	89.2617	307.617	87.4925	307.617	88.9661	307.617	86.5491	307.617	88.3643	307.617	85.5108	307.617	87.3094	307.617	84.4546	307.617	85.6368	307.617	83.4588	307.617	83.2564	307.617	82.592	307.617	80.4063	307.617	81.9018	307.617	78.1797	307.617	81.4106	307.617	77.7552	307.617	81.1229	307.617	78.4024	307.617	81.0379	307.617	79.2053	307.617	81.1489	307.617	79.964	307.617	81.4223	307.617	80.6628	307.617	81.7791	307.617	81.2788	307.617	82.11	307.617	81.7833	307.617	82.3138	307.617	82.1451	307.617	82.3296
319.336	88.4561	319.336	88.1467	319.336	88.4532	319.336	87.5806	319.336	88.1084	319.336	86.8281	319.336	87.4304	319.336	85.9633	319.336	86.4681	319.336	85.0552	319.336	85.288	319.336	84.1631	319.336	83.934	319.336	83.3338	319.336	82.4333	319.336	82.6033	319.336	80.9122	319.336	81.9989	319.336	79.6864	319.336	81.5392	319.336	78.9743	319.336	81.2329	319.336	78.561	319.336	81.0774	319.336	78.2408	319.336	81.0671	319.336	78.2752	319.336	81.2072	319.336	79.0195	319.336	81.5044	319.336	80.2615	319.336	81.9171	319.336	81.4473	319.336	82.3078	319.336	82.2136	319.336	82.47
331.055	88.6189	331.055	88.406	331.055	88.4925	331.055	87.8945	331.055	88.0283	331.055	87.1545	331.055	87.2736	331.055	86.2706	331.055	86.297	331.055	85.3278	331.055	85.1325	331.055	84.4006	331.055	83.7534	331.055	83.5473	331.055	82.1539	331.055	82.8126	331.055	80.5091	331.055	82.2332	331.055	79.1812	331.055	81.8406	331.055	78.3621	331.055	81.6522	331.055	77.9339	331.055	81.6549	331.055	77.8833	331.055	81.7944	331.055	78.338	331.055	81.9874	331.055	79.2214	331.055	82.1525	331.055	80.2449	331.055	82.2382	331.055	81.1312	331.055	82.2225	331.055	81.7405	331.055	82.0783
342.773	88.7035	342.773	88.4376	342.773	88.6071	342.773	87.8643	342.773	88.1335	342.773	87.062	342.773	87.32	342.773	86.1169	342.773	86.2457	342.773	85.1108	342.773	84.982	342.773	84.1136	342.773	83.5504	342.773	83.1836	342.773	81.9998	342.773	82.3733	342.773	80.5858	342.773	81.7339	342.773	79.6957	342.773	81.3133	342.773	79.337	342.773	81.1478	342.773	79.1472	342.773	81.2534	342.773	78.9861	342.773	81.6132	342.773	79.082	342.773	82.1609	342.773	79.7023	342.773	82.7746	342.773	80.7818	342.773	83.2962	342.773	81.9673	342.773	83.5678	342.773	82.9205	342.773	83.4643
354.492	89.0012	354.492	88.6725	354.492	89.0502	354.492	88.1031	354.492	88.7796	354.492	87.3336	354.492	88.1458	354.492	86.4076	354.492	87.1079	354.492	85.3699	354.492	85.6528	354.492	84.2643	354.492	83.8467	354.492	83.1322	354.492	81.9065	354.492	82.0152	354.492	80.2123	354.492	80.9675	354.492	79.1305	354.492	80.0753	354.492	78.7439	354.492	79.4608	354.492	78.8618	354.492	79.2234	354.492	79.3281	354.492	79.3549	354.492	80.1466	354.492	79.7637	354.492	81.2182	354.492	80.3881	354.492	82.2353	354.492	81.1982	354.492	82.9102	354.492	82.0739	354.492	83.0969	354.492	82.7809
366.211	88.7704	366.211	88.7072	366.211	88.5989	366.211	88.3404	366.211	88.359	366.211	87.6987	366.211	88.1755	366.211	86.8651	366.211	87.9304	366.211	85.9371	366.211	87.2961	366.211	84.998	366.211	85.9527	366.211	84.1023	366.211	83.7628	366.211	83.2792	366.211	81.0946	366.211	82.5475	366.211	79.3342	366.211	81.9276	366.211	79.2339	366.211	81.4369	366.211	79.5595	366.211	81.068	366.211	79.6813	366.211	80.7764	366.211	79.8003	366.211	80.5099	366.211	80.1673	366.211	80.2791	366.211	80.7057	366.211	80.2066	366.211	81.1112	366.211	80.4239	366.211	81.1527	366.211	80.8408
377.93	89.0486	377.93	88.7847	377.93	88.8391	377.93	88.1304	377.93	88.1914	377.93	87.2175	377.93	87.3516	377.93	86.1807	377.93	86.7088	377.93	85.122	377.93	86.337	377.93	84.0897	377.93	85.8119	377.93	83.0864	377.93	84.7085	377.93	82.1023	377.93	82.9731	377.93	81.158	377.93	81.1041	377.93	80.3431	377.93	79.9959	377.93	79.8232	377.93	79.7845	377.93	79.746	377.93	79.8182	377.93	80.0675	377.93	79.8049	377.93	80.5299	377.93	79.8145	377.93	80.8427	377.93	79.8743	377.93	80.8386	377.93	79.908	377.93	80.5397	377.93	79.9497	377.93	80.1615
392.578	87.9003	392.578	87.735	392.578	87.7771	392.578	87.2994	392.578	87.4549	392.578	86.6762	392.578	87.1077	392.578	85.9648	392.578	86.8284	392.578	85.2432	392.578	86.4759	392.578	84.5483	392.578	85.7939	392.578	83.877	392.578	84.6597	392.578	83.2033	392.578	83.2553	392.578	82.4979	392.578	82.0673	392.578	81.748	392.578	81.4173	392.578	80.979	392.578	81.0314	392.578	80.2873	392.578	80.5281	392.578	79.8544	392.578	79.8819	392.578	79.8551	392.578	79.3659	392.578	80.2553	392.578	79.3099	392.578	80.7758	392.578	79.7958	392.578	81.0942	392.578	80.504	392.578	81.0096
407.227	88.4061	407.227	88.4295	407.227	87.7977	407.227	87.9248	407.227	86.8251	407.227	87.0601	407.227	86.1346	407.227	86.0409	407.227	86.1405	407.227	85.0587	407.227	86.234	407.227	84.2386	407.227	85.67	407.227	83.6079	407.227	84.2565	407.227	83.1114	407.227	82.4916	407.227	82.6634	407.227	81.4876	407.227	82.1997	407.227	81.3527	407.227	81.7024	407.227	80.923	407.227	81.1861	407.227	79.5781	407.227	80.6645	407.227	77.7353	407.227	80.1746	407.227	77.0545	407.227	79.9245	407.227	78.5273	407.227	80.2882	407.227	80.553	407.227	81.1899	407.227	81.7801	407.227	81.907
421.875	89.3191	421.875	88.5459	421.875	89.393	421.875	87.3614	421.875	88.5354	421.875	86.0855	421.875	86.656	421.875	84.9785	421.875	84.38	421.875	84.1325	421.875	83.7385	421.875	83.4912	421.875	84.5677	421.875	82.9619	421.875	84.7605	421.875	82.4734	421.875	83.7325	421.875	81.9702	421.875	81.869	421.875	81.4239	421.875	80.1881	421.875	80.8847	421.875	79.2718	421.875	80.4939	421.875	78.8562	421.875	80.2949	421.875	79.1016	421.875	79.9597	421.875	79.7918	421.875	78.8347	421.875	80.327	421.875	76.2187	421.875	80.2426	421.875	73.236	421.875	78.9058	421.875	75.7387
436.523	87.7112	436.523	86.8443	436.523	88.3646	436.523	85.9273	436.523	88.5944	436.523	85.0238	436.523	88.2038	436.523	84.1338	436.523	87.0242	436.523	83.2831	436.523	84.9248	436.523	82.5596	436.523	81.9951	436.523	82.0571	436.523	79.4238	436.523	81.7852	436.523	79.2803	436.523	81.6504	436.523	80.4116	436.523	81.529	436.523	81.3703	436.523	81.3628	436.523	82.0857	436.523	81.2366	436.523	82.568	436.523	81.3752	436.523	82.5524	436.523	81.8987	436.523	81.6938	436.523	82.5219	436.523	79.6953	436.523	82.6977	436.523	76.8196	436.523	81.9073	436.523	76.6988	436.523	79.7554
451.172	88.3483	451.172	87.8751	451.172	88.6668	451.172	87.2521	451.172	88.8032	451.172	86.4609	451.172	88.7091	451.172	85.4815	451.172	88.29	451.172	84.327	451.172	87.3752	451.172	83.0798	451.172	85.7289	451.172	81.912	451.172	83.1207	451.172	81.0331	451.172	79.6407	451.172	80.524	451.172	77.1802	451.172	80.2378	451.172	78.2319	451.172	79.9626	451.172	80.1903	451.172	79.704	451.172	81.3311	451.172	79.8553	451.172	81.3565	451.172	80.7898	451.172	80.2845	451.172	82.1063	451.172	78.6413	451.172	83.0412	451.172	78.2522	451.172	83.1038	451.172	80.0811	451.172	82.0804
465.82	89.2164	465.82	88.792	465.82	89.361	465.82	88.134	465.82	89.2891	465.82	87.3143	465.82	89.1628	465.82	86.3796	465.82	89.0207	465.82	85.3574	465.82	88.5988	465.82	84.2826	465.82	87.497	465.82	83.2104	465.82	85.3969	465.82	82.2095	465.82	82.2004	465.82	81.3392	465.82	78.7854	465.82	80.6089	465.82	78.0667	465.82	79.9443	465.82	79.4019	465.82	79.2121	465.82	80.3	465.82	78.3881	465.82	80.3663	465.82	77.9249	465.82	79.7391	465.82	78.6278	465.82	78.9968	465.82	80.1512	465.82	79.3838	465.82	81.3309	465.82	80.7004	465.82	81.5412
483.398	88.368	483.398	88.0816	483.398	88.2729	483.398	87.4541	483.398	87.9189	483.398	86.6017	483.398	87.5978	483.398	85.6478	483.398	87.4899	483.398	84.6837	483.398	87.3503	483.398	83.765	483.398	86.7332	483.398	82.9352	483.398	85.3705	483.398	82.2534	483.398	83.3952	483.398	81.7831	483.398	81.6735	483.398	81.529	483.398	81.1868	483.398	81.3881	483.398	81.0974	483.398	81.1909	483.398	80.2059	483.398	80.7951	483.398	78.4416	483.398	80.1778	483.398	76.5538	483.398	79.5873	483.398	76.7624	483.398	79.6422	483.398	79.3669	483.398	80.5533	483.398	81.1713	483.398	81.4039
500.977	88.1258	500.977	87.5557	500.977	88.5769	500.977	87.0499	500.977	88.5925	500.977	86.4678	500.977	88.1179	500.977	85.6021	500.977	87.5018	500.977	84.4111	500.977	87.0758	500.977	83.0329	500.977	86.5225	500.977	81.7221	500.977	85.2196	500.977	80.73	500.977	82.8921	500.977	80.1426	500.977	80.3016	500.977	79.8514	500.977	79.5226	500.977	79.7261	500.977	79.9097	500.977	79.7581	500.977	79.5914	500.977	80.0081	500.977	78.4333	500.977	80.4143	500.977	77.2611	500.977	80.6944	500.977	76.8365	500.977	80.4636	500.977	76.7572	500.977	79.4505	500.977	76.8302	500.977	77.8764
518.555	88.2662	518.555	88.1362	518.555	87.9368	518.555	87.6064	518.555	87.2112	518.555	86.7698	518.555	86.4196	518.555	85.725	518.555	86.0207	518.555	84.5593	518.555	85.9431	518.555	83.336	518.555	85.5902	518.555	82.1096	518.555	84.5143	518.555	80.9839	518.555	82.6236	518.555	80.1443	518.555	80.3456	518.555	79.7264	518.555	79.0402	518.555	79.6123	518.555	79.0226	518.555	79.5185	518.555	78.3263	518.555	79.2727	518.555	76.034	518.555	78.9477	518.555	74.3811	518.555	78.8153	518.555	76.0403	518.555	79.1273	518.555	78.2669	518.555	79.766	518.555	79.7341	518.555	80.1653
536.133	88.631	536.133	88.1515	536.133	89.1185	536.133	87.6362	536.133	89.2902	536.133	86.8706	536.133	88.7828	536.133	85.7808	536.133	87.5953	536.133	84.4636	536.133	86.2491	536.133	83.0916	536.133	85.2008	536.133	81.8342	536.133	83.9724	536.133	80.8273	536.133	81.9657	536.133	80.1489	536.133	79.775	536.133	79.7636	536.133	79.2393	536.133	79.5108	536.133	79.9682	536.133	79.229	536.133	80.7406	536.133	78.9814	536.133	81.5901	536.133	79.1388	536.133	82.3718	536.133	79.8105	536.133	82.5889	536.133	80.4087	536.133	82.05	536.133	80.467	536.133	81.0409	536.133	80.4002
553.711	88.7317	553.711	88.5587	553.711	88.8392	553.711	88.0382	553.711	89.1584	553.711	87.1288	553.711	89.5282	553.711	85.9595	553.711	89.5068	553.711	84.6932	553.711	88.776	553.711	83.4171	553.711	87.1874	553.711	82.1124	553.711	84.6999	553.711	80.7295	553.711	81.6085	553.711	79.3329	553.711	79.388	553.711	78.2603	553.711	79.5154	553.711	77.9766	553.711	80.6336	553.711	78.3641	553.711	81.6142	553.711	78.7021	553.711	82.0645	553.711	78.5159	553.711	81.5083	553.711	78.1756	553.711	79.6514	553.711	78.6627	553.711	77.4018	553.711	79.4715	553.711	77.6727	553.711	79.1944
574.219	89.132	574.219	88.6559	574.219	89.1532	574.219	87.8698	574.219	88.7356	574.219	86.9262	574.219	88.2691	574.219	85.9086	574.219	88.2931	574.219	84.8426	574.219	88.5256	574.219	83.7652	574.219	88.031	574.219	82.7529	574.219	86.0581	574.219	81.8635	574.219	82.2319	574.219	81.0607	574.219	79.1731	574.219	80.2264	574.219	80.745	574.219	79.2831	574.219	81.4496	574.219	78.4279	574.219	80.2907	574.219	78.2284	574.219	78.5114	574.219	78.747	574.219	77.2621	574.219	79.0831	574.219	77.8857	574.219	78.7692	574.219	80.1075	574.219	78.8602	574.219	81.0515	574.219	80.2046
594.727	88.8014	594.727	88.7287	594.727	88.7933	594.727	88.2557	594.727	88.6633	594.727	87.1889	594.727	88.1232	594.727	85.6548	594.727	87.3477	594.727	84.0123	594.727	86.9072	594.727	82.6514	594.727	86.4794	594.727	81.7472	594.727	84.8632	594.727	81.1824	594.727	80.6571	594.727	80.7122	594.727	72.0908	594.727	80.1717	594.727	75.6335	594.727	79.5961	594.727	78.7285	594.727	79.2019	594.727	78.4345	594.727	79.0507	594.727	76.6418	594.727	78.8428	594.727	75.3208	594.727	78.5976	594.727	75.9303	594.727	79.028	594.727	77.0758	594.727	79.8521	594.727	78.5696	594.727	79.8084
615.234	88.555	615.234	88.1039	615.234	88.5537	615.234	87.2597	615.234	88.4601	615.234	86.3475	615.234	88.4858	615.234	85.5586	615.234	88.1781	615.234	84.8108	615.234	87.1389	615.234	83.9717	615.234	85.703	615.234	83.0513	615.234	84.452	615.234	82.2181	615.234	82.8747	615.234	81.6351	615.234	80.0678	615.234	81.2045	615.234	76.702	615.234	80.5825	615.234	76.9495	615.234	79.5214	615.234	78.8824	615.234	78.3539	615.234	78.8181	615.234	78.0475	615.234	76.8804	615.234	78.3521	615.234	75.3962	615.234	77.9229	615.234	75.7406	615.234	76.701	615.234	76.4093	615.234	76.2972
638.672	89.5634	638.672	88.8555	638.672	89.8513	638.672	87.9776	638.672	89.5382	638.672	87.0162	638.672	88.9269	638.672	85.9897	638.672	88.6424	638.672	84.9399	638.672	88.4572	638.672	83.8829	638.672	87.4484	638.672	82.7964	638.672	85.0647	638.672	81.7214	638.672	81.5372	638.672	80.8502	638.672	79.2	638.672	80.3819	638.672	79.9673	638.672	80.1713	638.672	81.2024	638.672	79.7441	638.672	81.664	638.672	78.8424	638.672	81.0698	638.672	78.2022	638.672	79.3636	638.672	78.7877	638.672	78.3723	638.672	79.4266	638.672	79.2222	638.672	79.3688	638.672	79.7875	638.672	79.5147
659.18	88.4957	659.18	88.5915	659.18	88.6504	659.18	88.173	659.18	88.9877	659.18	87.0498	659.18	88.6813	659.18	85.6281	659.18	87.9931	659.18	84.2989	659.18	88.0149	659.18	83.041	659.18	88.0836	659.18	81.7643	659.18	86.6904	659.18	80.633	659.18	82.8645	659.18	79.868	659.18	76.5152	659.18	79.4587	659.18	76.9903	659.18	79.2459	659.18	79.8252	659.18	79.1243	659.18	80.4885	659.18	79.0517	659.18	79.6681	659.18	78.9579	659.18	78.0875	659.18	78.7158	659.18	76.9403	659.18	78.4614	659.18	77.6848	659.18	78.8416	659.18	79.1912	659.18	79.5268
682.617	89.2391	682.617	89.0977	682.617	89.059	682.617	88.3112	682.617	89.1563	682.617	87.2453	682.617	89.0309	682.617	86.2791	682.617	87.8725	682.617	85.3057	682.617	86.2595	682.617	84.0876	682.617	86.0429	682.617	82.6649	682.617	86.1048	682.617	81.4162	682.617	84.1925	682.617	80.7788	682.617	78.6602	682.617	80.6538	682.617	71.8038	682.617	80.4371	682.617	76.6008	682.617	79.5938	682.617	76.4948	682.617	78.1025	682.617	73.4289	682.617	77.3708	682.617	72.8387	682.617	78.5881	682.617	76.124	682.617	79.6002	682.617	78.2126	682.617	79.0005	682.617	77.6406	682.617	77.3914
706.055	88.4292	706.055	88.4065	706.055	88.0484	706.055	88.0814	706.055	87.6081	706.055	87.4385	706.055	87.8107	706.055	86.4618	706.055	88.0578	706.055	85.2607	706.055	87.2736	706.055	83.8959	706.055	85.4186	706.055	82.3436	706.055	83.7724	706.055	80.7094	706.055	82.6361	706.055	79.3278	706.055	80.1335	706.055	78.498	706.055	77.0672	706.055	78.2706	706.055	78.2588	706.055	78.4369	706.055	79.7051	706.055	78.2771	706.055	79.2517	706.055	77.1228	706.055	77.6512	706.055	76.1455	706.055	77.211	706.055	77.095	706.055	77.6903	706.055	77.5855	706.055	77.2111	706.055	76.9671
732.422	88.2934	732.422	87.9297	732.422	88.3425	732.422	87.6395	732.422	88.0495	732.422	87.2968	732.422	88.1543	732.422	86.5864	732.422	88.7023	732.422	85.4818	732.422	88.7007	732.422	84.0755	732.422	87.5737	732.422	82.3204	732.422	85.4356	732.422	80.0378	732.422	82.9356	732.422	77.5288	732.422	80.8194	732.422	76.9169	732.422	79.4411	732.422	78.6078	732.422	79.1151	732.422	79.987	732.422	80.3856	732.422	79.9574	732.422	80.1358	732.422	78.1858	732.422	76.2005	732.422	76.2727	732.422	72.7786	732.422	77.4141	732.422	73.5542	732.422	77.541	732.422	74.9598	732.422	75.6611
758.789	88.2297	758.789	88.2581	758.789	87.8463	758.789	87.7438	758.789	87.569	758.789	87.1222	758.789	86.9641	758.789	86.5382	758.789	86.0416	758.789	85.7418	758.789	86.2784	758.789	84.6422	758.789	87.0384	758.789	83.3284	758.789	86.1921	758.789	81.8228	758.789	82.4595	758.789	79.9428	758.789	75.6886	758.789	77.3742	758.789	78.456	758.789	74.1531	758.789	80.345	758.789	72.8309	758.789	78.5803	758.789	74.9781	758.789	75.1041	758.789	76.9497	758.789	71.5892	758.789	77.9834	758.789	71.9505	758.789	78.4912	758.789	75.2314	758.789	78.5466	758.789	77.0658	758.789	78.0549
785.156	88.886	785.156	88.9692	785.156	88.3594	785.156	88.6783	785.156	88.0236	785.156	87.762	785.156	88.4009	785.156	86.2303	785.156	87.9841	785.156	84.8187	785.156	85.7067	785.156	84.0656	785.156	83.4486	785.156	83.5835	785.156	83.7506	785.156	83.0215	785.156	83.1888	785.156	82.4491	785.156	79.4273	785.156	81.7066	785.156	71.7598	785.156	80.1672	785.156	77.3941	785.156	77.7226	785.156	75.8514	785.156	76.7264	785.156	72.7916	785.156	76.7206	785.156	76.5404	785.156	73.3547	785.156	78.368	785.156	74.1383	785.156	77.0426	785.156	78.7329	785.156	74.6563	785.156	78.4708
811.523	88.008	811.523	88.4788	811.523	87.7817	811.523	88.4787	811.523	87.2479	811.523	87.5343	811.523	87.0636	811.523	86.4662	811.523	88.2015	811.523	85.9844	811.523	88.7454	811.523	85.5822	811.523	87.4748	811.523	84.7623	811.523	84.9247	811.523	83.593	811.523	83.1995	811.523	82.4211	811.523	81.2129	811.523	81.3577	811.523	76.075	811.523	80.1089	811.523	74.7091	811.523	78.6722	811.523	80.2103	811.523	77.7959	811.523	82.2306	811.523	77.9322	811.523	80.2651	811.523	78.4149	811.523	77.1348	811.523	77.4533	811.523	76.5597	811.523	75.6583	811.523	79.1422	811.523	78.4623
840.82	89.3765	840.82	89.6015	840.82	88.3862	840.82	88.8445	840.82	88.2658	840.82	88.3182	840.82	88.246	840.82	88.0254	840.82	87.6818	840.82	87.175	840.82	87.983	840.82	85.6753	840.82	88.463	840.82	83.8232	840.82	87.3018	840.82	82.0734	840.82	84.2126	840.82	81.2957	840.82	83.1235	840.82	81.7836	840.82	83.4613	840.82	82.1863	840.82	80.0195	840.82	81.4027	840.82	78.3255	840.82	79.3127	840.82	77.1614	840.82	77.7984	840.82	74.2153	840.82	78.8934	840.82	72.7063	840.82	79.565	840.82	70.5683	840.82	78.4555	840.82	72.9859	840.82	76.0526
870.117	88.8197	870.117	88.3042	870.117	88.6021	870.117	88.6929	870.117	87.787	870.117	89.8342	870.117	87.2343	870.117	89.8614	870.117	86.8721	870.117	88.3715	870.117	86.8291	870.117	85.951	870.117	87.6204	870.117	83.6264	870.117	88.0531	870.117	81.8384	870.117	86.9105	870.117	79.9253	870.117	84.1857	870.117	78.4421	870.117	81.3162	870.117	80.0408	870.117	79.5232	870.117	81.7521	870.117	75.3565	870.117	81.3385	870.117	69.8748	870.117	79.6224	870.117	73.998	870.117	78.5915	870.117	75.5725	870.117	77.5639	870.117	75.4036	870.117	78.7431	870.117	76.3929	870.117	79.3586
902.344	88.6582	902.344	89.5418	902.344	89.0962	902.344	90.2107	902.344	88.3938	902.344	89.5473	902.344	86.8686	902.344	88.5639	902.344	88.599	902.344	87.7931	902.344	90.0749	902.344	86.6826	902.344	88.8608	902.344	84.8749	902.344	85.6366	902.344	82.5062	902.344	82.3753	902.344	79.9607	902.344	80.6667	902.344	77.3023	902.344	83.6322	902.344	75.0624	902.344	83.0823	902.344	77.3389	902.344	80.6496	902.344	79.8664	902.344	81.6805	902.344	79.6697	902.344	81.6591	902.344	79.0919	902.344	77.425	902.344	78.9331	902.344	77.3034	902.344	75.8689	902.344	80.3079	902.344	78.5321
931.641	89.6801	931.641	90.035	931.641	89.7498	931.641	89.7773	931.641	89.8281	931.641	89.1188	931.641	88.4177	931.641	88.2945	931.641	87.6232	931.641	87.1161	931.641	89.3619	931.641	85.6694	931.641	89.7203	931.641	84.2791	931.641	87.8082	931.641	83.0157	931.641	83.9008	931.641	81.616	931.641	73.4236	931.641	79.937	931.641	80.3209	931.641	78.3814	931.641	81.1816	931.641	77.2985	931.641	75.5313	931.641	76.2208	931.641	76.7078	931.641	77.2026	931.641	77.8459	931.641	80.0647	931.641	76.0793	931.641	80.7744	931.641	76.138	931.641	79.1213	931.641	78.6539	931.641	78.9615
966.797	88.5448	966.797	89.2189	966.797	87.1078	966.797	89.3927	966.797	87.1834	966.797	89.7805	966.797	87.5448	966.797	88.9631	966.797	86.3905	966.797	86.5177	966.797	86.7321	966.797	84.186	966.797	88.4106	966.797	83.9174	966.797	88.0685	966.797	84.2425	966.797	86.1918	966.797	83.6632	966.797	83.2688	966.797	81.9926	966.797	63.3985	966.797	79.3007	966.797	78.2431	966.797	75.7668	966.797	73.7062	966.797	75.8846	966.797	79.7032	966.797	78.2123	966.797	78.5606	966.797	78.3994	966.797	73.945	966.797	77.8045	966.797	70.963	966.797	76.1055	966.797	72.9186	966.797	74.1164
999.023	88.9103	999.023	89.8023	999.023	89.1096	999.023	90.665	999.023	88.4452	999.023	89.892	999.023	87.2009	999.023	87.8737	999.023	87.9612	999.023	86.0292	999.023	89.4579	999.023	85.0994	999.023	89.3202	999.023	84.1316	999.023	87.2457	999.023	82.6703	999.023	84.165	999.023	82.0521	999.023	80.6211	999.023	82.2487	999.023	75.5474	999.023	81.2785	999.023	71.4077	999.023	78.8134	999.023	76.2117	999.023	77.085	999.023	80.6022	999.023	75.8315	999.023	78.9259	999.023	76.0487	999.023	74.3808	999.023	79.4572	999.023	75.9204	999.023	79.1138	999.023	77.5395	999.023	76.851
1,034.18	89.6477	1,034.18	90.4912	1,034.18	88.7	1,034.18	89.7049	1,034.18	89.7085	1,034.18	88.7668	1,034.18	89.6497	1,034.18	88.2851	1,034.18	87.7728	1,034.18	87.0938	1,034.18	87.5469	1,034.18	84.8509	1,034.18	89.0385	1,034.18	82.2808	1,034.18	87.8685	1,034.18	80.1862	1,034.18	83.1552	1,034.18	78.3668	1,034.18	81.1477	1,034.18	78.1093	1,034.18	84.2428	1,034.18	80.0489	1,034.18	82.2489	1,034.18	80.3853	1,034.18	75.2263	1,034.18	78.5112	1,034.18	69.0022	1,034.18	79.2848	1,034.18	72.123	1,034.18	80.1835	1,034.18	77.6984	1,034.18	78.0736	1,034.18	77.5183	1,034.18	80.4724	1,034.18	76.6118	1,034.18	80.6045
1,072.27	87.3678	1,072.27	88.6788	1,072.27	85.958	1,072.27	89.2966	1,072.27	86.9504	1,072.27	89.8	1,072.27	88.2582	1,072.27	89.2252	1,072.27	87.736	1,072.27	87.2108	1,072.27	87.6146	1,072.27	85.1205	1,072.27	88.8541	1,072.27	84.0606	1,072.27	89.015	1,072.27	82.9747	1,072.27	86.5913	1,072.27	80.4427	1,072.27	77.8923	1,072.27	75.9485	1,072.27	80.9017	1,072.27	74.2585	1,072.27	79.5202	1,072.27	77.8949	1,072.27	72.6695	1,072.27	78.6521	1,072.27	79.229	1,072.27	73.6329	1,072.27	80.9127	1,072.27	75.2688	1,072.27	72.6298	1,072.27	79.3193	1,072.27	63.034	1,072.27	76.2869	1,072.27	73.9481	1,072.27	74.9539
1,110.35	87.1551	1,110.35	89.0632	1,110.35	85.8932	1,110.35	89.8445	1,110.35	85.5859	1,110.35	88.9986	1,110.35	85.4726	1,110.35	87.4951	1,110.35	86.3419	1,110.35	86.2824	1,110.35	87.5894	1,110.35	85.4015	1,110.35	88.3633	1,110.35	84.426	1,110.35	88.4136	1,110.35	82.6452	1,110.35	85.9815	1,110.35	80.1232	1,110.35	78.667	1,110.35	78.678	1,110.35	62.626	1,110.35	77.9058	1,110.35	76.8573	1,110.35	76.914	1,110.35	79.6331	1,110.35	78.7121	1,110.35	78.5413	1,110.35	79.5468	1,110.35	77.2839	1,110.35	77.5826	1,110.35	76.5773	1,110.35	76.0301	1,110.35	74.034	1,110.35	75.5099	1,110.35	70.9594	1,110.35	73.4744
1,148.44	88.0889	1,148.44	90.2795	1,148.44	84.7487	1,148.44	89.3499	1,148.44	85.2488	1,148.44	88.527	1,148.44	85.7817	1,148.44	88.6591	1,148.44	85.9369	1,148.44	87.3813	1,148.44	86.9927	1,148.44	84.9909	1,148.44	87.6221	1,148.44	83.226	1,148.44	86.6587	1,148.44	82.3034	1,148.44	84.0633	1,148.44	81.6449	1,148.44	79.4192	1,148.44	80.0246	1,148.44	73.2723	1,148.44	75.7549	1,148.44	75.7641	1,148.44	73.4192	1,148.44	75.8025	1,148.44	77.842	1,148.44	65.5072	1,148.44	77.3044	1,148.44	72.3508	1,148.44	70.8457	1,148.44	69.0407	1,148.44	75.8404	1,148.44	70.9778	1,148.44	77.4334	1,148.44	75.3248	1,148.44	77.7051
1,189.45	88.9589	1,189.45	89.558	1,189.45	87.1917	1,189.45	89.2436	1,189.45	87.5365	1,189.45	88.5009	1,189.45	89.0638	1,189.45	87.5668	1,189.45	88.8252	1,189.45	86.576	1,189.45	88.6869	1,189.45	84.7378	1,189.45	89.5	1,189.45	82.1579	1,189.45	88.7804	1,189.45	80.1431	1,189.45	86.1877	1,189.45	78.2706	1,189.45	80.6545	1,189.45	75.3083	1,189.45	61.263	1,189.45	77.5344	1,189.45	75.6777	1,189.45	79.1182	1,189.45	78.3542	1,189.45	73.8895	1,189.45	80.5189	1,189.45	78.2386	1,189.45	78.7159	1,189.45	80.0251	1,189.45	78.2878	1,189.45	72.6411	1,189.45	72.8266	1,189.45	79.1417	1,189.45	61.999	1,189.45	75.1086
1,230.47	90.0386	1,230.47	88.61	1,230.47	89.5165	1,230.47	88.8647	1,230.47	87.6639	1,230.47	89.3112	1,230.47	88.5295	1,230.47	88.2583	1,230.47	88.0225	1,230.47	87.112	1,230.47	85.9417	1,230.47	85.7403	1,230.47	86.9069	1,230.47	83.69	1,230.47	87.181	1,230.47	81.7915	1,230.47	85.1845	1,230.47	80.6113	1,230.47	80.3281	1,230.47	79.5784	1,230.47	76.0066	1,230.47	77.791	1,230.47	71.6098	1,230.47	77.8681	1,230.47	66.6911	1,230.47	78.0428	1,230.47	67.5786	1,230.47	71.191	1,230.47	67.005	1,230.47	77.3734	1,230.47	74.1271	1,230.47	78.9443	1,230.47	71.8916	1,230.47	73.9031	1,230.47	73.8017	1,230.47	75.0438
1,274.41	88.9898	1,274.41	89.3742	1,274.41	86.7977	1,274.41	88.7705	1,274.41	85.3508	1,274.41	87.9867	1,274.41	87.1131	1,274.41	87.4085	1,274.41	88.0211	1,274.41	86.1161	1,274.41	89.2469	1,274.41	84.0778	1,274.41	90.5636	1,274.41	82.9896	1,274.41	88.9897	1,274.41	81.1626	1,274.41	85.4222	1,274.41	74.9466	1,274.41	78.9119	1,274.41	67.3704	1,274.41	71.2918	1,274.41	75.6955	1,274.41	78.7682	1,274.41	76.7337	1,274.41	64.2616	1,274.41	76.8198	1,274.41	74.1447	1,274.41	73.8855	1,274.41	81.5497	1,274.41	68.405	1,274.41	76.7021	1,274.41	68.7863	1,274.41	73.5595	1,274.41	76.9714	1,274.41	79.4788	1,274.41	81.1152
1,318.36	88.672	1,318.36	88.6587	1,318.36	88.0045	1,318.36	88.6813	1,318.36	86.9954	1,318.36	88.2299	1,318.36	87.6458	1,318.36	87.4888	1,318.36	86.7711	1,318.36	86.1164	1,318.36	85.1664	1,318.36	83.4298	1,318.36	87.737	1,318.36	80.9596	1,318.36	86.5931	1,318.36	81.5098	1,318.36	83.471	1,318.36	82.5737	1,318.36	79.4916	1,318.36	79.7477	1,318.36	72.9041	1,318.36	67.1304	1,318.36	79.7086	1,318.36	72.8698	1,318.36	76.9312	1,318.36	69.7706	1,318.36	71.9268	1,318.36	72.8849	1,318.36	79.6853	1,318.36	79.2542	1,318.36	78.5846	1,318.36	79.2965	1,318.36	76.4419	1,318.36	81.2649	1,318.36	69.2662	1,318.36	77.633
1,365.23	87.9822	1,365.23	88.3897	1,365.23	86.4831	1,365.23	88.1666	1,365.23	85.9484	1,365.23	88.8192	1,365.23	85.9922	1,365.23	87.3898	1,365.23	88.6672	1,365.23	84.4119	1,365.23	89.586	1,365.23	83.5435	1,365.23	87.0138	1,365.23	84.0507	1,365.23	86.9636	1,365.23	82.8883	1,365.23	86.078	1,365.23	77.7534	1,365.23	81.666	1,365.23	73.7664	1,365.23	77.8119	1,365.23	76.8948	1,365.23	69.0834	1,365.23	76.3854	1,365.23	72.8397	1,365.23	74.7909	1,365.23	72.1715	1,365.23	78.3611	1,365.23	79.0946	1,365.23	73.976	1,365.23	75.214	1,365.23	70.3006	1,365.23	72.6905	1,365.23	69.8688	1,365.23	80.9744	1,365.23	78.7111
1,415.04	86.2826	1,415.04	86.8276	1,415.04	86.7937	1,415.04	88.4959	1,415.04	86.4705	1,415.04	88.5261	1,415.04	86.9796	1,415.04	87.2392	1,415.04	86.0706	1,415.04	85.6695	1,415.04	85.0861	1,415.04	84.1876	1,415.04	86.8397	1,415.04	82.4865	1,415.04	87.4615	1,415.04	78.8495	1,415.04	84.8698	1,415.04	78.1732	1,415.04	71.0511	1,415.04	80.5926	1,415.04	80.0467	1,415.04	78.1155	1,415.04	78.9807	1,415.04	72.6516	1,415.04	77.6255	1,415.04	69.7478	1,415.04	75.7962	1,415.04	66.4277	1,415.04	76.7714	1,415.04	75.892	1,415.04	80.1485	1,415.04	79.3176	1,415.04	76.4991	1,415.04	80.4672	1,415.04	64.5323	1,415.04	77.7636
1,464.84	87.3773	1,464.84	87.0202	1,464.84	86.6533	1,464.84	87.5341	1,464.84	85.2656	1,464.84	87.5795	1,464.84	86.6475	1,464.84	87.0442	1,464.84	87.5835	1,464.84	86.0959	1,464.84	87.198	1,464.84	84.3718	1,464.84	86.9843	1,464.84	82.8135	1,464.84	85.108	1,464.84	80.4585	1,464.84	81.0755	1,464.84	74.9709	1,464.84	79.4822	1,464.84	70.9297	1,464.84	74.9988	1,464.84	73.3135	1,464.84	75.7624	1,464.84	73.8595	1,464.84	75.5798	1,464.84	73.7231	1,464.84	69.7606	1,464.84	77.531	1,464.84	80.0844	1,464.84	77.5184	1,464.84	73.6644	1,464.84	72.0659	1,464.84	61.6097	1,464.84	56.1456	1,464.84	77.0919	1,464.84	71.8584
1,514.65	85.7295	1,514.65	86.6043	1,514.65	87.058	1,514.65	87.2063	1,514.65	86.6768	1,514.65	87.1848	1,514.65	84.7206	1,514.65	86.7218	1,514.65	86.5712	1,514.65	85.5978	1,514.65	85.9981	1,514.65	84.1909	1,514.65	86.2242	1,514.65	82.1325	1,514.65	87.219	1,514.65	79.5209	1,514.65	85.9367	1,514.65	78.3733	1,514.65	81.9555	1,514.65	78.0606	1,514.65	77.6248	1,514.65	71.8361	1,514.65	78.402	1,514.65	70.5822	1,514.65	77.9112	1,514.65	71.9501	1,514.65	73.0424	1,514.65	69.183	1,514.65	69.6234	1,514.65	73.2629	1,514.65	77.4477	1,514.65	72.2013	1,514.65	76.8352	1,514.65	77.4866	1,514.65	70.1176	1,514.65	75.6058
1,570.31	86.752	1,570.31	86.7725	1,570.31	87.7527	1,570.31	86.7428	1,570.31	86.5591	1,570.31	85.8404	1,570.31	84.7316	1,570.31	86.2959	1,570.31	84.4761	1,570.31	85.3463	1,570.31	85.9757	1,570.31	83.9697	1,570.31	86.157	1,570.31	83.2573	1,570.31	85.5197	1,570.31	81.1931	1,570.31	84.5708	1,570.31	77.9039	1,570.31	77.448	1,570.31	78.4104	1,570.31	77.1212	1,570.31	77.1179	1,570.31	71.7347	1,570.31	70.3906	1,570.31	74.7026	1,570.31	74.7319	1,570.31	74.3619	1,570.31	77.2868	1,570.31	80.3111	1,570.31	75.5008	1,570.31	75.5128	1,570.31	72.358	1,570.31	69.6063	1,570.31	71.1505	1,570.31	72.1353	1,570.31	68.8245
1,623.05	86.4208	1,623.05	85.9348	1,623.05	86.7233	1,623.05	85.5713	1,623.05	86.4551	1,623.05	85.8532	1,623.05	84.7945	1,623.05	85.207	1,623.05	84.9276	1,623.05	84.9865	1,623.05	84.5806	1,623.05	84.1006	1,623.05	86.3219	1,623.05	81.7822	1,623.05	86.2151	1,623.05	79.1991	1,623.05	84.0511	1,623.05	78.0348	1,623.05	82.089	1,623.05	76.0475	1,623.05	62.6993	1,623.05	70.0708	1,623.05	74.937	1,623.05	71.1642	1,623.05	65.9486	1,623.05	71.1558	1,623.05	71.2341	1,623.05	65.8911	1,623.05	72.5852	1,623.05	56.4123	1,623.05	61.8957	1,623.05	62.7863	1,623.05	75.9429	1,623.05	73.1931	1,623.05	74.4224	1,623.05	75.2195
1,681.64	85.5817	1,681.64	86.6244	1,681.64	85.8862	1,681.64	85.49	1,681.64	86.0417	1,681.64	85.2544	1,681.64	82.1312	1,681.64	84.682	1,681.64	82.374	1,681.64	83.9539	1,681.64	83.4464	1,681.64	82.6616	1,681.64	84.3162	1,681.64	79.618	1,681.64	87.3757	1,681.64	77.3476	1,681.64	86.4566	1,681.64	76.0165	1,681.64	80.0664	1,681.64	71.3828	1,681.64	75.3566	1,681.64	68.5534	1,681.64	71.2435	1,681.64	71.514	1,681.64	71.2637	1,681.64	73.3244	1,681.64	71.5015	1,681.64	75.0841	1,681.64	75.8364	1,681.64	73.6909	1,681.64	73.6504	1,681.64	73.7559	1,681.64	69.6438	1,681.64	72.7393	1,681.64	67.611	1,681.64	69.4543
1,740.23	85.9332	1,740.23	84.9351	1,740.23	85.9933	1,740.23	84.6124	1,740.23	85.0932	1,740.23	84.6265	1,740.23	82.1393	1,740.23	84.9578	1,740.23	80.4428	1,740.23	83.0101	1,740.23	82.9953	1,740.23	80.7544	1,740.23	83.7191	1,740.23	80.5657	1,740.23	85.282	1,740.23	78.4904	1,740.23	83.3149	1,740.23	75.8087	1,740.23	74.7526	1,740.23	75.2327	1,740.23	65.7412	1,740.23	71.5465	1,740.23	71.3601	1,740.23	64.1585	1,740.23	65.8657	1,740.23	70.5789	1,740.23	70.1225	1,740.23	69.899	1,740.23	74.8117	1,740.23	62.4406	1,740.23	65.4813	1,740.23	65.5218	1,740.23	67.7693	1,740.23	71.0407	1,740.23	73.0175	1,740.23	73.0623
1,801.76	86.5312	1,801.76	84.9422	1,801.76	86.0237	1,801.76	83.6269	1,801.76	84.535	1,801.76	84.079	1,801.76	81.6463	1,801.76	83.3009	1,801.76	80.825	1,801.76	82.1059	1,801.76	82.3851	1,801.76	80.8669	1,801.76	83.5566	1,801.76	78.6342	1,801.76	84.634	1,801.76	76.5584	1,801.76	84.7093	1,801.76	74.4795	1,801.76	80.3131	1,801.76	71.7891	1,801.76	72.5995	1,801.76	72.9335	1,801.76	63.162	1,801.76	72.75	1,801.76	65.1816	1,801.76	67.0099	1,801.76	70.7736	1,801.76	70.9258	1,801.76	67.2184	1,801.76	72.1356	1,801.76	69.1715	1,801.76	71.7276	1,801.76	72.114	1,801.76	72.2408	1,801.76	65.6083	1,801.76	66.2916
1,866.21	86.5275	1,866.21	85.1788	1,866.21	85.832	1,866.21	83.7955	1,866.21	83.9225	1,866.21	81.6848	1,866.21	79.7023	1,866.21	81.1325	1,866.21	76.9213	1,866.21	81.1019	1,866.21	80.7732	1,866.21	79.6639	1,866.21	81.8717	1,866.21	77.8893	1,866.21	84.4379	1,866.21	77.2201	1,866.21	82.6933	1,866.21	76.0665	1,866.21	68.1836	1,866.21	71.3051	1,866.21	74.0654	1,866.21	67.5612	1,866.21	67.9644	1,866.21	69.1871	1,866.21	66.2414	1,866.21	71.4997	1,866.21	64.9108	1,866.21	70.7744	1,866.21	69.6788	1,866.21	69.3643	1,866.21	67.3358	1,866.21	62.4319	1,866.21	63.869	1,866.21	64.8555	1,866.21	71.287	1,866.21	72.3652
1,930.66	85.6344	1,930.66	85.1349	1,930.66	84.8825	1,930.66	83.6511	1,930.66	82.7685	1,930.66	81.0146	1,930.66	78.877	1,930.66	79.8137	1,930.66	77.3709	1,930.66	79.8012	1,930.66	79.8965	1,930.66	79.4082	1,930.66	83.2115	1,930.66	78.8652	1,930.66	83.9376	1,930.66	77.4025	1,930.66	84.0228	1,930.66	76.3981	1,930.66	78.8523	1,930.66	76.6085	1,930.66	66.1648	1,930.66	73.8477	1,930.66	68.709	1,930.66	68.3414	1,930.66	69.902	1,930.66	65.6283	1,930.66	64.3254	1,930.66	62.2781	1,930.66	65.0737	1,930.66	68.7654	1,930.66	55.7647	1,930.66	71.4508	1,930.66	71.2245	1,930.66	66.0469	1,930.66	69.4689	1,930.66	60.9215
2,000.98	86.0432	2,000.98	85.9379	2,000.98	85.1911	2,000.98	83.666	2,000.98	82.396	2,000.98	79.0749	2,000.98	78.1033	2,000.98	77.1808	2,000.98	76.2007	2,000.98	79.193	2,000.98	79.7397	2,000.98	79.3937	2,000.98	81.4378	2,000.98	76.6136	2,000.98	84.7095	2,000.98	74.1445	2,000.98	83.7179	2,000.98	69.3697	2,000.98	71.3165	2,000.98	68.1444	2,000.98	73.3749	2,000.98	72.5393	2,000.98	68.2478	2,000.98	69.2648	2,000.98	67.5152	2,000.98	68.0443	2,000.98	56.1902	2,000.98	72.1205	2,000.98	64.8249	2,000.98	67.1783	2,000.98	64.9802	2,000.98	61.8714	2,000.98	72.0796	2,000.98	70.4938	2,000.98	52.9988	2,000.98	71.1118
2,071.29	87.3144	2,071.29	86.0782	2,071.29	85.9629	2,071.29	82.6566	2,071.29	82.1661	2,071.29	77.1338	2,071.29	76.8207	2,071.29	75.9409	2,071.29	76.3188	2,071.29	79.4182	2,071.29	76.6711	2,071.29	79.2131	2,071.29	82.2853	2,071.29	78.4966	2,071.29	83.5195	2,071.29	79.0409	2,071.29	83.3611	2,071.29	79.2778	2,071.29	80.9874	2,071.29	76.8687	2,071.29	58.9118	2,071.29	71.6479	2,071.29	73.4112	2,071.29	71.6578	2,071.29	67.1657	2,071.29	67.2802	2,071.29	59.8515	2,071.29	67.2537	2,071.29	62.4984	2,071.29	70.5349	2,071.29	60.8718	2,071.29	66.7291	2,071.29	63.1651	2,071.29	66.9219	2,071.29	72.5734	2,071.29	72.5202
2,144.53	86.9205	2,144.53	87.1617	2,144.53	85.5958	2,144.53	83.1326	2,144.53	82.4916	2,144.53	71.2759	2,144.53	76.3263	2,144.53	74.1638	2,144.53	73.5294	2,144.53	79.17	2,144.53	78.1209	2,144.53	80.5611	2,144.53	79.747	2,144.53	81.5307	2,144.53	84.1785	2,144.53	80.8189	2,144.53	83.8965	2,144.53	80.7494	2,144.53	66.7957	2,144.53	79.844	2,144.53	69.158	2,144.53	74.4129	2,144.53	65.3665	2,144.53	69.1655	2,144.53	68.7712	2,144.53	68.2327	2,144.53	52.112	2,144.53	61.3879	2,144.53	48.1007	2,144.53	63.3159	2,144.53	57.2177	2,144.53	72.9887	2,144.53	70.027	2,144.53	74.2176	2,144.53	69.4489	2,144.53	70.4077
2,217.77	86.8058	2,217.77	86.9508	2,217.77	84.7792	2,217.77	83.4846	2,217.77	81.3004	2,217.77	70.3909	2,217.77	74.7333	2,217.77	75.3005	2,217.77	75.5634	2,217.77	80.7991	2,217.77	75.03	2,217.77	82.4335	2,217.77	81.9275	2,217.77	80.9333	2,217.77	83.6343	2,217.77	77.9453	2,217.77	83.9868	2,217.77	72.1353	2,217.77	82.4527	2,217.77	67.9501	2,217.77	64.8803	2,217.77	73.3886	2,217.77	70.2882	2,217.77	73.2416	2,217.77	65.3794	2,217.77	70.3398	2,217.77	68.1138	2,217.77	71.9846	2,217.77	59.4648	2,217.77	70.124	2,217.77	59.6885	2,217.77	65.11	2,217.77	71.2026	2,217.77	66.6934	2,217.77	63.8959	2,217.77	71.7056
2,296.88	86.8414	2,296.88	86.9664	2,296.88	84.9529	2,296.88	82.5659	2,296.88	81.0194	2,296.88	72.3119	2,296.88	69.5229	2,296.88	77.7355	2,296.88	72.6976	2,296.88	82.5006	2,296.88	80.6741	2,296.88	82.4708	2,296.88	80.6471	2,296.88	81.3369	2,296.88	84.889	2,296.88	79.7593	2,296.88	84.9428	2,296.88	80.3992	2,296.88	74.4577	2,296.88	78.6544	2,296.88	70.3335	2,296.88	74.7819	2,296.88	66.1816	2,296.88	72.4293	2,296.88	64.6327	2,296.88	67.666	2,296.88	64.5495	2,296.88	67.101	2,296.88	52.8415	2,296.88	70.7832	2,296.88	55.052	2,296.88	69.5224	2,296.88	61.42	2,296.88	69.0088	2,296.88	71.7592	2,296.88	71.6623
2,378.91	88.1375	2,378.91	87.6885	2,378.91	86.1297	2,378.91	83.3672	2,378.91	82.0129	2,378.91	76.9082	2,378.91	68.2323	2,378.91	79.7605	2,378.91	76.6856	2,378.91	84.1664	2,378.91	79.9036	2,378.91	83.2512	2,378.91	83.8005	2,378.91	81.9892	2,378.91	84.143	2,378.91	81.6726	2,378.91	84.6893	2,378.91	80.5563	2,378.91	82.6632	2,378.91	77.1546	2,378.91	71.4568	2,378.91	71.1744	2,378.91	69.1966	2,378.91	69.4555	2,378.91	68.4971	2,378.91	64.6098	2,378.91	65.082	2,378.91	65.9468	2,378.91	60.9407	2,378.91	63.3009	2,378.91	52.7291	2,378.91	72.685	2,378.91	67.2532	2,378.91	74.2172	2,378.91	69.7635	2,378.91	70.5023
2,460.94	87.806	2,460.94	87.4804	2,460.94	85.7086	2,460.94	83.9115	2,460.94	82.6085	2,460.94	77.6292	2,460.94	69.6267	2,460.94	81.9289	2,460.94	78.4932	2,460.94	84.2538	2,460.94	81.849	2,460.94	83.685	2,460.94	83.3662	2,460.94	82.8361	2,460.94	85.6406	2,460.94	79.3757	2,460.94	83.3038	2,460.94	69.2742	2,460.94	72.1963	2,460.94	71.7783	2,460.94	69.6716	2,460.94	72.9592	2,460.94	68.2413	2,460.94	67.9566	2,460.94	68.5996	2,460.94	70.0582	2,460.94	65.9676	2,460.94	66.9155	2,460.94	63.0628	2,460.94	65.8863	2,460.94	62.5054	2,460.94	70.1856	2,460.94	71.7987	2,460.94	69.1039	2,460.94	66.4397	2,460.94	70.3343
2,548.83	88.5022	2,548.83	88.0132	2,548.83	86.1769	2,548.83	84.7281	2,548.83	83.8818	2,548.83	81.2768	2,548.83	75.1957	2,548.83	84.3324	2,548.83	81.812	2,548.83	84.6556	2,548.83	82.5924	2,548.83	84.1693	2,548.83	85.4615	2,548.83	81.2481	2,548.83	86.418	2,548.83	79.067	2,548.83	83.9538	2,548.83	81.916	2,548.83	81.4032	2,548.83	76.1672	2,548.83	66.0694	2,548.83	74.5972	2,548.83	69.5376	2,548.83	75.0447	2,548.83	70.0855	2,548.83	68.1441	2,548.83	68.5939	2,548.83	68.3602	2,548.83	64.1699	2,548.83	70.4077	2,548.83	62.159	2,548.83	70.0157	2,548.83	70.7331	2,548.83	69.4784	2,548.83	69.0736	2,548.83	72.1628
2,639.65	88.6065	2,639.65	87.256	2,639.65	87.2745	2,639.65	84.7494	2,639.65	83.2606	2,639.65	82.3539	2,639.65	80.9958	2,639.65	84.2094	2,639.65	82.7886	2,639.65	85.5804	2,639.65	83.9406	2,639.65	84.2981	2,639.65	84.5779	2,639.65	82.5934	2,639.65	87.2	2,639.65	81.9901	2,639.65	83.2305	2,639.65	78.8998	2,639.65	69.3859	2,639.65	77.5132	2,639.65	76.4171	2,639.65	71.2611	2,639.65	71.1998	2,639.65	70.5248	2,639.65	70.7701	2,639.65	70.2566	2,639.65	69.0842	2,639.65	66.2348	2,639.65	67.3246	2,639.65	69.0038	2,639.65	65.3484	2,639.65	72.5327	2,639.65	68.4639	2,639.65	71.4207	2,639.65	68.7413	2,639.65	69.1892
2,733.4	88.3178	2,733.4	87.6374	2,733.4	87.2005	2,733.4	85.1404	2,733.4	85.5461	2,733.4	85.1021	2,733.4	83.2052	2,733.4	86.0908	2,733.4	84.4886	2,733.4	85.3553	2,733.4	84.4952	2,733.4	84.3938	2,733.4	83.8486	2,733.4	81.8719	2,733.4	85.7583	2,733.4	78.5039	2,733.4	87.1182	2,733.4	78.7637	2,733.4	82.2101	2,733.4	72.5719	2,733.4	47.2016	2,733.4	75.7661	2,733.4	67.6122	2,733.4	72.7928	2,733.4	69.4918	2,733.4	65.208	2,733.4	67.6054	2,733.4	56.6508	2,733.4	70.7665	2,733.4	65.901	2,733.4	56.2729	2,733.4	71.6185	2,733.4	70.3099	2,733.4	72.8404	2,733.4	70.5289	2,733.4	70.018
2,827.15	88.7728	2,827.15	88.3943	2,827.15	87.4851	2,827.15	86.6892	2,827.15	85.8179	2,827.15	85.8018	2,827.15	85.2767	2,827.15	85.4804	2,827.15	85.1449	2,827.15	85.8351	2,827.15	85.6552	2,827.15	85.2572	2,827.15	83.0379	2,827.15	81.5276	2,827.15	86.4851	2,827.15	82.0489	2,827.15	85.8059	2,827.15	82.6708	2,827.15	77.045	2,827.15	76.7525	2,827.15	72.4805	2,827.15	61.1051	2,827.15	67.3688	2,827.15	72.1581	2,827.15	70.6063	2,827.15	60.4777	2,827.15	70.7496	2,827.15	69.2062	2,827.15	68.2807	2,827.15	56.4286	2,827.15	57.165	2,827.15	68.9636	2,827.15	72.4648	2,827.15	71.4297	2,827.15	62.4029	2,827.15	71.6318
2,926.76	88.2911	2,926.76	87.7593	2,926.76	87.5271	2,926.76	86.6532	2,926.76	87.1497	2,926.76	86.0159	2,926.76	86.6771	2,926.76	85.8415	2,926.76	85.7132	2,926.76	85.4105	2,926.76	85.0079	2,926.76	83.9068	2,926.76	83.5718	2,926.76	81.6146	2,926.76	85.5074	2,926.76	78.0005	2,926.76	86.5993	2,926.76	71.9514	2,926.76	81.8274	2,926.76	69.9371	2,926.76	67.532	2,926.76	74.2845	2,926.76	73.8579	2,926.76	70.5782	2,926.76	69.2359	2,926.76	64.1233	2,926.76	69.4246	2,926.76	61.7306	2,926.76	72.4409	2,926.76	65.0234	2,926.76	60.8516	2,926.76	60.2166	2,926.76	74.1018	2,926.76	69.1976	2,926.76	63.6895	2,926.76	71.5269
3,032.23	87.5412	3,032.23	88.1654	3,032.23	86.9869	3,032.23	87.7594	3,032.23	87.2756	3,032.23	87.0071	3,032.23	88.1778	3,032.23	85.9932	3,032.23	86.4244	3,032.23	85.5474	3,032.23	85.0111	3,032.23	84.1992	3,032.23	81.6783	3,032.23	81.0237	3,032.23	85.6585	3,032.23	80.9744	3,032.23	81.6967	3,032.23	82.9955	3,032.23	75.1578	3,032.23	79.005	3,032.23	68.2425	3,032.23	57.4627	3,032.23	66.5934	3,032.23	71.2251	3,032.23	69.349	3,032.23	64.9246	3,032.23	69.1455	3,032.23	60.8651	3,032.23	73.5024	3,032.23	70.6283	3,032.23	64.427	3,032.23	62.7536	3,032.23	72.8629	3,032.23	65.5297	3,032.23	54.2917	3,032.23	68.7751
3,137.7	87.7832	3,137.7	88.2131	3,137.7	86.7051	3,137.7	87.559	3,137.7	87.9564	3,137.7	86.0774	3,137.7	87.9893	3,137.7	86.0142	3,137.7	87.056	3,137.7	85.6833	3,137.7	84.9714	3,137.7	84.0492	3,137.7	81.5361	3,137.7	82.6476	3,137.7	84.5249	3,137.7	80.4425	3,137.7	85.8946	3,137.7	70.7095	3,137.7	73.1474	3,137.7	71.8021	3,137.7	70.1003	3,137.7	72.4346	3,137.7	75.2124	3,137.7	69.8329	3,137.7	66.3221	3,137.7	65.9923	3,137.7	68.2512	3,137.7	54.2063	3,137.7	74.1089	3,137.7	65.2669	3,137.7	50.9384	3,137.7	68.7024	3,137.7	73.4977	3,137.7	67.2811	3,137.7	57.1433	3,137.7	70.1812
3,249.02	87.3815	3,249.02	88.4741	3,249.02	86.2357	3,249.02	88.3513	3,249.02	87.8247	3,249.02	86.6438	3,249.02	88.7006	3,249.02	85.4283	3,249.02	85.9671	3,249.02	85.3014	3,249.02	84.6971	3,249.02	85.4024	3,249.02	81.3512	3,249.02	80.8491	3,249.02	84.038	3,249.02	80.2345	3,249.02	85.9708	3,249.02	82.1571	3,249.02	84.247	3,249.02	79.4306	3,249.02	61.7556	3,249.02	67.3882	3,249.02	71.8158	3,249.02	69.7077	3,249.02	68.682	3,249.02	69.0762	3,249.02	69.4906	3,249.02	57.7275	3,249.02	70.8782	3,249.02	65.5829	3,249.02	64.4334	3,249.02	69.875	3,249.02	69.6614	3,249.02	69.4832	3,249.02	61.6576	3,249.02	65.295
3,363.28	86.9484	3,363.28	88.1063	3,363.28	85.986	3,363.28	87.1703	3,363.28	87.6851	3,363.28	85.7871	3,363.28	89.0107	3,363.28	85.2932	3,363.28	86.3398	3,363.28	85.3591	3,363.28	83.8625	3,363.28	84.5359	3,363.28	80.5864	3,363.28	82.1108	3,363.28	81.9156	3,363.28	79.6352	3,363.28	84.889	3,363.28	71.4578	3,363.28	81.0782	3,363.28	75.1573	3,363.28	75.7047	3,363.28	72.8872	3,363.28	68.5439	3,363.28	69.5674	3,363.28	66.8326	3,363.28	64.9621	3,363.28	69.8602	3,363.28	66.3491	3,363.28	69.57	3,363.28	58.6119	3,363.28	63.1143	3,363.28	72.7729	3,363.28	66.3432	3,363.28	71.7073	3,363.28	56.3072	3,363.28	67.2473
3,483.4	86.6427	3,483.4	88.6219	3,483.4	85.1062	3,483.4	87.3782	3,483.4	87.2543	3,483.4	85.4426	3,483.4	88.2822	3,483.4	85.4995	3,483.4	86.0894	3,483.4	85.767	3,483.4	83.3065	3,483.4	84.7721	3,483.4	82.5628	3,483.4	81.3041	3,483.4	77.3741	3,483.4	80.318	3,483.4	86.1399	3,483.4	81.9949	3,483.4	80.4101	3,483.4	76.5833	3,483.4	71.1291	3,483.4	71.4873	3,483.4	72.9018	3,483.4	65.9504	3,483.4	69.9145	3,483.4	66.4203	3,483.4	64.1805	3,483.4	62.7128	3,483.4	68.4734	3,483.4	63.278	3,483.4	64.5598	3,483.4	71.9284	3,483.4	67.3125	3,483.4	69.9779	3,483.4	57.5134	3,483.4	68.9508
3,606.45	86.4833	3,606.45	88.0942	3,606.45	85.4415	3,606.45	86.2169	3,606.45	87.0992	3,606.45	84.9987	3,606.45	88.2745	3,606.45	85.9624	3,606.45	85.3957	3,606.45	85.2218	3,606.45	82.8267	3,606.45	84.0996	3,606.45	80.3745	3,606.45	82.1928	3,606.45	81.2582	3,606.45	78.8681	3,606.45	83.5754	3,606.45	72.7013	3,606.45	82.5219	3,606.45	72.6815	3,606.45	67.7628	3,606.45	69.9652	3,606.45	68.7869	3,606.45	63.9941	3,606.45	67.3821	3,606.45	61.7027	3,606.45	67.078	3,606.45	65.6607	3,606.45	70.2194	3,606.45	67.3586	3,606.45	60.4611	3,606.45	62.0835	3,606.45	69.8978	3,606.45	68.9794	3,606.45	56.0179	3,606.45	68.8538
3,732.42	86.0326	3,732.42	87.9116	3,732.42	84.264	3,732.42	85.8198	3,732.42	86.6186	3,732.42	84.8567	3,732.42	87.3558	3,732.42	85.694	3,732.42	84.6292	3,732.42	84.9135	3,732.42	82.3423	3,732.42	83.6767	3,732.42	81.0257	3,732.42	78.2312	3,732.42	78.8381	3,732.42	77.9541	3,732.42	82.183	3,732.42	79.5719	3,732.42	78.6114	3,732.42	75.3794	3,732.42	64.4461	3,732.42	67.1428	3,732.42	70.4005	3,732.42	64.6186	3,732.42	64.6469	3,732.42	58.0065	3,732.42	67.997	3,732.42	60.1953	3,732.42	66.7616	3,732.42	65.8431	3,732.42	64.3961	3,732.42	60.3073	3,732.42	70.0372	3,732.42	65.0678	3,732.42	63.9483	3,732.42	67.8669
3,864.26	86.3088	3,864.26	87.1989	3,864.26	83.0194	3,864.26	85.8976	3,864.26	86.427	3,864.26	84.9616	3,864.26	87.6512	3,864.26	85.4857	3,864.26	85.718	3,864.26	84.393	3,864.26	80.7725	3,864.26	81.8098	3,864.26	81.1253	3,864.26	80.6574	3,864.26	80.5233	3,864.26	73.4131	3,864.26	84.0761	3,864.26	76.6996	3,864.26	74.4287	3,864.26	71.3126	3,864.26	63.455	3,864.26	72.3228	3,864.26	58.5505	3,864.26	60.0441	3,864.26	66.6758	3,864.26	64.8163	3,864.26	65.4379	3,864.26	55.0084	3,864.26	60.8632	3,864.26	59.3278	3,864.26	66.4015	3,864.26	65.2716	3,864.26	61.6013	3,864.26	66.5695	3,864.26	64.9934	3,864.26	66.4275
3,999.02	86.7818	3,999.02	87.1307	3,999.02	83.0257	3,999.02	85.007	3,999.02	86.1159	3,999.02	84.8372	3,999.02	86.4189	3,999.02	84.5992	3,999.02	84.8095	3,999.02	83.7601	3,999.02	81.1076	3,999.02	82.0613	3,999.02	80.4592	3,999.02	79.2684	3,999.02	73.7831	3,999.02	78.5604	3,999.02	81.9014	3,999.02	76.5676	3,999.02	78.2198	3,999.02	77.4317	3,999.02	69.2795	3,999.02	66.9148	3,999.02	44.3058	3,999.02	63.198	3,999.02	67.5572	3,999.02	60.8653	3,999.02	58.0036	3,999.02	60.7117	3,999.02	67.8796	3,999.02	62.1411	3,999.02	62.369	3,999.02	64.4695	3,999.02	59.2359	3,999.02	66.1368	3,999.02	67.6885	3,999.02	67.9971
4,139.65	86.642	4,139.65	87.0563	4,139.65	83.6956	4,139.65	85.7106	4,139.65	85.8355	4,139.65	84.5588	4,139.65	86.9422	4,139.65	84.2328	4,139.65	83.7868	4,139.65	83.4773	4,139.65	81.6196	4,139.65	82.5014	4,139.65	81.5076	4,139.65	80.9257	4,139.65	79.3304	4,139.65	78.5166	4,139.65	75.5245	4,139.65	80.1107	4,139.65	79.9912	4,139.65	75.9939	4,139.65	63.3066	4,139.65	66.7454	4,139.65	61.7612	4,139.65	66.5186	4,139.65	63.4535	4,139.65	41.5819	4,139.65	66.2224	4,139.65	62.8179	4,139.65	63.6641	4,139.65	50.24	4,139.65	62.9167	4,139.65	69.7871	4,139.65	59.8971	4,139.65	67.9176	4,139.65	62.8197	4,139.65	64.575
4,286.13	87.4155	4,286.13	86.8316	4,286.13	83.4565	4,286.13	84.5212	4,286.13	85.0801	4,286.13	83.8001	4,286.13	85.5924	4,286.13	84.3264	4,286.13	83.3334	4,286.13	83.1459	4,286.13	81.5695	4,286.13	82.472	4,286.13	79.9637	4,286.13	82.9385	4,286.13	78.888	4,286.13	78.0463	4,286.13	77.9866	4,286.13	75.896	4,286.13	75.9997	4,286.13	72.1363	4,286.13	68.5511	4,286.13	71.4547	4,286.13	65.5209	4,286.13	58.6982	4,286.13	65.993	4,286.13	64.4436	4,286.13	59.5397	4,286.13	65.787	4,286.13	64.2225	4,286.13	61.3262	4,286.13	54.6352	4,286.13	61.5843	4,286.13	66.1668	4,286.13	66.5721	4,286.13	59.1206	4,286.13	60.4033
4,438.48	87.6722	4,438.48	86.9344	4,438.48	84.6402	4,438.48	84.8733	4,438.48	85.0244	4,438.48	84.3311	4,438.48	85.5391	4,438.48	83.8528	4,438.48	84.3552	4,438.48	83.3612	4,438.48	81.2402	4,438.48	83.0084	4,438.48	80.7543	4,438.48	79.2217	4,438.48	81.2627	4,438.48	77.6002	4,438.48	79.4942	4,438.48	75.9864	4,438.48	78.0635	4,438.48	74.7477	4,438.48	62.7708	4,438.48	67.6179	4,438.48	65.4832	4,438.48	64.759	4,438.48	62.476	4,438.48	55.7999	4,438.48	60.3778	4,438.48	64.3518	4,438.48	61.4699	4,438.48	49.9672	4,438.48	64.9421	4,438.48	56.9753	4,438.48	65.2998	4,438.48	65.9481	4,438.48	69.0324	4,438.48	64.2542
4,593.75	87.7982	4,593.75	87.0658	4,593.75	85.4582	4,593.75	84.7483	4,593.75	85.3979	4,593.75	84.7122	4,593.75	86.0834	4,593.75	83.5391	4,593.75	82.9392	4,593.75	83.9873	4,593.75	81.6131	4,593.75	81.5965	4,593.75	79.2309	4,593.75	79.0566	4,593.75	78.0091	4,593.75	75.7265	4,593.75	81.4746	4,593.75	74.8481	4,593.75	80.1787	4,593.75	74.5068	4,593.75	57.0252	4,593.75	69.375	4,593.75	66.9364	4,593.75	60.4121	4,593.75	62.3579	4,593.75	58.6798	4,593.75	61.194	4,593.75	59.1061	4,593.75	65.0701	4,593.75	53.7387	4,593.75	50.9454	4,593.75	62.8476	4,593.75	57.3358	4,593.75	68.5387	4,593.75	64.8585	4,593.75	61.877
4,757.81	87.9055	4,757.81	86.8415	4,757.81	86.0345	4,757.81	84.8913	4,757.81	85.4532	4,757.81	84.6263	4,757.81	85.3614	4,757.81	84.0455	4,757.81	83.2663	4,757.81	83.8101	4,757.81	81.1378	4,757.81	80.7057	4,757.81	80.3061	4,757.81	78.2672	4,757.81	80.0775	4,757.81	75.8747	4,757.81	81.8238	4,757.81	75.5604	4,757.81	79.9431	4,757.81	74.0992	4,757.81	69.1969	4,757.81	69.8651	4,757.81	63.1014	4,757.81	59.8903	4,757.81	57.045	4,757.81	60.2306	4,757.81	62.5918	4,757.81	62.8634	4,757.81	59.695	4,757.81	52.7728	4,757.81	61.3265	4,757.81	66.7292	4,757.81	62.2061	4,757.81	62.0858	4,757.81	62.1889	4,757.81	61.2569
4,924.8	88.1269	4,924.8	86.9298	4,924.8	86.6664	4,924.8	85.2481	4,924.8	84.8808	4,924.8	83.9816	4,924.8	85.0916	4,924.8	84.7161	4,924.8	82.3245	4,924.8	82.947	4,924.8	81.5067	4,924.8	80.3012	4,924.8	78.4442	4,924.8	79.1302	4,924.8	78.9692	4,924.8	77.2641	4,924.8	80.3828	4,924.8	73.7694	4,924.8	78.8944	4,924.8	73.8059	4,924.8	66.2208	4,924.8	66.2615	4,924.8	52.7753	4,924.8	62.5393	4,924.8	56.9912	4,924.8	64.8118	4,924.8	67.5002	4,924.8	62.1626	4,924.8	62.505	4,924.8	62.4898	4,924.8	57.6754	4,924.8	65.6963	4,924.8	51.8092	4,924.8	62.071	4,924.8	69.6965	4,924.8	65.6649
5,097.66	87.8861	5,097.66	86.927	5,097.66	86.64	5,097.66	85.3017	5,097.66	85.4321	5,097.66	83.9693	5,097.66	84.6022	5,097.66	83.9411	5,097.66	83.5536	5,097.66	82.4616	5,097.66	80.2087	5,097.66	80.6781	5,097.66	79.4263	5,097.66	80.1455	5,097.66	78.8488	5,097.66	76.8256	5,097.66	81.0785	5,097.66	75.4716	5,097.66	73.7391	5,097.66	73.5855	5,097.66	60.8082	5,097.66	67.9199	5,097.66	66.9226	5,097.66	67.2961	5,097.66	62.4405	5,097.66	68.445	5,097.66	56.2009	5,097.66	61.2104	5,097.66	56.5948	5,097.66	60.3119	5,097.66	61.5047	5,097.66	60.5282	5,097.66	60.6099	5,097.66	65.5388	5,097.66	65.3694	5,097.66	63.8485
5,279.3	87.0648	5,279.3	87.0323	5,279.3	86.6817	5,279.3	84.5872	5,279.3	85.3277	5,279.3	83.8764	5,279.3	83.8565	5,279.3	83.3919	5,279.3	82.9735	5,279.3	82.0159	5,279.3	80.005	5,279.3	80.9699	5,279.3	79.7058	5,279.3	79.2503	5,279.3	77.9851	5,279.3	74.4241	5,279.3	76.2708	5,279.3	70.5002	5,279.3	74.1728	5,279.3	71.3177	5,279.3	58.876	5,279.3	67.9846	5,279.3	64.5919	5,279.3	62.5518	5,279.3	61.5757	5,279.3	67.7556	5,279.3	64.5264	5,279.3	58.9012	5,279.3	57.4314	5,279.3	49.9193	5,279.3	62.3266	5,279.3	57.4298	5,279.3	57.7777	5,279.3	67.4331	5,279.3	61.8895	5,279.3	53.7054
5,463.87	87.0049	5,463.87	86.9376	5,463.87	86.1628	5,463.87	84.0287	5,463.87	85.2568	5,463.87	84.2575	5,463.87	84.043	5,463.87	82.1777	5,463.87	83.2541	5,463.87	83.2876	5,463.87	79.8751	5,463.87	80.3985	5,463.87	78.4503	5,463.87	77.4591	5,463.87	78.7313	5,463.87	74.6175	5,463.87	78.3674	5,463.87	72.0138	5,463.87	75.4657	5,463.87	72.0275	5,463.87	60.3083	5,463.87	65.8844	5,463.87	65.7068	5,463.87	62.1852	5,463.87	46.6603	5,463.87	57.2239	5,463.87	62.7201	5,463.87	50.5898	5,463.87	64.4575	5,463.87	57.2725	5,463.87	59.305	5,463.87	59.3139	5,463.87	57.858	5,463.87	62.9085	5,463.87	63.111	5,463.87	64.2361
5,657.23	86.5291	5,657.23	86.9886	5,657.23	86.1306	5,657.23	83.8877	5,657.23	85.5874	5,657.23	83.9544	5,657.23	83.5426	5,657.23	82.3697	5,657.23	83.5025	5,657.23	82.9095	5,657.23	80.3095	5,657.23	79.6167	5,657.23	78.9767	5,657.23	77.3696	5,657.23	79.2307	5,657.23	73.6301	5,657.23	78.5609	5,657.23	72.5944	5,657.23	74.8635	5,657.23	71.8381	5,657.23	64.1453	5,657.23	69.8619	5,657.23	58.0704	5,657.23	65.2429	5,657.23	61.8621	5,657.23	64.8675	5,657.23	58.8285	5,657.23	55.8205	5,657.23	61.9532	5,657.23	63.149	5,657.23	64.5882	5,657.23	64.5914	5,657.23	63.146	5,657.23	48.1493	5,657.23	62.6693	5,657.23	64.6252
5,856.45	87.0759	5,856.45	86.7463	5,856.45	85.8148	5,856.45	84.5264	5,856.45	86.0134	5,856.45	83.2752	5,856.45	83.4752	5,856.45	82.614	5,856.45	83.1238	5,856.45	82.5186	5,856.45	81.3569	5,856.45	80.0485	5,856.45	79.199	5,856.45	78.9068	5,856.45	79.9736	5,856.45	75.4629	5,856.45	78.8883	5,856.45	74.0393	5,856.45	77.8378	5,856.45	71.3403	5,856.45	64.8163	5,856.45	70.5819	5,856.45	56.5092	5,856.45	63.0108	5,856.45	60.2825	5,856.45	67.5017	5,856.45	63.1647	5,856.45	49.7756	5,856.45	54.3658	5,856.45	63.1178	5,856.45	57.0177	5,856.45	63.0948	5,856.45	63.9996	5,856.45	60.3649	5,856.45	63.2897	5,856.45	56.1899
6,061.52	87.2788	6,061.52	86.1364	6,061.52	85.5967	6,061.52	85.3905	6,061.52	86.4242	6,061.52	82.6351	6,061.52	83.3905	6,061.52	83.2702	6,061.52	82.7695	6,061.52	82.7267	6,061.52	82.0125	6,061.52	81.0893	6,061.52	79.5469	6,061.52	79.7139	6,061.52	78.1553	6,061.52	75.6301	6,061.52	77.3105	6,061.52	74.7091	6,061.52	75.8192	6,061.52	70.75	6,061.52	65.5802	6,061.52	69.4536	6,061.52	60.4708	6,061.52	57.8724	6,061.52	54.8619	6,061.52	65.6341	6,061.52	62.7561	6,061.52	49.833	6,061.52	59.8586	6,061.52	59.3387	6,061.52	42.8576	6,061.52	60.2195	6,061.52	60.2959	6,061.52	63.9372	6,061.52	64.4845	6,061.52	61.2124
6,275.39	86.9047	6,275.39	85.8504	6,275.39	85.7459	6,275.39	85.5482	6,275.39	86.8123	6,275.39	83.6253	6,275.39	83.5331	6,275.39	83.1354	6,275.39	83.7366	6,275.39	83.6027	6,275.39	82.6697	6,275.39	81.3455	6,275.39	80.382	6,275.39	80.0485	6,275.39	76.6881	6,275.39	77.0202	6,275.39	72.6283	6,275.39	73.2168	6,275.39	72.2649	6,275.39	72.5485	6,275.39	64.0918	6,275.39	69.0461	6,275.39	55.0129	6,275.39	57.2584	6,275.39	57.076	6,275.39	58.43	6,275.39	59.0507	6,275.39	56.4787	6,275.39	64.1816	6,275.39	61.8122	6,275.39	59.8382	6,275.39	64.3377	6,275.39	53.1946	6,275.39	58.0822	6,275.39	62.5891	6,275.39	63.621
6,498.05	86.5259	6,498.05	85.8783	6,498.05	86.3251	6,498.05	84.822	6,498.05	86.9165	6,498.05	84.6341	6,498.05	83.9066	6,498.05	83.0667	6,498.05	83.9723	6,498.05	83.2638	6,498.05	83.178	6,498.05	81.6225	6,498.05	80.0451	6,498.05	79.5638	6,498.05	77.0253	6,498.05	77.3926	6,498.05	63.9162	6,498.05	72.8676	6,498.05	72.8671	6,498.05	72.0668	6,498.05	64.1573	6,498.05	69.9597	6,498.05	53.676	6,498.05	62.0208	6,498.05	54.7957	6,498.05	62.3411	6,498.05	60.2686	6,498.05	57.7518	6,498.05	66.4239	6,498.05	68.0922	6,498.05	62.5423	6,498.05	63.634	6,498.05	46.7184	6,498.05	56.4792	6,498.05	57.3758	6,498.05	56.6427
6,726.56	86.1039	6,726.56	85.6413	6,726.56	86.2073	6,726.56	85.1264	6,726.56	86.6197	6,726.56	85.3383	6,726.56	84.6815	6,726.56	83.1802	6,726.56	84.1554	6,726.56	82.6634	6,726.56	83.5711	6,726.56	81.5715	6,726.56	78.2922	6,726.56	79.6508	6,726.56	77.403	6,726.56	76.3333	6,726.56	70.8503	6,726.56	73.0662	6,726.56	72.0123	6,726.56	70.4837	6,726.56	65.727	6,726.56	69.4405	6,726.56	54.173	6,726.56	59.7644	6,726.56	51.9031	6,726.56	63.4162	6,726.56	59.7848	6,726.56	58.9693	6,726.56	67.8553	6,726.56	67.2806	6,726.56	61.111	6,726.56	63.5316	6,726.56	38.3897	6,726.56	63.1005	6,726.56	57.0205	6,726.56	57.5543
6,963.87	85.8082	6,963.87	85.1811	6,963.87	86.1698	6,963.87	85.9032	6,963.87	86.3994	6,963.87	85.1658	6,963.87	85.3203	6,963.87	83.0037	6,963.87	84.2403	6,963.87	82.8202	6,963.87	83.5228	6,963.87	80.9751	6,963.87	78.5214	6,963.87	79.5878	6,963.87	76.6745	6,963.87	74.7776	6,963.87	74.7224	6,963.87	71.8074	6,963.87	66.5356	6,963.87	68.9632	6,963.87	68.4996	6,963.87	67.9365	6,963.87	63.7727	6,963.87	48.6827	6,963.87	55.566	6,963.87	64.7597	6,963.87	60.7168	6,963.87	58.4411	6,963.87	65.3105	6,963.87	55.7026	6,963.87	52.1094	6,963.87	64.9991	6,963.87	51.921	6,963.87	64.4534	6,963.87	56.5588	6,963.87	62.314
7,209.96	85.5715	7,209.96	84.9771	7,209.96	86.0825	7,209.96	86.5775	7,209.96	86.2755	7,209.96	84.7112	7,209.96	84.8098	7,209.96	82.8208	7,209.96	84.1202	7,209.96	82.7965	7,209.96	83.4902	7,209.96	80.3989	7,209.96	77.7665	7,209.96	77.9932	7,209.96	76.0149	7,209.96	73.9016	7,209.96	78.1206	7,209.96	69.9411	7,209.96	72.4433	7,209.96	66.6393	7,209.96	67.0101	7,209.96	69.0761	7,209.96	65.2818	7,209.96	63.6745	7,209.96	56.4604	7,209.96	65.3049	7,209.96	60.2476	7,209.96	55.1342	7,209.96	62.9472	7,209.96	63.2323	7,209.96	52.1516	7,209.96	62.0154	7,209.96	45.7083	7,209.96	61.2033	7,209.96	54.975	7,209.96	56.0258
7,464.84	85.5367	7,464.84	85.1194	7,464.84	86.3825	7,464.84	86.8381	7,464.84	86.1949	7,464.84	84.5052	7,464.84	85.2163	7,464.84	83.1646	7,464.84	84.1657	7,464.84	82.5328	7,464.84	82.6998	7,464.84	79.7703	7,464.84	77.9605	7,464.84	77.417	7,464.84	72.9705	7,464.84	74.6905	7,464.84	77.0189	7,464.84	69.3975	7,464.84	72.5495	7,464.84	68.778	7,464.84	67.4752	7,464.84	65.0676	7,464.84	64.169	7,464.84	65.04	7,464.84	59.5128	7,464.84	63.0124	7,464.84	59.4656	7,464.84	51.8852	7,464.84	61.8443	7,464.84	67.6137	7,464.84	57.8713	7,464.84	52.0522	7,464.84	54.9571	7,464.84	64.7791	7,464.84	54.5772	7,464.84	60.8164
7,728.52	85.5139	7,728.52	85.5155	7,728.52	86.0329	7,728.52	86.9904	7,728.52	86.0197	7,728.52	84.7539	7,728.52	85.1325	7,728.52	82.8951	7,728.52	84.155	7,728.52	82.6497	7,728.52	81.7079	7,728.52	79.3923	7,728.52	79.625	7,728.52	76.7311	7,728.52	70.6224	7,728.52	73.3912	7,728.52	76.2888	7,728.52	69.5906	7,728.52	74.6699	7,728.52	69.0362	7,728.52	65.6104	7,728.52	64.1251	7,728.52	62.7585	7,728.52	64.2412	7,728.52	57.8062	7,728.52	60.8811	7,728.52	54.3504	7,728.52	59.2415	7,728.52	52.2554	7,728.52	62.4099	7,728.52	60.2818	7,728.52	62.5442	7,728.52	49.4187	7,728.52	57.5574	7,728.52	48.7175	7,728.52	60.6687
8,000.98	85.8401	8,000.98	86.3831	8,000.98	85.9313	8,000.98	86.8156	8,000.98	86.2136	8,000.98	85.1297	8,000.98	84.8161	8,000.98	82.6184	8,000.98	84.1398	8,000.98	82.5278	8,000.98	81.0692	8,000.98	79.5474	8,000.98	80.8607	8,000.98	75.2583	8,000.98	70.2191	8,000.98	72.0623	8,000.98	69.0926	8,000.98	69.414	8,000.98	72.1368	8,000.98	65.2671	8,000.98	64.1132	8,000.98	68.7981	8,000.98	47.7902	8,000.98	65.8537	8,000.98	48.4137	8,000.98	68.2696	8,000.98	55.3088	8,000.98	50.652	8,000.98	57.8268	8,000.98	64.1459	8,000.98	52.0364	8,000.98	67.2629	8,000.98	47.9472	8,000.98	63.906	8,000.98	55.1912	8,000.98	60.8241
8,282.23	86.6321	8,282.23	86.927	8,282.23	86.1635	8,282.23	86.7759	8,282.23	86.6654	8,282.23	84.8692	8,282.23	85.1515	8,282.23	83.0721	8,282.23	84.0296	8,282.23	82.3205	8,282.23	80.5209	8,282.23	79.0995	8,282.23	80.392	8,282.23	75.5218	8,282.23	70.8012	8,282.23	72.45	8,282.23	63.7497	8,282.23	69.5867	8,282.23	64.1618	8,282.23	67.6719	8,282.23	58.4354	8,282.23	61.2676	8,282.23	54.5219	8,282.23	67.9341	8,282.23	41.7686	8,282.23	60.78	8,282.23	49.748	8,282.23	62.2563	8,282.23	56.1506	8,282.23	68.6777	8,282.23	55.3941	8,282.23	61.5944	8,282.23	58.6636	8,282.23	53.6574	8,282.23	51.4533	8,282.23	49.915
8,575.2	86.9341	8,575.2	86.8415	8,575.2	86.3996	8,575.2	86.5251	8,575.2	86.8957	8,575.2	84.4908	8,575.2	85.0567	8,575.2	83.1145	8,575.2	83.5886	8,575.2	81.7528	8,575.2	81.2599	8,575.2	78.8555	8,575.2	80.1748	8,575.2	76.0632	8,575.2	74.0117	8,575.2	72.9945	8,575.2	71.6927	8,575.2	68.222	8,575.2	64.4058	8,575.2	65.0494	8,575.2	57.4401	8,575.2	66.7814	8,575.2	51.5045	8,575.2	67.8402	8,575.2	45.1833	8,575.2	69.2985	8,575.2	48.6608	8,575.2	62.3165	8,575.2	49.397	8,575.2	68.5549	8,575.2	56.4654	8,575.2	68.692	8,575.2	54.5226	8,575.2	62.2732	8,575.2	27.1053	8,575.2	63.9026
8,876.95	86.9469	8,876.95	86.7134	8,876.95	86.2264	8,876.95	86.2813	8,876.95	87.2845	8,876.95	85.0012	8,876.95	85.3383	8,876.95	82.6578	8,876.95	83.8116	8,876.95	81.5698	8,876.95	81.7912	8,876.95	78.8738	8,876.95	79.3812	8,876.95	75.6007	8,876.95	72.6127	8,876.95	72.8191	8,876.95	71.7467	8,876.95	68.2611	8,876.95	66.2483	8,876.95	67.1156	8,876.95	55.1534	8,876.95	64.2145	8,876.95	62.2458	8,876.95	63.2771	8,876.95	53.5798	8,876.95	70.4165	8,876.95	53.2934	8,876.95	64.6391	8,876.95	43.1548	8,876.95	64.4642	8,876.95	55.7887	8,876.95	72.5903	8,876.95	59.1429	8,876.95	49.7532	8,876.95	57.3305	8,876.95	54.2054
9,190.43	86.9195	9,190.43	86.8302	9,190.43	86.0002	9,190.43	86.188	9,190.43	87.1196	9,190.43	85.3041	9,190.43	85.18	9,190.43	82.3303	9,190.43	84.0124	9,190.43	80.9974	9,190.43	81.4463	9,190.43	79.107	9,190.43	77.8612	9,190.43	75.7522	9,190.43	73.2501	9,190.43	72.9656	9,190.43	72.0521	9,190.43	69.8094	9,190.43	68.4838	9,190.43	65.0611	9,190.43	56.4898	9,190.43	59.3407	9,190.43	62.3099	9,190.43	66.5036	9,190.43	55.8739	9,190.43	68.5344	9,190.43	57.172	9,190.43	65.173	9,190.43	54.9012	9,190.43	70.99	9,190.43	52.9233	9,190.43	49.7273	9,190.43	47.3058	9,190.43	53.6171	9,190.43	44.1159	9,190.43	60.6602
9,512.7	87.0657	9,512.7	86.7707	9,512.7	86.3322	9,512.7	86.3139	9,512.7	87.0011	9,512.7	85.1459	9,512.7	84.9725	9,512.7	82.8184	9,512.7	83.7738	9,512.7	80.3502	9,512.7	80.6112	9,512.7	79.2378	9,512.7	76.598	9,512.7	75.1115	9,512.7	75.496	9,512.7	71.8835	9,512.7	70.8754	9,512.7	67.1623	9,512.7	58.9345	9,512.7	63.6846	9,512.7	46.1501	9,512.7	59.8118	9,512.7	58.8811	9,512.7	68.6177	9,512.7	40.6713	9,512.7	69.537	9,512.7	50.9279	9,512.7	63.8035	9,512.7	57.2727	9,512.7	67.4901	9,512.7	56.6122	9,512.7	73.1127	9,512.7	55.8029	9,512.7	54.556	9,512.7	56.0154	9,512.7	57.2024
9,849.61	87.0844	9,849.61	86.8525	9,849.61	86.744	9,849.61	86.3801	9,849.61	86.7285	9,849.61	85.1801	9,849.61	84.9828	9,849.61	82.2985	9,849.61	83.2029	9,849.61	80.6793	9,849.61	80.5962	9,849.61	78.5676	9,849.61	77.0092	9,849.61	73.7231	9,849.61	74.3423	9,849.61	69.4191	9,849.61	69.4078	9,849.61	63.6318	9,849.61	60.2254	9,849.61	63.0144	9,849.61	50.439	9,849.61	59.3009	9,849.61	36.1347	9,849.61	62.8133	9,849.61	51.3792	9,849.61	68.9159	9,849.61	40.5456	9,849.61	65.6147	9,849.61	48.369	9,849.61	68.0832	9,849.61	42.5823	9,849.61	62.8833	9,849.61	45.9395	9,849.61	57.0146	9,849.61	52.5476	9,849.61	54.8844
10,195.3	87.2563	10,195.3	87.1332	10,195.3	87.0166	10,195.3	86.4462	10,195.3	86.5334	10,195.3	84.6592	10,195.3	85.006	10,195.3	81.6115	10,195.3	83.0212	10,195.3	80.8945	10,195.3	80.6648	10,195.3	78.2372	10,195.3	77.5015	10,195.3	72.1125	10,195.3	72.6903	10,195.3	67.6461	10,195.3	68.7346	10,195.3	64.0969	10,195.3	58.5016	10,195.3	59.9936	10,195.3	48.8728	10,195.3	57.6317	10,195.3	40.6414	10,195.3	64.8075	10,195.3	49.7772	10,195.3	69.9533	10,195.3	52.7337	10,195.3	65.6877	10,195.3	50.7568	10,195.3	70.2139	10,195.3	54.6942	10,195.3	68.5879	10,195.3	54.1592	10,195.3	59.2217	10,195.3	47.7536	10,195.3	55.2767
10,555.7	87.611	10,555.7	86.9762	10,555.7	87.1874	10,555.7	86.5383	10,555.7	86.5291	10,555.7	84.0944	10,555.7	84.8383	10,555.7	81.4176	10,555.7	82.3429	10,555.7	80.2271	10,555.7	80.5795	10,555.7	77.4895	10,555.7	77.0299	10,555.7	71.5983	10,555.7	69.6803	10,555.7	67.4008	10,555.7	66.8148	10,555.7	63.5786	10,555.7	61.4206	10,555.7	57.95	10,555.7	53.5867	10,555.7	60.5449	10,555.7	48.1683	10,555.7	56.6327	10,555.7	44.2832	10,555.7	69.7505	10,555.7	51.4906	10,555.7	64.8664	10,555.7	52.1217	10,555.7	70.2265	10,555.7	47.0315	10,555.7	69.2439	10,555.7	47.6926	10,555.7	54.0895	10,555.7	50.9041	10,555.7	52.7272
10,927.7	87.9271	10,927.7	86.574	10,927.7	87.3292	10,927.7	86.8067	10,927.7	86.6791	10,927.7	83.9234	10,927.7	84.9232	10,927.7	81.2464	10,927.7	82.293	10,927.7	79.9503	10,927.7	80.1193	10,927.7	76.4498	10,927.7	76.0205	10,927.7	71.4743	10,927.7	70.0939	10,927.7	67.4554	10,927.7	57.3672	10,927.7	62.88	10,927.7	54.1633	10,927.7	54.9152	10,927.7	49.8625	10,927.7	51.5261	10,927.7	49.451	10,927.7	55.5986	10,927.7	46.3971	10,927.7	68.8871	10,927.7	51.5084	10,927.7	66.3315	10,927.7	54.8567	10,927.7	68.0928	10,927.7	54.9094	10,927.7	66.3069	10,927.7	52.7866	10,927.7	63.5262	10,927.7	57.4132	10,927.7	56.4148
11,314.5	87.7551	11,314.5	86.6159	11,314.5	87.5144	11,314.5	86.8587	11,314.5	86.7238	11,314.5	84.2864	11,314.5	84.899	11,314.5	81.5317	11,314.5	82.6857	11,314.5	78.8705	11,314.5	79.5488	11,314.5	76.4246	11,314.5	74.5911	11,314.5	71.4436	11,314.5	70.5489	11,314.5	66.7479	11,314.5	65.2127	11,314.5	63.1206	11,314.5	53.9987	11,314.5	61.6704	11,314.5	55.3154	11,314.5	54.643	11,314.5	53.6941	11,314.5	57.8036	11,314.5	48.4699	11,314.5	69.8436	11,314.5	47.5082	11,314.5	64.9637	11,314.5	48.4161	11,314.5	70.3233	11,314.5	48.8041	11,314.5	70.9905	11,314.5	47.7735	11,314.5	52.67	11,314.5	55.8952	11,314.5	45.3189
11,712.9	87.5276	11,712.9	86.9188	11,712.9	87.3909	11,712.9	86.9598	11,712.9	86.8087	11,712.9	84.2532	11,712.9	85.0274	11,712.9	81.4361	11,712.9	82.7751	11,712.9	77.7651	11,712.9	78.3802	11,712.9	76.087	11,712.9	72.9085	11,712.9	71.3344	11,712.9	70.5958	11,712.9	66.897	11,712.9	66.1647	11,712.9	62.263	11,712.9	55.1622	11,712.9	56.5274	11,712.9	52.133	11,712.9	56.2183	11,712.9	46.0049	11,712.9	43.6146	11,712.9	52.8986	11,712.9	65.8325	11,712.9	48.0163	11,712.9	65.9743	11,712.9	55.3259	11,712.9	69.4709	11,712.9	43.4605	11,712.9	66.9862	11,712.9	41.7706	11,712.9	61.6618	11,712.9	54.4785	11,712.9	51.731
12,126	87.5325	12,126	87.0489	12,126	86.9598	12,126	86.7578	12,126	86.5736	12,126	84.3449	12,126	84.5608	12,126	80.8142	12,126	82.4044	12,126	77.5432	12,126	77.6288	12,126	75.5958	12,126	72.9328	12,126	70.6548	12,126	68.6772	12,126	64.8729	12,126	65.9885	12,126	60.7319	12,126	51.4584	12,126	59.9314	12,126	42.9721	12,126	50.6992	12,126	57.1089	12,126	53.3776	12,126	45.548	12,126	66.6752	12,126	46.0838	12,126	65.2612	12,126	44.4499	12,126	70.1976	12,126	55.4548	12,126	71.9913	12,126	57.0575	12,126	55.7166	12,126	58.2567	12,126	44.7448
12,553.7	87.6871	12,553.7	87.0329	12,553.7	87.1838	12,553.7	86.3075	12,553.7	86.3879	12,553.7	84.1887	12,553.7	84.5359	12,553.7	80.4358	12,553.7	81.4232	12,553.7	76.4072	12,553.7	77.5848	12,553.7	74.9839	12,553.7	74.0642	12,553.7	70.1642	12,553.7	68.7809	12,553.7	64.5328	12,553.7	63.6669	12,553.7	61.6324	12,553.7	50.4436	12,553.7	56.7067	12,553.7	49.1347	12,553.7	55.407	12,553.7	43.4597	12,553.7	52.6626	12,553.7	53.4588	12,553.7	58.2717	12,553.7	54.1031	12,553.7	67.9773	12,553.7	51.0285	12,553.7	68.9518	12,553.7	50.9812	12,553.7	64.6385	12,553.7	51.8458	12,553.7	61.4962	12,553.7	52.2668	12,553.7	55.2949
12,996.1	87.645	12,996.1	86.8563	12,996.1	87.4287	12,996.1	86.034	12,996.1	86.2003	12,996.1	83.7175	12,996.1	84.2142	12,996.1	80.0758	12,996.1	80.7031	12,996.1	76.5589	12,996.1	77.1239	12,996.1	73.8427	12,996.1	73.7458	12,996.1	69.6136	12,996.1	69.3748	12,996.1	64.5762	12,996.1	61.8698	12,996.1	61.2412	12,996.1	49.605	12,996.1	55.4169	12,996.1	44.0405	12,996.1	53.8156	12,996.1	42.723	12,996.1	56.2901	12,996.1	52.8869	12,996.1	62.7867	12,996.1	55.893	12,996.1	66.7192	12,996.1	55.3894	12,996.1	68.4526	12,996.1	38.3064	12,996.1	71.3206	12,996.1	51.2594	12,996.1	60.121	12,996.1	40.7267	12,996.1	51.3133
13,453.1	87.572	13,453.1	87.0013	13,453.1	87.4337	13,453.1	85.6319	13,453.1	86.0488	13,453.1	83.2134	13,453.1	83.6626	13,453.1	79.5642	13,453.1	80.5085	13,453.1	76.3772	13,453.1	76.1167	13,453.1	73.2237	13,453.1	72.4825	13,453.1	69.513	13,453.1	68.9037	13,453.1	64.0668	13,453.1	61.1413	13,453.1	61.3822	13,453.1	49.2084	13,453.1	51.7236	13,453.1	45.1027	13,453.1	56.8176	13,453.1	46.1796	13,453.1	54.3254	13,453.1	53.0779	13,453.1	53.5043	13,453.1	52.4637	13,453.1	68.618	13,453.1	56.0665	13,453.1	65.105	13,453.1	45.3065	13,453.1	67.5288	13,453.1	50.7042	13,453.1	64.9268	13,453.1	50.2403	13,453.1	46.9382
13,927.7	87.5553	13,927.7	87.0577	13,927.7	87.165	13,927.7	85.507	13,927.7	86.0032	13,927.7	82.6799	13,927.7	83.3789	13,927.7	79.3948	13,927.7	80.1316	13,927.7	75.8029	13,927.7	75.4203	13,927.7	72.8803	13,927.7	70.4948	13,927.7	68.9372	13,927.7	67.1885	13,927.7	64.3431	13,927.7	62.1782	13,927.7	60.972	13,927.7	47.8598	13,927.7	54.2897	13,927.7	39.2785	13,927.7	54.5405	13,927.7	50.3794	13,927.7	52.338	13,927.7	48.0614	13,927.7	60.3599	13,927.7	43.259	13,927.7	68.6187	13,927.7	48.7303	13,927.7	65.6546	13,927.7	49.4026	13,927.7	70.5954	13,927.7	37.6184	13,927.7	65.134	13,927.7	51.378	13,927.7	53.7798
14,419.9	87.548	14,419.9	86.6801	14,419.9	86.7752	14,419.9	85.424	14,419.9	85.7832	14,419.9	82.4696	14,419.9	83.4769	14,419.9	79.5042	14,419.9	79.8828	14,419.9	75.0188	14,419.9	75.1749	14,419.9	72.739	14,419.9	70.6185	14,419.9	68.8157	14,419.9	64.6532	14,419.9	63.2216	14,419.9	59.3582	14,419.9	57.4572	14,419.9	52.5375	14,419.9	59.1116	14,419.9	44.8418	14,419.9	49.7226	14,419.9	48.6915	14,419.9	43.6572	14,419.9	50.2924	14,419.9	58.8293	14,419.9	51.5583	14,419.9	64.9799	14,419.9	45.9942	14,419.9	67.3049	14,419.9	48.2631	14,419.9	70.054	14,419.9	53.2109	14,419.9	60.9736	14,419.9	53.4974	14,419.9	45.7449
14,929.7	87.583	14,929.7	86.44	14,929.7	86.8809	14,929.7	85.0999	14,929.7	85.6728	14,929.7	82.1267	14,929.7	83.263	14,929.7	79.5094	14,929.7	79.535	14,929.7	74.9189	14,929.7	75.2706	14,929.7	72.111	14,929.7	70.3288	14,929.7	68.094	14,929.7	64.5698	14,929.7	65.6393	14,929.7	58.7936	14,929.7	58.4396	14,929.7	55.6945	14,929.7	57.6826	14,929.7	40.5721	14,929.7	58.7486	14,929.7	51.798	14,929.7	50.6356	14,929.7	36.1697	14,929.7	59.2951	14,929.7	36.8937	14,929.7	66.0627	14,929.7	40.5053	14,929.7	67.8601	14,929.7	36.3561	14,929.7	71.5632	14,929.7	50.9211	14,929.7	60.0017	14,929.7	50.6908	14,929.7	48.1737
15,454.1	87.9157	15,454.1	86.3262	15,454.1	86.8893	15,454.1	84.9736	15,454.1	85.4599	15,454.1	82.1836	15,454.1	82.6614	15,454.1	78.835	15,454.1	79.4798	15,454.1	74.5917	15,454.1	74.7711	15,454.1	71.8738	15,454.1	70.4277	15,454.1	68.4596	15,454.1	65.5936	15,454.1	65.2355	15,454.1	57.0905	15,454.1	59.9361	15,454.1	52.0733	15,454.1	60.0484	15,454.1	51.7172	15,454.1	53.4143	15,454.1	52.8089	15,454.1	54.6741	15,454.1	53.1116	15,454.1	60.202	15,454.1	51.8278	15,454.1	61.6772	15,454.1	50.2235	15,454.1	67.6904	15,454.1	43.8288	15,454.1	71.3543	15,454.1	51.1504	15,454.1	67.2214	15,454.1	50.082	15,454.1	57.2074
15,999	87.7763	15,999	86.3011	15,999	86.6775	15,999	85.007	15,999	85.4104	15,999	82.071	15,999	82.5754	15,999	78.5453	15,999	79.3882	15,999	74.8075	15,999	74.3206	15,999	70.6983	15,999	69.5524	15,999	67.8465	15,999	63.4199	15,999	65.3612	15,999	50.769	15,999	62.4042	15,999	59.433	15,999	54.7924	15,999	54.0777	15,999	53.5332	15,999	56.4149	15,999	57.0745	15,999	54.9265	15,999	59.7768	15,999	57.2967	15,999	60.2248	15,999	45.934	15,999	68.481	15,999	42.6231	15,999	69.118	15,999	53.8301	15,999	68.0321	15,999	52.5717	15,999	58.4886
16,564.5	87.4352	16,564.5	86.1971	16,564.5	86.4301	16,564.5	84.9845	16,564.5	85.517	16,564.5	81.9535	16,564.5	82.5272	16,564.5	78.1537	16,564.5	79.1657	16,564.5	74.1441	16,564.5	74.4413	16,564.5	69.6497	16,564.5	68.9397	16,564.5	67.1888	16,564.5	63.7925	16,564.5	63.9851	16,564.5	51.6511	16,564.5	61.314	16,564.5	60.2345	16,564.5	51.3664	16,564.5	54.5076	16,564.5	53.7836	16,564.5	57.3756	16,564.5	56.9218	16,564.5	56.3866	16,564.5	61.8109	16,564.5	56.1748	16,564.5	62.906	16,564.5	52.021	16,564.5	67.2861	16,564.5	50.6636	16,564.5	70.3153	16,564.5	54.2623	16,564.5	66.915	16,564.5	53.8679	16,564.5	56.8355
17,147.5	87.3586	17,147.5	86.0874	17,147.5	86.41	17,147.5	85.0425	17,147.5	85.4616	17,147.5	81.4319	17,147.5	82.2811	17,147.5	78.2944	17,147.5	78.3908	17,147.5	73.7178	17,147.5	73.867	17,147.5	69.7548	17,147.5	69.3523	17,147.5	65.7435	17,147.5	64.6837	17,147.5	61.784	17,147.5	60.5683	17,147.5	58.8948	17,147.5	58.1602	17,147.5	56.0766	17,147.5	57.2428	17,147.5	50.7981	17,147.5	57.3156	17,147.5	59.644	17,147.5	55.4771	17,147.5	54.6933	17,147.5	58.4895	17,147.5	62.9132	17,147.5	52.6373	17,147.5	65.5189	17,147.5	46.3952	17,147.5	68.0667	17,147.5	50.7175	17,147.5	66.6436	17,147.5	57.1204	17,147.5	49.1331
17,753.9	87.2468	17,753.9	86.1351	17,753.9	86.5385	17,753.9	84.8432	17,753.9	85.4313	17,753.9	80.7142	17,753.9	82.0143	17,753.9	77.9723	17,753.9	77.3253	17,753.9	73.2331	17,753.9	72.6883	17,753.9	68.3931	17,753.9	68.5168	17,753.9	64.2668	17,753.9	63.0692	17,753.9	61.5846	17,753.9	59.9378	17,753.9	56.8915	17,753.9	54.3819	17,753.9	56.1862	17,753.9	55.4345	17,753.9	57.1271	17,753.9	50.7316	17,753.9	60.2939	17,753.9	43.2195	17,753.9	57.5727	17,753.9	48.4286	17,753.9	59.1964	17,753.9	32.8643	17,753.9	64.1684	17,753.9	36.9588	17,753.9	69.2573	17,753.9	37.7148	17,753.9	64.4476	17,753.9	55.6916	17,753.9	48.6649
18,377.9	86.7188	18,377.9	85.8597	18,377.9	86.2135	18,377.9	84.4527	18,377.9	85.0039	18,377.9	79.8416	18,377.9	81.4189	18,377.9	76.9053	18,377.9	76.9717	18,377.9	72.0256	18,377.9	70.7436	18,377.9	66.6271	18,377.9	64.6044	18,377.9	62.748	18,377.9	58.5877	18,377.9	59.0885	18,377.9	61.1503	18,377.9	57.1839	18,377.9	56.6372	18,377.9	43.5741	18,377.9	58.203	18,377.9	47.7236	18,377.9	51.0979	18,377.9	57.0669	18,377.9	51.7693	18,377.9	57.2533	18,377.9	55.1133	18,377.9	62.2742	18,377.9	51.4546	18,377.9	65.2012	18,377.9	44.2882	18,377.9	68.6108	18,377.9	49.3782	18,377.9	67.832	18,377.9	43.7659	18,377.9	53.8593
19,028.3	85.7098	19,028.3	85.1015	19,028.3	85.4013	19,028.3	83.7598	19,028.3	83.9675	19,028.3	79.8228	19,028.3	80.704	19,028.3	76.5175	19,028.3	76.9737	19,028.3	71.2315	19,028.3	67.9943	19,028.3	65.3131	19,028.3	62.2716	19,028.3	61.7777	19,028.3	58.3973	19,028.3	57.2941	19,028.3	59.1037	19,028.3	55.1451	19,028.3	53.3558	19,028.3	41.9209	19,028.3	52.6543	19,028.3	53.4069	19,028.3	38.3058	19,028.3	55.7481	19,028.3	40.4705	19,028.3	56.9151	19,028.3	51.3725	19,028.3	60.1687	19,028.3	36.0088	19,028.3	63.8515	19,028.3	40.7275	19,028.3	65.6714	19,028.3	47.0273	19,028.3	67.6134	19,028.3	38.9961	19,028.3	49.4505
19,699.2	85.2491	19,699.2	84.562	19,699.2	85.0977	19,699.2	82.3176	19,699.2	82.8676	19,699.2	79.5109	19,699.2	80.0526	19,699.2	75.3353	19,699.2	75.9575	19,699.2	70.1978	19,699.2	68.0554	19,699.2	65.4828	19,699.2	62.8432	19,699.2	61.6261	19,699.2	57.9669	19,699.2	59.167	19,699.2	60.0891	19,699.2	55.4864	19,699.2	55.1594	19,699.2	45.492	19,699.2	54.9435	19,699.2	55.2806	19,699.2	45.6615	19,699.2	53.665	19,699.2	43.4435	19,699.2	56.2777	19,699.2	36.6084	19,699.2	57.1297	19,699.2	41.666	19,699.2	60.0246	19,699.2	38.7909	19,699.2	65.014	19,699.2	35.6041	19,699.2	67.1697	19,699.2	31.6929	19,699.2	53.896
19,998	84.7044	19,998	84.0954	19,998	84.9939	19,998	81.3419	19,998	82.3265	19,998	79.2504	19,998	80.0854	19,998	74.4435	19,998	74.1988	19,998	68.3594	19,998	68.4619	19,998	64.4101	19,998	66.4489	19,998	62.526	19,998	63.8174	19,998	58.4595	19,998	61.2517	19,998	56.5558	19,998	58.2874	19,998	46.7091	19,998	47.3555	19,998	50.1458	19,998	34.1134	19,998	43.8302	19,998	44.9685	19,998	56.0201	19,998	33.6153	19,998	60.9858	19,998	45.1554	19,998	61.6001	19,998	50.169	19,998	62.5763	19,998	48.4639	19,998	59.152	19,998	42.4976	19,998	58.5928
