"SPL Horizontal"
"On-Axis"		"10°"		"-10°"		"20°"		"-20°"		"30°"		"-30°"		"40°"		"-40°"		"50°"		"-50°"		"60°"		"-60°"		"70°"		"-70°"		"80°"		"-80°"		"90°"		"-90°"		"100°"		"-100°"		"110°"		"-110°"		"120°"		"-120°"		"130°"		"-130°"		"140°"		"-140°"		"150°"		"-150°"		"160°"		"-160°"		"170°"		"-170°"		"180°"
"Frequency [Hz]"	"Sound Pessure Level [dB]  / [2.83V 1m] "	"Frequency [Hz]"	"Sound Pessure Level [dB]  / [2.83V 1m] "	"Frequency [Hz]"	"Sound Pessure Level [dB]  / [2.83V 1m] "	"Frequency [Hz]"	"Sound Pessure Level [dB]  / [2.83V 1m] "	"Frequency [Hz]"	"Sound Pessure Level [dB]  / [2.83V 1m] "	"Frequency [Hz]"	"Sound Pessure Level [dB]  / [2.83V 1m] "	"Frequency [Hz]"	"Sound Pessure Level [dB]  / [2.83V 1m] "	"Frequency [Hz]"	"Sound Pessure Level [dB]  / [2.83V 1m] "	"Frequency [Hz]"	"Sound Pessure Level [dB]  / [2.83V 1m] "	"Frequency [Hz]"	"Sound Pessure Level [dB]  / [2.83V 1m] "	"Frequency [Hz]"	"Sound Pessure Level [dB]  / [2.83V 1m] "	"Frequency [Hz]"	"Sound Pessure Level [dB]  / [2.83V 1m] "	"Frequency [Hz]"	"Sound Pessure Level [dB]  / [2.83V 1m] "	"Frequency [Hz]"	"Sound Pessure Level [dB]  / [2.83V 1m] "	"Frequency [Hz]"	"Sound Pessure Level [dB]  / [2.83V 1m] "	"Frequency [Hz]"	"Sound Pessure Level [dB]  / [2.83V 1m] "	"Frequency [Hz]"	"Sound Pessure Level [dB]  / [2.83V 1m] "	"Frequency [Hz]"	"Sound Pessure Level [dB]  / [2.83V 1m] "	"Frequency [Hz]"	"Sound Pessure Level [dB]  / [2.83V 1m] "	"Frequency [Hz]"	"Sound Pessure Level [dB]  / [2.83V 1m] "	"Frequency [Hz]"	"Sound Pessure Level [dB]  / [2.83V 1m] "	"Frequency [Hz]"	"Sound Pessure Level [dB]  / [2.83V 1m] "	"Frequency [Hz]"	"Sound Pessure Level [dB]  / [2.83V 1m] "	"Frequency [Hz]"	"Sound Pessure Level [dB]  / [2.83V 1m] "	"Frequency [Hz]"	"Sound Pessure Level [dB]  / [2.83V 1m] "	"Frequency [Hz]"	"Sound Pessure Level [dB]  / [2.83V 1m] "	"Frequency [Hz]"	"Sound Pessure Level [dB]  / [2.83V 1m] "	"Frequency [Hz]"	"Sound Pessure Level [dB]  / [2.83V 1m] "	"Frequency [Hz]"	"Sound Pessure Level [dB]  / [2.83V 1m] "	"Frequency [Hz]"	"Sound Pessure Level [dB]  / [2.83V 1m] "	"Frequency [Hz]"	"Sound Pessure Level [dB]  / [2.83V 1m] "	"Frequency [Hz]"	"Sound Pessure Level [dB]  / [2.83V 1m] "	"Frequency [Hz]"	"Sound Pessure Level [dB]  / [2.83V 1m] "	"Frequency [Hz]"	"Sound Pessure Level [dB]  / [2.83V 1m] "	"Frequency [Hz]"	"Sound Pessure Level [dB]  / [2.83V 1m] "	"Frequency [Hz]"	"Sound Pessure Level [dB]  / [2.83V 1m] "
20.5078	72.2397	20.5078	72.2151	20.5078	72.2434	20.5078	72.1701	20.5078	72.226	20.5078	72.1052	20.5078	72.188	20.5078	72.0215	20.5078	72.1296	20.5078	71.9206	20.5078	72.0518	20.5078	71.8044	20.5078	71.9559	20.5078	71.6755	20.5078	71.8436	20.5078	71.5369	20.5078	71.7172	20.5078	71.3924	20.5078	71.5796	20.5078	71.2462	20.5078	71.4344	20.5078	71.1028	20.5078	71.2858	20.5078	70.9674	20.5078	71.1387	20.5078	70.845	20.5078	70.9984	20.5078	70.7403	20.5078	70.8703	20.5078	70.658	20.5078	70.7597	20.5078	70.6016	20.5078	70.6715	20.5078	70.574	20.5078	70.6096	20.5078	70.5766
23.4375	77.3191	23.4375	77.2983	23.4375	77.3218	23.4375	77.2597	23.4375	77.3064	23.4375	77.2038	23.4375	77.273	23.4375	77.1318	23.4375	77.2222	23.4375	77.0448	23.4375	77.1549	23.4375	76.9448	23.4375	77.0723	23.4375	76.8341	23.4375	76.976	23.4375	76.7155	23.4375	76.8682	23.4375	76.5925	23.4375	76.7517	23.4375	76.4689	23.4375	76.6297	23.4375	76.3488	23.4375	76.5059	23.4375	76.2366	23.4375	76.3844	23.4375	76.1364	23.4375	76.2695	23.4375	76.0521	23.4375	76.1653	23.4375	75.9868	23.4375	76.0758	23.4375	75.9432	23.4375	76.0045	23.4375	75.9228	23.4375	75.954	23.4375	75.9265
26.3672	79.7335	26.3672	79.7155	26.3672	79.7349	26.3672	79.6815	26.3672	79.7197	26.3672	79.6321	26.3672	79.6881	26.3672	79.5686	26.3672	79.6406	26.3672	79.4924	26.3672	79.5782	26.3672	79.4055	26.3672	79.5023	26.3672	79.3102	26.3672	79.4148	26.3672	79.2093	26.3672	79.3178	26.3672	79.1057	26.3672	79.2143	26.3672	79.0026	26.3672	79.1075	26.3672	78.9035	26.3672	79.0009	26.3672	78.8114	26.3672	78.8984	26.3672	78.7294	26.3672	78.8036	26.3672	78.66	26.3672	78.7199	26.3672	78.6054	26.3672	78.6503	26.3672	78.5672	26.3672	78.597	26.3672	78.5467	26.3672	78.5615	26.3672	78.5447
29.2969	81.3141	29.2969	81.296	29.2969	81.3183	29.2969	81.2641	29.2969	81.3087	29.2969	81.219	29.2969	81.2855	29.2969	81.1613	29.2969	81.2494	29.2969	81.0921	29.2969	81.201	29.2969	81.013	29.2969	81.1414	29.2969	80.9258	29.2969	81.0718	29.2969	80.8329	29.2969	80.9938	29.2969	80.7372	29.2969	80.9093	29.2969	80.6416	29.2969	80.8205	29.2969	80.5497	29.2969	80.7296	29.2969	80.4649	29.2969	80.6393	29.2969	80.3907	29.2969	80.5523	29.2969	80.3301	29.2969	80.4714	29.2969	80.2857	29.2969	80.3994	29.2969	80.2594	29.2969	80.3391	29.2969	80.2519	29.2969	80.2931	29.2969	80.2635
32.2266	81.8241	32.2266	81.8185	32.2266	81.8188	32.2266	81.8021	32.2266	81.8026	32.2266	81.7755	32.2266	81.7757	32.2266	81.7396	32.2266	81.7388	32.2266	81.6955	32.2266	81.6929	32.2266	81.6446	32.2266	81.6394	32.2266	81.5884	32.2266	81.5799	32.2266	81.5287	32.2266	81.5163	32.2266	81.4675	32.2266	81.4509	32.2266	81.4067	32.2266	81.386	32.2266	81.3481	32.2266	81.324	32.2266	81.2934	32.2266	81.267	32.2266	81.2439	32.2266	81.217	32.2266	81.2009	32.2266	81.1755	32.2266	81.1653	32.2266	81.1437	32.2266	81.1379	32.2266	81.1221	32.2266	81.1193	32.2266	81.111	32.2266	81.1102
35.1562	82.5601	35.1562	82.5469	35.1562	82.5632	35.1562	82.5239	35.1562	82.5563	35.1562	82.4917	35.1562	82.5395	35.1562	82.4512	35.1562	82.5132	35.1562	82.4034	35.1562	82.4783	35.1562	82.3498	35.1562	82.4356	35.1562	82.2919	35.1562	82.3863	35.1562	82.2315	35.1562	82.332	35.1562	82.1707	35.1562	82.2741	35.1562	82.1113	35.1562	82.2144	35.1562	82.0552	35.1562	82.1548	35.1562	82.0044	35.1562	82.097	35.1562	81.9603	35.1562	82.0429	35.1562	81.9244	35.1562	81.9942	35.1562	81.8977	35.1562	81.9522	35.1562	81.881	35.1562	81.9184	35.1562	81.8747	35.1562	81.8938	35.1562	81.8791
38.0859	82.9881	38.0859	82.9716	38.0859	82.9973	38.0859	82.9481	38.0859	82.9989	38.0859	82.9181	38.0859	82.9932	38.0859	82.8827	38.0859	82.9804	38.0859	82.8429	38.0859	82.961	38.0859	82.8002	38.0859	82.9359	38.0859	82.756	38.0859	82.9058	38.0859	82.712	38.0859	82.8719	38.0859	82.6698	38.0859	82.8353	38.0859	82.6311	38.0859	82.7969	38.0859	82.5971	38.0859	82.7581	38.0859	82.5691	38.0859	82.7197	38.0859	82.5477	38.0859	82.6827	38.0859	82.5334	38.0859	82.648	38.0859	82.5263	38.0859	82.6162	38.0859	82.5263	38.0859	82.5882	38.0859	82.5331	38.0859	82.5646	38.0859	82.546
41.0156	83.8415	41.0156	83.8303	41.0156	83.8442	41.0156	83.811	41.0156	83.8386	41.0156	83.784	41.0156	83.8249	41.0156	83.7501	41.0156	83.8035	41.0156	83.7103	41.0156	83.7753	41.0156	83.6659	41.0156	83.7411	41.0156	83.6185	41.0156	83.7022	41.0156	83.5695	41.0156	83.6596	41.0156	83.5209	41.0156	83.6148	41.0156	83.4742	41.0156	83.5693	41.0156	83.4312	41.0156	83.5242	41.0156	83.3932	41.0156	83.481	41.0156	83.3614	41.0156	83.4408	41.0156	83.3367	41.0156	83.4046	41.0156	83.3196	41.0156	83.3731	41.0156	83.3102	41.0156	83.3472	41.0156	83.3086	41.0156	83.3275	41.0156	83.3145
43.9453	84.5155	43.9453	84.5135	43.9453	84.5107	43.9453	84.5048	43.9453	84.4994	43.9453	84.4898	43.9453	84.4819	43.9453	84.4691	43.9453	84.459	43.9453	84.4436	43.9453	84.4315	43.9453	84.4144	43.9453	84.4005	43.9453	84.3827	43.9453	84.3672	43.9453	84.3498	43.9453	84.333	43.9453	84.3169	43.9453	84.299	43.9453	84.2851	43.9453	84.2665	43.9453	84.2554	43.9453	84.2365	43.9453	84.2285	43.9453	84.21	43.9453	84.2049	43.9453	84.1875	43.9453	84.1849	43.9453	84.1695	43.9453	84.1686	43.9453	84.1562	43.9453	84.1563	43.9453	84.1475	43.9453	84.1479	43.9453	84.1433	43.9453	84.1435
46.875	85.1088	46.875	85.105	46.875	85.1045	46.875	85.093	46.875	85.092	46.875	85.0736	46.875	85.0716	46.875	85.0472	46.875	85.0439	46.875	85.0149	46.875	85.0097	46.875	84.9777	46.875	84.9703	46.875	84.9368	46.875	84.9268	46.875	84.8935	46.875	84.8809	46.875	84.8493	46.875	84.8342	46.875	84.8054	46.875	84.7883	46.875	84.7631	46.875	84.7447	46.875	84.7238	46.875	84.705	46.875	84.6883	46.875	84.6703	46.875	84.6576	46.875	84.6414	46.875	84.6324	46.875	84.6192	46.875	84.6132	46.875	84.6039	46.875	84.6005	46.875	84.5957	46.875	84.5946
49.8047	85.7212	49.8047	85.7136	49.8047	85.7213	49.8047	85.6989	49.8047	85.7138	49.8047	85.6777	49.8047	85.6989	49.8047	85.6507	49.8047	85.6771	49.8047	85.6189	49.8047	85.649	49.8047	85.5835	49.8047	85.6156	49.8047	85.5456	49.8047	85.578	49.8047	85.5066	49.8047	85.5375	49.8047	85.4677	49.8047	85.4956	49.8047	85.43	49.8047	85.4539	49.8047	85.3945	49.8047	85.4138	49.8047	85.3621	49.8047	85.3767	49.8047	85.3335	49.8047	85.3437	49.8047	85.3093	49.8047	85.3159	49.8047	85.29	49.8047	85.2938	49.8047	85.2759	49.8047	85.2778	49.8047	85.2674	49.8047	85.2682	49.8047	85.2648
52.7344	86.3668	52.7344	86.3609	52.7344	86.3647	52.7344	86.3474	52.7344	86.3548	52.7344	86.3269	52.7344	86.3372	52.7344	86.3001	52.7344	86.3124	52.7344	86.2681	52.7344	86.2814	52.7344	86.2319	52.7344	86.245	52.7344	86.1929	52.7344	86.2046	52.7344	86.1522	52.7344	86.1617	52.7344	86.1112	52.7344	86.1177	52.7344	86.0711	52.7344	86.0743	52.7344	86.0329	52.7344	86.0329	52.7344	85.9977	52.7344	85.995	52.7344	85.9663	52.7344	85.9617	52.7344	85.9395	52.7344	85.934	52.7344	85.9177	52.7344	85.9124	52.7344	85.9014	52.7344	85.8973	52.7344	85.891	52.7344	85.8888	52.7344	85.8867
55.6641	86.8893	55.6641	86.8869	55.6641	86.8832	55.6641	86.8765	55.6641	86.8687	55.6641	86.8584	55.6641	86.8461	55.6641	86.8335	55.6641	86.8158	55.6641	86.8025	55.6641	86.7788	55.6641	86.7666	55.6641	86.7361	55.6641	86.7268	55.6641	86.689	55.6641	86.6843	55.6641	86.6392	55.6641	86.6401	55.6641	86.5882	55.6641	86.5955	55.6641	86.5381	55.6641	86.5514	55.6641	86.4905	55.6641	86.5091	55.6641	86.4474	55.6641	86.4694	55.6641	86.4102	55.6641	86.4334	55.6641	86.3802	55.6641	86.402	55.6641	86.3583	55.6641	86.3762	55.6641	86.3451	55.6641	86.3568	55.6641	86.3407	55.6641	86.3447
58.5938	87.3307	58.5938	87.3175	58.5938	87.3365	58.5938	87.2974	58.5938	87.3345	58.5938	87.2712	58.5938	87.3248	58.5938	87.24	58.5938	87.3077	58.5938	87.2049	58.5938	87.2837	58.5938	87.1671	58.5938	87.2538	58.5938	87.128	58.5938	87.2188	58.5938	87.0887	58.5938	87.1801	58.5938	87.0504	58.5938	87.1391	58.5938	87.014	58.5938	87.0973	58.5938	86.9806	58.5938	87.056	58.5938	86.9508	58.5938	87.0167	58.5938	86.9253	58.5938	86.9807	58.5938	86.9046	58.5938	86.949	58.5938	86.8893	58.5938	86.9225	58.5938	86.8797	58.5938	86.9016	58.5938	86.8759	58.5938	86.8869	58.5938	86.8783
61.5234	87.6488	61.5234	87.6348	61.5234	87.6555	61.5234	87.6138	61.5234	87.6544	61.5234	87.587	61.5234	87.6457	61.5234	87.5554	61.5234	87.6296	61.5234	87.5202	61.5234	87.6069	61.5234	87.483	61.5234	87.5786	61.5234	87.4452	61.5234	87.5457	61.5234	87.408	61.5234	87.5095	61.5234	87.3726	61.5234	87.4716	61.5234	87.3402	61.5234	87.4334	61.5234	87.3115	61.5234	87.3963	61.5234	87.2871	61.5234	87.3615	61.5234	87.2674	61.5234	87.3302	61.5234	87.2526	61.5234	87.3029	61.5234	87.2425	61.5234	87.2803	61.5234	87.2373	61.5234	87.2623	61.5234	87.2366	61.5234	87.2491	61.5234	87.2406
64.4531	87.8556	64.4531	87.8392	64.4531	87.8634	64.4531	87.8147	64.4531	87.8623	64.4531	87.7832	64.4531	87.8521	64.4531	87.7459	64.4531	87.8334	64.4531	87.7042	64.4531	87.8067	64.4531	87.6597	64.4531	87.7731	64.4531	87.6139	64.4531	87.7337	64.4531	87.5684	64.4531	87.69	64.4531	87.5246	64.4531	87.6437	64.4531	87.4838	64.4531	87.5964	64.4531	87.447	64.4531	87.5499	64.4531	87.4152	64.4531	87.5058	64.4531	87.389	64.4531	87.4655	64.4531	87.3687	64.4531	87.4302	64.4531	87.3545	64.4531	87.4006	64.4531	87.3465	64.4531	87.3771	64.4531	87.3447	64.4531	87.36	64.4531	87.3492
67.3828	87.9915	67.3828	87.9714	67.3828	88.003	67.3828	87.9431	67.3828	88.0053	67.3828	87.9077	67.3828	87.9984	67.3828	87.8665	67.3828	87.9826	67.3828	87.8209	67.3828	87.9584	67.3828	87.7725	67.3828	87.9267	67.3828	87.7228	67.3828	87.8884	67.3828	87.6734	67.3828	87.8448	67.3828	87.6259	67.3828	87.7973	67.3828	87.5815	67.3828	87.7476	67.3828	87.5415	67.3828	87.6973	67.3828	87.507	67.3828	87.6481	67.3828	87.4788	67.3828	87.6016	67.3828	87.4576	67.3828	87.5591	67.3828	87.4439	67.3828	87.5218	67.3828	87.4378	67.3828	87.4906	67.3828	87.4396	67.3828	87.4662	67.3828	87.4491
70.3125	88.1877	70.3125	88.1607	70.3125	88.2074	70.3125	88.127	70.3125	88.2193	70.3125	88.0879	70.3125	88.2232	70.3125	88.0448	70.3125	88.2195	70.3125	87.9992	70.3125	88.2085	70.3125	87.9528	70.3125	88.1909	70.3125	87.9076	70.3125	88.1675	70.3125	87.865	70.3125	88.1394	70.3125	87.8268	70.3125	88.1074	70.3125	87.7943	70.3125	88.0727	70.3125	87.7687	70.3125	88.0364	70.3125	87.7506	70.3125	87.9992	70.3125	87.7405	70.3125	87.9622	70.3125	87.7385	70.3125	87.9258	70.3125	87.7442	70.3125	87.8907	70.3125	87.7568	70.3125	87.8575	70.3125	87.7754	70.3125	87.8267	70.3125	87.7991
73.2422	88.3811	73.2422	88.352	73.2422	88.4015	73.2422	88.3148	73.2422	88.4128	73.2422	88.2707	73.2422	88.4153	73.2422	88.2211	73.2422	88.4094	73.2422	88.168	73.2422	88.3959	73.2422	88.1135	73.2422	88.3758	73.2422	88.0599	73.2422	88.3501	73.2422	88.0095	73.2422	88.3198	73.2422	87.9644	73.2422	88.2861	73.2422	87.9265	73.2422	88.25	73.2422	87.8974	73.2422	88.2123	73.2422	87.8781	73.2422	88.1738	73.2422	87.869	73.2422	88.1351	73.2422	87.8698	73.2422	88.0965	73.2422	87.88	73.2422	88.0584	73.2422	87.8981	73.2422	88.0212	73.2422	87.9228	73.2422	87.9856	73.2422	87.9524
76.1719	88.5514	76.1719	88.5349	76.1719	88.5587	76.1719	88.5096	76.1719	88.5568	76.1719	88.4762	76.1719	88.5463	76.1719	88.436	76.1719	88.5281	76.1719	88.3907	76.1719	88.5034	76.1719	88.3422	76.1719	88.4735	76.1719	88.2924	76.1719	88.44	76.1719	88.2435	76.1719	88.4043	76.1719	88.1974	76.1719	88.3677	76.1719	88.1563	76.1719	88.3316	76.1719	88.1217	76.1719	88.2966	76.1719	88.095	76.1719	88.2633	76.1719	88.0769	76.1719	88.2321	76.1719	88.0678	76.1719	88.2028	76.1719	88.067	76.1719	88.1753	76.1719	88.0738	76.1719	88.1495	76.1719	88.0868	76.1719	88.1258	76.1719	88.1045
79.1016	88.7494	79.1016	88.7374	79.1016	88.7498	79.1016	88.7142	79.1016	88.739	79.1016	88.6805	79.1016	88.7174	79.1016	88.6376	79.1016	88.6864	79.1016	88.5871	79.1016	88.6474	79.1016	88.5311	79.1016	88.6021	79.1016	88.4715	79.1016	88.5525	79.1016	88.4107	79.1016	88.5005	79.1016	88.3511	79.1016	88.4482	79.1016	88.2952	79.1016	88.3973	79.1016	88.2449	79.1016	88.3492	79.1016	88.2024	79.1016	88.305	79.1016	88.1688	79.1016	88.2654	79.1016	88.1449	79.1016	88.2306	79.1016	88.1307	79.1016	88.2005	79.1016	88.1256	79.1016	88.175	79.1016	88.1286	79.1016	88.1542	79.1016	88.1385
82.0312	88.7928	82.0312	88.7935	82.0312	88.7799	82.0312	88.7824	82.0312	88.7551	82.0312	88.7603	82.0312	88.7192	82.0312	88.7284	82.0312	88.6735	82.0312	88.6881	82.0312	88.6198	82.0312	88.6411	82.0312	88.5604	82.0312	88.5892	82.0312	88.4977	82.0312	88.5343	82.0312	88.4344	82.0312	88.478	82.0312	88.3731	82.0312	88.4223	82.0312	88.3163	82.0312	88.3688	82.0312	88.2661	82.0312	88.3191	82.0312	88.2239	82.0312	88.2745	82.0312	88.1906	82.0312	88.2359	82.0312	88.1662	82.0312	88.2039	82.0312	88.1504	82.0312	88.1786	82.0312	88.1425	82.0312	88.1599	82.0312	88.1417	82.0312	88.1476
84.9609	88.8205	84.9609	88.8112	84.9609	88.8179	84.9609	88.7908	84.9609	88.8032	84.9609	88.7606	84.9609	88.7765	84.9609	88.7219	84.9609	88.7386	84.9609	88.6763	84.9609	88.6906	84.9609	88.6256	84.9609	88.6342	84.9609	88.5712	84.9609	88.5714	84.9609	88.5148	84.9609	88.5047	84.9609	88.4578	84.9609	88.4367	84.9609	88.4015	84.9609	88.3701	84.9609	88.3472	84.9609	88.3076	84.9609	88.2964	84.9609	88.2517	84.9609	88.25	84.9609	88.2042	84.9609	88.2093	84.9609	88.1664	84.9609	88.175	84.9609	88.1389	84.9609	88.1478	84.9609	88.1218	84.9609	88.1283	84.9609	88.1147	84.9609	88.1171
87.8906	88.7877	87.8906	88.7695	87.8906	88.7967	87.8906	88.7431	87.8906	88.7962	87.8906	88.7099	87.8906	88.7861	87.8906	88.6714	87.8906	88.7669	87.8906	88.6294	87.8906	88.7395	87.8906	88.5855	87.8906	88.705	87.8906	88.5413	87.8906	88.6649	87.8906	88.4983	87.8906	88.6209	87.8906	88.4577	87.8906	88.5748	87.8906	88.4203	87.8906	88.5286	87.8906	88.387	87.8906	88.4839	87.8906	88.3585	87.8906	88.4425	87.8906	88.3352	87.8906	88.4054	87.8906	88.3174	87.8906	88.3735	87.8906	88.3053	87.8906	88.3472	87.8906	88.2988	87.8906	88.3266	87.8906	88.2977	87.8906	88.3116	87.8906	88.302
90.8203	88.4961	90.8203	88.472	90.8203	88.5155	90.8203	88.4443	90.8203	88.5297	90.8203	88.4146	90.8203	88.5387	90.8203	88.3849	90.8203	88.5429	90.8203	88.357	90.8203	88.5429	90.8203	88.3329	90.8203	88.5398	90.8203	88.3142	90.8203	88.5345	90.8203	88.3019	90.8203	88.528	90.8203	88.2965	90.8203	88.5211	90.8203	88.2981	90.8203	88.5143	90.8203	88.3062	90.8203	88.508	90.8203	88.3198	90.8203	88.502	90.8203	88.3377	90.8203	88.4961	90.8203	88.3585	90.8203	88.4896	90.8203	88.3808	90.8203	88.4816	90.8203	88.4031	90.8203	88.4715	90.8203	88.4241	90.8203	88.4587	90.8203	88.4428
93.75	88.714	93.75	88.7135	93.75	88.7034	93.75	88.702	93.75	88.6826	93.75	88.6805	93.75	88.6533	93.75	88.6505	93.75	88.6178	93.75	88.6145	93.75	88.579	93.75	88.5751	93.75	88.5402	93.75	88.5355	93.75	88.5045	93.75	88.4987	93.75	88.4748	93.75	88.4676	93.75	88.4534	93.75	88.4444	93.75	88.4416	93.75	88.4307	93.75	88.4395	93.75	88.427	93.75	88.4459	93.75	88.4323	93.75	88.4584	93.75	88.4447	93.75	88.4739	93.75	88.4614	93.75	88.4888	93.75	88.4787	93.75	88.5	93.75	88.4934	93.75	88.505	93.75	88.5028
96.6797	88.5699	96.6797	88.5666	96.6797	88.5628	96.6797	88.5538	96.6797	88.5452	96.6797	88.533	96.6797	88.5178	96.6797	88.5063	96.6797	88.4819	96.6797	88.4757	96.6797	88.4395	96.6797	88.4437	96.6797	88.3931	96.6797	88.4123	96.6797	88.3454	96.6797	88.3831	96.6797	88.2996	96.6797	88.3575	96.6797	88.2584	96.6797	88.3359	96.6797	88.2246	96.6797	88.3186	96.6797	88.1999	96.6797	88.3052	96.6797	88.1854	96.6797	88.2948	96.6797	88.1809	96.6797	88.2861	96.6797	88.1851	96.6797	88.2777	96.6797	88.1959	96.6797	88.2683	96.6797	88.2108	96.6797	88.2569	96.6797	88.2272	96.6797	88.243
102.539	88.2971	102.539	88.2842	102.539	88.2968	102.539	88.2592	102.539	88.2831	102.539	88.224	102.539	88.2566	102.539	88.1811	102.539	88.219	102.539	88.1335	102.539	88.1726	102.539	88.0843	102.539	88.1205	102.539	88.0367	102.539	88.066	102.539	87.9937	102.539	88.0131	102.539	87.9575	102.539	87.9655	102.539	87.93	102.539	87.9266	102.539	87.912	102.539	87.8985	102.539	87.9033	102.539	87.8825	102.539	87.9025	102.539	87.8778	102.539	87.9073	102.539	87.8823	102.539	87.9147	102.539	87.8928	102.539	87.9215	102.539	87.9053	102.539	87.925	102.539	87.9164	102.539	87.9234
105.469	88.2384	105.469	88.2163	105.469	88.2466	105.469	88.1813	105.469	88.2402	105.469	88.1355	105.469	88.2196	105.469	88.0812	105.469	88.1859	105.469	88.0213	105.469	88.1407	105.469	87.9588	105.469	88.0865	105.469	87.8969	105.469	88.0262	105.469	87.8384	105.469	87.9634	105.469	87.7864	105.469	87.9017	105.469	87.7432	105.469	87.845	105.469	87.7104	105.469	87.7964	105.469	87.6886	105.469	87.7581	105.469	87.6774	105.469	87.7308	105.469	87.6748	105.469	87.7139	105.469	87.6783	105.469	87.7049	105.469	87.6846	105.469	87.701	105.469	87.6911	105.469	87.6988	105.469	87.6959
108.398	88.415	108.398	88.3982	108.398	88.4174	108.398	88.3676	108.398	88.4054	108.398	88.3249	108.398	88.3796	108.398	88.2718	108.398	88.3412	108.398	88.2108	108.398	88.2923	108.398	88.1444	108.398	88.2351	108.398	88.0753	108.398	88.1725	108.398	88.0065	108.398	88.1074	108.398	87.9409	108.398	88.0431	108.398	87.8813	108.398	87.9826	108.398	87.8304	108.398	87.9284	108.398	87.7901	108.398	87.8823	108.398	87.7613	108.398	87.8451	108.398	87.744	108.398	87.8163	108.398	87.7367	108.398	87.7944	108.398	87.7373	108.398	87.7775	108.398	87.7432	108.398	87.764	108.398	87.7525
111.328	88.4937	111.328	88.4846	111.328	88.4874	111.328	88.461	111.328	88.4657	111.328	88.4246	111.328	88.4296	111.328	88.3777	111.328	88.3811	111.328	88.3233	111.328	88.3226	111.328	88.2642	111.328	88.2572	111.328	88.2033	111.328	88.1882	111.328	88.1431	111.328	88.1189	111.328	88.0859	111.328	88.0529	111.328	88.0334	111.328	87.9932	111.328	87.9871	111.328	87.9421	111.328	87.9478	111.328	87.9013	111.328	87.9159	111.328	87.8712	111.328	87.891	111.328	87.8513	111.328	87.8723	111.328	87.8403	111.328	87.8585	111.328	87.8361	111.328	87.8484	111.328	87.8369	111.328	87.8413
117.188	88.2858	117.188	88.2602	117.188	88.2931	117.188	88.2178	117.188	88.2819	117.188	88.1608	117.188	88.2524	117.188	88.0923	117.188	88.2062	117.188	88.0157	117.188	88.1454	117.188	87.9348	117.188	88.0731	117.188	87.8533	117.188	87.9929	117.188	87.7751	117.188	87.9091	117.188	87.7033	117.188	87.8261	117.188	87.6408	117.188	87.7483	117.188	87.5896	117.188	87.6797	117.188	87.5506	117.188	87.623	117.188	87.5236	117.188	87.5792	117.188	87.5072	117.188	87.5479	117.188	87.4993	117.188	87.5273	117.188	87.4971	117.188	87.5145	117.188	87.4984	117.188	87.5067	117.188	87.5017
120.117	88.3263	120.117	88.2852	120.117	88.3473	120.117	88.2257	120.117	88.3475	120.117	88.1502	120.117	88.3269	120.117	88.0618	120.117	88.2864	120.117	87.964	120.117	88.2276	120.117	87.8605	120.117	88.1528	120.117	87.7552	120.117	88.0651	120.117	87.6519	120.117	87.968	120.117	87.5545	120.117	87.8658	120.117	87.4664	120.117	87.763	120.117	87.3908	120.117	87.6641	120.117	87.3299	120.117	87.573	120.117	87.2848	120.117	87.4926	120.117	87.2555	120.117	87.4245	120.117	87.2407	120.117	87.3686	120.117	87.2385	120.117	87.3242	120.117	87.2468	120.117	87.2897	120.117	87.2641
125.977	88.2312	125.977	88.179	125.977	88.2621	125.977	88.1073	125.977	88.271	125.977	88.0191	125.977	88.2582	125.977	87.918	125.977	88.2249	125.977	87.8084	125.977	88.1733	125.977	87.695	125.977	88.106	125.977	87.5827	125.977	88.0266	125.977	87.476	125.977	87.9387	125.977	87.3794	125.977	87.8465	125.977	87.2965	125.977	87.7538	125.977	87.2301	125.977	87.6642	125.977	87.1821	125.977	87.5805	125.977	87.153	125.977	87.5042	125.977	87.1418	125.977	87.4358	125.977	87.1466	125.977	87.375	125.977	87.1648	125.977	87.3209	125.977	87.1934	125.977	87.2726	125.977	87.2299
128.906	88.0853	128.906	88.0431	128.906	88.1053	128.906	87.98	128.906	88.1032	128.906	87.898	128.906	88.0798	128.906	87.8001	128.906	88.0368	128.906	87.6902	128.906	87.9767	128.906	87.5728	128.906	87.9024	128.906	87.4528	128.906	87.8174	128.906	87.3354	128.906	87.7255	128.906	87.2258	128.906	87.6308	128.906	87.1291	128.906	87.5371	128.906	87.0496	128.906	87.4477	128.906	86.9903	128.906	87.3653	128.906	86.9528	128.906	87.2911	128.906	86.9364	128.906	87.2252	128.906	86.9389	128.906	87.1667	128.906	86.9569	128.906	87.1143	128.906	86.9863	128.906	87.0667	128.906	87.0237
134.766	87.888	134.766	87.8881	134.766	87.8672	134.766	87.868	134.766	87.8267	134.766	87.8291	134.766	87.7688	134.766	87.7742	134.766	87.6966	134.766	87.7063	134.766	87.6146	134.766	87.6292	134.766	87.5273	134.766	87.5466	134.766	87.4398	134.766	87.4621	134.766	87.3568	134.766	87.3795	134.766	87.2824	134.766	87.3022	134.766	87.2196	134.766	87.2333	134.766	87.1699	134.766	87.1753	134.766	87.1332	134.766	87.1299	134.766	87.1081	134.766	87.0974	134.766	87.0919	134.766	87.077	134.766	87.0816	134.766	87.0667	134.766	87.0746	134.766	87.0637	134.766	87.0693	134.766	87.0653
137.695	87.7096	137.695	87.7098	137.695	87.6886	137.695	87.6902	137.695	87.6471	137.695	87.6531	137.695	87.5866	137.695	87.6017	137.695	87.51	137.695	87.5396	137.695	87.4213	137.695	87.4706	137.695	87.3254	137.695	87.3983	137.695	87.228	137.695	87.3262	137.695	87.1349	137.695	87.257	137.695	87.0519	137.695	87.1934	137.695	86.9837	137.695	87.1372	137.695	86.9332	137.695	87.0896	137.695	86.9015	137.695	87.051	137.695	86.8872	137.695	87.0209	137.695	86.8871	137.695	86.9977	137.695	86.8969	137.695	86.9791	137.695	86.9123	137.695	86.9628	137.695	86.9296	137.695	86.9466
143.555	87.4297	143.555	87.3856	143.555	87.4513	143.555	87.3221	143.555	87.449	143.555	87.243	143.555	87.4227	143.555	87.1534	143.555	87.3736	143.555	87.0584	143.555	87.3043	143.555	86.9636	143.555	87.2187	143.555	86.8738	143.555	87.1218	143.555	86.7934	143.555	87.0199	143.555	86.7257	143.555	86.9194	143.555	86.6729	143.555	86.827	143.555	86.6357	143.555	86.7484	143.555	86.6132	143.555	86.6874	143.555	86.6031	143.555	86.6452	143.555	86.6019	143.555	86.6206	143.555	86.6057	143.555	86.61	143.555	86.6106	143.555	86.6085	143.555	86.6138	143.555	86.6111	143.555	86.6137
149.414	87.0598	149.414	87.0103	149.414	87.0824	149.414	86.9357	149.414	87.0773	149.414	86.8395	149.414	87.0455	149.414	86.7263	149.414	86.9892	149.414	86.6015	149.414	86.9121	149.414	86.4711	149.414	86.8189	149.414	86.3417	149.414	86.7152	149.414	86.2198	149.414	86.6076	149.414	86.1123	149.414	86.5029	149.414	86.0252	149.414	86.4074	149.414	85.963	149.414	86.3262	149.414	85.9281	149.414	86.2619	149.414	85.9196	149.414	86.2144	149.414	85.9336	149.414	86.1807	149.414	85.9637	149.414	86.1557	149.414	86.0023	149.414	86.1336	149.414	86.0425	149.414	86.1092	149.414	86.079
155.273	87.2602	155.273	87.2224	155.273	87.2684	155.273	87.157	155.273	87.2458	155.273	87.0667	155.273	87.1924	155.273	86.9549	155.273	87.1094	155.273	86.8252	155.273	86.9993	155.273	86.6816	155.273	86.8663	155.273	86.5289	155.273	86.7163	155.273	86.3724	155.273	86.557	155.273	86.2188	155.273	86.3974	155.273	86.0752	155.273	86.2471	155.273	85.9493	155.273	86.1144	155.273	85.8476	155.273	86.005	155.273	85.774	155.273	85.921	155.273	85.7291	155.273	85.8603	155.273	85.7096	155.273	85.8179	155.273	85.7096	155.273	85.7872	155.273	85.722	155.273	85.7626	155.273	85.7409
158.203	87.4772	158.203	87.4362	158.203	87.4914	158.203	87.371	158.203	87.4773	158.203	87.2844	158.203	87.4338	158.203	87.1799	158.203	87.3611	158.203	87.0609	158.203	87.2604	158.203	86.9309	158.203	87.1341	158.203	86.7933	158.203	86.9865	158.203	86.6519	158.203	86.8237	158.203	86.511	158.203	86.654	158.203	86.3758	158.203	86.487	158.203	86.2518	158.203	86.3325	158.203	86.1443	158.203	86.1991	158.203	86.0571	158.203	86.0921	158.203	85.9918	158.203	86.0131	158.203	85.9472	158.203	85.9597	158.203	85.9202	158.203	85.9271	158.203	85.9067	158.203	85.9098	158.203	85.9036
164.062	87.7331	164.062	87.7044	164.062	87.7314	164.062	87.647	164.062	87.699	164.062	87.5632	164.062	87.6361	164.062	87.456	164.062	87.544	164.062	87.3284	164.062	87.4246	164.062	87.1832	164.062	87.2804	164.062	87.0234	164.062	87.1148	164.062	86.852	164.062	86.9321	164.062	86.6729	164.062	86.7382	164.062	86.4913	164.062	86.5404	164.062	86.3138	164.062	86.347	164.062	86.1475	164.062	86.1667	164.062	85.9994	164.062	86.0074	164.062	85.8749	164.062	85.8749	164.062	85.7771	164.062	85.7727	164.062	85.7071	164.062	85.7017	164.062	85.6645	164.062	85.661	164.062	85.649
169.922	87.7805	169.922	87.7205	169.922	87.8068	169.922	87.6314	169.922	87.7969	169.922	87.5199	169.922	87.7509	169.922	87.3934	169.922	87.671	169.922	87.2592	169.922	87.5613	169.922	87.1232	169.922	87.4272	169.922	86.989	169.922	87.275	169.922	86.8578	169.922	87.1113	169.922	86.7293	169.922	86.9427	169.922	86.6023	169.922	86.775	169.922	86.4763	169.922	86.6134	169.922	86.3524	169.922	86.4616	169.922	86.2342	169.922	86.3229	169.922	86.127	169.922	86.1999	169.922	86.0373	169.922	86.0957	169.922	85.9717	169.922	86.0135	169.922	85.9351	169.922	85.9572	169.922	85.9303
175.781	87.5977	175.781	87.4903	175.781	87.6649	175.781	87.3449	175.781	87.6919	175.781	87.1667	175.781	87.6809	175.781	86.9632	175.781	87.6358	175.781	86.7449	175.781	87.5623	175.781	86.5246	175.781	87.4675	175.781	86.3161	175.781	87.3594	175.781	86.1337	175.781	87.2468	175.781	85.9897	175.781	87.138	175.781	85.8932	175.781	87.0395	175.781	85.8483	175.781	86.955	175.781	85.8536	175.781	86.8844	175.781	85.903	175.781	86.8237	175.781	85.987	175.781	86.7667	175.781	86.0943	175.781	86.706	175.781	86.2137	175.781	86.6351	175.781	86.3346	175.781	86.5496	175.781	86.4486
181.641	87.015	181.641	86.9494	181.641	87.0407	181.641	86.8461	181.641	87.0259	181.641	86.7083	181.641	86.971	181.641	86.5403	181.641	86.8786	181.641	86.3478	181.641	86.7535	181.641	86.1382	181.641	86.6031	181.641	85.9208	181.641	86.4383	181.641	85.7079	181.641	86.2726	181.641	85.5141	181.641	86.1212	181.641	85.3556	181.641	85.998	181.641	85.2477	181.641	85.9119	181.641	85.2003	181.641	85.8645	181.641	85.2153	181.641	85.8491	181.641	85.2845	181.641	85.8517	181.641	85.3915	181.641	85.8557	181.641	85.5155	181.641	85.8447	181.641	85.6361	181.641	85.8068	181.641	85.7365
190.43	86.9693	190.43	86.9205	190.43	86.9707	190.43	86.8287	190.43	86.9217	190.43	86.6991	190.43	86.8203	190.43	86.5368	190.43	86.6663	190.43	86.3463	190.43	86.4614	190.43	86.1314	190.43	86.2095	190.43	85.8955	190.43	85.9177	190.43	85.6421	190.43	85.5974	190.43	85.3769	190.43	85.2643	190.43	85.1081	190.43	84.9379	190.43	84.8472	190.43	84.6391	190.43	84.6074	190.43	84.386	190.43	84.4006	190.43	84.19	190.43	84.2345	190.43	84.0535	190.43	84.1102	190.43	83.9705	190.43	84.0236	190.43	83.93	190.43	83.967	190.43	83.9204	190.43	83.9336
196.289	87.6341	196.289	87.5401	196.289	87.672	196.289	87.3955	196.289	87.6492	196.289	87.2066	196.289	87.5625	196.289	86.9798	196.289	87.4104	196.289	86.7216	196.289	87.1936	196.289	86.4381	196.289	86.916	196.289	86.1355	196.289	86.5856	196.289	85.8204	196.289	86.2157	196.289	85.5007	196.289	85.8251	196.289	85.1866	196.289	85.4368	196.289	84.8899	196.289	85.0749	196.289	84.623	196.289	84.7594	196.289	84.3971	196.289	84.5025	196.289	84.2198	196.289	84.3062	196.289	84.0933	196.289	84.1648	196.289	84.0151	196.289	84.0684	196.289	83.9789	196.289	84.0079	196.289	83.9781
202.148	88.8322	202.148	88.7276	202.148	88.8586	202.148	88.5459	202.148	88.8056	202.148	88.2885	202.148	88.6715	202.148	87.957	202.148	88.4543	202.148	87.5539	202.148	88.151	202.148	87.0834	202.148	87.759	202.148	86.5532	202.148	87.2768	202.148	85.9778	202.148	86.7073	202.148	85.3836	202.148	86.0629	202.148	84.8123	202.148	85.3728	202.148	84.32	202.148	84.6909	202.148	83.9636	202.148	84.0963	202.148	83.7752	202.148	83.6743	202.148	83.7407	202.148	83.4754	202.148	83.8024	202.148	83.4809	202.148	83.8857	202.148	83.6117	202.148	83.9269	202.148	83.7725	202.148	83.8897
210.938	87.8827	210.938	87.7933	210.938	87.8871	210.938	87.6142	210.938	87.8119	210.938	87.3416	210.938	87.6622	210.938	86.9734	210.938	87.4427	210.938	86.5097	210.938	87.1564	210.938	85.9559	210.938	86.8042	210.938	85.3262	210.938	86.3856	210.938	84.6497	210.938	85.9007	210.938	83.978	210.938	85.3549	210.938	83.3868	210.938	84.7663	210.938	82.9627	210.938	84.1739	210.938	82.7655	210.938	83.6413	210.938	82.7901	210.938	83.2456	210.938	82.9645	210.938	83.0439	210.938	83.1881	210.938	83.0363	210.938	83.3731	210.938	83.16	210.938	83.4638	210.938	83.3227	210.938	83.4414
216.797	87.6393	216.797	87.5575	216.797	87.6355	216.797	87.3873	216.797	87.5491	216.797	87.1255	216.797	87.3842	216.797	86.7682	216.797	87.1454	216.797	86.3108	216.797	86.8374	216.797	85.7494	216.797	86.4645	216.797	85.0843	216.797	86.0298	216.797	84.3259	216.797	85.5358	216.797	83.5058	216.797	84.9868	216.797	82.6902	216.797	84.3946	216.797	81.9857	216.797	83.7859	216.797	81.5134	216.797	83.2074	216.797	81.3415	216.797	82.7214	216.797	81.4312	216.797	82.3841	216.797	81.6624	216.797	82.2133	216.797	81.9097	216.797	82.1721	216.797	82.091	216.797	82.1862	216.797	82.1774
225.586	88.2181	225.586	88.1794	225.586	88.1669	225.586	88.0511	225.586	88.0267	225.586	87.8341	225.586	87.7996	225.586	87.5291	225.586	87.49	225.586	87.1368	225.586	87.1049	225.586	86.6575	225.586	86.6544	225.586	86.0928	225.586	86.1532	225.586	85.4488	225.586	85.6204	225.586	84.7421	225.586	85.0804	225.586	84.0093	225.586	84.5623	225.586	83.3158	225.586	84.0983	225.586	82.7535	225.586	83.7196	225.586	82.4109	225.586	83.4482	225.586	82.3217	225.586	83.2869	225.586	82.4363	225.586	83.2125	225.586	82.6537	225.586	83.1804	225.586	82.876	225.586	83.1384	225.586	83.0432
234.375	88.1962	234.375	88.1446	234.375	88.1498	234.375	87.9969	234.375	88.0036	234.375	87.7556	234.375	87.7567	234.375	87.4234	234.375	87.4087	234.375	87.0029	234.375	86.9604	234.375	86.4981	234.375	86.4151	234.375	85.9156	234.375	85.7809	234.375	85.2688	234.375	85.0756	234.375	84.5843	234.375	84.3337	234.375	83.9084	234.375	83.6144	234.375	83.3099	234.375	83.0026	234.375	82.8674	234.375	82.5883	234.375	82.6371	234.375	82.4226	234.375	82.6176	234.375	82.4812	234.375	82.7445	234.375	82.6746	234.375	82.9237	234.375	82.8962	234.375	83.069	234.375	83.0616	234.375	83.1229
240.234	88.1846	240.234	88.078	240.234	88.2018	240.234	87.8864	240.234	88.1259	240.234	87.6145	240.234	87.9532	240.234	87.2665	240.234	87.6804	240.234	86.8464	240.234	87.3037	240.234	86.358	240.234	86.8197	240.234	85.8067	240.234	86.2259	240.234	85.2037	240.234	85.5253	240.234	84.5711	240.234	84.7337	240.234	83.949	240.234	83.8917	240.234	83.396	240.234	83.0786	240.234	82.9776	240.234	82.4131	240.234	82.7373	240.234	82.0141	240.234	82.6684	240.234	81.9257	240.234	82.7126	240.234	82.0789	240.234	82.7879	240.234	82.3412	240.234	82.8199	240.234	82.5923	240.234	82.7599
249.023	87.8913	249.023	87.7688	249.023	87.9237	249.023	87.5553	249.023	87.8671	249.023	87.2502	249.023	87.7228	249.023	86.8527	249.023	87.492	249.023	86.3631	249.023	87.1754	249.023	85.7841	249.023	86.7728	249.023	85.1253	249.023	86.2839	249.023	84.4111	249.023	85.7105	249.023	83.6919	249.023	85.0619	249.023	83.0532	249.023	84.3639	249.023	82.6042	249.023	83.6712	249.023	82.4296	249.023	83.0741	249.023	82.5272	249.023	82.68	249.023	82.8002	249.023	82.5578	249.023	83.1148	249.023	82.6835	249.023	83.3599	249.023	82.9496	249.023	83.4693	249.023	83.2282	249.023	83.4201
257.812	88.7051	257.812	88.6185	257.812	88.6912	257.812	88.4289	257.812	88.5784	257.812	88.1318	257.812	88.3671	257.812	87.7212	257.812	88.057	257.812	87.189	257.812	87.6473	257.812	86.5262	257.812	87.1368	257.812	85.7264	257.812	86.5259	257.812	84.7934	257.812	85.82	257.812	83.7594	257.812	85.0366	257.812	82.7161	257.812	84.217	257.812	81.8451	257.812	83.4392	257.812	81.3783	257.812	82.8178	257.812	81.4261	257.812	82.4668	257.812	81.8546	257.812	82.4264	257.812	82.4089	257.812	82.6239	257.812	82.8876	257.812	82.917	257.812	83.187	257.812	83.1669	257.812	83.2752
266.602	89.1527	266.602	89.1142	266.602	89.1184	266.602	88.9998	266.602	89.0126	266.602	88.8041	266.602	88.8344	266.602	88.5187	266.602	88.5813	266.602	88.1324	266.602	88.2482	266.602	87.6304	266.602	87.8288	266.602	86.9967	266.602	87.3156	266.602	86.2182	266.602	86.7031	266.602	85.2955	266.602	85.992	266.602	84.2628	266.602	85.1994	266.602	83.2214	266.602	84.3739	266.602	82.363	266.602	83.6103	266.602	81.9097	266.602	83.0399	266.602	81.9363	266.602	82.7663	266.602	82.2841	266.602	82.7796	266.602	82.7074	266.602	82.952	266.602	83.0286	266.602	83.122	266.602	83.1677
278.32	88.2371	278.32	88.185	278.32	88.2067	278.32	88.0516	278.32	88.0942	278.32	87.8394	278.32	87.9013	278.32	87.5506	278.32	87.6292	278.32	87.186	278.32	87.2771	278.32	86.743	278.32	86.8398	278.32	86.2159	278.32	86.308	278.32	85.599	278.32	85.6708	278.32	84.8946	278.32	84.9243	278.32	84.1279	278.32	84.088	278.32	83.367	278.32	83.23	278.32	82.7334	278.32	82.4883	278.32	82.3665	278.32	82.0415	278.32	82.3289	278.32	81.99	278.32	82.5401	278.32	82.2531	278.32	82.8321	278.32	82.633	278.32	83.0496	278.32	82.9495	278.32	83.0989
287.109	88.8563	287.109	88.7783	287.109	88.8456	287.109	88.6149	287.109	88.7448	287.109	88.3688	287.109	88.5564	287.109	88.0385	287.109	88.286	287.109	87.6163	287.109	87.9406	287.109	87.0878	287.109	87.5238	287.109	86.4333	287.109	87.0311	287.109	85.6343	287.109	86.4481	287.109	84.687	287.109	85.7551	287.109	83.6295	287.109	84.9418	287.109	82.5851	287.109	84.0323	287.109	81.7863	287.109	83.1208	287.109	81.4714	287.109	82.3865	287.109	81.6567	287.109	82.0216	287.109	82.1056	287.109	82.0681	287.109	82.5488	287.109	82.3645	287.109	82.8223	287.109	82.6846	287.109	82.8639
295.898	88.3453	295.898	88.2704	295.898	88.3245	295.898	88.1072	295.898	88.2016	295.898	87.865	295.898	87.9708	295.898	87.5544	295.898	87.6274	295.898	87.1847	295.898	87.1693	295.898	86.7597	295.898	86.5987	295.898	86.2742	295.898	85.9242	295.898	85.7143	295.898	85.1635	295.898	85.066	295.898	84.3465	295.898	84.3328	295.898	83.5232	295.898	83.5622	295.898	82.7747	295.898	82.871	295.898	82.2162	295.898	82.4262	295.898	81.9622	295.898	82.3384	295.898	82.0462	295.898	82.5502	295.898	82.3728	295.898	82.8764	295.898	82.771	295.898	83.1349	295.898	83.0841	295.898	83.2158
307.617	89.202	307.617	89.0906	307.617	89.2185	307.617	88.8779	307.617	89.1486	307.617	88.5595	307.617	89.0006	307.617	88.1343	307.617	88.7798	307.617	87.6029	307.617	88.4852	307.617	86.9666	307.617	88.1059	307.617	86.2251	307.617	87.6202	307.617	85.3764	307.617	86.9966	307.617	84.4233	307.617	86.2	307.617	83.3926	307.617	85.2028	307.617	82.3729	307.617	84.0108	307.617	81.548	307.617	82.7153	307.617	81.1443	307.617	81.5671	307.617	81.2377	307.617	80.9424	307.617	81.6452	307.617	81.0093	307.617	82.0843	307.617	81.4994	307.617	82.3465	307.617	82.0191	307.617	82.3296
319.336	88.4561	319.336	88.3618	319.336	88.451	319.336	88.1661	319.336	88.3512	319.336	87.8706	319.336	88.1631	319.336	87.4797	319.336	87.8917	319.336	86.9983	319.336	87.5387	319.336	86.4294	319.336	87.099	319.336	85.7717	319.336	86.5598	319.336	85.0215	319.336	85.9003	319.336	84.1803	319.336	85.0979	319.336	83.2752	319.336	84.1417	319.336	82.3932	319.336	83.0625	319.336	81.7066	319.336	81.9813	319.336	81.4109	319.336	81.1461	319.336	81.5499	319.336	80.8312	319.336	81.9415	319.336	81.0721	319.336	82.3296	319.336	81.6086	319.336	82.5332	319.336	82.1367	319.336	82.47
331.055	88.6189	331.055	88.5942	331.055	88.5391	331.055	88.464	331.055	88.3587	331.055	88.2286	331.055	88.0869	331.055	87.8862	331.055	87.7382	331.055	87.4297	331.055	87.3314	331.055	86.8436	331.055	86.8844	331.055	86.101	331.055	86.4062	331.055	85.1659	331.055	85.8899	331.055	84.0039	331.055	85.3105	331.055	82.6157	331.055	84.6336	331.055	81.1217	331.055	83.8369	331.055	79.8983	331.055	82.9465	331.055	79.492	331.055	82.0834	331.055	79.9817	331.055	81.4714	331.055	80.8365	331.055	81.3012	331.055	81.5768	331.055	81.5206	331.055	82.0019	331.055	81.8662	331.055	82.0783
342.773	88.7035	342.773	88.6304	342.773	88.6722	342.773	88.4694	342.773	88.5262	342.773	88.2413	342.773	88.2618	342.773	87.9645	342.773	87.8813	342.773	87.6464	342.773	87.3916	342.773	87.2755	342.773	86.8032	342.773	86.8182	342.773	86.1288	342.773	86.2239	342.773	85.3834	342.773	85.4383	342.773	84.5885	342.773	84.4272	342.773	83.7845	342.773	83.2259	342.773	83.0516	342.773	82.0298	342.773	82.5191	342.773	81.251	342.773	82.3173	342.773	81.2413	342.773	82.468	342.773	81.8388	342.773	82.8381	342.773	82.5846	342.773	83.2271	342.773	83.1655	342.773	83.4695	342.773	83.4643
354.492	89.0012	354.492	88.8806	354.492	89.0033	354.492	88.6431	354.492	88.8901	354.492	88.2958	354.492	88.6677	354.492	87.8502	354.492	88.3428	354.492	87.3202	354.492	87.9171	354.492	86.7142	354.492	87.3812	354.492	86.0264	354.492	86.7076	354.492	85.2303	354.492	85.8469	354.492	84.2848	354.492	84.7292	354.492	83.163	354.492	83.2749	354.492	81.921	354.492	81.4351	354.492	80.8172	354.492	79.3565	354.492	80.3271	354.492	77.8379	354.492	80.6905	354.492	78.0897	354.492	81.532	354.492	79.624	354.492	82.3297	354.492	81.1748	354.492	82.7876	354.492	82.2518	354.492	82.7809
366.211	88.7704	366.211	88.6516	366.211	88.7727	366.211	88.4224	366.211	88.6653	366.211	88.1002	366.211	88.4651	366.211	87.7091	366.211	88.1956	366.211	87.2688	366.211	87.8792	366.211	86.781	366.211	87.527	366.211	86.2178	366.211	87.1279	366.211	85.5204	366.211	86.6425	366.211	84.6095	366.211	86.0057	366.211	83.4068	366.211	85.1372	366.211	81.8831	366.211	83.9582	366.211	80.1909	366.211	82.4296	366.211	78.8997	366.211	80.6615	366.211	78.7491	366.211	79.1525	366.211	79.5321	366.211	78.7186	366.211	80.4065	366.211	79.3746	366.211	80.8894	366.211	80.2739	366.211	80.8408
377.93	89.0486	377.93	88.9874	377.93	88.986	377.93	88.8093	377.93	88.804	377.93	88.5304	377.93	88.5188	377.93	88.1729	377.93	88.1582	377.93	87.7579	377.93	87.7576	377.93	87.2942	377.93	87.3487	377.93	86.7676	377.93	86.9424	377.93	86.1329	377.93	86.5137	377.93	85.3148	377.93	85.9994	377.93	84.2174	377.93	85.31	377.93	82.7485	377.93	84.3499	377.93	80.8975	377.93	83.0498	377.93	78.9814	377.93	81.442	377.93	77.951	377.93	79.8359	377.93	78.3877	377.93	78.9263	377.93	79.3816	377.93	79.091	377.93	80.059	377.93	79.7355	377.93	80.1615
392.578	87.9003	392.578	87.762	392.578	87.905	392.578	87.4988	392.578	87.7807	392.578	87.1368	392.578	87.5422	392.578	86.722	392.578	87.2154	392.578	86.3128	392.578	86.8369	392.578	85.9544	392.578	86.4484	392.578	85.6462	392.578	86.0797	392.578	85.3265	392.578	85.725	392.578	84.8913	392.578	85.3305	392.578	84.2327	392.578	84.8059	392.578	83.2806	392.578	84.0563	392.578	82.0651	392.578	83.0246	392.578	80.8306	392.578	81.7646	392.578	80.0788	392.578	80.5627	392.578	80.1239	392.578	79.9322	392.578	80.6132	392.578	80.0949	392.578	81.0012	392.578	80.6267	392.578	81.0096
407.227	88.4061	407.227	88.2222	407.227	88.3877	407.227	87.852	407.227	88.1595	407.227	87.327	407.227	87.7218	407.227	86.703	407.227	87.0875	407.227	86.0633	407.227	86.2955	407.227	85.4986	407.227	85.4277	407.227	85.0533	407.227	84.6112	407.227	84.6755	407.227	83.9704	407.227	84.2245	407.227	83.5329	407.227	83.5314	407.227	83.1899	407.227	82.4693	407.227	82.7755	407.227	81.0539	407.227	82.1868	407.227	79.6706	407.227	81.4801	407.227	79.1767	407.227	80.9198	407.227	79.8644	407.227	80.8298	407.227	80.9184	407.227	81.2078	407.227	81.6645	407.227	81.6885	407.227	81.907
421.875	89.3191	421.875	89.1494	421.875	89.2863	421.875	88.7615	421.875	89.0645	421.875	88.1446	421.875	88.6646	421.875	87.3056	421.875	88.0976	421.875	86.2904	421.875	87.3805	421.875	85.2079	421.875	86.5449	421.875	84.2259	421.875	85.6427	421.875	83.4835	421.875	84.738	421.875	82.9468	421.875	83.869	421.875	82.3859	421.875	82.9939	421.875	81.4998	421.875	81.9633	421.875	80.0157	421.875	80.5444	421.875	77.7462	421.875	78.4678	421.875	74.9359	421.875	75.5662	421.875	73.417	421.875	72.6882	421.875	74.4176	421.875	72.7621	421.875	75.6055	421.875	74.6415	421.875	75.7387
436.523	87.7112	436.523	87.5709	436.523	87.7139	436.523	87.2789	436.523	87.5852	436.523	86.8173	436.523	87.3215	436.523	86.1697	436.523	86.9109	436.523	85.3292	436.523	86.3407	436.523	84.3179	436.523	85.6054	436.523	83.2254	436.523	84.7168	436.523	82.2524	436.523	83.7138	436.523	81.6614	436.523	82.6714	436.523	81.5467	436.523	81.7009	436.523	81.6997	436.523	80.9198	436.523	81.8173	436.523	80.3882	436.523	81.7203	436.523	80.0681	436.523	81.3857	436.523	79.8685	436.523	80.9009	436.523	79.7279	436.523	80.4025	436.523	79.6435	436.523	80.0052	436.523	79.6432	436.523	79.7554
451.172	88.3483	451.172	88.2856	451.172	88.2601	451.172	88.0854	451.172	88.0187	451.172	87.7679	451.172	87.6341	451.172	87.3518	451.172	87.127	451.172	86.8472	451.172	86.5245	451.172	86.2498	451.172	85.8583	451.172	85.536	451.172	85.1628	451.172	84.6623	451.172	84.4705	451.172	83.5764	451.172	83.8019	451.172	82.2597	451.172	83.1573	451.172	80.8315	451.172	82.526	451.172	79.701	451.172	81.925	451.172	79.4261	451.172	81.4389	451.172	80.0102	451.172	81.1976	451.172	80.8852	451.172	81.2653	451.172	81.6063	451.172	81.5563	451.172	82.0088	451.172	81.8874	451.172	82.0804
465.82	89.2164	465.82	88.9722	465.82	89.2785	465.82	88.56	465.82	89.1504	465.82	88.0044	465.82	88.8279	465.82	87.3443	465.82	88.3122	465.82	86.6317	465.82	87.6153	465.82	85.9207	465.82	86.7633	465.82	85.245	465.82	85.7912	465.82	84.59	465.82	84.7255	465.82	83.8784	465.82	83.558	465.82	82.9799	465.82	82.2388	465.82	81.7606	465.82	80.7182	465.82	80.2122	465.82	79.0987	465.82	78.7663	465.82	77.9372	465.82	78.4083	465.82	78.0519	465.82	79.3105	465.82	79.2056	465.82	80.4786	465.82	80.4422	465.82	81.2744	465.82	81.2605	465.82	81.5412
483.398	88.368	483.398	88.1858	483.398	88.3569	483.398	87.8087	483.398	88.1627	483.398	87.2438	483.398	87.8019	483.398	86.5074	483.398	87.2949	483.398	85.6272	483.398	86.666	483.398	84.653	483.398	85.9452	483.398	83.6687	483.398	85.1726	483.398	82.7751	483.398	84.3979	483.398	82.0226	483.398	83.6567	483.398	81.354	483.398	82.9208	483.398	80.6634	483.398	82.076	483.398	79.9524	483.398	80.993	483.398	79.4564	483.398	79.7185	483.398	79.5216	483.398	78.7535	483.398	80.1519	483.398	78.8394	483.398	80.9242	483.398	79.8101	483.398	81.4164	483.398	80.8275	483.398	81.4039
500.977	88.1258	500.977	88.023	500.977	88.0829	500.977	87.7766	500.977	87.89	500.977	87.3861	500.977	87.5437	500.977	86.8517	500.977	87.0447	500.977	86.1811	500.977	86.4026	500.977	85.3955	500.977	85.6404	500.977	84.5293	500.977	84.7978	500.977	83.6181	500.977	83.9263	500.977	82.6741	500.977	83.0704	500.977	81.6569	500.977	82.2323	500.977	80.4686	500.977	81.3372	500.977	79.0141	500.977	80.2386	500.977	77.3906	500.977	78.7969	500.977	76.2208	500.977	77.0978	500.977	76.3019	500.977	75.8813	500.977	77.1917	500.977	76.1043	500.977	77.876	500.977	77.1473	500.977	77.8764
518.555	88.2662	518.555	88.093	518.555	88.2177	518.555	87.7014	518.555	87.9685	518.555	87.1221	518.555	87.5569	518.555	86.413	518.555	87.0272	518.555	85.651	518.555	86.4134	518.555	84.9081	518.555	85.728	518.555	84.216	518.555	84.9653	518.555	83.5353	518.555	84.1185	518.555	82.7661	518.555	83.1895	518.555	81.8051	518.555	82.181	518.555	80.6203	518.555	81.0911	518.555	79.326	518.555	79.9557	518.555	78.2484	518.555	78.9548	518.555	77.852	518.555	78.449	518.555	78.2966	518.555	78.663	518.555	79.1571	518.555	79.3243	518.555	79.8823	518.555	79.9379	518.555	80.1653
536.133	88.631	536.133	88.4293	536.133	88.6079	536.133	88.019	536.133	88.3557	536.133	87.4247	536.133	87.8817	536.133	86.6738	536.133	87.2078	536.133	85.7928	536.133	86.3758	536.133	84.8196	536.133	85.447	536.133	83.8213	536.133	84.4895	536.133	82.8732	536.133	83.5524	536.133	81.9653	536.133	82.6326	536.133	80.926	536.133	81.6484	536.133	79.5109	536.133	80.4568	536.133	77.7224	536.133	78.9635	536.133	76.4814	536.133	77.3939	536.133	77.1207	536.133	76.606	536.133	78.7223	536.133	77.2372	536.133	79.9629	536.133	78.5496	536.133	80.5126	536.133	79.7084	536.133	80.4002
553.711	88.7317	553.711	88.5153	553.711	88.7542	553.711	88.1165	553.711	88.5877	553.711	87.5632	553.711	88.2426	553.711	86.8896	553.711	87.7257	553.711	86.1306	553.711	87.0479	553.711	85.3284	553.711	86.2443	553.711	84.542	553.711	85.3862	553.711	83.8222	553.711	84.552	553.711	83.1407	553.711	83.7559	553.711	82.3399	553.711	82.8876	553.711	81.1751	553.711	81.7257	553.711	79.4327	553.711	80.0281	553.711	77.2159	553.711	77.7459	553.711	75.7174	553.711	75.7206	553.711	76.382	553.711	75.8231	553.711	77.8997	553.711	77.3887	553.711	78.9303	553.711	78.67	553.711	79.1944
574.219	89.132	574.219	88.9379	574.219	89.0988	574.219	88.5303	574.219	88.8239	574.219	87.9189	574.219	88.3038	574.219	87.1202	574.219	87.5563	574.219	86.1801	574.219	86.6239	574.219	85.1904	574.219	85.5804	574.219	84.2659	574.219	84.5465	574.219	83.4622	574.219	83.6856	574.219	82.6977	574.219	83.0982	574.219	81.7692	574.219	82.664	574.219	80.4287	574.219	82.0543	574.219	78.4688	574.219	80.8798	574.219	76.045	574.219	78.7694	574.219	74.862	574.219	75.6541	574.219	76.5186	574.219	74.0789	574.219	78.7213	574.219	76.6278	574.219	80.0374	574.219	79.0982	574.219	80.2046
594.727	88.8014	594.727	88.588	594.727	88.752	594.727	88.1188	594.727	88.4588	594.727	87.4202	594.727	87.9525	594.727	86.5147	594.727	87.2561	594.727	85.4104	594.727	86.3818	594.727	84.1345	594.727	85.3469	594.727	82.8173	594.727	84.1908	594.727	81.7514	594.727	82.9853	594.727	81.186	594.727	81.8377	594.727	80.9221	594.727	80.857	594.727	80.4295	594.727	80.0431	594.727	79.3254	594.727	79.2336	594.727	77.7517	594.727	78.2917	594.727	76.8942	594.727	77.4353	594.727	77.7371	594.727	77.304	594.727	79.0543	594.727	78.1028	594.727	79.8065	594.727	79.1494	594.727	79.8084
615.234	88.555	615.234	88.3743	615.234	88.4961	615.234	87.9623	615.234	88.2188	615.234	87.3523	615.234	87.7637	615.234	86.5875	615.234	87.171	615.234	85.7004	615.234	86.453	615.234	84.7052	615.234	85.5815	615.234	83.6135	615.234	84.5141	615.234	82.4682	615.234	83.2566	615.234	81.3411	615.234	81.9287	615.234	80.2376	615.234	80.7365	615.234	79.0139	615.234	79.7624	615.234	77.4237	615.234	78.7805	615.234	75.2142	615.234	77.3742	615.234	72.6254	615.234	75.1987	615.234	72.1395	615.234	72.7514	615.234	74.3715	615.234	72.8295	615.234	76.0845	615.234	74.9869	615.234	76.2972
638.672	89.5634	638.672	89.3079	638.672	89.5491	638.672	88.7857	638.672	89.2759	638.672	88.028	638.672	88.7486	638.672	87.093	638.672	87.9594	638.672	86.0517	638.672	86.9167	638.672	84.9681	638.672	85.7012	638.672	83.8982	638.672	84.4931	638.672	82.9182	638.672	83.4917	638.672	82.0913	638.672	82.7593	638.672	81.3073	638.672	82.1689	638.672	80.2301	638.672	81.4622	638.672	78.5568	638.672	80.309	638.672	76.5949	638.672	78.4598	638.672	75.9069	638.672	76.4172	638.672	77.0073	638.672	76.2459	638.672	78.3579	638.672	77.8173	638.672	79.2384	638.672	79.0748	638.672	79.5147
659.18	88.4957	659.18	88.2349	659.18	88.5692	659.18	87.8391	659.18	88.4308	659.18	87.3559	659.18	88.0814	659.18	86.7809	659.18	87.5264	659.18	86.0514	659.18	86.7642	659.18	85.1013	659.18	85.7931	659.18	83.9302	659.18	84.6258	659.18	82.6135	659.18	83.2932	659.18	81.2313	659.18	81.8415	659.18	79.7735	659.18	80.3352	659.18	78.074	659.18	78.8175	659.18	75.7533	659.18	77.1754	659.18	72.4804	659.18	75.1297	659.18	71.0098	659.18	72.9847	659.18	74.4744	659.18	73.3743	659.18	77.5978	659.18	76.2453	659.18	79.229	659.18	78.535	659.18	79.5268
682.617	89.2391	682.617	88.9869	682.617	89.1717	682.617	88.4567	682.617	88.8058	682.617	87.715	682.617	88.2086	682.617	86.793	682.617	87.4456	682.617	85.6628	682.617	86.5448	682.617	84.2732	682.617	85.4956	682.617	82.6319	682.617	84.2728	682.617	80.985	682.617	82.8965	682.617	79.9742	682.617	81.5516	682.617	79.8693	682.617	80.5957	682.617	79.8127	682.617	80.1081	682.617	78.8624	682.617	79.5875	682.617	76.5571	682.617	78.398	682.617	73.8809	682.617	76.0978	682.617	74.8243	682.617	73.0823	682.617	77.117	682.617	72.8673	682.617	78.0006	682.617	75.4627	682.617	77.3914
706.055	88.4292	706.055	88.322	706.055	88.3047	706.055	87.931	706.055	88.0178	706.055	87.2395	706.055	87.6184	706.055	86.2863	706.055	87.0974	706.055	85.1916	706.055	86.3967	706.055	84.1473	706.055	85.4787	706.055	83.3304	706.055	84.4029	706.055	82.7937	706.055	83.3342	706.055	82.4028	706.055	82.4474	706.055	81.832	706.055	81.7825	706.055	80.634	706.055	81.1691	706.055	78.283	706.055	80.2553	706.055	74.031	706.055	78.5692	706.055	68.5234	706.055	75.5932	706.055	71.8095	706.055	71.7462	706.055	75.5464	706.055	72.2443	706.055	77.0768	706.055	75.3089	706.055	76.9671
732.422	88.2934	732.422	88.1687	732.422	88.1367	732.422	87.7252	732.422	87.7605	732.422	86.9931	732.422	87.2138	732.422	86.1004	732.422	86.5143	732.422	85.2215	732.422	85.6653	732.422	84.4087	732.422	84.6768	732.422	83.4913	732.422	83.551	732.422	82.2405	732.422	82.2785	732.422	80.677	732.422	80.8981	732.422	79.2167	732.422	79.5809	732.422	78.2955	732.422	78.5146	732.422	77.8401	732.422	77.5374	732.422	77.3825	732.422	76.1993	732.422	76.3233	732.422	74.286	732.422	74.4987	732.422	72.469	732.422	73.7948	732.422	72.6782	732.422	75.1179	732.422	74.5465	732.422	75.6611
758.789	88.2297	758.789	87.9699	758.789	88.2372	758.789	87.5648	758.789	87.9759	758.789	87.081	758.789	87.5042	758.789	86.4364	758.789	86.8594	758.789	85.4996	758.789	86.0011	758.789	84.2609	758.789	84.8704	758.789	82.895	758.789	83.5184	758.789	81.6139	758.789	82.1611	758.789	80.4429	758.789	81.0117	758.789	79.3217	758.789	80.1251	758.789	78.2817	758.789	79.5581	758.789	77.0773	758.789	79.223	758.789	74.8047	758.789	78.4269	758.789	71.0902	758.789	76.0636	758.789	72.3042	758.789	72.2155	758.789	76.0619	758.789	73.6235	758.789	77.8495	758.789	76.7747	758.789	78.0549
785.156	88.886	785.156	88.7524	785.156	88.7671	785.156	88.3459	785.156	88.3322	785.156	87.5615	785.156	87.5642	785.156	86.3566	785.156	86.5888	785.156	84.8649	785.156	85.6072	785.156	83.3285	785.156	84.6882	785.156	81.8801	785.156	83.659	785.156	80.4743	785.156	82.2167	785.156	79.165	785.156	80.2693	785.156	78.1701	785.156	78.674	785.156	77.4391	785.156	78.7232	785.156	76.5677	785.156	79.3309	785.156	75.1009	785.156	78.9141	785.156	73.2804	785.156	77.0783	785.156	73.4539	785.156	75.422	785.156	75.6744	785.156	76.5361	785.156	77.5927	785.156	78.0952	785.156	78.4708
811.523	88.008	811.523	87.9098	811.523	87.8925	811.523	87.5195	811.523	87.6545	811.523	86.8094	811.523	87.3066	811.523	85.8138	811.523	86.7212	811.523	84.6144	811.523	85.7139	811.523	83.2765	811.523	84.2147	811.523	81.8124	811.523	82.3999	811.523	80.3729	811.523	80.6859	811.523	79.5572	811.523	79.3861	811.523	79.7317	811.523	78.3912	811.523	80.0508	811.523	77.6612	811.523	79.5058	811.523	77.3361	811.523	77.4253	811.523	76.8357	811.523	72.8538	811.523	74.744	811.523	69.4615	811.523	69.1263	811.523	75.1757	811.523	70.1691	811.523	78.1656	811.523	76.167	811.523	78.4623
840.82	89.3765	840.82	89.1839	840.82	89.2983	840.82	88.6554	840.82	88.9643	840.82	87.8056	840.82	88.3425	840.82	86.8112	840.82	87.4421	840.82	85.854	840.82	86.33	840.82	84.8604	840.82	85.0466	840.82	83.5335	840.82	83.5796	840.82	81.6826	840.82	81.9775	840.82	79.5595	840.82	80.4255	840.82	77.9477	840.82	79.1785	840.82	77.4168	840.82	78.5128	840.82	77.3734	840.82	78.6227	840.82	76.663	840.82	78.9796	840.82	74.7756	840.82	78.6311	840.82	73.9815	840.82	77.241	840.82	75.7522	840.82	75.4452	840.82	76.6839	840.82	74.9734	840.82	76.0526
870.117	88.8197	870.117	88.8302	870.117	88.7769	870.117	88.7264	870.117	88.6686	870.117	88.3558	870.117	88.3803	870.117	87.6004	870.117	87.7906	870.117	86.4708	870.117	86.844	870.117	85.1014	870.117	85.6139	870.117	83.5752	870.117	84.2864	870.117	81.713	870.117	83.0618	870.117	79.3314	870.117	82.0427	870.117	77.0884	870.117	81.0928	870.117	76.7645	870.117	80.0553	870.117	77.4015	870.117	79.035	870.117	76.1199	870.117	77.6492	870.117	72.5781	870.117	74.4317	870.117	73.7528	870.117	69.8111	870.117	77.0327	870.117	74.7857	870.117	78.7766	870.117	78.4008	870.117	79.3586
902.344	88.6582	902.344	88.4762	902.344	88.755	902.344	88.1698	902.344	88.694	902.344	87.5494	902.344	88.3866	902.344	86.51	902.344	87.781	902.344	85.262	902.344	86.8366	902.344	84.1546	902.344	85.4846	902.344	83.1102	902.344	83.8171	902.344	81.5249	902.344	82.1556	902.344	79.0389	902.344	80.4809	902.344	76.6029	902.344	78.0693	902.344	76.1263	902.344	74.9787	902.344	76.5852	902.344	75.2814	902.344	75.3717	902.344	76.9479	902.344	70.3948	902.344	75.9249	902.344	66.799	902.344	73.4599	902.344	74.0513	902.344	75.7016	902.344	77.378	902.344	78.0607	902.344	78.5321
931.641	89.6801	931.641	89.1853	931.641	89.6868	931.641	88.2234	931.641	89.207	931.641	87.0714	931.641	88.1816	931.641	86.2202	931.641	86.6492	931.641	85.7047	931.641	85.0454	931.641	85.0073	931.641	84.0932	931.641	83.6752	931.641	83.7944	931.641	81.5616	931.641	83.1842	931.641	79.0903	931.641	81.6301	931.641	77.5978	931.641	79.9546	931.641	77.9399	931.641	79.4363	931.641	78.2347	931.641	78.8633	931.641	76.2634	931.641	77.0195	931.641	69.3603	931.641	73.4146	931.641	71.7706	931.641	64.6043	931.641	77.9698	931.641	66.5517	931.641	79.7919	931.641	75.491	931.641	78.9615
966.797	88.5448	966.797	88.1112	966.797	88.5553	966.797	87.4699	966.797	88.1398	966.797	86.8383	966.797	87.4738	966.797	86.1414	966.797	86.7083	966.797	85.1187	966.797	85.7705	966.797	83.7649	966.797	84.4826	966.797	82.3854	966.797	82.9319	966.797	81.2518	966.797	81.6242	966.797	80.1938	966.797	80.6056	966.797	78.9285	966.797	78.9913	966.797	78.3722	966.797	76.567	966.797	78.4924	966.797	75.8037	966.797	77.6257	966.797	77.6092	966.797	74.8279	966.797	77.7823	966.797	68.5468	966.797	74.6229	966.797	64.0808	966.797	69.1852	966.797	72.3225	966.797	71.8396	966.797	74.1164
999.023	88.9103	999.023	88.6872	999.023	89.0262	999.023	88.227	999.023	88.8718	999.023	87.3792	999.023	88.1908	999.023	86.2786	999.023	86.9614	999.023	85.239	999.023	85.5	999.023	84.2745	999.023	84.3514	999.023	82.9205	999.023	83.6993	999.023	80.7739	999.023	83.0152	999.023	78.2561	999.023	81.5707	999.023	76.435	999.023	78.7313	999.023	76.6328	999.023	74.9542	999.023	78.5111	999.023	75.2835	999.023	78.8425	999.023	76.2343	999.023	76.3564	999.023	73.2606	999.023	73.7631	999.023	66.4332	999.023	75.3658	999.023	71.7397	999.023	76.6901	999.023	75.5577	999.023	76.851
1,034.18	89.6477	1,034.18	88.7536	1,034.18	89.8396	1,034.18	87.562	1,034.18	89.2086	1,034.18	86.6209	1,034.18	87.8422	1,034.18	85.9744	1,034.18	86.1033	1,034.18	85.1313	1,034.18	84.5034	1,034.18	83.9097	1,034.18	83.3062	1,034.18	82.7007	1,034.18	82.3708	1,034.18	81.4763	1,034.18	81.2896	1,034.18	79.4281	1,034.18	79.5583	1,034.18	76.5511	1,034.18	77.349	1,034.18	75.0313	1,034.18	75.3811	1,034.18	75.4818	1,034.18	72.5082	1,034.18	75.1837	1,034.18	68.6673	1,034.18	71.0926	1,034.18	68.354	1,034.18	66.7353	1,034.18	65.7545	1,034.18	76.1201	1,034.18	72.146	1,034.18	79.9559	1,034.18	78.3322	1,034.18	80.6045
1,072.27	87.3678	1,072.27	86.774	1,072.27	87.3281	1,072.27	86.0098	1,072.27	86.5786	1,072.27	85.6597	1,072.27	85.6545	1,072.27	85.2553	1,072.27	84.8858	1,072.27	83.9115	1,072.27	83.7245	1,072.27	82.3223	1,072.27	82.1964	1,072.27	81.7438	1,072.27	81.6084	1,072.27	81.9193	1,072.27	82.1379	1,072.27	81.4232	1,072.27	82.3559	1,072.27	79.346	1,072.27	81.2124	1,072.27	76.2598	1,072.27	77.9804	1,072.27	75.6134	1,072.27	73.5099	1,072.27	74.8477	1,072.27	74.6602	1,072.27	70.5861	1,072.27	74.4751	1,072.27	65.865	1,072.27	70.1787	1,072.27	74.322	1,072.27	68.7636	1,072.27	77.2637	1,072.27	70.3852	1,072.27	74.9539
1,110.35	87.1551	1,110.35	87.6766	1,110.35	86.5241	1,110.35	87.6418	1,110.35	86.6421	1,110.35	86.9247	1,110.35	87.362	1,110.35	85.6668	1,110.35	87.1158	1,110.35	84.6246	1,110.35	85.238	1,110.35	84.3133	1,110.35	82.8395	1,110.35	83.8926	1,110.35	81.7053	1,110.35	82.6057	1,110.35	81.5104	1,110.35	80.5009	1,110.35	80.759	1,110.35	77.2496	1,110.35	78.5138	1,110.35	73.5525	1,110.35	73.4929	1,110.35	74.706	1,110.35	70.58	1,110.35	77.4002	1,110.35	75.986	1,110.35	76.3725	1,110.35	76.6933	1,110.35	70.3875	1,110.35	72.7217	1,110.35	71.4406	1,110.35	64.1464	1,110.35	73.5378	1,110.35	70.9194	1,110.35	73.4744
1,148.44	88.0889	1,148.44	87.8468	1,148.44	88.3014	1,148.44	87.2162	1,148.44	88.2194	1,148.44	85.9033	1,148.44	87.584	1,148.44	84.5391	1,148.44	86.5308	1,148.44	83.7647	1,148.44	85.2752	1,148.44	83.107	1,148.44	84.2148	1,148.44	81.9696	1,148.44	83.2952	1,148.44	80.6085	1,148.44	81.8506	1,148.44	79.3083	1,148.44	80.1825	1,148.44	77.37	1,148.44	79.2065	1,148.44	75.3989	1,148.44	78.4671	1,148.44	75.1229	1,148.44	78.8922	1,148.44	75.0497	1,148.44	78.6561	1,148.44	72.3364	1,148.44	75.6969	1,148.44	64.5247	1,148.44	71.7129	1,148.44	72.9772	1,148.44	66.0038	1,148.44	77.99	1,148.44	71.1517	1,148.44	77.7051
1,189.45	88.9589	1,189.45	88.7763	1,189.45	88.7949	1,189.45	88.0931	1,189.45	88.1652	1,189.45	87.2613	1,189.45	86.7205	1,189.45	86.8454	1,189.45	84.8056	1,189.45	86.4224	1,189.45	83.8405	1,189.45	85.0493	1,189.45	83.715	1,189.45	82.929	1,189.45	83.0662	1,189.45	81.0056	1,189.45	82.1865	1,189.45	79.4495	1,189.45	81.291	1,189.45	77.9811	1,189.45	80.1011	1,189.45	75.0677	1,189.45	78.7728	1,189.45	70.2334	1,189.45	75.9166	1,189.45	73.1074	1,189.45	68.2345	1,189.45	74.4668	1,189.45	70.2208	1,189.45	68.1488	1,189.45	72.2105	1,189.45	69.7009	1,189.45	74.4627	1,189.45	73.5877	1,189.45	76.4996	1,189.45	75.1086
1,230.47	90.0386	1,230.47	88.8572	1,230.47	89.8795	1,230.47	87.3833	1,230.47	88.726	1,230.47	86.9229	1,230.47	87.8082	1,230.47	86.753	1,230.47	87.5057	1,230.47	85.6838	1,230.47	86.9964	1,230.47	84.0895	1,230.47	85.6816	1,230.47	82.866	1,230.47	83.8214	1,230.47	82.0781	1,230.47	82.186	1,230.47	80.7957	1,230.47	81.3086	1,230.47	78.6515	1,230.47	80.996	1,230.47	75.8143	1,230.47	79.0325	1,230.47	73.7338	1,230.47	70.4808	1,230.47	74.7453	1,230.47	66.294	1,230.47	74.7476	1,230.47	73.4252	1,230.47	67.8698	1,230.47	73.186	1,230.47	65.1831	1,230.47	65.5273	1,230.47	73.763	1,230.47	70.5541	1,230.47	75.0438
1,274.41	88.9898	1,274.41	88.9335	1,274.41	88.6545	1,274.41	88.1131	1,274.41	88.2966	1,274.41	87.316	1,274.41	87.6719	1,274.41	87.0271	1,274.41	86.9718	1,274.41	86.2696	1,274.41	86.6124	1,274.41	84.6176	1,274.41	85.7899	1,274.41	83.3414	1,274.41	84.002	1,274.41	82.728	1,274.41	82.6837	1,274.41	81.1245	1,274.41	81.8931	1,274.41	80.088	1,274.41	79.9187	1,274.41	79.1974	1,274.41	78.6105	1,274.41	74.1308	1,274.41	78.8906	1,274.41	70.5269	1,274.41	76.3346	1,274.41	75.6559	1,274.41	73.6633	1,274.41	77.3151	1,274.41	73.7889	1,274.41	75.8427	1,274.41	74.5451	1,274.41	81.2137	1,274.41	74.2305	1,274.41	81.1152
1,318.36	88.672	1,318.36	88.3808	1,318.36	88.8471	1,318.36	88.4075	1,318.36	88.4245	1,318.36	87.8916	1,318.36	87.9968	1,318.36	86.7033	1,318.36	87.5841	1,318.36	85.867	1,318.36	86.6208	1,318.36	85.381	1,318.36	85.4348	1,318.36	84.3502	1,318.36	84.3555	1,318.36	82.3775	1,318.36	83.0253	1,318.36	80.735	1,318.36	81.5691	1,318.36	79.9464	1,318.36	80.2342	1,318.36	78.3662	1,318.36	79.3686	1,318.36	76.0558	1,318.36	76.6416	1,318.36	77.663	1,318.36	73.1895	1,318.36	78.5699	1,318.36	75.5819	1,318.36	71.1467	1,318.36	76.5223	1,318.36	70.6837	1,318.36	73.1486	1,318.36	76.9429	1,318.36	77.0834	1,318.36	77.633
1,365.23	87.9822	1,365.23	87.4796	1,365.23	87.9458	1,365.23	86.7783	1,365.23	87.547	1,365.23	86.7443	1,365.23	86.8517	1,365.23	86.8331	1,365.23	86.1125	1,365.23	86.1918	1,365.23	85.5099	1,365.23	85.2963	1,365.23	84.7293	1,365.23	84.208	1,365.23	84.0967	1,365.23	82.2939	1,365.23	83.3835	1,365.23	80.8557	1,365.23	81.2252	1,365.23	81.1415	1,365.23	78.3609	1,365.23	79.4385	1,365.23	77.3484	1,365.23	72.516	1,365.23	76.1842	1,365.23	73.5075	1,365.23	72.4709	1,365.23	74.6326	1,365.23	75.3046	1,365.23	75.1874	1,365.23	70.7689	1,365.23	74.3105	1,365.23	65.1639	1,365.23	80.1061	1,365.23	67.1861	1,365.23	78.7111
1,415.04	86.2826	1,415.04	86.4483	1,415.04	86.3913	1,415.04	87.0038	1,415.04	86.6931	1,415.04	87.3504	1,415.04	87.2914	1,415.04	86.8477	1,415.04	87.4112	1,415.04	85.685	1,415.04	86.6648	1,415.04	84.305	1,415.04	85.5368	1,415.04	82.9375	1,415.04	84.2109	1,415.04	81.8973	1,415.04	82.3387	1,415.04	81.145	1,415.04	80.4397	1,415.04	79.7516	1,415.04	79.8958	1,415.04	76.1665	1,415.04	79.4743	1,415.04	72.1524	1,415.04	75.1291	1,415.04	74.0644	1,415.04	70.4076	1,415.04	75.5907	1,415.04	73.5037	1,415.04	72.6906	1,415.04	74.1191	1,415.04	73.0892	1,415.04	72.3537	1,415.04	78.6255	1,415.04	71.6278	1,415.04	77.7636
1,464.84	87.3773	1,464.84	87.4294	1,464.84	87.3974	1,464.84	87.2252	1,464.84	87.2343	1,464.84	86.6778	1,464.84	86.9275	1,464.84	86.2779	1,464.84	86.7226	1,464.84	85.5124	1,464.84	86.366	1,464.84	84.449	1,464.84	85.3105	1,464.84	83.7008	1,464.84	84.1989	1,464.84	82.4087	1,464.84	83.275	1,464.84	80.5939	1,464.84	81.679	1,464.84	78.6028	1,464.84	79.7757	1,464.84	75.7563	1,464.84	78.4635	1,464.84	73.2562	1,464.84	76.557	1,464.84	70.5121	1,464.84	72.0091	1,464.84	70.6873	1,464.84	72.3918	1,464.84	71.9202	1,464.84	73.6931	1,464.84	70.0779	1,464.84	64.9213	1,464.84	76.1245	1,464.84	57.0511	1,464.84	71.8584
1,514.65	85.7295	1,514.65	85.9669	1,514.65	86.0007	1,514.65	86.7199	1,514.65	86.6162	1,514.65	87.4318	1,514.65	87.3473	1,514.65	87.4569	1,514.65	87.4979	1,514.65	86.7244	1,514.65	87.0959	1,514.65	85.3377	1,514.65	86.4286	1,514.65	83.5103	1,514.65	85.1203	1,514.65	81.3457	1,514.65	83.482	1,514.65	79.5987	1,514.65	81.8891	1,514.65	78.4324	1,514.65	80.0336	1,514.65	76.0081	1,514.65	78.5219	1,514.65	74.5833	1,514.65	76.809	1,514.65	73.6479	1,514.65	75.6265	1,514.65	75.1668	1,514.65	74.8289	1,514.65	74.4778	1,514.65	74.4307	1,514.65	65.7739	1,514.65	75.1389	1,514.65	74.422	1,514.65	69.7957	1,514.65	75.6058
1,570.31	86.752	1,570.31	87.3519	1,570.31	86.712	1,570.31	87.8711	1,570.31	87.2335	1,570.31	88.0079	1,570.31	87.7524	1,570.31	87.7757	1,570.31	87.8256	1,570.31	86.7729	1,570.31	87.2185	1,570.31	85.0915	1,570.31	86.1834	1,570.31	83.388	1,570.31	84.9361	1,570.31	82.077	1,570.31	83.1179	1,570.31	81.147	1,570.31	81.1172	1,570.31	78.4736	1,570.31	79.7049	1,570.31	74.4873	1,570.31	77.8942	1,570.31	72.2905	1,570.31	75.0388	1,570.31	68.0895	1,570.31	70.5937	1,570.31	74.0126	1,570.31	71.9027	1,570.31	70.9236	1,570.31	75.393	1,570.31	64.4728	1,570.31	71.1889	1,570.31	68.2311	1,570.31	68.797	1,570.31	68.8245
1,623.05	86.4208	1,623.05	86.4537	1,623.05	86.7974	1,623.05	87.2473	1,623.05	87.3719	1,623.05	88.0964	1,623.05	88.0084	1,623.05	88.053	1,623.05	88.1656	1,623.05	87.3195	1,623.05	87.5972	1,623.05	86.2899	1,623.05	86.277	1,623.05	84.8657	1,623.05	84.5176	1,623.05	83.3424	1,623.05	83.2206	1,623.05	81.3921	1,623.05	82.2776	1,623.05	78.2248	1,623.05	80.241	1,623.05	76.8278	1,623.05	76.9934	1,623.05	75.9337	1,623.05	75.3421	1,623.05	65.7811	1,623.05	73.0579	1,623.05	72.4263	1,623.05	70.8476	1,623.05	76.0565	1,623.05	73.3139	1,623.05	69.2189	1,623.05	71.9655	1,623.05	74.8001	1,623.05	63.9499	1,623.05	75.2195
1,681.64	85.5817	1,681.64	86.5069	1,681.64	85.6183	1,681.64	87.2048	1,681.64	86.5159	1,681.64	87.7123	1,681.64	87.1981	1,681.64	87.6504	1,681.64	87.4251	1,681.64	86.5065	1,681.64	86.8914	1,681.64	84.9743	1,681.64	85.8878	1,681.64	83.1263	1,681.64	84.5429	1,681.64	81.2425	1,681.64	82.042	1,681.64	80.3646	1,681.64	79.3113	1,681.64	78.3102	1,681.64	77.8106	1,681.64	75.2135	1,681.64	76.5307	1,681.64	73.3324	1,681.64	75.6848	1,681.64	69.2894	1,681.64	69.9235	1,681.64	74.6083	1,681.64	66.2914	1,681.64	70.8177	1,681.64	73.419	1,681.64	53.8738	1,681.64	67.3899	1,681.64	59.9035	1,681.64	69.3628	1,681.64	69.4543
1,740.23	85.9332	1,740.23	86.3112	1,740.23	86.0648	1,740.23	87.1548	1,740.23	86.5158	1,740.23	87.3808	1,740.23	87.0838	1,740.23	86.8327	1,740.23	87.2414	1,740.23	86.0637	1,740.23	86.7023	1,740.23	84.727	1,740.23	85.263	1,740.23	82.6411	1,740.23	83.7249	1,740.23	80.7586	1,740.23	82.4172	1,740.23	79.7488	1,740.23	80.8856	1,740.23	76.6686	1,740.23	79.2484	1,740.23	73.2645	1,740.23	75.623	1,740.23	75.8085	1,740.23	74.2955	1,740.23	67.4984	1,740.23	74.6957	1,740.23	71.8032	1,740.23	66.989	1,740.23	76.4567	1,740.23	72.814	1,740.23	70.2485	1,740.23	73.4613	1,740.23	73.173	1,740.23	64.0657	1,740.23	73.0623
1,801.76	86.5312	1,801.76	87.1011	1,801.76	86.6221	1,801.76	87.5928	1,801.76	87.4143	1,801.76	87.8883	1,801.76	88.0389	1,801.76	87.7706	1,801.76	88.1363	1,801.76	86.7859	1,801.76	87.647	1,801.76	84.8999	1,801.76	86.4929	1,801.76	82.5333	1,801.76	84.5729	1,801.76	80.4897	1,801.76	82.2469	1,801.76	79.0863	1,801.76	80.2655	1,801.76	76.6737	1,801.76	78.1436	1,801.76	73.649	1,801.76	75.7629	1,801.76	71.3966	1,801.76	74.7388	1,801.76	69.4697	1,801.76	70.7817	1,801.76	70.9936	1,801.76	66.9154	1,801.76	65.4568	1,801.76	72.113	1,801.76	54.8788	1,801.76	66.8152	1,801.76	59.2922	1,801.76	64.8587	1,801.76	66.2916
1,866.21	86.5275	1,866.21	86.878	1,866.21	86.7307	1,866.21	87.578	1,866.21	87.1682	1,866.21	87.9548	1,866.21	87.7072	1,866.21	87.5466	1,866.21	87.8591	1,866.21	86.3993	1,866.21	87.0815	1,866.21	85.1017	1,866.21	85.6445	1,866.21	83.4366	1,866.21	83.8193	1,866.21	81.1098	1,866.21	81.2688	1,866.21	79.0559	1,866.21	79.6735	1,866.21	77.4102	1,866.21	78.9833	1,866.21	74.075	1,866.21	75.3869	1,866.21	72.7666	1,866.21	73.6609	1,866.21	69.1871	1,866.21	75.398	1,866.21	63.3456	1,866.21	68.0121	1,866.21	71.4859	1,866.21	68.2674	1,866.21	65.1716	1,866.21	70.7377	1,866.21	73.43	1,866.21	64.4842	1,866.21	72.3652
1,930.66	85.6344	1,930.66	86.2652	1,930.66	85.7675	1,930.66	87.046	1,930.66	86.5282	1,930.66	87.3552	1,930.66	86.9497	1,930.66	87.0516	1,930.66	86.7566	1,930.66	86.1699	1,930.66	86.0883	1,930.66	84.4688	1,930.66	84.6722	1,930.66	82.3225	1,930.66	82.9306	1,930.66	80.1034	1,930.66	81.0406	1,930.66	78.2371	1,930.66	77.7347	1,930.66	76.5831	1,930.66	75.6358	1,930.66	74.3556	1,930.66	74.798	1,930.66	72.2878	1,930.66	71.1994	1,930.66	71.0965	1,930.66	69.27	1,930.66	66.9847	1,930.66	68.9673	1,930.66	64.7116	1,930.66	67.4742	1,930.66	66.5972	1,930.66	64.9758	1,930.66	65.8098	1,930.66	61.4301	1,930.66	60.9215
2,000.98	86.0432	2,000.98	86.5382	2,000.98	86.1361	2,000.98	87.0523	2,000.98	86.7908	2,000.98	87.1122	2,000.98	87.1535	2,000.98	86.4275	2,000.98	86.9049	2,000.98	84.8956	2,000.98	85.968	2,000.98	83.3061	2,000.98	84.7741	2,000.98	81.6275	2,000.98	82.8518	2,000.98	79.1794	2,000.98	80.844	2,000.98	76.3189	2,000.98	78.4563	2,000.98	74.3071	2,000.98	76.092	2,000.98	71.9866	2,000.98	73.0494	2,000.98	71.9435	2,000.98	71.4784	2,000.98	67.254	2,000.98	72.4753	2,000.98	69.3374	2,000.98	68.8874	2,000.98	70.8656	2,000.98	62.5455	2,000.98	67.8909	2,000.98	69.0262	2,000.98	71.1799	2,000.98	68.2479	2,000.98	71.1118
2,071.29	87.3144	2,071.29	87.8312	2,071.29	87.4034	2,071.29	88.2622	2,071.29	87.7769	2,071.29	87.9851	2,071.29	88.1928	2,071.29	87.2709	2,071.29	88.0021	2,071.29	85.9621	2,071.29	87.0457	2,071.29	84.2534	2,071.29	85.3069	2,071.29	82.352	2,071.29	83.8381	2,071.29	80.2615	2,071.29	81.9553	2,071.29	78.0898	2,071.29	79.8161	2,071.29	75.4098	2,071.29	77.8835	2,071.29	71.3198	2,071.29	76.3468	2,071.29	66.7651	2,071.29	72.3534	2,071.29	68.2751	2,071.29	70.7424	2,071.29	59.6955	2,071.29	71.6894	2,071.29	68.5933	2,071.29	66.4499	2,071.29	70.0655	2,071.29	60.1929	2,071.29	73.1044	2,071.29	69.6037	2,071.29	72.5202
2,144.53	86.9205	2,144.53	87.2202	2,144.53	87.0681	2,144.53	87.7966	2,144.53	87.6384	2,144.53	88.0875	2,144.53	87.8433	2,144.53	87.4538	2,144.53	87.3147	2,144.53	86.5438	2,144.53	86.2186	2,144.53	84.6135	2,144.53	84.953	2,144.53	82.313	2,144.53	82.3012	2,144.53	80.7102	2,144.53	80.5608	2,144.53	77.9476	2,144.53	78.8353	2,144.53	74.6688	2,144.53	75.6653	2,144.53	74.5948	2,144.53	72.3999	2,144.53	70.1667	2,144.53	71.9303	2,144.53	70.2772	2,144.53	68.6269	2,144.53	65.1188	2,144.53	64.1979	2,144.53	66.436	2,144.53	68.4831	2,144.53	69.4049	2,144.53	69.6581	2,144.53	73.0506	2,144.53	63.9935	2,144.53	70.4077
2,217.77	86.8058	2,217.77	87.4889	2,217.77	86.7402	2,217.77	87.8408	2,217.77	86.9906	2,217.77	87.5926	2,217.77	87.1291	2,217.77	86.7756	2,217.77	87.0858	2,217.77	85.2206	2,217.77	85.8973	2,217.77	83.7017	2,217.77	84.3164	2,217.77	82.3376	2,217.77	82.8785	2,217.77	80.2061	2,217.77	80.4863	2,217.77	78.1352	2,217.77	78.5641	2,217.77	76.1419	2,217.77	76.1728	2,217.77	71.6364	2,217.77	73.7486	2,217.77	71.9081	2,217.77	70.4923	2,217.77	68.8644	2,217.77	70.3066	2,217.77	68.7555	2,217.77	69.3478	2,217.77	71.7245	2,217.77	61.0224	2,217.77	71.541	2,217.77	63.687	2,217.77	72.6647	2,217.77	66.4293	2,217.77	71.7056
2,296.88	86.8414	2,296.88	86.8565	2,296.88	86.9818	2,296.88	87.4217	2,296.88	87.3968	2,296.88	87.6005	2,296.88	87.7994	2,296.88	87.038	2,296.88	87.2715	2,296.88	85.7503	2,296.88	86.6827	2,296.88	83.9424	2,296.88	85.3432	2,296.88	81.9074	2,296.88	83.2358	2,296.88	79.9406	2,296.88	81.4886	2,296.88	78.0667	2,296.88	79.6264	2,296.88	75.6661	2,296.88	77.3362	2,296.88	73.5219	2,296.88	74.7339	2,296.88	68.1	2,296.88	70.9286	2,296.88	67.6624	2,296.88	66.7077	2,296.88	60.0068	2,296.88	70.2721	2,296.88	59.4819	2,296.88	62.3766	2,296.88	70.3359	2,296.88	60.9383	2,296.88	73.6856	2,296.88	71.9815	2,296.88	71.6623
2,378.91	88.1375	2,378.91	88.403	2,378.91	88.0293	2,378.91	88.7673	2,378.91	88.6379	2,378.91	88.8381	2,378.91	88.8652	2,378.91	88.0033	2,378.91	88.831	2,378.91	86.8604	2,378.91	87.6057	2,378.91	84.9985	2,378.91	86.1891	2,378.91	83.1587	2,378.91	84.0113	2,378.91	80.8975	2,378.91	82.3654	2,378.91	78.726	2,378.91	80.1136	2,378.91	74.4223	2,378.91	77.2416	2,378.91	72.2533	2,378.91	74.51	2,378.91	70.3004	2,378.91	72.8436	2,378.91	63.4006	2,378.91	71.5117	2,378.91	66.5631	2,378.91	65.704	2,378.91	62.2896	2,378.91	66.7898	2,378.91	70.1365	2,378.91	68.9552	2,378.91	74.6271	2,378.91	65.2612	2,378.91	70.5023
2,460.94	87.806	2,460.94	88.1556	2,460.94	88.0169	2,460.94	88.6327	2,460.94	88.0789	2,460.94	88.8276	2,460.94	88.1827	2,460.94	88.4948	2,460.94	88.1267	2,460.94	87.1595	2,460.94	87.3872	2,460.94	85.9188	2,460.94	86.0556	2,460.94	84.1994	2,460.94	84.7573	2,460.94	81.9575	2,460.94	82.964	2,460.94	79.5276	2,460.94	80.2351	2,460.94	77.1705	2,460.94	78.2082	2,460.94	74.4139	2,460.94	74.6204	2,460.94	68.843	2,460.94	72.9908	2,460.94	70.0703	2,460.94	70.3563	2,460.94	68.7558	2,460.94	69.9387	2,460.94	72.1216	2,460.94	67.1671	2,460.94	68.5839	2,460.94	64.5348	2,460.94	74.5667	2,460.94	65.4892	2,460.94	70.3343
2,548.83	88.5022	2,548.83	88.2127	2,548.83	88.261	2,548.83	88.2408	2,548.83	88.163	2,548.83	88.2436	2,548.83	88.3765	2,548.83	87.8062	2,548.83	88.0619	2,548.83	87.3866	2,548.83	87.4166	2,548.83	85.4187	2,548.83	86.3237	2,548.83	83.1553	2,548.83	84.1582	2,548.83	81.9796	2,548.83	82.0965	2,548.83	79.2744	2,548.83	81.0236	2,548.83	77.0276	2,548.83	77.1237	2,548.83	74.0775	2,548.83	75.7192	2,548.83	72.9363	2,548.83	69.2618	2,548.83	68.0656	2,548.83	67.5464	2,548.83	58.1631	2,548.83	64.7546	2,548.83	62.5593	2,548.83	67.299	2,548.83	70.6655	2,548.83	66.1141	2,548.83	74.8948	2,548.83	72.3263	2,548.83	72.1628
2,639.65	88.6065	2,639.65	88.326	2,639.65	88.5501	2,639.65	88.4205	2,639.65	88.1744	2,639.65	88.4199	2,639.65	87.8598	2,639.65	88.0346	2,639.65	88.4721	2,639.65	86.9114	2,639.65	87.954	2,639.65	85.8408	2,639.65	87.0434	2,639.65	84.1886	2,639.65	85.4591	2,639.65	81.9302	2,639.65	83.6177	2,639.65	78.648	2,639.65	81.1133	2,639.65	76.2551	2,639.65	78.2941	2,639.65	69.8496	2,639.65	75.0842	2,639.65	68.6947	2,639.65	71.4992	2,639.65	69.1365	2,639.65	69.4024	2,639.65	66.1486	2,639.65	63.7007	2,639.65	71.2178	2,639.65	71.0518	2,639.65	73.354	2,639.65	61.7315	2,639.65	74.4251	2,639.65	66.4825	2,639.65	69.1892
2,733.4	88.3178	2,733.4	87.594	2,733.4	88.2458	2,733.4	87.5487	2,733.4	87.6168	2,733.4	88.0416	2,733.4	87.7045	2,733.4	88.4294	2,733.4	87.6811	2,733.4	87.9698	2,733.4	87.9936	2,733.4	86.0936	2,733.4	86.9586	2,733.4	84.1832	2,733.4	85.6288	2,733.4	82.4996	2,733.4	83.021	2,733.4	80.1197	2,733.4	81.2055	2,733.4	76.3902	2,733.4	77.8849	2,733.4	73.5722	2,733.4	77.3004	2,733.4	67.5626	2,733.4	68.8024	2,733.4	61.6772	2,733.4	69.5302	2,733.4	63.7785	2,733.4	70.6197	2,733.4	69.7071	2,733.4	55.2083	2,733.4	68.7952	2,733.4	56.718	2,733.4	73.8962	2,733.4	70.4142	2,733.4	70.018
2,827.15	88.7728	2,827.15	88.0063	2,827.15	88.441	2,827.15	87.292	2,827.15	87.6385	2,827.15	87.4641	2,827.15	87.41	2,827.15	87.9164	2,827.15	87.7997	2,827.15	87.6789	2,827.15	87.8901	2,827.15	86.4225	2,827.15	87.2319	2,827.15	84.393	2,827.15	85.589	2,827.15	82.2209	2,827.15	83.1261	2,827.15	77.5972	2,827.15	81.3669	2,827.15	75.1592	2,827.15	77.6058	2,827.15	70.581	2,827.15	75.7346	2,827.15	70.3896	2,827.15	71.4162	2,827.15	55.6988	2,827.15	68.7009	2,827.15	67.2147	2,827.15	69.0862	2,827.15	66.8772	2,827.15	70.4641	2,827.15	72.4704	2,827.15	67.8011	2,827.15	75.605	2,827.15	65.1493	2,827.15	71.6318
2,926.76	88.2911	2,926.76	87.2785	2,926.76	87.9933	2,926.76	86.6447	2,926.76	86.2749	2,926.76	87.3664	2,926.76	86.109	2,926.76	87.6549	2,926.76	87.4	2,926.76	87.6619	2,926.76	88.0095	2,926.76	86.4321	2,926.76	87.0216	2,926.76	84.1429	2,926.76	85.5683	2,926.76	81.0689	2,926.76	82.4845	2,926.76	78.8553	2,926.76	80.1808	2,926.76	77.2253	2,926.76	77.4576	2,926.76	72.9385	2,926.76	72.0132	2,926.76	68.5701	2,926.76	69.8985	2,926.76	66.7756	2,926.76	59.3132	2,926.76	64.5191	2,926.76	68.0684	2,926.76	71.3208	2,926.76	62.393	2,926.76	72.0654	2,926.76	54.3378	2,926.76	75.9244	2,926.76	63.842	2,926.76	71.5269
3,032.23	87.5412	3,032.23	85.9923	3,032.23	87.4853	3,032.23	85.1504	3,032.23	85.9817	3,032.23	86.5783	3,032.23	85.492	3,032.23	87.3726	3,032.23	86.6906	3,032.23	87.0232	3,032.23	87.0207	3,032.23	85.2203	3,032.23	86.9814	3,032.23	83.3454	3,032.23	84.1444	3,032.23	81.329	3,032.23	82.6539	3,032.23	77.2223	3,032.23	80.9231	3,032.23	74.0971	3,032.23	76.3647	3,032.23	72.0699	3,032.23	74.0966	3,032.23	69.6501	3,032.23	67.7881	3,032.23	60.9	3,032.23	67.2391	3,032.23	62.8114	3,032.23	55.7002	3,032.23	60.0271	3,032.23	68.4187	3,032.23	71.8928	3,032.23	64.6339	3,032.23	76.3411	3,032.23	65.8165	3,032.23	68.7751
3,137.7	87.7832	3,137.7	86.399	3,137.7	87.5341	3,137.7	84.8392	3,137.7	85.8447	3,137.7	86.029	3,137.7	85.7654	3,137.7	87.1839	3,137.7	86.8807	3,137.7	87.1646	3,137.7	87.1495	3,137.7	85.3298	3,137.7	86.1004	3,137.7	82.3745	3,137.7	85.0278	3,137.7	79.4446	3,137.7	81.7617	3,137.7	77.3202	3,137.7	79.2385	3,137.7	74.9483	3,137.7	76.1613	3,137.7	70.4254	3,137.7	71.2601	3,137.7	64.4099	3,137.7	65.6149	3,137.7	68.4666	3,137.7	66.1242	3,137.7	59.5209	3,137.7	62.6731	3,137.7	69.9783	3,137.7	63.4089	3,137.7	70.3772	3,137.7	63.7945	3,137.7	77.1143	3,137.7	63.1508	3,137.7	70.1812
3,249.02	87.3815	3,249.02	86.174	3,249.02	86.8885	3,249.02	84.4805	3,249.02	85.1852	3,249.02	85.3738	3,249.02	85.0301	3,249.02	86.2416	3,249.02	86.065	3,249.02	85.9034	3,249.02	86.3642	3,249.02	84.4498	3,249.02	85.6616	3,249.02	81.7825	3,249.02	82.3807	3,249.02	80.5671	3,249.02	81.5947	3,249.02	76.4271	3,249.02	79.8307	3,249.02	69.6332	3,249.02	74.5835	3,249.02	67.7315	3,249.02	73.1844	3,249.02	61.729	3,249.02	65.6263	3,249.02	60.5431	3,249.02	71.6614	3,249.02	61.5834	3,249.02	59.2034	3,249.02	58.7458	3,249.02	63.2334	3,249.02	68.4092	3,249.02	61.6726	3,249.02	76.0321	3,249.02	64.0049	3,249.02	65.295
3,363.28	86.9484	3,363.28	85.8132	3,363.28	86.3571	3,363.28	84.8922	3,363.28	84.8914	3,363.28	85.3951	3,363.28	84.7961	3,363.28	85.7228	3,363.28	85.9071	3,363.28	85.6219	3,363.28	86.4807	3,363.28	83.7458	3,363.28	84.851	3,363.28	80.913	3,363.28	83.2536	3,363.28	78.5805	3,363.28	80.1839	3,363.28	76.5251	3,363.28	77.1858	3,363.28	72.5578	3,363.28	74.8645	3,363.28	64.151	3,363.28	69.5088	3,363.28	58.2451	3,363.28	63.4181	3,363.28	62.0071	3,363.28	66.631	3,363.28	64.9061	3,363.28	61.2241	3,363.28	65.6539	3,363.28	58.891	3,363.28	69.0717	3,363.28	64.6581	3,363.28	76.2299	3,363.28	62.2181	3,363.28	67.2473
3,483.4	86.6427	3,483.4	85.816	3,483.4	86.4605	3,483.4	85.0275	3,483.4	84.8495	3,483.4	85.1137	3,483.4	84.5643	3,483.4	85.7181	3,483.4	84.9195	3,483.4	85.349	3,483.4	85.4376	3,483.4	84.0054	3,483.4	84.8365	3,483.4	81.0232	3,483.4	82.2658	3,483.4	79.8821	3,483.4	80.1271	3,483.4	76.4768	3,483.4	78.8656	3,483.4	70.5429	3,483.4	74.7764	3,483.4	59.5715	3,483.4	69.5117	3,483.4	59.5981	3,483.4	67.5626	3,483.4	66.4419	3,483.4	66.2194	3,483.4	63.8516	3,483.4	54.195	3,483.4	53.7084	3,483.4	63.7472	3,483.4	67.744	3,483.4	58.6669	3,483.4	76.6319	3,483.4	61.9469	3,483.4	68.9508
3,606.45	86.4833	3,606.45	85.4093	3,606.45	85.9806	3,606.45	85.0711	3,606.45	85.6197	3,606.45	84.9091	3,606.45	84.7148	3,606.45	85.5768	3,606.45	85.0648	3,606.45	84.3981	3,606.45	85.1665	3,606.45	83.1127	3,606.45	84.0677	3,606.45	81.3867	3,606.45	82.645	3,606.45	79.7556	3,606.45	81.0649	3,606.45	75.9839	3,606.45	77.9298	3,606.45	72.8394	3,606.45	75.1479	3,606.45	66.8344	3,606.45	72.0086	3,606.45	62.9374	3,606.45	59.6391	3,606.45	61.7832	3,606.45	59.6873	3,606.45	58.6853	3,606.45	65.7502	3,606.45	56.2426	3,606.45	42.5887	3,606.45	70.5867	3,606.45	58.4203	3,606.45	74.4956	3,606.45	58.6141	3,606.45	68.8538
3,732.42	86.0326	3,732.42	86.1512	3,732.42	86.4179	3,732.42	85.7738	3,732.42	85.9718	3,732.42	84.7801	3,732.42	84.7217	3,732.42	84.9931	3,732.42	84.3713	3,732.42	85.2476	3,732.42	84.4526	3,732.42	83.8806	3,732.42	84.349	3,732.42	81.3243	3,732.42	82.9107	3,732.42	78.7859	3,732.42	79.9331	3,732.42	75.4272	3,732.42	78.0663	3,732.42	72.2806	3,732.42	75.3494	3,732.42	61.1163	3,732.42	68.6697	3,732.42	58.8866	3,732.42	66.2673	3,732.42	55.0591	3,732.42	66.9776	3,732.42	61.1464	3,732.42	64.5057	3,732.42	54.4348	3,732.42	57.5833	3,732.42	70.5426	3,732.42	60.009	3,732.42	73.9046	3,732.42	60.6448	3,732.42	67.8669
3,864.26	86.3088	3,864.26	86.5281	3,864.26	86.1131	3,864.26	85.5487	3,864.26	86.6969	3,864.26	83.8302	3,864.26	85.282	3,864.26	84.5985	3,864.26	83.9825	3,864.26	84.3521	3,864.26	84.7509	3,864.26	83.6295	3,864.26	84.3988	3,864.26	81.2616	3,864.26	83.0243	3,864.26	79.8051	3,864.26	80.9876	3,864.26	76.2034	3,864.26	78.2737	3,864.26	71.959	3,864.26	74.9257	3,864.26	70.6225	3,864.26	67.5756	3,864.26	63.2064	3,864.26	66.7916	3,864.26	59.9972	3,864.26	61.2492	3,864.26	59.2093	3,864.26	67.0101	3,864.26	63.4884	3,864.26	62.5917	3,864.26	70.1681	3,864.26	63.3246	3,864.26	72.4072	3,864.26	67.6666	3,864.26	66.4275
3,999.02	86.7818	3,999.02	87.4342	3,999.02	87.113	3,999.02	86.5338	3,999.02	87.42	3,999.02	84.5387	3,999.02	85.2854	3,999.02	84.3967	3,999.02	84.6295	3,999.02	84.8859	3,999.02	84.8213	3,999.02	84.2776	3,999.02	84.8029	3,999.02	81.8313	3,999.02	83.5174	3,999.02	78.8005	3,999.02	81.4293	3,999.02	75.9623	3,999.02	77.6183	3,999.02	69.5479	3,999.02	74.5697	3,999.02	63.8123	3,999.02	68.1527	3,999.02	67.3147	3,999.02	63.1443	3,999.02	64.1375	3,999.02	58.3713	3,999.02	60.4871	3,999.02	58.3051	3,999.02	63.283	3,999.02	61.2019	3,999.02	66.1063	3,999.02	62.1286	3,999.02	71.8724	3,999.02	66.0798	3,999.02	67.9971
4,139.65	86.642	4,139.65	87.5917	4,139.65	87.1818	4,139.65	86.2184	4,139.65	87.1005	4,139.65	84.2307	4,139.65	85.177	4,139.65	84.4075	4,139.65	83.7228	4,139.65	85.4193	4,139.65	84.3908	4,139.65	84.169	4,139.65	84.9178	4,139.65	81.9507	4,139.65	82.825	4,139.65	79.5569	4,139.65	80.1833	4,139.65	75.8937	4,139.65	78.4054	4,139.65	69.5058	4,139.65	73.468	4,139.65	69.5512	4,139.65	67.3424	4,139.65	65.7887	4,139.65	59.0153	4,139.65	61.1118	4,139.65	61.3112	4,139.65	62.3803	4,139.65	60.4038	4,139.65	60.2298	4,139.65	61.9137	4,139.65	56.4289	4,139.65	58.0318	4,139.65	72.6753	4,139.65	57.3013	4,139.65	64.575
4,286.13	87.4155	4,286.13	87.9475	4,286.13	87.5557	4,286.13	86.774	4,286.13	87.9914	4,286.13	84.1897	4,286.13	86.0273	4,286.13	84.881	4,286.13	84.0121	4,286.13	85.1192	4,286.13	85.5643	4,286.13	84.0817	4,286.13	85.0977	4,286.13	81.4169	4,286.13	83.6679	4,286.13	78.7608	4,286.13	79.8502	4,286.13	74.5709	4,286.13	78.5603	4,286.13	70.6851	4,286.13	73.0582	4,286.13	66.5402	4,286.13	68.0317	4,286.13	67.3553	4,286.13	55.3822	4,286.13	59.7045	4,286.13	64.421	4,286.13	60.1666	4,286.13	67.0806	4,286.13	56.2961	4,286.13	58.9312	4,286.13	69.3754	4,286.13	24.2279	4,286.13	71.5084	4,286.13	62.3258	4,286.13	60.4033
4,438.48	87.6722	4,438.48	88.1044	4,438.48	87.8217	4,438.48	87.0957	4,438.48	88.0021	4,438.48	84.345	4,438.48	85.9085	4,438.48	84.6436	4,438.48	84.4103	4,438.48	85.0876	4,438.48	84.8989	4,438.48	84.0096	4,438.48	84.4565	4,438.48	81.5876	4,438.48	83.1445	4,438.48	79.0271	4,438.48	80.3048	4,438.48	75.9873	4,438.48	77.5387	4,438.48	69.2261	4,438.48	76.0344	4,438.48	64.2203	4,438.48	65.1415	4,438.48	62.7157	4,438.48	69.3866	4,438.48	52.9006	4,438.48	63.8939	4,438.48	61.3565	4,438.48	69.0153	4,438.48	65.2267	4,438.48	66.0396	4,438.48	69.877	4,438.48	56.6623	4,438.48	72.215	4,438.48	56.8551	4,438.48	64.2542
4,593.75	87.7982	4,593.75	88.43	4,593.75	88.2422	4,593.75	86.9408	4,593.75	87.8492	4,593.75	84.7929	4,593.75	85.8428	4,593.75	84.1463	4,593.75	84.6105	4,593.75	84.8369	4,593.75	84.5918	4,593.75	83.0836	4,593.75	84.1016	4,593.75	80.7862	4,593.75	82.2646	4,593.75	78.762	4,593.75	79.6502	4,593.75	75.8232	4,593.75	76.66	4,593.75	70.0811	4,593.75	74.3846	4,593.75	68.0898	4,593.75	67.6583	4,593.75	66.8282	4,593.75	64.1803	4,593.75	64.3621	4,593.75	52.2432	4,593.75	64.5256	4,593.75	65.4329	4,593.75	56.3782	4,593.75	61.083	4,593.75	63.2244	4,593.75	60.6026	4,593.75	71.5384	4,593.75	54.4994	4,593.75	61.877
4,757.81	87.9055	4,757.81	87.7854	4,757.81	87.9234	4,757.81	86.6885	4,757.81	87.4698	4,757.81	84.4899	4,757.81	85.9429	4,757.81	83.7282	4,757.81	84.1935	4,757.81	84.2822	4,757.81	83.9469	4,757.81	82.9077	4,757.81	83.4586	4,757.81	81.1306	4,757.81	82.4755	4,757.81	78.4065	4,757.81	79.7099	4,757.81	74.7856	4,757.81	78.4971	4,757.81	69.6052	4,757.81	73.2244	4,757.81	60.5138	4,757.81	68.0303	4,757.81	54.7566	4,757.81	65.3466	4,757.81	56.82	4,757.81	59.6823	4,757.81	48.6519	4,757.81	66.5887	4,757.81	60.1347	4,757.81	67.2094	4,757.81	67.5666	4,757.81	59.808	4,757.81	72.2192	4,757.81	63.936	4,757.81	61.2569
4,924.8	88.1269	4,924.8	87.1663	4,924.8	87.7516	4,924.8	86.403	4,924.8	87.1106	4,924.8	84.716	4,924.8	85.7621	4,924.8	83.0966	4,924.8	83.6682	4,924.8	82.7752	4,924.8	83.0073	4,924.8	82.6911	4,924.8	83.4757	4,924.8	80.9268	4,924.8	82.4632	4,924.8	77.6405	4,924.8	80.1558	4,924.8	74.7234	4,924.8	77.3907	4,924.8	69.5839	4,924.8	74.9008	4,924.8	61.3126	4,924.8	66.4691	4,924.8	49.599	4,924.8	60.7682	4,924.8	60.479	4,924.8	58.5603	4,924.8	62.0021	4,924.8	65.5707	4,924.8	63.1009	4,924.8	59.4585	4,924.8	57.9666	4,924.8	60.5809	4,924.8	71.409	4,924.8	62.8754	4,924.8	65.6649
5,097.66	87.8861	5,097.66	86.692	5,097.66	87.3715	5,097.66	86.3861	5,097.66	86.583	5,097.66	84.2937	5,097.66	86.153	5,097.66	82.5918	5,097.66	83.548	5,097.66	82.7516	5,097.66	82.9315	5,097.66	82.6437	5,097.66	83.874	5,097.66	80.6735	5,097.66	82.8747	5,097.66	78.7784	5,097.66	80.3367	5,097.66	76.4149	5,097.66	77.4919	5,097.66	71.4563	5,097.66	73.5523	5,097.66	65.9793	5,097.66	69.8814	5,097.66	63.8955	5,097.66	58.7313	5,097.66	62.7203	5,097.66	62.4894	5,097.66	60.5158	5,097.66	64.5136	5,097.66	54.6716	5,097.66	65.1296	5,097.66	60.5784	5,097.66	58.6302	5,097.66	70.1833	5,097.66	63.7446	5,097.66	63.8485
5,279.3	87.0648	5,279.3	86.0095	5,279.3	86.8492	5,279.3	86.6881	5,279.3	86.0287	5,279.3	84.8883	5,279.3	86.2768	5,279.3	82.8229	5,279.3	83.5853	5,279.3	83.9308	5,279.3	82.9486	5,279.3	83.3361	5,279.3	83.616	5,279.3	81.0084	5,279.3	82.8774	5,279.3	78.1199	5,279.3	79.0887	5,279.3	74.5229	5,279.3	77.6955	5,279.3	69.3449	5,279.3	74.0255	5,279.3	62.1914	5,279.3	63.8249	5,279.3	48.9485	5,279.3	55.2589	5,279.3	58.8592	5,279.3	59.4586	5,279.3	45.7645	5,279.3	65.7356	5,279.3	51.1584	5,279.3	56.387	5,279.3	26.2257	5,279.3	56.8363	5,279.3	68.5341	5,279.3	58.0948	5,279.3	53.7054
5,463.87	87.0049	5,463.87	85.8267	5,463.87	86.5547	5,463.87	86.4185	5,463.87	86.1711	5,463.87	85.1622	5,463.87	86.516	5,463.87	82.8652	5,463.87	84.372	5,463.87	83.2592	5,463.87	83.2337	5,463.87	82.7105	5,463.87	83.4768	5,463.87	79.6064	5,463.87	82.3968	5,463.87	77.5077	5,463.87	79.458	5,463.87	73.6789	5,463.87	76.2102	5,463.87	69.78	5,463.87	72.3077	5,463.87	61.6373	5,463.87	68.3546	5,463.87	61.911	5,463.87	59.9949	5,463.87	63.624	5,463.87	60.5475	5,463.87	62.5456	5,463.87	64.8341	5,463.87	52.8279	5,463.87	58.1331	5,463.87	58.4461	5,463.87	58.8971	5,463.87	67.3208	5,463.87	63.5272	5,463.87	64.2361
5,657.23	86.5291	5,657.23	86.1485	5,657.23	85.7903	5,657.23	86.7107	5,657.23	85.9093	5,657.23	85.852	5,657.23	86.3899	5,657.23	83.8784	5,657.23	84.4529	5,657.23	83.5104	5,657.23	83.2806	5,657.23	82.258	5,657.23	83.1918	5,657.23	79.4165	5,657.23	81.5156	5,657.23	76.6291	5,657.23	77.7704	5,657.23	73.0719	5,657.23	75.289	5,657.23	67.6539	5,657.23	72.5636	5,657.23	60.1347	5,657.23	60.1152	5,657.23	65.0542	5,657.23	63.105	5,657.23	62.4857	5,657.23	57.2269	5,657.23	58.0315	5,657.23	64.2747	5,657.23	56.0168	5,657.23	50.8978	5,657.23	54.4073	5,657.23	56.22	5,657.23	69.1014	5,657.23	54.2902	5,657.23	64.6252
5,856.45	87.0759	5,856.45	86.9128	5,856.45	86.8174	5,856.45	87.3412	5,856.45	86.5064	5,856.45	86.5837	5,856.45	86.8647	5,856.45	84.4586	5,856.45	85.3211	5,856.45	83.7719	5,856.45	83.3547	5,856.45	82.085	5,856.45	82.8833	5,856.45	79.8941	5,856.45	81.361	5,856.45	76.3468	5,856.45	78.4381	5,856.45	73.4507	5,856.45	76.6963	5,856.45	66.5167	5,856.45	70.9758	5,856.45	56.1662	5,856.45	65.2435	5,856.45	51.6681	5,856.45	59.5512	5,856.45	45.0508	5,856.45	57.4778	5,856.45	57.6592	5,856.45	57.6909	5,856.45	44.1541	5,856.45	55.8141	5,856.45	53.5074	5,856.45	60.1926	5,856.45	68.5268	5,856.45	48.8469	5,856.45	56.1899
6,061.52	87.2788	6,061.52	87.3971	6,061.52	87.4317	6,061.52	87.5472	6,061.52	87.0429	6,061.52	86.6696	6,061.52	87.0305	6,061.52	84.5095	6,061.52	85.9476	6,061.52	82.7279	6,061.52	83.8697	6,061.52	81.6397	6,061.52	82.952	6,061.52	78.8863	6,061.52	81.2281	6,061.52	75.8494	6,061.52	78.8229	6,061.52	73.7178	6,061.52	74.8439	6,061.52	69.8633	6,061.52	70.8865	6,061.52	60.5903	6,061.52	68.2297	6,061.52	65.9835	6,061.52	57.2965	6,061.52	63.1036	6,061.52	61.7469	6,061.52	57.8524	6,061.52	62.7306	6,061.52	57.2426	6,061.52	60.2567	6,061.52	54.62	6,061.52	54.5568	6,061.52	65.7901	6,061.52	56.304	6,061.52	61.2124
6,275.39	86.9047	6,275.39	87.5211	6,275.39	87.1127	6,275.39	87.057	6,275.39	86.9994	6,275.39	86.6842	6,275.39	87.0619	6,275.39	84.4808	6,275.39	86.0497	6,275.39	82.402	6,275.39	83.8074	6,275.39	81.7495	6,275.39	82.82	6,275.39	79.6107	6,275.39	81.9573	6,275.39	76.9562	6,275.39	78.423	6,275.39	73.1914	6,275.39	75.5181	6,275.39	70.5401	6,275.39	72.1589	6,275.39	63.2745	6,275.39	64.3293	6,275.39	66.5863	6,275.39	56.5969	6,275.39	57.7315	6,275.39	63.4787	6,275.39	54.8432	6,275.39	66.3577	6,275.39	57.0675	6,275.39	54.2335	6,275.39	57.8509	6,275.39	57.5846	6,275.39	62.7689	6,275.39	58.4355	6,275.39	63.621
6,498.05	86.5259	6,498.05	87.3904	6,498.05	87.0161	6,498.05	87.0178	6,498.05	86.5877	6,498.05	86.7803	6,498.05	86.8629	6,498.05	84.4259	6,498.05	85.8163	6,498.05	83.064	6,498.05	83.3492	6,498.05	82.5734	6,498.05	82.7448	6,498.05	80.1866	6,498.05	81.9929	6,498.05	77.1688	6,498.05	78.7093	6,498.05	72.2301	6,498.05	75.8347	6,498.05	69.6801	6,498.05	72.0804	6,498.05	62.4367	6,498.05	63.6956	6,498.05	46.4156	6,498.05	55.4807	6,498.05	57.7366	6,498.05	55.2966	6,498.05	45.1231	6,498.05	65.5592	6,498.05	46.1059	6,498.05	59.3995	6,498.05	55.4623	6,498.05	58.7852	6,498.05	60.7064	6,498.05	41.8159	6,498.05	56.6427
6,726.56	86.1039	6,726.56	87.2837	6,726.56	86.9637	6,726.56	86.3308	6,726.56	86.3735	6,726.56	86.4125	6,726.56	86.8135	6,726.56	84.0942	6,726.56	85.601	6,726.56	82.7815	6,726.56	83.0185	6,726.56	82.1494	6,726.56	82.9427	6,726.56	79.6132	6,726.56	81.7703	6,726.56	77.0243	6,726.56	78.3163	6,726.56	73.0753	6,726.56	75.9699	6,726.56	69.8129	6,726.56	72.0246	6,726.56	57.572	6,726.56	64.6282	6,726.56	65.5149	6,726.56	61.7633	6,726.56	61.091	6,726.56	48.6742	6,726.56	52.5329	6,726.56	65.963	6,726.56	63.3917	6,726.56	65.584	6,726.56	58.1731	6,726.56	56.2518	6,726.56	62.3349	6,726.56	54.7309	6,726.56	57.5543
6,963.87	85.8082	6,963.87	86.5762	6,963.87	86.222	6,963.87	85.9105	6,963.87	85.8952	6,963.87	85.5121	6,963.87	85.9723	6,963.87	83.6149	6,963.87	85.0986	6,963.87	82.4523	6,963.87	83.0505	6,963.87	82.0236	6,963.87	82.4493	6,963.87	79.4349	6,963.87	81.7171	6,963.87	76.9632	6,963.87	79.006	6,963.87	73.6798	6,963.87	76.7811	6,963.87	70.0451	6,963.87	71.8688	6,963.87	61.0238	6,963.87	65.5678	6,963.87	60.4284	6,963.87	63.1892	6,963.87	49.835	6,963.87	61.4612	6,963.87	59.5805	6,963.87	63.3358	6,963.87	64.3029	6,963.87	63.1455	6,963.87	60.2741	6,963.87	60.2919	6,963.87	52.7787	6,963.87	57.2911	6,963.87	62.314
7,209.96	85.5715	7,209.96	85.7568	7,209.96	86.0153	7,209.96	85.6758	7,209.96	85.6061	7,209.96	84.5765	7,209.96	85.3122	7,209.96	83.7076	7,209.96	84.6696	7,209.96	82.0894	7,209.96	82.9454	7,209.96	81.586	7,209.96	81.8052	7,209.96	79.2111	7,209.96	81.535	7,209.96	76.6135	7,209.96	78.5752	7,209.96	73.0584	7,209.96	75.8019	7,209.96	69.9861	7,209.96	72.6084	7,209.96	59.9424	7,209.96	65.0663	7,209.96	61.7782	7,209.96	62.6275	7,209.96	63.6958	7,209.96	66.7032	7,209.96	58.7967	7,209.96	65.0316	7,209.96	53.3975	7,209.96	59.5069	7,209.96	51.3697	7,209.96	59.9376	7,209.96	61.6704	7,209.96	55.1736	7,209.96	56.0258
7,464.84	85.5367	7,464.84	85.2737	7,464.84	85.2562	7,464.84	85.1897	7,464.84	85.4506	7,464.84	84.3864	7,464.84	84.7065	7,464.84	83.4673	7,464.84	84.4839	7,464.84	81.4753	7,464.84	82.2348	7,464.84	81.1889	7,464.84	81.5237	7,464.84	78.5167	7,464.84	81.2265	7,464.84	75.4023	7,464.84	77.2989	7,464.84	72.4123	7,464.84	73.775	7,464.84	68.0903	7,464.84	70.6924	7,464.84	64.0423	7,464.84	63.2117	7,464.84	58.5196	7,464.84	70.2742	7,464.84	61.4382	7,464.84	67.4173	7,464.84	54.1685	7,464.84	62.3625	7,464.84	62.8193	7,464.84	65.2841	7,464.84	50.408	7,464.84	63.0455	7,464.84	50.2911	7,464.84	63.8617	7,464.84	60.8164
7,728.52	85.5139	7,728.52	85.1485	7,728.52	85.5711	7,728.52	84.7918	7,728.52	85.353	7,728.52	84.3749	7,728.52	84.5282	7,728.52	82.8565	7,728.52	84.3623	7,728.52	81.0555	7,728.52	82.0001	7,728.52	80.8323	7,728.52	81.4623	7,728.52	78.1466	7,728.52	80.6391	7,728.52	73.5245	7,728.52	76.5864	7,728.52	71.488	7,728.52	73.6806	7,728.52	61.8688	7,728.52	69.3859	7,728.52	63.2625	7,728.52	62.116	7,728.52	57.5534	7,728.52	68.9873	7,728.52	61.6688	7,728.52	65.1912	7,728.52	54.08	7,728.52	60.7827	7,728.52	49.1807	7,728.52	61.5438	7,728.52	44.0787	7,728.52	54.7725	7,728.52	54.0572	7,728.52	58.1872	7,728.52	60.6687
8,000.98	85.8401	8,000.98	85.8466	8,000.98	85.9608	8,000.98	84.9432	8,000.98	86.0153	8,000.98	84.502	8,000.98	84.8911	8,000.98	82.7117	8,000.98	84.4691	8,000.98	80.6979	8,000.98	81.9197	8,000.98	80.0409	8,000.98	80.9358	8,000.98	77.9145	8,000.98	80.2252	8,000.98	72.9274	8,000.98	77.4318	8,000.98	71.2142	8,000.98	73.3014	8,000.98	64.6549	8,000.98	66.8548	8,000.98	55.8889	8,000.98	66.9119	8,000.98	61.4042	8,000.98	63.9568	8,000.98	60.6962	8,000.98	69.9728	8,000.98	61.9585	8,000.98	61.4289	8,000.98	62.4877	8,000.98	61.1426	8,000.98	51.3718	8,000.98	59.7279	8,000.98	59.4986	8,000.98	60.463	8,000.98	60.8241
8,282.23	86.6321	8,282.23	86.3465	8,282.23	86.7348	8,282.23	85.3257	8,282.23	86.4208	8,282.23	84.7098	8,282.23	85.1225	8,282.23	82.979	8,282.23	84.2962	8,282.23	80.5212	8,282.23	82.2268	8,282.23	79.7368	8,282.23	80.7098	8,282.23	76.7636	8,282.23	80.0622	8,282.23	73.2914	8,282.23	77.269	8,282.23	68.7864	8,282.23	72.6562	8,282.23	66.5892	8,282.23	69.5606	8,282.23	66.7084	8,282.23	63.5271	8,282.23	58.3459	8,282.23	66.2561	8,282.23	47.185	8,282.23	63.3193	8,282.23	55.2607	8,282.23	55.9894	8,282.23	60.6411	8,282.23	66.3491	8,282.23	52.9154	8,282.23	60.774	8,282.23	51.6811	8,282.23	64.2787	8,282.23	49.915
8,575.2	86.9341	8,575.2	86.5681	8,575.2	87.1814	8,575.2	85.1994	8,575.2	86.5753	8,575.2	84.4457	8,575.2	85.2606	8,575.2	83.2141	8,575.2	83.9781	8,575.2	80.118	8,575.2	82.6066	8,575.2	79.0751	8,575.2	80.5925	8,575.2	76.6757	8,575.2	79.5918	8,575.2	70.6201	8,575.2	76.2032	8,575.2	68.6895	8,575.2	71.675	8,575.2	58.814	8,575.2	68.2841	8,575.2	62.7963	8,575.2	63.0843	8,575.2	54.0985	8,575.2	59.5266	8,575.2	63.4491	8,575.2	68.2478	8,575.2	52.9947	8,575.2	62.2267	8,575.2	55.2028	8,575.2	64.6514	8,575.2	49.8405	8,575.2	59.9233	8,575.2	58.8281	8,575.2	64.7211	8,575.2	63.9026
8,876.95	86.9469	8,876.95	86.5022	8,876.95	87.1669	8,876.95	85.4064	8,876.95	86.5454	8,876.95	84.3965	8,876.95	85.0088	8,876.95	83.4798	8,876.95	84.3906	8,876.95	79.4881	8,876.95	82.4217	8,876.95	78.5903	8,876.95	80.4472	8,876.95	76.1102	8,876.95	78.3974	8,876.95	71.42	8,876.95	75.5515	8,876.95	67.8078	8,876.95	70.8242	8,876.95	58.6708	8,876.95	66.3284	8,876.95	64.6874	8,876.95	57.9668	8,876.95	58.4622	8,876.95	55.6203	8,876.95	53.482	8,876.95	61.9721	8,876.95	57.7822	8,876.95	62.9671	8,876.95	59.579	8,876.95	67.9589	8,876.95	55.2091	8,876.95	56.2342	8,876.95	59.0191	8,876.95	58.1538	8,876.95	54.2054
9,190.43	86.9195	9,190.43	86.4515	9,190.43	86.9409	9,190.43	85.325	9,190.43	86.5581	9,190.43	84.3814	9,190.43	85.4098	9,190.43	82.8976	9,190.43	84.4061	9,190.43	79.6084	9,190.43	82.0658	9,190.43	78.3045	9,190.43	79.5882	9,190.43	76.351	9,190.43	77.9443	9,190.43	70.8568	9,190.43	76.2981	9,190.43	67.6851	9,190.43	71.7803	9,190.43	62.1666	9,190.43	65.9263	9,190.43	59.3772	9,190.43	65.0452	9,190.43	58.8184	9,190.43	57.0584	9,190.43	62.2895	9,190.43	64.7476	9,190.43	47.2992	9,190.43	65.0005	9,190.43	58.1098	9,190.43	68.809	9,190.43	60.006	9,190.43	59.9242	9,190.43	52.119	9,190.43	63.2058	9,190.43	60.6602
9,512.7	87.0657	9,512.7	86.4977	9,512.7	86.9095	9,512.7	85.1173	9,512.7	86.4234	9,512.7	84.5807	9,512.7	85.5578	9,512.7	82.3762	9,512.7	84.4868	9,512.7	79.4471	9,512.7	81.788	9,512.7	77.643	9,512.7	79.166	9,512.7	75.6309	9,512.7	77.7967	9,512.7	71.0889	9,512.7	75.0357	9,512.7	67.2951	9,512.7	70.114	9,512.7	63.3403	9,512.7	67.49	9,512.7	66.1	9,512.7	59.3304	9,512.7	57.0025	9,512.7	61.2587	9,512.7	50.239	9,512.7	60.9412	9,512.7	62.4751	9,512.7	62.3017	9,512.7	55.3739	9,512.7	66.347	9,512.7	57.6386	9,512.7	61.7237	9,512.7	59.3254	9,512.7	63.5607	9,512.7	57.2024
9,849.61	87.0844	9,849.61	86.3998	9,849.61	87.0975	9,849.61	85.2213	9,849.61	86.1525	9,849.61	84.4359	9,849.61	85.5448	9,849.61	82.2982	9,849.61	84.2447	9,849.61	78.9606	9,849.61	81.837	9,849.61	77.5065	9,849.61	78.9897	9,849.61	75.4137	9,849.61	78.2624	9,849.61	71.3451	9,849.61	74.6604	9,849.61	64.9336	9,849.61	71.2203	9,849.61	61.9249	9,849.61	68.0108	9,849.61	63.526	9,849.61	51.4269	9,849.61	57.9721	9,849.61	61.6325	9,849.61	59.6002	9,849.61	58.0908	9,849.61	56.8055	9,849.61	67.2435	9,849.61	55.7033	9,849.61	67.2598	9,849.61	60.7122	9,849.61	55.5486	9,849.61	51.1107	9,849.61	60.7288	9,849.61	54.8844
10,195.3	87.2563	10,195.3	86.7203	10,195.3	87.2835	10,195.3	85.5261	10,195.3	86.486	10,195.3	84.6493	10,195.3	85.7841	10,195.3	82.5525	10,195.3	84.5192	10,195.3	79.4669	10,195.3	82.0011	10,195.3	77.4496	10,195.3	79.3919	10,195.3	76.1028	10,195.3	78.4159	10,195.3	72.1391	10,195.3	75.4015	10,195.3	67.0747	10,195.3	71.3766	10,195.3	58.3144	10,195.3	66.9985	10,195.3	66.1197	10,195.3	60.2826	10,195.3	61.167	10,195.3	56.3297	10,195.3	58.7003	10,195.3	52.5928	10,195.3	61.325	10,195.3	62.5221	10,195.3	49.2217	10,195.3	67.213	10,195.3	63.4043	10,195.3	66.5659	10,195.3	54.9796	10,195.3	65.0833	10,195.3	55.2767
10,555.7	87.611	10,555.7	87.2777	10,555.7	87.6447	10,555.7	85.9079	10,555.7	86.9012	10,555.7	84.7245	10,555.7	85.9015	10,555.7	82.6487	10,555.7	84.481	10,555.7	79.6177	10,555.7	81.8032	10,555.7	77.4473	10,555.7	79.8349	10,555.7	76.2714	10,555.7	78.7116	10,555.7	72.7734	10,555.7	76.0667	10,555.7	66.5638	10,555.7	71.8938	10,555.7	62.4559	10,555.7	66.4588	10,555.7	61.2498	10,555.7	64.1342	10,555.7	61.2967	10,555.7	56.7853	10,555.7	57.8187	10,555.7	63.5298	10,555.7	56.5794	10,555.7	65.61	10,555.7	58.2932	10,555.7	67.4353	10,555.7	64.9706	10,555.7	54.2991	10,555.7	58.419	10,555.7	61.5258	10,555.7	52.7272
10,927.7	87.9271	10,927.7	87.3902	10,927.7	87.8104	10,927.7	85.884	10,927.7	86.9559	10,927.7	84.4476	10,927.7	85.8045	10,927.7	81.89	10,927.7	84.2268	10,927.7	79.0056	10,927.7	81.4303	10,927.7	77.0919	10,927.7	79.7158	10,927.7	75.6558	10,927.7	78.5288	10,927.7	71.9828	10,927.7	75.8082	10,927.7	68.6457	10,927.7	71.9724	10,927.7	60.6541	10,927.7	67.3032	10,927.7	64.5938	10,927.7	62.5554	10,927.7	66.3145	10,927.7	49.7852	10,927.7	62.0263	10,927.7	64.3587	10,927.7	63.0379	10,927.7	61.4321	10,927.7	53.5141	10,927.7	68.9331	10,927.7	61.6857	10,927.7	61.2566	10,927.7	55.8899	10,927.7	63.7667	10,927.7	56.4148
11,314.5	87.7551	11,314.5	87.1651	11,314.5	87.7479	11,314.5	85.4851	11,314.5	87.0084	11,314.5	83.8792	11,314.5	85.5871	11,314.5	81.4263	11,314.5	83.9616	11,314.5	78.3881	11,314.5	81.1082	11,314.5	77.2284	11,314.5	79.1354	11,314.5	75.3218	11,314.5	78.1174	11,314.5	71.0688	11,314.5	75.62	11,314.5	66.5203	11,314.5	70.8068	11,314.5	63.2853	11,314.5	67.0051	11,314.5	63.1819	11,314.5	56.2358	11,314.5	65.5898	11,314.5	60.14	11,314.5	60.4665	11,314.5	68.7279	11,314.5	56.4314	11,314.5	63.2424	11,314.5	55.1187	11,314.5	66.0317	11,314.5	68.6125	11,314.5	55.5066	11,314.5	49.8873	11,314.5	61.8842	11,314.5	45.3189
11,712.9	87.5276	11,712.9	86.8901	11,712.9	87.4205	11,712.9	85.0993	11,712.9	86.6593	11,712.9	83.2815	11,712.9	85.1544	11,712.9	81.3532	11,712.9	83.1382	11,712.9	78.0555	11,712.9	80.6018	11,712.9	76.5489	11,712.9	79.0322	11,712.9	75.5008	11,712.9	77.6794	11,712.9	71.7735	11,712.9	75.0812	11,712.9	67.5473	11,712.9	71.4223	11,712.9	57.8119	11,712.9	66.326	11,712.9	62.899	11,712.9	56.1502	11,712.9	62.9715	11,712.9	57.0585	11,712.9	52.1212	11,712.9	62.1863	11,712.9	64.0181	11,712.9	64.9861	11,712.9	55.9154	11,712.9	67.9176	11,712.9	58.8836	11,712.9	56.8366	11,712.9	59.0664	11,712.9	66.3096	11,712.9	51.731
12,126	87.5325	12,126	87.0526	12,126	87.3795	12,126	84.9778	12,126	86.6847	12,126	83.0855	12,126	84.9647	12,126	80.7556	12,126	82.8084	12,126	78.1264	12,126	80.1401	12,126	76.7902	12,126	78.8533	12,126	75.3094	12,126	77.4336	12,126	71.0788	12,126	75.1725	12,126	64.4557	12,126	70.8934	12,126	63.796	12,126	64.746	12,126	62.9302	12,126	64.4184	12,126	65.4479	12,126	56.2792	12,126	58.2476	12,126	61.3341	12,126	58.7941	12,126	63.4307	12,126	50.6298	12,126	65.0935	12,126	67.541	12,126	53.7003	12,126	54.985	12,126	61.2922	12,126	44.7448
12,553.7	87.6871	12,553.7	87.2015	12,553.7	87.5783	12,553.7	84.8396	12,553.7	86.9012	12,553.7	82.9895	12,553.7	85.0527	12,553.7	80.9841	12,553.7	82.9822	12,553.7	78.077	12,553.7	80.9698	12,553.7	76.7745	12,553.7	78.9967	12,553.7	74.1718	12,553.7	77.5965	12,553.7	70.1964	12,553.7	74.4771	12,553.7	65.2223	12,553.7	69.4275	12,553.7	62.435	12,553.7	62.5742	12,553.7	55.7805	12,553.7	55.5594	12,553.7	62.0744	12,553.7	61.8009	12,553.7	60.5643	12,553.7	48.6877	12,553.7	60.1206	12,553.7	67.0866	12,553.7	40.3645	12,553.7	65.1816	12,553.7	66.7684	12,553.7	62.515	12,553.7	51.0441	12,553.7	61.9611	12,553.7	55.2949
12,996.1	87.645	12,996.1	87.0628	12,996.1	87.6543	12,996.1	84.7493	12,996.1	86.7687	12,996.1	82.6193	12,996.1	84.7776	12,996.1	81.0566	12,996.1	82.9438	12,996.1	77.7548	12,996.1	81.1325	12,996.1	75.9439	12,996.1	79.0658	12,996.1	73.8744	12,996.1	77.362	12,996.1	69.8209	12,996.1	74.4267	12,996.1	66.9473	12,996.1	70.3105	12,996.1	57.0923	12,996.1	66.0069	12,996.1	50.7653	12,996.1	62.1996	12,996.1	62.8459	12,996.1	61.8916	12,996.1	60.3447	12,996.1	63.4632	12,996.1	61.506	12,996.1	66.3318	12,996.1	41.3927	12,996.1	65.3976	12,996.1	48.4068	12,996.1	64.8494	12,996.1	58.6062	12,996.1	63.0585	12,996.1	51.3133
13,453.1	87.572	13,453.1	86.8443	13,453.1	87.5033	13,453.1	84.4367	13,453.1	86.4373	13,453.1	82.2881	13,453.1	84.6329	13,453.1	80.928	13,453.1	82.8045	13,453.1	77.6424	13,453.1	80.6491	13,453.1	75.665	13,453.1	78.6801	13,453.1	74.0528	13,453.1	76.9111	13,453.1	69.3627	13,453.1	74.7148	13,453.1	65.6179	13,453.1	69.6441	13,453.1	58.227	13,453.1	61.4144	13,453.1	60.8946	13,453.1	59.3454	13,453.1	64.6201	13,453.1	57.9873	13,453.1	55.868	13,453.1	63.1419	13,453.1	60.5713	13,453.1	65.0079	13,453.1	52.525	13,453.1	63.7983	13,453.1	64.2707	13,453.1	65.965	13,453.1	55.412	13,453.1	57.6373	13,453.1	46.9382
13,927.7	87.5553	13,927.7	86.7649	13,927.7	87.4834	13,927.7	84.3476	13,927.7	86.2363	13,927.7	82.2293	13,927.7	84.4483	13,927.7	80.8345	13,927.7	82.7215	13,927.7	77.4244	13,927.7	80.3668	13,927.7	76.3865	13,927.7	78.1115	13,927.7	74.5391	13,927.7	76.0253	13,927.7	70.8228	13,927.7	74.3036	13,927.7	66.1265	13,927.7	70.3345	13,927.7	60.3141	13,927.7	60.9603	13,927.7	61.9529	13,927.7	57.0907	13,927.7	62.6875	13,927.7	63.728	13,927.7	61.8055	13,927.7	47.6124	13,927.7	63.0596	13,927.7	65.0055	13,927.7	51.7963	13,927.7	59.7255	13,927.7	65.1094	13,927.7	68.0568	13,927.7	54.5816	13,927.7	59.5001	13,927.7	53.7798
14,419.9	87.548	14,419.9	86.5875	14,419.9	87.5846	14,419.9	84.1749	14,419.9	86.0604	14,419.9	82.3026	14,419.9	84.4026	14,419.9	80.7912	14,419.9	82.5376	14,419.9	77.3827	14,419.9	80.0829	14,419.9	75.7118	14,419.9	77.8537	14,419.9	74.7891	14,419.9	75.1329	14,419.9	70.2328	14,419.9	73.8557	14,419.9	66.2078	14,419.9	70.7395	14,419.9	61.1139	14,419.9	63.3627	14,419.9	60.5022	14,419.9	55.1388	14,419.9	61.1842	14,419.9	61.7904	14,419.9	59.3409	14,419.9	43.5835	14,419.9	63.6214	14,419.9	61.7046	14,419.9	48.7193	14,419.9	59.0829	14,419.9	61.5846	14,419.9	66.1212	14,419.9	56.5206	14,419.9	61.5539	14,419.9	45.7449
14,929.7	87.583	14,929.7	86.3941	14,929.7	87.6434	14,929.7	84.1385	14,929.7	85.9668	14,929.7	81.9626	14,929.7	84.402	14,929.7	80.3282	14,929.7	82.5797	14,929.7	77.49	14,929.7	79.8436	14,929.7	76.2742	14,929.7	78.0896	14,929.7	74.5335	14,929.7	76.0966	14,929.7	70.1376	14,929.7	74.1414	14,929.7	65.281	14,929.7	70.0039	14,929.7	58.9156	14,929.7	63.2123	14,929.7	54.9062	14,929.7	58.2198	14,929.7	59.4785	14,929.7	52.278	14,929.7	62.0275	14,929.7	63.036	14,929.7	62.5356	14,929.7	55.5168	14,929.7	50.2822	14,929.7	52.238	14,929.7	43.0108	14,929.7	66.2535	14,929.7	58.4074	14,929.7	59.5762	14,929.7	48.1737
15,454.1	87.9157	15,454.1	86.4044	15,454.1	87.8437	15,454.1	84.0979	15,454.1	85.9795	15,454.1	82.17	15,454.1	84.6392	15,454.1	80.5047	15,454.1	82.58	15,454.1	78.0064	15,454.1	79.8712	15,454.1	76.0665	15,454.1	78.2184	15,454.1	74.2117	15,454.1	75.3869	15,454.1	69.0362	15,454.1	73.5501	15,454.1	65.6727	15,454.1	69.4944	15,454.1	61.3096	15,454.1	64.4297	15,454.1	52.4303	15,454.1	60.7226	15,454.1	61.3424	15,454.1	57.2345	15,454.1	59.9053	15,454.1	61.709	15,454.1	65.0338	15,454.1	60.764	15,454.1	50.5742	15,454.1	60.1288	15,454.1	47.7364	15,454.1	58.1487	15,454.1	60.7299	15,454.1	62.2556	15,454.1	57.2074
15,999	87.7763	15,999	86.2099	15,999	87.6328	15,999	84.0968	15,999	85.947	15,999	81.9922	15,999	84.7094	15,999	80.3226	15,999	82.1073	15,999	78.3362	15,999	79.6898	15,999	76.1174	15,999	77.8175	15,999	73.7067	15,999	74.7294	15,999	69.1623	15,999	71.9252	15,999	65.2756	15,999	67.4196	15,999	58.417	15,999	59.9348	15,999	50.5589	15,999	60.6767	15,999	61.0491	15,999	53.2616	15,999	57.1508	15,999	56.837	15,999	65.9622	15,999	60.2522	15,999	50.6691	15,999	58.145	15,999	56.7697	15,999	56.2528	15,999	58.1149	15,999	64.1388	15,999	58.4886
16,564.5	87.4352	16,564.5	86.15	16,564.5	87.2914	16,564.5	83.9242	16,564.5	85.9744	16,564.5	81.4863	16,564.5	84.4413	16,564.5	80.3637	16,564.5	81.8552	16,564.5	78.2321	16,564.5	79.8028	16,564.5	75.2084	16,564.5	77.2504	16,564.5	72.0783	16,564.5	73.1414	16,564.5	67.7308	16,564.5	70.1422	16,564.5	64.4045	16,564.5	66.3507	16,564.5	60.4394	16,564.5	61.6344	16,564.5	49.8022	16,564.5	59.871	16,564.5	60.9488	16,564.5	58.6312	16,564.5	57.4202	16,564.5	61.9298	16,564.5	63.9247	16,564.5	63.393	16,564.5	39.8307	16,564.5	60.0056	16,564.5	56.8229	16,564.5	46.7954	16,564.5	56.1215	16,564.5	62.2141	16,564.5	56.8355
17,147.5	87.3586	17,147.5	86.2222	17,147.5	87.283	17,147.5	83.9499	17,147.5	86.1527	17,147.5	81.4851	17,147.5	84.3798	17,147.5	80.5059	17,147.5	81.812	17,147.5	77.9989	17,147.5	79.7575	17,147.5	73.83	17,147.5	76.7464	17,147.5	71.4472	17,147.5	72.9063	17,147.5	67.7838	17,147.5	69.915	17,147.5	65.1479	17,147.5	66.0849	17,147.5	58.0716	17,147.5	61.7788	17,147.5	51.9172	17,147.5	47.8524	17,147.5	60.9054	17,147.5	61.1501	17,147.5	57.0557	17,147.5	65.2147	17,147.5	59.8549	17,147.5	62.0293	17,147.5	49.0699	17,147.5	61.6581	17,147.5	47.7592	17,147.5	47.966	17,147.5	58.222	17,147.5	57.1483	17,147.5	49.1331
17,753.9	87.2468	17,753.9	86.3022	17,753.9	87.3086	17,753.9	84.1652	17,753.9	86.3175	17,753.9	81.7166	17,753.9	84.2102	17,753.9	80.9479	17,753.9	82.1252	17,753.9	77.6447	17,753.9	79.8988	17,753.9	73.5484	17,753.9	76.2203	17,753.9	71.8805	17,753.9	72.1701	17,753.9	68.6359	17,753.9	70.7823	17,753.9	63.7207	17,753.9	67.3167	17,753.9	58.8767	17,753.9	62.74	17,753.9	54.9323	17,753.9	50.3053	17,753.9	59.1668	17,753.9	53.7561	17,753.9	42.2319	17,753.9	64.7379	17,753.9	52.494	17,753.9	57.1448	17,753.9	53.808	17,753.9	63.9595	17,753.9	44.2764	17,753.9	36.749	17,753.9	56.4739	17,753.9	47.8492	17,753.9	48.6649
18,377.9	86.7188	18,377.9	85.961	18,377.9	86.6726	18,377.9	83.6315	18,377.9	85.905	18,377.9	81.8455	18,377.9	83.6529	18,377.9	80.4471	18,377.9	81.6747	18,377.9	76.1749	18,377.9	78.7323	18,377.9	71.772	18,377.9	74.333	18,377.9	70.312	18,377.9	69.5085	18,377.9	67.6871	18,377.9	68.4485	18,377.9	64.5574	18,377.9	66.0359	18,377.9	57.1927	18,377.9	60.1546	18,377.9	56.4853	18,377.9	42.5382	18,377.9	56.986	18,377.9	56.0021	18,377.9	49.4759	18,377.9	64.118	18,377.9	51.0507	18,377.9	53.0119	18,377.9	56.29	18,377.9	65.1913	18,377.9	37.9469	18,377.9	51.7207	18,377.9	46.6428	18,377.9	54.2635	18,377.9	53.8593
19,028.3	85.7098	19,028.3	85.2075	19,028.3	85.8571	19,028.3	82.8866	19,028.3	85.3252	19,028.3	81.4817	19,028.3	83.1181	19,028.3	79.2546	19,028.3	81.0884	19,028.3	74.1479	19,028.3	77.3524	19,028.3	71.2507	19,028.3	72.604	19,028.3	69.8521	19,028.3	69.3416	19,028.3	66.509	19,028.3	67.8811	19,028.3	62.9857	19,028.3	65.0488	19,028.3	53.867	19,028.3	62.1622	19,028.3	41.277	19,028.3	45.8304	19,028.3	57.275	19,028.3	54.6515	19,028.3	58.3185	19,028.3	55.3851	19,028.3	55.1619	19,028.3	55.2787	19,028.3	55.3624	19,028.3	63.6206	19,028.3	49.7942	19,028.3	59.8121	19,028.3	54.6574	19,028.3	48.0431	19,028.3	49.4505
19,699.2	85.2491	19,699.2	84.7456	19,699.2	85.4323	19,699.2	82.6533	19,699.2	85.0496	19,699.2	81.1941	19,699.2	82.921	19,699.2	78.7568	19,699.2	80.4995	19,699.2	73.0054	19,699.2	75.8951	19,699.2	70.3216	19,699.2	71.3199	19,699.2	68.142	19,699.2	67.6433	19,699.2	65.1877	19,699.2	65.3418	19,699.2	64.3103	19,699.2	65.0458	19,699.2	50.279	19,699.2	61.7761	19,699.2	56.334	19,699.2	53.5385	19,699.2	51.9351	19,699.2	55.2142	19,699.2	59.8286	19,699.2	59.034	19,699.2	54.4783	19,699.2	59.1387	19,699.2	53.069	19,699.2	60.9548	19,699.2	52.5566	19,699.2	60.5942	19,699.2	54.9574	19,699.2	50.798	19,699.2	53.896
19,998	84.7044	19,998	84.3875	19,998	84.8916	19,998	82.3133	19,998	84.7889	19,998	81.5034	19,998	83.2025	19,998	77.8978	19,998	80.1245	19,998	72.2971	19,998	75.3258	19,998	69.9969	19,998	70.6913	19,998	69.2691	19,998	65.4965	19,998	68.2887	19,998	63.7572	19,998	63.2052	19,998	66.6167	19,998	55.8009	19,998	60.9995	19,998	58.4251	19,998	47.193	19,998	53.8269	19,998	61.4951	19,998	62.982	19,998	57.9442	19,998	50.1301	19,998	60.4496	19,998	58.9926	19,998	60.5717	19,998	46.6665	19,998	60.2067	19,998	56.0852	19,998	45.1225	19,998	58.5928
