"SPL Vertical"
"On-Axis"		"10°"		"-10°"		"20°"		"-20°"		"30°"		"-30°"		"40°"		"-40°"		"50°"		"-50°"		"60°"		"-60°"		"70°"		"-70°"		"80°"		"-80°"		"90°"		"-90°"		"100°"		"-100°"		"110°"		"-110°"		"120°"		"-120°"		"130°"		"-130°"		"140°"		"-140°"		"150°"		"-150°"		"160°"		"-160°"		"170°"		"-170°"		"180°"
"Frequency [Hz]"	"Sound Pessure Level [dB]  / [2.83V 1m] "	"Frequency [Hz]"	"Sound Pessure Level [dB]  / [2.83V 1m] "	"Frequency [Hz]"	"Sound Pessure Level [dB]  / [2.83V 1m] "	"Frequency [Hz]"	"Sound Pessure Level [dB]  / [2.83V 1m] "	"Frequency [Hz]"	"Sound Pessure Level [dB]  / [2.83V 1m] "	"Frequency [Hz]"	"Sound Pessure Level [dB]  / [2.83V 1m] "	"Frequency [Hz]"	"Sound Pessure Level [dB]  / [2.83V 1m] "	"Frequency [Hz]"	"Sound Pessure Level [dB]  / [2.83V 1m] "	"Frequency [Hz]"	"Sound Pessure Level [dB]  / [2.83V 1m] "	"Frequency [Hz]"	"Sound Pessure Level [dB]  / [2.83V 1m] "	"Frequency [Hz]"	"Sound Pessure Level [dB]  / [2.83V 1m] "	"Frequency [Hz]"	"Sound Pessure Level [dB]  / [2.83V 1m] "	"Frequency [Hz]"	"Sound Pessure Level [dB]  / [2.83V 1m] "	"Frequency [Hz]"	"Sound Pessure Level [dB]  / [2.83V 1m] "	"Frequency [Hz]"	"Sound Pessure Level [dB]  / [2.83V 1m] "	"Frequency [Hz]"	"Sound Pessure Level [dB]  / [2.83V 1m] "	"Frequency [Hz]"	"Sound Pessure Level [dB]  / [2.83V 1m] "	"Frequency [Hz]"	"Sound Pessure Level [dB]  / [2.83V 1m] "	"Frequency [Hz]"	"Sound Pessure Level [dB]  / [2.83V 1m] "	"Frequency [Hz]"	"Sound Pessure Level [dB]  / [2.83V 1m] "	"Frequency [Hz]"	"Sound Pessure Level [dB]  / [2.83V 1m] "	"Frequency [Hz]"	"Sound Pessure Level [dB]  / [2.83V 1m] "	"Frequency [Hz]"	"Sound Pessure Level [dB]  / [2.83V 1m] "	"Frequency [Hz]"	"Sound Pessure Level [dB]  / [2.83V 1m] "	"Frequency [Hz]"	"Sound Pessure Level [dB]  / [2.83V 1m] "	"Frequency [Hz]"	"Sound Pessure Level [dB]  / [2.83V 1m] "	"Frequency [Hz]"	"Sound Pessure Level [dB]  / [2.83V 1m] "	"Frequency [Hz]"	"Sound Pessure Level [dB]  / [2.83V 1m] "	"Frequency [Hz]"	"Sound Pessure Level [dB]  / [2.83V 1m] "	"Frequency [Hz]"	"Sound Pessure Level [dB]  / [2.83V 1m] "	"Frequency [Hz]"	"Sound Pessure Level [dB]  / [2.83V 1m] "	"Frequency [Hz]"	"Sound Pessure Level [dB]  / [2.83V 1m] "	"Frequency [Hz]"	"Sound Pessure Level [dB]  / [2.83V 1m] "	"Frequency [Hz]"	"Sound Pessure Level [dB]  / [2.83V 1m] "	"Frequency [Hz]"	"Sound Pessure Level [dB]  / [2.83V 1m] "	"Frequency [Hz]"	"Sound Pessure Level [dB]  / [2.83V 1m] "
20.5078	49.1947	20.5078	48.7041	20.5078	49.5414	20.5078	48.1054	20.5078	49.72	20.5078	47.4622	20.5078	49.7093	20.5078	46.8889	20.5078	49.4881	20.5078	46.5615	20.5078	49.0363	20.5078	46.6667	20.5078	48.3453	20.5078	47.2766	20.5078	47.4508	20.5078	48.2851	20.5078	46.5184	20.5078	49.4981	20.5078	45.9714	20.5078	50.7502	20.5078	46.3554	20.5078	51.9386	20.5078	47.6919	20.5078	53.0075	20.5078	49.4387	20.5078	53.926	20.5078	51.1418	20.5078	54.6741	20.5078	52.6105	20.5078	55.2352	20.5078	53.792	20.5078	55.5936	20.5078	54.6828	20.5078	55.7335	20.5078	55.2936	20.5078	55.6387
21.9727	50.9804	21.9727	50.8307	21.9727	51.1008	21.9727	50.6932	21.9727	51.1679	21.9727	50.6286	21.9727	51.173	21.9727	50.7106	21.9727	51.1232	21.9727	51.0054	21.9727	51.0469	21.9727	51.5421	21.9727	51.0031	21.9727	52.2968	21.9727	51.0851	21.9727	53.2049	21.9727	51.4008	21.9727	54.1889	21.9727	52.0201	21.9727	55.1805	21.9727	52.9232	21.9727	56.1283	21.9727	54.0081	21.9727	56.9952	21.9727	55.1481	21.9727	57.7544	21.9727	56.2382	21.9727	58.3851	21.9727	57.2082	21.9727	58.8695	21.9727	58.0165	21.9727	59.1923	21.9727	58.6404	21.9727	59.34	21.9727	59.0696	21.9727	59.3017
23.4375	55.9288	23.4375	55.7047	23.4375	56.1166	23.4375	55.4833	23.4375	56.2413	23.4375	55.317	23.4375	56.2871	23.4375	55.2673	23.4375	56.2496	23.4375	55.3922	23.4375	56.1391	23.4375	55.7261	23.4375	55.9871	23.4375	56.2644	23.4375	55.8552	23.4375	56.9649	23.4375	55.8365	23.4375	57.7656	23.4375	56.0343	23.4375	58.6034	23.4375	56.5128	23.4375	59.4247	23.4375	57.2519	23.4375	60.1879	23.4375	58.1562	23.4375	60.8608	23.4375	59.1077	23.4375	61.4184	23.4375	60.0079	23.4375	61.8398	23.4375	60.7906	23.4375	62.1077	23.4375	61.4165	23.4375	62.2076	23.4375	61.8653	23.4375	62.1289
24.9023	58.4	24.9023	58.2256	24.9023	58.54	24.9023	58.0505	24.9023	58.6225	24.9023	57.9194	24.9023	58.6345	24.9023	57.8849	24.9023	58.5735	24.9023	57.997	24.9023	58.4507	24.9023	58.2883	24.9023	58.2975	24.9023	58.7607	24.9023	58.1719	24.9023	59.3841	24.9023	58.1587	24.9023	60.108	24.9023	58.3499	24.9023	60.8761	24.9023	58.8015	24.9023	61.6378	24.9023	59.4951	24.9023	62.3511	24.9023	60.3458	24.9023	62.9831	24.9023	61.2459	24.9023	63.5074	24.9023	62.1031	24.9023	63.9025	24.9023	62.8532	24.9023	64.1508	24.9023	63.4571	24.9023	64.2381	24.9023	63.8937	24.9023	64.1542
26.3672	61.3081	26.3672	61.187	26.3672	61.4157	26.3672	61.0766	26.3672	61.4926	26.3672	61.0071	26.3672	61.5286	26.3672	61.0121	26.3672	61.5216	26.3672	61.1234	26.3672	61.4799	26.3672	61.363	26.3672	61.4251	26.3672	61.7362	26.3672	61.3953	26.3672	62.2286	26.3672	61.4433	26.3672	62.8102	26.3672	61.6255	26.3672	63.442	26.3672	61.9802	26.3672	64.0838	26.3672	62.5066	26.3672	64.6981	26.3672	63.1608	26.3672	65.2525	26.3672	63.8734	26.3672	65.7194	26.3672	64.5731	26.3672	66.0758	26.3672	65.2014	26.3672	66.3031	26.3672	65.7169	26.3672	66.3871	26.3672	66.0937	26.3672	66.3184
27.832	64.0511	27.832	63.9105	27.832	64.1661	27.832	63.7649	27.832	64.2413	27.832	63.6412	27.832	64.2685	27.832	63.5714	27.832	64.2467	27.832	63.5888	27.832	64.1834	27.832	63.7212	27.832	64.0971	27.832	63.9838	27.832	64.0207	27.832	64.373	27.832	64.0006	27.832	64.8666	27.832	64.0905	27.832	65.4293	27.832	64.3335	27.832	66.0203	27.832	64.7418	27.832	66.5993	27.832	65.287	27.832	67.1304	27.832	65.9103	27.832	67.5829	27.832	66.5431	27.832	67.9315	27.832	67.1245	27.832	68.1559	27.832	67.6087	27.832	68.2413	27.832	67.9657	27.832	68.1787
29.2969	66.0003	29.2969	65.8667	29.2969	66.1133	29.2969	65.7318	29.2969	66.1921	29.2969	65.62	29.2969	66.2289	29.2969	65.5596	29.2969	66.2221	29.2969	65.5795	29.2969	66.1783	29.2969	65.7038	29.2969	66.1139	29.2969	65.9457	29.2969	66.0574	29.2969	66.3025	29.2969	66.0491	29.2969	66.7557	29.2969	66.1348	29.2969	67.2747	29.2969	66.3525	29.2969	67.8231	29.2969	66.7151	29.2969	68.3637	29.2969	67.2018	29.2969	68.8622	29.2969	67.7635	29.2969	69.2889	29.2969	68.3399	29.2969	69.6187	29.2969	68.8748	29.2969	69.8318	29.2969	69.3238	29.2969	69.9136	29.2969	69.6566	29.2969	69.8556
30.7617	68.0209	30.7617	67.8995	30.7617	68.1238	30.7617	67.7759	30.7617	68.1961	30.7617	67.6708	30.7617	68.2308	30.7617	67.6081	30.7617	68.2259	30.7617	67.6125	30.7617	68.1861	30.7617	67.7056	30.7617	68.1248	30.7617	67.9007	30.7617	68.0657	30.7617	68.199	30.7617	68.0428	30.7617	68.5875	30.7617	68.0962	30.7617	69.042	30.7617	68.2615	30.7617	69.5306	30.7617	68.5557	30.7617	70.0192	30.7617	68.9671	30.7617	70.4749	30.7617	69.4574	30.7617	70.8678	30.7617	69.9737	30.7617	71.1725	30.7617	70.4626	30.7617	71.3688	30.7617	70.8797	30.7617	71.4418	30.7617	71.1932	30.7617	71.3835
32.2266	69.7959	32.2266	69.6895	32.2266	69.8845	32.2266	69.5791	32.2266	69.9454	32.2266	69.4823	32.2266	69.9733	32.2266	69.4197	32.2266	69.9676	32.2266	69.4133	32.2266	69.9336	32.2266	69.4831	32.2266	69.8839	32.2266	69.6433	32.2266	69.8398	32.2266	69.8976	32.2266	69.8302	32.2266	70.2381	32.2266	69.8885	32.2266	70.6451	32.2266	70.044	32.2266	71.091	32.2266	70.3108	32.2266	71.5441	32.2266	70.68	32.2266	71.9724	32.2266	71.12	32.2266	72.3464	32.2266	71.5856	32.2266	72.6403	32.2266	72.029	32.2266	72.8333	32.2266	72.4088	32.2266	72.9106	32.2266	72.6937	32.2266	72.8641
33.6914	71.4484	33.6914	71.3409	33.6914	71.5433	33.6914	71.2335	33.6914	71.6166	33.6914	71.142	33.6914	71.6628	33.6914	71.0848	33.6914	71.6811	33.6914	71.0808	33.6914	71.6757	33.6914	71.1473	33.6914	71.6568	33.6914	71.2963	33.6914	71.6418	33.6914	71.5315	33.6914	71.6543	33.6914	71.846	33.6914	71.7213	33.6914	72.2232	33.6914	71.8671	33.6914	72.6386	33.6914	72.1045	33.6914	73.0638	33.6914	72.4284	33.6914	73.469	33.6914	72.8143	33.6914	73.8263	33.6914	73.2248	33.6914	74.1108	33.6914	73.618	33.6914	74.3022	33.6914	73.9556	33.6914	74.3859	33.6914	74.2076	33.6914	74.3543
35.1562	73.0952	35.1562	72.9959	35.1562	73.1843	35.1562	72.8976	35.1562	73.255	35.1562	72.8136	35.1562	73.3026	35.1562	72.7595	35.1562	73.3257	35.1562	72.7514	35.1562	73.3275	35.1562	72.8042	35.1562	73.3164	35.1562	72.9286	35.1562	73.3065	35.1562	73.1288	35.1562	73.3177	35.1562	73.4006	35.1562	73.3731	35.1562	73.731	35.1562	73.4941	35.1562	74.0998	35.1562	73.6937	35.1562	74.4818	35.1562	73.9698	35.1562	74.85	35.1562	74.3039	35.1562	75.1778	35.1562	74.6643	35.1562	75.4411	35.1562	75.0136	35.1562	75.62	35.1562	75.3162	35.1562	75.7002	35.1562	75.543	35.1562	75.6743
36.6211	74.4769	36.6211	74.3836	36.6211	74.5622	36.6211	74.2918	36.6211	74.6323	36.6211	74.2133	36.6211	74.6829	36.6211	74.1612	36.6211	74.7127	36.6211	74.1493	36.6211	74.7241	36.6211	74.1907	36.6211	74.7238	36.6211	74.2951	36.6211	74.7236	36.6211	74.467	36.6211	74.7399	36.6211	74.704	36.6211	74.7919	36.6211	74.996	36.6211	74.8978	36.6211	75.3259	36.6211	75.0691	36.6211	75.6717	36.6211	75.3058	36.6211	76.0086	36.6211	75.5935	36.6211	76.3116	36.6211	75.9063	36.6211	76.5577	36.6211	76.2118	36.6211	76.7276	36.6211	76.4777	36.6211	76.8074	36.6211	76.6769	36.6211	76.7901
38.0859	75.7308	38.0859	75.6456	38.0859	75.8085	38.0859	75.5608	38.0859	75.8724	38.0859	75.4863	38.0859	75.9189	38.0859	75.4333	38.0859	75.9467	38.0859	75.4138	38.0859	75.9578	38.0859	75.4391	38.0859	75.9577	38.0859	75.5186	38.0859	75.9563	38.0859	75.6573	38.0859	75.9672	38.0859	75.8548	38.0859	76.0068	38.0859	76.1038	38.0859	76.0912	38.0859	76.3907	38.0859	76.2313	38.0859	76.6962	38.0859	76.4287	38.0859	76.998	38.0859	76.673	38.0859	77.2727	38.0859	76.9427	38.0859	77.4981	38.0859	77.2094	38.0859	77.6555	38.0859	77.4437	38.0859	77.7314	38.0859	77.6198	38.0859	77.7191
39.5508	76.8694	39.5508	76.7875	39.5508	76.9446	39.5508	76.7062	39.5508	77.0074	39.5508	76.6343	39.5508	77.0544	39.5508	76.5819	39.5508	77.0846	39.5508	76.5599	39.5508	77.0994	39.5508	76.5785	39.5508	77.1039	39.5508	76.6463	39.5508	77.1063	39.5508	76.7684	39.5508	77.1186	39.5508	76.945	39.5508	77.155	39.5508	77.17	39.5508	77.2295	39.5508	77.4316	39.5508	77.3524	39.5508	77.7126	39.5508	77.5259	39.5508	77.9924	39.5508	77.7417	39.5508	78.2489	39.5508	77.9816	39.5508	78.4611	39.5508	78.2205	39.5508	78.6109	39.5508	78.4313	39.5508	78.6852	39.5508	78.5897	39.5508	78.6776
41.0156	77.8863	41.0156	77.8106	41.0156	77.9579	41.0156	77.7371	41.0156	78.0206	41.0156	77.6734	41.0156	78.0711	41.0156	77.6281	41.0156	78.1081	41.0156	77.6101	41.0156	78.1326	41.0156	77.628	41.0156	78.1483	41.0156	77.6891	41.0156	78.1619	41.0156	77.7978	41.0156	78.1829	41.0156	77.9547	41.0156	78.2228	41.0156	78.1552	41.0156	78.2934	41.0156	78.3896	41.0156	78.4032	41.0156	78.6431	41.0156	78.5547	41.0156	78.8975	41.0156	78.7417	41.0156	79.1331	41.0156	78.9493	41.0156	79.3302	41.0156	79.156	41.0156	79.472	41.0156	79.3381	41.0156	79.546	41.0156	79.4737	41.0156	79.5461
42.4805	78.8539	42.4805	78.7832	42.4805	78.9215	42.4805	78.7149	42.4805	78.9818	42.4805	78.6555	42.4805	79.0319	42.4805	78.6123	42.4805	79.0705	42.4805	78.5928	42.4805	79.0982	42.4805	78.6045	42.4805	79.1179	42.4805	78.654	42.4805	79.1348	42.4805	78.7455	42.4805	79.1569	42.4805	78.8801	42.4805	79.1936	42.4805	79.0546	42.4805	79.2549	42.4805	79.2612	42.4805	79.3484	42.4805	79.4872	42.4805	79.4769	42.4805	79.7167	42.4805	79.636	42.4805	79.9314	42.4805	79.8135	42.4805	80.1133	42.4805	79.9913	42.4805	80.2461	42.4805	80.1481	42.4805	80.3183	42.4805	80.2642	42.4805	80.3238
43.9453	79.6029	43.9453	79.5354	43.9453	79.6686	43.9453	79.4708	43.9453	79.7287	43.9453	79.4149	43.9453	79.7805	43.9453	79.3738	43.9453	79.8226	43.9453	79.3544	43.9453	79.8552	43.9453	79.3634	43.9453	79.8804	43.9453	79.4064	43.9453	79.9025	43.9453	79.4876	43.9453	79.9278	43.9453	79.6083	43.9453	79.9642	43.9453	79.766	43.9453	80.0201	43.9453	79.954	43.9453	80.1023	43.9453	80.1611	43.9453	80.2138	43.9453	80.3728	43.9453	80.3516	43.9453	80.5723	43.9453	80.5057	43.9453	80.7425	43.9453	80.6607	43.9453	80.8684	43.9453	80.7976	43.9453	80.9388	43.9453	80.8983	43.9453	80.9482
45.4102	80.4103	45.4102	80.3486	45.4102	80.4706	45.4102	80.2895	45.4102	80.5261	45.4102	80.2378	45.4102	80.5744	45.4102	80.1988	45.4102	80.6142	45.4102	80.1782	45.4102	80.6453	45.4102	80.1817	45.4102	80.6693	45.4102	80.2142	45.4102	80.6894	45.4102	80.2794	45.4102	80.7105	45.4102	80.3788	45.4102	80.7391	45.4102	80.5108	45.4102	80.7824	45.4102	80.67	45.4102	80.8466	45.4102	80.8474	45.4102	80.9349	45.4102	81.0305	45.4102	81.0458	45.4102	81.2045	45.4102	81.1718	45.4102	81.3541	45.4102	81.3	45.4102	81.4658	45.4102	81.4144	45.4102	81.5292	45.4102	81.4987	45.4102	81.5397
46.875	81.0714	46.875	81.0147	46.875	81.1274	46.875	80.9607	46.875	81.18	46.875	80.9132	46.875	81.2271	46.875	80.877	46.875	81.2676	46.875	80.8568	46.875	81.3014	46.875	80.8578	46.875	81.3297	46.875	80.8846	46.875	81.3549	46.875	80.9409	46.875	81.381	46.875	81.0285	46.875	81.4134	46.875	81.1467	46.875	81.4578	46.875	81.2911	46.875	81.5194	46.875	81.454	46.875	81.6009	46.875	81.6243	46.875	81.7009	46.875	81.7884	46.875	81.813	46.875	81.9319	46.875	81.9257	46.875	82.0418	46.875	82.0247	46.875	82.1079	46.875	82.0953	46.875	82.1254
48.3398	81.6478	48.3398	81.5925	48.3398	81.705	48.3398	81.542	48.3398	81.7616	48.3398	81.4997	48.3398	81.8157	48.3398	81.4694	48.3398	81.866	48.3398	81.4551	48.3398	81.9117	48.3398	81.4611	48.3398	81.9533	48.3398	81.4912	48.3398	81.9923	48.3398	81.5485	48.3398	82.0313	48.3398	81.6345	48.3398	82.0742	48.3398	81.7482	48.3398	82.1254	48.3398	81.8862	48.3398	82.1887	48.3398	82.0414	48.3398	82.2664	48.3398	82.204	48.3398	82.3572	48.3398	82.3618	48.3398	82.4557	48.3398	82.5017	48.3398	82.5523	48.3398	82.6115	48.3398	82.6347	48.3398	82.6818	48.3398	82.69	48.3398	82.7078
51.2695	82.713	51.2695	82.6615	51.2695	82.7689	51.2695	82.6164	51.2695	82.8269	51.2695	82.58	51.2695	82.8853	51.2695	82.5546	51.2695	82.9423	51.2695	82.5426	51.2695	82.9965	51.2695	82.5466	51.2695	83.047	51.2695	82.5689	51.2695	83.0936	51.2695	82.6114	51.2695	83.1372	51.2695	82.6754	51.2695	83.1793	51.2695	82.7607	51.2695	83.2222	51.2695	82.8652	51.2695	83.2685	51.2695	82.9848	51.2695	83.32	51.2695	83.1125	51.2695	83.3767	51.2695	83.2397	51.2695	83.4359	51.2695	83.3562	51.2695	83.4918	51.2695	83.4524	51.2695	83.5362	51.2695	83.5207	51.2695	83.5604	51.2695	83.5566
52.7344	83.2002	52.7344	83.1529	52.7344	83.2524	52.7344	83.1121	52.7344	83.308	52.7344	83.0795	52.7344	83.3651	52.7344	83.0566	52.7344	83.422	52.7344	83.0452	52.7344	83.477	52.7344	83.047	52.7344	83.5289	52.7344	83.0639	52.7344	83.5766	52.7344	83.0976	52.7344	83.6201	52.7344	83.1492	52.7344	83.6601	52.7344	83.2192	52.7344	83.6979	52.7344	83.3061	52.7344	83.7356	52.7344	83.4069	52.7344	83.7747	52.7344	83.5161	52.7344	83.8158	52.7344	83.6266	52.7344	83.8573	52.7344	83.7299	52.7344	83.8951	52.7344	83.8176	52.7344	83.923	52.7344	83.8828	52.7344	83.9338	52.7344	83.9216
54.1992	83.6791	54.1992	83.6357	54.1992	83.7272	54.1992	83.5981	54.1992	83.7787	54.1992	83.5675	54.1992	83.8321	54.1992	83.5448	54.1992	83.8857	54.1992	83.5312	54.1992	83.9378	54.1992	83.5281	54.1992	83.9866	54.1992	83.5369	54.1992	84.0308	54.1992	83.5591	54.1992	84.0695	54.1992	83.5959	54.1992	84.1027	54.1992	83.6479	54.1992	84.1313	54.1992	83.7147	54.1992	84.1567	54.1992	83.7943	54.1992	84.1806	54.1992	83.8826	54.1992	84.2041	54.1992	83.9741	54.1992	84.2268	54.1992	84.0617	54.1992	84.2463	54.1992	84.1384	54.1992	84.2581	54.1992	84.1983	54.1992	84.2569	54.1992	84.2379
55.6641	84.1507	55.6641	84.1109	55.6641	84.1943	55.6641	84.0756	55.6641	84.2408	55.6641	84.0451	55.6641	84.2892	55.6641	84.0202	55.6641	84.3381	55.6641	84.0018	55.6641	84.3858	55.6641	83.9908	55.6641	84.4306	55.6641	83.9887	55.6641	84.4708	55.6641	83.9973	55.6641	84.5051	55.6641	84.0181	55.6641	84.5329	55.6641	84.0526	55.6641	84.5545	55.6641	84.101	55.6641	84.571	55.6641	84.1626	55.6641	84.5838	55.6641	84.2346	55.6641	84.5942	55.6641	84.3124	55.6641	84.6024	55.6641	84.3901	55.6641	84.6069	55.6641	84.4614	55.6641	84.6047	55.6641	84.5206	55.6641	84.5917	55.6641	84.5643
58.5938	84.8277	58.5938	84.7816	58.5938	84.8779	58.5938	84.7403	58.5938	84.9315	58.5938	84.7043	58.5938	84.9874	58.5938	84.6739	58.5938	85.044	58.5938	84.6499	58.5938	85.0994	58.5938	84.6331	58.5938	85.1512	58.5938	84.6247	58.5938	85.1972	58.5938	84.626	58.5938	85.2352	58.5938	84.6383	58.5938	85.2636	58.5938	84.6629	58.5938	85.2817	58.5938	84.7004	58.5938	85.2898	58.5938	84.7506	58.5938	85.289	58.5938	84.8116	58.5938	85.2807	58.5938	84.8803	58.5938	85.2664	58.5938	84.9522	58.5938	85.2463	58.5938	85.0224	58.5938	85.2198	58.5938	85.0863	58.5938	85.1853	58.5938	85.141
60.0586	85.141	60.0586	85.0967	60.0586	85.1902	60.0586	85.0576	60.0586	85.2434	60.0586	85.0239	60.0586	85.2995	60.0586	84.9956	60.0586	85.3567	60.0586	84.973	60.0586	85.4129	60.0586	84.9565	60.0586	85.4654	60.0586	84.9466	60.0586	85.5116	60.0586	84.9444	60.0586	85.5488	60.0586	84.951	60.0586	85.5751	60.0586	84.9675	60.0586	85.5893	60.0586	84.995	60.0586	85.5914	60.0586	85.0337	60.0586	85.5824	60.0586	85.0826	60.0586	85.5643	60.0586	85.1397	60.0586	85.539	60.0586	85.2017	60.0586	85.5078	60.0586	85.2648	60.0586	85.4712	60.0586	85.3252	60.0586	85.429	60.0586	85.3803
62.9883	85.6933	62.9883	85.6512	62.9883	85.7421	62.9883	85.6156	62.9883	85.7969	62.9883	85.5863	62.9883	85.8567	62.9883	85.5627	62.9883	85.9195	62.9883	85.5442	62.9883	85.9828	62.9883	85.5306	62.9883	86.0435	62.9883	85.5219	62.9883	86.098	62.9883	85.5186	62.9883	86.143	62.9883	85.5216	62.9883	86.1755	62.9883	85.5322	62.9883	86.1933	62.9883	85.5516	62.9883	86.1956	62.9883	85.5808	62.9883	86.183	62.9883	85.6201	62.9883	86.1573	62.9883	85.6686	62.9883	86.1208	62.9883	85.7246	62.9883	86.0761	62.9883	85.7854	62.9883	86.0251	62.9883	85.848	62.9883	85.9694	62.9883	85.91
64.4531	85.9314	64.4531	85.8901	64.4531	85.98	64.4531	85.856	64.4531	86.0356	64.4531	85.8284	64.4531	86.0971	64.4531	85.8064	64.4531	86.1627	64.4531	85.7892	64.4531	86.2295	64.4531	85.7762	64.4531	86.2944	64.4531	85.7673	64.4531	86.3533	64.4531	85.7627	64.4531	86.4026	64.4531	85.7633	64.4531	86.4387	64.4531	85.7705	64.4531	86.459	64.4531	85.7857	64.4531	86.4624	64.4531	85.8103	64.4531	86.4489	64.4531	85.8453	64.4531	86.42	64.4531	85.8904	64.4531	86.3784	64.4531	85.9446	64.4531	86.3268	64.4531	86.0058	64.4531	86.2681	64.4531	86.0712	64.4531	86.2046	64.4531	86.1383
67.3828	86.3107	67.3828	86.2694	67.3828	86.3605	67.3828	86.2361	67.3828	86.4185	67.3828	86.2097	67.3828	86.4836	67.3828	86.189	67.3828	86.5536	67.3828	86.1725	67.3828	86.6257	67.3828	86.1591	67.3828	86.696	67.3828	86.1482	67.3828	86.7604	67.3828	86.1397	67.3828	86.8144	67.3828	86.1343	67.3828	86.8538	67.3828	86.1334	67.3828	86.8753	67.3828	86.1389	67.3828	86.8767	67.3828	86.153	67.3828	86.8575	67.3828	86.1775	67.3828	86.8191	67.3828	86.2137	67.3828	86.7644	67.3828	86.2618	67.3828	86.6972	67.3828	86.321	67.3828	86.622	67.3828	86.3893	67.3828	86.5431	67.3828	86.4644
68.8477	86.5255	68.8477	86.4836	68.8477	86.5761	68.8477	86.4499	68.8477	86.6355	68.8477	86.4231	68.8477	86.7024	68.8477	86.4018	68.8477	86.775	68.8477	86.3846	68.8477	86.8501	68.8477	86.37	68.8477	86.9241	68.8477	86.3576	68.8477	86.9923	68.8477	86.3471	68.8477	87.05	68.8477	86.3394	68.8477	87.0928	68.8477	86.3359	68.8477	87.1166	68.8477	86.3388	68.8477	87.119	68.8477	86.3503	68.8477	87.0991	68.8477	86.3729	68.8477	87.0581	68.8477	86.4081	68.8477	86.9989	68.8477	86.4566	68.8477	86.9256	68.8477	86.518	68.8477	86.8432	68.8477	86.5904	68.8477	86.7569	68.8477	86.6712
71.7773	86.9395	71.7773	86.8991	71.7773	86.9877	71.7773	86.8656	71.7773	87.0437	71.7773	86.838	71.7773	87.1067	71.7773	86.8144	71.7773	87.1749	71.7773	86.7936	71.7773	87.2455	71.7773	86.774	71.7773	87.3147	71.7773	86.7549	71.7773	87.378	71.7773	86.7361	71.7773	87.4305	71.7773	86.7183	71.7773	87.4674	71.7773	86.703	71.7773	87.4846	71.7773	86.6927	71.7773	87.4791	71.7773	86.6901	71.7773	87.4499	71.7773	86.6984	71.7773	87.3983	71.7773	86.7203	71.7773	87.3274	71.7773	86.7579	71.7773	87.2422	71.7773	86.8116	71.7773	87.1489	71.7773	86.8806	71.7773	87.0537	71.7773	86.9626
74.707	87.292	74.707	87.2517	74.707	87.3383	74.707	87.2167	74.707	87.3906	74.707	87.1858	74.707	87.4482	74.707	87.1574	74.707	87.5092	74.707	87.1301	74.707	87.5711	74.707	87.1023	74.707	87.6302	74.707	87.0731	74.707	87.6823	74.707	87.0422	74.707	87.7226	74.707	87.0101	74.707	87.7462	74.707	86.9785	74.707	87.7493	74.707	86.9499	74.707	87.7288	74.707	86.928	74.707	87.6841	74.707	86.9167	74.707	87.6165	74.707	86.9202	74.707	87.5299	74.707	86.9417	74.707	87.4302	74.707	86.9833	74.707	87.3247	74.707	87.0453	74.707	87.2208	74.707	87.1258
77.6367	87.4896	77.6367	87.4499	77.6367	87.535	77.6367	87.4147	77.6367	87.5862	77.6367	87.3827	77.6367	87.6428	77.6367	87.3521	77.6367	87.7031	77.6367	87.3211	77.6367	87.7646	77.6367	87.2881	77.6367	87.8238	77.6367	87.252	77.6367	87.876	77.6367	87.2126	77.6367	87.9162	77.6367	87.1705	77.6367	87.9391	77.6367	87.1277	77.6367	87.94	77.6367	87.0872	77.6367	87.9155	77.6367	87.0534	77.6367	87.8643	77.6367	87.0311	77.6367	87.7875	77.6367	87.0256	77.6367	87.6894	77.6367	87.0413	77.6367	87.5763	77.6367	87.0812	77.6367	87.4566	77.6367	87.1459	77.6367	87.3395	77.6367	87.2336
79.1016	87.547	79.1016	87.5043	79.1016	87.5952	79.1016	87.4661	79.1016	87.6492	79.1016	87.4309	79.1016	87.7085	79.1016	87.397	79.1016	87.7714	79.1016	87.3626	79.1016	87.8355	79.1016	87.3261	79.1016	87.897	79.1016	87.2867	79.1016	87.9513	79.1016	87.2439	79.1016	87.9931	79.1016	87.1988	79.1016	88.0169	79.1016	87.1531	79.1016	88.0178	79.1016	87.1103	79.1016	87.9921	79.1016	87.0747	79.1016	87.9384	79.1016	87.0516	79.1016	87.8577	79.1016	87.0463	79.1016	87.7541	79.1016	87.0635	79.1016	87.6344	79.1016	87.1065	79.1016	87.5074	79.1016	87.1759	79.1016	87.3827	79.1016	87.2697
82.0312	87.6398	82.0312	87.5957	82.0312	87.6897	82.0312	87.5567	82.0312	87.7454	82.0312	87.5215	82.0312	87.8062	82.0312	87.4883	82.0312	87.8703	82.0312	87.4555	82.0312	87.9353	82.0312	87.4213	82.0312	87.9972	82.0312	87.3845	82.0312	88.0516	82.0312	87.3445	82.0312	88.0933	82.0312	87.3018	82.0312	88.1168	82.0312	87.2579	82.0312	88.1172	82.0312	87.2158	82.0312	88.0908	82.0312	87.1798	82.0312	88.0359	82.0312	87.1551	82.0312	87.9537	82.0312	87.1472	82.0312	87.8483	82.0312	87.1613	82.0312	87.7267	82.0312	87.2011	82.0312	87.5982	82.0312	87.268	82.0312	87.4728	82.0312	87.3602
84.9609	87.7962	84.9609	87.7556	84.9609	87.8416	84.9609	87.7188	84.9609	87.8923	84.9609	87.6842	84.9609	87.9479	84.9609	87.6497	84.9609	88.0069	84.9609	87.6135	84.9609	88.0668	84.9609	87.5736	84.9609	88.1242	84.9609	87.529	84.9609	88.1748	84.9609	87.4792	84.9609	88.2132	84.9609	87.4249	84.9609	88.2339	84.9609	87.3683	84.9609	88.2316	84.9609	87.3128	84.9609	88.2022	84.9609	87.2635	84.9609	88.1433	84.9609	87.2267	84.9609	88.0557	84.9609	87.2089	84.9609	87.9431	84.9609	87.2163	84.9609	87.8129	84.9609	87.2534	84.9609	87.6747	84.9609	87.3217	84.9609	87.5398	84.9609	87.4191
87.8906	87.7626	87.8906	87.7196	87.8906	87.8113	87.8906	87.6807	87.8906	87.8664	87.8906	87.6442	87.8906	87.928	87.8906	87.6078	87.8906	87.995	87.8906	87.5697	87.8906	88.0654	87.8906	87.5279	87.8906	88.1356	87.8906	87.4814	87.8906	88.2006	87.8906	87.4297	87.8906	88.2542	87.8906	87.3737	87.8906	88.2897	87.8906	87.3157	87.8906	88.3002	87.8906	87.2597	87.8906	88.2802	87.8906	87.2111	87.8906	88.2262	87.8906	87.1768	87.8906	88.138	87.8906	87.1643	87.8906	88.0193	87.8906	87.1803	87.8906	87.8775	87.8906	87.2296	87.8906	87.7234	87.8906	87.3138	87.8906	87.5698	87.8906	87.4296
90.8203	87.9909	90.8203	87.9455	90.8203	88.0369	90.8203	87.8993	90.8203	88.0845	90.8203	87.8501	90.8203	88.1337	90.8203	87.7957	90.8203	88.1836	90.8203	87.734	90.8203	88.2318	90.8203	87.6631	90.8203	88.2749	90.8203	87.582	90.8203	88.3081	90.8203	87.4907	90.8203	88.3258	90.8203	87.391	90.8203	88.3219	90.8203	87.286	90.8203	88.2905	90.8203	87.1813	90.8203	88.2273	90.8203	87.0844	90.8203	88.1298	90.8203	87.0043	90.8203	87.9992	90.8203	86.9512	90.8203	87.8405	90.8203	86.9343	90.8203	87.6627	90.8203	86.9609	90.8203	87.4785	90.8203	87.0337	90.8203	87.3027	90.8203	87.1503
95.2148	87.8407	95.2148	87.7945	95.2148	87.8908	95.2148	87.7511	95.2148	87.9451	95.2148	87.7094	95.2148	88.0037	95.2148	87.668	95.2148	88.0661	95.2148	87.6254	95.2148	88.1305	95.2148	87.5799	95.2148	88.1942	95.2148	87.5304	95.2148	88.2526	95.2148	87.4762	95.2148	88.3	95.2148	87.4177	95.2148	88.3297	95.2148	87.3567	95.2148	88.3345	95.2148	87.2966	95.2148	88.3085	95.2148	87.2426	95.2148	88.248	95.2148	87.2014	95.2148	88.1526	95.2148	87.1807	95.2148	88.0261	95.2148	87.1881	95.2148	87.877	95.2148	87.2294	95.2148	87.717	95.2148	87.3073	95.2148	87.5601	95.2148	87.4198
98.1445	87.6052	98.1445	87.5549	98.1445	87.6588	98.1445	87.5068	98.1445	87.7165	98.1445	87.4598	98.1445	87.7788	98.1445	87.4126	98.1445	87.8453	98.1445	87.3643	98.1445	87.9144	98.1445	87.314	98.1445	87.9834	98.1445	87.2615	98.1445	88.0477	98.1445	87.2066	98.1445	88.1016	98.1445	87.1504	98.1445	88.1381	98.1445	87.0949	98.1445	88.15	98.1445	87.0434	98.1445	88.1312	98.1445	87.0008	98.1445	88.0775	98.1445	86.9732	98.1445	87.9882	98.1445	86.9673	98.1445	87.8668	98.1445	86.9897	98.1445	87.7209	98.1445	87.0451	98.1445	87.5618	98.1445	87.135	98.1445	87.4026	98.1445	87.2566
101.074	87.4607	101.074	87.4058	101.074	87.5196	101.074	87.3541	101.074	87.5828	101.074	87.3045	101.074	87.6499	101.074	87.2557	101.074	87.72	101.074	87.2064	101.074	87.7913	101.074	87.1553	101.074	87.8607	101.074	87.1016	101.074	87.924	101.074	87.0452	101.074	87.9758	101.074	86.9868	101.074	88.0095	101.074	86.9289	101.074	88.0187	101.074	86.8752	101.074	87.9975	101.074	86.8311	101.074	87.942	101.074	86.8035	101.074	87.8516	101.074	86.7994	101.074	87.7294	101.074	86.8256	101.074	87.5825	101.074	86.8861	101.074	87.4216	101.074	86.9818	101.074	87.2593	101.074	87.1089
105.469	87.7729	105.469	87.7261	105.469	87.8165	105.469	87.6754	105.469	87.8574	105.469	87.6198	105.469	87.8958	105.469	87.558	105.469	87.9314	105.469	87.4886	105.469	87.9632	105.469	87.4101	105.469	87.9895	105.469	87.3217	105.469	88.0071	105.469	87.2232	105.469	88.0121	105.469	87.1163	105.469	87.9993	105.469	87.0043	105.469	87.9634	105.469	86.8929	105.469	87.8995	105.469	86.7898	105.469	87.8046	105.469	86.705	105.469	87.6787	105.469	86.6487	105.469	87.5255	105.469	86.6306	105.469	87.353	105.469	86.6573	105.469	87.173	105.469	86.731	105.469	86.9998	105.469	86.8482
108.398	87.8101	108.398	87.7766	108.398	87.8439	108.398	87.7419	108.398	87.8787	108.398	87.7041	108.398	87.9143	108.398	87.6604	108.398	87.9499	108.398	87.6079	108.398	87.9835	108.398	87.5439	108.398	88.0124	108.398	87.466	108.398	88.0325	108.398	87.3731	108.398	88.0389	108.398	87.2658	108.398	88.0256	108.398	87.1466	108.398	87.9866	108.398	87.0213	108.398	87.9167	108.398	86.8979	108.398	87.8127	108.398	86.7875	108.398	87.6751	108.398	86.7023	108.398	87.5091	108.398	86.6549	108.398	87.3245	108.398	86.655	108.398	87.1355	108.398	86.7078	108.398	86.959	108.398	86.8119
112.793	87.8638	112.793	87.8216	112.793	87.8974	112.793	87.7703	112.793	87.923	112.793	87.7093	112.793	87.941	112.793	87.6376	112.793	87.9523	112.793	87.554	112.793	87.9576	112.793	87.4576	112.793	87.9572	112.793	87.3479	112.793	87.95	112.793	87.2255	112.793	87.9336	112.793	87.0925	112.793	87.9037	112.793	86.9531	112.793	87.8545	112.793	86.8137	112.793	87.7803	112.793	86.6833	112.793	87.6764	112.793	86.5726	112.793	87.5412	112.793	86.4934	112.793	87.3773	112.793	86.4568	112.793	87.1928	112.793	86.471	112.793	87.0004	112.793	86.539	112.793	86.8162	112.793	86.6574
117.188	87.74	117.188	87.6894	117.188	87.7809	117.188	87.6285	117.188	87.8127	117.188	87.5566	117.188	87.8357	117.188	87.4727	117.188	87.85	117.188	87.3759	117.188	87.8553	117.188	87.2657	117.188	87.8507	117.188	87.1419	117.188	87.8342	117.188	87.0058	117.188	87.8026	117.188	86.8597	117.188	87.7519	117.188	86.7084	117.188	87.6775	117.188	86.5584	117.188	87.5754	117.188	86.4189	117.188	87.4436	117.188	86.3005	117.188	87.2832	117.188	86.2149	117.188	87.0991	117.188	86.1727	117.188	86.9008	117.188	86.1816	117.188	86.7011	117.188	86.2446	117.188	86.5153	117.188	86.3587
120.117	87.8375	120.117	87.7928	120.117	87.8724	120.117	87.737	120.117	87.8981	120.117	87.6686	120.117	87.915	120.117	87.5855	120.117	87.9229	120.117	87.4856	120.117	87.921	120.117	87.367	120.117	87.9075	120.117	87.2288	120.117	87.8796	120.117	87.0712	120.117	87.833	120.117	86.8966	120.117	87.7623	120.117	86.7098	120.117	87.6623	120.117	86.5187	120.117	87.5288	120.117	86.3342	120.117	87.3601	120.117	86.1695	120.117	87.1591	120.117	86.0395	120.117	86.9336	120.117	85.9583	120.117	86.6965	120.117	85.9371	120.117	86.4647	120.117	85.9818	120.117	86.2569	120.117	86.0912
124.512	87.61	124.512	87.5682	124.512	87.6434	124.512	87.5166	124.512	87.6699	124.512	87.4541	124.512	87.691	124.512	87.3792	124.512	87.7082	124.512	87.2904	124.512	87.722	124.512	87.1864	124.512	87.7316	124.512	87.0663	124.512	87.7338	124.512	86.93	124.512	87.723	124.512	86.779	124.512	87.6915	124.512	86.6168	124.512	87.6304	124.512	86.4495	124.512	87.5321	124.512	86.2864	124.512	87.3917	124.512	86.1396	124.512	87.2097	124.512	86.0236	124.512	86.9929	124.512	85.9534	124.512	86.7551	124.512	85.9418	124.512	86.5154	124.512	85.9965	124.512	86.2958	124.512	86.1174
128.906	87.0796	128.906	87.0238	128.906	87.1317	128.906	86.9641	128.906	87.1813	128.906	86.9004	128.906	87.2299	128.906	86.8332	128.906	87.279	128.906	86.7629	128.906	87.3295	128.906	86.6896	128.906	87.3807	128.906	86.6129	128.906	87.4294	128.906	86.5327	128.906	87.47	128.906	86.4491	128.906	87.4943	128.906	86.3634	128.906	87.4928	128.906	86.2789	128.906	87.4562	128.906	86.2009	128.906	87.3782	128.906	86.1372	128.906	87.2569	128.906	86.0975	128.906	87.0968	128.906	86.0918	128.906	86.9085	128.906	86.1289	128.906	86.708	128.906	86.2134	128.906	86.514	128.906	86.3445
133.301	87.0804	133.301	87.0222	133.301	87.1344	133.301	86.959	133.301	87.1851	133.301	86.8897	133.301	87.2333	133.301	86.8133	133.301	87.2794	133.301	86.7286	133.301	87.3232	133.301	86.6348	133.301	87.3634	133.301	86.5311	133.301	87.3965	133.301	86.4179	133.301	87.4171	133.301	86.2967	133.301	87.4177	133.301	86.1712	133.301	87.3896	133.301	86.0476	133.301	87.3247	133.301	85.9344	133.301	87.2176	133.301	85.8424	133.301	87.0675	133.301	85.7832	133.301	86.8796	133.301	85.7678	133.301	86.6655	133.301	85.8043	133.301	86.4415	133.301	85.8959	133.301	86.2268	133.301	86.0399
139.16	86.9911	139.16	86.9452	139.16	87.031	139.16	86.8925	139.16	87.0662	139.16	86.8321	139.16	87.0978	139.16	86.7624	139.16	87.1273	139.16	86.6817	139.16	87.1556	139.16	86.5881	139.16	87.1824	139.16	86.4796	139.16	87.2051	139.16	86.3552	139.16	87.2184	139.16	86.2156	139.16	87.2143	139.16	86.064	139.16	87.1826	139.16	85.9072	139.16	87.1136	139.16	85.7554	139.16	87	139.16	85.6228	139.16	86.8395	139.16	85.5251	139.16	86.6368	139.16	85.4781	139.16	86.4039	139.16	85.4936	139.16	86.1593	139.16	85.577	139.16	85.9254	139.16	85.725
143.555	86.7443	143.555	86.6912	143.555	86.7939	143.555	86.6351	143.555	86.8396	143.555	86.5768	143.555	86.8822	143.555	86.5166	143.555	86.9232	143.555	86.4538	143.555	86.9644	143.555	86.3869	143.555	87.007	143.555	86.3139	143.555	87.0503	143.555	86.2324	143.555	87.0903	143.555	86.1413	143.555	87.1193	143.555	86.0411	143.555	87.1267	143.555	85.9354	143.555	87.1005	143.555	85.8314	143.555	87.0308	143.555	85.7399	143.555	86.9122	143.555	85.6749	143.555	86.7466	143.555	85.6506	143.555	86.5442	143.555	85.6793	143.555	86.3227	143.555	85.7675	143.555	86.1046	143.555	85.9131
147.949	86.7805	147.949	86.7201	147.949	86.8284	147.949	86.6478	147.949	86.8636	147.949	86.5641	147.949	86.8872	147.949	86.4697	147.949	86.9008	147.949	86.3651	147.949	86.907	147.949	86.2504	147.949	86.908	147.949	86.1263	147.949	86.905	147.949	85.9944	147.949	86.8968	147.949	85.8578	147.949	86.8795	147.949	85.7217	147.949	86.8466	147.949	85.5933	147.949	86.7901	147.949	85.4818	147.949	86.7029	147.949	85.3978	147.949	86.5809	147.949	85.3518	147.949	86.4246	147.949	85.3524	147.949	86.2405	147.949	85.4047	147.949	86.0404	147.949	85.5085	147.949	85.8403	147.949	85.6577
153.809	86.8081	153.809	86.7407	153.809	86.8603	153.809	86.658	153.809	86.8974	153.809	86.5602	153.809	86.9205	153.809	86.4475	153.809	86.9311	153.809	86.3196	153.809	86.9311	153.809	86.1768	153.809	86.9222	153.809	86.0197	153.809	86.9049	153.809	85.8501	153.809	86.877	153.809	85.6719	153.809	86.8339	153.809	85.4914	153.809	86.7686	153.809	85.3181	153.809	86.6733	153.809	85.1636	153.809	86.5419	153.809	85.0415	153.809	86.3723	153.809	84.9651	153.809	86.1676	153.809	84.9453	153.809	85.9375	153.809	84.9885	153.809	85.6967	153.809	85.0947	153.809	85.4637	153.809	85.2573
159.668	86.7907	159.668	86.7351	159.668	86.8298	159.668	86.6625	159.668	86.8534	159.668	86.5728	159.668	86.8635	159.668	86.4655	159.668	86.8627	159.668	86.3403	159.668	86.8541	159.668	86.1968	159.668	86.8397	159.668	86.0354	159.668	86.8196	159.668	85.858	159.668	86.7909	159.668	85.6688	159.668	86.7478	159.668	85.4753	159.668	86.6826	159.668	85.2883	159.668	86.5874	159.668	85.1216	159.668	86.4565	159.668	84.9905	159.668	86.2884	159.668	84.9092	159.668	86.0872	159.668	84.8881	159.668	85.8626	159.668	84.9321	159.668	85.6285	159.668	85.0387	159.668	85.4017	159.668	85.1997
165.527	86.6855	165.527	86.6373	165.527	86.72	165.527	86.5756	165.527	86.7414	165.527	86.5013	165.527	86.7519	165.527	86.4148	165.527	86.7545	165.527	86.3162	165.527	86.7532	165.527	86.2049	165.527	86.7511	165.527	86.0803	165.527	86.749	165.527	85.9418	165.527	86.744	165.527	85.791	165.527	86.7293	165.527	85.6319	165.527	86.695	165.527	85.4722	165.527	86.6308	165.527	85.3234	165.527	86.5284	165.527	85.1999	165.527	86.3848	165.527	85.1169	165.527	86.2033	165.527	85.0875	165.527	85.9937	165.527	85.1194	165.527	85.7713	165.527	85.2135	165.527	85.5546	165.527	85.3629
171.387	86.529	171.387	86.4754	171.387	86.5635	171.387	86.4044	171.387	86.5788	171.387	86.3181	171.387	86.5767	171.387	86.2188	171.387	86.5612	171.387	86.1079	171.387	86.5382	171.387	85.9863	171.387	86.5136	171.387	85.8546	171.387	86.4916	171.387	85.7135	171.387	86.4725	171.387	85.5654	171.387	86.4517	171.387	85.4147	171.387	86.4205	171.387	85.2688	171.387	86.368	171.387	85.1384	171.387	86.2845	171.387	85.0357	171.387	86.1648	171.387	84.9734	171.387	86.0096	171.387	84.9615	171.387	85.826	171.387	85.0053	171.387	85.627	171.387	85.1036	171.387	85.4289	171.387	85.249
177.246	86.6153	177.246	86.5603	177.246	86.6415	177.246	86.4777	177.246	86.6397	177.246	86.37	177.246	86.6129	177.246	86.2398	177.246	86.5665	177.246	86.0897	177.246	86.5074	177.246	85.9222	177.246	86.4422	177.246	85.7398	177.246	86.3758	177.246	85.5462	177.246	86.3092	177.246	85.3465	177.246	86.2395	177.246	85.1486	177.246	86.16	177.246	84.963	177.246	86.063	177.246	84.8021	177.246	85.9424	177.246	84.6794	177.246	85.7955	177.246	84.6065	177.246	85.6246	177.246	84.591	177.246	85.436	177.246	84.6343	177.246	85.2397	177.246	84.7319	177.246	85.0479	177.246	84.874
183.105	86.3162	183.105	86.2685	183.105	86.3378	183.105	86.194	183.105	86.3358	183.105	86.0934	183.105	86.3151	183.105	85.9686	183.105	86.2823	183.105	85.8217	183.105	86.2452	183.105	85.6555	183.105	86.2105	183.105	85.4728	183.105	86.1815	183.105	85.2773	183.105	86.1557	183.105	85.0746	183.105	86.1248	183.105	84.8723	183.105	86.0756	183.105	84.6811	183.105	85.9949	183.105	84.5141	183.105	85.873	183.105	84.3857	183.105	85.7078	183.105	84.3089	183.105	85.5049	183.105	84.293	183.105	85.2769	183.105	84.3411	183.105	85.0404	183.105	84.4501	183.105	84.8131	183.105	84.6114
188.965	86.1389	188.965	86.0926	188.965	86.1568	188.965	86.0179	188.965	86.1481	188.965	85.9154	188.965	86.1171	188.965	85.7867	188.965	86.0709	188.965	85.6335	188.965	86.0193	188.965	85.4582	188.965	85.9729	188.965	85.264	188.965	85.9399	188.965	85.0556	188.965	85.9223	188.965	84.8398	188.965	85.9142	188.965	84.6265	188.965	85.9015	188.965	84.4289	188.965	85.8666	188.965	84.2628	188.965	85.7929	188.965	84.1444	188.965	85.67	188.965	84.088	188.965	85.4965	188.965	84.1024	188.965	85.28	188.965	84.1887	188.965	85.0357	188.965	84.3406	188.965	84.7834	188.965	84.5448
196.289	86.3704	196.289	86.3215	196.289	86.3808	196.289	86.2365	196.289	86.3528	196.289	86.1195	196.289	86.2899	196.289	85.9747	196.289	86.1993	196.289	85.8066	196.289	86.0911	196.289	85.6189	196.289	85.9766	196.289	85.415	196.289	85.8659	196.289	85.1986	196.289	85.7651	196.289	84.9749	196.289	85.6741	196.289	84.7515	196.289	85.5875	196.289	84.5394	196.289	85.4961	196.289	84.3528	196.289	85.3903	196.289	84.2073	196.289	85.2631	196.289	84.1172	196.289	85.1116	196.289	84.0918	196.289	84.9382	196.289	84.1327	196.289	84.7501	196.289	84.2335	196.289	84.5593	196.289	84.3813
203.613	86.2718	203.613	86.2415	203.613	86.263	203.613	86.1726	203.613	86.2163	203.613	86.0668	203.613	86.1352	203.613	85.926	203.613	86.026	203.613	85.7522	203.613	85.8979	203.613	85.5476	203.613	85.7609	203.613	85.3152	203.613	85.6248	203.613	85.0606	203.613	85.4954	203.613	84.7927	203.613	85.3729	203.613	84.5246	203.613	85.2526	203.613	84.2732	203.613	85.1276	203.613	84.0573	203.613	84.9921	203.613	83.894	203.613	84.8443	203.613	83.7955	203.613	84.6856	203.613	83.7666	203.613	84.5194	203.613	83.8035	203.613	84.3498	203.613	83.8952	203.613	84.1825	203.613	84.0267
210.938	86.3798	210.938	86.3165	210.938	86.4033	210.938	86.2172	210.938	86.3839	210.938	86.0852	210.938	86.3212	210.938	85.9222	210.938	86.2191	210.938	85.7289	210.938	86.0861	210.938	85.5056	210.938	85.9339	210.938	85.2541	210.938	85.7746	210.938	84.9789	210.938	85.6168	210.938	84.689	210.938	85.4632	210.938	84.3987	210.938	85.3104	210.938	84.1268	210.938	85.1518	210.938	83.8948	210.938	84.9824	210.938	83.7226	210.938	84.8014	210.938	83.6239	210.938	84.6128	210.938	83.6023	210.938	84.4228	210.938	83.6506	210.938	84.2368	210.938	83.7539	210.938	84.059	210.938	83.8948
218.262	86.1499	218.262	86.1024	218.262	86.1556	218.262	86.0152	218.262	86.1199	218.262	85.8915	218.262	86.0472	218.262	85.7346	218.262	85.9461	218.262	85.5473	218.262	85.829	218.262	85.3332	218.262	85.7089	218.262	85.0971	218.262	85.5966	218.262	84.8469	218.262	85.4971	218.262	84.5943	218.262	85.4079	218.262	84.3553	218.262	85.3204	218.262	84.1483	218.262	85.2239	218.262	83.9914	218.262	85.1112	218.262	83.898	218.262	84.9817	218.262	83.8731	218.262	84.8404	218.262	83.9115	218.262	84.6942	218.262	83.9997	218.262	84.5476	218.262	84.1205	218.262	84.4019	218.262	84.2581
225.586	86.1928	225.586	86.1313	225.586	86.2034	225.586	86.0229	225.586	86.1634	225.586	85.874	225.586	86.0777	225.586	85.6922	225.586	85.9565	225.586	85.4848	225.586	85.8137	225.586	85.2591	225.586	85.6653	225.586	85.0226	225.586	85.5262	225.586	84.7843	225.586	85.407	225.586	84.5556	225.586	85.3112	225.586	84.3517	225.586	85.235	225.586	84.1907	225.586	85.1706	225.586	84.0904	225.586	85.1104	225.586	84.0627	225.586	85.0506	225.586	84.1086	225.586	84.9901	225.586	84.2149	225.586	84.9266	225.586	84.3576	225.586	84.8543	225.586	84.5097	225.586	84.7641	225.586	84.6491
232.91	86.3628	232.91	86.322	232.91	86.3472	232.91	86.2279	232.91	86.2758	232.91	86.0858	232.91	86.1535	232.91	85.9021	232.91	85.9896	232.91	85.6826	232.91	85.7971	232.91	85.433	232.91	85.5906	232.91	85.1588	232.91	85.3846	232.91	84.8671	232.91	85.1901	232.91	84.569	232.91	85.0125	232.91	84.2817	232.91	84.8514	232.91	84.0294	232.91	84.7046	232.91	83.8395	232.91	84.5727	232.91	83.7351	232.91	84.4617	232.91	83.7243	232.91	84.3781	232.91	83.7936	232.91	84.3213	232.91	83.9115	232.91	84.2784	232.91	84.0404	232.91	84.2277	232.91	84.1502
241.699	86.1285	241.699	86.0658	241.699	86.1365	241.699	85.9538	241.699	86.0884	241.699	85.8006	241.699	85.9881	241.699	85.615	241.699	85.8441	241.699	85.4046	241.699	85.6697	241.699	85.1743	241.699	85.4811	241.699	84.9259	241.699	85.2944	241.699	84.6599	241.699	85.1209	241.699	84.3777	241.699	84.9625	241.699	84.0858	241.699	84.8108	241.699	83.7998	241.699	84.6521	241.699	83.5452	241.699	84.4777	241.699	83.3537	241.699	84.2911	241.699	83.2513	241.699	84.1075	241.699	83.245	241.699	83.9437	241.699	83.3168	241.699	83.8053	241.699	83.4325	241.699	83.6822	241.699	83.5595
250.488	86.2142	250.488	86.12	250.488	86.2487	250.488	85.9728	250.488	86.2216	250.488	85.7822	250.488	86.1353	250.488	85.5604	250.488	85.9972	250.488	85.32	250.488	85.8195	250.488	85.0722	250.488	85.6186	250.488	84.8255	250.488	85.4121	250.488	84.5839	250.488	85.215	250.488	84.3476	250.488	85.034	250.488	84.1161	250.488	84.8645	250.488	83.8927	250.488	84.6942	250.488	83.688	250.488	84.5115	250.488	83.5206	250.488	84.3148	250.488	83.4101	250.488	84.1151	250.488	83.3676	250.488	83.9306	250.488	83.3875	250.488	83.7745	250.488	83.4518	250.488	83.6473	250.488	83.5411
259.277	86.5644	259.277	86.4918	259.277	86.5676	259.277	86.3548	259.277	86.5029	259.277	86.1649	259.277	86.3782	259.277	85.9377	259.277	86.2069	259.277	85.6904	259.277	86.006	259.277	85.4389	259.277	85.7948	259.277	85.1949	259.277	85.5924	259.277	84.9633	259.277	85.4129	259.277	84.7427	259.277	85.2607	259.277	84.528	259.277	85.1275	259.277	84.3152	259.277	84.9955	259.277	84.1074	259.277	84.8462	259.277	83.918	259.277	84.67	259.277	83.768	259.277	84.4716	259.277	83.6773	259.277	84.2677	259.277	83.6546	259.277	84.0776	259.277	83.6948	259.277	83.9145	259.277	83.785
268.066	86.138	268.066	86.0777	268.066	86.1359	268.066	85.9509	268.066	86.079	268.066	85.7574	268.066	85.9773	268.066	85.5024	268.066	85.8435	268.066	85.1968	268.066	85.6927	268.066	84.8578	268.066	85.5408	268.066	84.5077	268.066	85.4019	268.066	84.1713	268.066	85.2832	268.066	83.8707	268.066	85.1813	268.066	83.6209	268.066	85.0823	268.066	83.4281	268.066	84.9674	268.066	83.2927	268.066	84.8215	268.066	83.2146	268.066	84.6404	268.066	83.1956	268.066	84.433	268.066	83.2362	268.066	84.2165	268.066	83.3307	268.066	84.0064	268.066	83.4665	268.066	83.8103	268.066	83.6295
276.855	86.337	276.855	86.3263	276.855	86.2793	276.855	86.2413	276.855	86.16	276.855	86.0773	276.855	85.9868	276.855	85.8307	276.855	85.7704	276.855	85.5001	276.855	85.5269	276.855	85.0873	276.855	85.2789	276.855	84.6009	276.855	85.0532	276.855	84.0609	276.855	84.8732	276.855	83.5024	276.855	84.7499	276.855	82.9765	276.855	84.677	276.855	82.5414	276.855	84.6326	276.855	82.2465	276.855	84.586	276.855	82.1159	276.855	84.5072	276.855	82.1452	276.855	84.3734	276.855	82.3094	276.855	84.1741	276.855	82.5735	276.855	83.9112	276.855	82.8995	276.855	83.5971	276.855	83.2512
287.109	86.302	287.109	86.2286	287.109	86.303	287.109	86.0943	287.109	86.2219	287.109	85.9092	287.109	86.0549	287.109	85.6802	287.109	85.8087	287.109	85.4105	287.109	85.5046	287.109	85.0993	287.109	85.1775	287.109	84.745	287.109	84.8692	287.109	84.3483	287.109	84.6143	287.109	83.9183	287.109	84.4281	287.109	83.4764	287.109	84.3026	287.109	83.0577	287.109	84.2153	287.109	82.7082	287.109	84.1425	287.109	82.4745	287.109	84.0666	287.109	82.3894	287.109	83.9752	287.109	82.4578	287.109	83.8554	287.109	82.6523	287.109	83.6927	287.109	82.9224	287.109	83.4771	287.109	83.2122
297.363	86.3122	297.363	86.2404	297.363	86.2996	297.363	86.0875	297.363	86.2016	297.363	85.8578	297.363	86.023	297.363	85.5561	297.363	85.7781	297.363	85.1879	297.363	85.4926	297.363	84.76	297.363	85.1994	297.363	84.2825	297.363	84.9294	297.363	83.7713	297.363	84.6984	297.363	83.2524	297.363	84.5019	297.363	82.7636	297.363	84.3235	297.363	82.3521	297.363	84.1521	297.363	82.0662	297.363	83.9939	297.363	81.9434	297.363	83.8662	297.363	81.9964	297.363	83.7754	297.363	82.2051	297.363	83.7011	297.363	82.5182	297.363	83.602	297.363	82.8675	297.363	83.4374	297.363	83.1884
307.617	86.5217	307.617	86.4483	307.617	86.5181	307.617	86.3085	307.617	86.4281	307.617	86.1118	307.617	86.2475	307.617	85.865	307.617	85.9803	307.617	85.5716	307.617	85.6412	307.617	85.233	307.617	85.2565	307.617	84.8504	307.617	84.861	307.617	84.4289	307.617	84.4904	307.617	83.9803	307.617	84.1699	307.617	83.5275	307.617	83.9055	307.617	83.1051	307.617	83.6885	307.617	82.7563	307.617	83.5115	307.617	82.5221	307.617	83.377	307.617	82.4269	307.617	83.2891	307.617	82.466	307.617	83.2364	307.617	82.605	307.617	83.187	307.617	82.7907	307.617	83.1046	307.617	82.9695
319.336	86.469	319.336	86.4195	319.336	86.4442	319.336	86.3038	319.336	86.3374	319.336	86.1289	319.336	86.1451	319.336	85.9005	319.336	85.8715	319.336	85.6229	319.336	85.5315	319.336	85.3007	319.336	85.1493	319.336	84.9394	319.336	84.7555	319.336	84.5479	319.336	84.3792	319.336	84.1407	319.336	84.0381	319.336	83.7401	319.336	83.7334	319.336	83.3765	319.336	83.4558	319.336	83.0835	319.336	83.2047	319.336	82.8887	319.336	83.0016	319.336	82.8013	319.336	82.8796	319.336	82.8049	319.336	82.8511	319.336	82.8617	319.336	82.8883	319.336	82.9248	319.336	82.9383	319.336	82.9557
329.59	85.9892	329.59	85.963	329.59	85.9488	329.59	85.8677	329.59	85.8481	329.59	85.7025	329.59	85.698	329.59	85.4677	329.59	85.5115	329.59	85.164	329.59	85.2993	329.59	84.7939	329.59	85.0667	329.59	84.3633	329.59	84.8124	329.59	83.8844	329.59	84.5324	329.59	83.3801	329.59	84.2238	329.59	82.8889	329.59	83.8894	329.59	82.4663	329.59	83.5437	329.59	82.1757	329.59	83.2195	329.59	82.0646	329.59	82.965	329.59	82.1348	329.59	82.8232	329.59	82.3331	329.59	82.7998	329.59	82.5738	329.59	82.8504	329.59	82.7756	329.59	82.9017	329.59	82.8879
341.309	86.1056	341.309	86.0751	341.309	86.0392	341.309	85.9445	341.309	85.8851	341.309	85.7168	341.309	85.659	341.309	85.4007	341.309	85.3824	341.309	85.0113	341.309	85.0824	341.309	84.568	341.309	84.7871	341.309	84.0923	341.309	84.5174	341.309	83.6039	341.309	84.2781	341.309	83.1198	341.309	84.0542	341.309	82.6579	341.309	83.8219	341.309	82.2468	341.309	83.5685	341.309	81.933	341.309	83.3106	341.309	81.7755	341.309	83.0948	341.309	81.8149	341.309	82.9709	341.309	82.0347	341.309	82.9492	341.309	82.3541	341.309	82.9811	341.309	82.6662	341.309	82.9838	341.309	82.8871
353.027	86.1589	353.027	86.1007	353.027	86.1189	353.027	85.9483	353.027	85.9799	353.027	85.7086	353.027	85.7453	353.027	85.3895	353.027	85.4258	353.027	84.9994	353.027	85.0434	353.027	84.5467	353.027	84.6347	353.027	84.0421	353.027	84.2461	353.027	83.5019	353.027	83.9174	353.027	82.9517	353.027	83.6593	353.027	82.4281	353.027	83.445	353.027	81.9771	353.027	83.2314	353.027	81.6495	353.027	82.9995	353.027	81.4921	353.027	82.779	353.027	81.5283	353.027	82.6304	353.027	81.7341	353.027	82.5871	353.027	82.0328	353.027	82.6115	353.027	82.3253	353.027	82.618	353.027	82.5312
366.211	86.0161	366.211	85.9649	366.211	85.9612	366.211	85.8165	366.211	85.8024	366.211	85.5867	366.211	85.5541	366.211	85.2911	366.211	85.2414	366.211	84.9383	366.211	84.8969	366.211	84.5247	366.211	84.5549	366.211	84.0375	366.211	84.2437	366.211	83.4652	366.211	83.9741	366.211	82.8131	366.211	83.7318	366.211	82.1191	366.211	83.4821	366.211	81.4571	366.211	83.1897	366.211	80.9201	366.211	82.8437	366.211	80.586	366.211	82.4734	366.211	80.4876	366.211	82.1403	366.211	80.6029	366.211	81.8977	366.211	80.8612	366.211	81.7427	366.211	81.1649	366.211	81.6107	366.211	81.4274
379.395	86.651	379.395	86.5935	379.395	86.6194	379.395	86.4585	379.395	86.4856	379.395	86.256	379.395	86.2371	379.395	85.9939	379.395	85.8672	379.395	85.6782	379.395	85.3818	379.395	85.3105	379.395	84.8058	379.395	84.886	379.395	84.1864	379.395	84.3921	379.395	83.5897	379.395	83.8132	379.395	83.0829	379.395	83.1417	379.395	82.7083	379.395	82.3969	379.395	82.4674	379.395	81.647	379.395	82.3332	379.395	81.0194	379.395	82.2743	379.395	80.6655	379.395	82.2617	379.395	80.6643	379.395	82.2563	379.395	80.9509	379.395	82.203	379.395	81.3662	379.395	82.047	379.395	81.7607
392.578	86.1092	392.578	86.0628	392.578	86.0823	392.578	85.9526	392.578	85.9729	392.578	85.7854	392.578	85.7742	392.578	85.562	392.578	85.4863	392.578	85.2767	392.578	85.1201	392.578	84.9209	392.578	84.7014	392.578	84.4916	392.578	84.2671	392.578	83.9993	392.578	83.8488	392.578	83.4733	392.578	83.4509	392.578	82.957	392.578	83.0458	392.578	82.4947	392.578	82.6086	392.578	82.1175	392.578	82.1752	392.578	81.8447	392.578	81.867	392.578	81.6981	392.578	81.8077	392.578	81.7004	392.578	81.9759	392.578	81.8458	392.578	82.2022	392.578	82.0693	392.578	82.3188	392.578	82.2613
405.762	86.1792	405.762	86.066	405.762	86.2001	405.762	85.8827	405.762	86.1082	405.762	85.6503	405.762	85.8905	405.762	85.3835	405.762	85.5477	405.762	85.086	405.762	85.0983	405.762	84.7461	405.762	84.579	405.762	84.3389	405.762	84.0359	405.762	83.8372	405.762	83.5104	405.762	83.2301	405.762	83.0194	405.762	82.5435	405.762	82.5477	405.762	81.854	405.762	82.0679	405.762	81.28	405.762	81.5907	405.762	80.9401	405.762	81.2102	405.762	80.8903	405.762	81.0713	405.762	81.0873	405.762	81.2235	405.762	81.4083	405.762	81.5313	405.762	81.7048	405.762	81.7862	405.762	81.8524
420.41	86.4164	420.41	86.3159	420.41	86.3824	420.41	86.0967	420.41	86.2106	420.41	85.785	420.41	85.9081	420.41	85.411	420.41	85.4895	420.41	84.9971	420.41	84.9777	420.41	84.5491	420.41	84.4085	420.41	84.0551	420.41	83.8364	420.41	83.4992	420.41	83.3288	420.41	82.8833	420.41	82.938	420.41	82.2443	420.41	82.6614	420.41	81.655	420.41	82.4291	420.41	81.2073	420.41	82.1541	420.41	80.9817	420.41	81.815	420.41	81.0121	420.41	81.5091	420.41	81.2538	420.41	81.3981	420.41	81.5821	420.41	81.5343	420.41	81.8406	420.41	81.7732	420.41	81.9113
435.059	85.8946	435.059	85.8205	435.059	85.8353	435.059	85.6447	435.059	85.6293	435.059	85.4049	435.059	85.2883	435.059	85.1276	435.059	84.8494	435.059	84.8131	435.059	84.3685	435.059	84.4338	435.059	83.9087	435.059	83.9471	435.059	83.5233	435.059	83.3219	435.059	83.2335	435.059	82.5666	435.059	83.0088	435.059	81.748	435.059	82.7753	435.059	80.9884	435.059	82.4556	435.059	80.432	435.059	82.023	435.059	80.1866	435.059	81.548	435.059	80.2725	435.059	81.199	435.059	80.6087	435.059	81.1285	435.059	81.0427	435.059	81.3027	435.059	81.4073	435.059	81.5173	435.059	81.5783
451.172	86.496	451.172	86.3914	451.172	86.4983	451.172	86.1767	451.172	86.3956	451.172	85.8444	451.172	86.168	451.172	85.3909	451.172	85.7873	451.172	84.8128	451.172	85.2446	451.172	84.1039	451.172	84.578	451.172	83.2609	451.172	83.8793	451.172	82.2966	451.172	83.2597	451.172	81.2539	451.172	82.772	451.172	80.2121	451.172	82.3571	451.172	79.2921	451.172	81.8984	451.172	78.6657	451.172	81.352	451.172	78.5202	451.172	80.849	451.172	78.9191	451.172	80.6502	451.172	79.6962	451.172	80.8716	451.172	80.5587	451.172	81.303	451.172	81.2528	451.172	81.6223	451.172	81.625
465.82	86.3699	465.82	86.2377	465.82	86.3817	465.82	86.001	465.82	86.2589	465.82	85.674	465.82	85.9949	465.82	85.2689	465.82	85.5964	465.82	84.7972	465.82	85.0847	465.82	84.2732	465.82	84.4935	465.82	83.7129	465.82	83.8716	465.82	83.1242	465.82	83.29	465.82	82.4937	465.82	82.8204	465.82	81.7931	465.82	82.4622	465.82	81.0122	465.82	82.0977	465.82	80.2042	465.82	81.5648	465.82	79.5179	465.82	80.7944	465.82	79.1554	465.82	79.9376	465.82	79.2047	465.82	79.3739	465.82	79.5132	465.82	79.3557	465.82	79.8034	465.82	79.6515	465.82	79.8641
483.398	86.271	483.398	86.2364	483.398	86.1691	483.398	86.0846	483.398	85.9189	483.398	85.8365	483.398	85.5227	483.398	85.5047	483.398	85.0054	483.398	85.082	483.398	84.4207	483.398	84.54	483.398	83.8444	483.398	83.8375	483.398	83.3524	483.398	82.9359	483.398	82.9968	483.398	81.8256	483.398	82.783	483.398	80.5705	483.398	82.6479	483.398	79.3493	483.398	82.4719	483.398	78.4216	483.398	82.1413	483.398	77.9892	483.398	81.6296	483.398	78.0884	483.398	81.058	483.398	78.6087	483.398	80.6616	483.398	79.3377	483.398	80.5625	483.398	80.0195	483.398	80.5876	483.398	80.4541
499.512	86.0467	499.512	85.9638	499.512	85.9466	499.512	85.7211	499.512	85.6606	499.512	85.3658	499.512	85.2082	499.512	84.9656	499.512	84.6343	499.512	84.5823	499.512	84.0035	499.512	84.2252	499.512	83.3828	499.512	83.8203	499.512	82.8302	499.512	83.2276	499.512	82.3943	499.512	82.2992	499.512	82.1039	499.512	80.957	499.512	81.9393	499.512	79.2849	499.512	81.8174	499.512	77.651	499.512	81.6222	499.512	76.7066	499.512	81.2731	499.512	76.856	499.512	80.807	499.512	77.7646	499.512	80.4126	499.512	78.8442	499.512	80.2729	499.512	79.7064	499.512	80.2968	499.512	80.1822
517.09	86.11	517.09	85.8498	517.09	86.1848	517.09	85.481	517.09	86.038	517.09	85.1083	517.09	85.6735	517.09	84.8209	517.09	85.1308	517.09	84.6358	517.09	84.4702	517.09	84.4795	517.09	83.7487	517.09	84.2257	517.09	83.0151	517.09	83.7495	517.09	82.3358	517.09	82.9568	517.09	81.7919	517.09	81.783	517.09	81.4034	517.09	80.1938	517.09	81.0703	517.09	78.305	517.09	80.6327	517.09	76.805	517.09	80.0169	517.09	76.9004	517.09	79.4074	517.09	78.3081	517.09	79.2598	517.09	79.7434	517.09	79.7653	517.09	80.6268	517.09	80.4729	517.09	80.8479
536.133	86.3505	536.133	85.9687	536.133	86.4139	536.133	85.3034	536.133	86.1794	536.133	84.4863	536.133	85.6844	536.133	83.7689	536.133	84.9535	536.133	83.4269	536.133	83.9989	536.133	83.5199	536.133	82.875	536.133	83.8043	536.133	81.7676	536.133	83.931	536.133	81.0112	536.133	83.6178	536.133	80.8467	536.133	82.6816	536.133	81.1188	536.133	81.0148	536.133	81.4206	536.133	78.5371	536.133	81.391	536.133	75.1314	536.133	80.7944	536.133	70.9809	536.133	79.5421	536.133	69.7111	536.133	77.8839	536.133	72.8053	536.133	76.6911	536.133	75.2883	536.133	76.5076	536.133	76.3786
555.176	87.9447	555.176	87.6064	555.176	87.9891	555.176	86.9496	555.176	87.7855	555.176	86.0044	555.176	87.3703	555.176	84.9006	555.176	86.7458	555.176	83.9158	555.176	85.8709	555.176	83.394	555.176	84.6661	555.176	83.4214	555.176	83.0374	555.176	83.6913	555.176	81.0127	555.176	83.8366	555.176	79.2611	555.176	83.6672	555.176	79.2536	555.176	83.1281	555.176	80.6569	555.176	82.181	555.176	81.8461	555.176	80.7345	555.176	82.142	555.176	78.6537	555.176	81.3924	555.176	75.896	555.176	79.5915	555.176	73.0212	555.176	76.9302	555.176	71.6586	555.176	74.1268	555.176	72.2444
574.219	88.3627	574.219	88.1837	574.219	88.3202	574.219	87.7416	574.219	88.1133	574.219	87.0286	574.219	87.7924	574.219	86.0899	574.219	87.3862	574.219	85.0634	574.219	86.8875	574.219	84.2014	574.219	86.2335	574.219	83.7346	574.219	85.2987	574.219	83.6181	574.219	83.9279	574.219	83.5611	574.219	82.0497	574.219	83.2912	574.219	80.1133	574.219	82.6779	574.219	79.6964	574.219	81.7223	574.219	81.1514	574.219	80.5334	574.219	82.7089	574.219	79.3321	574.219	83.5121	574.219	78.4751	574.219	83.4765	574.219	78.353	574.219	82.7462	574.219	79.0431	574.219	81.5688	574.219	80.2349
594.727	87.3313	594.727	87.4225	594.727	87.0766	594.727	87.2799	594.727	86.7208	594.727	86.8372	594.727	86.3171	594.727	86.062	594.727	85.9052	594.727	85.0007	594.727	85.4907	594.727	83.8299	594.727	85.026	594.727	82.8623	594.727	84.4151	594.727	82.3814	594.727	83.5382	594.727	82.3366	594.727	82.2767	594.727	82.3655	594.727	80.5934	594.727	82.149	594.727	78.9189	594.727	81.5909	594.727	78.6785	594.727	80.8095	594.727	80.1869	594.727	80.135	594.727	81.8106	594.727	80.0044	594.727	82.7518	594.727	80.5289	594.727	82.9986	594.727	81.3637	594.727	82.7419	594.727	82.1575
615.234	86.6376	615.234	86.762	615.234	86.2867	615.234	86.5998	615.234	85.795	615.234	86.1426	615.234	85.245	615.234	85.4503	615.234	84.6981	615.234	84.646	615.234	84.1889	615.234	83.8879	615.234	83.7168	615.234	83.3315	615.234	83.2258	615.234	83.0698	615.234	82.6098	615.234	83.0425	615.234	81.7758	615.234	83.0466	615.234	80.7524	615.234	82.8637	615.234	79.8246	615.234	82.326	615.234	79.4393	615.234	81.3327	615.234	79.603	615.234	79.9936	615.234	79.9211	615.234	78.9481	615.234	80.28	615.234	79.0395	615.234	80.6988	615.234	79.9338	615.234	80.9392	615.234	80.7018
637.207	86.45	637.207	86.3938	637.207	86.1963	637.207	86.0574	637.207	85.665	637.207	85.5078	637.207	84.9892	637.207	84.8272	637.207	84.3697	637.207	84.0691	637.207	83.8936	637.207	83.2515	637.207	83.4244	637.207	82.4551	637.207	82.7785	637.207	81.8855	637.207	81.924	637.207	81.6343	637.207	80.9654	637.207	81.4748	637.207	80.009	637.207	81.1593	637.207	79.2452	637.207	80.6511	637.207	79.2191	637.207	80.0029	637.207	80.1182	637.207	79.2566	637.207	81.1634	637.207	78.6584	637.207	81.7714	637.207	78.8098	637.207	81.904	637.207	79.8116	637.207	81.6357	637.207	80.9234
659.18	85.7336	659.18	85.9964	659.18	85.2239	659.18	85.8949	659.18	84.6474	659.18	85.4128	659.18	84.1206	659.18	84.5965	659.18	83.624	659.18	83.5046	659.18	83.0956	659.18	82.2152	659.18	82.5283	659.18	80.9094	659.18	81.9574	659.18	79.9487	659.18	81.3707	659.18	79.7104	659.18	80.6002	659.18	80.0835	659.18	79.3175	659.18	80.4768	659.18	77.3358	659.18	80.418	659.18	75.7386	659.18	79.8114	659.18	76.6292	659.18	78.9007	659.18	78.3698	659.18	78.1532	659.18	79.3227	659.18	77.9593	659.18	79.5068	659.18	78.296	659.18	79.2732	659.18	78.8268
682.617	84.7463	682.617	85.0552	682.617	84.1805	682.617	85.105	682.617	83.3909	682.617	84.8829	682.617	82.4899	682.617	84.3761	682.617	81.6589	682.617	83.6296	682.617	81.0873	682.617	82.787	682.617	80.912	682.617	81.9908	682.617	81.0944	682.617	81.2203	682.617	81.3304	682.617	80.4398	682.617	81.1599	682.617	79.9032	682.617	80.1555	682.617	79.8341	682.617	78.2122	682.617	79.9035	682.617	76.0735	682.617	79.6185	682.617	75.2918	682.617	78.9014	682.617	76.2106	682.617	78.3558	682.617	77.8649	682.617	78.6861	682.617	79.339	682.617	79.5456	682.617	80.1409	682.617	80.1663
707.52	84.3468	707.52	84.8587	707.52	83.7389	707.52	85.1586	707.52	83.1396	707.52	85.2065	707.52	82.5109	707.52	84.9917	707.52	81.7756	707.52	84.477	707.52	81.0698	707.52	83.6356	707.52	80.7362	707.52	82.5893	707.52	80.8937	707.52	81.7467	707.52	81.1701	707.52	81.4468	707.52	81.0953	707.52	81.4265	707.52	80.4556	707.52	81.3712	707.52	79.1256	707.52	81.2265	707.52	76.8441	707.52	80.7947	707.52	75.0525	707.52	79.714	707.52	77.7136	707.52	78.17	707.52	80.7121	707.52	77.9062	707.52	82.0646	707.52	79.5491	707.52	82.1143	707.52	81.215
732.422	86.4797	732.422	86.6335	732.422	86.0794	732.422	86.5645	732.422	85.3476	732.422	86.3	732.422	84.2135	732.422	85.9358	732.422	82.7659	732.422	85.5443	732.422	81.274	732.422	84.9769	732.422	80.1392	732.422	83.9062	732.422	79.7926	732.422	82.3247	732.422	80.1964	732.422	81.2168	732.422	80.8966	732.422	81.3811	732.422	81.5	732.422	81.8324	732.422	81.5331	732.422	81.9181	732.422	80.233	732.422	81.8072	732.422	76.7031	732.422	81.5534	732.422	74.2567	732.422	80.845	732.422	78.2198	732.422	79.7962	732.422	80.6682	732.422	79.5857	732.422	81.2088	732.422	80.5318
757.324	86.8052	757.324	86.6213	757.324	86.9187	757.324	86.5663	757.324	86.672	757.324	86.5561	757.324	85.8867	757.324	86.3407	757.324	84.5245	757.324	85.71	757.324	82.6965	757.324	84.6678	757.324	80.608	757.324	83.3975	757.324	78.5468	757.324	81.8406	757.324	77.7411	757.324	79.8425	757.324	79.0348	757.324	78.6265	757.324	80.5509	757.324	79.9149	757.324	81.2436	757.324	81.6316	757.324	80.955	757.324	82.1962	757.324	79.6663	757.324	81.8359	757.324	77.8805	757.324	81.5057	757.324	77.4531	757.324	81.5825	757.324	79.0573	757.324	81.6768	757.324	80.6713	757.324	81.475
785.156	87.3201	785.156	87.7846	785.156	86.1635	785.156	87.4111	785.156	85.1143	785.156	86.4228	785.156	85.1862	785.156	85.5288	785.156	85.6031	785.156	85.3684	785.156	85.1939	785.156	85.2752	785.156	83.7509	785.156	84.319	785.156	81.3089	785.156	82.5433	785.156	78.1119	785.156	80.8915	785.156	77.1175	785.156	79.1819	785.156	78.8023	785.156	76.0471	785.156	79.5792	785.156	72.1805	785.156	79.789	785.156	74.7708	785.156	81.0894	785.156	79.569	785.156	81.3715	785.156	81.5075	785.156	79.0511	785.156	82.0382	785.156	77.3305	785.156	82.7645	785.156	80.4729	785.156	82.6276
811.523	86.4151	811.523	87.132	811.523	85.6069	811.523	87.1673	811.523	85.2835	811.523	86.4373	811.523	85.1223	811.523	85.264	811.523	84.5134	811.523	84.2518	811.523	83.1754	811.523	83.5774	811.523	81.1289	811.523	82.564	811.523	78.7258	811.523	80.6129	811.523	76.5564	811.523	78.0847	811.523	75.6009	811.523	76.8291	811.523	77.4246	811.523	77.8871	811.523	79.2839	811.523	79.4986	811.523	77.7744	811.523	80.6044	811.523	71.6484	811.523	81.3545	811.523	75.6579	811.523	81.4531	811.523	79.63	811.523	80.3601	811.523	80.429	811.523	78.4686	811.523	79.2825	811.523	77.7612
840.82	86.0388	840.82	86.5555	840.82	85.9661	840.82	86.9663	840.82	85.9242	840.82	86.6917	840.82	85.2267	840.82	85.6095	840.82	83.6974	840.82	83.8565	840.82	81.8143	840.82	81.7845	840.82	80.4378	840.82	80.2139	840.82	79.5712	840.82	79.454	840.82	78.8733	840.82	78.3648	840.82	77.7185	840.82	76.7236	840.82	76.7604	840.82	77.056	840.82	78.5758	840.82	79.5993	840.82	79.4225	840.82	81.2042	840.82	76.6888	840.82	81.0632	840.82	70.6528	840.82	79.9257	840.82	75.3048	840.82	78.7657	840.82	79.255	840.82	78.5924	840.82	80.4003	840.82	79.6824
870.117	86.5591	870.117	86.5816	870.117	86.2026	870.117	86.4515	870.117	85.1632	870.117	86.078	870.117	83.5002	870.117	85.3059	870.117	82.0293	870.117	84.0901	870.117	81.2874	870.117	82.6457	870.117	80.4273	870.117	81.3146	870.117	78.6865	870.117	80.0741	870.117	76.2405	870.117	78.3802	870.117	74.2312	870.117	75.9587	870.117	74.7683	870.117	75.1325	870.117	76.5348	870.117	77.2424	870.117	76.7481	870.117	78.6077	870.117	74.7033	870.117	78.322	870.117	70.9322	870.117	77.7368	870.117	72.3789	870.117	78.4973	870.117	77.3854	870.117	80.1481	870.117	80.3511	870.117	81.1143
900.879	86.4751	900.879	86.4346	900.879	85.8629	900.879	85.8607	900.879	84.6798	900.879	85.0189	900.879	83.5222	900.879	84.3544	900.879	83.0554	900.879	84.1005	900.879	82.9171	900.879	83.8137	900.879	82.1431	900.879	82.7958	900.879	80.087	900.879	80.8325	900.879	77.2343	900.879	78.6752	900.879	76.0424	900.879	77.2733	900.879	76.5751	900.879	76.1676	900.879	77.4881	900.879	76.5335	900.879	79.0821	900.879	78.5941	900.879	79.0959	900.879	79.2264	900.879	74.6934	900.879	78.1943	900.879	72.2361	900.879	78.2071	900.879	78.8162	900.879	79.4259	900.879	80.6533	900.879	80.3583
933.105	86.4504	933.105	86.6821	933.105	86.284	933.105	87.0158	933.105	85.3848	933.105	86.7652	933.105	83.5843	933.105	85.5312	933.105	81.8527	933.105	83.6089	933.105	80.8292	933.105	82.0877	933.105	80.2856	933.105	81.5842	933.105	79.9414	933.105	81.3016	933.105	78.8683	933.105	80.311	933.105	75.8862	933.105	78.0596	933.105	73.1556	933.105	74.6789	933.105	76.4876	933.105	75.1466	933.105	78.72	933.105	78.4342	933.105	78.1793	933.105	79.3687	933.105	74.3456	933.105	78.9257	933.105	69.3544	933.105	78.9688	933.105	78.2099	933.105	80.3922	933.105	82.0292	933.105	82.2243
965.332	86.8233	965.332	87.4823	965.332	85.016	965.332	87.188	965.332	83.2871	965.332	86.4799	965.332	83.2752	965.332	85.6336	965.332	83.382	965.332	84.5026	965.332	82.4744	965.332	83.1314	965.332	81.2343	965.332	82.2307	965.332	80.2309	965.332	81.8015	965.332	78.5902	965.332	80.9869	965.332	75.5462	965.332	79.4573	965.332	71.8707	965.332	76.524	965.332	74.446	965.332	71.1114	965.332	79.1015	965.332	69.7108	965.332	80.3133	965.332	74.3862	965.332	76.7367	965.332	78.9062	965.332	64.8848	965.332	80.9363	965.332	74.2084	965.332	81.6064	965.332	79.2488	965.332	81.3458
1,000.49	85.6283	1,000.49	87.0518	1,000.49	85.2278	1,000.49	87.9263	1,000.49	84.751	1,000.49	87.3784	1,000.49	82.6246	1,000.49	85.3793	1,000.49	80.1906	1,000.49	82.3576	1,000.49	80.3267	1,000.49	79.5878	1,000.49	81.2548	1,000.49	78.3226	1,000.49	81.3606	1,000.49	77.7549	1,000.49	80.7554	1,000.49	76.1806	1,000.49	79.0005	1,000.49	72.2995	1,000.49	74.018	1,000.49	68.9074	1,000.49	73.9148	1,000.49	72.4754	1,000.49	78.0294	1,000.49	76.5605	1,000.49	78.2233	1,000.49	79.0704	1,000.49	73.7524	1,000.49	80.0746	1,000.49	66.8009	1,000.49	79.386	1,000.49	78.3852	1,000.49	78.7272	1,000.49	80.6594	1,000.49	79.7436
1,035.64	85.7544	1,035.64	86.1152	1,035.64	84.7061	1,035.64	86.4744	1,035.64	83.2617	1,035.64	86.8269	1,035.64	82.8095	1,035.64	86.3992	1,035.64	82.2892	1,035.64	84.6735	1,035.64	80.9565	1,035.64	82.2481	1,035.64	79.8036	1,035.64	80.8191	1,035.64	79.3999	1,035.64	80.1274	1,035.64	79.0845	1,035.64	78.9674	1,035.64	77.5861	1,035.64	77.9173	1,035.64	73.686	1,035.64	76.4517	1,035.64	73.6141	1,035.64	73.2789	1,035.64	79.4254	1,035.64	73.805	1,035.64	81.7791	1,035.64	76.8184	1,035.64	80.4913	1,035.64	78.4012	1,035.64	73.407	1,035.64	79.4641	1,035.64	72.7262	1,035.64	80.4086	1,035.64	79.3088	1,035.64	80.8224
1,072.27	84.9263	1,072.27	85.5509	1,072.27	84.6111	1,072.27	86.343	1,072.27	84.4664	1,072.27	86.7088	1,072.27	84.2849	1,072.27	86.2334	1,072.27	83.4464	1,072.27	84.9816	1,072.27	81.5485	1,072.27	83.2623	1,072.27	79.0631	1,072.27	81.3465	1,072.27	77.7914	1,072.27	80.3929	1,072.27	78.4212	1,072.27	81.0275	1,072.27	78.7813	1,072.27	80.793	1,072.27	76.9567	1,072.27	76.7844	1,072.27	71.7873	1,072.27	64.1347	1,072.27	72.5083	1,072.27	58.53	1,072.27	77.9332	1,072.27	67.2422	1,072.27	79.1192	1,072.27	74.908	1,072.27	75.4855	1,072.27	79.3289	1,072.27	40.8657	1,072.27	80.8145	1,072.27	75.9212	1,072.27	80.063
1,108.89	85.1765	1,108.89	85.3276	1,108.89	84.6656	1,108.89	85.4529	1,108.89	84.7413	1,108.89	85.6879	1,108.89	84.868	1,108.89	85.4271	1,108.89	83.4765	1,108.89	84.486	1,108.89	81.5588	1,108.89	83.1321	1,108.89	80.4333	1,108.89	81.7294	1,108.89	79.2694	1,108.89	80.5008	1,108.89	78.5804	1,108.89	79.3122	1,108.89	78.2356	1,108.89	78.099	1,108.89	75.8861	1,108.89	76.8451	1,108.89	72.3431	1,108.89	75.4062	1,108.89	76.6731	1,108.89	72.9584	1,108.89	80.6173	1,108.89	73.8724	1,108.89	80.8006	1,108.89	74.0622	1,108.89	75.697	1,108.89	74.5204	1,108.89	65.4172	1,108.89	76.3294	1,108.89	73.6326	1,108.89	76.5333
1,148.44	84.8448	1,148.44	85.7418	1,148.44	85.3374	1,148.44	86.4695	1,148.44	85.383	1,148.44	85.7027	1,148.44	84.1157	1,148.44	84.3015	1,148.44	82.9739	1,148.44	83.4008	1,148.44	82.5044	1,148.44	82.4596	1,148.44	81.3567	1,148.44	81.0876	1,148.44	79.4444	1,148.44	79.8945	1,148.44	78.0457	1,148.44	78.8513	1,148.44	78.1419	1,148.44	78.8094	1,148.44	76.5065	1,148.44	79.2233	1,148.44	69.3526	1,148.44	78.3609	1,148.44	69.0019	1,148.44	75.4059	1,148.44	77.0676	1,148.44	70.6411	1,148.44	79.9202	1,148.44	72.924	1,148.44	77.707	1,148.44	75.5622	1,148.44	62.27	1,148.44	75.999	1,148.44	73.8558	1,148.44	76.7016
1,189.45	85.2891	1,189.45	85.0502	1,189.45	85.9174	1,189.45	85.8159	1,189.45	85.2487	1,189.45	85.7468	1,189.45	83.7147	1,189.45	84.4387	1,189.45	83.1885	1,189.45	82.9635	1,189.45	82.8638	1,189.45	81.65	1,189.45	81.8004	1,189.45	79.9219	1,189.45	80.6974	1,189.45	79.3003	1,189.45	79.5056	1,189.45	78.7201	1,189.45	78.4275	1,189.45	76.9395	1,189.45	77.4959	1,189.45	76.6092	1,189.45	73.6509	1,189.45	76.1706	1,189.45	72.4907	1,189.45	74.2121	1,189.45	76.9284	1,189.45	72.9616	1,189.45	76.9857	1,189.45	73.628	1,189.45	74.3588	1,189.45	72.5955	1,189.45	74.9319	1,189.45	73.275	1,189.45	73.5955	1,189.45	73.2989
1,230.47	86.0722	1,230.47	85.8189	1,230.47	85.6629	1,230.47	85.229	1,230.47	85.1395	1,230.47	85.3457	1,230.47	84.4099	1,230.47	85.6141	1,230.47	83.0854	1,230.47	84.9554	1,230.47	81.9731	1,230.47	82.849	1,230.47	81.6049	1,230.47	79.4739	1,230.47	80.8539	1,230.47	76.6649	1,230.47	79.0922	1,230.47	75.1805	1,230.47	77.2106	1,230.47	73.8322	1,230.47	75.8365	1,230.47	73.0805	1,230.47	73.1183	1,230.47	74.7626	1,230.47	69.8113	1,230.47	78.1506	1,230.47	71.6237	1,230.47	77.6719	1,230.47	76.0584	1,230.47	74.2417	1,230.47	76.0229	1,230.47	72.8782	1,230.47	71.27	1,230.47	75.5528	1,230.47	74.2391	1,230.47	77.0143
1,274.41	86.784	1,274.41	85.6463	1,274.41	86.9518	1,274.41	85.1139	1,274.41	85.6723	1,274.41	85.0303	1,274.41	84.4572	1,274.41	84.4591	1,274.41	83.6585	1,274.41	83.7373	1,274.41	82.0477	1,274.41	82.5831	1,274.41	79.9309	1,274.41	79.3602	1,274.41	78.4801	1,274.41	76.1109	1,274.41	78.1654	1,274.41	78.3729	1,274.41	77.9649	1,274.41	78.3147	1,274.41	76.8089	1,274.41	73.4045	1,274.41	72.8297	1,274.41	65.4728	1,274.41	66.6788	1,274.41	69.2406	1,274.41	75.7418	1,274.41	74.2486	1,274.41	78.3839	1,274.41	75.9821	1,274.41	72.9866	1,274.41	75.6082	1,274.41	71.5466	1,274.41	76.2101	1,274.41	78.6619	1,274.41	78.3992
1,319.82	87.9448	1,319.82	87.7164	1,319.82	87.0546	1,319.82	86.1473	1,319.82	86.1862	1,319.82	84.5332	1,319.82	85.0744	1,319.82	84.0044	1,319.82	83.1932	1,319.82	84.0896	1,319.82	81.8906	1,319.82	83.9765	1,319.82	80.7623	1,319.82	81.0863	1,319.82	79.5576	1,319.82	72.162	1,319.82	77.7273	1,319.82	71.826	1,319.82	77.3454	1,319.82	74.6381	1,319.82	80.3082	1,319.82	74.5411	1,319.82	79.6426	1,319.82	76.1584	1,319.82	67.5245	1,319.82	73.4201	1,319.82	77.0145	1,319.82	73.0114	1,319.82	81.9537	1,319.82	72.1207	1,319.82	79.8725	1,319.82	76.0622	1,319.82	66.751	1,319.82	79.8343	1,319.82	75.9866	1,319.82	80.4627
1,366.7	88.3326	1,366.7	88.6164	1,366.7	87.9892	1,366.7	87.8976	1,366.7	87.6545	1,366.7	86.163	1,366.7	86.3821	1,366.7	85.2543	1,366.7	84.4999	1,366.7	85.4684	1,366.7	82.6803	1,366.7	84.8038	1,366.7	81.9237	1,366.7	82.4641	1,366.7	80.777	1,366.7	79.825	1,366.7	78.2258	1,366.7	77.0708	1,366.7	75.5479	1,366.7	77.8169	1,366.7	75.3847	1,366.7	78.1565	1,366.7	77.3655	1,366.7	75.3602	1,366.7	74.6245	1,366.7	64.0013	1,366.7	72.8232	1,366.7	68.4078	1,366.7	80.0799	1,366.7	74.0565	1,366.7	80.4423	1,366.7	72.0294	1,366.7	76.2796	1,366.7	75.7906	1,366.7	61.5683	1,366.7	76.1261
1,413.57	88.1583	1,413.57	88.1145	1,413.57	87.82	1,413.57	87.3555	1,413.57	87.7429	1,413.57	86.6507	1,413.57	86.7905	1,413.57	86.3577	1,413.57	84.9187	1,413.57	84.8164	1,413.57	82.5283	1,413.57	81.0974	1,413.57	80.2449	1,413.57	80.2746	1,413.57	79.5718	1,413.57	80.8603	1,413.57	79.8813	1,413.57	76.6204	1,413.57	77.6069	1,413.57	75.3514	1,413.57	74.1571	1,413.57	78.3894	1,413.57	75.9815	1,413.57	77.9328	1,413.57	75.3404	1,413.57	72.2035	1,413.57	67.1478	1,413.57	74.5002	1,413.57	78.2995	1,413.57	77.7641	1,413.57	80.9395	1,413.57	70.8814	1,413.57	75.1477	1,413.57	69.1981	1,413.57	70.7002	1,413.57	70.1128
1,463.38	87.638	1,463.38	87.2467	1,463.38	87.9848	1,463.38	86.8816	1,463.38	87.5382	1,463.38	86.156	1,463.38	86.5713	1,463.38	84.6345	1,463.38	85.5158	1,463.38	83.4083	1,463.38	83.0124	1,463.38	83.3005	1,463.38	79.8565	1,463.38	83.65	1,463.38	77.658	1,463.38	81.5228	1,463.38	77.368	1,463.38	77.7818	1,463.38	77.1189	1,463.38	77.3508	1,463.38	74.3885	1,463.38	79.3346	1,463.38	76.1893	1,463.38	77.048	1,463.38	72.231	1,463.38	69.6643	1,463.38	73.8913	1,463.38	68.1009	1,463.38	78.4454	1,463.38	77.6401	1,463.38	76.4591	1,463.38	75.2508	1,463.38	71.7099	1,463.38	68.6884	1,463.38	69.6864	1,463.38	71.7574
1,516.11	86.8521	1,516.11	86.4112	1,516.11	87.4259	1,516.11	86.2375	1,516.11	87.6316	1,516.11	86.2573	1,516.11	86.7583	1,516.11	84.6492	1,516.11	84.7478	1,516.11	81.6307	1,516.11	82.4837	1,516.11	80.0584	1,516.11	80.354	1,516.11	77.965	1,516.11	79.5457	1,516.11	74.6744	1,516.11	77.2523	1,516.11	71.418	1,516.11	71.1328	1,516.11	73.3972	1,516.11	70.9266	1,516.11	76.0468	1,516.11	73.517	1,516.11	78.261	1,516.11	75.2379	1,516.11	78.0171	1,516.11	72.5106	1,516.11	69.4602	1,516.11	75.2324	1,516.11	76.0435	1,516.11	80.3647	1,516.11	76.2354	1,516.11	75.6359	1,516.11	71.4417	1,516.11	67.1611	1,516.11	73.0591
1,568.85	85.9178	1,568.85	85.414	1,568.85	87.5047	1,568.85	85.9661	1,568.85	87.0745	1,568.85	85.5573	1,568.85	86.2782	1,568.85	83.8964	1,568.85	84.9555	1,568.85	82.4402	1,568.85	81.6806	1,568.85	82.7411	1,568.85	78.4291	1,568.85	80.9151	1,568.85	77.325	1,568.85	79.2118	1,568.85	75.5498	1,568.85	78.7914	1,568.85	74.5861	1,568.85	76.0564	1,568.85	70.0797	1,568.85	77.938	1,568.85	75.0214	1,568.85	77.9723	1,568.85	77.8836	1,568.85	73.0857	1,568.85	61.9323	1,568.85	69.1663	1,568.85	79.3479	1,568.85	71.8643	1,568.85	80.3852	1,568.85	73.6408	1,568.85	72.8122	1,568.85	66.7697	1,568.85	58.0656	1,568.85	67.3036
1,624.51	86.7816	1,624.51	86.6028	1,624.51	87.3021	1,624.51	85.5515	1,624.51	87.0501	1,624.51	85.1305	1,624.51	84.6998	1,624.51	84.6228	1,624.51	83.8977	1,624.51	82.8481	1,624.51	82.7327	1,624.51	80.5166	1,624.51	77.3043	1,624.51	77.0705	1,624.51	71.9408	1,624.51	76.1022	1,624.51	74.7036	1,624.51	72.2503	1,624.51	77.8046	1,624.51	69.6223	1,624.51	74.7406	1,624.51	70.5431	1,624.51	61.9552	1,624.51	73.1712	1,624.51	70.2402	1,624.51	78.8584	1,624.51	68.7516	1,624.51	75.239	1,624.51	75.0282	1,624.51	66.7154	1,624.51	77.7277	1,624.51	71.4421	1,624.51	75.3934	1,624.51	69.8888	1,624.51	60.8606	1,624.51	61.7725
1,681.64	88.7769	1,681.64	86.2127	1,681.64	88.8115	1,681.64	85.4765	1,681.64	86.8081	1,681.64	84.647	1,681.64	87.1243	1,681.64	81.7144	1,681.64	83.4444	1,681.64	83.2632	1,681.64	80.5691	1,681.64	85.7795	1,681.64	80.7942	1,681.64	83.476	1,681.64	78.8601	1,681.64	79.7789	1,681.64	77.7127	1,681.64	77.3102	1,681.64	72.9761	1,681.64	74.3876	1,681.64	73.588	1,681.64	80.1739	1,681.64	70.9921	1,681.64	77.7648	1,681.64	77.3462	1,681.64	70.2906	1,681.64	74.6054	1,681.64	71.3545	1,681.64	72.8886	1,681.64	72.4914	1,681.64	77.3223	1,681.64	71.5473	1,681.64	74.8878	1,681.64	62.8798	1,681.64	71.0343	1,681.64	60.1447
1,741.7	89.14	1,741.7	88.0253	1,741.7	88.404	1,741.7	85.5179	1,741.7	86.9536	1,741.7	82.7022	1,741.7	85.1158	1,741.7	80.9971	1,741.7	82.3549	1,741.7	83.1082	1,741.7	80.7777	1,741.7	82.5132	1,741.7	76.6335	1,741.7	80.3294	1,741.7	75.5363	1,741.7	77.4744	1,741.7	74.5898	1,741.7	70.5696	1,741.7	72.1176	1,741.7	74.9113	1,741.7	74.8659	1,741.7	72.4624	1,741.7	63.5207	1,741.7	70.2869	1,741.7	74.4242	1,741.7	70.6522	1,741.7	68.0178	1,741.7	72.6285	1,741.7	70.9746	1,741.7	76.0821	1,741.7	73.5809	1,741.7	75.2908	1,741.7	74.8286	1,741.7	71.0328	1,741.7	71.9739	1,741.7	64.9121
1,803.22	88.6715	1,803.22	87.7613	1,803.22	88.3852	1,803.22	85.0886	1,803.22	87.0338	1,803.22	82.4243	1,803.22	84.6024	1,803.22	82.2923	1,803.22	81.4704	1,803.22	81.7607	1,803.22	78.6342	1,803.22	80.953	1,803.22	74.6733	1,803.22	79.979	1,803.22	73.1768	1,803.22	77.0225	1,803.22	69.5046	1,803.22	75.3702	1,803.22	67.3238	1,803.22	69.7999	1,803.22	71.4204	1,803.22	74.4055	1,803.22	65.1811	1,803.22	75.6488	1,803.22	69.974	1,803.22	72.3706	1,803.22	72.1457	1,803.22	73.3334	1,803.22	69.5483	1,803.22	71.2137	1,803.22	75.6907	1,803.22	72.2856	1,803.22	75.0464	1,803.22	68.6657	1,803.22	63.3926	1,803.22	62.7681
1,866.21	88.0197	1,866.21	87.5083	1,866.21	87.4081	1,866.21	85.9068	1,866.21	86.1159	1,866.21	83.407	1,866.21	83.178	1,866.21	81.6889	1,866.21	80.5537	1,866.21	81.6554	1,866.21	78.0809	1,866.21	80.1561	1,866.21	75.7614	1,866.21	80.4346	1,866.21	73.5992	1,866.21	79.4243	1,866.21	73.8344	1,866.21	77.9384	1,866.21	70.8793	1,866.21	76.3976	1,866.21	72.3744	1,866.21	72.3664	1,866.21	66.9447	1,866.21	75.7194	1,866.21	66.4736	1,866.21	72.1712	1,866.21	72.6256	1,866.21	72.3907	1,866.21	67.7376	1,866.21	71.9521	1,866.21	74.3573	1,866.21	70.7549	1,866.21	74.974	1,866.21	64.4741	1,866.21	66.6022	1,866.21	54.9068
1,932.13	87.4376	1,932.13	86.5268	1,932.13	86.7143	1,932.13	85.5843	1,932.13	84.1434	1,932.13	83.7294	1,932.13	81.0835	1,932.13	79.5559	1,932.13	79.9109	1,932.13	78.9077	1,932.13	78.0998	1,932.13	80.9542	1,932.13	77.4338	1,932.13	78.7141	1,932.13	74.0586	1,932.13	77.5146	1,932.13	73.47	1,932.13	76.8674	1,932.13	73.9078	1,932.13	73.5486	1,932.13	69.8829	1,932.13	73.0268	1,932.13	67.7548	1,932.13	73.8345	1,932.13	61.7255	1,932.13	73.4056	1,932.13	69.8978	1,932.13	71.7287	1,932.13	67.186	1,932.13	71.4019	1,932.13	71.3253	1,932.13	68.7252	1,932.13	75.2908	1,932.13	63.1731	1,932.13	68.9227	1,932.13	48.2742
1,999.51	87.6539	1,999.51	86.595	1,999.51	87.238	1,999.51	85.815	1,999.51	84.0738	1,999.51	83.5403	1,999.51	80.1747	1,999.51	78.7986	1,999.51	77.6361	1,999.51	79.106	1,999.51	77.8176	1,999.51	80.6405	1,999.51	77.4079	1,999.51	79.6993	1,999.51	76.2439	1,999.51	78.5895	1,999.51	72.7014	1,999.51	76.7568	1,999.51	70.3283	1,999.51	76.3385	1,999.51	66.7444	1,999.51	71.6426	1,999.51	69.5943	1,999.51	73.815	1,999.51	65.131	1,999.51	74.666	1,999.51	65.869	1,999.51	72.5184	1,999.51	68.317	1,999.51	73.2049	1,999.51	71.2794	1,999.51	71.7497	1,999.51	74.6518	1,999.51	62.0931	1,999.51	69.3217	1,999.51	50.287
2,069.82	88.2267	2,069.82	87.4872	2,069.82	87.2191	2,069.82	84.5323	2,069.82	83.7364	2,069.82	80.5124	2,069.82	77.7612	2,069.82	78.0868	2,069.82	74.8066	2,069.82	78.0665	2,069.82	78.162	2,069.82	80.2841	2,069.82	78.3506	2,069.82	80.8794	2,069.82	76.7185	2,069.82	80.2139	2,069.82	73.6388	2,069.82	79.0528	2,069.82	68.6213	2,069.82	77.2363	2,069.82	63.3498	2,069.82	75.7253	2,069.82	65.8791	2,069.82	72.5924	2,069.82	63.1964	2,069.82	74.6708	2,069.82	61.82	2,069.82	73.0488	2,069.82	66.663	2,069.82	72.3644	2,069.82	70.6559	2,069.82	71.1459	2,069.82	73.0674	2,069.82	59.3358	2,069.82	68.2349	2,069.82	48.7255
2,143.07	88.362	2,143.07	88.1339	2,143.07	87.2035	2,143.07	84.3978	2,143.07	83.5998	2,143.07	78.5839	2,143.07	78.2785	2,143.07	77.0165	2,143.07	77.6102	2,143.07	77.1755	2,143.07	78.621	2,143.07	80.4725	2,143.07	78.2758	2,143.07	80.3007	2,143.07	75.9523	2,143.07	77.7406	2,143.07	75.9146	2,143.07	76.5117	2,143.07	73.5744	2,143.07	73.3963	2,143.07	70.8404	2,143.07	74.6488	2,143.07	64.7135	2,143.07	73.4168	2,143.07	59.6072	2,143.07	73.6756	2,143.07	38.9549	2,143.07	73.6925	2,143.07	64.7484	2,143.07	70.9085	2,143.07	69.1531	2,143.07	71.6529	2,143.07	74.138	2,143.07	61.448	2,143.07	68.9243	2,143.07	61.5144
2,219.24	87.7413	2,219.24	88.0702	2,219.24	85.916	2,219.24	85.9901	2,219.24	82.3992	2,219.24	80.2739	2,219.24	77.6279	2,219.24	74.6627	2,219.24	78.8687	2,219.24	78.5208	2,219.24	79.9943	2,219.24	80.2033	2,219.24	78.877	2,219.24	80.7049	2,219.24	76.474	2,219.24	81.5691	2,219.24	71.6406	2,219.24	78.3585	2,219.24	73.9577	2,219.24	76.0745	2,219.24	74.2954	2,219.24	73.7644	2,219.24	70.1788	2,219.24	73.8145	2,219.24	68.3573	2,219.24	73.4004	2,219.24	63.1144	2,219.24	74.1048	2,219.24	58.7788	2,219.24	70.7775	2,219.24	67.8586	2,219.24	70.6303	2,219.24	73.5819	2,219.24	60.5628	2,219.24	68.2275	2,219.24	64.644
2,296.88	86.9158	2,296.88	87.5197	2,296.88	84.374	2,296.88	86.5555	2,296.88	79.3877	2,296.88	81.739	2,296.88	73.6889	2,296.88	66.387	2,296.88	79.3988	2,296.88	78.4072	2,296.88	80.5501	2,296.88	80.7474	2,296.88	79.41	2,296.88	80.0221	2,296.88	76.345	2,296.88	78.9228	2,296.88	71.0614	2,296.88	78.9791	2,296.88	71.6026	2,296.88	76.361	2,296.88	73.57	2,296.88	75.1526	2,296.88	73.3805	2,296.88	74.9108	2,296.88	70.5796	2,296.88	73.0261	2,296.88	67.3938	2,296.88	74.1642	2,296.88	54.8809	2,296.88	72.3093	2,296.88	64.1328	2,296.88	70.8546	2,296.88	71.4139	2,296.88	59.7613	2,296.88	68.1857	2,296.88	67.826
2,378.91	87.0628	2,378.91	87.3055	2,378.91	83.3921	2,378.91	85.7878	2,378.91	74.2104	2,378.91	80.6441	2,378.91	71.442	2,378.91	63.7703	2,378.91	80.002	2,378.91	77.9659	2,378.91	81.4089	2,378.91	80.8127	2,378.91	79.8424	2,378.91	82.0497	2,378.91	77.5878	2,378.91	80.6495	2,378.91	75.1403	2,378.91	77.5732	2,378.91	73.8799	2,378.91	77.4484	2,378.91	71.8183	2,378.91	74.1179	2,378.91	70.4168	2,378.91	74.7512	2,378.91	70.5107	2,378.91	73.7948	2,378.91	67.6954	2,378.91	73.8098	2,378.91	59.034	2,378.91	73.0514	2,378.91	55.0666	2,378.91	69.6382	2,378.91	71.9039	2,378.91	64.0243	2,378.91	70.3698	2,378.91	65.9887
2,462.4	88.2221	2,462.4	88.8136	2,462.4	84.0989	2,462.4	85.6886	2,462.4	71.5893	2,462.4	80.0641	2,462.4	75.0442	2,462.4	64.9111	2,462.4	80.7154	2,462.4	78.8973	2,462.4	81.9853	2,462.4	81.3929	2,462.4	80.9248	2,462.4	82.5984	2,462.4	77.1456	2,462.4	79.5504	2,462.4	73.5256	2,462.4	78.4717	2,462.4	73.2222	2,462.4	75.9811	2,462.4	71.293	2,462.4	75.1172	2,462.4	69.3079	2,462.4	72.4546	2,462.4	66.1202	2,462.4	73.7744	2,462.4	68.4248	2,462.4	72.2771	2,462.4	56.9343	2,462.4	72.1541	2,462.4	52.2375	2,462.4	68.8911	2,462.4	70.7832	2,462.4	62.8277	2,462.4	68.7108	2,462.4	64.1693
2,548.83	87.962	2,548.83	89.1962	2,548.83	84.2217	2,548.83	86.6641	2,548.83	71.0213	2,548.83	80.8482	2,548.83	77.5674	2,548.83	60.6681	2,548.83	81.7266	2,548.83	78.1121	2,548.83	81.322	2,548.83	81.7109	2,548.83	79.9284	2,548.83	80.4028	2,548.83	74.3299	2,548.83	79.5183	2,548.83	70.3517	2,548.83	78.3735	2,548.83	74.8326	2,548.83	74.3027	2,548.83	72.0712	2,548.83	72.1474	2,548.83	69.4679	2,548.83	71.9353	2,548.83	66.3729	2,548.83	73.3414	2,548.83	66.9564	2,548.83	71.1163	2,548.83	62.3746	2,548.83	71.2011	2,548.83	55.2625	2,548.83	69.5525	2,548.83	70.8342	2,548.83	62.6174	2,548.83	70.4895	2,548.83	67.5346
2,639.65	86.9167	2,639.65	88.5668	2,639.65	82.4226	2,639.65	87.5683	2,639.65	71.5388	2,639.65	81.8794	2,639.65	77.6511	2,639.65	70.8422	2,639.65	82.6456	2,639.65	78.1359	2,639.65	81.725	2,639.65	81.686	2,639.65	80.6705	2,639.65	79.7073	2,639.65	75.1727	2,639.65	78.2533	2,639.65	70.3499	2,639.65	76.2331	2,639.65	72.727	2,639.65	75.431	2,639.65	69.4792	2,639.65	73.4132	2,639.65	60.1787	2,639.65	72.7149	2,639.65	66.6848	2,639.65	72.5804	2,639.65	67.3752	2,639.65	72.2518	2,639.65	54.0785	2,639.65	69.8148	2,639.65	58.2605	2,639.65	66.6835	2,639.65	71.1819	2,639.65	63.5302	2,639.65	71.4636	2,639.65	67.4646
2,731.93	85.997	2,731.93	87.2323	2,731.93	80.1357	2,731.93	86.6618	2,731.93	72.2974	2,731.93	80.7141	2,731.93	80.7632	2,731.93	75.48	2,731.93	83.3153	2,731.93	79.4513	2,731.93	82.327	2,731.93	80.706	2,731.93	80.395	2,731.93	81.1531	2,731.93	75.2693	2,731.93	78.6613	2,731.93	70.2459	2,731.93	75.7085	2,731.93	69.518	2,731.93	74.4191	2,731.93	63.813	2,731.93	72.8907	2,731.93	53.4589	2,731.93	70.2112	2,731.93	59.6545	2,731.93	72.538	2,731.93	68.7909	2,731.93	71.2985	2,731.93	52.0032	2,731.93	68.1575	2,731.93	58.4028	2,731.93	63.9817	2,731.93	70.4535	2,731.93	57.8377	2,731.93	69.984	2,731.93	69.0223
2,828.61	85.7264	2,828.61	87.3074	2,828.61	79.5875	2,828.61	85.1312	2,828.61	73.8629	2,828.61	79.9808	2,828.61	81.7521	2,828.61	75.8805	2,828.61	83.8122	2,828.61	80.6105	2,828.61	82.8126	2,828.61	80.4374	2,828.61	79.6807	2,828.61	80.3489	2,828.61	76.4122	2,828.61	78.4238	2,828.61	72.7355	2,828.61	75.5226	2,828.61	70.4574	2,828.61	72.5758	2,828.61	64.3792	2,828.61	72.1623	2,828.61	62.436	2,828.61	70.8697	2,828.61	66.0243	2,828.61	71.3829	2,828.61	66.5835	2,828.61	71.9739	2,828.61	57.2859	2,828.61	69.7165	2,828.61	62.5408	2,828.61	63.7174	2,828.61	68.7248	2,828.61	51.2713	2,828.61	70.2187	2,828.61	68.8154
2,928.22	86.3335	2,928.22	88.5197	2,928.22	79.4728	2,928.22	86.0259	2,928.22	75.6667	2,928.22	79.5079	2,928.22	81.8617	2,928.22	77.3073	2,928.22	83.9864	2,928.22	80.789	2,928.22	83.6983	2,928.22	81.9134	2,928.22	79.8032	2,928.22	80.3952	2,928.22	76.7447	2,928.22	77.7817	2,928.22	71.0247	2,928.22	75.0265	2,928.22	65.9019	2,928.22	75.3486	2,928.22	72.2648	2,928.22	74.2351	2,928.22	67.7982	2,928.22	72.1971	2,928.22	64.1051	2,928.22	72.2158	2,928.22	66.6005	2,928.22	72.0913	2,928.22	53.3752	2,928.22	71.7518	2,928.22	55.7964	2,928.22	68.3824	2,928.22	68.4069	2,928.22	57.788	2,928.22	69.5431	2,928.22	67.5981
3,030.76	86.6047	3,030.76	88.3589	3,030.76	79.118	3,030.76	86.4666	3,030.76	77.3173	3,030.76	80.7114	3,030.76	82.4322	3,030.76	79.0176	3,030.76	84.579	3,030.76	81.5755	3,030.76	84.9642	3,030.76	81.9641	3,030.76	80.5753	3,030.76	79.7504	3,030.76	78.1729	3,030.76	79.2603	3,030.76	67.756	3,030.76	77.4043	3,030.76	64.5116	3,030.76	75.8212	3,030.76	75.0972	3,030.76	73.3222	3,030.76	65.2849	3,030.76	72.082	3,030.76	58.5173	3,030.76	72.0365	3,030.76	67.1929	3,030.76	72.5873	3,030.76	60.9027	3,030.76	71.0308	3,030.76	33.7942	3,030.76	67.3737	3,030.76	67.9165	3,030.76	61.4072	3,030.76	69.3744	3,030.76	66.8231
3,137.7	86.2597	3,137.7	87.9513	3,137.7	80.2041	3,137.7	86.8809	3,137.7	79.0681	3,137.7	82.0597	3,137.7	83.0512	3,137.7	81.2298	3,137.7	84.3015	3,137.7	82.0324	3,137.7	84.6558	3,137.7	81.8391	3,137.7	80.2038	3,137.7	81.043	3,137.7	78.2363	3,137.7	79.7297	3,137.7	67.6342	3,137.7	76.1407	3,137.7	71.2221	3,137.7	75.1184	3,137.7	75.5611	3,137.7	73.8682	3,137.7	64.4167	3,137.7	73.4296	3,137.7	51.2604	3,137.7	71.5464	3,137.7	64.7457	3,137.7	72.3176	3,137.7	63.6742	3,137.7	71.8895	3,137.7	39.2179	3,137.7	67.5314	3,137.7	68.4626	3,137.7	62.0703	3,137.7	70.4894	3,137.7	66.3321
3,249.02	85.1004	3,249.02	87.098	3,249.02	80.325	3,249.02	86.1545	3,249.02	79.7558	3,249.02	82.5731	3,249.02	83.307	3,249.02	81.5157	3,249.02	83.4084	3,249.02	82.4663	3,249.02	82.6412	3,249.02	82.6021	3,249.02	80.0182	3,249.02	81.9105	3,249.02	78.8354	3,249.02	79.2276	3,249.02	73.7167	3,249.02	77.5593	3,249.02	74.9152	3,249.02	75.3044	3,249.02	71.9419	3,249.02	73.4658	3,249.02	58.9929	3,249.02	72.5843	3,249.02	59.9218	3,249.02	71.5913	3,249.02	66.1214	3,249.02	72.7527	3,249.02	66.638	3,249.02	70.9766	3,249.02	57.5325	3,249.02	66.4946	3,249.02	67.9057	3,249.02	61.4446	3,249.02	70.3485	3,249.02	66.8719
3,363.28	84.562	3,363.28	87.0116	3,363.28	80.5415	3,363.28	85.1286	3,363.28	80.2301	3,363.28	82.0649	3,363.28	82.8511	3,363.28	81.8606	3,363.28	83.0764	3,363.28	82.6852	3,363.28	81.639	3,363.28	82.9358	3,363.28	80.8907	3,363.28	81.5907	3,363.28	78.944	3,363.28	80.2875	3,363.28	75.2486	3,363.28	76.7687	3,363.28	76.2913	3,363.28	73.9565	3,363.28	69.2756	3,363.28	72.4877	3,363.28	57.0558	3,363.28	70.891	3,363.28	65.6292	3,363.28	71.1621	3,363.28	66.9632	3,363.28	72.6063	3,363.28	65.0466	3,363.28	69.6833	3,363.28	58.2026	3,363.28	67.3474	3,363.28	67.1328	3,363.28	58.6901	3,363.28	70.4906	3,363.28	67.2272
3,481.93	84.4248	3,481.93	87.4101	3,481.93	81.679	3,481.93	86.3109	3,481.93	81.9848	3,481.93	82.7071	3,481.93	82.9332	3,481.93	81.4654	3,481.93	82.8547	3,481.93	83.9491	3,481.93	80.4024	3,481.93	83.6689	3,481.93	80.6367	3,481.93	82.0854	3,481.93	77.2402	3,481.93	78.7166	3,481.93	76.7571	3,481.93	76.0509	3,481.93	75.1037	3,481.93	73.8228	3,481.93	62.3103	3,481.93	73.2791	3,481.93	52.8252	3,481.93	70.4597	3,481.93	66.7136	3,481.93	70.8067	3,481.93	63.0626	3,481.93	70.1139	3,481.93	66.8269	3,481.93	69.4206	3,481.93	58.4664	3,481.93	67.3207	3,481.93	67.8429	3,481.93	61.8371	3,481.93	69.4242	3,481.93	65.5354
3,604.98	84.4231	3,604.98	86.9892	3,604.98	81.7339	3,604.98	86.5993	3,604.98	83.445	3,604.98	83.7883	3,604.98	83.5541	3,604.98	82.6732	3,604.98	82.643	3,604.98	84.2784	3,604.98	80.7998	3,604.98	83.7914	3,604.98	81.1292	3,604.98	81.0167	3,604.98	76.2462	3,604.98	78.257	3,604.98	75.4865	3,604.98	76.6117	3,604.98	70.643	3,604.98	71.9386	3,604.98	66.6089	3,604.98	71.3354	3,604.98	45.7878	3,604.98	69.8223	3,604.98	63.1938	3,604.98	68.9818	3,604.98	54.7936	3,604.98	69.878	3,604.98	67.3663	3,604.98	68.4072	3,604.98	59.6178	3,604.98	65.2892	3,604.98	65.1901	3,604.98	62.3118	3,604.98	69.015	3,604.98	63.6291
3,732.42	84.5676	3,732.42	87.1117	3,732.42	82.5814	3,732.42	86.3309	3,732.42	83.6507	3,732.42	83.2258	3,732.42	82.9449	3,732.42	83.4158	3,732.42	82.1887	3,732.42	83.9705	3,732.42	79.9741	3,732.42	82.7789	3,732.42	80.5959	3,732.42	80.5055	3,732.42	74.424	3,732.42	77.4353	3,732.42	72.7851	3,732.42	74.1628	3,732.42	67.6773	3,732.42	72.2145	3,732.42	68.1903	3,732.42	70.4609	3,732.42	54.236	3,732.42	70.6024	3,732.42	58.7103	3,732.42	68.3483	3,732.42	63.0063	3,732.42	68.6788	3,732.42	64.9898	3,732.42	66.7766	3,732.42	56.0383	3,732.42	61.7243	3,732.42	63.6575	3,732.42	60.8977	3,732.42	68.7078	3,732.42	64.0017
3,864.26	83.6547	3,864.26	86.3738	3,864.26	82.6131	3,864.26	86.1268	3,864.26	85.0814	3,864.26	82.2797	3,864.26	82.7729	3,864.26	83.3303	3,864.26	80.4107	3,864.26	84.0373	3,864.26	80.9813	3,864.26	82.0337	3,864.26	79.7945	3,864.26	80.172	3,864.26	76.1529	3,864.26	75.0603	3,864.26	70.1791	3,864.26	74.6085	3,864.26	66.7587	3,864.26	70.7956	3,864.26	57.1656	3,864.26	70.3437	3,864.26	59.0157	3,864.26	69.6751	3,864.26	68.8177	3,864.26	67.801	3,864.26	63.7674	3,864.26	67.7411	3,864.26	65.7548	3,864.26	67.04	3,864.26	45.247	3,864.26	61.4598	3,864.26	64.8698	3,864.26	57.849	3,864.26	68.4503	3,864.26	64.3556
4,000.49	82.6277	4,000.49	85.1756	4,000.49	80.6615	4,000.49	85.6684	4,000.49	84.3521	4,000.49	82.2874	4,000.49	83.3269	4,000.49	82.8881	4,000.49	78.6017	4,000.49	83.3575	4,000.49	81.8164	4,000.49	81.4305	4,000.49	78.7763	4,000.49	78.6727	4,000.49	75.054	4,000.49	76.4512	4,000.49	70.8998	4,000.49	73.7012	4,000.49	72.2775	4,000.49	70.8685	4,000.49	65.7827	4,000.49	69.3382	4,000.49	47.886	4,000.49	69.3783	4,000.49	66.7044	4,000.49	66.4846	4,000.49	62.5786	4,000.49	66.41	4,000.49	67.6938	4,000.49	65.5449	4,000.49	58.2956	4,000.49	60.9113	4,000.49	61.5934	4,000.49	50.0262	4,000.49	66.5745	4,000.49	59.7289
4,141.11	82.5405	4,141.11	86.2092	4,141.11	81.9442	4,141.11	85.2404	4,141.11	82.8505	4,141.11	82.8682	4,141.11	82.8324	4,141.11	83.0873	4,141.11	78.5867	4,141.11	83.3464	4,141.11	80.9324	4,141.11	80.4245	4,141.11	77.6904	4,141.11	78.0229	4,141.11	71.0435	4,141.11	73.4522	4,141.11	70.2746	4,141.11	70.408	4,141.11	70.0812	4,141.11	70.1281	4,141.11	66.2288	4,141.11	68.7302	4,141.11	66.0375	4,141.11	69.3172	4,141.11	64.4906	4,141.11	66.7679	4,141.11	61.6616	4,141.11	65.7263	4,141.11	66.5937	4,141.11	64.4485	4,141.11	58.1921	4,141.11	57.4745	4,141.11	57.7415	4,141.11	57.1659	4,141.11	66.5112	4,141.11	59.2859
4,287.6	82.0735	4,287.6	86.1796	4,287.6	82.1971	4,287.6	85.1265	4,287.6	83.1832	4,287.6	81.1756	4,287.6	81.3306	4,287.6	82.9035	4,287.6	78.2784	4,287.6	82.0951	4,287.6	80.0614	4,287.6	79.6282	4,287.6	75.3319	4,287.6	76.4836	4,287.6	70.3749	4,287.6	74.6656	4,287.6	69.4283	4,287.6	72.0738	4,287.6	69.9182	4,287.6	70.0609	4,287.6	65.1606	4,287.6	67.8545	4,287.6	68.5693	4,287.6	69.3056	4,287.6	62.671	4,287.6	66.7522	4,287.6	63.5907	4,287.6	64.9334	4,287.6	63.9441	4,287.6	63.5578	4,287.6	59.6141	4,287.6	61.3816	4,287.6	59.3483	4,287.6	55.1938	4,287.6	66.4522	4,287.6	61.3672
4,438.48	82.3461	4,438.48	85.1549	4,438.48	82.9188	4,438.48	84.4223	4,438.48	84.1367	4,438.48	82.9842	4,438.48	81.4705	4,438.48	82.4877	4,438.48	76.978	4,438.48	81.3938	4,438.48	79.083	4,438.48	77.6554	4,438.48	71.6096	4,438.48	76.2613	4,438.48	73.5282	4,438.48	71.8643	4,438.48	73.9626	4,438.48	71.1243	4,438.48	71.4599	4,438.48	67.8889	4,438.48	63.1198	4,438.48	66.2886	4,438.48	63.9215	4,438.48	66.8222	4,438.48	62.4567	4,438.48	65.0444	4,438.48	63.7331	4,438.48	64.7537	4,438.48	62.153	4,438.48	60.3946	4,438.48	60.3615	4,438.48	57.6779	4,438.48	56.846	4,438.48	49.6728	4,438.48	66.5371	4,438.48	60.5713
4,595.21	82.3394	4,595.21	85.7294	4,595.21	82.5153	4,595.21	83.9047	4,595.21	84.4239	4,595.21	80.8211	4,595.21	81.827	4,595.21	81.3757	4,595.21	76.4865	4,595.21	80.3592	4,595.21	78.4456	4,595.21	77.3321	4,595.21	76.0759	4,595.21	73.5426	4,595.21	77.5374	4,595.21	72.6387	4,595.21	74.9435	4,595.21	64.5553	4,595.21	69.108	4,595.21	66.8149	4,595.21	62.3473	4,595.21	64.5216	4,595.21	61.032	4,595.21	66.06	4,595.21	57.7384	4,595.21	65.1745	4,595.21	57.6045	4,595.21	64.543	4,595.21	62.0299	4,595.21	62.1903	4,595.21	58.3942	4,595.21	60.9657	4,595.21	59.3618	4,595.21	52.8516	4,595.21	65.2659	4,595.21	59.5605
4,756.35	82.2603	4,756.35	86.0922	4,756.35	81.8332	4,756.35	84.3968	4,756.35	83.3927	4,756.35	81.5469	4,756.35	81.634	4,756.35	82.1837	4,756.35	75.7066	4,756.35	79.7153	4,756.35	76.9764	4,756.35	75.9883	4,756.35	79.3812	4,756.35	73.7224	4,756.35	76.3368	4,756.35	67.4594	4,756.35	72.6763	4,756.35	70.6468	4,756.35	66.5879	4,756.35	66.3466	4,756.35	64.1577	4,756.35	67.7037	4,756.35	62.4006	4,756.35	66.194	4,756.35	54.9873	4,756.35	66.3354	4,756.35	51.3446	4,756.35	63.9345	4,756.35	62.3604	4,756.35	63.2627	4,756.35	57.1673	4,756.35	60.383	4,756.35	61.8261	4,756.35	48.8437	4,756.35	62.7161	4,756.35	58.1826
4,924.8	83.3171	4,924.8	85.579	4,924.8	82.631	4,924.8	82.2843	4,924.8	83.0264	4,924.8	82.4544	4,924.8	81.0869	4,924.8	81.7683	4,924.8	76.4938	4,924.8	80.1462	4,924.8	72.194	4,924.8	74.7318	4,924.8	80.3638	4,924.8	72.4664	4,924.8	75.1315	4,924.8	73.8022	4,924.8	70.4123	4,924.8	67.8686	4,924.8	67.179	4,924.8	68.6385	4,924.8	63.5165	4,924.8	66.8736	4,924.8	58.9822	4,924.8	66.0589	4,924.8	50.2853	4,924.8	64.8642	4,924.8	62.4572	4,924.8	65.702	4,924.8	65.1513	4,924.8	65.8041	4,924.8	54.0985	4,924.8	62.457	4,924.8	60.0115	4,924.8	52.7458	4,924.8	62.9719	4,924.8	58.9389
5,097.66	84.0143	5,097.66	84.8727	5,097.66	83.418	5,097.66	84.2057	5,097.66	83.6843	5,097.66	82.5524	5,097.66	80.7761	5,097.66	82.1818	5,097.66	74.9758	5,097.66	79.2508	5,097.66	73.6039	5,097.66	76.904	5,097.66	79.0852	5,097.66	75.3133	5,097.66	72.6465	5,097.66	72.0533	5,097.66	65.8421	5,097.66	71.2192	5,097.66	68.07	5,097.66	67.8118	5,097.66	66.3333	5,097.66	67.0761	5,097.66	61.7862	5,097.66	66.4955	5,097.66	55.827	5,097.66	67.5989	5,097.66	60.6898	5,097.66	63.787	5,097.66	61.814	5,097.66	63.7306	5,097.66	58.8852	5,097.66	63.2459	5,097.66	60.7834	5,097.66	54.4276	5,097.66	64.0721	5,097.66	58.2391
5,277.83	83.5933	5,277.83	85.3044	5,277.83	83.3747	5,277.83	84.2829	5,277.83	83.781	5,277.83	83.0739	5,277.83	80.2834	5,277.83	82.1739	5,277.83	73.1438	5,277.83	79.7894	5,277.83	76.101	5,277.83	75.97	5,277.83	78.4074	5,277.83	74.5067	5,277.83	72.1952	5,277.83	73.8567	5,277.83	66.7423	5,277.83	70.1434	5,277.83	63.5492	5,277.83	67.8926	5,277.83	63.6414	5,277.83	67.0075	5,277.83	67.4211	5,277.83	67.3168	5,277.83	58.7489	5,277.83	66.0488	5,277.83	57.3343	5,277.83	64.3007	5,277.83	61.1249	5,277.83	65.834	5,277.83	57.2405	5,277.83	61.5723	5,277.83	63.2675	5,277.83	54.8985	5,277.83	61.5582	5,277.83	55.3053
5,463.87	84.2101	5,463.87	86.0796	5,463.87	83.6416	5,463.87	84.6967	5,463.87	84.1538	5,463.87	82.5502	5,463.87	79.4628	5,463.87	82.9476	5,463.87	73.7802	5,463.87	79.7377	5,463.87	78.1369	5,463.87	76.1263	5,463.87	76.5585	5,463.87	75.7949	5,463.87	73.005	5,463.87	73.1976	5,463.87	68.4284	5,463.87	69.4003	5,463.87	64.6843	5,463.87	67.2886	5,463.87	54.1788	5,463.87	67.0878	5,463.87	61.4451	5,463.87	63.8582	5,463.87	57.747	5,463.87	67.01	5,463.87	61.9186	5,463.87	63.2102	5,463.87	59.2252	5,463.87	63.5917	5,463.87	57.1649	5,463.87	62.918	5,463.87	58.7402	5,463.87	55.8657	5,463.87	61.5205	5,463.87	55.9606
5,657.23	85.0823	5,657.23	86.1933	5,657.23	84.2694	5,657.23	84.4167	5,657.23	83.6874	5,657.23	83.272	5,657.23	80.9043	5,657.23	82.6282	5,657.23	76.9327	5,657.23	78.5311	5,657.23	77.9706	5,657.23	76.6079	5,657.23	75.4499	5,657.23	74.55	5,657.23	75.3238	5,657.23	72.5072	5,657.23	69.0911	5,657.23	68.271	5,657.23	63.4433	5,657.23	66.6199	5,657.23	56.5607	5,657.23	65.3294	5,657.23	60.1193	5,657.23	64.9136	5,657.23	41.8054	5,657.23	64.483	5,657.23	59.914	5,657.23	61.1388	5,657.23	61.5581	5,657.23	65.1747	5,657.23	53.2004	5,657.23	62.6479	5,657.23	58.061	5,657.23	57.1051	5,657.23	59.354	5,657.23	51.5609
5,856.45	84.4234	5,856.45	85.4903	5,856.45	83.3029	5,856.45	83.8986	5,856.45	83.5614	5,856.45	82.6884	5,856.45	81.6864	5,856.45	82.0609	5,856.45	77.8997	5,856.45	78.349	5,856.45	76.632	5,856.45	77.4547	5,856.45	75.7275	5,856.45	74.5199	5,856.45	75.3255	5,856.45	72.179	5,856.45	69.4228	5,856.45	68.332	5,856.45	65.665	5,856.45	65.8868	5,856.45	58.319	5,856.45	65.4828	5,856.45	64.4008	5,856.45	65.6576	5,856.45	52.1926	5,856.45	64.1302	5,856.45	60.2118	5,856.45	62.5201	5,856.45	57.4273	5,856.45	62.5415	5,856.45	58.0409	5,856.45	61.6632	5,856.45	58.5518	5,856.45	58.5498	5,856.45	59.6258	5,856.45	53.7046
6,062.99	85.6512	6,062.99	85.6627	6,062.99	83.7243	6,062.99	84.8139	6,062.99	83.4798	6,062.99	83.9699	6,062.99	81.8874	6,062.99	81.5789	6,062.99	77.116	6,062.99	79.5509	6,062.99	75.2032	6,062.99	77.5306	6,062.99	76.1725	6,062.99	74.7947	6,062.99	73.9953	6,062.99	72.2983	6,062.99	72.1869	6,062.99	69.218	6,062.99	64.7053	6,062.99	66.7	6,062.99	57.4576	6,062.99	65.2683	6,062.99	59.9032	6,062.99	64.7233	6,062.99	49.5207	6,062.99	66.1563	6,062.99	61.6798	6,062.99	63.4898	6,062.99	58.0234	6,062.99	63.7842	6,062.99	57.195	6,062.99	63.6677	6,062.99	60.2458	6,062.99	61.0149	6,062.99	58.8693	6,062.99	51.3589
6,276.86	85.337	6,276.86	86.2615	6,276.86	84.6723	6,276.86	84.8674	6,276.86	81.6915	6,276.86	84.5176	6,276.86	80.0513	6,276.86	82.603	6,276.86	76.8474	6,276.86	80.3214	6,276.86	72.4144	6,276.86	78.7383	6,276.86	75.6542	6,276.86	75.2774	6,276.86	75.5607	6,276.86	73.0867	6,276.86	71.6968	6,276.86	69.3447	6,276.86	63.906	6,276.86	65.9725	6,276.86	61.5357	6,276.86	66.1066	6,276.86	64.3527	6,276.86	65.5119	6,276.86	58.0214	6,276.86	67.5276	6,276.86	55.5192	6,276.86	63.222	6,276.86	54.0789	6,276.86	65.2281	6,276.86	52.0547	6,276.86	63.5541	6,276.86	55.7373	6,276.86	59.7327	6,276.86	58.6825	6,276.86	56.2918
6,498.05	85.7219	6,498.05	86.7124	6,498.05	84.5291	6,498.05	85.7011	6,498.05	82.0096	6,498.05	84.9484	6,498.05	80.1578	6,498.05	83.264	6,498.05	76.5538	6,498.05	81.5232	6,498.05	73.8659	6,498.05	79.5609	6,498.05	75.7587	6,498.05	75.657	6,498.05	75.1515	6,498.05	73.2825	6,498.05	67.9498	6,498.05	69.9647	6,498.05	64.1348	6,498.05	67.3849	6,498.05	67.2738	6,498.05	65.3696	6,498.05	64.9786	6,498.05	66.651	6,498.05	49.1447	6,498.05	66.7975	6,498.05	56.4037	6,498.05	65.432	6,498.05	56.9462	6,498.05	66.5751	6,498.05	49.2882	6,498.05	64.1301	6,498.05	54.386	6,498.05	63.3594	6,498.05	52.8147	6,498.05	55.5219
6,726.56	86.7373	6,726.56	86.9271	6,726.56	85.5019	6,726.56	86.4448	6,726.56	83.1308	6,726.56	85.4799	6,726.56	81.1474	6,726.56	84.0122	6,726.56	77.0777	6,726.56	82.8456	6,726.56	73.8839	6,726.56	80.1035	6,726.56	76.201	6,726.56	76.0225	6,726.56	74.7577	6,726.56	74.1729	6,726.56	63.4754	6,726.56	71.6955	6,726.56	57.3156	6,726.56	68.4436	6,726.56	67.9065	6,726.56	68.3308	6,726.56	68.9508	6,726.56	67.4625	6,726.56	57.4915	6,726.56	67.202	6,726.56	55.9446	6,726.56	66.5143	6,726.56	57.6993	6,726.56	67.6309	6,726.56	55.0619	6,726.56	66.0493	6,726.56	51.6139	6,726.56	65.0533	6,726.56	58.1438	6,726.56	55.0929
6,963.87	86.119	6,963.87	86.825	6,963.87	85.115	6,963.87	86.7402	6,963.87	82.8382	6,963.87	85.2948	6,963.87	80.6035	6,963.87	84.8705	6,963.87	77.4667	6,963.87	83.0924	6,963.87	74.0204	6,963.87	80.4081	6,963.87	75.111	6,963.87	76.9583	6,963.87	71.28	6,963.87	75.3955	6,963.87	65.2182	6,963.87	72.5164	6,963.87	63.9532	6,963.87	68.9554	6,963.87	63.374	6,963.87	66.4545	6,963.87	67.6261	6,963.87	68.5037	6,963.87	60.3522	6,963.87	67.1917	6,963.87	57.0901	6,963.87	65.4935	6,963.87	58.9231	6,963.87	67.1268	6,963.87	56.8697	6,963.87	66.0679	6,963.87	50.992	6,963.87	62.6911	6,963.87	57.6772	6,963.87	51.9537
7,209.96	87.3359	7,209.96	87.9604	7,209.96	84.8444	7,209.96	87.7275	7,209.96	81.9261	7,209.96	86.0978	7,209.96	81.0169	7,209.96	85.3224	7,209.96	78.6491	7,209.96	83.7611	7,209.96	75.4258	7,209.96	80.8566	7,209.96	74.4131	7,209.96	76.7371	7,209.96	67.3757	7,209.96	75.3494	7,209.96	68.158	7,209.96	71.4882	7,209.96	62.9841	7,209.96	67.514	7,209.96	62.5756	7,209.96	66.8406	7,209.96	67.2503	7,209.96	66.4825	7,209.96	61.3237	7,209.96	67.7958	7,209.96	56.4146	7,209.96	64.7967	7,209.96	57.604	7,209.96	66.7402	7,209.96	54.8073	7,209.96	65.218	7,209.96	54.8616	7,209.96	63.7122	7,209.96	56.2864	7,209.96	54.0162
7,464.84	87.5766	7,464.84	88.4178	7,464.84	86.1784	7,464.84	88.0651	7,464.84	83.1037	7,464.84	87.1311	7,464.84	79.9952	7,464.84	85.7781	7,464.84	79.4113	7,464.84	83.8342	7,464.84	75.0083	7,464.84	81.0335	7,464.84	71.0565	7,464.84	78.0194	7,464.84	72.989	7,464.84	74.5037	7,464.84	66.7787	7,464.84	71.7759	7,464.84	62.9017	7,464.84	67.622	7,464.84	61.8635	7,464.84	65.9273	7,464.84	63.7609	7,464.84	67.5248	7,464.84	60.178	7,464.84	67.3431	7,464.84	57.9813	7,464.84	65.0789	7,464.84	53.1335	7,464.84	64.94	7,464.84	55.9303	7,464.84	66.2299	7,464.84	53.1211	7,464.84	63.5715	7,464.84	54.9433	7,464.84	55.5875
7,727.05	87.8183	7,727.05	88.9439	7,727.05	85.5377	7,727.05	88.8307	7,727.05	83.6067	7,727.05	87.0216	7,727.05	81.0039	7,727.05	85.6957	7,727.05	78.3239	7,727.05	83.9918	7,727.05	74.3936	7,727.05	81.1789	7,727.05	63.3041	7,727.05	77.1832	7,727.05	71.7302	7,727.05	74.0104	7,727.05	61.9352	7,727.05	71.8581	7,727.05	57.1502	7,727.05	67.7139	7,727.05	59.9797	7,727.05	65.8726	7,727.05	57.9523	7,727.05	66.4118	7,727.05	59.5213	7,727.05	67.0037	7,727.05	57.6751	7,727.05	65.3114	7,727.05	41.2939	7,727.05	64.5485	7,727.05	51.9254	7,727.05	65.9026	7,727.05	54.8314	7,727.05	63.431	7,727.05	52.4461	7,727.05	56.6031
7,999.51	87.9584	7,999.51	89.0629	7,999.51	85.9353	7,999.51	88.6761	7,999.51	83.6244	7,999.51	87.0074	7,999.51	81.3686	7,999.51	85.5301	7,999.51	77.7937	7,999.51	82.9906	7,999.51	71.2981	7,999.51	80.8098	7,999.51	69.4735	7,999.51	76.9985	7,999.51	69.0499	7,999.51	73.8858	7,999.51	61.785	7,999.51	70.0364	7,999.51	46.5224	7,999.51	66.3842	7,999.51	63.5682	7,999.51	64.0133	7,999.51	62.0313	7,999.51	66.2983	7,999.51	56.6084	7,999.51	66.0765	7,999.51	57.066	7,999.51	63.005	7,999.51	53.65	7,999.51	63.4285	7,999.51	52.7871	7,999.51	65.2825	7,999.51	46.8522	7,999.51	62.5062	7,999.51	55.0754	7,999.51	55.024
8,282.23	87.6814	8,282.23	89.1175	8,282.23	85.8273	8,282.23	88.562	8,282.23	84.0232	8,282.23	86.9203	8,282.23	81.783	8,282.23	84.9606	8,282.23	76.4997	8,282.23	82.2347	8,282.23	66.219	8,282.23	80.2779	8,282.23	70.254	8,282.23	76.0994	8,282.23	66.7431	8,282.23	71.7597	8,282.23	66.4131	8,282.23	68.5896	8,282.23	51.9125	8,282.23	64.8126	8,282.23	66.1299	8,282.23	63.004	8,282.23	64.272	8,282.23	64.0819	8,282.23	57.5863	8,282.23	64.6724	8,282.23	52.7335	8,282.23	62.0332	8,282.23	55.7767	8,282.23	62.5782	8,282.23	54.9769	8,282.23	63.3402	8,282.23	51.5559	8,282.23	62.4325	8,282.23	51.2942	8,282.23	54.1015
8,573.73	87.9238	8,573.73	88.8398	8,573.73	86.2184	8,573.73	87.8547	8,573.73	84.2277	8,573.73	86.3992	8,573.73	82.194	8,573.73	84.4802	8,573.73	76.5545	8,573.73	81.2763	8,573.73	69.9974	8,573.73	79.1479	8,573.73	71.0035	8,573.73	74.4759	8,573.73	65.6691	8,573.73	70.5966	8,573.73	66.7323	8,573.73	66.1859	8,573.73	61.5073	8,573.73	63.7462	8,573.73	67.3527	8,573.73	61.5276	8,573.73	66.2111	8,573.73	64.4902	8,573.73	59.5311	8,573.73	62.2453	8,573.73	51.965	8,573.73	61.5168	8,573.73	55.1412	8,573.73	62.1194	8,573.73	55.1052	8,573.73	60.6479	8,573.73	51.2159	8,573.73	59.8515	8,573.73	52.3868	8,573.73	54.6648
8,876.95	87.2533	8,876.95	88.2602	8,876.95	86.0311	8,876.95	87.3638	8,876.95	84.2132	8,876.95	85.4027	8,876.95	80.8632	8,876.95	83.1486	8,876.95	77.7349	8,876.95	80.2961	8,876.95	72.7284	8,876.95	76.9628	8,876.95	64.1303	8,876.95	71.7848	8,876.95	72.3874	8,876.95	67.6315	8,876.95	66.6763	8,876.95	65.8051	8,876.95	60.4277	8,876.95	60.583	8,876.95	66.6411	8,876.95	60.6943	8,876.95	63.5373	8,876.95	61.692	8,876.95	58.6593	8,876.95	61.3347	8,876.95	50.1379	8,876.95	59.1676	8,876.95	58.2853	8,876.95	57.1144	8,876.95	51.3162	8,876.95	59.7	8,876.95	51.4278	8,876.95	59.9444	8,876.95	50.7205	8,876.95	52.2465
9,188.96	86.14	9,188.96	86.8487	9,188.96	84.7835	9,188.96	85.7339	9,188.96	83.0755	9,188.96	83.728	9,188.96	80.4714	9,188.96	81.7459	9,188.96	76.4406	9,188.96	78.1413	9,188.96	71.5532	9,188.96	74.8117	9,188.96	67.5037	9,188.96	69.5404	9,188.96	68.6206	9,188.96	64.7244	9,188.96	66.0796	9,188.96	62.8331	9,188.96	54.571	9,188.96	61.4283	9,188.96	66.2847	9,188.96	55.6326	9,188.96	62.9226	9,188.96	61.6456	9,188.96	56.2522	9,188.96	60.993	9,188.96	53.162	9,188.96	57.53	9,188.96	57.3091	9,188.96	57.0556	9,188.96	47.203	9,188.96	58.5174	9,188.96	52.4538	9,188.96	55.0346	9,188.96	49.1073	9,188.96	50.8527
9,514.16	85.1329	9,514.16	85.5518	9,514.16	83.756	9,514.16	84.6495	9,514.16	82.1524	9,514.16	82.6354	9,514.16	79.6348	9,514.16	81.0657	9,514.16	73.9331	9,514.16	77.6439	9,514.16	70.0111	9,514.16	74.3188	9,514.16	68.0438	9,514.16	69.929	9,514.16	61.8485	9,514.16	66.5169	9,514.16	65.2635	9,514.16	64.4389	9,514.16	59.6896	9,514.16	59.0826	9,514.16	66.2448	9,514.16	60.0933	9,514.16	64.3655	9,514.16	59.3118	9,514.16	58.8229	9,514.16	61.6013	9,514.16	51.4033	9,514.16	57.0755	9,514.16	53.7918	9,514.16	58.3312	9,514.16	46.8257	9,514.16	58.1707	9,514.16	51.9496	9,514.16	55.4718	9,514.16	43.1327	9,514.16	50.5358
9,849.61	83.9847	9,849.61	84.5758	9,849.61	82.7952	9,849.61	83.9869	9,849.61	80.7972	9,849.61	82.0486	9,849.61	77.677	9,849.61	80.9557	9,849.61	73.5963	9,849.61	77.911	9,849.61	68.978	9,849.61	74.74	9,849.61	66.0894	9,849.61	70.9807	9,849.61	60.7628	9,849.61	67.1194	9,849.61	62.9467	9,849.61	65.6658	9,849.61	56.137	9,849.61	59.9284	9,849.61	66.4122	9,849.61	61.0948	9,849.61	64.6877	9,849.61	61.38	9,849.61	61.0024	9,849.61	60.8183	9,849.61	51.4715	9,849.61	58.0214	9,849.61	47.8897	9,849.61	57.1001	9,849.61	45.3783	9,849.61	56.8252	9,849.61	50.4989	9,849.61	54.3341	9,849.61	42.7843	9,849.61	50.52
10,196.8	83.6989	10,196.8	84.7351	10,196.8	82.4495	10,196.8	84.4795	10,196.8	80.5498	10,196.8	82.8202	10,196.8	76.2395	10,196.8	81.7032	10,196.8	71.6241	10,196.8	78.5597	10,196.8	66.7885	10,196.8	75.7322	10,196.8	63.1854	10,196.8	72.2582	10,196.8	55.537	10,196.8	68.4184	10,196.8	60.0981	10,196.8	65.3952	10,196.8	56.4105	10,196.8	60.4025	10,196.8	66.0686	10,196.8	55.1663	10,196.8	65.5508	10,196.8	61.4854	10,196.8	62.4324	10,196.8	62.6461	10,196.8	54.438	10,196.8	57.0413	10,196.8	46.9804	10,196.8	57.4464	10,196.8	45.3743	10,196.8	56.9327	10,196.8	49.7401	10,196.8	55.0505	10,196.8	41.2308	10,196.8	49.8419
10,555.7	84.1749	10,555.7	85.2117	10,555.7	83.0637	10,555.7	85.2701	10,555.7	80.5586	10,555.7	83.8714	10,555.7	75.2695	10,555.7	82.5367	10,555.7	70.2856	10,555.7	79.2656	10,555.7	65.2659	10,555.7	75.9389	10,555.7	60.1622	10,555.7	73.109	10,555.7	55.9576	10,555.7	68.6332	10,555.7	59.8666	10,555.7	65.0433	10,555.7	56.3411	10,555.7	62.0219	10,555.7	64.9168	10,555.7	60.6167	10,555.7	65.6477	10,555.7	60.9124	10,555.7	62.8448	10,555.7	61.9744	10,555.7	52.3454	10,555.7	57.5003	10,555.7	49.487	10,555.7	57.8748	10,555.7	46.2108	10,555.7	57.7852	10,555.7	48.0639	10,555.7	54.6329	10,555.7	43.0163	10,555.7	50.0845
10,927.7	84.8792	10,927.7	85.7541	10,927.7	83.5034	10,927.7	85.8685	10,927.7	80.3643	10,927.7	84.7749	10,927.7	74.9461	10,927.7	83.1628	10,927.7	68.1977	10,927.7	79.7975	10,927.7	63.4883	10,927.7	75.8693	10,927.7	55.917	10,927.7	73.565	10,927.7	51.3489	10,927.7	68.9796	10,927.7	57.4569	10,927.7	65.3299	10,927.7	56.3947	10,927.7	59.2653	10,927.7	63.9746	10,927.7	58.8134	10,927.7	64.9372	10,927.7	62.3026	10,927.7	64.0482	10,927.7	60.8719	10,927.7	53.2271	10,927.7	57.7974	10,927.7	48.4121	10,927.7	57.2794	10,927.7	49.2693	10,927.7	57.4848	10,927.7	46.5677	10,927.7	53.7739	10,927.7	40.357	10,927.7	49.6416
11,313	85.7708	11,313	86.374	11,313	84.2309	11,313	86.2963	11,313	80.3178	11,313	85.5641	11,313	74.662	11,313	83.6294	11,313	69.764	11,313	79.4872	11,313	65.168	11,313	75.8345	11,313	63.3892	11,313	73.0771	11,313	54.1088	11,313	68.1034	11,313	58.2025	11,313	63.2234	11,313	62.1394	11,313	59.7308	11,313	65.6941	11,313	52.1395	11,313	61.8914	11,313	61.6488	11,313	64.163	11,313	59.9578	11,313	52.6665	11,313	57.0059	11,313	49.1527	11,313	57.2745	11,313	48.689	11,313	57.0185	11,313	49.9261	11,313	52.0733	11,313	41.0234	11,313	51.3814
11,712.9	86.5266	11,712.9	86.7666	11,712.9	85.2499	11,712.9	86.8685	11,712.9	81.1161	11,712.9	85.9249	11,712.9	75.5081	11,712.9	84.2092	11,712.9	68.9325	11,712.9	78.7943	11,712.9	65.688	11,712.9	75.821	11,712.9	64.6891	11,712.9	73.186	11,712.9	62.0699	11,712.9	66.0623	11,712.9	63.1084	11,712.9	62.6204	11,712.9	61.7823	11,712.9	60.6719	11,712.9	66.9397	11,712.9	58.316	11,712.9	60.3913	11,712.9	61.3637	11,712.9	64.6889	11,712.9	59.6064	11,712.9	55.0239	11,712.9	57.1483	11,712.9	51.3312	11,712.9	59.1363	11,712.9	43.3436	11,712.9	57.1525	11,712.9	46.5597	11,712.9	54.6191	11,712.9	45.4847	11,712.9	51.8227
12,126	86.977	12,126	86.8488	12,126	85.6461	12,126	87.35	12,126	81.6634	12,126	86.3989	12,126	77.3027	12,126	84.3276	12,126	71.9294	12,126	79.0675	12,126	67.2714	12,126	76.1731	12,126	67.1551	12,126	71.7809	12,126	64.3476	12,126	67.2635	12,126	62.5343	12,126	62.4833	12,126	60.1455	12,126	60.1618	12,126	68.2596	12,126	60.1372	12,126	57.6909	12,126	62.1633	12,126	64.026	12,126	58.9537	12,126	53.1629	12,126	59.0498	12,126	53.0548	12,126	58.5923	12,126	45.5443	12,126	58.4194	12,126	49.1954	12,126	54.2385	12,126	48.025	12,126	50.8489
12,553.7	86.8701	12,553.7	86.5086	12,553.7	85.7086	12,553.7	86.9576	12,553.7	82.0465	12,553.7	86.4165	12,553.7	76.5513	12,553.7	83.7377	12,553.7	73.6168	12,553.7	78.7697	12,553.7	69.7683	12,553.7	75.4993	12,553.7	67.2671	12,553.7	71.1567	12,553.7	64.5777	12,553.7	66.9897	12,553.7	59.0889	12,553.7	63.3792	12,553.7	60.0264	12,553.7	59.5534	12,553.7	67.6385	12,553.7	56.8461	12,553.7	58.9745	12,553.7	61.2886	12,553.7	61.478	12,553.7	57.3173	12,553.7	53.8549	12,553.7	59.0777	12,553.7	51.2179	12,553.7	58.4519	12,553.7	36.2792	12,553.7	57.8205	12,553.7	49.282	12,553.7	51.878	12,553.7	47.1706	12,553.7	49.1371
12,996.1	86.7415	12,996.1	85.806	12,996.1	85.2492	12,996.1	86.4321	12,996.1	81.7251	12,996.1	86.0329	12,996.1	77.7185	12,996.1	82.7893	12,996.1	72.2462	12,996.1	78.6092	12,996.1	71.1933	12,996.1	73.4239	12,996.1	68.8906	12,996.1	70.4111	12,996.1	65.3336	12,996.1	67.5193	12,996.1	57.1536	12,996.1	61.1101	12,996.1	60.774	12,996.1	57.9069	12,996.1	64.5372	12,996.1	56.1352	12,996.1	61.4046	12,996.1	58.6998	12,996.1	61.6487	12,996.1	54.0573	12,996.1	51.8133	12,996.1	58.1363	12,996.1	51.2684	12,996.1	57.9047	12,996.1	41.4794	12,996.1	55.975	12,996.1	48.2177	12,996.1	48.9616	12,996.1	37.5854	12,996.1	51.6052
13,454.6	86.6472	13,454.6	85.4546	13,454.6	84.608	13,454.6	86.0366	13,454.6	81.3637	13,454.6	85.7608	13,454.6	76.4579	13,454.6	81.7928	13,454.6	74.2013	13,454.6	77.5183	13,454.6	71.3518	13,454.6	72.0619	13,454.6	69.6651	13,454.6	69.9975	13,454.6	65.6755	13,454.6	64.9616	13,454.6	56.6504	13,454.6	60.416	13,454.6	57.9841	13,454.6	56.1271	13,454.6	64.4937	13,454.6	57.3286	13,454.6	59.5616	13,454.6	56.296	13,454.6	61.3805	13,454.6	56.2473	13,454.6	50.4754	13,454.6	58.1692	13,454.6	53.4158	13,454.6	55.8848	13,454.6	48.2661	13,454.6	52.4818	13,454.6	48.4092	13,454.6	43.1654	13,454.6	45.2634	13,454.6	49.2046
13,929.2	86.4627	13,929.2	85.3523	13,929.2	84.7843	13,929.2	85.7277	13,929.2	81.6857	13,929.2	85.2013	13,929.2	77.1884	13,929.2	81.3925	13,929.2	74.5652	13,929.2	76.4548	13,929.2	71.0103	13,929.2	70.7342	13,929.2	68.1166	13,929.2	68.3145	13,929.2	65.6772	13,929.2	64.4062	13,929.2	39.3244	13,929.2	58.9662	13,929.2	57.5259	13,929.2	54.5696	13,929.2	64.2239	13,929.2	57.3443	13,929.2	52.7471	13,929.2	55.6382	13,929.2	56.7436	13,929.2	56.7315	13,929.2	48.638	13,929.2	57.4385	13,929.2	51.4814	13,929.2	55.279	13,929.2	46.2455	13,929.2	52.5103	13,929.2	53.417	13,929.2	34.6652	13,929.2	43.775	13,929.2	48.1844
14,419.9	86.2859	14,419.9	85.2117	14,419.9	84.9307	14,419.9	85.3791	14,419.9	81.8512	14,419.9	84.0382	14,419.9	76.1897	14,419.9	80.6593	14,419.9	72.9805	14,419.9	74.332	14,419.9	69.8144	14,419.9	69.2305	14,419.9	63.7105	14,419.9	67.1785	14,419.9	63.6747	14,419.9	64.3081	14,419.9	56.6884	14,419.9	59.0483	14,419.9	52.9112	14,419.9	50.1405	14,419.9	63.0437	14,419.9	57.2733	14,419.9	58.4728	14,419.9	51.5894	14,419.9	57.4858	14,419.9	56.9523	14,419.9	46.9102	14,419.9	54.9778	14,419.9	52.3874	14,419.9	52.6358	14,419.9	47.3916	14,419.9	50.0833	14,419.9	51.6574	14,419.9	41.398	14,419.9	44.0479	14,419.9	34.4509
14,928.2	85.9001	14,928.2	84.914	14,928.2	84.7949	14,928.2	84.9426	14,928.2	81.4392	14,928.2	82.7598	14,928.2	75.1168	14,928.2	80.2288	14,928.2	69.8053	14,928.2	73.4787	14,928.2	71.0708	14,928.2	69.1324	14,928.2	68.5646	14,928.2	67.8902	14,928.2	67.4444	14,928.2	64.9964	14,928.2	55.8863	14,928.2	61.9355	14,928.2	53.8806	14,928.2	38.0979	14,928.2	61.4769	14,928.2	56.8053	14,928.2	56.9619	14,928.2	50.6066	14,928.2	57.2381	14,928.2	58.1606	14,928.2	44.4095	14,928.2	53.8144	14,928.2	50.6094	14,928.2	52.7932	14,928.2	38.1885	14,928.2	51.0182	14,928.2	55.0668	14,928.2	51.2403	14,928.2	52.5938	14,928.2	48.8715
15,455.6	85.5221	15,455.6	84.9358	15,455.6	84.2244	15,455.6	84.6763	15,455.6	80.0737	15,455.6	82.4894	15,455.6	73.9317	15,455.6	80.494	15,455.6	70.2227	15,455.6	74.0212	15,455.6	68.991	15,455.6	69.563	15,455.6	66.7913	15,455.6	69.0072	15,455.6	68.2268	15,455.6	65.0638	15,455.6	58.6542	15,455.6	63.6909	15,455.6	47.0761	15,455.6	53.4791	15,455.6	60.8918	15,455.6	55.4864	15,455.6	60.7887	15,455.6	55.566	15,455.6	52.1338	15,455.6	60.2628	15,455.6	37.3495	15,455.6	55.7533	15,455.6	50.372	15,455.6	53.8981	15,455.6	31.2823	15,455.6	54.177	15,455.6	55.4339	15,455.6	54.0334	15,455.6	51.7159	15,455.6	52.4726
16,000.5	84.9256	16,000.5	84.9208	16,000.5	83.315	16,000.5	84.3714	16,000.5	78.2915	16,000.5	82.4316	16,000.5	71.2807	16,000.5	80.5305	16,000.5	66.9287	16,000.5	74.558	16,000.5	69.8381	16,000.5	68.8052	16,000.5	66.9983	16,000.5	68.2228	16,000.5	64.9935	16,000.5	64.3933	16,000.5	58.8689	16,000.5	64.5651	16,000.5	48.3634	16,000.5	55.3336	16,000.5	62.7076	16,000.5	54.9411	16,000.5	62.8027	16,000.5	55.3266	16,000.5	52.592	16,000.5	60.2092	16,000.5	43.3125	16,000.5	56.4673	16,000.5	47.9369	16,000.5	54.7946	16,000.5	45.5538	16,000.5	55.0291	16,000.5	57.7349	16,000.5	54.139	16,000.5	51.7718	16,000.5	55.4067
16,564.5	84.2736	16,564.5	84.8453	16,564.5	82.3266	16,564.5	84.2782	16,564.5	76.9502	16,564.5	82.4633	16,564.5	70.8392	16,564.5	79.4228	16,564.5	69.9584	16,564.5	73.0196	16,564.5	70.3982	16,564.5	65.1696	16,564.5	66.7143	16,564.5	65.0677	16,564.5	65.3074	16,564.5	62.5497	16,564.5	56.1893	16,564.5	63.5329	16,564.5	46.3319	16,564.5	52.5179	16,564.5	62.659	16,564.5	54.6222	16,564.5	61.521	16,564.5	54.1001	16,564.5	52.1243	16,564.5	58.9962	16,564.5	45.7708	16,564.5	53.9423	16,564.5	50.2443	16,564.5	53.3764	16,564.5	47.0618	16,564.5	56.3112	16,564.5	59.0416	16,564.5	56.0782	16,564.5	54.0255	16,564.5	56.3814
17,148.9	83.7774	17,148.9	84.6892	17,148.9	80.8924	17,148.9	84.0245	17,148.9	75.6958	17,148.9	82.5944	17,148.9	73.1277	17,148.9	78.2269	17,148.9	71.4325	17,148.9	71.325	17,148.9	70.4343	17,148.9	60.3899	17,148.9	66.1617	17,148.9	62.0868	17,148.9	63.9371	17,148.9	61.0669	17,148.9	56.3441	17,148.9	60.7083	17,148.9	42.1435	17,148.9	50.109	17,148.9	62.5575	17,148.9	55.5755	17,148.9	59.7257	17,148.9	52.7452	17,148.9	50.0985	17,148.9	57.5796	17,148.9	48.6299	17,148.9	52.2827	17,148.9	50.3283	17,148.9	51.681	17,148.9	46.6618	17,148.9	55.5429	17,148.9	59.0537	17,148.9	57.4473	17,148.9	54.9558	17,148.9	56.6521
17,752.4	83.0656	17,752.4	84.0757	17,752.4	79.1824	17,752.4	83.2806	17,752.4	75.9974	17,752.4	81.806	17,752.4	73.8626	17,752.4	76.0998	17,752.4	72.1723	17,752.4	68.232	17,752.4	69.4382	17,752.4	50.2352	17,752.4	62.7247	17,752.4	61.0662	17,752.4	62.1483	17,752.4	56.9301	17,752.4	57.5699	17,752.4	57.2949	17,752.4	49.3819	17,752.4	51.9699	17,752.4	62.6079	17,752.4	56.822	17,752.4	55.8224	17,752.4	53.2883	17,752.4	50.0884	17,752.4	56.2266	17,752.4	47.6486	17,752.4	50.0023	17,752.4	48.3899	17,752.4	47.0871	17,752.4	46.1952	17,752.4	55.9116	17,752.4	57.5652	17,752.4	57.7485	17,752.4	53.5672	17,752.4	55.9771
18,379.4	81.895	18,379.4	82.9294	18,379.4	77.6362	18,379.4	82.1039	18,379.4	76.7263	18,379.4	79.7341	18,379.4	73.9097	18,379.4	73.0402	18,379.4	70.6083	18,379.4	63.4488	18,379.4	67.7285	18,379.4	42.6427	18,379.4	63.0234	18,379.4	56.6477	18,379.4	61.4374	18,379.4	48.5772	18,379.4	56.5328	18,379.4	57.4217	18,379.4	48.8753	18,379.4	53.9483	18,379.4	61.437	18,379.4	57.2155	18,379.4	52.146	18,379.4	53.4696	18,379.4	51.777	18,379.4	53.6779	18,379.4	44.495	18,379.4	47.3122	18,379.4	47.1636	18,379.4	49.4763	18,379.4	47.1303	18,379.4	57.1127	18,379.4	56.4495	18,379.4	58.0915	18,379.4	52.3735	18,379.4	56.2734
19,026.9	80.5947	19,026.9	81.8128	19,026.9	76.5087	19,026.9	81.1447	19,026.9	76.7549	19,026.9	77.1543	19,026.9	72.2065	19,026.9	68.7773	19,026.9	68.8888	19,026.9	51.4907	19,026.9	64.7731	19,026.9	46.43	19,026.9	60.7158	19,026.9	49.6785	19,026.9	59.2512	19,026.9	49.0468	19,026.9	55.8121	19,026.9	59.9722	19,026.9	49.2889	19,026.9	55.2707	19,026.9	59.522	19,026.9	58.1992	19,026.9	48.9554	19,026.9	53.0537	19,026.9	50.2397	19,026.9	53.4134	19,026.9	39.869	19,026.9	50.7687	19,026.9	44.3886	19,026.9	54.096	19,026.9	42.4646	19,026.9	58.522	19,026.9	55.0025	19,026.9	59.5444	19,026.9	51.7691	19,026.9	56.2486
19,697.8	79.0754	19,697.8	80.6161	19,697.8	75.456	19,697.8	79.9322	19,697.8	75.5646	19,697.8	74.8376	19,697.8	70.8227	19,697.8	64.7616	19,697.8	67.508	19,697.8	53.0755	19,697.8	61.9009	19,697.8	47.5808	19,697.8	57.0536	19,697.8	50.2865	19,697.8	56.0769	19,697.8	48.8306	19,697.8	52.1477	19,697.8	60.0618	19,697.8	49.5579	19,697.8	54.2752	19,697.8	57.7582	19,697.8	58.8378	19,697.8	48.5039	19,697.8	52.8338	19,697.8	48.6061	19,697.8	53.1708	19,697.8	33.9175	19,697.8	53.171	19,697.8	43.6537	19,697.8	55.2231	19,697.8	40.8214	19,697.8	59.4473	19,697.8	53.3226	19,697.8	59.6264	19,697.8	51.8806	19,697.8	55.2221
19,999.5	78.4886	19,999.5	79.9755	19,999.5	74.9103	19,999.5	79.2334	19,999.5	74.8658	19,999.5	73.6805	19,999.5	70.3813	19,999.5	62.3281	19,999.5	66.7637	19,999.5	51.0647	19,999.5	61.4813	19,999.5	50.5894	19,999.5	57.9093	19,999.5	50.3158	19,999.5	48.3225	19,999.5	44.6625	19,999.5	54.558	19,999.5	60.2669	19,999.5	51.7928	19,999.5	53.9155	19,999.5	54.7963	19,999.5	59.5892	19,999.5	53.492	19,999.5	50.9427	19,999.5	48.9964	19,999.5	50.8675	19,999.5	30.3162	19,999.5	54.7506	19,999.5	26.3886	19,999.5	53.4297	19,999.5	49.0257	19,999.5	58.7987	19,999.5	51.7941	19,999.5	60.2158	19,999.5	54.7395	19,999.5	55.614
