"SPL Horizontal"
"On-Axis"		"10°"		"-10°"		"20°"		"-20°"		"30°"		"-30°"		"40°"		"-40°"		"50°"		"-50°"		"60°"		"-60°"		"70°"		"-70°"		"80°"		"-80°"		"90°"		"-90°"		"100°"		"-100°"		"110°"		"-110°"		"120°"		"-120°"		"130°"		"-130°"		"140°"		"-140°"		"150°"		"-150°"		"160°"		"-160°"		"170°"		"-170°"		"180°"
"Frequency [Hz]"	"Sound Pessure Level [dB]  / [2.83V 1m] "	"Frequency [Hz]"	"Sound Pessure Level [dB]  / [2.83V 1m] "	"Frequency [Hz]"	"Sound Pessure Level [dB]  / [2.83V 1m] "	"Frequency [Hz]"	"Sound Pessure Level [dB]  / [2.83V 1m] "	"Frequency [Hz]"	"Sound Pessure Level [dB]  / [2.83V 1m] "	"Frequency [Hz]"	"Sound Pessure Level [dB]  / [2.83V 1m] "	"Frequency [Hz]"	"Sound Pessure Level [dB]  / [2.83V 1m] "	"Frequency [Hz]"	"Sound Pessure Level [dB]  / [2.83V 1m] "	"Frequency [Hz]"	"Sound Pessure Level [dB]  / [2.83V 1m] "	"Frequency [Hz]"	"Sound Pessure Level [dB]  / [2.83V 1m] "	"Frequency [Hz]"	"Sound Pessure Level [dB]  / [2.83V 1m] "	"Frequency [Hz]"	"Sound Pessure Level [dB]  / [2.83V 1m] "	"Frequency [Hz]"	"Sound Pessure Level [dB]  / [2.83V 1m] "	"Frequency [Hz]"	"Sound Pessure Level [dB]  / [2.83V 1m] "	"Frequency [Hz]"	"Sound Pessure Level [dB]  / [2.83V 1m] "	"Frequency [Hz]"	"Sound Pessure Level [dB]  / [2.83V 1m] "	"Frequency [Hz]"	"Sound Pessure Level [dB]  / [2.83V 1m] "	"Frequency [Hz]"	"Sound Pessure Level [dB]  / [2.83V 1m] "	"Frequency [Hz]"	"Sound Pessure Level [dB]  / [2.83V 1m] "	"Frequency [Hz]"	"Sound Pessure Level [dB]  / [2.83V 1m] "	"Frequency [Hz]"	"Sound Pessure Level [dB]  / [2.83V 1m] "	"Frequency [Hz]"	"Sound Pessure Level [dB]  / [2.83V 1m] "	"Frequency [Hz]"	"Sound Pessure Level [dB]  / [2.83V 1m] "	"Frequency [Hz]"	"Sound Pessure Level [dB]  / [2.83V 1m] "	"Frequency [Hz]"	"Sound Pessure Level [dB]  / [2.83V 1m] "	"Frequency [Hz]"	"Sound Pessure Level [dB]  / [2.83V 1m] "	"Frequency [Hz]"	"Sound Pessure Level [dB]  / [2.83V 1m] "	"Frequency [Hz]"	"Sound Pessure Level [dB]  / [2.83V 1m] "	"Frequency [Hz]"	"Sound Pessure Level [dB]  / [2.83V 1m] "	"Frequency [Hz]"	"Sound Pessure Level [dB]  / [2.83V 1m] "	"Frequency [Hz]"	"Sound Pessure Level [dB]  / [2.83V 1m] "	"Frequency [Hz]"	"Sound Pessure Level [dB]  / [2.83V 1m] "	"Frequency [Hz]"	"Sound Pessure Level [dB]  / [2.83V 1m] "	"Frequency [Hz]"	"Sound Pessure Level [dB]  / [2.83V 1m] "	"Frequency [Hz]"	"Sound Pessure Level [dB]  / [2.83V 1m] "	"Frequency [Hz]"	"Sound Pessure Level [dB]  / [2.83V 1m] "
20.5078	49.1947	20.5078	49.0708	20.5078	49.1493	20.5078	48.7712	20.5078	48.9433	20.5078	48.2964	20.5078	48.5884	20.5078	47.6678	20.5078	48.1062	20.5078	46.9594	20.5078	47.5417	20.5078	46.3511	20.5078	46.9865	20.5078	46.1511	20.5078	46.6013	20.5078	46.635	20.5078	46.5948	20.5078	47.7619	20.5078	47.1094	20.5078	49.2199	20.5078	48.0985	20.5078	50.7165	20.5078	49.368	20.5078	52.0901	20.5078	50.716	20.5078	53.27	20.5078	52.0038	20.5078	54.2276	20.5078	53.1506	20.5078	54.9497	20.5078	54.1106	20.5078	55.4286	20.5078	54.8559	20.5078	55.659	20.5078	55.369	20.5078	55.6387
21.9727	50.9804	21.9727	50.9647	21.9727	50.9501	21.9727	50.9171	21.9727	50.8758	21.9727	50.8709	21.9727	50.7745	21.9727	50.8816	21.9727	50.6797	21.9727	51.0221	21.9727	50.6432	21.9727	51.3642	21.9727	50.7316	21.9727	51.9462	21.9727	51.0139	21.9727	52.7503	21.9727	51.5356	21.9727	53.7093	21.9727	52.2944	21.9727	54.7372	21.9727	53.2377	21.9727	55.7563	21.9727	54.284	21.9727	56.7075	21.9727	55.3499	21.9727	57.549	21.9727	56.3656	21.9727	58.2512	21.9727	57.2785	21.9727	58.792	21.9727	58.0508	21.9727	59.1547	21.9727	58.6562	21.9727	59.3271	21.9727	59.0767	21.9727	59.3017
23.4375	55.9288	23.4375	55.8915	23.4375	55.8986	23.4375	55.7884	23.4375	55.8108	23.4375	55.6351	23.4375	55.6879	23.4375	55.4649	23.4375	55.5668	23.4375	55.3325	23.4375	55.4987	23.4375	55.3122	23.4375	55.5451	23.4375	55.4822	23.4375	55.7626	23.4375	55.8927	23.4375	56.1821	23.4375	56.538	23.4375	56.7934	23.4375	57.3565	23.4375	57.5487	23.4375	58.2609	23.4375	58.3813	23.4375	59.1679	23.4375	59.2245	23.4375	60.0127	23.4375	60.022	23.4375	60.7494	23.4375	60.7301	23.4375	61.3467	23.4375	61.316	23.4375	61.7836	23.4375	61.7552	23.4375	62.0466	23.4375	62.03	23.4375	62.1289
24.9023	58.4	24.9023	58.3504	24.9023	58.3955	24.9023	58.2535	24.9023	58.3403	24.9023	58.1282	24.9023	58.2485	24.9023	58.0076	24.9023	58.1466	24.9023	57.9399	24.9023	58.0746	24.9023	57.9847	24.9023	58.0841	24.9023	58.1981	24.9023	58.2296	24.9023	58.6105	24.9023	58.5508	24.9023	59.2109	24.9023	59.0554	24.9023	59.9494	24.9023	59.7137	24.9023	60.7568	24.9023	60.4695	24.9023	61.5656	24.9023	61.2586	24.9023	62.3197	24.9023	62.0223	24.9023	62.977	24.9023	62.7131	24.9023	63.5069	24.9023	63.2945	24.9023	63.8881	24.9023	63.7399	24.9023	64.1064	24.9023	64.0303	24.9023	64.1542
26.3672	61.3081	26.3672	61.2677	26.3672	61.3164	26.3672	61.2016	26.3672	61.2946	26.3672	61.1249	26.3672	61.2529	26.3672	61.0621	26.3672	61.2099	26.3672	61.0469	26.3672	61.1929	26.3672	61.118	26.3672	61.236	26.3672	61.3114	26.3672	61.3744	26.3672	61.6484	26.3672	61.6361	26.3672	62.1265	26.3672	62.0311	26.3672	62.7182	26.3672	62.5469	26.3672	63.3782	26.3672	63.1505	26.3672	64.0552	26.3672	63.7972	26.3672	64.701	26.3672	64.4397	26.3672	65.2743	26.3672	65.0347	26.3672	65.7428	26.3672	65.5452	26.3672	66.0825	26.3672	65.9424	26.3672	66.2773	26.3672	66.2047	26.3672	66.3184
27.832	64.0511	27.832	64.0416	27.832	64.0237	27.832	63.9985	27.832	63.9626	27.832	63.9321	27.832	63.8778	27.832	63.8601	27.832	63.7869	27.832	63.8082	27.832	63.7156	27.832	63.8089	27.832	63.6966	27.832	63.8973	27.832	63.7657	27.832	64.1023	27.832	63.953	27.832	64.4369	27.832	64.2735	27.832	64.8914	27.832	64.7194	27.832	65.4342	27.832	65.2612	27.832	66.0207	27.832	65.855	27.832	66.6029	27.832	66.4525	27.832	67.1366	27.832	67.0084	27.832	67.5851	27.832	67.4845	27.832	67.9202	27.832	67.8511	27.832	68.122	27.832	68.0868	27.832	68.1787
29.2969	66.0003	29.2969	65.983	29.2969	65.9855	29.2969	65.9367	29.2969	65.9416	29.2969	65.8706	29.2969	65.8775	29.2969	65.8009	29.2969	65.8091	29.2969	65.7509	29.2969	65.7588	29.2969	65.7499	29.2969	65.7548	29.2969	65.8293	29.2969	65.8276	29.2969	66.0157	29.2969	66.003	29.2969	66.3221	29.2969	66.2944	29.2969	66.7413	29.2969	66.6963	29.2969	67.2465	29.2969	67.1847	29.2969	67.7971	29.2969	67.7222	29.2969	68.3477	29.2969	68.2662	29.2969	68.8555	29.2969	68.7755	29.2969	69.284	29.2969	69.2142	29.2969	69.605	29.2969	69.5534	29.2969	69.7992	29.2969	69.7718	29.2969	69.8556
30.7617	68.0209	30.7617	68.0043	30.7617	68.0088	30.7617	67.9616	30.7617	67.9703	30.7617	67.9006	30.7617	67.9129	30.7617	67.8348	30.7617	67.8498	30.7617	67.7837	30.7617	67.7996	30.7617	67.772	30.7617	67.7861	30.7617	67.8268	30.7617	67.8354	30.7617	67.9722	30.7617	67.9709	30.7617	68.2227	30.7617	68.2067	30.7617	68.5763	30.7617	68.5421	30.7617	69.0135	30.7617	68.9601	30.7617	69.5005	30.7617	69.4305	30.7617	69.9964	30.7617	69.916	30.7617	70.4601	30.7617	70.3783	30.7617	70.8551	30.7617	70.7821	30.7617	71.1527	30.7617	71.0978	30.7617	71.3325	30.7617	71.3031	30.7617	71.3835
32.2266	69.7959	32.2266	69.7813	32.2266	69.7851	32.2266	69.7438	32.2266	69.751	32.2266	69.6904	32.2266	69.7	32.2266	69.633	32.2266	69.6435	32.2266	69.5885	32.2266	69.598	32.2266	69.5784	32.2266	69.5845	32.2266	69.6263	32.2266	69.626	32.2266	69.7537	32.2266	69.744	32.2266	69.9744	32.2266	69.9521	32.2266	70.2885	32.2266	70.2518	32.2266	70.6801	32.2266	70.6297	32.2266	71.1202	32.2266	71.0596	32.2266	71.572	32.2266	71.5073	32.2266	71.9977	32.2266	71.9362	32.2266	72.3633	32.2266	72.3116	32.2266	72.6415	32.2266	72.6045	32.2266	72.8124	32.2266	72.7932	32.2266	72.8641
33.6914	71.4484	33.6914	71.4321	33.6914	71.4449	33.6914	71.3981	33.6914	71.4233	33.6914	71.3525	33.6914	71.3896	33.6914	71.3058	33.6914	71.3536	33.6914	71.2727	33.6914	71.3294	33.6914	71.2716	33.6914	71.3343	33.6914	71.3227	33.6914	71.3874	33.6914	71.4444	33.6914	71.5061	33.6914	71.6485	33.6914	71.702	33.6914	71.936	33.6914	71.9767	33.6914	72.2944	33.6914	72.3199	33.6914	72.6992	33.6914	72.7102	33.6914	73.1184	33.6914	73.1179	33.6914	73.5176	33.6914	73.5099	33.6914	73.8644	33.6914	73.8541	33.6914	74.1316	33.6914	74.1225	33.6914	74.299	33.6914	74.2938	33.6914	74.3543
35.1562	73.0952	35.1562	73.0829	35.1562	73.0913	35.1562	73.0563	35.1562	73.0724	35.1562	73.0208	35.1562	73.0431	35.1562	72.9853	35.1562	73.0117	35.1562	72.9621	35.1562	72.9897	35.1562	72.9661	35.1562	72.9916	35.1562	73.0141	35.1562	73.0338	35.1562	73.1212	35.1562	73.1316	35.1562	73.2977	35.1562	73.2963	35.1562	73.5454	35.1562	73.5314	35.1562	73.855	35.1562	73.8299	35.1562	74.2073	35.1562	74.1745	35.1562	74.5753	35.1562	74.5392	35.1562	74.9288	35.1562	74.8941	35.1562	75.238	35.1562	75.2087	35.1562	75.4773	35.1562	75.4562	35.1562	75.6268	35.1562	75.6158	35.1562	75.6743
36.6211	74.4769	36.6211	74.4674	36.6211	74.4728	36.6211	74.4463	36.6211	74.4563	36.6211	74.4181	36.6211	74.4312	36.6211	74.3904	36.6211	74.4043	36.6211	74.3737	36.6211	74.3855	36.6211	74.3807	36.6211	74.3872	36.6211	74.4254	36.6211	74.4234	36.6211	74.5209	36.6211	74.5076	36.6211	74.6762	36.6211	74.6502	36.6211	74.8937	36.6211	74.8551	36.6211	75.1664	36.6211	75.1175	36.6211	75.4784	36.6211	75.423	36.6211	75.8063	36.6211	75.7495	36.6211	76.123	36.6211	76.07	36.6211	76.4011	36.6211	76.3568	36.6211	76.6164	36.6211	76.5847	36.6211	76.7499	36.6211	76.7334	36.6211	76.7901
38.0859	75.7308	38.0859	75.7242	38.0859	75.7254	38.0859	75.707	38.0859	75.7089	38.0859	75.6831	38.0859	75.6847	38.0859	75.6586	38.0859	75.6584	38.0859	75.6424	38.0859	75.6384	38.0859	75.6451	38.0859	75.6353	38.0859	75.6785	38.0859	75.661	38.0859	75.7541	38.0859	75.7277	38.0859	75.8804	38.0859	75.8447	38.0859	76.0607	38.0859	76.0165	38.0859	76.2908	38.0859	76.2401	38.0859	76.558	38.0859	76.5042	38.0859	76.843	38.0859	76.7899	38.0859	77.1218	38.0859	77.0733	38.0859	77.3692	38.0859	77.3292	38.0859	77.5623	38.0859	77.5337	38.0859	77.6827	38.0859	77.6678	38.0859	77.7191
39.5508	76.8694	39.5508	76.8628	39.5508	76.866	39.5508	76.8475	39.5508	76.8531	39.5508	76.8268	39.5508	76.8336	39.5508	76.8062	39.5508	76.8124	39.5508	76.7932	39.5508	76.7965	39.5508	76.797	39.5508	76.7949	39.5508	76.8281	39.5508	76.8181	39.5508	76.8963	39.5508	76.8764	39.5508	77.0097	39.5508	76.9785	39.5508	77.1714	39.5508	77.129	39.5508	77.3784	39.5508	77.3264	39.5508	77.62	39.5508	77.5617	39.5508	77.879	39.5508	77.8189	39.5508	78.1335	39.5508	78.0768	39.5508	78.36	39.5508	78.3119	39.5508	78.5367	39.5508	78.5018	39.5508	78.6462	39.5508	78.6278	39.5508	78.6776
41.0156	77.8863	41.0156	77.8815	41.0156	77.8839	41.0156	77.8707	41.0156	77.875	41.0156	77.8569	41.0156	77.8617	41.0156	77.8446	41.0156	77.848	41.0156	77.8403	41.0156	77.8398	41.0156	77.8515	41.0156	77.8445	41.0156	77.8868	41.0156	77.8704	41.0156	77.9545	41.0156	77.9263	41.0156	78.0608	41.0156	78.0194	41.0156	78.2084	41.0156	78.1539	41.0156	78.3946	41.0156	78.329	41.0156	78.6104	41.0156	78.5374	41.0156	78.8411	41.0156	78.766	41.0156	79.0675	41.0156	78.9966	41.0156	79.2688	41.0156	79.2085	41.0156	79.4253	41.0156	79.3814	41.0156	79.521	41.0156	79.4979	41.0156	79.5461
42.4805	78.8539	42.4805	78.854	42.4805	78.8481	42.4805	78.8494	42.4805	78.8371	42.4805	78.8426	42.4805	78.8228	42.4805	78.8373	42.4805	78.8085	42.4805	78.8388	42.4805	78.7992	42.4805	78.8533	42.4805	78.8012	42.4805	78.888	42.4805	78.8217	42.4805	78.9494	42.4805	78.8685	42.4805	79.0429	42.4805	78.9479	42.4805	79.1709	42.4805	79.0642	42.4805	79.3315	42.4805	79.2172	42.4805	79.5178	42.4805	79.4014	42.4805	79.7173	42.4805	79.6056	42.4805	79.9139	42.4805	79.8136	42.4805	80.0889	42.4805	80.0068	42.4805	80.2245	42.4805	80.1662	42.4805	80.3059	42.4805	80.2757	42.4805	80.3238
43.9453	79.6029	43.9453	79.6067	43.9453	79.5947	43.9453	79.6067	43.9453	79.5826	43.9453	79.6049	43.9453	79.5683	43.9453	79.6044	43.9453	79.5549	43.9453	79.6096	43.9453	79.5466	43.9453	79.6255	43.9453	79.5491	43.9453	79.6582	43.9453	79.5686	43.9453	79.7136	43.9453	79.6119	43.9453	79.7966	43.9453	79.6848	43.9453	79.9096	43.9453	79.7911	43.9453	80.0518	43.9453	79.9309	43.9453	80.2174	43.9453	80.0994	43.9453	80.3962	43.9453	80.2865	43.9453	80.5735	43.9453	80.4778	43.9453	80.7327	43.9453	80.6558	43.9453	80.8567	43.9453	80.8029	43.9453	80.9316	43.9453	80.9039	43.9453	80.9482
45.4102	80.4103	45.4102	80.4176	45.4102	80.3995	45.4102	80.4218	45.4102	80.3858	45.4102	80.424	45.4102	80.3708	45.4102	80.4268	45.4102	80.3571	45.4102	80.4333	45.4102	80.3484	45.4102	80.4478	45.4102	80.349	45.4102	80.4752	45.4102	80.3643	45.4102	80.5203	45.4102	80.3996	45.4102	80.5874	45.4102	80.4598	45.4102	80.6792	45.4102	80.548	45.4102	80.7953	45.4102	80.6647	45.4102	80.9317	45.4102	80.8062	45.4102	81.0802	45.4102	80.9645	45.4102	81.2285	45.4102	81.1278	45.4102	81.362	45.4102	81.2812	45.4102	81.4661	45.4102	81.4094	45.4102	81.528	45.4102	81.4988	45.4102	81.5397
46.875	81.0714	46.875	81.0759	46.875	81.0646	46.875	81.0782	46.875	81.0557	46.875	81.0796	46.875	81.0462	46.875	81.0821	46.875	81.0381	46.875	81.0885	46.875	81.0345	46.875	81.1025	46.875	81.0392	46.875	81.1283	46.875	81.0565	46.875	81.1702	46.875	81.0911	46.875	81.2322	46.875	81.1472	46.875	81.3167	46.875	81.2277	46.875	81.4238	46.875	81.3333	46.875	81.55	46.875	81.4611	46.875	81.6881	46.875	81.6044	46.875	81.8269	46.875	81.7525	46.875	81.9529	46.875	81.8921	46.875	82.052	46.875	82.0088	46.875	82.1121	46.875	82.0897	46.875	82.1254
48.3398	81.6478	48.3398	81.6528	48.3398	81.6432	48.3398	81.6585	48.3398	81.6393	48.3398	81.6657	48.3398	81.637	48.3398	81.6762	48.3398	81.638	48.3398	81.6919	48.3398	81.6444	48.3398	81.7158	48.3398	81.6592	48.3398	81.751	48.3398	81.6858	48.3398	81.8007	48.3398	81.7275	48.3398	81.8678	48.3398	81.7879	48.3398	81.9539	48.3398	81.869	48.3398	82.0587	48.3398	81.9713	48.3398	82.1789	48.3398	82.0923	48.3398	82.3081	48.3398	82.226	48.3398	82.4363	48.3398	82.3632	48.3398	82.5518	48.3398	82.4919	48.3398	82.6421	48.3398	82.5995	48.3398	82.6964	48.3398	82.6743	48.3398	82.7078
51.2695	82.713	51.2695	82.7199	51.2695	82.7093	51.2695	82.7301	51.2695	82.7088	51.2695	82.7438	51.2695	82.712	51.2695	82.7617	51.2695	82.7195	51.2695	82.7845	51.2695	82.7323	51.2695	82.8134	51.2695	82.7518	51.2695	82.8496	51.2695	82.7796	51.2695	82.8948	51.2695	82.8175	51.2695	82.9503	51.2695	82.8675	51.2695	83.0171	51.2695	82.9309	51.2695	83.0951	51.2695	83.008	51.2695	83.1825	51.2695	83.0976	51.2695	83.2752	51.2695	83.196	51.2695	83.3668	51.2695	83.297	51.2695	83.449	51.2695	83.3924	51.2695	83.5129	51.2695	83.4729	51.2695	83.5505	51.2695	83.5298	51.2695	83.5566
52.7344	83.2002	52.7344	83.2084	52.7344	83.196	52.7344	83.2207	52.7344	83.1961	52.7344	83.237	52.7344	83.2005	52.7344	83.2573	52.7344	83.2096	52.7344	83.2818	52.7344	83.2237	52.7344	83.311	52.7344	83.2435	52.7344	83.3455	52.7344	83.2699	52.7344	83.3861	52.7344	83.3041	52.7344	83.4339	52.7344	83.3472	52.7344	83.4896	52.7344	83.4004	52.7344	83.5532	52.7344	83.4641	52.7344	83.6237	52.7344	83.5376	52.7344	83.6982	52.7344	83.6184	52.7344	83.7716	52.7344	83.7018	52.7344	83.8376	52.7344	83.7813	52.7344	83.8886	52.7344	83.8491	52.7344	83.9182	52.7344	83.8977	52.7344	83.9216
54.1992	83.6791	54.1992	83.6899	54.1992	83.6724	54.1992	83.7047	54.1992	83.6699	54.1992	83.723	54.1992	83.6718	54.1992	83.7445	54.1992	83.6779	54.1992	83.7688	54.1992	83.6883	54.1992	83.7959	54.1992	83.7032	54.1992	83.8258	54.1992	83.723	54.1992	83.8589	54.1992	83.7484	54.1992	83.8958	54.1992	83.7804	54.1992	83.9372	54.1992	83.8199	54.1992	83.9834	54.1992	83.8677	54.1992	84.0339	54.1992	83.9237	54.1992	84.0869	54.1992	83.9863	54.1992	84.1391	54.1992	84.0523	54.1992	84.1857	54.1992	84.1165	54.1992	84.221	54.1992	84.1728	54.1992	84.2396	54.1992	84.2149	54.1992	84.2379
55.6641	84.1507	55.6641	84.1598	55.6641	84.1448	55.6641	84.1718	55.6641	84.1423	55.6641	84.1861	55.6641	84.1432	55.6641	84.2024	55.6641	84.1474	55.6641	84.22	55.6641	84.1549	55.6641	84.239	55.6641	84.1657	55.6641	84.2592	55.6641	84.1799	55.6641	84.2812	55.6641	84.1981	55.6641	84.3058	55.6641	84.2209	55.6641	84.3337	55.6641	84.2492	55.6641	84.3657	55.6641	84.2838	55.6641	84.4019	55.6641	84.3249	55.6641	84.4413	55.6641	84.3717	55.6641	84.4816	55.6641	84.4218	55.6641	84.5187	55.6641	84.4712	55.6641	84.5479	55.6641	84.5148	55.6641	84.5642	55.6641	84.5472	55.6641	84.5643
58.5938	84.8277	58.5938	84.8348	58.5938	84.8251	58.5938	84.846	58.5938	84.8269	58.5938	84.8609	58.5938	84.8329	58.5938	84.8786	58.5938	84.8426	58.5938	84.8984	58.5938	84.8552	58.5938	84.9193	58.5938	84.8701	58.5938	84.9409	58.5938	84.8867	58.5938	84.9625	58.5938	84.9044	58.5938	84.9843	58.5938	84.9234	58.5938	85.0062	58.5938	84.9439	58.5938	85.0287	58.5938	84.9666	58.5938	85.052	58.5938	84.992	58.5938	85.0757	58.5938	85.0203	58.5938	85.0989	58.5938	85.0506	58.5938	85.1196	58.5938	85.0807	58.5938	85.1352	58.5938	85.1079	58.5938	85.143	58.5938	85.1289	58.5938	85.141
60.0586	85.141	60.0586	85.1452	60.0586	85.1418	60.0586	85.154	60.0586	85.1472	60.0586	85.1668	60.0586	85.1568	60.0586	85.1828	60.0586	85.1697	60.0586	85.2009	60.0586	85.1849	60.0586	85.2199	60.0586	85.2014	60.0586	85.2387	60.0586	85.2181	60.0586	85.2567	60.0586	85.2343	60.0586	85.2734	60.0586	85.2498	60.0586	85.2889	60.0586	85.2648	60.0586	85.3037	60.0586	85.2797	60.0586	85.3183	60.0586	85.2953	60.0586	85.3331	60.0586	85.3121	60.0586	85.3478	60.0586	85.3298	60.0586	85.3616	60.0586	85.3474	60.0586	85.3729	60.0586	85.363	60.0586	85.3796	60.0586	85.3745	60.0586	85.3803
62.9883	85.6933	62.9883	85.6928	62.9883	85.7008	62.9883	85.699	62.9883	85.7148	62.9883	85.7112	62.9883	85.7346	62.9883	85.7279	62.9883	85.7587	62.9883	85.7476	62.9883	85.7853	62.9883	85.7683	62.9883	85.8127	62.9883	85.7885	62.9883	85.839	62.9883	85.8066	62.9883	85.8626	62.9883	85.8219	62.9883	85.8823	62.9883	85.8343	62.9883	85.8977	62.9883	85.8442	62.9883	85.9087	62.9883	85.8526	62.9883	85.916	62.9883	85.8607	62.9883	85.9203	62.9883	85.8696	62.9883	85.9224	62.9883	85.8797	62.9883	85.9227	62.9883	85.8905	62.9883	85.9209	62.9883	85.901	62.9883	85.9167	62.9883	85.91
64.4531	85.9314	64.4531	85.9313	64.4531	85.9391	64.4531	85.9387	64.4531	85.954	64.4531	85.9526	64.4531	85.9753	64.4531	85.9716	64.4531	86.0012	64.4531	85.9937	64.4531	86.0299	64.4531	86.0169	64.4531	86.0592	64.4531	86.0393	64.4531	86.0871	64.4531	86.0592	64.4531	86.1118	64.4531	86.0756	64.4531	86.1318	64.4531	86.0881	64.4531	86.1465	64.4531	86.0969	64.4531	86.1557	64.4531	86.1031	64.4531	86.1602	64.4531	86.1079	64.4531	86.1609	64.4531	86.1125	64.4531	86.159	64.4531	86.1179	64.4531	86.1554	64.4531	86.1242	64.4531	86.1506	64.4531	86.1312	64.4531	86.1449	64.4531	86.1383
67.3828	86.3107	67.3828	86.3126	67.3828	86.3174	67.3828	86.3224	67.3828	86.3322	67.3828	86.3392	67.3828	86.3542	67.3828	86.3612	67.3828	86.3817	67.3828	86.3862	67.3828	86.4126	67.3828	86.4119	67.3828	86.4444	67.3828	86.436	67.3828	86.4746	67.3828	86.4563	67.3828	86.5006	67.3828	86.4713	67.3828	86.5206	67.3828	86.4802	67.3828	86.5332	67.3828	86.4829	67.3828	86.5379	67.3828	86.4805	67.3828	86.5353	67.3828	86.4748	67.3828	86.5267	67.3828	86.4679	67.3828	86.5141	67.3828	86.462	67.3828	86.4996	67.3828	86.4588	67.3828	86.4855	67.3828	86.4594	67.3828	86.4733	67.3828	86.4644
68.8477	86.5255	68.8477	86.5267	68.8477	86.533	68.8477	86.5362	68.8477	86.5491	68.8477	86.5527	68.8477	86.5726	68.8477	86.5746	68.8477	86.6018	68.8477	86.5995	68.8477	86.6347	68.8477	86.6249	68.8477	86.6685	68.8477	86.6484	68.8477	86.7006	68.8477	86.6677	68.8477	86.7283	68.8477	86.6812	68.8477	86.7496	68.8477	86.688	68.8477	86.7629	68.8477	86.6886	68.8477	86.7678	68.8477	86.684	68.8477	86.7646	68.8477	86.6764	68.8477	86.7544	68.8477	86.6683	68.8477	86.7389	68.8477	86.6621	68.8477	86.7206	68.8477	86.6599	68.8477	86.7017	68.8477	86.6628	68.8477	86.6846	68.8477	86.6712
71.7773	86.9395	71.7773	86.9417	71.7773	86.9458	71.7773	86.9517	71.7773	86.9605	71.7773	86.9681	71.7773	86.9825	71.7773	86.9888	71.7773	87.0102	71.7773	87.0113	71.7773	87.0411	71.7773	87.0329	71.7773	87.0725	71.7773	87.0507	71.7773	87.1012	71.7773	87.0625	71.7773	87.1242	71.7773	87.0664	71.7773	87.1391	71.7773	87.0618	71.7773	87.1442	71.7773	87.0491	71.7773	87.1388	71.7773	87.0302	71.7773	87.1234	71.7773	87.0079	71.7773	87.0995	71.7773	86.9857	71.7773	87.0698	71.7773	86.9674	71.7773	87.0376	71.7773	86.9562	71.7773	87.0067	71.7773	86.9543	71.7773	86.9807	71.7773	86.9626
74.707	87.292	74.707	87.2924	74.707	87.2987	74.707	87.2996	74.707	87.3122	74.707	87.3121	74.707	87.3313	74.707	87.3281	74.707	87.3541	74.707	87.3451	74.707	87.378	74.707	87.3601	74.707	87.4002	74.707	87.3704	74.707	87.4174	74.707	87.3732	74.707	87.4268	74.707	87.3666	74.707	87.4259	74.707	87.3496	74.707	87.4132	74.707	87.3226	74.707	87.3885	74.707	87.2873	74.707	87.3529	74.707	87.2469	74.707	87.309	74.707	87.2057	74.707	87.2609	74.707	87.1687	74.707	87.2136	74.707	87.1406	74.707	87.1724	74.707	87.1255	74.707	87.1419	74.707	87.1258
77.6367	87.4896	77.6367	87.4937	77.6367	87.4926	77.6367	87.5044	77.6367	87.5024	77.6367	87.5203	77.6367	87.5176	77.6367	87.5393	77.6367	87.5364	77.6367	87.5587	77.6367	87.5562	77.6367	87.5753	77.6367	87.5739	77.6367	87.5857	77.6367	87.5865	77.6367	87.587	77.6367	87.5907	77.6367	87.5766	77.6367	87.5842	77.6367	87.5533	77.6367	87.5652	77.6367	87.5171	77.6367	87.5332	77.6367	87.47	77.6367	87.4895	77.6367	87.4156	77.6367	87.4371	77.6367	87.3593	77.6367	87.3807	77.6367	87.3072	77.6367	87.3261	77.6367	87.2656	77.6367	87.2797	77.6367	87.24	77.6367	87.2475	77.6367	87.2336
79.1016	87.547	79.1016	87.5494	79.1016	87.5518	79.1016	87.5586	79.1016	87.5634	79.1016	87.5734	79.1016	87.5804	79.1016	87.5915	79.1016	87.6008	79.1016	87.6102	79.1016	87.6218	79.1016	87.6263	79.1016	87.6403	79.1016	87.6362	79.1016	87.6531	79.1016	87.6368	79.1016	87.657	79.1016	87.6255	79.1016	87.6494	79.1016	87.6008	79.1016	87.6286	79.1016	87.5628	79.1016	87.5941	79.1016	87.5135	79.1016	87.5471	79.1016	87.4567	79.1016	87.4909	79.1016	87.3979	79.1016	87.4303	79.1016	87.3438	79.1016	87.3715	79.1016	87.301	79.1016	87.3212	79.1016	87.2751	79.1016	87.2858	79.1016	87.2697
82.0312	87.6398	82.0312	87.6346	82.0312	87.6528	82.0312	87.6372	82.0312	87.6728	82.0312	87.6465	82.0312	87.698	82.0312	87.6606	82.0312	87.7261	82.0312	87.6767	82.0312	87.7539	82.0312	87.6917	82.0312	87.7782	82.0312	87.7017	82.0312	87.7952	82.0312	87.7034	82.0312	87.8017	82.0312	87.6938	82.0312	87.7949	82.0312	87.6711	82.0312	87.7728	82.0312	87.6351	82.0312	87.7352	82.0312	87.5877	82.0312	87.6833	82.0312	87.5326	82.0312	87.6204	82.0312	87.4755	82.0312	87.5519	82.0312	87.4233	82.0312	87.4846	82.0312	87.3829	82.0312	87.4258	82.0312	87.3606	82.0312	87.3827	82.0312	87.3602
84.9609	87.7962	84.9609	87.7897	84.9609	87.8085	84.9609	87.789	84.9609	87.8261	84.9609	87.7931	84.9609	87.8474	84.9609	87.8005	84.9609	87.8701	84.9609	87.8089	84.9609	87.8915	84.9609	87.8154	84.9609	87.9081	84.9609	87.8172	84.9609	87.9166	84.9609	87.8111	84.9609	87.9138	84.9609	87.7946	84.9609	87.897	84.9609	87.7661	84.9609	87.8647	84.9609	87.7251	84.9609	87.8169	84.9609	87.6733	84.9609	87.7555	84.9609	87.6141	84.9609	87.6846	84.9609	87.5529	84.9609	87.61	84.9609	87.4963	84.9609	87.5392	84.9609	87.4512	84.9609	87.4797	84.9609	87.424	84.9609	87.4382	84.9609	87.4191
87.8906	87.7626	87.8906	87.774	87.8906	87.7585	87.8906	87.7916	87.8906	87.7615	87.8906	87.8139	87.8906	87.7707	87.8906	87.8384	87.8906	87.7845	87.8906	87.8621	87.8906	87.8	87.8906	87.8817	87.8906	87.8143	87.8906	87.8938	87.8906	87.8234	87.8906	87.8951	87.8906	87.8239	87.8906	87.883	87.8906	87.8125	87.8906	87.8562	87.8906	87.7872	87.8906	87.8144	87.8906	87.7474	87.8906	87.7591	87.8906	87.6947	87.8906	87.6936	87.8906	87.633	87.8906	87.6232	87.8906	87.5683	87.8906	87.5543	87.8906	87.5082	87.8906	87.4944	87.8906	87.4608	87.8906	87.451	87.8906	87.4332	87.8906	87.4296
90.8203	87.9909	90.8203	88.0002	90.8203	87.9833	90.8203	88.011	90.8203	87.9767	90.8203	88.0226	90.8203	87.9697	90.8203	88.0331	90.8203	87.9601	90.8203	88.04	90.8203	87.9454	90.8203	88.0404	90.8203	87.9229	90.8203	88.0308	90.8203	87.8896	90.8203	88.0077	90.8203	87.8433	90.8203	87.968	90.8203	87.7824	90.8203	87.9093	90.8203	87.7068	90.8203	87.8307	90.8203	87.6178	90.8203	87.7333	90.8203	87.5191	90.8203	87.6211	90.8203	87.4163	90.8203	87.5008	90.8203	87.3177	90.8203	87.3824	90.8203	87.2327	90.8203	87.2773	90.8203	87.1712	90.8203	87.1969	90.8203	87.142	90.8203	87.1503
95.2148	87.8407	95.2148	87.8414	95.2148	87.8452	95.2148	87.8469	95.2148	87.8546	95.2148	87.856	95.2148	87.8682	95.2148	87.8672	95.2148	87.8847	95.2148	87.8781	95.2148	87.9021	95.2148	87.8861	95.2148	87.9176	95.2148	87.8879	95.2148	87.9278	95.2148	87.8802	95.2148	87.9292	95.2148	87.8603	95.2148	87.9181	95.2148	87.8262	95.2148	87.8917	95.2148	87.7775	95.2148	87.8486	95.2148	87.7158	95.2148	87.7897	95.2148	87.6452	95.2148	87.7181	95.2148	87.5723	95.2148	87.6396	95.2148	87.5053	95.2148	87.562	95.2148	87.453	95.2148	87.4942	95.2148	87.4229	95.2148	87.4446	95.2148	87.4198
98.1445	87.6052	98.1445	87.6138	98.1445	87.6024	98.1445	87.6275	98.1445	87.6056	98.1445	87.6452	98.1445	87.6143	98.1445	87.6649	98.1445	87.6273	98.1445	87.6844	98.1445	87.6428	98.1445	87.7007	98.1445	87.6582	98.1445	87.7106	98.1445	87.6704	98.1445	87.7108	98.1445	87.6758	98.1445	87.6982	98.1445	87.671	98.1445	87.6706	98.1445	87.6527	98.1445	87.6273	98.1445	87.6192	98.1445	87.5697	98.1445	87.5705	98.1445	87.5014	98.1445	87.5092	98.1445	87.4288	98.1445	87.4406	98.1445	87.3599	98.1445	87.3725	98.1445	87.3035	98.1445	87.3137	98.1445	87.2673	98.1445	87.273	98.1445	87.2566
101.074	87.4607	101.074	87.4778	101.074	87.4516	101.074	87.5013	101.074	87.4508	101.074	87.5291	101.074	87.4579	101.074	87.5583	101.074	87.4715	101.074	87.5856	101.074	87.489	101.074	87.6073	101.074	87.5071	101.074	87.6198	101.074	87.5219	101.074	87.6197	101.074	87.5293	101.074	87.6041	101.074	87.5254	101.074	87.5717	101.074	87.5069	101.074	87.5223	101.074	87.4723	101.074	87.4582	101.074	87.4219	101.074	87.3834	101.074	87.3587	101.074	87.3043	101.074	87.2884	101.074	87.2291	101.074	87.2193	101.074	87.1664	101.074	87.1608	101.074	87.1244	101.074	87.1219	101.074	87.1089
105.469	87.7729	105.469	87.7804	105.469	87.7656	105.469	87.7871	105.469	87.7591	105.469	87.7912	105.469	87.7533	105.469	87.79	105.469	87.7476	105.469	87.7806	105.469	87.7402	105.469	87.7593	105.469	87.729	105.469	87.7227	105.469	87.7109	105.469	87.6679	105.469	87.6823	105.469	87.5934	105.469	87.64	105.469	87.4995	105.469	87.5815	105.469	87.3894	105.469	87.5056	105.469	87.2687	105.469	87.4132	105.469	87.1456	105.469	87.3073	105.469	87.0305	105.469	87.1936	105.469	86.9344	105.469	87.0803	105.469	86.8676	105.469	86.9778	105.469	86.8377	105.469	86.8971	105.469	86.8482
108.398	87.8101	108.398	87.8116	108.398	87.8094	108.398	87.8137	108.398	87.8089	108.398	87.8156	108.398	87.8074	108.398	87.8153	108.398	87.8031	108.398	87.8099	108.398	87.7937	108.398	87.7956	108.398	87.7769	108.398	87.7683	108.398	87.7498	108.398	87.7237	108.398	87.7098	108.398	87.6585	108.398	87.6545	108.398	87.571	108.398	87.5825	108.398	87.4623	108.398	87.4934	108.398	87.3367	108.398	87.3888	108.398	87.2022	108.398	87.2725	108.398	87.0698	108.398	87.1508	108.398	86.953	108.398	87.0325	108.398	86.8648	108.398	86.9288	108.398	86.816	108.398	86.8517	108.398	86.8119
112.793	87.8638	112.793	87.8742	112.793	87.8473	112.793	87.8788	112.793	87.8243	112.793	87.8777	112.793	87.7946	112.793	87.8707	112.793	87.7581	112.793	87.8565	112.793	87.7146	112.793	87.8333	112.793	87.6639	112.793	87.7983	112.793	87.6054	112.793	87.7479	112.793	87.5379	112.793	87.6787	112.793	87.4604	112.793	87.588	112.793	87.3714	112.793	87.475	112.793	87.2704	112.793	87.342	112.793	87.1584	112.793	87.1949	112.793	87.0389	112.793	87.0435	112.793	86.9188	112.793	86.9006	112.793	86.8083	112.793	86.7805	112.793	86.7201	112.793	86.6964	112.793	86.6666	112.793	86.6574
117.188	87.74	117.188	87.7394	117.188	87.7332	117.188	87.7317	117.188	87.7185	117.188	87.7164	117.188	87.6951	117.188	87.6928	117.188	87.6618	117.188	87.6597	117.188	87.6173	117.188	87.6154	117.188	87.5602	117.188	87.5577	117.188	87.4889	117.188	87.4844	117.188	87.4025	117.188	87.3935	117.188	87.3007	117.188	87.284	117.188	87.184	117.188	87.1567	117.188	87.0547	117.188	87.0148	117.188	86.9166	117.188	86.8648	117.188	86.7758	117.188	86.716	117.188	86.6406	117.188	86.5797	117.188	86.5211	117.188	86.468	117.188	86.4281	117.188	86.3918	117.188	86.3716	117.188	86.3587
120.117	87.8375	120.117	87.8268	120.117	87.8413	120.117	87.8092	120.117	87.8375	120.117	87.7838	120.117	87.8245	120.117	87.7491	120.117	87.8003	120.117	87.7029	120.117	87.7622	120.117	87.6423	120.117	87.7071	120.117	87.5645	120.117	87.6321	120.117	87.4663	120.117	87.5345	120.117	87.3458	120.117	87.4128	120.117	87.2025	120.117	87.267	120.117	87.0383	120.117	87.0996	120.117	86.8581	120.117	86.9155	120.117	86.6708	120.117	86.7229	120.117	86.4881	120.117	86.5334	120.117	86.3247	120.117	86.361	120.117	86.1958	120.117	86.2212	120.117	86.1148	120.117	86.1279	120.117	86.0912
124.512	87.61	124.512	87.6089	124.512	87.6112	124.512	87.6071	124.512	87.6124	124.512	87.6026	124.512	87.612	124.512	87.5924	124.512	87.6072	124.512	87.5728	124.512	87.5941	124.512	87.5392	124.512	87.5677	124.512	87.487	124.512	87.523	124.512	87.4119	124.512	87.4549	124.512	87.3107	124.512	87.36	124.512	87.1824	124.512	87.2372	124.512	87.0289	124.512	87.0882	124.512	86.856	124.512	86.9183	124.512	86.6737	124.512	86.7365	124.512	86.4951	124.512	86.5548	124.512	86.3361	124.512	86.3878	124.512	86.2121	124.512	86.2505	124.512	86.1364	124.512	86.157	124.512	86.1174
128.906	87.0796	128.906	87.088	128.906	87.0755	128.906	87.0996	128.906	87.0762	128.906	87.1131	128.906	87.0815	128.906	87.1264	128.906	87.0903	128.906	87.1368	128.906	87.1002	128.906	87.1407	128.906	87.1076	128.906	87.1341	128.906	87.1078	128.906	87.1123	128.906	87.0957	128.906	87.0713	128.906	87.0667	128.906	87.0084	128.906	87.0177	128.906	86.9235	128.906	86.948	128.906	86.8197	128.906	86.8591	128.906	86.704	128.906	86.7559	128.906	86.5869	128.906	86.6456	128.906	86.4812	128.906	86.5382	128.906	86.3994	128.906	86.4449	128.906	86.3519	128.906	86.3772	128.906	86.3445
133.301	87.0804	133.301	87.0939	133.301	87.0664	133.301	87.106	133.301	87.0525	133.301	87.1152	133.301	87.039	133.301	87.1196	133.301	87.0255	133.301	87.1168	133.301	87.0104	133.301	87.1037	133.301	86.9913	133.301	87.0765	133.301	86.9645	133.301	87.0316	133.301	86.9259	133.301	86.9657	133.301	86.8716	133.301	86.8771	133.301	86.7989	133.301	86.7663	133.301	86.7069	133.301	86.6372	133.301	86.5974	133.301	86.4969	133.301	86.4755	133.301	86.3562	133.301	86.3497	133.301	86.228	133.301	86.2309	133.301	86.1257	133.301	86.132	133.301	86.0605	133.301	86.0652	133.301	86.0399
139.16	86.9911	139.16	87.0107	139.16	86.9693	139.16	87.0273	139.16	86.9461	139.16	87.0396	139.16	86.9215	139.16	87.046	139.16	86.8952	139.16	87.044	139.16	86.8657	139.16	87.0306	139.16	86.8304	139.16	87.0018	139.16	86.7858	139.16	86.9533	139.16	86.7277	139.16	86.8813	139.16	86.6524	139.16	86.783	139.16	86.5575	139.16	86.6579	139.16	86.4426	139.16	86.5092	139.16	86.3104	139.16	86.3438	139.16	86.1673	139.16	86.1728	139.16	86.0236	139.16	86.0104	139.16	85.8929	139.16	85.8723	139.16	85.7909	139.16	85.7735	139.16	85.7317	139.16	85.725
143.555	86.7443	143.555	86.7431	143.555	86.7452	143.555	86.741	143.555	86.7463	143.555	86.7378	143.555	86.7483	143.555	86.7328	143.555	86.7518	143.555	86.7247	143.555	86.7561	143.555	86.7111	143.555	86.7591	143.555	86.6889	143.555	86.7571	143.555	86.6544	143.555	86.745	143.555	86.6042	143.555	86.7177	143.555	86.5359	143.555	86.6705	143.555	86.4495	143.555	86.6007	143.555	86.3478	143.555	86.5083	143.555	86.237	143.555	86.3966	143.555	86.1263	143.555	86.2734	143.555	86.0273	143.555	86.1499	143.555	85.9522	143.555	86.0401	143.555	85.9118	143.555	85.9576	143.555	85.9131
147.949	86.7805	147.949	86.7653	147.949	86.7849	147.949	86.7407	147.949	86.7781	147.949	86.7089	147.949	86.761	147.949	86.6717	147.949	86.7351	147.949	86.6302	147.949	86.7024	147.949	86.5839	147.949	86.6637	147.949	86.5309	147.949	86.6187	147.949	86.4682	147.949	86.5653	147.949	86.393	147.949	86.5009	147.949	86.3035	147.949	86.4226	147.949	86.2001	147.949	86.3294	147.949	86.0865	147.949	86.2223	147.949	85.9693	147.949	86.1052	147.949	85.8576	147.949	85.9846	147.949	85.7619	147.949	85.8697	147.949	85.6921	147.949	85.7706	147.949	85.656	147.949	85.6973	147.949	85.6577
153.809	86.8081	153.809	86.8094	153.809	86.7927	153.809	86.7973	153.809	86.763	153.809	86.7728	153.809	86.7196	153.809	86.7368	153.809	86.6634	153.809	86.69	153.809	86.5958	153.809	86.6321	153.809	86.5179	153.809	86.562	153.809	86.4303	153.809	86.4777	153.809	86.3329	153.809	86.3766	153.809	86.2247	153.809	86.2569	153.809	86.105	153.809	86.1186	153.809	85.9737	153.809	85.9644	153.809	85.8334	153.809	85.801	153.809	85.6897	153.809	85.6389	153.809	85.5509	153.809	85.491	153.809	85.4278	153.809	85.3712	153.809	85.3314	153.809	85.291	153.809	85.272	153.809	85.2573
159.668	86.7907	159.668	86.7952	159.668	86.772	159.668	86.786	159.668	86.739	159.668	86.7636	159.668	86.6921	159.668	86.7282	159.668	86.6317	159.668	86.6795	159.668	86.5585	159.668	86.6161	159.668	86.4729	159.668	86.5357	159.668	86.3757	159.668	86.4359	159.668	86.2676	159.668	86.3148	159.668	86.1495	159.668	86.1727	159.668	86.023	159.668	86.0128	159.668	85.8903	159.668	85.8421	159.668	85.7544	159.668	85.6709	159.668	85.6196	159.668	85.5116	159.668	85.4917	159.668	85.3765	159.668	85.3779	159.668	85.276	159.668	85.2862	159.668	85.2163	159.668	85.2246	159.668	85.1997
165.527	86.6855	165.527	86.6698	165.527	86.6897	165.527	86.6443	165.527	86.6816	165.527	86.6108	165.527	86.6608	165.527	86.5713	165.527	86.6272	165.527	86.5269	165.527	86.5804	165.527	86.4772	165.527	86.5196	165.527	86.4207	165.527	86.4437	165.527	86.3541	165.527	86.3514	165.527	86.2737	165.527	86.2423	165.527	86.1768	165.527	86.1182	165.527	86.0628	165.527	85.9834	165.527	85.9347	165.527	85.8449	165.527	85.7994	165.527	85.7109	165.527	85.6667	165.527	85.5898	165.527	85.5479	165.527	85.4892	165.527	85.4533	165.527	85.4149	165.527	85.3903	165.527	85.3717	165.527	85.3629
171.387	86.529	171.387	86.4987	171.387	86.5425	171.387	86.4524	171.387	86.5397	171.387	86.3919	171.387	86.5219	171.387	86.3202	171.387	86.4907	171.387	86.2409	171.387	86.4473	171.387	86.1571	171.387	86.3924	171.387	86.0711	171.387	86.3253	171.387	85.9836	171.387	86.2449	171.387	85.8939	171.387	86.1498	171.387	85.8011	171.387	86.0397	171.387	85.7049	171.387	85.9165	171.387	85.6069	171.387	85.7847	171.387	85.5105	171.387	85.6515	171.387	85.4212	171.387	85.5258	171.387	85.3448	171.387	85.4165	171.387	85.2874	171.387	85.331	171.387	85.2541	171.387	85.2745	171.387	85.249
177.246	86.6153	177.246	86.6159	177.246	86.5889	177.246	86.5898	177.246	86.5396	177.246	86.5374	177.246	86.4717	177.246	86.4603	177.246	86.3902	177.246	86.3606	177.246	86.3	177.246	86.2407	177.246	86.205	177.246	86.1027	177.246	86.107	177.246	85.9485	177.246	86.0061	177.246	85.7806	177.246	85.9012	177.246	85.6028	177.246	85.7908	177.246	85.4216	177.246	85.6738	177.246	85.2463	177.246	85.5502	177.246	85.0888	177.246	85.4216	177.246	84.9613	177.246	85.2912	177.246	84.8736	177.246	85.1644	177.246	84.8308	177.246	85.0477	177.246	84.8325	177.246	84.9483	177.246	84.874
183.105	86.3162	183.105	86.3298	183.105	86.2823	183.105	86.3237	183.105	86.2287	183.105	86.2991	183.105	86.1576	183.105	86.2573	183.105	86.0724	183.105	86.199	183.105	85.9766	183.105	86.1242	183.105	85.873	183.105	86.0316	183.105	85.763	183.105	85.9198	183.105	85.6467	183.105	85.7875	183.105	85.5238	183.105	85.6353	183.105	85.3949	183.105	85.4663	183.105	85.2618	183.105	85.2872	183.105	85.1278	183.105	85.1085	183.105	84.9973	183.105	84.9424	183.105	84.8757	183.105	84.8017	183.105	84.7694	183.105	84.6964	183.105	84.6853	183.105	84.6326	183.105	84.6306	183.105	84.6114
188.965	86.1389	188.965	86.144	188.965	86.1126	188.965	86.1305	188.965	86.064	188.965	86.1015	188.965	85.9935	188.965	86.0598	188.965	85.9035	188.965	86.0073	188.965	85.7977	188.965	85.9445	188.965	85.6798	188.965	85.8703	188.965	85.5525	188.965	85.7822	188.965	85.4176	188.965	85.6776	188.965	85.2763	188.965	85.5553	188.965	85.1313	188.965	85.4164	188.965	84.9874	188.965	85.2651	188.965	84.8514	188.965	85.1084	188.965	84.7311	188.965	84.9552	188.965	84.6333	188.965	84.815	188.965	84.5632	188.965	84.6962	188.965	84.524	188.965	84.6049	188.965	84.5177	188.965	84.5448
196.289	86.3704	196.289	86.3606	196.289	86.3437	196.289	86.3166	196.289	86.2807	196.289	86.2424	196.289	86.1841	196.289	86.1439	196.289	86.0587	196.289	86.0281	196.289	85.9109	196.289	85.9019	196.289	85.7468	196.289	85.7705	196.289	85.5715	196.289	85.6368	196.289	85.3883	196.289	85.5009	196.289	85.2	196.289	85.3616	196.289	85.011	196.289	85.2187	196.289	84.8289	196.289	85.0739	196.289	84.6634	196.289	84.9306	196.289	84.5246	196.289	84.793	196.289	84.4201	196.289	84.6651	196.289	84.354	196.289	84.5507	196.289	84.3268	196.289	84.4544	196.289	84.3371	196.289	84.3813
203.613	86.2718	203.613	86.239	203.613	86.2657	203.613	86.1687	203.613	86.2208	203.613	86.0639	203.613	86.1387	203.613	85.9292	203.613	86.0228	203.613	85.7709	203.613	85.8773	203.613	85.5963	203.613	85.7061	203.613	85.4123	203.613	85.5118	203.613	85.2248	203.613	85.296	203.613	85.0381	203.613	85.0615	203.613	84.8569	203.613	84.8151	203.613	84.6874	203.613	84.5701	203.613	84.5372	203.613	84.3449	203.613	84.4123	203.613	84.1591	203.613	84.3133	203.613	84.0276	203.613	84.2338	203.613	83.9563	203.613	84.1633	203.613	83.9414	203.613	84.0942	203.613	83.9704	203.613	84.0267
210.938	86.3798	210.938	86.3378	210.938	86.3918	210.938	86.2674	210.938	86.3719	210.938	86.1698	210.938	86.3185	210.938	86.0464	210.938	86.2321	210.938	85.8997	210.938	86.1157	210.938	85.7337	210.938	85.9742	210.938	85.5526	210.938	85.8108	210.938	85.3596	210.938	85.6249	210.938	85.1567	210.938	85.4124	210.938	84.9452	210.938	85.1701	210.938	84.7293	210.938	84.9029	210.938	84.5184	210.938	84.6273	210.938	84.327	210.938	84.3696	210.938	84.1692	210.938	84.1572	210.938	84.0525	210.938	84.0074	210.938	83.9737	210.938	83.9223	210.938	83.9234	210.938	83.8903	210.938	83.8948
218.262	86.1499	218.262	86.1493	218.262	86.1232	218.262	86.1194	218.262	86.0704	218.262	86.0584	218.262	85.992	218.262	85.9656	218.262	85.8889	218.262	85.8423	218.262	85.7641	218.262	85.6921	218.262	85.6232	218.262	85.5203	218.262	85.4732	218.262	85.3327	218.262	85.3187	218.262	85.1353	218.262	85.1601	218.262	84.9345	218.262	84.9947	218.262	84.7388	218.262	84.8222	218.262	84.5598	218.262	84.6509	218.262	84.4123	218.262	84.4978	218.262	84.3092	218.262	84.3811	218.262	84.2547	218.262	84.3095	218.262	84.2401	218.262	84.2769	218.262	84.2471	218.262	84.2656	218.262	84.2581
225.586	86.1928	225.586	86.2094	225.586	86.142	225.586	86.1915	225.586	86.058	225.586	86.1397	225.586	85.9421	225.586	86.0561	225.586	85.7963	225.586	85.944	225.586	85.6251	225.586	85.8076	225.586	85.4368	225.586	85.6513	225.586	85.2437	225.586	85.4795	225.586	85.0591	225.586	85.297	225.586	84.8919	225.586	85.1101	225.586	84.7451	225.586	84.9293	225.586	84.6198	225.586	84.7698	225.586	84.5218	225.586	84.6498	225.586	84.4637	225.586	84.5836	225.586	84.4565	225.586	84.5727	225.586	84.4971	225.586	84.6003	225.586	84.5634	225.586	84.6361	225.586	84.6228	225.586	84.6491
232.91	86.3628	232.91	86.352	232.91	86.3343	232.91	86.3037	232.91	86.265	232.91	86.221	232.91	86.1531	232.91	86.108	232.91	85.9958	232.91	85.9692	232.91	85.7908	232.91	85.8084	232.91	85.5403	232.91	85.6277	232.91	85.2533	232.91	85.4279	232.91	84.9474	232.91	85.2089	232.91	84.645	232.91	84.9728	232.91	84.3687	232.91	84.7281	232.91	84.1384	232.91	84.4931	232.91	83.9718	232.91	84.2953	232.91	83.8834	232.91	84.1623	232.91	83.878	232.91	84.1059	232.91	83.9402	232.91	84.1113	232.91	84.0334	232.91	84.1405	232.91	84.1137	232.91	84.1502
241.699	86.1285	241.699	86.1017	241.699	86.1105	241.699	86.0307	241.699	86.0495	241.699	85.9196	241.699	85.9487	241.699	85.7752	241.699	85.8118	241.699	85.6062	241.699	85.642	241.699	85.4219	241.699	85.4429	241.699	85.2303	241.699	85.2193	241.699	85.0352	241.699	84.9771	241.699	84.8345	241.699	84.7228	241.699	84.6219	241.699	84.4632	241.699	84.3925	241.699	84.2073	241.699	84.1512	241.699	83.9708	241.699	83.9176	241.699	83.7761	241.699	83.7227	241.699	83.6443	241.699	83.595	241.699	83.5804	241.699	83.5417	241.699	83.5659	241.699	83.5419	241.699	83.5675	241.699	83.5595
250.488	86.2142	250.488	86.2016	250.488	86.1712	250.488	86.133	250.488	86.0781	250.488	86.0126	250.488	85.9434	250.488	85.8472	250.488	85.7758	250.488	85.6454	250.488	85.5821	250.488	85.417	250.488	85.3676	250.488	85.1749	250.488	85.1397	250.488	84.9346	250.488	84.9097	250.488	84.7092	250.488	84.6904	250.488	84.5029	250.488	84.4901	250.488	84.3082	250.488	84.3096	250.488	84.1128	250.488	84.146	250.488	83.9131	250.488	84	250.488	83.7238	250.488	83.8768	250.488	83.5748	250.488	83.7778	250.488	83.4947	250.488	83.6948	250.488	83.4902	250.488	83.6161	250.488	83.5411
259.277	86.5644	259.277	86.5495	259.277	86.5183	259.277	86.4774	259.277	86.4117	259.277	86.3547	259.277	86.2488	259.277	86.1883	259.277	86.0367	259.277	85.9829	259.277	85.7835	259.277	85.7412	259.277	85.4991	259.277	85.4671	259.277	85.1963	259.277	85.1713	259.277	84.8924	259.277	84.874	259.277	84.6084	259.277	84.6016	259.277	84.3644	259.277	84.3748	259.277	84.1735	259.277	84.1977	259.277	84.0384	259.277	84.0584	259.277	83.9533	259.277	83.9424	259.277	83.9062	259.277	83.8472	259.277	83.8802	259.277	83.7843	259.277	83.8562	259.277	83.7651	259.277	83.8226	259.277	83.785
268.066	86.138	268.066	86.117	268.066	86.0984	268.066	86.0368	268.066	86.0001	268.066	85.9029	268.066	85.8465	268.066	85.7233	268.066	85.6396	268.066	85.5067	268.066	85.3797	268.066	85.2626	268.066	85.0695	268.066	85.0025	268.066	84.7204	268.066	84.7413	268.066	84.3583	268.066	84.4977	268.066	84.0187	268.066	84.2907	268.066	83.7334	268.066	84.1329	268.066	83.5168	268.066	84.0249	268.066	83.367	268.066	83.9544	268.066	83.281	268.066	83.9017	268.066	83.2625	268.066	83.8497	268.066	83.3113	268.066	83.7894	268.066	83.4092	268.066	83.7171	268.066	83.524	268.066	83.6295
276.855	86.337	276.855	86.3415	276.855	86.2804	276.855	86.2853	276.855	86.1849	276.855	86.1643	276.855	86.0641	276.855	85.9758	276.855	85.9236	276.855	85.7146	276.855	85.7538	276.855	85.3716	276.855	85.5302	276.855	84.9399	276.855	85.2248	276.855	84.4284	276.855	84.8274	276.855	83.8787	276.855	84.3672	276.855	83.3728	276.855	83.9174	276.855	83.0129	276.855	83.5656	276.855	82.8658	276.855	83.3554	276.855	82.9132	276.855	83.2595	276.855	83.0626	276.855	83.2177	276.855	83.2096	276.855	83.1927	276.855	83.2899	276.855	83.1844	276.855	83.2936	276.855	83.2052	276.855	83.2512
287.109	86.302	287.109	86.2455	287.109	86.2764	287.109	86.1272	287.109	86.162	287.109	85.9712	287.109	85.9731	287.109	85.7986	287.109	85.7441	287.109	85.621	287.109	85.5158	287.109	85.4373	287.109	85.3084	287.109	85.2317	287.109	85.1029	287.109	84.9798	287.109	84.8501	287.109	84.6623	287.109	84.5066	287.109	84.2836	287.109	84.0724	287.109	83.8864	287.109	83.608	287.109	83.5487	287.109	83.2133	287.109	83.348	287.109	82.9666	287.109	83.3008	287.109	82.8736	287.109	83.341	287.109	82.8861	287.109	83.3696	287.109	82.9601	287.109	83.3254	287.109	83.0759	287.109	83.2122
297.363	86.3122	297.363	86.3674	297.363	86.2057	297.363	86.3547	297.363	86.0571	297.363	86.2612	297.363	85.8637	297.363	86.088	297.363	85.6155	297.363	85.8518	297.363	85.307	297.363	85.5762	297.363	84.9494	297.363	85.2765	297.363	84.575	297.363	84.9528	297.363	84.2258	297.363	84.598	297.363	83.9306	297.363	84.2141	297.363	83.6886	297.363	83.8227	297.363	83.4801	297.363	83.4637	297.363	83.2952	297.363	83.1874	297.363	83.1484	297.363	83.037	297.363	83.0641	297.363	83.0199	297.363	83.0513	297.363	83.0885	297.363	83.0934	297.363	83.164	297.363	83.1541	297.363	83.1884
307.617	86.5217	307.617	86.4511	307.617	86.5399	307.617	86.3384	307.617	86.4915	307.617	86.1833	307.617	86.3695	307.617	85.9764	307.617	86.1798	307.617	85.7071	307.617	85.9372	307.617	85.3739	307.617	85.6503	307.617	84.9884	307.617	85.3067	307.617	84.5714	307.617	84.8751	307.617	84.1476	307.617	84.3303	307.617	83.7455	307.617	83.692	307.617	83.4025	307.617	83.0532	307.617	83.1615	307.617	82.5609	307.617	83.048	307.617	82.3239	307.617	83.0427	307.617	82.3275	307.617	83.0842	307.617	82.4681	307.617	83.1056	307.617	82.6499	307.617	83.0685	307.617	82.8241	307.617	82.9695
319.336	86.469	319.336	86.4223	319.336	86.4377	319.336	86.3046	319.336	86.3189	319.336	86.12	319.336	86.1048	319.336	85.8711	319.336	85.7984	319.336	85.5597	319.336	85.4219	319.336	85.186	319.336	85.0151	319.336	84.7483	319.336	84.6159	319.336	84.2473	319.336	84.2347	319.336	83.6978	319.336	83.8485	319.336	83.1439	319.336	83.429	319.336	82.6635	319.336	82.9848	319.336	82.3462	319.336	82.5856	319.336	82.2453	319.336	82.3364	319.336	82.3423	319.336	82.3001	319.336	82.5548	319.336	82.4416	319.336	82.7788	319.336	82.6604	319.336	82.9284	319.336	82.8552	319.336	82.9557
329.59	85.9892	329.59	85.99	329.59	85.959	329.59	85.9567	329.59	85.8908	329.59	85.8762	329.59	85.7634	329.59	85.7354	329.59	85.5522	329.59	85.5262	329.59	85.2431	329.59	85.2477	329.59	84.8446	329.59	84.9007	329.59	84.3884	329.59	84.4844	329.59	83.9129	329.59	83.9977	329.59	83.4351	329.59	83.4534	329.59	82.9411	329.59	82.897	329.59	82.4187	329.59	82.4202	329.59	81.9176	329.59	82.1419	329.59	81.5733	329.59	82.1381	329.59	81.5304	329.59	82.3654	329.59	81.8021	329.59	82.6713	329.59	82.2422	329.59	82.8839	329.59	82.6535	329.59	82.8879
341.309	86.1056	341.309	86.2162	341.309	85.9084	341.309	86.2201	341.309	85.6541	341.309	86.1065	341.309	85.375	341.309	85.8757	341.309	85.0924	341.309	85.5417	341.309	84.8061	341.309	85.1325	341.309	84.4984	341.309	84.6805	341.309	84.1552	341.309	84.2037	341.309	83.7853	341.309	83.6981	341.309	83.422	341.309	83.1575	341.309	83.1011	341.309	82.6121	341.309	82.843	341.309	82.1485	341.309	82.6606	341.309	81.8731	341.309	82.5762	341.309	81.8417	341.309	82.6091	341.309	82.0254	341.309	82.7382	341.309	82.3357	341.309	82.8881	341.309	82.6583	341.309	82.9612	341.309	82.8871
353.027	86.1589	353.027	86.1279	353.027	86.1351	353.027	86.0533	353.027	86.042	353.027	85.9388	353.027	85.8673	353.027	85.7796	353.027	85.6048	353.027	85.5653	353.027	85.2502	353.027	85.2858	353.027	84.7931	353.027	84.938	353.027	84.214	353.027	84.5265	353.027	83.4962	353.027	84.0572	353.027	82.6524	353.027	83.5317	353.027	81.7513	353.027	82.9632	353.027	80.933	353.027	82.4173	353.027	80.3911	353.027	82.0316	353.027	80.2896	353.027	81.9361	353.027	80.6298	353.027	82.1094	353.027	81.2224	353.027	82.3751	353.027	81.8283	353.027	82.5496	353.027	82.2871	353.027	82.5312
366.211	86.0161	366.211	85.9487	366.211	86.0124	366.211	85.8067	366.211	85.9467	366.211	85.5968	366.211	85.8244	366.211	85.3325	366.211	85.6452	366.211	85.0229	366.211	85.4058	366.211	84.6642	366.211	85.0993	366.211	84.2438	366.211	84.7048	366.211	83.7595	366.211	84.1821	366.211	83.2367	366.211	83.4901	366.211	82.7219	366.211	82.6307	366.211	82.2488	366.211	81.6995	366.211	81.8188	366.211	80.9001	366.211	81.4383	366.211	80.4514	366.211	81.1715	366.211	80.4169	366.211	81.1034	366.211	80.6678	366.211	81.2192	366.211	81.013	366.211	81.378	366.211	81.2979	366.211	81.4274
379.395	86.651	379.395	86.5638	379.395	86.6659	379.395	86.4173	379.395	86.6086	379.395	86.2269	379.395	86.4876	379.395	85.9948	379.395	86.3057	379.395	85.7031	379.395	86.0518	379.395	85.3223	379.395	85.7114	379.395	84.8292	379.395	85.2841	379.395	84.22	379.395	84.7863	379.395	83.5197	379.395	84.2269	379.395	82.7931	379.395	83.5807	379.395	82.1474	379.395	82.8041	379.395	81.6897	379.395	81.9125	379.395	81.4528	379.395	81.08	379.395	81.39	379.395	80.6251	379.395	81.4489	379.395	80.716	379.395	81.5913	379.395	81.1414	379.395	81.7383	379.395	81.5562	379.395	81.7607
392.578	86.1092	392.578	86.0251	392.578	86.1295	392.578	85.8984	392.578	86.0629	392.578	85.7403	392.578	85.9031	392.578	85.556	392.578	85.6722	392.578	85.3454	392.578	85.4098	392.578	85.0945	392.578	85.1412	392.578	84.7718	392.578	84.8498	392.578	84.3391	392.578	84.4838	392.578	83.7689	392.578	83.9975	392.578	83.0654	392.578	83.3956	392.578	82.3042	392.578	82.7505	392.578	81.6796	392.578	82.1741	392.578	81.436	392.578	81.761	392.578	81.6156	392.578	81.5553	392.578	81.9817	392.578	81.5635	392.578	82.2709	392.578	81.7512	392.578	82.3637	392.578	82.0244	392.578	82.2613
405.762	86.1792	405.762	86.1045	405.762	86.1617	405.762	85.9397	405.762	86.0524	405.762	85.696	405.762	85.8505	405.762	85.3983	405.762	85.5523	405.762	85.083	405.762	85.1583	405.762	84.7772	405.762	84.6875	405.762	84.4709	405.762	84.1848	405.762	84.1137	405.762	83.6991	405.762	83.6497	405.762	83.2389	405.762	83.0629	405.762	82.7601	405.762	82.3962	405.762	82.2253	405.762	81.7461	405.762	81.6907	405.762	81.2488	405.762	81.3188	405.762	81.0377	405.762	81.2433	405.762	81.14	405.762	81.4153	405.762	81.4244	405.762	81.6611	405.762	81.7032	405.762	81.8319	405.762	81.8524
420.41	86.4164	420.41	86.3753	420.41	86.3708	420.41	86.2398	420.41	86.2428	420.41	86.0005	420.41	86.0399	420.41	85.6522	420.41	85.7759	420.41	85.201	420.41	85.4617	420.41	84.6684	420.41	85.0826	420.41	84.0856	420.41	84.5915	420.41	83.4708	420.41	83.9335	420.41	82.8138	420.41	83.0869	420.41	82.1051	420.41	82.0874	420.41	81.4095	420.41	81.0277	420.41	80.912	420.41	80.0656	420.41	80.8151	420.41	79.4599	420.41	81.1097	420.41	79.474	420.41	81.5576	420.41	80.0577	420.41	81.9131	420.41	80.8409	420.41	82.0452	420.41	81.5024	420.41	81.9113
435.059	85.8946	435.059	85.902	435.059	85.8095	435.059	85.8324	435.059	85.6579	435.059	85.6927	435.059	85.4605	435.059	85.4842	435.059	85.2378	435.059	85.1926	435.059	84.9992	435.059	84.7909	435.059	84.7387	435.059	84.2536	435.059	84.434	435.059	83.5688	435.059	84.0471	435.059	82.7385	435.059	83.533	435.059	81.7739	435.059	82.8671	435.059	80.7175	435.059	82.0836	435.059	79.7236	435.059	81.298	435.059	79.1449	435.059	80.6743	435.059	79.3281	435.059	80.3535	435.059	80.1196	435.059	80.4035	435.059	80.9821	435.059	80.773	435.059	81.5119	435.059	81.2581	435.059	81.5783
451.172	86.496	451.172	86.3479	451.172	86.5441	451.172	86.1282	451.172	86.4646	451.172	85.8589	451.172	86.2471	451.172	85.5568	451.172	85.9102	451.172	85.2346	451.172	85.4973	451.172	84.882	451.172	85.0495	451.172	84.4426	451.172	84.5728	451.172	83.825	451.172	84.03	451.172	82.9693	451.172	83.3612	451.172	81.934	451.172	82.5157	451.172	80.9209	451.172	81.4938	451.172	80.1493	451.172	80.4319	451.172	79.7125	451.172	79.6959	451.172	79.67	451.172	79.6714	451.172	80.0813	451.172	80.2527	451.172	80.767	451.172	80.9705	451.172	81.3646	451.172	81.479	451.172	81.625
465.82	86.3699	465.82	86.2765	465.82	86.3481	465.82	86.0725	465.82	86.2301	465.82	85.7894	465.82	86.0408	465.82	85.4681	465.82	85.7969	465.82	85.1372	465.82	85.508	465.82	84.8053	465.82	85.1816	465.82	84.4596	465.82	84.8124	465.82	84.0416	465.82	84.3612	465.82	83.4274	465.82	83.7545	465.82	82.4608	465.82	82.9075	465.82	81.0559	465.82	81.7634	465.82	79.4048	465.82	80.376	465.82	78.2003	465.82	79.0703	465.82	78.0489	465.82	78.4575	465.82	78.5455	465.82	78.7573	465.82	79.1119	465.82	79.4059	465.82	79.5765	465.82	79.8342	465.82	79.8641
483.398	86.271	483.398	86.2293	483.398	86.2488	483.398	86.12	483.398	86.1569	483.398	85.9322	483.398	85.9819	483.398	85.6613	483.398	85.7038	483.398	85.3233	483.398	85.3095	483.398	84.9407	483.398	84.8164	483.398	84.5066	483.398	84.2729	483.398	83.9717	483.398	83.7061	483.398	83.2737	483.398	83.0645	483.398	82.3684	483.398	82.2481	483.398	81.2366	483.398	81.2325	483.398	79.9294	483.398	80.1866	483.398	78.7644	483.398	79.4401	483.398	78.4011	483.398	79.2094	483.398	78.9996	483.398	79.4058	483.398	79.8442	483.398	79.8061	483.398	80.367	483.398	80.2124	483.398	80.4541
499.512	86.0467	499.512	86.0525	499.512	85.9625	499.512	85.9528	499.512	85.8266	499.512	85.7307	499.512	85.6576	499.512	85.39	499.512	85.4621	499.512	84.9656	499.512	85.2305	499.512	84.5144	499.512	84.9343	499.512	84.0757	499.512	84.5378	499.512	83.629	499.512	84.0173	499.512	83.0989	499.512	83.3553	499.512	82.3979	499.512	82.4939	499.512	81.4614	499.512	81.311	499.512	80.2849	499.512	79.7232	499.512	79.0543	499.512	78.0042	499.512	78.3387	499.512	77.0879	499.512	78.6524	499.512	77.5494	499.512	79.5261	499.512	78.6417	499.512	80.1523	499.512	79.625	499.512	80.1822
517.09	86.11	517.09	85.9762	517.09	86.07	517.09	85.7071	517.09	85.8744	517.09	85.3804	517.09	85.5761	517.09	85.0658	517.09	85.2305	517.09	84.7873	517.09	84.8883	517.09	84.5194	517.09	84.6135	517.09	84.2022	517.09	84.4479	517.09	83.7694	517.09	84.3083	517.09	83.1741	517.09	83.9713	517.09	82.3631	517.09	83.208	517.09	81.2248	517.09	81.9159	517.09	79.6504	517.09	80.1822	517.09	77.8977	517.09	78.3801	517.09	77.147	517.09	77.3327	517.09	78.1344	517.09	77.7738	517.09	79.614	517.09	79.1173	517.09	80.6053	517.09	80.3102	517.09	80.8479
536.133	86.3505	536.133	86.1918	536.133	86.2231	536.133	85.7894	536.133	85.8106	536.133	85.2127	536.133	85.1533	536.133	84.5291	536.133	84.3292	536.133	83.8118	536.133	83.4661	536.133	83.1987	536.133	82.7253	536.133	82.8627	536.133	82.2196	536.133	82.77	536.133	81.96	536.133	82.6093	536.133	81.8781	536.133	82.0944	536.133	81.796	536.133	81.1565	536.133	81.427	536.133	79.8216	536.133	80.5295	536.133	77.9718	536.133	79.1197	536.133	75.4503	536.133	77.629	536.133	73.2463	536.133	76.7111	536.133	73.7389	536.133	76.5338	536.133	75.3967	536.133	76.6188	536.133	76.3786
555.176	87.9447	555.176	87.8749	555.176	87.8778	555.176	87.6327	555.176	87.6814	555.176	87.1811	555.176	87.3135	555.176	86.4852	555.176	86.701	555.176	85.5059	555.176	85.791	555.176	84.2483	555.176	84.6157	555.176	82.9274	555.176	83.3613	555.176	82.076	555.176	82.36	555.176	81.9813	555.176	81.8442	555.176	82.1212	555.176	81.6812	555.176	81.8756	555.176	81.5036	555.176	81.0495	555.176	80.941	555.176	79.7732	555.176	79.6957	555.176	78.2667	555.176	77.587	555.176	76.6153	555.176	74.7483	555.176	74.8236	555.176	72.3128	555.176	73.205	555.176	71.7701	555.176	72.2444
574.219	88.3627	574.219	88.271	574.219	88.3754	574.219	88.117	574.219	88.2564	574.219	87.8601	574.219	87.9698	574.219	87.4559	574.219	87.5108	574.219	86.8977	574.219	86.883	574.219	86.1508	574.219	86.0675	574.219	85.0813	574.219	85.0256	574.219	83.6023	574.219	83.7911	574.219	82.0774	574.219	82.6112	574.219	81.3351	574.219	81.8018	574.219	81.4071	574.219	81.3168	574.219	81.5579	574.219	80.9335	574.219	81.57	574.219	80.6472	574.219	81.5891	574.219	80.4733	574.219	81.5306	574.219	80.3128	574.219	81.1998	574.219	80.1421	574.219	80.6727	574.219	80.0704	574.219	80.2349
594.727	87.3313	594.727	87.2607	594.727	87.317	594.727	87.1152	594.727	87.2248	594.727	86.9109	594.727	87.0616	594.727	86.6274	594.727	86.81	594.727	86.2076	594.727	86.4115	594.727	85.6248	594.727	85.7902	594.727	84.8911	594.727	84.8879	594.727	83.9511	594.727	83.6834	594.727	82.6895	594.727	82.2707	594.727	81.2355	594.727	80.9125	594.727	80.2383	594.727	79.7834	594.727	80.1024	594.727	78.9557	594.727	80.2801	594.727	78.9404	594.727	80.448	594.727	79.7897	594.727	80.902	594.727	80.6393	594.727	81.6613	594.727	81.1908	594.727	82.1941	594.727	81.7029	594.727	82.1575
615.234	86.6376	615.234	86.7227	615.234	86.5644	615.234	86.7668	615.234	86.5378	615.234	86.7381	615.234	86.5117	615.234	86.6003	615.234	86.3819	615.234	86.2778	615.234	86.0702	615.234	85.6904	615.234	85.548	615.234	84.8329	615.234	84.7805	615.234	83.7694	615.234	83.6644	615.234	82.4785	615.234	82.0901	615.234	80.8035	615.234	80.214	615.234	78.8046	615.234	78.7002	615.234	77.3017	615.234	78.0994	615.234	77.202	615.234	78.2079	615.234	77.9409	615.234	78.7391	615.234	78.7219	615.234	79.4927	615.234	79.4266	615.234	80.2637	615.234	80.1446	615.234	80.761	615.234	80.7018
637.207	86.45	637.207	86.2487	637.207	86.417	637.207	85.9174	637.207	86.2176	637.207	85.599	637.207	86.0296	637.207	85.3483	637.207	85.9223	637.207	85.1373	637.207	85.7873	637.207	84.8843	637.207	85.4989	637.207	84.4475	637.207	85.0458	637.207	83.7031	637.207	84.4884	637.207	82.6762	637.207	83.7792	637.207	81.4591	637.207	82.6738	637.207	79.9896	637.207	80.9449	637.207	78.4555	637.207	78.7406	637.207	78.0885	637.207	77.0233	637.207	79.1858	637.207	77.1716	637.207	80.26	637.207	78.5412	637.207	80.7666	637.207	79.789	637.207	80.9406	637.207	80.5762	637.207	80.9234
659.18	85.7336	659.18	85.7127	659.18	85.667	659.18	85.5543	659.18	85.5099	659.18	85.2619	659.18	85.2486	659.18	84.9249	659.18	84.9649	659.18	84.5688	659.18	84.7318	659.18	84.0951	659.18	84.4582	659.18	83.428	659.18	83.9823	659.18	82.5305	659.18	83.1896	659.18	81.2747	659.18	82.0367	659.18	79.6058	659.18	80.5965	659.18	77.9513	659.18	78.984	659.18	77.0021	659.18	77.2089	659.18	76.8394	659.18	75.6699	659.18	77.3432	659.18	75.5372	659.18	78.2495	659.18	76.5834	659.18	78.9518	659.18	77.6062	659.18	79.1169	659.18	78.3115	659.18	78.8268
682.617	84.7463	682.617	84.6509	682.617	84.8005	682.617	84.6094	682.617	84.717	682.617	84.5687	682.617	84.4951	682.617	84.4153	682.617	84.1731	682.617	84.15	682.617	83.8058	682.617	83.8226	682.617	83.4573	682.617	83.3382	682.617	83.0797	682.617	82.5009	682.617	82.4573	682.617	81.2271	682.617	81.2912	682.617	79.5576	682.617	79.3676	682.617	77.4477	682.617	76.8244	682.617	75.0658	682.617	74.4527	682.617	73.9183	682.617	73.7381	682.617	75.0859	682.617	74.8794	682.617	77.2588	682.617	76.4201	682.617	79.2194	682.617	77.8891	682.617	80.2388	682.617	79.2474	682.617	80.1663
707.52	84.3468	707.52	84.2852	707.52	84.4841	707.52	84.2295	707.52	84.6204	707.52	84.1432	707.52	84.6587	707.52	84.186	707.52	84.6143	707.52	84.4474	707.52	84.5346	707.52	84.7193	707.52	84.4744	707.52	84.7648	707.52	84.5006	707.52	84.4634	707.52	84.5135	707.52	83.6388	707.52	84.1644	707.52	81.9841	707.52	82.9541	707.52	79.0939	707.52	80.2894	707.52	74.5538	707.52	75.3966	707.52	71.0598	707.52	68.1838	707.52	74.1624	707.52	71.1822	707.52	77.3594	707.52	75.8198	707.52	79.4995	707.52	78.6098	707.52	80.8506	707.52	80.4073	707.52	81.215
732.422	86.4797	732.422	86.5175	732.422	86.1798	732.422	86.2208	732.422	85.7945	732.422	85.7506	732.422	85.3475	732.422	85.2942	732.422	84.8492	732.422	84.8892	732.422	84.5449	732.422	84.5978	732.422	84.6082	732.422	84.5437	732.422	84.8069	732.422	84.5358	732.422	84.8218	732.422	84.1613	732.422	84.5669	732.422	83.1113	732.422	84.0394	732.422	81.0952	732.422	82.8966	732.422	77.7496	732.422	80.4891	732.422	73.9309	732.422	76.3946	732.422	75.4678	732.422	73.1713	732.422	78.7944	732.422	76.7903	732.422	80.2452	732.422	79.9501	732.422	80.4085	732.422	80.8224	732.422	80.5318
757.324	86.8052	757.324	86.6504	757.324	86.6041	757.324	86.1522	757.324	86.0867	757.324	85.4053	757.324	85.3915	757.324	84.7079	757.324	84.7145	757.324	84.5078	757.324	84.2448	757.324	84.7891	757.324	84.1314	757.324	85.1503	757.324	84.2889	757.324	85.4482	757.324	84.448	757.324	85.4549	757.324	84.3687	757.324	84.6755	757.324	83.7892	757.324	82.7134	757.324	82.4485	757.324	79.0591	757.324	80.0815	757.324	72.1438	757.324	76.1544	757.324	70.3535	757.324	72.2754	757.324	76.2848	757.324	75.0515	757.324	79.1649	757.324	78.4096	757.324	80.8691	757.324	80.6099	757.324	81.475
785.156	87.3201	785.156	86.8695	785.156	87.4701	785.156	86.3519	785.156	87.1091	785.156	85.7105	785.156	86.4446	785.156	84.6766	785.156	85.8588	785.156	83.2139	785.156	85.2239	785.156	82.2525	785.156	84.4649	785.156	82.7569	785.156	84.2593	785.156	83.434	785.156	84.5147	785.156	83.2289	785.156	84.2703	785.156	82.466	785.156	83.2147	785.156	81.3092	785.156	81.3962	785.156	78.3037	785.156	78.7329	785.156	69.9909	785.156	74.4849	785.156	71.8197	785.156	68.2067	785.156	78.1829	785.156	73.5311	785.156	81.1267	785.156	78.9949	785.156	82.4016	785.156	81.7354	785.156	82.6276
811.523	86.4151	811.523	86.4393	811.523	86.2973	811.523	86.2373	811.523	85.8735	811.523	85.5874	811.523	84.9802	811.523	84.6285	811.523	83.8581	811.523	83.6818	811.523	82.6681	811.523	82.8394	811.523	81.1483	811.523	82.33	811.523	80.1384	811.523	82.4554	811.523	80.9844	811.523	82.746	811.523	82.2564	811.523	82.3897	811.523	82.7248	811.523	81.0376	811.523	82.1576	811.523	78.9001	811.523	80.3901	811.523	75.1979	811.523	77.5297	811.523	65.248	811.523	74.6398	811.523	70.4437	811.523	74.117	811.523	75.9029	811.523	75.1533	811.523	77.7791	811.523	76.5378	811.523	77.7612
840.82	86.0388	840.82	86.199	840.82	85.899	840.82	86.196	840.82	85.7324	840.82	85.8253	840.82	85.1881	840.82	84.9538	840.82	84.0969	840.82	83.7408	840.82	82.8794	840.82	82.5752	840.82	82.0688	840.82	81.5302	840.82	81.713	840.82	80.8857	840.82	81.9705	840.82	81.2663	840.82	82.904	840.82	81.6934	840.82	83.5135	840.82	80.5542	840.82	82.7809	840.82	77.4409	840.82	80.3507	840.82	73.3392	840.82	76.0438	840.82	70.0805	840.82	68.7793	840.82	70.5538	840.82	72.279	840.82	75.6862	840.82	77.41	840.82	78.8433	840.82	79.1798	840.82	79.6824
870.117	86.5591	870.117	86.4262	870.117	86.2256	870.117	85.7885	870.117	85.8448	870.117	84.972	870.117	85.4415	870.117	83.9378	870.117	84.6268	870.117	82.3025	870.117	83.3883	870.117	80.5713	870.117	82.3339	870.117	80.2261	870.117	81.5535	870.117	81.1852	870.117	80.672	870.117	82.0819	870.117	80.7623	870.117	82.0462	870.117	81.44	870.117	81.3663	870.117	80.8316	870.117	79.9863	870.117	78.2582	870.117	75.5854	870.117	73.7967	870.117	67.8768	870.117	68.4264	870.117	75.2968	870.117	74.6537	870.117	78.2688	870.117	79.7635	870.117	79.7847	870.117	81.5306	870.117	81.1143
900.879	86.4751	900.879	86.1638	900.879	86.7245	900.879	85.9538	900.879	86.78	900.879	85.6545	900.879	86.6278	900.879	84.9183	900.879	86.0022	900.879	83.6465	900.879	84.6625	900.879	82.114	900.879	82.8857	900.879	80.8989	900.879	81.2771	900.879	80.2051	900.879	80.585	900.879	80.1773	900.879	80.92	900.879	80.7422	900.879	81.2306	900.879	79.9705	900.879	80.5672	900.879	76.4743	900.879	78.4683	900.879	69.2686	900.879	74.3317	900.879	63.967	900.879	67.3418	900.879	75.5118	900.879	71.1437	900.879	79.2822	900.879	76.6669	900.879	80.3701	900.879	79.373	900.879	80.3583
933.105	86.4504	933.105	86.4165	933.105	86.225	933.105	85.9715	933.105	85.7111	933.105	85.2767	933.105	84.9407	933.105	84.4728	933.105	84.1346	933.105	83.1311	933.105	83.0091	933.105	81.0428	933.105	81.0785	933.105	79.3179	933.105	79.4613	933.105	79.8253	933.105	79.9253	933.105	81.2798	933.105	81.0017	933.105	82.0618	933.105	81.7855	933.105	81.77	933.105	81.7069	933.105	80.258	933.105	79.971	933.105	76.63	933.105	75.0624	933.105	63.8554	933.105	56.0814	933.105	72.3374	933.105	73.8287	933.105	78.6429	933.105	79.3823	933.105	81.2171	933.105	81.7205	933.105	82.2243
965.332	86.8233	965.332	87.1058	965.332	86.514	965.332	87.1234	965.332	86.5391	965.332	86.9908	965.332	86.5468	965.332	86.6104	965.332	85.9306	965.332	85.5394	965.332	84.6066	965.332	83.4286	965.332	82.5018	965.332	80.4033	965.332	79.1297	965.332	77.646	965.332	76.0934	965.332	78.8302	965.332	77.6399	965.332	81.3129	965.332	80.0297	965.332	81.7909	965.332	81.0305	965.332	79.5228	965.332	80.784	965.332	73.5457	965.332	78.3896	965.332	58.7664	965.332	70.5174	965.332	74.6126	965.332	67.0651	965.332	79.8098	965.332	76.2845	965.332	81.3965	965.332	80.0131	965.332	81.3458
1,000.49	85.6283	1,000.49	85.6925	1,000.49	85.6261	1,000.49	85.7231	1,000.49	85.6034	1,000.49	85.5043	1,000.49	85.5363	1,000.49	85.0969	1,000.49	85.2941	1,000.49	84.3668	1,000.49	84.7168	1,000.49	82.978	1,000.49	83.4078	1,000.49	80.9127	1,000.49	80.9077	1,000.49	79.3819	1,000.49	77.6423	1,000.49	80.108	1,000.49	78.0331	1,000.49	81.5331	1,000.49	81.2547	1,000.49	82.4694	1,000.49	82.318	1,000.49	82.3254	1,000.49	81.2521	1,000.49	80.119	1,000.49	78.2149	1,000.49	73.8168	1,000.49	70.4746	1,000.49	60.1549	1,000.49	65.7774	1,000.49	74.2152	1,000.49	75.8156	1,000.49	78.837	1,000.49	78.7511	1,000.49	79.7436
1,035.64	85.7544	1,035.64	85.5333	1,035.64	85.6934	1,035.64	85.2961	1,035.64	85.3198	1,035.64	85.3946	1,035.64	85.0308	1,035.64	85.291	1,035.64	85.1496	1,035.64	84.1463	1,035.64	85.0286	1,035.64	82.2099	1,035.64	84.0391	1,035.64	80.0495	1,035.64	81.7785	1,035.64	76.3771	1,035.64	77.8251	1,035.64	73.7954	1,035.64	72.939	1,035.64	79.1599	1,035.64	76.3833	1,035.64	81.5225	1,035.64	79.5401	1,035.64	80.8219	1,035.64	79.998	1,035.64	78.4549	1,035.64	78.4018	1,035.64	73.0032	1,035.64	72.8476	1,035.64	61.7388	1,035.64	71.3705	1,035.64	75.5496	1,035.64	77.3336	1,035.64	79.8551	1,035.64	79.6968	1,035.64	80.8224
1,072.27	84.9263	1,072.27	84.7975	1,072.27	84.9175	1,072.27	84.5322	1,072.27	84.8587	1,072.27	84.3825	1,072.27	84.6085	1,072.27	84.388	1,072.27	84.3714	1,072.27	84.472	1,072.27	83.9465	1,072.27	83.7322	1,072.27	83.1034	1,072.27	81.3249	1,072.27	81.5141	1,072.27	78.0194	1,072.27	78.3041	1,072.27	76.4023	1,072.27	73.9078	1,072.27	78.2502	1,072.27	74.0961	1,072.27	80.6484	1,072.27	77.8666	1,072.27	80.9223	1,072.27	79.7542	1,072.27	78.7775	1,072.27	79.5477	1,072.27	72.3018	1,072.27	76.6028	1,072.27	66.9113	1,072.27	72.9313	1,072.27	75.9262	1,072.27	74.8175	1,072.27	78.9948	1,072.27	78.6612	1,072.27	80.063
1,108.89	85.1765	1,108.89	85.1299	1,108.89	85.1444	1,108.89	84.7608	1,108.89	84.7723	1,108.89	84.2262	1,108.89	84.1492	1,108.89	83.9396	1,108.89	83.3804	1,108.89	83.1998	1,108.89	82.7271	1,108.89	82.2444	1,108.89	82.1494	1,108.89	81.4341	1,108.89	81.2925	1,108.89	79.6586	1,108.89	79.477	1,108.89	75.8257	1,108.89	76.1502	1,108.89	75.5392	1,108.89	73.6978	1,108.89	78.7404	1,108.89	76.6847	1,108.89	80.2957	1,108.89	79.8257	1,108.89	78.9528	1,108.89	79.2281	1,108.89	73.2429	1,108.89	75.8314	1,108.89	59.9505	1,108.89	67.7691	1,108.89	69.6769	1,108.89	67.7111	1,108.89	75.2538	1,108.89	74.8787	1,108.89	76.5333
1,148.44	84.8448	1,148.44	84.7612	1,148.44	84.6301	1,148.44	84.4991	1,148.44	84.5392	1,148.44	84.0156	1,148.44	84.1128	1,148.44	83.5073	1,148.44	83.0413	1,148.44	83.2919	1,148.44	82.3623	1,148.44	82.455	1,148.44	82.4876	1,148.44	81.1682	1,148.44	82.2255	1,148.44	79.1503	1,148.44	80.9615	1,148.44	75.0922	1,148.44	77.4043	1,148.44	73.623	1,148.44	72.4965	1,148.44	77.304	1,148.44	75.5269	1,148.44	78.7575	1,148.44	76.9118	1,148.44	77.9497	1,148.44	77.4256	1,148.44	74.1669	1,148.44	74.713	1,148.44	56.4175	1,148.44	67.8005	1,148.44	72.2586	1,148.44	67.9906	1,148.44	75.5848	1,148.44	75.0058	1,148.44	76.7016
1,189.45	85.2891	1,189.45	85.116	1,189.45	85.6026	1,189.45	84.6413	1,189.45	85.2776	1,189.45	83.8418	1,189.45	84.2398	1,189.45	83.0588	1,189.45	83.4	1,189.45	82.1007	1,189.45	82.4501	1,189.45	81.243	1,189.45	81.5308	1,189.45	80.3503	1,189.45	80.81	1,189.45	78.8041	1,189.45	80.0648	1,189.45	76.5544	1,189.45	78.2346	1,189.45	73.4781	1,189.45	75.2583	1,189.45	76.404	1,189.45	73.2253	1,189.45	77.5212	1,189.45	75.9603	1,189.45	75.6724	1,189.45	77.3306	1,189.45	71.4959	1,189.45	74.8425	1,189.45	60.8555	1,189.45	66.9746	1,189.45	69.1282	1,189.45	65.2083	1,189.45	74.2477	1,189.45	71.6479	1,189.45	73.2989
1,230.47	86.0722	1,230.47	85.6803	1,230.47	85.5096	1,230.47	84.7934	1,230.47	84.9679	1,230.47	83.8608	1,230.47	84.3603	1,230.47	82.3854	1,230.47	83.154	1,230.47	81.9115	1,230.47	82.1402	1,230.47	81.7905	1,230.47	81.5338	1,230.47	80.0288	1,230.47	81.1023	1,230.47	78.5153	1,230.47	79.596	1,230.47	76.3669	1,230.47	77.1312	1,230.47	72.3357	1,230.47	73.6985	1,230.47	75.8806	1,230.47	74.2151	1,230.47	77.4881	1,230.47	76.8617	1,230.47	74.9807	1,230.47	76.3596	1,230.47	66.3391	1,230.47	72.2412	1,230.47	64.927	1,230.47	58.9878	1,230.47	73.8494	1,230.47	68.387	1,230.47	77.2564	1,230.47	74.527	1,230.47	77.0143
1,274.41	86.784	1,274.41	86.6055	1,274.41	86.757	1,274.41	85.9486	1,274.41	85.9425	1,274.41	84.8516	1,274.41	85.0852	1,274.41	84.0264	1,274.41	84.6139	1,274.41	82.9236	1,274.41	83.7883	1,274.41	82.299	1,274.41	83.1308	1,274.41	82.456	1,274.41	82.3038	1,274.41	81.168	1,274.41	81.05	1,274.41	77.4753	1,274.41	78.2092	1,274.41	72.0936	1,274.41	75.8215	1,274.41	73.8095	1,274.41	76.778	1,274.41	77.5786	1,274.41	77.7546	1,274.41	77.1834	1,274.41	77.6673	1,274.41	74.182	1,274.41	75.6499	1,274.41	71.5404	1,274.41	69.489	1,274.41	74.7165	1,274.41	70.2725	1,274.41	77.9629	1,274.41	76.074	1,274.41	78.3992
1,319.82	87.9448	1,319.82	88.0285	1,319.82	87.9139	1,319.82	87.5708	1,319.82	87.3319	1,319.82	85.9011	1,319.82	86.1422	1,319.82	83.8739	1,319.82	84.5251	1,319.82	82.2207	1,319.82	82.6131	1,319.82	81.3658	1,319.82	81.7233	1,319.82	82.1665	1,319.82	81.1286	1,319.82	81.9658	1,319.82	81.3021	1,319.82	79.004	1,319.82	81.2869	1,319.82	74.347	1,319.82	75.9596	1,319.82	74.684	1,319.82	74.5861	1,319.82	77.1569	1,319.82	79.7855	1,319.82	79.1678	1,319.82	80.8425	1,319.82	78.457	1,319.82	78.4573	1,319.82	75.3497	1,319.82	72.7322	1,319.82	76.9829	1,319.82	75.858	1,319.82	80.1948	1,319.82	78.4733	1,319.82	80.4627
1,366.7	88.3326	1,366.7	88.0096	1,366.7	88.0774	1,366.7	87.8291	1,366.7	87.4532	1,366.7	87.32	1,366.7	87.3488	1,366.7	86.4237	1,366.7	86.6513	1,366.7	85.6539	1,366.7	84.6647	1,366.7	83.8849	1,366.7	82.7132	1,366.7	82.3077	1,366.7	81.4025	1,366.7	82.0865	1,366.7	81.3094	1,366.7	80.8713	1,366.7	80.7364	1,366.7	78.5982	1,366.7	76.3054	1,366.7	74.7041	1,366.7	71.5177	1,366.7	74.9633	1,366.7	76.3703	1,366.7	79.9052	1,366.7	79.452	1,366.7	79.8602	1,366.7	80.0512	1,366.7	76.3888	1,366.7	79.3352	1,366.7	74.0082	1,366.7	76.3156	1,366.7	74.7963	1,366.7	75.4177	1,366.7	76.1261
1,413.57	88.1583	1,413.57	87.8894	1,413.57	88.0832	1,413.57	87.7669	1,413.57	87.6537	1,413.57	87.446	1,413.57	87.0038	1,413.57	86.2903	1,413.57	86.047	1,413.57	84.8212	1,413.57	84.6336	1,413.57	83.8208	1,413.57	82.7367	1,413.57	83.0204	1,413.57	81.8612	1,413.57	82.6967	1,413.57	81.9799	1,413.57	81.6948	1,413.57	81.0118	1,413.57	79.0241	1,413.57	79.0666	1,413.57	74.3172	1,413.57	72.6625	1,413.57	74.3051	1,413.57	71.943	1,413.57	77.2154	1,413.57	75.4506	1,413.57	78.3901	1,413.57	76.4045	1,413.57	74.7834	1,413.57	73.2656	1,413.57	68.8114	1,413.57	64.4144	1,413.57	70.4335	1,413.57	69.9549	1,413.57	70.1128
1,463.38	87.638	1,463.38	87.8496	1,463.38	87.5431	1,463.38	87.2496	1,463.38	87.0583	1,463.38	86.932	1,463.38	85.9334	1,463.38	86.1895	1,463.38	84.968	1,463.38	85.0774	1,463.38	84.3098	1,463.38	84.0533	1,463.38	83.0786	1,463.38	82.1274	1,463.38	82.2692	1,463.38	81.6086	1,463.38	80.6242	1,463.38	80.0326	1,463.38	79.463	1,463.38	75.6392	1,463.38	76.8744	1,463.38	75.5125	1,463.38	71.2284	1,463.38	75.85	1,463.38	75.0024	1,463.38	78.2211	1,463.38	75.9036	1,463.38	76.826	1,463.38	77.6711	1,463.38	71.4255	1,463.38	75.8757	1,463.38	65.8275	1,463.38	68.0243	1,463.38	67.7962	1,463.38	66.4485	1,463.38	71.7574
1,516.11	86.8521	1,516.11	86.8156	1,516.11	86.8009	1,516.11	86.8089	1,516.11	86.566	1,516.11	86.2586	1,516.11	86.0844	1,516.11	85.6591	1,516.11	85.2279	1,516.11	84.1337	1,516.11	83.5665	1,516.11	81.0138	1,516.11	81.8142	1,516.11	78.7135	1,516.11	79.4363	1,516.11	77.5866	1,516.11	77.6387	1,516.11	76.6844	1,516.11	77.9305	1,516.11	75.5526	1,516.11	75.9993	1,516.11	70.9155	1,516.11	73.5944	1,516.11	74.6964	1,516.11	70.6706	1,516.11	76.4526	1,516.11	74.0792	1,516.11	76.2654	1,516.11	76.6471	1,516.11	74.1522	1,516.11	74.5562	1,516.11	66.5389	1,516.11	74.782	1,516.11	69.2497	1,516.11	72.7218	1,516.11	73.0591
1,568.85	85.9178	1,568.85	86.0555	1,568.85	86.0546	1,568.85	85.7454	1,568.85	85.7398	1,568.85	84.3698	1,568.85	84.7501	1,568.85	83.9206	1,568.85	83.92	1,568.85	82.9155	1,568.85	83.1338	1,568.85	82.0379	1,568.85	82.5619	1,568.85	80.533	1,568.85	80.6645	1,568.85	79.3394	1,568.85	78.1357	1,568.85	78.5248	1,568.85	76.317	1,568.85	76.4163	1,568.85	76.8125	1,568.85	73.1848	1,568.85	75.9169	1,568.85	73.633	1,568.85	70.7757	1,568.85	76.0639	1,568.85	75.3836	1,568.85	77.5891	1,568.85	76.0937	1,568.85	74.4295	1,568.85	75.6604	1,568.85	70.9457	1,568.85	73.4361	1,568.85	61.7258	1,568.85	69.9831	1,568.85	67.3036
1,624.51	86.7816	1,624.51	87.0102	1,624.51	86.6375	1,624.51	85.7779	1,624.51	86.6514	1,624.51	84.8731	1,624.51	85.968	1,624.51	84.446	1,624.51	84.8913	1,624.51	82.5988	1,624.51	84.225	1,624.51	81.2228	1,624.51	82.9392	1,624.51	79.1585	1,624.51	81.4005	1,624.51	77.5059	1,624.51	79.9776	1,624.51	76.8469	1,624.51	79.4507	1,624.51	75.7179	1,624.51	79.7591	1,624.51	69.8801	1,624.51	75.8909	1,624.51	48.3786	1,624.51	73.2838	1,624.51	71.3345	1,624.51	73.7812	1,624.51	75.3126	1,624.51	76.6255	1,624.51	76.2485	1,624.51	74.9873	1,624.51	63.015	1,624.51	70.9345	1,624.51	67.9583	1,624.51	66.5711	1,624.51	61.7725
1,681.64	88.7769	1,681.64	88.5523	1,681.64	88.7207	1,681.64	87.933	1,681.64	88.0224	1,681.64	87.3997	1,681.64	86.968	1,681.64	85.3632	1,681.64	85.8745	1,681.64	83.8604	1,681.64	83.9607	1,681.64	82.9303	1,681.64	83.4316	1,681.64	81.2951	1,681.64	80.9794	1,681.64	78.8235	1,681.64	79.6364	1,681.64	75.9847	1,681.64	80.1746	1,681.64	77.9655	1,681.64	78.8127	1,681.64	75.7113	1,681.64	74.5529	1,681.64	71.1758	1,681.64	71.4213	1,681.64	72.6834	1,681.64	73.9641	1,681.64	74.9885	1,681.64	74.3406	1,681.64	74.8837	1,681.64	74.8135	1,681.64	68.8434	1,681.64	70.5963	1,681.64	60.3867	1,681.64	64.1234	1,681.64	60.1447
1,741.7	89.14	1,741.7	88.6519	1,741.7	88.7925	1,741.7	87.8829	1,741.7	87.9661	1,741.7	87.704	1,741.7	86.6103	1,741.7	86.3872	1,741.7	86.3253	1,741.7	84.1489	1,741.7	84.412	1,741.7	83.6897	1,741.7	82.7324	1,741.7	79.9634	1,741.7	80.8343	1,741.7	78.2669	1,741.7	80.2776	1,741.7	78.1605	1,741.7	79.8555	1,741.7	76.4571	1,741.7	77.7209	1,741.7	75.5119	1,741.7	72.753	1,741.7	68.7393	1,741.7	74.5653	1,741.7	72.319	1,741.7	74.6203	1,741.7	75.2905	1,741.7	76.6885	1,741.7	74.4307	1,741.7	69.6829	1,741.7	70.1536	1,741.7	68.1322	1,741.7	62.7746	1,741.7	65.4384	1,741.7	64.9121
1,803.22	88.6715	1,803.22	88.5328	1,803.22	88.4478	1,803.22	88.0412	1,803.22	87.9079	1,803.22	87.2281	1,803.22	86.9769	1,803.22	86.1627	1,803.22	85.5311	1,803.22	84.8534	1,803.22	83.9813	1,803.22	83.6316	1,803.22	82.3297	1,803.22	81.7569	1,803.22	80.8223	1,803.22	79.4763	1,803.22	78.9158	1,803.22	77.9757	1,803.22	77.0401	1,803.22	77.8416	1,803.22	76.7584	1,803.22	76.5434	1,803.22	76.0921	1,803.22	73.5658	1,803.22	71.0844	1,803.22	72.3462	1,803.22	70.4416	1,803.22	75.5182	1,803.22	75.0669	1,803.22	74.4706	1,803.22	76.4874	1,803.22	70.1893	1,803.22	71.4116	1,803.22	61.7815	1,803.22	61.8578	1,803.22	62.7681
1,866.21	88.0197	1,866.21	88.046	1,866.21	87.8721	1,866.21	87.5933	1,866.21	87.4183	1,866.21	86.9468	1,866.21	86.6147	1,866.21	85.8723	1,866.21	85.52	1,866.21	84.5237	1,866.21	83.8057	1,866.21	83.1163	1,866.21	81.9253	1,866.21	82.1202	1,866.21	80.4677	1,866.21	80.4162	1,866.21	78.8705	1,866.21	77.9878	1,866.21	76.8644	1,866.21	77.0667	1,866.21	74.8968	1,866.21	76.0729	1,866.21	74.7663	1,866.21	70.5801	1,866.21	71.9688	1,866.21	71.4541	1,866.21	66.1566	1,866.21	74.6157	1,866.21	72.1948	1,866.21	74.2786	1,866.21	72.784	1,866.21	70.2141	1,866.21	71.6459	1,866.21	61.055	1,866.21	63.8538	1,866.21	54.9068
1,932.13	87.4376	1,932.13	87.0893	1,932.13	87.1692	1,932.13	86.662	1,932.13	86.8197	1,932.13	86.0482	1,932.13	86.1989	1,932.13	85.1703	1,932.13	85.2791	1,932.13	83.7911	1,932.13	83.7958	1,932.13	82.194	1,932.13	81.9378	1,932.13	79.8701	1,932.13	80.0834	1,932.13	78.6697	1,932.13	78.7582	1,932.13	76.7731	1,932.13	76.7581	1,932.13	75.1902	1,932.13	73.7062	1,932.13	75.032	1,932.13	74.6104	1,932.13	73.2951	1,932.13	73.411	1,932.13	69.4397	1,932.13	69.0944	1,932.13	71.9296	1,932.13	70.2538	1,932.13	71.9563	1,932.13	73.6096	1,932.13	68.1212	1,932.13	69.6653	1,932.13	50.5236	1,932.13	63.6194	1,932.13	48.2742
1,999.51	87.6539	1,999.51	87.1913	1,999.51	87.5895	1,999.51	86.6906	1,999.51	87.1612	1,999.51	85.7607	1,999.51	86.5717	1,999.51	84.7056	1,999.51	85.4366	1,999.51	83.627	1,999.51	84.5677	1,999.51	81.7451	1,999.51	82.7703	1,999.51	79.9933	1,999.51	81.4656	1,999.51	77.9764	1,999.51	79.4294	1,999.51	76.0506	1,999.51	77.5672	1,999.51	74.0751	1,999.51	75.7175	1,999.51	73.4638	1,999.51	74.716	1,999.51	71.1481	1,999.51	73.4627	1,999.51	69.6445	1,999.51	71.4066	1,999.51	71.0677	1,999.51	70.9423	1,999.51	69.1821	1,999.51	72.3009	1,999.51	64.299	1,999.51	71.0139	1,999.51	47.2852	1,999.51	63.7267	1,999.51	50.287
2,069.82	88.2267	2,069.82	88.1105	2,069.82	88.1466	2,069.82	87.3734	2,069.82	87.7141	2,069.82	86.5054	2,069.82	86.9579	2,069.82	85.3051	2,069.82	85.9524	2,069.82	83.8011	2,069.82	84.7846	2,069.82	82.1248	2,069.82	83.3278	2,069.82	80.3556	2,069.82	81.7656	2,069.82	78.9415	2,069.82	80.2534	2,069.82	76.5504	2,069.82	78.2511	2,069.82	74.0071	2,069.82	76.267	2,069.82	72.3382	2,069.82	74.4929	2,069.82	70.9209	2,069.82	74.3199	2,069.82	69.1195	2,069.82	71.3101	2,069.82	71.3857	2,069.82	71.5789	2,069.82	73.1396	2,069.82	72.9765	2,069.82	67.1806	2,069.82	69.8139	2,069.82	62.3475	2,069.82	65.3391	2,069.82	48.7255
2,143.07	88.362	2,143.07	88.1654	2,143.07	87.9886	2,143.07	87.7493	2,143.07	87.5233	2,143.07	86.95	2,143.07	86.6392	2,143.07	85.7117	2,143.07	85.6517	2,143.07	84.4121	2,143.07	84.5129	2,143.07	82.6457	2,143.07	82.8556	2,143.07	80.7572	2,143.07	80.7161	2,143.07	79.2802	2,143.07	79.7767	2,143.07	77.1532	2,143.07	77.7774	2,143.07	74.4326	2,143.07	75.5229	2,143.07	73.9952	2,143.07	74.8939	2,143.07	73.9348	2,143.07	74.5619	2,143.07	68.4886	2,143.07	70.903	2,143.07	70.7638	2,143.07	71.5855	2,143.07	72.7047	2,143.07	74.3978	2,143.07	70.0109	2,143.07	72.427	2,143.07	65.7643	2,143.07	66.5982	2,143.07	61.5144
2,219.24	87.7413	2,219.24	87.5613	2,219.24	87.4133	2,219.24	87.3028	2,219.24	86.7925	2,219.24	86.6997	2,219.24	85.8273	2,219.24	85.8038	2,219.24	84.7593	2,219.24	84.3317	2,219.24	83.5479	2,219.24	82.459	2,219.24	81.9037	2,219.24	80.812	2,219.24	80.3028	2,219.24	78.3717	2,219.24	78.0449	2,219.24	77.7207	2,219.24	76.5265	2,219.24	74.9815	2,219.24	75.4742	2,219.24	72.5055	2,219.24	72.6383	2,219.24	73.2321	2,219.24	72.4015	2,219.24	69.7416	2,219.24	71.1698	2,219.24	70.4617	2,219.24	69.5967	2,219.24	71.0802	2,219.24	70.3378	2,219.24	69.5984	2,219.24	71.4749	2,219.24	66.2651	2,219.24	69.1055	2,219.24	64.644
2,296.88	86.9158	2,296.88	87.0319	2,296.88	86.7238	2,296.88	86.4357	2,296.88	86.2995	2,296.88	85.6928	2,296.88	85.4081	2,296.88	84.6369	2,296.88	84.3678	2,296.88	83.3675	2,296.88	83.3236	2,296.88	82.1587	2,296.88	82.0948	2,296.88	80.1731	2,296.88	80.6143	2,296.88	78.5629	2,296.88	78.1218	2,296.88	76.1085	2,296.88	77.2011	2,296.88	74.3734	2,296.88	75.0924	2,296.88	72.566	2,296.88	71.4788	2,296.88	71.2654	2,296.88	72.002	2,296.88	69.8484	2,296.88	70.6552	2,296.88	70.3967	2,296.88	68.067	2,296.88	71.9066	2,296.88	70.4966	2,296.88	68.344	2,296.88	70.182	2,296.88	66.0289	2,296.88	66.5302	2,296.88	67.826
2,378.91	87.0628	2,378.91	86.8597	2,378.91	87.1602	2,378.91	86.1036	2,378.91	86.9531	2,378.91	85.0914	2,378.91	86.5953	2,378.91	84.0568	2,378.91	85.6175	2,378.91	82.4064	2,378.91	84.7233	2,378.91	80.4335	2,378.91	83.7599	2,378.91	78.6045	2,378.91	82.1073	2,378.91	77.1807	2,378.91	80.0697	2,378.91	75.0409	2,378.91	78.1502	2,378.91	71.8889	2,378.91	76.4852	2,378.91	70.2921	2,378.91	74.9604	2,378.91	70.5363	2,378.91	74.0218	2,378.91	68.9624	2,378.91	72.5021	2,378.91	67.3773	2,378.91	71.797	2,378.91	71.0976	2,378.91	72.1862	2,378.91	66.9996	2,378.91	71.3545	2,378.91	63.8615	2,378.91	68.8749	2,378.91	65.9887
2,462.4	88.2221	2,462.4	87.7857	2,462.4	88.6256	2,462.4	87.0588	2,462.4	88.5883	2,462.4	86.0741	2,462.4	88.167	2,462.4	84.5179	2,462.4	87.3169	2,462.4	83.0406	2,462.4	86.2571	2,462.4	81.6063	2,462.4	84.9533	2,462.4	79.4694	2,462.4	83.3424	2,462.4	77.6725	2,462.4	81.5814	2,462.4	75.3078	2,462.4	79.8734	2,462.4	74.0093	2,462.4	77.0804	2,462.4	71.047	2,462.4	75.4435	2,462.4	70.344	2,462.4	73.6637	2,462.4	69.2189	2,462.4	73.3377	2,462.4	66.6574	2,462.4	72.9547	2,462.4	70.0646	2,462.4	73.3215	2,462.4	70.1392	2,462.4	69.7969	2,462.4	64.4896	2,462.4	67.044	2,462.4	64.1693
2,548.83	87.962	2,548.83	87.6028	2,548.83	88.3044	2,548.83	87.1093	2,548.83	88.3769	2,548.83	86.374	2,548.83	87.8826	2,548.83	84.9797	2,548.83	87.0555	2,548.83	83.8419	2,548.83	85.7557	2,548.83	82.6222	2,548.83	84.0666	2,548.83	81.3226	2,548.83	82.6646	2,548.83	78.4923	2,548.83	80.2515	2,548.83	76.5598	2,548.83	78.3259	2,548.83	75.1639	2,548.83	76.3621	2,548.83	71.9416	2,548.83	73.0835	2,548.83	73.1326	2,548.83	72.4927	2,548.83	72.942	2,548.83	71.6261	2,548.83	71.0313	2,548.83	68.7328	2,548.83	72.8198	2,548.83	71.8884	2,548.83	72.8402	2,548.83	68.7999	2,548.83	68.1515	2,548.83	64.1628	2,548.83	67.5346
2,639.65	86.9167	2,639.65	86.891	2,639.65	86.7697	2,639.65	86.2399	2,639.65	86.7452	2,639.65	85.8683	2,639.65	85.8725	2,639.65	84.5404	2,639.65	85.3386	2,639.65	83.1609	2,639.65	83.8659	2,639.65	82.0919	2,639.65	81.9913	2,639.65	80.7367	2,639.65	80.228	2,639.65	78.1693	2,639.65	77.535	2,639.65	77.1919	2,639.65	74.7353	2,639.65	76.261	2,639.65	74.7839	2,639.65	73.8563	2,639.65	70.3182	2,639.65	72.7277	2,639.65	68.9792	2,639.65	73.8556	2,639.65	70.4555	2,639.65	72.5806	2,639.65	66.4894	2,639.65	72.2446	2,639.65	68.3893	2,639.65	70.2748	2,639.65	68.6439	2,639.65	66.7532	2,639.65	64.5124	2,639.65	67.4646
2,731.93	85.997	2,731.93	85.7403	2,731.93	85.7706	2,731.93	85.5645	2,731.93	85.3413	2,731.93	84.9539	2,731.93	84.7155	2,731.93	84.0392	2,731.93	83.7118	2,731.93	82.5048	2,731.93	82.2032	2,731.93	80.8692	2,731.93	80.4053	2,731.93	79.3267	2,731.93	78.23	2,731.93	77.0796	2,731.93	75.7115	2,731.93	76.1291	2,731.93	74.5694	2,731.93	74.8901	2,731.93	72.9771	2,731.93	73.0954	2,731.93	69.9301	2,731.93	71.1337	2,731.93	67.6714	2,731.93	72.2563	2,731.93	69.0689	2,731.93	71.2147	2,731.93	67.1775	2,731.93	71.3067	2,731.93	68.3947	2,731.93	67.833	2,731.93	69.4962	2,731.93	68.8755	2,731.93	64.5069	2,731.93	69.0223
2,828.61	85.7264	2,828.61	85.72	2,828.61	85.9334	2,828.61	85.7957	2,828.61	85.0514	2,828.61	84.8602	2,828.61	84.7789	2,828.61	84.4625	2,828.61	83.4436	2,828.61	83.6604	2,828.61	81.9544	2,828.61	81.182	2,828.61	80.1638	2,828.61	79.4234	2,828.61	78.0307	2,828.61	79.0678	2,828.61	76.8009	2,828.61	75.439	2,828.61	75.5277	2,828.61	74.8331	2,828.61	72.4724	2,828.61	74.1074	2,828.61	72.2897	2,828.61	69.2343	2,828.61	69.1532	2,828.61	71.585	2,828.61	69.7723	2,828.61	70.5044	2,828.61	71.2622	2,828.61	70.9965	2,828.61	70.134	2,828.61	68.9527	2,828.61	69.7095	2,828.61	67.563	2,828.61	66.6536	2,828.61	68.8154
2,928.22	86.3335	2,928.22	86.368	2,928.22	86.124	2,928.22	86.3952	2,928.22	85.582	2,928.22	86.0192	2,928.22	85.3326	2,928.22	85.5457	2,928.22	84.1044	2,928.22	84.4699	2,928.22	82.6182	2,928.22	82.458	2,928.22	81.1672	2,928.22	80.9602	2,928.22	78.9474	2,928.22	79.7447	2,928.22	76.9996	2,928.22	76.6615	2,928.22	75.4056	2,928.22	75.6069	2,928.22	73.8412	2,928.22	74.5818	2,928.22	74.8259	2,928.22	71.4592	2,928.22	71.5899	2,928.22	71.2626	2,928.22	71.0903	2,928.22	70.6431	2,928.22	71.7725	2,928.22	72.3262	2,928.22	71.5536	2,928.22	70.6934	2,928.22	71.7816	2,928.22	66.8139	2,928.22	63.037	2,928.22	67.5981
3,030.76	86.6047	3,030.76	86.686	3,030.76	86.3446	3,030.76	86.4215	3,030.76	85.92	3,030.76	86.323	3,030.76	85.4458	3,030.76	85.7054	3,030.76	84.6394	3,030.76	84.5804	3,030.76	83.2587	3,030.76	83.1311	3,030.76	81.2227	3,030.76	81.5728	3,030.76	79.5757	3,030.76	78.7846	3,030.76	78.1111	3,030.76	77.5555	3,030.76	76.7631	3,030.76	75.7795	3,030.76	74.4718	3,030.76	74.3346	3,030.76	74.4277	3,030.76	71.2975	3,030.76	71.305	3,030.76	72.7279	3,030.76	72.4283	3,030.76	70.4526	3,030.76	71.9203	3,030.76	72.5597	3,030.76	72.0757	3,030.76	71.7744	3,030.76	71.8442	3,030.76	63.5252	3,030.76	67.3144	3,030.76	66.8231
3,137.7	86.2597	3,137.7	86.3584	3,137.7	85.6922	3,137.7	86.3976	3,137.7	85.5098	3,137.7	86.3064	3,137.7	84.8722	3,137.7	85.6129	3,137.7	84.3707	3,137.7	83.9618	3,137.7	83.1893	3,137.7	83.0983	3,137.7	81.5855	3,137.7	81.1826	3,137.7	79.7249	3,137.7	78.228	3,137.7	78.0425	3,137.7	77.2574	3,137.7	76.3035	3,137.7	75.3829	3,137.7	75.0067	3,137.7	73.6291	3,137.7	73.3247	3,137.7	72.2827	3,137.7	71.7147	3,137.7	70.9419	3,137.7	71.2216	3,137.7	70.9986	3,137.7	71.6568	3,137.7	71.1871	3,137.7	71.7422	3,137.7	70.0448	3,137.7	71.2711	3,137.7	63.4922	3,137.7	65.886	3,137.7	66.3321
3,249.02	85.1004	3,249.02	85.2218	3,249.02	84.9509	3,249.02	85.238	3,249.02	84.852	3,249.02	85.3429	3,249.02	84.4621	3,249.02	84.5154	3,249.02	83.9847	3,249.02	83.4483	3,249.02	82.9119	3,249.02	82.1874	3,249.02	81.3657	3,249.02	79.9907	3,249.02	79.3174	3,249.02	78.0497	3,249.02	77.7928	3,249.02	76.8432	3,249.02	75.1507	3,249.02	74.9704	3,249.02	74.2273	3,249.02	73.3172	3,249.02	73.543	3,249.02	72.4465	3,249.02	73.0827	3,249.02	71.3692	3,249.02	69.7215	3,249.02	71.7762	3,249.02	70.9471	3,249.02	70.5091	3,249.02	70.6602	3,249.02	69.4451	3,249.02	71.1886	3,249.02	64.0225	3,249.02	65.3135	3,249.02	66.8719
3,363.28	84.562	3,363.28	84.8012	3,363.28	84.4611	3,363.28	85.1819	3,363.28	84.4311	3,363.28	85.1506	3,363.28	84.2588	3,363.28	84.2187	3,363.28	83.2341	3,363.28	82.8448	3,363.28	82.1987	3,363.28	81.2174	3,363.28	80.8945	3,363.28	79.0908	3,363.28	79.4869	3,363.28	77.6898	3,363.28	77.4331	3,363.28	75.6837	3,363.28	75.1946	3,363.28	73.6704	3,363.28	74.0236	3,363.28	72.3467	3,363.28	72.237	3,363.28	71.4632	3,363.28	72.0128	3,363.28	70.2866	3,363.28	70.6076	3,363.28	71.414	3,363.28	71.6773	3,363.28	69.5977	3,363.28	69.9878	3,363.28	69.5844	3,363.28	71.1183	3,363.28	65.7799	3,363.28	67.8397	3,363.28	67.2272
3,481.93	84.4248	3,481.93	84.7786	3,481.93	84.6832	3,481.93	85.3455	3,481.93	83.976	3,481.93	85.2396	3,481.93	83.9503	3,481.93	84.4462	3,481.93	83.1659	3,481.93	83.8465	3,481.93	82.0587	3,481.93	81.7596	3,481.93	80.0463	3,481.93	79.6524	3,481.93	78.5939	3,481.93	77.9128	3,481.93	77.2157	3,481.93	75.7736	3,481.93	75.3559	3,481.93	73.6635	3,481.93	73.1714	3,481.93	71.4728	3,481.93	69.8631	3,481.93	70.3343	3,481.93	70.0729	3,481.93	68.7385	3,481.93	68.5175	3,481.93	70.0794	3,481.93	70.9546	3,481.93	70.2333	3,481.93	70.3168	3,481.93	70.147	3,481.93	70.2967	3,481.93	63.7938	3,481.93	66.0878	3,481.93	65.5354
3,604.98	84.4231	3,604.98	84.8957	3,604.98	84.3658	3,604.98	84.8885	3,604.98	84.3742	3,604.98	84.8443	3,604.98	84.2159	3,604.98	84.2165	3,604.98	83.5464	3,604.98	83.3931	3,604.98	81.9347	3,604.98	81.5152	3,604.98	80.7529	3,604.98	79.4824	3,604.98	78.904	3,604.98	78.0892	3,604.98	77.6398	3,604.98	75.5632	3,604.98	75.6149	3,604.98	72.9352	3,604.98	74.0575	3,604.98	71.9886	3,604.98	72.969	3,604.98	71.4134	3,604.98	71.075	3,604.98	70.0676	3,604.98	68.8128	3,604.98	70.8239	3,604.98	70.5835	3,604.98	70.0783	3,604.98	68.7466	3,604.98	70.0912	3,604.98	70.7916	3,604.98	63.183	3,604.98	65.4029	3,604.98	63.6291
3,732.42	84.5676	3,732.42	84.9604	3,732.42	84.4491	3,732.42	85.126	3,732.42	84.9485	3,732.42	84.7362	3,732.42	84.6464	3,732.42	84.4981	3,732.42	83.8626	3,732.42	82.8159	3,732.42	82.4336	3,732.42	81.2622	3,732.42	80.9296	3,732.42	79.4175	3,732.42	79.3616	3,732.42	77.5511	3,732.42	77.1938	3,732.42	75.3358	3,732.42	75.8006	3,732.42	72.9189	3,732.42	73.6412	3,732.42	71.6278	3,732.42	72.4124	3,732.42	70.9353	3,732.42	70.1017	3,732.42	68.1178	3,732.42	70.4572	3,732.42	70.4861	3,732.42	70.4196	3,732.42	67.9701	3,732.42	68.4198	3,732.42	69.5314	3,732.42	70.7361	3,732.42	64.1613	3,732.42	64.2495	3,732.42	64.0017
3,864.26	83.6547	3,864.26	84.2577	3,864.26	83.3561	3,864.26	84.6363	3,864.26	83.3821	3,864.26	84.3186	3,864.26	83.102	3,864.26	83.9259	3,864.26	82.2063	3,864.26	81.9306	3,864.26	80.6933	3,864.26	80.4094	3,864.26	79.7303	3,864.26	78.4879	3,864.26	77.8786	3,864.26	76.6689	3,864.26	75.4407	3,864.26	73.9256	3,864.26	74.6462	3,864.26	73.0341	3,864.26	71.8873	3,864.26	70.1775	3,864.26	70.5802	3,864.26	69.3278	3,864.26	69.4566	3,864.26	68.3793	3,864.26	67.2451	3,864.26	69.1126	3,864.26	66.672	3,864.26	69.363	3,864.26	67.8966	3,864.26	69.8012	3,864.26	69.2239	3,864.26	62.7984	3,864.26	64.1043	3,864.26	64.3556
4,000.49	82.6277	4,000.49	82.7584	4,000.49	83.0851	4,000.49	82.6234	4,000.49	82.4537	4,000.49	82.6845	4,000.49	82.2399	4,000.49	81.3237	4,000.49	81.498	4,000.49	79.8872	4,000.49	80.4212	4,000.49	78.297	4,000.49	79.0814	4,000.49	76.5637	4,000.49	76.8573	4,000.49	74.0909	4,000.49	75.3786	4,000.49	72.2298	4,000.49	73.6447	4,000.49	70.5917	4,000.49	71.3165	4,000.49	69.2038	4,000.49	70.2268	4,000.49	68.3036	4,000.49	67.3793	4,000.49	68.108	4,000.49	67.0139	4,000.49	69.0417	4,000.49	68.3733	4,000.49	68.2429	4,000.49	67.0934	4,000.49	68.8015	4,000.49	67.3778	4,000.49	59.3688	4,000.49	64.0904	4,000.49	59.7289
4,141.11	82.5405	4,141.11	81.9352	4,141.11	83.0591	4,141.11	82.4048	4,141.11	82.5164	4,141.11	82.2468	4,141.11	82.3364	4,141.11	81.0866	4,141.11	81.9422	4,141.11	80.1494	4,141.11	80.7547	4,141.11	78.3449	4,141.11	78.6532	4,141.11	77.2497	4,141.11	76.6951	4,141.11	74.5067	4,141.11	75.538	4,141.11	72.5651	4,141.11	73.2389	4,141.11	70.0167	4,141.11	70.6908	4,141.11	68.933	4,141.11	68.7043	4,141.11	65.0005	4,141.11	67.5275	4,141.11	65.0792	4,141.11	67.2372	4,141.11	68.3189	4,141.11	66.8642	4,141.11	66.2659	4,141.11	66.1902	4,141.11	68.8555	4,141.11	68.7354	4,141.11	60.4728	4,141.11	63.5452	4,141.11	59.2859
4,287.6	82.0735	4,287.6	82.3697	4,287.6	81.8022	4,287.6	81.688	4,287.6	82.5017	4,287.6	81.4648	4,287.6	82.3948	4,287.6	81.3913	4,287.6	81.8678	4,287.6	79.6231	4,287.6	80.6338	4,287.6	78.1213	4,287.6	78.6442	4,287.6	75.7608	4,287.6	77.0146	4,287.6	73.6534	4,287.6	75.4459	4,287.6	72.4995	4,287.6	72.6189	4,287.6	69.9168	4,287.6	71.6089	4,287.6	67.0907	4,287.6	68.7765	4,287.6	65.6176	4,287.6	67.57	4,287.6	64.8267	4,287.6	64.753	4,287.6	63.7997	4,287.6	66.3382	4,287.6	64.7295	4,287.6	67.0491	4,287.6	67.9951	4,287.6	66.7432	4,287.6	60.3472	4,287.6	63.9768	4,287.6	61.3672
4,438.48	82.3461	4,438.48	82.9768	4,438.48	82.556	4,438.48	82.262	4,438.48	82.5189	4,438.48	82.3521	4,438.48	82.7577	4,438.48	81.9826	4,438.48	81.4007	4,438.48	80.3642	4,438.48	80.0507	4,438.48	77.5232	4,438.48	79.2932	4,438.48	75.3362	4,438.48	77.3153	4,438.48	74.042	4,438.48	74.6301	4,438.48	70.114	4,438.48	73.1046	4,438.48	69.0085	4,438.48	71.2368	4,438.48	65.6498	4,438.48	68.3299	4,438.48	65.4275	4,438.48	65.5006	4,438.48	64.462	4,438.48	65.8476	4,438.48	64.8429	4,438.48	65.951	4,438.48	64.9359	4,438.48	66.4841	4,438.48	64.392	4,438.48	64.8786	4,438.48	59.622	4,438.48	64.9665	4,438.48	60.5713
4,595.21	82.3394	4,595.21	81.7009	4,595.21	82.218	4,595.21	82.4858	4,595.21	81.5892	4,595.21	81.5987	4,595.21	81.3545	4,595.21	80.2006	4,595.21	81.0019	4,595.21	78.483	4,595.21	79.6074	4,595.21	77.8884	4,595.21	77.8142	4,595.21	75.55	4,595.21	75.7853	4,595.21	72.7802	4,595.21	74.0442	4,595.21	69.9264	4,595.21	71.0624	4,595.21	67.2004	4,595.21	69.3378	4,595.21	67.6316	4,595.21	66.0169	4,595.21	64.4291	4,595.21	65.9996	4,595.21	64.6982	4,595.21	64.8068	4,595.21	65.443	4,595.21	64.1734	4,595.21	64.9001	4,595.21	65.3234	4,595.21	64.7598	4,595.21	65.2778	4,595.21	61.8671	4,595.21	61.8223	4,595.21	59.5605
4,756.35	82.2603	4,756.35	82.2572	4,756.35	82.0558	4,756.35	80.8013	4,756.35	82.0764	4,756.35	80.7233	4,756.35	81.398	4,756.35	79.6183	4,756.35	81.1781	4,756.35	78.1441	4,756.35	79.9014	4,756.35	76.0689	4,756.35	77.5256	4,756.35	73.7775	4,756.35	74.948	4,756.35	70.0145	4,756.35	73.6037	4,756.35	70.9665	4,756.35	71.8929	4,756.35	68.444	4,756.35	69.7748	4,756.35	65.1177	4,756.35	67.9206	4,756.35	64.1282	4,756.35	63.6153	4,756.35	62.6553	4,756.35	65.9204	4,756.35	63.7369	4,756.35	64.7152	4,756.35	64.8488	4,756.35	66.1342	4,756.35	65.5311	4,756.35	64.4827	4,756.35	58.7429	4,756.35	64.3416	4,756.35	58.1826
4,924.8	83.3171	4,924.8	83.216	4,924.8	83.5073	4,924.8	82.9005	4,924.8	82.8307	4,924.8	82.1726	4,924.8	82.4101	4,924.8	81.6321	4,924.8	80.9373	4,924.8	80.0244	4,924.8	78.7887	4,924.8	77.4372	4,924.8	77.4208	4,924.8	74.7117	4,924.8	75.4998	4,924.8	73.1069	4,924.8	72.6544	4,924.8	70.0954	4,924.8	71.1951	4,924.8	69.8691	4,924.8	68.103	4,924.8	67.5836	4,924.8	66.589	4,924.8	63.6977	4,924.8	65.8981	4,924.8	63.4298	4,924.8	65.8364	4,924.8	60.6711	4,924.8	61.4647	4,924.8	63.9938	4,924.8	65.0929	4,924.8	63.3222	4,924.8	65.3522	4,924.8	59.3167	4,924.8	64.4452	4,924.8	58.9389
5,097.66	84.0143	5,097.66	83.3887	5,097.66	83.7991	5,097.66	83.2921	5,097.66	82.7348	5,097.66	81.703	5,097.66	82.2289	5,097.66	80.5499	5,097.66	80.7408	5,097.66	78.3309	5,097.66	79.2969	5,097.66	75.5447	5,097.66	77.3467	5,097.66	74.1063	5,097.66	74.6368	5,097.66	72.8578	5,097.66	74.3529	5,097.66	69.5512	5,097.66	69.6478	5,097.66	64.9771	5,097.66	68.9659	5,097.66	64.8291	5,097.66	67.1449	5,097.66	65.2275	5,097.66	63.4665	5,097.66	65.3217	5,097.66	60.423	5,097.66	62.9561	5,097.66	62.5002	5,097.66	65.0357	5,097.66	64.9858	5,097.66	64.7217	5,097.66	63.304	5,097.66	62.1486	5,097.66	62.6144	5,097.66	58.2391
5,277.83	83.5933	5,277.83	83.5177	5,277.83	82.7788	5,277.83	81.9265	5,277.83	82.6299	5,277.83	81.6747	5,277.83	81.0581	5,277.83	79.4642	5,277.83	80.4849	5,277.83	77.7765	5,277.83	78.8616	5,277.83	76.2161	5,277.83	76.687	5,277.83	73.8624	5,277.83	74.3628	5,277.83	71.3795	5,277.83	71.9484	5,277.83	69.6722	5,277.83	70.6946	5,277.83	68.0592	5,277.83	68.1117	5,277.83	66.5341	5,277.83	67.886	5,277.83	62.667	5,277.83	65.4178	5,277.83	62.2619	5,277.83	63.745	5,277.83	63.762	5,277.83	64.7357	5,277.83	64.863	5,277.83	66.0175	5,277.83	62.882	5,277.83	65.7548	5,277.83	56.7276	5,277.83	63.3873	5,277.83	55.3053
5,463.87	84.2101	5,463.87	83.7354	5,463.87	84.4172	5,463.87	82.4091	5,463.87	83.0601	5,463.87	80.8861	5,463.87	82.6413	5,463.87	80.0429	5,463.87	80.8382	5,463.87	77.6301	5,463.87	78.9602	5,463.87	76.5854	5,463.87	77.5042	5,463.87	74.0717	5,463.87	75.4166	5,463.87	73.0014	5,463.87	73.5973	5,463.87	71.0205	5,463.87	71.8938	5,463.87	70.5851	5,463.87	69.9719	5,463.87	66.0053	5,463.87	67.5236	5,463.87	66.6386	5,463.87	65.8597	5,463.87	62.9381	5,463.87	66.3055	5,463.87	61.6336	5,463.87	65.2957	5,463.87	63.6286	5,463.87	66.0129	5,463.87	64.3921	5,463.87	64.882	5,463.87	61.2419	5,463.87	64.0307	5,463.87	55.9606
5,657.23	85.0823	5,657.23	84.3342	5,657.23	84.6571	5,657.23	83.5297	5,657.23	83.7536	5,657.23	81.9178	5,657.23	82.0693	5,657.23	80.1885	5,657.23	80.8788	5,657.23	78.1955	5,657.23	79.5955	5,657.23	76.2476	5,657.23	77.7622	5,657.23	75.3985	5,657.23	76.2223	5,657.23	71.8899	5,657.23	74.5407	5,657.23	69.9279	5,657.23	71.8472	5,657.23	66.1469	5,657.23	69.2835	5,657.23	65.4806	5,657.23	68.068	5,657.23	62.0552	5,657.23	65.7491	5,657.23	63.6417	5,657.23	62.5265	5,657.23	60.8611	5,657.23	61.8819	5,657.23	63.2096	5,657.23	64.8666	5,657.23	63.1293	5,657.23	63.1149	5,657.23	58.4737	5,657.23	62.152	5,657.23	51.5609
5,856.45	84.4234	5,856.45	83.6458	5,856.45	84.0676	5,856.45	81.9541	5,856.45	82.933	5,856.45	80.4037	5,856.45	81.7048	5,856.45	78.2926	5,856.45	80.3619	5,856.45	77.3908	5,856.45	78.9197	5,856.45	76.5388	5,856.45	78.0566	5,856.45	75.4625	5,856.45	76.7826	5,856.45	72.0848	5,856.45	73.4349	5,856.45	70.0134	5,856.45	72.0855	5,856.45	68.0991	5,856.45	68.7919	5,856.45	65.211	5,856.45	66.7529	5,856.45	61.5106	5,856.45	62.1496	5,856.45	56.6791	5,856.45	63.9845	5,856.45	59.7511	5,856.45	62.5595	5,856.45	64.2494	5,856.45	64.2822	5,856.45	61.5814	5,856.45	63.3799	5,856.45	57.944	5,856.45	61.6929	5,856.45	53.7046
6,062.99	85.6512	6,062.99	85.1982	6,062.99	85.3795	6,062.99	83.3704	6,062.99	83.695	6,062.99	81.1761	6,062.99	82.5736	6,062.99	80.4193	6,062.99	80.6404	6,062.99	78.5305	6,062.99	79.2899	6,062.99	76.7921	6,062.99	78.3498	6,062.99	72.8128	6,062.99	75.8354	6,062.99	71.5461	6,062.99	73.6346	6,062.99	68.4414	6,062.99	71.6965	6,062.99	66.0843	6,062.99	68.3333	6,062.99	64.5875	6,062.99	66.6663	6,062.99	59.8787	6,062.99	63.3995	6,062.99	59.9302	6,062.99	62.2222	6,062.99	62.007	6,062.99	59.8096	6,062.99	62.0263	6,062.99	63.7651	6,062.99	62.5238	6,062.99	65.6156	6,062.99	59.7172	6,062.99	63.1825	6,062.99	51.3589
6,276.86	85.337	6,276.86	84.2806	6,276.86	84.7576	6,276.86	82.3638	6,276.86	83.862	6,276.86	81.0082	6,276.86	81.5808	6,276.86	79.9905	6,276.86	81.1447	6,276.86	78.76	6,276.86	80.2129	6,276.86	76.7452	6,276.86	78.0828	6,276.86	74.6184	6,276.86	75.885	6,276.86	72.3879	6,276.86	74.4438	6,276.86	69.5987	6,276.86	70.164	6,276.86	65.0587	6,276.86	68.6538	6,276.86	63.4266	6,276.86	65.7158	6,276.86	62.9318	6,276.86	63.5937	6,276.86	61.6267	6,276.86	61.0675	6,276.86	59.4928	6,276.86	62.3285	6,276.86	63.7802	6,276.86	64.7202	6,276.86	63.0702	6,276.86	65.1037	6,276.86	57.6134	6,276.86	62.4713	6,276.86	56.2918
6,498.05	85.7219	6,498.05	85.0235	6,498.05	85.7768	6,498.05	83.5699	6,498.05	83.8564	6,498.05	82.3624	6,498.05	82.6443	6,498.05	81.3831	6,498.05	81.0205	6,498.05	79.8033	6,498.05	79.7105	6,498.05	77.7675	6,498.05	78.5923	6,498.05	74.5533	6,498.05	75.6332	6,498.05	71.5739	6,498.05	72.7101	6,498.05	68.7524	6,498.05	69.6572	6,498.05	66.6654	6,498.05	66.9703	6,498.05	63.2734	6,498.05	64.9697	6,498.05	62.43	6,498.05	64.1724	6,498.05	59.284	6,498.05	57.83	6,498.05	60.3509	6,498.05	63.0015	6,498.05	62.4163	6,498.05	64.617	6,498.05	62.3608	6,498.05	64.8734	6,498.05	58.4758	6,498.05	62.4879	6,498.05	55.5219
6,726.56	86.7373	6,726.56	86.2127	6,726.56	85.8906	6,726.56	84.9015	6,726.56	84.3273	6,726.56	83.5005	6,726.56	82.3121	6,726.56	82.5745	6,726.56	81.4541	6,726.56	80.3448	6,726.56	79.9426	6,726.56	78.8272	6,726.56	77.0455	6,726.56	75.8203	6,726.56	73.6155	6,726.56	71.9401	6,726.56	70.9132	6,726.56	70.3325	6,726.56	68.8239	6,726.56	68.6694	6,726.56	65.4833	6,726.56	67.6747	6,726.56	65.296	6,726.56	65.2848	6,726.56	61.3415	6,726.56	60.0807	6,726.56	60.0075	6,726.56	61.146	6,726.56	60.7598	6,726.56	64.1772	6,726.56	62.5799	6,726.56	64.7633	6,726.56	63.444	6,726.56	62.245	6,726.56	61.4588	6,726.56	55.0929
6,963.87	86.119	6,963.87	85.524	6,963.87	85.7696	6,963.87	84.082	6,963.87	83.8747	6,963.87	82.954	6,963.87	82.7027	6,963.87	81.531	6,963.87	81.3515	6,963.87	80.0366	6,963.87	79.7528	6,963.87	76.2942	6,963.87	77.4618	6,963.87	73.7268	6,963.87	74.6915	6,963.87	71.1252	6,963.87	70.4571	6,963.87	69.9563	6,963.87	69.8807	6,963.87	67.7331	6,963.87	67.646	6,963.87	66.3469	6,963.87	65.0374	6,963.87	62.0449	6,963.87	63.3455	6,963.87	62.1241	6,963.87	60.4452	6,963.87	61.92	6,963.87	58.897	6,963.87	64.5178	6,963.87	63.6635	6,963.87	63.0188	6,963.87	63.1212	6,963.87	58.1067	6,963.87	62.405	6,963.87	51.9537
7,209.96	87.3359	7,209.96	86.4722	7,209.96	86.7166	7,209.96	85.1385	7,209.96	85.2686	7,209.96	83.6889	7,209.96	84.059	7,209.96	82.6527	7,209.96	82.9359	7,209.96	79.6573	7,209.96	80.5878	7,209.96	77.6191	7,209.96	78.1567	7,209.96	75.1717	7,209.96	75.55	7,209.96	72.3225	7,209.96	73.3809	7,209.96	71.103	7,209.96	70.9819	7,209.96	68.6908	7,209.96	68.069	7,209.96	67.2802	7,209.96	66.6978	7,209.96	63.1541	7,209.96	63.9455	7,209.96	62.8959	7,209.96	63.8888	7,209.96	62.7186	7,209.96	61.5659	7,209.96	64.9546	7,209.96	61.7285	7,209.96	64.1837	7,209.96	63.632	7,209.96	59.8816	7,209.96	61.8208	7,209.96	54.0162
7,464.84	87.5766	7,464.84	86.9056	7,464.84	87.0055	7,464.84	85.3907	7,464.84	85.764	7,464.84	84.0229	7,464.84	84.3509	7,464.84	82.6432	7,464.84	82.9593	7,464.84	80.0491	7,464.84	80.8135	7,464.84	77.4525	7,464.84	78.3166	7,464.84	75.0488	7,464.84	75.6705	7,464.84	72.4004	7,464.84	72.7753	7,464.84	69.4371	7,464.84	70.5907	7,464.84	67.6279	7,464.84	68.1614	7,464.84	65.7634	7,464.84	66.9204	7,464.84	62.996	7,464.84	64.4108	7,464.84	61.427	7,464.84	62.249	7,464.84	60.1898	7,464.84	60.4092	7,464.84	62.5291	7,464.84	62.5655	7,464.84	63.9343	7,464.84	64.1256	7,464.84	59.1382	7,464.84	61.0277	7,464.84	55.5875
7,727.05	87.8183	7,727.05	87.0652	7,727.05	87.6148	7,727.05	85.3447	7,727.05	86.4628	7,727.05	83.7739	7,727.05	85.2985	7,727.05	82.1693	7,727.05	83.7616	7,727.05	79.6382	7,727.05	81.3193	7,727.05	76.4693	7,727.05	79.011	7,727.05	73.8897	7,727.05	76.2701	7,727.05	72.3567	7,727.05	73.8961	7,727.05	69.6146	7,727.05	71.8884	7,727.05	67.5754	7,727.05	70.1397	7,727.05	64.8854	7,727.05	66.525	7,727.05	63.4798	7,727.05	65.4463	7,727.05	57.6323	7,727.05	61.0867	7,727.05	60.9717	7,727.05	60.5033	7,727.05	63.4096	7,727.05	62.463	7,727.05	63.9333	7,727.05	65.0944	7,727.05	57.0055	7,727.05	61.2001	7,727.05	56.6031
7,999.51	87.9584	7,999.51	86.8918	7,999.51	87.5691	7,999.51	85.4006	7,999.51	86.4076	7,999.51	84.1096	7,999.51	85.1974	7,999.51	82.524	7,999.51	83.8305	7,999.51	79.3183	7,999.51	81.4022	7,999.51	77.0479	7,999.51	79.0458	7,999.51	73.6826	7,999.51	75.8125	7,999.51	71.0619	7,999.51	73.3176	7,999.51	68.8937	7,999.51	71.0891	7,999.51	66.1179	7,999.51	68.9518	7,999.51	64.6027	7,999.51	67.2669	7,999.51	61.2201	7,999.51	63.7672	7,999.51	59.1072	7,999.51	63.0359	7,999.51	55.4475	7,999.51	60.9931	7,999.51	60.968	7,999.51	62.9637	7,999.51	62.4182	7,999.51	64.9056	7,999.51	58.6756	7,999.51	60.6005	7,999.51	55.024
8,282.23	87.6814	8,282.23	86.7117	8,282.23	87.392	8,282.23	85.3214	8,282.23	86.0626	8,282.23	83.8073	8,282.23	84.8946	8,282.23	81.7496	8,282.23	83.1043	8,282.23	79.2442	8,282.23	80.6914	8,282.23	75.7523	8,282.23	78.2324	8,282.23	72.2822	8,282.23	75.2203	8,282.23	69.1709	8,282.23	72.7764	8,282.23	67.548	8,282.23	70.5498	8,282.23	64.4459	8,282.23	67.8256	8,282.23	62.639	8,282.23	65.7208	8,282.23	60.031	8,282.23	64.1463	8,282.23	54.6874	8,282.23	58.9893	8,282.23	55.3903	8,282.23	57.9504	8,282.23	59.38	8,282.23	61.7298	8,282.23	61.1912	8,282.23	62.8929	8,282.23	56.7925	8,282.23	57.3445	8,282.23	54.1015
8,573.73	87.9238	8,573.73	86.9006	8,573.73	87.5166	8,573.73	85.3576	8,573.73	85.9451	8,573.73	84.108	8,573.73	84.7146	8,573.73	81.9213	8,573.73	82.9747	8,573.73	78.1772	8,573.73	80.3702	8,573.73	75.5963	8,573.73	77.7806	8,573.73	71.8855	8,573.73	74.4812	8,573.73	68.4781	8,573.73	71.3928	8,573.73	66.7936	8,573.73	68.8553	8,573.73	64.6846	8,573.73	66.5288	8,573.73	61.535	8,573.73	64.7816	8,573.73	59.9746	8,573.73	60.3797	8,573.73	52.8512	8,573.73	60.2311	8,573.73	53.4313	8,573.73	54.7779	8,573.73	57.9648	8,573.73	59.4202	8,573.73	60.6161	8,573.73	62.114	8,573.73	54.9972	8,573.73	57.1911	8,573.73	54.6648
8,876.95	87.2533	8,876.95	86.0712	8,876.95	86.6832	8,876.95	84.7375	8,876.95	85.3379	8,876.95	82.9247	8,876.95	84.0227	8,876.95	80.5834	8,876.95	82.0116	8,876.95	77.5425	8,876.95	79.4378	8,876.95	73.832	8,876.95	76.3832	8,876.95	71.2582	8,876.95	72.6469	8,876.95	68.4374	8,876.95	69.7263	8,876.95	65.8234	8,876.95	66.9946	8,876.95	64.5302	8,876.95	64.9119	8,876.95	62.9062	8,876.95	61.6542	8,876.95	58.3175	8,876.95	59.0628	8,876.95	55.9426	8,876.95	56.8626	8,876.95	55.11	8,876.95	52.6907	8,876.95	58.129	8,876.95	53.8335	8,876.95	58.3922	8,876.95	58.8462	8,876.95	54.5343	8,876.95	54.2626	8,876.95	52.2465
9,188.96	86.14	9,188.96	85.1652	9,188.96	85.6294	9,188.96	83.9098	9,188.96	84.1712	9,188.96	82.1731	9,188.96	82.8863	9,188.96	80.4346	9,188.96	80.9838	9,188.96	76.9381	9,188.96	78.524	9,188.96	73.875	9,188.96	74.463	9,188.96	70.5614	9,188.96	70.6527	9,188.96	69.5774	9,188.96	68.5239	9,188.96	66.8895	9,188.96	65.8317	9,188.96	63.3946	9,188.96	63.6515	9,188.96	61.7824	9,188.96	61.7365	9,188.96	59.8145	9,188.96	58.6222	9,188.96	57.9534	9,188.96	53.606	9,188.96	52.5997	9,188.96	49.8665	9,188.96	57.2692	9,188.96	54.8263	9,188.96	57.52	9,188.96	57.641	9,188.96	51.3987	9,188.96	53.795	9,188.96	50.8527
9,514.16	85.1329	9,514.16	84.2412	9,514.16	84.3808	9,514.16	83.0153	9,514.16	83.1554	9,514.16	81.2805	9,514.16	81.6241	9,514.16	79.344	9,514.16	79.5032	9,514.16	75.7982	9,514.16	76.4502	9,514.16	72.5449	9,514.16	72.0417	9,514.16	69.7386	9,514.16	68.2941	9,514.16	67.5454	9,514.16	66.9016	9,514.16	65.4571	9,514.16	64.0481	9,514.16	62.6993	9,514.16	61.6628	9,514.16	60.1702	9,514.16	58.6938	9,514.16	58.1748	9,514.16	57.3159	9,514.16	57.1574	9,514.16	51.1055	9,514.16	52.0964	9,514.16	44.5303	9,514.16	56.3615	9,514.16	52.9979	9,514.16	57.1149	9,514.16	57.2448	9,514.16	49.3493	9,514.16	46.8733	9,514.16	50.5358
9,849.61	83.9847	9,849.61	83.3848	9,849.61	83.1709	9,849.61	82.3343	9,849.61	82.0931	9,849.61	80.6713	9,849.61	80.2862	9,849.61	78.5122	9,849.61	77.812	9,849.61	74.3464	9,849.61	73.7517	9,849.61	71.7004	9,849.61	69.5313	9,849.61	69.2837	9,849.61	67.88	9,849.61	67.1006	9,849.61	65.702	9,849.61	63.9265	9,849.61	62.4085	9,849.61	62.2753	9,849.61	59.2043	9,849.61	60.1668	9,849.61	56.156	9,849.61	57.8479	9,849.61	54.4054	9,849.61	56.3616	9,849.61	52.3344	9,849.61	51.841	9,849.61	47.7318	9,849.61	56.0553	9,849.61	49.6231	9,849.61	56.1745	9,849.61	54.2918	9,849.61	46.0726	9,849.61	43.3227	9,849.61	50.52
10,196.8	83.6989	10,196.8	83.2752	10,196.8	83.0601	10,196.8	82.1846	10,196.8	82.0284	10,196.8	80.3719	10,196.8	79.9569	10,196.8	78.0369	10,196.8	77.2031	10,196.8	73.9651	10,196.8	72.71	10,196.8	71.7427	10,196.8	69.8034	10,196.8	69.6731	10,196.8	67.877	10,196.8	66.1741	10,196.8	65.1151	10,196.8	64.0894	10,196.8	61.9233	10,196.8	61.1569	10,196.8	59.3369	10,196.8	59.7975	10,196.8	57.4708	10,196.8	57.3871	10,196.8	56.1326	10,196.8	54.5449	10,196.8	53.302	10,196.8	53.0532	10,196.8	43.9268	10,196.8	57.2102	10,196.8	52.2064	10,196.8	56.6571	10,196.8	56.6353	10,196.8	43.2908	10,196.8	42.7233	10,196.8	49.8419
10,555.7	84.1749	10,555.7	84.0028	10,555.7	83.7465	10,555.7	83.0063	10,555.7	82.5969	10,555.7	81.1365	10,555.7	80.4334	10,555.7	78.5588	10,555.7	77.5348	10,555.7	74.4591	10,555.7	73.4338	10,555.7	72.5527	10,555.7	71.6829	10,555.7	69.9982	10,555.7	68.9589	10,555.7	66.7534	10,555.7	66.1636	10,555.7	64.3505	10,555.7	62.7874	10,555.7	61.2208	10,555.7	60.4823	10,555.7	60.3725	10,555.7	59.4182	10,555.7	58.3152	10,555.7	57.0603	10,555.7	56.0128	10,555.7	54.1837	10,555.7	52.0648	10,555.7	50.1883	10,555.7	56.7344	10,555.7	53.6053	10,555.7	56.059	10,555.7	56.5983	10,555.7	50.7287	10,555.7	44.6477	10,555.7	50.0845
10,927.7	84.8792	10,927.7	84.9252	10,927.7	84.8221	10,927.7	83.7467	10,927.7	83.4155	10,927.7	81.6958	10,927.7	81.3938	10,927.7	78.968	10,927.7	78.0117	10,927.7	75.0192	10,927.7	74.7072	10,927.7	73.4073	10,927.7	73.1829	10,927.7	69.6574	10,927.7	69.0861	10,927.7	67.0865	10,927.7	66.5637	10,927.7	65.1829	10,927.7	64.4471	10,927.7	62.2908	10,927.7	61.3245	10,927.7	60.778	10,927.7	60.6885	10,927.7	58.2322	10,927.7	58.1149	10,927.7	57.0301	10,927.7	56.0128	10,927.7	50.6361	10,927.7	50.9769	10,927.7	54.8726	10,927.7	53.4195	10,927.7	56.0012	10,927.7	55.7881	10,927.7	47.7288	10,927.7	43.4753	10,927.7	49.6416
11,313	85.7708	11,313	85.8386	11,313	86.0395	11,313	84.5906	11,313	84.6828	11,313	82.5527	11,313	82.5792	11,313	79.3253	11,313	79.0257	11,313	76.553	11,313	76.6141	11,313	73.4496	11,313	74.0811	11,313	70.0802	11,313	70.3181	11,313	67.5744	11,313	68.3248	11,313	65.8026	11,313	66.5238	11,313	63.5833	11,313	64.0517	11,313	61.0536	11,313	62.6092	11,313	59.4471	11,313	60.2495	11,313	57.4599	11,313	57.5048	11,313	48.6831	11,313	54.0173	11,313	52.7111	11,313	51.3463	11,313	55.8064	11,313	56.7246	11,313	51.0683	11,313	43.2805	11,313	51.3814
11,712.9	86.5266	11,712.9	86.5715	11,712.9	87.0958	11,712.9	85.1611	11,712.9	85.7841	11,712.9	82.8521	11,712.9	83.4879	11,712.9	79.3579	11,712.9	80.0419	11,712.9	76.7653	11,712.9	77.8993	11,712.9	73.3774	11,712.9	74.6091	11,712.9	71.3057	11,712.9	71.6849	11,712.9	69.218	11,712.9	70.3912	11,712.9	66.3636	11,712.9	68.0019	11,712.9	64.401	11,712.9	65.947	11,712.9	62.8166	11,712.9	62.9099	11,712.9	60.4363	11,712.9	62.346	11,712.9	57.8418	11,712.9	57.5094	11,712.9	53.6102	11,712.9	55.1214	11,712.9	55.2181	11,712.9	54.7995	11,712.9	55.4815	11,712.9	57.5045	11,712.9	49.8594	11,712.9	39.9927	11,712.9	51.8227
12,126	86.977	12,126	87.1305	12,126	87.5909	12,126	85.6817	12,126	86.5054	12,126	82.755	12,126	83.8198	12,126	79.7923	12,126	80.5607	12,126	76.7326	12,126	78.1411	12,126	73.4041	12,126	74.4189	12,126	71.4675	12,126	72.3907	12,126	69.3947	12,126	70.8606	12,126	67.1029	12,126	68.7298	12,126	63.3556	12,126	65.6928	12,126	62.947	12,126	64.0509	12,126	57.6794	12,126	61.5694	12,126	57.0899	12,126	59.3907	12,126	53.1927	12,126	55.5094	12,126	53.6111	12,126	54.6963	12,126	55.5586	12,126	58.6044	12,126	50.2199	12,126	34.7315	12,126	50.8489
12,553.7	86.8701	12,553.7	87.2741	12,553.7	87.4462	12,553.7	86.0471	12,553.7	86.5936	12,553.7	82.3734	12,553.7	83.6689	12,553.7	80.1081	12,553.7	80.948	12,553.7	76.1642	12,553.7	77.5665	12,553.7	73.0257	12,553.7	74.5641	12,553.7	70.4692	12,553.7	72.8049	12,553.7	68.4846	12,553.7	71.0854	12,553.7	67.5373	12,553.7	68.733	12,553.7	62.4595	12,553.7	65.1171	12,553.7	61.0482	12,553.7	64.5423	12,553.7	58.8749	12,553.7	60.0361	12,553.7	55.2272	12,553.7	59.8401	12,553.7	52.8535	12,553.7	56.0701	12,553.7	56.1087	12,553.7	53.3968	12,553.7	56.1736	12,553.7	57.3268	12,553.7	49.1269	12,553.7	24.2912	12,553.7	49.1371
12,996.1	86.7415	12,996.1	87.0071	12,996.1	87.2566	12,996.1	86.0511	12,996.1	86.3277	12,996.1	81.837	12,996.1	83.1012	12,996.1	80.0328	12,996.1	81.0337	12,996.1	74.9535	12,996.1	77.054	12,996.1	72.6369	12,996.1	74.6656	12,996.1	70.5697	12,996.1	73.072	12,996.1	68.7458	12,996.1	70.813	12,996.1	67.2671	12,996.1	68.2728	12,996.1	63.4205	12,996.1	65.8257	12,996.1	61.2176	12,996.1	63.0813	12,996.1	59.4544	12,996.1	59.5638	12,996.1	54.6028	12,996.1	60.4958	12,996.1	53.2328	12,996.1	55.5763	12,996.1	53.8297	12,996.1	53.9307	12,996.1	54.6764	12,996.1	58.2237	12,996.1	47.133	12,996.1	42.1789	12,996.1	51.6052
13,454.6	86.6472	13,454.6	86.6506	13,454.6	86.9034	13,454.6	85.6525	13,454.6	85.9231	13,454.6	81.9507	13,454.6	82.7101	13,454.6	79.4287	13,454.6	80.4451	13,454.6	75.2905	13,454.6	76.4004	13,454.6	73.0905	13,454.6	74.5626	13,454.6	71.6666	13,454.6	72.6025	13,454.6	69.7677	13,454.6	69.7104	13,454.6	66.5933	13,454.6	67.9001	13,454.6	64.1104	13,454.6	64.6331	13,454.6	61.6745	13,454.6	62.6365	13,454.6	56.9708	13,454.6	60.9597	13,454.6	58.2028	13,454.6	60.687	13,454.6	53.0653	13,454.6	55.3537	13,454.6	53.1524	13,454.6	53.4969	13,454.6	50.7498	13,454.6	56.1093	13,454.6	41.6649	13,454.6	42.3652	13,454.6	49.2046
13,929.2	86.4627	13,929.2	86.3108	13,929.2	86.4936	13,929.2	85.1945	13,929.2	85.6477	13,929.2	82.5316	13,929.2	82.5809	13,929.2	79.1506	13,929.2	79.268	13,929.2	75.9071	13,929.2	76.0684	13,929.2	74.076	13,929.2	74.1414	13,929.2	72.5807	13,929.2	72.3632	13,929.2	69.8633	13,929.2	69.3399	13,929.2	67.0338	13,929.2	67.5454	13,929.2	64.0234	13,929.2	63.728	13,929.2	59.6974	13,929.2	62.5941	13,929.2	57.8204	13,929.2	60.6495	13,929.2	58.7279	13,929.2	60.7046	13,929.2	54.382	13,929.2	53.8375	13,929.2	53.1714	13,929.2	48.0005	13,929.2	53.0658	13,929.2	55.2174	13,929.2	34.4447	13,929.2	45.2807	13,929.2	48.1844
14,419.9	86.2859	14,419.9	86.2536	14,419.9	86.2212	14,419.9	85.0546	14,419.9	85.3438	14,419.9	83.3924	14,419.9	82.8851	14,419.9	80.0026	14,419.9	78.1557	14,419.9	76.6748	14,419.9	75.8184	14,419.9	75.1027	14,419.9	73.5887	14,419.9	72.437	14,419.9	72.081	14,419.9	68.4306	14,419.9	69.6538	14,419.9	65.0717	14,419.9	66.4318	14,419.9	63.2154	14,419.9	64.3579	14,419.9	59.476	14,419.9	60.0629	14,419.9	58.9378	14,419.9	60.6359	14,419.9	57.4647	14,419.9	58.8575	14,419.9	53.3535	14,419.9	54.8434	14,419.9	53.6524	14,419.9	44.9046	14,419.9	48.4921	14,419.9	55.285	14,419.9	46.7743	14,419.9	48.4427	14,419.9	34.4509
14,928.2	85.9001	14,928.2	85.9439	14,928.2	85.8279	14,928.2	84.7973	14,928.2	84.6475	14,928.2	83.3621	14,928.2	82.5029	14,928.2	80.2282	14,928.2	77.5564	14,928.2	76.253	14,928.2	74.6148	14,928.2	74.4035	14,928.2	72.3087	14,928.2	69.998	14,928.2	70.4112	14,928.2	67.3974	14,928.2	66.0678	14,928.2	63.6245	14,928.2	64.1882	14,928.2	62.0608	14,928.2	63.409	14,928.2	60.2516	14,928.2	59.1822	14,928.2	57.299	14,928.2	59.5843	14,928.2	53.7035	14,928.2	56.3499	14,928.2	50.8069	14,928.2	53.0063	14,928.2	50.0473	14,928.2	32.659	14,928.2	49.814	14,928.2	53.5557	14,928.2	51.3531	14,928.2	44.7194	14,928.2	48.8715
15,455.6	85.5221	15,455.6	85.4754	15,455.6	85.5322	15,455.6	84.3413	15,455.6	83.8714	15,455.6	82.7603	15,455.6	81.4759	15,455.6	80.059	15,455.6	77.0144	15,455.6	75.5309	15,455.6	72.9554	15,455.6	73.5131	15,455.6	72.2307	15,455.6	69.1223	15,455.6	69.8336	15,455.6	67.8145	15,455.6	68.773	15,455.6	65.6516	15,455.6	65.7234	15,455.6	62.3277	15,455.6	63.2242	15,455.6	61.7908	15,455.6	60.0843	15,455.6	54.6989	15,455.6	58.5145	15,455.6	55.8806	15,455.6	49.6327	15,455.6	53.6747	15,455.6	52.2105	15,455.6	51.1023	15,455.6	50.6402	15,455.6	52.7743	15,455.6	53.7713	15,455.6	50.7689	15,455.6	47.2037	15,455.6	52.4726
16,000.5	84.9256	16,000.5	84.4817	16,000.5	84.6978	16,000.5	83.2153	16,000.5	83.1278	16,000.5	81.1413	16,000.5	80.1901	16,000.5	78.052	16,000.5	76.5419	16,000.5	74.6299	16,000.5	72.7437	16,000.5	71.5527	16,000.5	71.4648	16,000.5	70.2743	16,000.5	70.9137	16,000.5	68.7933	16,000.5	69.508	16,000.5	65.2914	16,000.5	65.2974	16,000.5	62.3916	16,000.5	61.6626	16,000.5	59.7727	16,000.5	59.7112	16,000.5	56.0533	16,000.5	58.1509	16,000.5	56.3441	16,000.5	49.0435	16,000.5	52.7927	16,000.5	53.415	16,000.5	50.0942	16,000.5	51.6627	16,000.5	50.8493	16,000.5	51.3753	16,000.5	47.3739	16,000.5	47.3882	16,000.5	55.4067
16,564.5	84.2736	16,564.5	83.384	16,564.5	83.7209	16,564.5	82.0791	16,564.5	82.2323	16,564.5	78.9944	16,564.5	78.7757	16,564.5	75.5887	16,564.5	74.463	16,564.5	72.5412	16,564.5	72.0436	16,564.5	70.4378	16,564.5	70.9388	16,564.5	70.6782	16,564.5	70.701	16,564.5	67.5729	16,564.5	67.1071	16,564.5	63.2157	16,564.5	63.2357	16,564.5	60.4483	16,564.5	58.5768	16,564.5	57.5779	16,564.5	58.6148	16,564.5	55.2678	16,564.5	57.1235	16,564.5	54.5648	16,564.5	44.1297	16,564.5	49.7491	16,564.5	52.7537	16,564.5	48.8196	16,564.5	49.9537	16,564.5	48.0105	16,564.5	45.2868	16,564.5	47.351	16,564.5	51.3453	16,564.5	56.3814
17,148.9	83.7774	17,148.9	81.9213	17,148.9	82.8032	17,148.9	80.9417	17,148.9	81.0899	17,148.9	77.3674	17,148.9	77.7615	17,148.9	73.8252	17,148.9	72.2472	17,148.9	69.7969	17,148.9	70.9225	17,148.9	70.5162	17,148.9	71.5096	17,148.9	69.0759	17,148.9	69.3387	17,148.9	64.5158	17,148.9	66.8409	17,148.9	59.3168	17,148.9	63.2178	17,148.9	58.0716	17,148.9	59.8437	17,148.9	54.9609	17,148.9	57.5861	17,148.9	53.3438	17,148.9	55.7241	17,148.9	51.7569	17,148.9	49.4665	17,148.9	48.2796	17,148.9	53.1469	17,148.9	47.1032	17,148.9	51.6918	17,148.9	48.7543	17,148.9	47.1712	17,148.9	51.9084	17,148.9	53.8768	17,148.9	56.6521
17,752.4	83.0656	17,752.4	80.2793	17,752.4	81.455	17,752.4	78.9238	17,752.4	79.6013	17,752.4	75.3562	17,752.4	76.5363	17,752.4	70.1333	17,752.4	70.0839	17,752.4	67.0988	17,752.4	69.2557	17,752.4	68.8783	17,752.4	70.785	17,752.4	65.3956	17,752.4	67.3475	17,752.4	63.0741	17,752.4	66.4845	17,752.4	57.3071	17,752.4	63.0134	17,752.4	54.9921	17,752.4	58.9573	17,752.4	54.1773	17,752.4	57.7007	17,752.4	51.015	17,752.4	53.7484	17,752.4	44.3824	17,752.4	51.5325	17,752.4	41.0288	17,752.4	52.8852	17,752.4	43.1055	17,752.4	51.5608	17,752.4	48.084	17,752.4	46.7835	17,752.4	54.504	17,752.4	55.5507	17,752.4	55.9771
18,379.4	81.895	18,379.4	78.9399	18,379.4	80.2001	18,379.4	76.4504	18,379.4	77.9359	18,379.4	71.5895	18,379.4	74.1808	18,379.4	66.5736	18,379.4	67.4442	18,379.4	66.9201	18,379.4	69.1136	18,379.4	65.5083	18,379.4	68.0167	18,379.4	63.7248	18,379.4	67.3318	18,379.4	62.553	18,379.4	65.7538	18,379.4	56.9019	18,379.4	62.0851	18,379.4	53.9859	18,379.4	55.9734	18,379.4	52.0867	18,379.4	56.5314	18,379.4	49.2963	18,379.4	49.0346	18,379.4	49.7176	18,379.4	52.6663	18,379.4	34.6175	18,379.4	52.2379	18,379.4	41.6676	18,379.4	50.2493	18,379.4	48.8099	18,379.4	43.9276	18,379.4	53.8994	18,379.4	56.4122	18,379.4	56.2734
19,026.9	80.5947	19,026.9	77.6333	19,026.9	79.0114	19,026.9	75.0069	19,026.9	76.2251	19,026.9	68.0148	19,026.9	71.8439	19,026.9	64.7316	19,026.9	66.223	19,026.9	66.0099	19,026.9	68.1099	19,026.9	64.6917	19,026.9	67.1941	19,026.9	63.4822	19,026.9	66.2985	19,026.9	61.438	19,026.9	63.6523	19,026.9	56.8906	19,026.9	60.2815	19,026.9	52.7536	19,026.9	53.0763	19,026.9	50.2769	19,026.9	55.6263	19,026.9	49.1546	19,026.9	46.0016	19,026.9	46.3566	19,026.9	51.6379	19,026.9	39.3497	19,026.9	48.8611	19,026.9	39.322	19,026.9	43.7262	19,026.9	45.2735	19,026.9	48.9406	19,026.9	53.9188	19,026.9	56.987	19,026.9	56.2486
19,697.8	79.0754	19,697.8	75.9762	19,697.8	77.3282	19,697.8	73.5752	19,697.8	74.2743	19,697.8	65.9888	19,697.8	69.3596	19,697.8	64.9333	19,697.8	64.5806	19,697.8	63.57	19,697.8	67.214	19,697.8	63.7552	19,697.8	66.5994	19,697.8	59.9358	19,697.8	64.4561	19,697.8	59.0398	19,697.8	61.5175	19,697.8	52.0183	19,697.8	57.9118	19,697.8	50.098	19,697.8	48.7529	19,697.8	46.2344	19,697.8	53.583	19,697.8	45.9728	19,697.8	43.3637	19,697.8	44.7033	19,697.8	47.3032	19,697.8	39.765	19,697.8	45.7548	19,697.8	37.8758	19,697.8	39.8291	19,697.8	41.3087	19,697.8	51.4841	19,697.8	54.4295	19,697.8	56.3565	19,697.8	55.2221
19,999.5	78.4886	19,999.5	75.182	19,999.5	76.6999	19,999.5	72.7595	19,999.5	73.6096	19,999.5	65.7321	19,999.5	68.2939	19,999.5	64.0219	19,999.5	64.8337	19,999.5	63.1108	19,999.5	67.0346	19,999.5	61.4094	19,999.5	66.2143	19,999.5	59.0613	19,999.5	62.9079	19,999.5	57.4181	19,999.5	61.2912	19,999.5	47.1855	19,999.5	55.4564	19,999.5	49.8553	19,999.5	44.0768	19,999.5	46.8726	19,999.5	51.4091	19,999.5	46.9017	19,999.5	36.6242	19,999.5	43.4938	19,999.5	51.4451	19,999.5	31.9554	19,999.5	44.0689	19,999.5	44.7736	19,999.5	41.4358	19,999.5	45.8855	19,999.5	50.6866	19,999.5	54.5972	19,999.5	57.6678	19,999.5	55.614
