"SPL Horizontal"
"On-Axis"		"10°"		"-10°"		"20°"		"-20°"		"30°"		"-30°"		"40°"		"-40°"		"50°"		"-50°"		"60°"		"-60°"		"70°"		"-70°"		"80°"		"-80°"		"90°"		"-90°"		"100°"		"-100°"		"110°"		"-110°"		"120°"		"-120°"		"130°"		"-130°"		"140°"		"-140°"		"150°"		"-150°"		"160°"		"-160°"		"170°"		"-170°"		"180°"
"Frequency / Hz"	"Sound Pressure Level / dB (re 20 µPa/V)  [2.83  V @ 1. m]"	"Frequency / Hz"	"Sound Pressure Level / dB (re 20 µPa/V)  [2.83  V @ 1. m]"	"Frequency / Hz"	"Sound Pressure Level / dB (re 20 µPa/V)  [2.83  V @ 1. m]"	"Frequency / Hz"	"Sound Pressure Level / dB (re 20 µPa/V)  [2.83  V @ 1. m]"	"Frequency / Hz"	"Sound Pressure Level / dB (re 20 µPa/V)  [2.83  V @ 1. m]"	"Frequency / Hz"	"Sound Pressure Level / dB (re 20 µPa/V)  [2.83  V @ 1. m]"	"Frequency / Hz"	"Sound Pressure Level / dB (re 20 µPa/V)  [2.83  V @ 1. m]"	"Frequency / Hz"	"Sound Pressure Level / dB (re 20 µPa/V)  [2.83  V @ 1. m]"	"Frequency / Hz"	"Sound Pressure Level / dB (re 20 µPa/V)  [2.83  V @ 1. m]"	"Frequency / Hz"	"Sound Pressure Level / dB (re 20 µPa/V)  [2.83  V @ 1. m]"	"Frequency / Hz"	"Sound Pressure Level / dB (re 20 µPa/V)  [2.83  V @ 1. m]"	"Frequency / Hz"	"Sound Pressure Level / dB (re 20 µPa/V)  [2.83  V @ 1. m]"	"Frequency / Hz"	"Sound Pressure Level / dB (re 20 µPa/V)  [2.83  V @ 1. m]"	"Frequency / Hz"	"Sound Pressure Level / dB (re 20 µPa/V)  [2.83  V @ 1. m]"	"Frequency / Hz"	"Sound Pressure Level / dB (re 20 µPa/V)  [2.83  V @ 1. m]"	"Frequency / Hz"	"Sound Pressure Level / dB (re 20 µPa/V)  [2.83  V @ 1. m]"	"Frequency / Hz"	"Sound Pressure Level / dB (re 20 µPa/V)  [2.83  V @ 1. m]"	"Frequency / Hz"	"Sound Pressure Level / dB (re 20 µPa/V)  [2.83  V @ 1. m]"	"Frequency / Hz"	"Sound Pressure Level / dB (re 20 µPa/V)  [2.83  V @ 1. m]"	"Frequency / Hz"	"Sound Pressure Level / dB (re 20 µPa/V)  [2.83  V @ 1. m]"	"Frequency / Hz"	"Sound Pressure Level / dB (re 20 µPa/V)  [2.83  V @ 1. m]"	"Frequency / Hz"	"Sound Pressure Level / dB (re 20 µPa/V)  [2.83  V @ 1. m]"	"Frequency / Hz"	"Sound Pressure Level / dB (re 20 µPa/V)  [2.83  V @ 1. m]"	"Frequency / Hz"	"Sound Pressure Level / dB (re 20 µPa/V)  [2.83  V @ 1. m]"	"Frequency / Hz"	"Sound Pressure Level / dB (re 20 µPa/V)  [2.83  V @ 1. m]"	"Frequency / Hz"	"Sound Pressure Level / dB (re 20 µPa/V)  [2.83  V @ 1. m]"	"Frequency / Hz"	"Sound Pressure Level / dB (re 20 µPa/V)  [2.83  V @ 1. m]"	"Frequency / Hz"	"Sound Pressure Level / dB (re 20 µPa/V)  [2.83  V @ 1. m]"	"Frequency / Hz"	"Sound Pressure Level / dB (re 20 µPa/V)  [2.83  V @ 1. m]"	"Frequency / Hz"	"Sound Pressure Level / dB (re 20 µPa/V)  [2.83  V @ 1. m]"	"Frequency / Hz"	"Sound Pressure Level / dB (re 20 µPa/V)  [2.83  V @ 1. m]"	"Frequency / Hz"	"Sound Pressure Level / dB (re 20 µPa/V)  [2.83  V @ 1. m]"	"Frequency / Hz"	"Sound Pressure Level / dB (re 20 µPa/V)  [2.83  V @ 1. m]"	"Frequency / Hz"	"Sound Pressure Level / dB (re 20 µPa/V)  [2.83  V @ 1. m]"	"Frequency / Hz"	"Sound Pressure Level / dB (re 20 µPa/V)  [2.83  V @ 1. m]"	"Frequency / Hz"	"Sound Pressure Level / dB (re 20 µPa/V)  [2.83  V @ 1. m]"
20.5078	50.2431	20.5078	50.8367	20.5078	49.0668	20.5078	50.9313	20.5078	47.073	20.5078	50.5213	20.5078	43.6264	20.5078	49.5164	20.5078	36.1959	20.5078	47.6911	20.5078	32.398	20.5078	44.49	20.5078	43.5106	20.5078	38.3129	20.5078	48.5262	20.5078	36.6391	20.5078	51.7733	20.5078	44.9365	20.5078	54.1407	20.5078	49.7771	20.5078	55.9674	20.5078	53.0663	20.5078	57.4224	20.5078	55.5167	20.5078	58.6009	20.5078	57.4087	20.5078	59.5573	20.5078	58.8714	20.5078	60.3195	20.5078	59.9726	20.5078	60.8985	20.5078	60.7547	20.5078	61.2936	20.5078	61.2503	20.5078	61.4956	20.5078	61.4885
21.9727	57.5711	21.9727	57.5566	21.9727	57.2951	21.9727	57.2513	21.9727	56.7045	21.9727	56.6313	21.9727	55.7445	21.9727	55.6422	21.9727	54.3092	21.9727	54.1826	21.9727	52.1966	21.9727	52.0708	21.9727	49.0147	21.9727	49.0188	21.9727	44.4279	21.9727	45.2783	21.9727	43.9922	21.9727	45.7312	21.9727	49.2439	21.9727	50.1443	21.9727	53.2653	21.9727	53.8188	21.9727	56.1328	21.9727	56.5692	21.9727	58.2754	21.9727	58.6702	21.9727	59.916	21.9727	60.2843	21.9727	61.1687	21.9727	61.4972	21.9727	62.0933	21.9727	62.3563	21.9727	62.7201	21.9727	62.8909	21.9727	63.0623	21.9727	63.1216
23.4375	61.1098	23.4375	61.003	23.4375	60.9855	23.4375	60.662	23.4375	60.6168	23.4375	60.0662	23.4375	59.9704	23.4375	59.1755	23.4375	58.9869	23.4375	57.9281	23.4375	57.5657	23.4375	56.2532	23.4375	55.545	23.4375	54.1759	23.4375	52.7331	23.4375	52.34	23.4375	49.6753	23.4375	52.5981	23.4375	50.2626	23.4375	55.0189	23.4375	54.039	23.4375	57.7265	23.4375	57.3927	23.4375	60.0211	23.4375	59.9545	23.4375	61.8574	23.4375	61.9109	23.4375	63.2956	23.4375	63.4015	23.4375	64.3883	23.4375	64.5053	23.4375	65.1666	23.4375	65.2639	23.4375	65.6443	23.4375	65.6992	23.4375	65.8233
24.9023	65.4719	24.9023	65.4918	24.9023	65.2468	24.9023	65.3105	24.9023	64.8065	24.9023	64.9265	24.9023	64.1356	24.9023	64.337	24.9023	63.2187	24.9023	63.5476	24.9023	62.0626	24.9023	62.6	24.9023	60.7684	24.9023	61.6345	24.9023	59.7085	24.9023	60.983	24.9023	59.6085	24.9023	61.1031	24.9023	60.807	24.9023	62.1287	24.9023	62.7002	24.9023	63.6824	24.9023	64.6385	24.9023	65.3301	24.9023	66.3536	24.9023	66.8394	24.9023	67.78	24.9023	68.1229	24.9023	68.9141	24.9023	69.1533	24.9023	69.7643	24.9023	69.923	24.9023	70.3376	24.9023	70.4287	24.9023	70.6381	24.9023	70.6679
26.3672	68.9712	26.3672	68.8709	26.3672	68.9643	26.3672	68.6685	26.3672	68.8516	26.3672	68.3775	26.3672	68.642	26.3672	68.0251	26.3672	68.3565	26.3672	67.6608	26.3672	68.0352	26.3672	67.3661	26.3672	67.7469	26.3672	67.2514	26.3672	67.5921	26.3672	67.4246	26.3672	67.6829	26.3672	67.9318	26.3672	68.0916	26.3672	68.7232	26.3672	68.8006	26.3672	69.6833	26.3672	69.7107	26.3672	70.6894	26.3672	70.6962	26.3672	71.6461	26.3672	71.6506	26.3672	72.4898	26.3672	72.4994	26.3672	73.1801	26.3672	73.1945	26.3672	73.6915	26.3672	73.706	26.3672	74.0074	26.3672	74.0164	26.3672	74.1173
27.832	74.3189	27.832	74.3007	27.832	74.2542	27.832	74.2045	27.832	74.1094	27.832	74.0437	27.832	73.8966	27.832	73.8424	27.832	73.6408	27.832	73.6399	27.832	73.3859	27.832	73.4927	27.832	73.1988	27.832	73.4707	27.832	73.1647	27.832	73.6401	27.832	73.3637	27.832	74.0362	27.832	73.8312	27.832	74.6431	27.832	74.5339	27.832	75.3992	27.832	75.3855	27.832	76.2233	27.832	76.2854	27.832	77.0386	27.832	77.1476	27.832	77.7836	27.832	77.91	27.832	78.4124	27.832	78.5305	27.832	78.892	27.832	78.9821	27.832	79.1997	27.832	79.2482	27.832	79.3208
29.2969	77.579	29.2969	77.5723	29.2969	77.5533	29.2969	77.5377	29.2969	77.4993	29.2969	77.4878	29.2969	77.43	29.2969	77.4443	29.2969	77.369	29.2969	77.4373	29.2969	77.3497	29.2969	77.5032	29.2969	77.4134	29.2969	77.6779	29.2969	77.6005	29.2969	77.9873	29.2969	77.9382	29.2969	78.4367	29.2969	78.4284	29.2969	79.0072	29.2969	79.044	29.2969	79.66	29.2969	79.7371	29.2969	80.3469	29.2969	80.4522	29.2969	81.0192	29.2969	81.1371	29.2969	81.6332	29.2969	81.7482	29.2969	82.1532	29.2969	82.2516	29.2969	82.5508	29.2969	82.6223	29.2969	82.8058	29.2969	82.8433	29.2969	82.9051
30.7617	81.5291	30.7617	81.5365	30.7617	81.5032	30.7617	81.5276	30.7617	81.4627	30.7617	81.5108	30.7617	81.4178	30.7617	81.5003	30.7617	81.3852	30.7617	81.5156	30.7617	81.3881	30.7617	81.5804	30.7617	81.4537	30.7617	81.7187	30.7617	81.6086	30.7617	81.9495	30.7617	81.8721	30.7617	82.2814	30.7617	82.2487	30.7617	82.7081	30.7617	82.7248	30.7617	83.2086	30.7617	83.2707	30.7617	83.7505	30.7617	83.8471	30.7617	84.2964	30.7617	84.412	30.7617	84.8084	30.7617	84.9263	30.7617	85.2521	30.7617	85.3564	30.7617	85.5983	30.7617	85.6759	30.7617	85.8247	30.7617	85.866	30.7617	85.9162
32.2266	83.9662	32.2266	83.9681	32.2266	83.961	32.2266	83.9684	32.2266	83.9555	32.2266	83.9744	32.2266	83.9583	32.2266	83.9979	32.2266	83.9828	32.2266	84.0546	32.2266	84.0463	32.2266	84.1628	32.2266	84.1683	32.2266	84.3395	32.2266	84.3662	32.2266	84.5971	32.2266	84.6508	32.2266	84.939	32.2266	85.0222	32.2266	85.3571	32.2266	85.4678	32.2266	85.8325	32.2266	85.9641	32.2266	86.3379	32.2266	86.4804	32.2266	86.8416	32.2266	86.9836	32.2266	87.3113	32.2266	87.4412	32.2266	87.7168	32.2266	87.8245	32.2266	88.0327	32.2266	88.1096	32.2266	88.2391	32.2266	88.2791	32.2266	88.3231
33.6914	86.8842	33.6914	86.8956	33.6914	86.8805	33.6914	86.9156	33.6914	86.8874	33.6914	86.9481	33.6914	86.9113	33.6914	87.0006	33.6914	86.9614	33.6914	87.083	33.6914	87.0491	33.6914	87.2062	33.6914	87.1862	33.6914	87.3807	33.6914	87.3826	33.6914	87.6141	33.6914	87.6439	33.6914	87.9086	33.6914	87.9687	33.6914	88.2594	33.6914	88.3483	33.6914	88.6542	33.6914	88.7663	33.6914	89.0742	33.6914	89.2005	33.6914	89.4957	33.6914	89.6255	33.6914	89.8927	33.6914	90.0145	33.6914	90.2395	33.6914	90.3423	33.6914	90.5127	33.6914	90.5871	33.6914	90.6933	33.6914	90.7324	33.6914	90.7685
35.1562	88.988	35.1562	88.9872	35.1562	89.003	35.1562	89.0015	35.1562	89.0342	35.1562	89.0343	35.1562	89.0858	35.1562	89.0914	35.1562	89.1641	35.1562	89.1806	35.1562	89.2769	35.1562	89.3101	35.1562	89.4317	35.1562	89.4877	35.1562	89.6348	35.1562	89.7185	35.1562	89.8894	35.1562	90.0033	35.1562	90.1938	35.1562	90.3372	35.1562	90.5407	35.1562	90.709	35.1562	90.9172	35.1562	91.1021	35.1562	91.3055	35.1562	91.4956	35.1562	91.6841	35.1562	91.8662	35.1562	92.0305	35.1562	92.1905	35.1562	92.3221	35.1562	92.4472	35.1562	92.5391	35.1562	92.6189	35.1562	92.6661	35.1562	92.6935
36.6211	91.2713	36.6211	91.2831	36.6211	91.2734	36.6211	91.3089	36.6211	91.291	36.6211	91.3507	36.6211	91.3278	36.6211	91.4121	36.6211	91.3889	36.6211	91.4979	36.6211	91.4805	36.6211	91.6135	36.6211	91.6086	36.6211	91.7642	36.6211	91.7783	36.6211	91.9538	36.6211	91.9921	36.6211	92.1835	36.6211	92.2488	36.6211	92.4512	36.6211	92.5429	36.6211	92.7499	36.6211	92.8638	36.6211	93.0683	36.6211	93.1968	36.6211	93.3909	36.6211	93.5237	36.6211	93.6989	36.6211	93.8243	36.6211	93.972	36.6211	94.0786	36.6211	94.1908	36.6211	94.2683	36.6211	94.3385	36.6211	94.3792	36.6211	94.4032
38.0859	92.7218	38.0859	92.7216	38.0859	92.7401	38.0859	92.74	38.0859	92.7775	38.0859	92.7784	38.0859	92.8355	38.0859	92.8392	38.0859	92.9168	38.0859	92.9255	38.0859	93.0244	38.0859	93.0407	38.0859	93.1614	38.0859	93.1881	38.0859	93.3302	38.0859	93.3698	38.0859	93.5318	38.0859	93.5863	38.0859	93.7646	38.0859	93.835	38.0859	94.0245	38.0859	94.1098	38.0859	94.3036	38.0859	94.4007	38.0859	94.5904	38.0859	94.6939	38.0859	94.8706	38.0859	94.973	38.0859	95.1277	38.0859	95.2203	38.0859	95.3447	38.0859	95.4186	38.0859	95.5058	38.0859	95.5535	38.0859	95.5984	38.0859	95.6149
39.5508	93.9313	39.5508	93.9335	39.5508	93.9476	39.5508	93.9544	39.5508	93.9827	39.5508	93.9949	39.5508	94.0378	39.5508	94.0565	39.5508	94.1145	39.5508	94.1412	39.5508	94.2146	39.5508	94.2511	39.5508	94.3401	39.5508	94.3882	39.5508	94.4924	39.5508	94.5538	39.5508	94.6719	39.5508	94.7477	39.5508	94.8774	39.5508	94.9677	39.5508	95.1053	39.5508	95.2086	39.5508	95.3491	39.5508	95.4622	39.5508	95.5998	39.5508	95.7169	39.5508	95.8452	39.5508	95.9588	39.5508	96.0714	39.5508	96.1728	39.5508	96.2636	39.5508	96.3438	39.5508	96.4076	39.5508	96.4592	39.5508	96.4921	39.5508	96.5099
41.0156	94.7743	41.0156	94.7808	41.0156	94.7858	41.0156	94.8052	41.0156	94.8154	41.0156	94.8479	41.0156	94.8638	41.0156	94.9096	41.0156	94.9318	41.0156	94.9911	41.0156	95.0206	41.0156	95.0936	41.0156	95.1309	41.0156	95.218	41.0156	95.2634	41.0156	95.3646	41.0156	95.418	41.0156	95.5332	41.0156	95.5935	41.0156	95.7215	41.0156	95.7871	41.0156	95.9254	41.0156	95.994	41.0156	96.1383	41.0156	96.2069	41.0156	96.3511	41.0156	96.4164	41.0156	96.5523	41.0156	96.6109	41.0156	96.7296	41.0156	96.7778	41.0156	96.8704	41.0156	96.9048	41.0156	96.9637	41.0156	96.9817	41.0156	97.0019
42.4805	95.1323	42.4805	95.1431	42.4805	95.1389	42.4805	95.1709	42.4805	95.163	42.4805	95.2158	42.4805	95.205	42.4805	95.2777	42.4805	95.2653	42.4805	95.3568	42.4805	95.3441	42.4805	95.4532	42.4805	95.4417	42.4805	95.567	42.4805	95.5579	42.4805	95.6977	42.4805	95.6923	42.4805	95.8446	42.4805	95.8436	42.4805	96.0055	42.4805	96.0095	42.4805	96.177	42.4805	96.1862	42.4805	96.3539	42.4805	96.3681	42.4805	96.529	42.4805	96.5472	42.4805	96.6938	42.4805	96.714	42.4805	96.8384	42.4805	96.8577	42.4805	96.9527	42.4805	96.9679	42.4805	97.0275	42.4805	97.0359	42.4805	97.0562
43.9453	95.6331	43.9453	95.6399	43.9453	95.6428	43.9453	95.6633	43.9453	95.669	43.9453	95.7034	43.9453	95.7112	43.9453	95.7598	43.9453	95.7691	43.9453	95.8322	43.9453	95.8423	43.9453	95.9201	43.9453	95.9301	43.9453	96.0226	43.9453	96.0321	43.9453	96.1387	43.9453	96.1475	43.9453	96.2669	43.9453	96.2752	43.9453	96.4052	43.9453	96.4139	43.9453	96.5506	43.9453	96.5608	43.9453	96.6991	43.9453	96.7118	43.9453	96.8455	43.9453	96.8612	43.9453	96.9833	43.9453	97.0009	43.9453	97.1047	43.9453	97.122	43.9453	97.2012	43.9453	97.2153	43.9453	97.265	43.9453	97.2729	43.9453	97.2898
45.4102	95.8136	45.4102	95.8257	45.4102	95.8181	45.4102	95.8544	45.4102	95.839	45.4102	95.8992	45.4102	95.8755	45.4102	95.9593	45.4102	95.9268	45.4102	96.0335	45.4102	95.9919	45.4102	96.1205	45.4102	96.0698	45.4102	96.219	45.4102	96.1599	45.4102	96.3274	45.4102	96.2613	45.4102	96.4441	45.4102	96.3736	45.4102	96.5672	45.4102	96.4957	45.4102	96.6945	45.4102	96.6256	45.4102	96.8227	45.4102	96.7603	45.4102	96.9479	45.4102	96.8948	45.4102	97.0646	45.4102	97.0225	45.4102	97.1659	45.4102	97.1352	45.4102	97.2445	45.4102	97.2248	45.4102	97.2932	45.4102	97.2837	45.4102	97.307
46.875	95.8746	46.875	95.8867	46.875	95.8772	46.875	95.9131	46.875	95.8943	46.875	95.9532	46.875	95.9252	46.875	96.0058	46.875	95.969	46.875	96.0696	46.875	96.0247	46.875	96.143	46.875	96.0911	46.875	96.2245	46.875	96.1672	46.875	96.3124	46.875	96.2521	46.875	96.4056	46.875	96.3449	46.875	96.5027	46.875	96.4447	46.875	96.6024	46.875	96.55	46.875	96.7028	46.875	96.6582	46.875	96.8011	46.875	96.7655	46.875	96.8932	46.875	96.8669	46.875	96.9737	46.875	96.9559	46.875	97.0368	46.875	97.0261	46.875	97.0766	46.875	97.0717	46.875	97.0888
48.3398	95.9435	48.3398	95.9562	48.3398	95.9432	48.3398	95.9808	48.3398	95.9551	48.3398	96.0166	48.3398	95.9789	48.3398	96.0624	48.3398	96.0138	48.3398	96.1169	48.3398	96.059	48.3398	96.1787	48.3398	96.1132	48.3398	96.2462	48.3398	96.1753	48.3398	96.3183	48.3398	96.2442	48.3398	96.3936	48.3398	96.3191	48.3398	96.4712	48.3398	96.3987	48.3398	96.5499	48.3398	96.482	48.3398	96.6281	48.3398	96.5671	48.3398	96.7037	48.3398	96.6515	48.3398	96.7736	48.3398	96.7313	48.3398	96.8338	48.3398	96.8021	48.3398	96.8799	48.3398	96.8589	48.3398	96.9075	48.3398	96.8971	48.3398	96.9137
51.2695	95.8034	51.2695	95.8119	51.2695	95.8056	51.2695	95.831	51.2695	95.8186	51.2695	95.8599	51.2695	95.8416	51.2695	95.8975	51.2695	95.8737	51.2695	95.9423	51.2695	95.9137	51.2695	95.9929	51.2695	95.9601	51.2695	96.0475	51.2695	96.0114	51.2695	96.1046	51.2695	96.0662	51.2695	96.1628	51.2695	96.1233	51.2695	96.2208	51.2695	96.1816	51.2695	96.2774	51.2695	96.2402	51.2695	96.3318	51.2695	96.298	51.2695	96.3826	51.2695	96.3536	51.2695	96.4285	51.2695	96.4051	51.2695	96.4673	51.2695	96.4501	51.2695	96.4969	51.2695	96.4857	51.2695	96.5148	51.2695	96.5094	51.2695	96.5193
52.7344	95.8135	52.7344	95.8231	52.7344	95.8137	52.7344	95.8422	52.7344	95.8236	52.7344	95.87	52.7344	95.8425	52.7344	95.9053	52.7344	95.8696	52.7344	95.9466	52.7344	95.9034	52.7344	95.992	52.7344	95.9424	52.7344	96.0398	52.7344	95.985	52.7344	96.0882	52.7344	96.0296	52.7344	96.1355	52.7344	96.075	52.7344	96.1805	52.7344	96.12	52.7344	96.2222	52.7344	96.1639	52.7344	96.2599	52.7344	96.2061	52.7344	96.2932	52.7344	96.246	52.7344	96.3217	52.7344	96.2827	52.7344	96.3445	52.7344	96.3148	52.7344	96.3607	52.7344	96.3409	52.7344	96.3692	52.7344	96.3593	52.7344	96.3688
54.1992	95.7912	54.1992	95.8012	54.1992	95.7906	54.1992	95.8201	54.1992	95.799	54.1992	95.8472	54.1992	95.8159	54.1992	95.8812	54.1992	95.8402	54.1992	95.9204	54.1992	95.8705	54.1992	95.9631	54.1992	95.9051	54.1992	96.0071	54.1992	95.9423	54.1992	96.0505	54.1992	95.9806	54.1992	96.0916	54.1992	96.0184	54.1992	96.1289	54.1992	96.0547	54.1992	96.1615	54.1992	96.0889	54.1992	96.1889	54.1992	96.1206	54.1992	96.2111	54.1992	96.1498	54.1992	96.2281	54.1992	96.1762	54.1992	96.2401	54.1992	96.1996	54.1992	96.2469	54.1992	96.2192	54.1992	96.2484	54.1992	96.2344	54.1992	96.2442
55.6641	95.8354	55.6641	95.845	55.6641	95.8338	55.6641	95.8622	55.6641	95.8397	55.6641	95.8862	55.6641	95.8526	55.6641	95.9158	55.6641	95.8712	55.6641	95.9493	55.6641	95.894	55.6641	95.9845	55.6641	95.9193	55.6641	96.0194	55.6641	95.9455	55.6641	96.0517	55.6641	95.9709	55.6641	96.0798	55.6641	95.9942	55.6641	96.1022	55.6641	96.0145	55.6641	96.1183	55.6641	96.0317	55.6641	96.1281	55.6641	96.0459	55.6641	96.1323	55.6641	96.058	55.6641	96.132	55.6641	96.0687	55.6641	96.1284	55.6641	96.0788	55.6641	96.1227	55.6641	96.0886	55.6641	96.1154	55.6641	96.0981	55.6641	96.1071
58.5938	95.792	58.5938	95.7953	58.5938	95.7961	58.5938	95.806	58.5938	95.8073	58.5938	95.8234	58.5938	95.8246	58.5938	95.8463	58.5938	95.8469	58.5938	95.8734	58.5938	95.8724	58.5938	95.9026	58.5938	95.8994	58.5938	95.932	58.5938	95.9259	58.5938	95.9593	58.5938	95.95	58.5938	95.9829	58.5938	95.9703	58.5938	96.0013	58.5938	95.9857	58.5938	96.0138	58.5938	95.9958	58.5938	96.0203	58.5938	96.0008	58.5938	96.0216	58.5938	96.0019	58.5938	96.0187	58.5938	96.0004	58.5938	96.0134	58.5938	95.9979	58.5938	96.0071	58.5938	95.9959	58.5938	96.0015	58.5938	95.9956	58.5938	95.9974
60.0586	95.7851	60.0586	95.787	60.0586	95.7903	60.0586	95.7959	60.0586	95.802	60.0586	95.8114	60.0586	95.8195	60.0586	95.8324	60.0586	95.8413	60.0586	95.8574	60.0586	95.8658	60.0586	95.8845	60.0586	95.8911	60.0586	95.9115	60.0586	95.9153	60.0586	95.9364	60.0586	95.9365	60.0586	95.957	60.0586	95.9529	60.0586	95.9718	60.0586	95.9637	60.0586	95.98	60.0586	95.9682	60.0586	95.9815	60.0586	95.9671	60.0586	95.9771	60.0586	95.9614	60.0586	95.9684	60.0586	95.953	60.0586	95.9574	60.0586	95.9441	60.0586	95.9465	60.0586	95.9367	60.0586	95.9379	60.0586	95.9327	60.0586	95.933
62.9883	95.8519	62.9883	95.8507	62.9883	95.859	62.9883	95.8555	62.9883	95.8716	62.9883	95.8659	62.9883	95.8887	62.9883	95.8811	62.9883	95.909	62.9883	95.8996	62.9883	95.9309	62.9883	95.9199	62.9883	95.9525	62.9883	95.9398	62.9883	95.9719	62.9883	95.9572	62.9883	95.9871	62.9883	95.97	62.9883	95.9964	62.9883	95.9768	62.9883	95.9986	62.9883	95.9764	62.9883	95.9932	62.9883	95.969	62.9883	95.9807	62.9883	95.9556	62.9883	95.9627	62.9883	95.9381	62.9883	95.9416	62.9883	95.9195	62.9883	95.9206	62.9883	95.903	62.9883	95.9029	62.9883	95.8915	62.9883	95.8912	62.9883	95.8873
64.4531	95.833	64.4531	95.8291	64.4531	95.8424	64.4531	95.8308	64.4531	95.8567	64.4531	95.8377	64.4531	95.8751	64.4531	95.8491	64.4531	95.8961	64.4531	95.8638	64.4531	95.9183	64.4531	95.88	64.4531	95.9397	64.4531	95.8958	64.4531	95.9581	64.4531	95.9091	64.4531	95.9716	64.4531	95.9178	64.4531	95.9782	64.4531	95.9203	64.4531	95.9767	64.4531	95.9158	64.4531	95.9665	64.4531	95.9044	64.4531	95.9482	64.4531	95.8872	64.4531	95.9236	64.4531	95.8666	64.4531	95.8954	64.4531	95.8459	64.4531	95.8672	64.4531	95.8287	64.4531	95.8427	64.4531	95.8182	64.4531	95.8252	64.4531	95.8168
67.3828	95.8242	67.3828	95.8157	67.3828	95.8366	67.3828	95.8111	67.3828	95.8524	67.3828	95.8101	67.3828	95.871	67.3828	95.8121	67.3828	95.8911	67.3828	95.8158	67.3828	95.911	67.3828	95.8199	67.3828	95.9288	67.3828	95.8227	67.3828	95.9424	67.3828	95.8223	67.3828	95.9494	67.3828	95.817	67.3828	95.948	67.3828	95.8058	67.3828	95.9367	67.3828	95.7882	67.3828	95.9152	67.3828	95.7649	67.3828	95.8843	67.3828	95.738	67.3828	95.8459	67.3828	95.7105	67.3828	95.8033	67.3828	95.6865	67.3828	95.7604	67.3828	95.67	67.3828	95.7215	67.3828	95.6642	67.3828	95.6907	67.3828	95.671
68.8477	95.8466	68.8477	95.8414	68.8477	95.8549	68.8477	95.8394	68.8477	95.866	68.8477	95.8402	68.8477	95.8792	68.8477	95.8429	68.8477	95.8935	68.8477	95.8465	68.8477	95.9074	68.8477	95.8494	68.8477	95.9191	68.8477	95.8499	68.8477	95.9264	68.8477	95.8459	68.8477	95.9273	68.8477	95.8359	68.8477	95.9198	68.8477	95.8184	68.8477	95.9026	68.8477	95.7931	68.8477	95.8753	68.8477	95.7609	68.8477	95.8386	68.8477	95.7238	68.8477	95.7947	68.8477	95.6856	68.8477	95.747	68.8477	95.6507	68.8477	95.6999	68.8477	95.624	68.8477	95.6586	68.8477	95.6098	68.8477	95.6276	68.8477	95.6108
71.7773	96.0124	71.7773	96.0004	71.7773	96.0254	71.7773	95.9899	71.7773	96.0391	71.7773	95.9807	71.7773	96.0529	71.7773	95.9727	71.7773	96.0659	71.7773	95.9655	71.7773	96.0769	71.7773	95.9582	71.7773	96.0844	71.7773	95.9497	71.7773	96.0864	71.7773	95.9385	71.7773	96.0811	71.7773	95.9231	71.7773	96.0664	71.7773	95.9022	71.7773	96.0411	71.7773	95.8752	71.7773	96.0048	71.7773	95.8423	71.7773	95.9582	71.7773	95.8049	71.7773	95.9039	71.7773	95.766	71.7773	95.8458	71.7773	95.7298	71.7773	95.7895	71.7773	95.7014	71.7773	95.7408	71.7773	95.6857	71.7773	95.7052	71.7773	95.6865
74.707	96.0923	74.707	96.076	74.707	96.1087	74.707	96.0599	74.707	96.1248	74.707	96.0439	74.707	96.1402	74.707	96.0279	74.707	96.1541	74.707	96.0115	74.707	96.1655	74.707	95.9941	74.707	96.1727	74.707	95.9747	74.707	96.174	74.707	95.9523	74.707	96.1671	74.707	95.9259	74.707	96.1501	74.707	95.8948	74.707	96.1213	74.707	95.8589	74.707	96.08	74.707	95.8193	74.707	96.0269	74.707	95.778	74.707	95.9644	74.707	95.7386	74.707	95.8967	74.707	95.7055	74.707	95.8294	74.707	95.6837	74.707	95.7688	74.707	95.6774	74.707	95.7207	74.707	95.6895
77.6367	96.1495	77.6367	96.1457	77.6367	96.1526	77.6367	96.1409	77.6367	96.1549	77.6367	96.1349	77.6367	96.1566	77.6367	96.1275	77.6367	96.1571	77.6367	96.1178	77.6367	96.1558	77.6367	96.1053	77.6367	96.1515	77.6367	96.0886	77.6367	96.1428	77.6367	96.0667	77.6367	96.1276	77.6367	96.0382	77.6367	96.1043	77.6367	96.0023	77.6367	96.0712	77.6367	95.9588	77.6367	96.0279	77.6367	95.9089	77.6367	95.9751	77.6367	95.8548	77.6367	95.9151	77.6367	95.8005	77.6367	95.8522	77.6367	95.7512	77.6367	95.7919	77.6367	95.7125	77.6367	95.7406	77.6367	95.6897	77.6367	95.704	77.6367	95.6865
79.1016	96.186	79.1016	96.1855	79.1016	96.1846	79.1016	96.1828	79.1016	96.1814	79.1016	96.1779	79.1016	96.1762	79.1016	96.1701	79.1016	96.1689	79.1016	96.159	79.1016	96.1586	79.1016	96.1436	79.1016	96.1445	79.1016	96.1229	79.1016	96.1251	79.1016	96.0956	79.1016	96.0989	79.1016	96.0606	79.1016	96.0644	79.1016	96.017	79.1016	96.0206	79.1016	95.9647	79.1016	95.9675	79.1016	95.9049	79.1016	95.9064	79.1016	95.8403	79.1016	95.8403	79.1016	95.775	79.1016	95.7739	79.1016	95.7147	79.1016	95.713	79.1016	95.6654	79.1016	95.6637	79.1016	95.6328	79.1016	95.6318	79.1016	95.621
82.0312	96.1732	82.0312	96.1707	82.0312	96.1734	82.0312	96.1657	82.0312	96.171	82.0312	96.1583	82.0312	96.166	82.0312	96.148	82.0312	96.1578	82.0312	96.1344	82.0312	96.1459	82.0312	96.1167	82.0312	96.1292	82.0312	96.0935	82.0312	96.1062	82.0312	96.0637	82.0312	96.0754	82.0312	96.0258	82.0312	96.0353	82.0312	95.979	82.0312	95.9852	82.0312	95.9234	82.0312	95.9252	82.0312	95.8599	82.0312	95.857	82.0312	95.7913	82.0312	95.7842	82.0312	95.7218	82.0312	95.7118	82.0312	95.657	82.0312	95.6463	82.0312	95.6032	82.0312	95.5943	82.0312	95.5667	82.0312	95.5616	82.0312	95.5522
84.9609	96.2342	84.9609	96.2256	84.9609	96.2386	84.9609	96.2132	84.9609	96.2385	84.9609	96.1973	84.9609	96.2335	84.9609	96.1783	84.9609	96.2233	84.9609	96.1559	84.9609	96.2072	84.9609	96.1298	84.9609	96.1845	84.9609	96.0991	84.9609	96.1546	84.9609	96.0627	84.9609	96.1163	84.9609	96.0195	84.9609	96.0689	84.9609	95.9687	84.9609	96.0122	84.9609	95.9103	84.9609	95.9468	84.9609	95.8457	84.9609	95.8745	84.9609	95.7774	84.9609	95.7986	84.9609	95.7094	84.9609	95.7239	84.9609	95.6472	84.9609	95.6563	84.9609	95.5968	84.9609	95.6018	84.9609	95.564	84.9609	95.5662	84.9609	95.5532
87.8906	96.2247	87.8906	96.2264	87.8906	96.2189	87.8906	96.2236	87.8906	96.2093	87.8906	96.2163	87.8906	96.1964	87.8906	96.2046	87.8906	96.1804	87.8906	96.1886	87.8906	96.1613	87.8906	96.1679	87.8906	96.1383	87.8906	96.142	87.8906	96.1101	87.8906	96.11	87.8906	96.075	87.8906	96.0705	87.8906	96.0315	87.8906	96.0225	87.8906	95.9785	87.8906	95.9654	87.8906	95.9162	87.8906	95.9001	87.8906	95.8465	87.8906	95.8285	87.8906	95.7731	87.8906	95.7546	87.8906	95.7013	87.8906	95.6841	87.8906	95.6378	87.8906	95.6236	87.8906	95.5894	87.8906	95.5799	87.8906	95.5617	87.8906	95.5584
90.8203	96.4686	90.8203	96.4828	90.8203	96.4424	90.8203	96.4852	90.8203	96.4046	90.8203	96.4766	90.8203	96.3562	90.8203	96.4579	90.8203	96.2987	90.8203	96.43	90.8203	96.2339	90.8203	96.3936	90.8203	96.1636	90.8203	96.3489	90.8203	96.0896	90.8203	96.2956	90.8203	96.0132	90.8203	96.2329	90.8203	95.9353	90.8203	96.1603	90.8203	95.8567	90.8203	96.0775	90.8203	95.7786	90.8203	95.9856	90.8203	95.7025	90.8203	95.8873	90.8203	95.6312	90.8203	95.7871	90.8203	95.5685	90.8203	95.6911	90.8203	95.5189	90.8203	95.6065	90.8203	95.4875	90.8203	95.5399	90.8203	95.4791	90.8203	95.4965
95.2148	96.2678	95.2148	96.2586	95.2148	96.2678	95.2148	96.2405	95.2148	96.2592	95.2148	96.2139	95.2148	96.2425	95.2148	96.1799	95.2148	96.2187	95.2148	96.1399	95.2148	96.1885	95.2148	96.0949	95.2148	96.152	95.2148	96.0457	95.2148	96.1091	95.2148	95.9926	95.2148	96.0588	95.2148	95.9352	95.2148	96.0002	95.2148	95.8725	95.2148	95.9322	95.2148	95.8038	95.2148	95.855	95.2148	95.7293	95.2148	95.7699	95.2148	95.6506	95.2148	95.6804	95.2148	95.5719	95.2148	95.5919	95.2148	95.4993	95.2148	95.5115	95.2148	95.4401	95.2148	95.4466	95.2148	95.4015	95.2148	95.4042	95.2148	95.3887
98.1445	96.3728	98.1445	96.3677	98.1445	96.3664	98.1445	96.3515	98.1445	96.3488	98.1445	96.325	98.1445	96.3207	98.1445	96.2893	98.1445	96.2834	98.1445	96.2455	98.1445	96.2382	98.1445	96.1947	98.1445	96.1865	98.1445	96.1376	98.1445	96.1292	98.1445	96.0749	98.1445	96.0668	98.1445	96.0067	98.1445	95.9991	98.1445	95.9334	98.1445	95.9257	98.1445	95.8554	98.1445	95.8466	98.1445	95.7737	98.1445	95.763	98.1445	95.6907	98.1445	95.6777	98.1445	95.6097	98.1445	95.5952	98.1445	95.5361	98.1445	95.5219	98.1445	95.4758	98.1445	95.4643	98.1445	95.4351	98.1445	95.4286	98.1445	95.4186
101.074	96.0475	101.074	96.0577	101.074	96.0363	101.074	96.0666	101.074	96.0242	101.074	96.0742	101.074	96.0111	101.074	96.08	101.074	95.9967	101.074	96.0835	101.074	95.9804	101.074	96.084	101.074	95.9616	101.074	96.0805	101.074	95.9398	101.074	96.0716	101.074	95.9145	101.074	96.0563	101.074	95.8857	101.074	96.0336	101.074	95.8538	101.074	96.0034	101.074	95.8198	101.074	95.9664	101.074	95.7852	101.074	95.9242	101.074	95.7526	101.074	95.8788	101.074	95.7249	101.074	95.8327	101.074	95.7057	101.074	95.7889	101.074	95.6977	101.074	95.7505	101.074	95.7027	101.074	95.7209
105.469	96.5751	105.469	96.5686	105.469	96.562	105.469	96.5426	105.469	96.5307	105.469	96.4984	105.469	96.484	105.469	96.4385	105.469	96.4253	105.469	96.3663	105.469	96.3582	105.469	96.2852	105.469	96.2858	105.469	96.1983	105.469	96.2104	105.469	96.108	105.469	96.1327	105.469	96.0161	105.469	96.0528	105.469	95.9234	105.469	95.9702	105.469	95.8308	105.469	95.8846	105.469	95.7396	105.469	95.7964	105.469	95.6522	105.469	95.7077	105.469	95.572	105.469	95.6218	105.469	95.5034	105.469	95.544	105.469	95.4515	105.469	95.4802	105.469	95.4212	105.469	95.4359	105.469	95.4157
108.398	96.8122	108.398	96.8004	108.398	96.7994	108.398	96.7642	108.398	96.7632	108.398	96.705	108.398	96.7061	108.398	96.6256	108.398	96.6318	108.398	96.5298	108.398	96.5449	108.398	96.4217	108.398	96.4501	108.398	96.3059	108.398	96.3518	108.398	96.1868	108.398	96.2534	108.398	96.068	108.398	96.1567	108.398	95.9526	108.398	96.0621	108.398	95.8429	108.398	95.9687	108.398	95.7408	108.398	95.8756	108.398	95.6484	108.398	95.7825	108.398	95.5683	108.398	95.6913	108.398	95.5039	108.398	95.6058	108.398	95.4593	108.398	95.5319	108.398	95.4384	108.398	95.4762	108.398	95.444
112.793	96.8865	112.793	96.8883	112.793	96.8577	112.793	96.8635	112.793	96.8025	112.793	96.8135	112.793	96.7229	112.793	96.7407	112.793	96.6217	112.793	96.6483	112.793	96.5029	112.793	96.54	112.793	96.3712	112.793	96.4201	112.793	96.2317	112.793	96.2929	112.793	96.0898	112.793	96.1628	112.793	95.9508	112.793	96.034	112.793	95.8196	112.793	95.9104	112.793	95.7004	112.793	95.795	112.793	95.5968	112.793	95.6905	112.793	95.5114	112.793	95.5989	112.793	95.4459	112.793	95.5215	112.793	95.401	112.793	95.4594	112.793	95.3763	112.793	95.4132	112.793	95.3708	112.793	95.3835
117.188	96.9851	117.188	96.973	117.188	96.9683	117.188	96.9324	117.188	96.9227	117.188	96.8648	117.188	96.85	117.188	96.7723	117.188	96.7522	117.188	96.6578	117.188	96.6327	117.188	96.5244	117.188	96.4951	117.188	96.3759	117.188	96.3439	117.188	96.2161	117.188	96.1838	117.188	96.0499	117.188	96.0196	117.188	95.8822	117.188	95.8566	117.188	95.7187	117.188	95.7	117.188	95.5655	117.188	95.5549	117.188	95.4284	117.188	95.4259	117.188	95.3128	117.188	95.317	117.188	95.2224	117.188	95.2305	117.188	95.1592	117.188	95.1676	117.188	95.1233	117.188	95.1285	117.188	95.1135
120.117	97.0176	120.117	97.0074	120.117	97.0001	120.117	96.9705	120.117	96.9544	120.117	96.9083	120.117	96.8812	120.117	96.8229	120.117	96.7818	120.117	96.7162	120.117	96.6586	120.117	96.5907	120.117	96.5149	120.117	96.4489	120.117	96.3548	120.117	96.2938	120.117	96.1831	120.117	96.1292	120.117	96.0051	120.117	95.9593	120.117	95.8271	120.117	95.7894	120.117	95.6553	120.117	95.6255	120.117	95.4965	120.117	95.4737	120.117	95.3567	120.117	95.34	120.117	95.2411	120.117	95.2294	120.117	95.1532	120.117	95.1455	120.117	95.0943	120.117	95.0899	120.117	95.0643	120.117	95.0629
124.512	96.8504	124.512	96.8397	124.512	96.8394	124.512	96.8074	124.512	96.8069	124.512	96.7541	124.512	96.7533	124.512	96.6806	124.512	96.6796	124.512	96.5881	124.512	96.5867	124.512	96.4774	124.512	96.4754	124.512	96.3498	124.512	96.3469	124.512	96.2061	124.512	96.2023	124.512	96.048	124.512	96.0431	124.512	95.8777	124.512	95.8721	124.512	95.6993	124.512	95.6933	124.512	95.5184	124.512	95.5124	124.512	95.3429	124.512	95.3372	124.512	95.1819	124.512	95.177	124.512	95.0448	124.512	95.0411	124.512	94.9403	124.512	94.9378	124.512	94.8748	124.512	94.8736	124.512	94.8521
128.906	96.5573	128.906	96.5534	128.906	96.5407	128.906	96.5292	128.906	96.5048	128.906	96.4863	128.906	96.4516	128.906	96.4272	128.906	96.3845	128.906	96.3549	128.906	96.3071	128.906	96.2728	128.906	96.2227	128.906	96.1838	128.906	96.1342	128.906	96.0903	128.906	96.0436	128.906	95.9941	128.906	95.9521	128.906	95.8965	128.906	95.8603	128.906	95.7988	128.906	95.7688	128.906	95.7027	128.906	95.6788	128.906	95.6108	128.906	95.5926	128.906	95.5266	128.906	95.5134	128.906	95.4543	128.906	95.4453	128.906	95.3983	128.906	95.3929	128.906	95.3625	128.906	95.36	128.906	95.3495
133.301	96.8073	133.301	96.8159	133.301	96.7678	133.301	96.7936	133.301	96.6992	133.301	96.7417	133.301	96.6047	133.301	96.6632	133.301	96.4892	133.301	96.562	133.301	96.3587	133.301	96.4429	133.301	96.2201	133.301	96.3113	133.301	96.0803	133.301	96.1728	133.301	95.9455	133.301	96.0331	133.301	95.8209	133.301	95.8977	133.301	95.7099	133.301	95.7715	133.301	95.6142	133.301	95.6585	133.301	95.5342	133.301	95.562	133.301	95.4695	133.301	95.4837	133.301	95.4189	133.301	95.424	133.301	95.3817	133.301	95.3819	133.301	95.357	133.301	95.3557	133.301	95.3443	133.301	95.3436
139.16	96.7864	139.16	96.7881	139.16	96.7514	139.16	96.7577	139.16	96.684	139.16	96.6973	139.16	96.5865	139.16	96.6109	139.16	96.4625	139.16	96.5031	139.16	96.3174	139.16	96.3794	139.16	96.1574	139.16	96.2456	139.16	95.9895	139.16	96.107	139.16	95.8211	139.16	95.9685	139.16	95.6595	139.16	95.8344	139.16	95.5113	139.16	95.7078	139.16	95.3823	139.16	95.5911	139.16	95.277	139.16	95.4859	139.16	95.1978	139.16	95.3934	139.16	95.1452	139.16	95.3138	139.16	95.1175	139.16	95.2473	139.16	95.1118	139.16	95.1936	139.16	95.1245	139.16	95.1524
143.555	96.7596	143.555	96.7446	143.555	96.7384	143.555	96.6943	143.555	96.6819	143.555	96.6114	143.555	96.5928	143.555	96.5002	143.555	96.4756	143.555	96.3665	143.555	96.3362	143.555	96.2172	143.555	96.1812	143.555	96.0598	143.555	96.0184	143.555	95.9022	143.555	95.8553	143.555	95.7518	143.555	95.6993	143.555	95.6154	143.555	95.5568	143.555	95.498	143.555	95.4332	143.555	95.4024	143.555	95.3322	143.555	95.3287	143.555	95.2555	143.555	95.2742	143.555	95.2029	143.555	95.235	143.555	95.172	143.555	95.2063	143.555	95.1589	143.555	95.1847	143.555	95.1592	143.555	95.1688
147.949	96.7831	147.949	96.761	147.949	96.7647	147.949	96.6993	147.949	96.7068	147.949	96.6008	147.949	96.6124	147.949	96.4702	147.949	96.4864	147.949	96.3138	147.949	96.3358	147.949	96.1392	147.949	96.1685	147.949	95.9549	147.949	95.9935	147.949	95.7701	147.949	95.82	147.949	95.5941	147.949	95.6564	147.949	95.4356	147.949	95.5099	147.949	95.3019	147.949	95.3859	147.949	95.1981	147.949	95.2875	147.949	95.1262	147.949	95.2147	147.949	95.0842	147.949	95.1651	147.949	95.0667	147.949	95.1335	147.949	95.0662	147.949	95.1137	147.949	95.0749	147.949	95.0995	147.949	95.0869
153.809	96.8971	153.809	96.8837	153.809	96.8632	153.809	96.8234	153.809	96.7834	153.809	96.7184	153.809	96.6609	153.809	96.5727	153.809	96.5009	153.809	96.3921	153.809	96.3111	153.809	96.1845	153.809	96.1013	153.809	95.9599	153.809	95.8837	153.809	95.7301	153.809	95.6719	153.809	95.5083	153.809	95.4797	153.809	95.3083	153.809	95.3185	153.809	95.1426	153.809	95.1957	153.809	95.0203	153.809	95.1124	153.809	94.945	153.809	95.064	153.809	94.9138	153.809	95.0417	153.809	94.9173	153.809	95.0342	153.809	94.9422	153.809	95.0306	153.809	94.9745	153.809	95.0219	153.809	95.0031
159.668	96.9252	159.668	96.9135	159.668	96.8916	159.668	96.8573	159.668	96.8131	159.668	96.7588	159.668	96.6916	159.668	96.6216	159.668	96.5308	159.668	96.4508	159.668	96.3364	159.668	96.2537	159.668	96.1164	159.668	96.0396	159.668	95.8819	159.668	95.8197	159.668	95.6469	159.668	95.6071	159.668	95.4276	159.668	95.4153	159.668	95.2406	159.668	95.2559	159.668	95.0994	159.668	95.1372	159.668	95.0106	159.668	95.062	159.668	94.9718	159.668	95.0265	159.668	94.9721	159.668	95.0214	159.668	94.9954	159.668	95.0334	159.668	95.0248	159.668	95.0485	159.668	95.0472	159.668	95.0552
165.527	97.0352	165.527	97.0133	165.527	97.0061	165.527	96.9415	165.527	96.927	165.527	96.8222	165.527	96.8004	165.527	96.66	165.527	96.6311	165.527	96.4613	165.527	96.4258	165.527	96.2348	165.527	96.1942	165.527	95.9916	165.527	95.9484	165.527	95.7456	165.527	95.7039	165.527	95.513	165.527	95.4779	165.527	95.3112	165.527	95.2887	165.527	95.1559	165.527	95.1514	165.527	95.0579	165.527	95.0741	165.527	95.019	165.527	95.0545	165.527	95.0311	165.527	95.0794	165.527	95.0775	165.527	95.1281	165.527	95.1367	165.527	95.1784	165.527	95.1879	165.527	95.2113	165.527	95.2152
171.387	97.2973	171.387	97.2696	171.387	97.2661	171.387	97.1828	171.387	97.1773	171.387	97.038	171.387	97.033	171.387	96.8382	171.387	96.837	171.387	96.5887	171.387	96.5947	171.387	96.2981	171.387	96.3142	171.387	95.9792	171.387	96.0076	171.387	95.65	171.387	95.6915	171.387	95.3335	171.387	95.3872	171.387	95.0562	171.387	95.1194	171.387	94.844	171.387	94.9116	171.387	94.7146	171.387	94.78	171.387	94.6711	171.387	94.7277	171.387	94.699	171.387	94.7422	171.387	94.7701	171.387	94.7987	171.387	94.8513	171.387	94.8672	171.387	94.9136	171.387	94.9202	171.387	94.9383
177.246	97.225	177.246	97.2261	177.246	97.1688	177.246	97.1697	177.246	97.0601	177.246	97.0535	177.246	96.9013	177.246	96.8759	177.246	96.6954	177.246	96.6368	177.246	96.4458	177.246	96.3386	177.246	96.1582	177.246	95.9879	177.246	95.8413	177.246	95.5977	177.246	95.5093	177.246	95.1892	177.246	95.1822	177.246	94.7928	177.246	94.8848	177.246	94.445	177.246	94.6426	177.246	94.1811	177.246	94.4738	177.246	94.0243	177.246	94.3819	177.246	93.9759	177.246	94.3521	177.246	94.0146	177.246	94.3566	177.246	94.1047	177.246	94.3636	177.246	94.2083	177.246	94.3475	177.246	94.295
183.105	97.0724	183.105	97.0868	183.105	97.0064	183.105	97.0491	183.105	96.8898	183.105	96.9587	183.105	96.724	183.105	96.8146	183.105	96.5113	183.105	96.6164	183.105	96.2557	183.105	96.3643	183.105	95.9632	183.105	96.0615	183.105	95.6428	183.105	95.7157	183.105	95.3082	183.105	95.342	183.105	94.9789	183.105	94.9646	183.105	94.6801	183.105	94.616	183.105	94.439	183.105	94.332	183.105	94.2771	183.105	94.1418	183.105	94.2008	183.105	94.0565	183.105	94.1966	183.105	94.0626	183.105	94.2343	183.105	94.127	183.105	94.2776	183.105	94.2086	183.105	94.2956	183.105	94.2718
188.965	97.2521	188.965	97.2645	188.965	97.189	188.965	97.2283	188.965	97.0722	188.965	97.145	188.965	96.8993	188.965	97.0143	188.965	96.669	188.965	96.835	188.965	96.3817	188.965	96.6053	188.965	96.0415	188.965	96.3247	188.965	95.6575	188.965	95.9968	188.965	95.2456	188.965	95.6323	188.965	94.8304	188.965	95.2513	188.965	94.4458	188.965	94.8838	188.965	94.1303	188.965	94.5655	188.965	93.9181	188.965	94.3276	188.965	93.8243	188.965	94.1853	188.965	93.8361	188.965	94.1296	188.965	93.9166	188.965	94.1302	188.965	94.0186	188.965	94.1473	188.965	94.1021	188.965	94.1449
196.289	97.2976	196.289	97.2815	196.289	97.2622	196.289	97.216	196.289	97.1742	196.289	97.1042	196.289	97.033	196.289	96.9496	196.289	96.8378	196.289	96.7553	196.289	96.5876	196.289	96.5231	196.289	96.2816	196.289	96.2536	196.289	95.9213	196.289	95.9478	196.289	95.5134	196.289	95.6102	196.289	95.0736	196.289	95.2519	196.289	94.6291	196.289	94.8936	196.289	94.2185	196.289	94.5637	196.289	93.8852	196.289	94.2914	196.289	93.6635	196.289	94.0951	196.289	93.5641	196.289	93.9734	196.289	93.568	196.289	93.9043	196.289	93.6353	196.289	93.8557	196.289	93.7226	196.289	93.7992
203.613	97.1265	203.613	97.0841	203.613	97.105	203.613	96.9793	203.613	97.0205	203.613	96.8156	203.613	96.8753	203.613	96.5989	203.613	96.6725	203.613	96.3363	203.613	96.4156	203.613	96.0354	203.613	96.108	203.613	95.7043	203.613	95.7541	203.613	95.3517	203.613	95.3617	203.613	94.9895	203.613	94.9454	203.613	94.635	203.613	94.5297	203.613	94.3121	203.613	94.1497	203.613	94.0482	203.613	93.8446	203.613	93.8656	203.613	93.6448	203.613	93.7695	203.613	93.5576	203.613	93.7432	203.613	93.5634	203.613	93.7533	203.613	93.6233	203.613	93.763	203.613	93.695	203.613	93.7462
210.938	96.9995	210.938	96.9281	210.938	97.0221	210.938	96.8087	210.938	96.9947	210.938	96.6424	210.938	96.9161	210.938	96.4304	210.938	96.7852	210.938	96.1745	210.938	96.601	210.938	95.8783	210.938	96.3634	210.938	95.5478	210.938	96.0745	210.938	95.192	210.938	95.7397	210.938	94.824	210.938	95.3703	210.938	94.4611	210.938	94.9851	210.938	94.1255	210.938	94.6109	210.938	93.8424	210.938	94.2788	210.938	93.6347	210.938	94.0155	210.938	93.5143	210.938	93.8332	210.938	93.475	210.938	93.724	210.938	93.4933	210.938	93.6642	210.938	93.5386	210.938	93.6255	210.938	93.5861
218.262	96.7699	218.262	96.7507	218.262	96.7361	218.262	96.677	218.262	96.6522	218.262	96.549	218.262	96.5223	218.262	96.3674	218.262	96.3511	218.262	96.1336	218.262	96.143	218.262	95.8493	218.262	95.9021	218.262	95.5186	218.262	95.6335	218.262	95.1503	218.262	95.3445	218.262	94.7616	218.262	95.0468	218.262	94.38	218.262	94.758	218.262	94.0424	218.262	94.5008	218.262	93.7871	218.262	94.2985	218.262	93.6409	218.262	94.166	218.262	93.6071	218.262	94.1003	218.262	93.663	218.262	94.0793	218.262	93.7699	218.262	94.0706	218.262	93.8871	218.262	94.0446	218.262	93.9838
225.586	96.9925	225.586	97.0381	225.586	96.8742	225.586	97.0102	225.586	96.6859	225.586	96.909	225.586	96.4316	225.586	96.7362	225.586	96.1178	225.586	96.4954	225.586	95.7535	225.586	96.193	225.586	95.3519	225.586	95.8399	225.586	94.9325	225.586	95.453	225.586	94.5233	225.586	95.0571	225.586	94.1615	225.586	94.6851	225.586	93.8876	225.586	94.3751	225.586	93.7339	225.586	94.1629	225.586	93.711	225.586	94.0686	225.586	93.8022	225.586	94.0863	225.586	93.9681	225.586	94.1833	225.586	94.1588	225.586	94.3101	225.586	94.3266	225.586	94.4169	225.586	94.4352	225.586	94.4653
232.91	97.353	232.91	97.3243	232.91	97.3098	232.91	97.2264	232.91	97.1924	232.91	97.0622	232.91	96.9986	232.91	96.8344	232.91	96.7264	232.91	96.5457	232.91	96.3733	232.91	96.1991	232.91	95.9378	232.91	95.7995	232.91	95.4213	232.91	95.3577	232.91	94.8356	232.91	94.8951	232.91	94.2131	232.91	94.4487	232.91	93.6175	232.91	94.0706	232.91	93.1426	232.91	93.8145	232.91	92.8816	232.91	93.7117	232.91	92.8729	232.91	93.7497	232.91	93.0718	232.91	93.8746	232.91	93.3793	232.91	94.0128	232.91	93.6938	232.91	94.0963	232.91	93.9408	232.91	94.0786
241.699	97.1205	241.699	97.0899	241.699	97.0911	241.699	96.9967	241.699	97.0039	241.699	96.8386	241.699	96.8602	241.699	96.6143	241.699	96.6597	241.699	96.3234	241.699	96.4005	241.699	95.9668	241.699	96.079	241.699	95.5469	241.699	95.6912	241.699	95.0694	241.699	95.2344	241.699	94.548	241.699	94.7127	241.699	94.0119	241.699	94.1458	241.699	93.5136	241.699	93.5812	241.699	93.1249	241.699	93.0992	241.699	92.911	241.699	92.7928	241.699	92.8899	241.699	92.7156	241.699	93.0125	241.699	92.8359	241.699	93.1865	241.699	93.0513	241.699	93.3188	241.699	93.2476	241.699	93.3461
250.488	97.2773	250.488	97.2855	250.488	97.1953	250.488	97.2191	250.488	97.0406	250.488	97.0767	250.488	96.8156	250.488	96.8557	250.488	96.5242	250.488	96.5535	250.488	96.1729	250.488	96.1699	250.488	95.7709	250.488	95.7108	250.488	95.3313	250.488	95.192	250.488	94.8723	250.488	94.6412	250.488	94.4176	250.488	94.0966	250.488	93.9953	250.488	93.6015	250.488	93.6363	250.488	93.1979	250.488	93.3687	250.488	92.9207	250.488	93.2091	250.488	92.7892	250.488	93.1524	250.488	92.7963	250.488	93.1668	250.488	92.9012	250.488	93.2025	250.488	93.0409	250.488	93.2091	250.488	93.1552
259.277	97.4165	259.277	97.4147	259.277	97.3456	259.277	97.3423	259.277	97.2009	259.277	97.2013	259.277	96.9832	259.277	96.9912	259.277	96.6956	259.277	96.7074	259.277	96.3422	259.277	96.3408	259.277	95.9286	259.277	95.8811	259.277	95.4616	259.277	95.324	259.277	94.9518	259.277	94.6842	259.277	94.4181	259.277	94.0093	259.277	93.893	259.277	93.3866	259.277	93.4259	259.277	92.9229	259.277	93.077	259.277	92.6907	259.277	92.8939	259.277	92.6814	259.277	92.8802	259.277	92.817	259.277	92.9849	259.277	93.002	259.277	93.1257	259.277	93.1598	259.277	93.2267	259.277	93.2416
268.066	97.0956	268.066	97.0787	268.066	97.0376	268.066	96.9898	268.066	96.9021	268.066	96.8323	268.066	96.6868	268.066	96.6097	268.066	96.3886	268.066	96.3258	268.066	96.0046	268.066	95.984	268.066	95.5327	268.066	95.5875	268.066	94.977	268.066	95.1396	268.066	94.3556	268.066	94.6484	268.066	93.7105	268.066	94.136	268.066	93.1114	268.066	93.6481	268.066	92.6406	268.066	93.2514	268.066	92.3605	268.066	93.0066	268.066	92.2843	268.066	92.929	268.066	92.3753	268.066	92.9737	268.066	92.5688	268.066	93.0619	268.066	92.793	268.066	93.1194	268.066	92.9843	268.066	93.0986
276.855	97.0865	276.855	97.0122	276.855	97.0901	276.855	96.8634	276.855	97.0256	276.855	96.6374	276.855	96.8929	276.855	96.3335	276.855	96.6882	276.855	95.9529	276.855	96.4037	276.855	95.4971	276.855	96.0261	276.855	94.9689	276.855	95.5388	276.855	94.3768	276.855	94.9308	276.855	93.7437	276.855	94.2146	276.855	93.1162	276.855	93.4534	276.855	92.5702	276.855	92.7758	276.855	92.2006	276.855	92.3367	276.855	92.0789	276.855	92.2104	276.855	92.194	276.855	92.3274	276.855	92.4448	276.855	92.5466	276.855	92.7037	276.855	92.7559	276.855	92.8817	276.855	92.8977	276.855	92.9453
287.109	96.8796	287.109	96.8585	287.109	96.8477	287.109	96.7868	287.109	96.7569	287.109	96.6618	287.109	96.5998	287.109	96.4742	287.109	96.3692	287.109	96.2089	287.109	96.0599	287.109	95.8474	287.109	95.6727	287.109	95.372	287.109	95.2167	287.109	94.7741	287.109	94.7086	287.109	94.0681	287.109	94.1671	287.109	93.3094	287.109	93.61	287.109	92.6059	287.109	93.0682	287.109	92.0971	287.109	92.6131	287.109	91.8872	287.109	92.3584	287.109	91.9809	287.109	92.385	287.109	92.2863	287.109	92.6404	287.109	92.6704	287.109	92.9576	287.109	93.0047	287.109	93.1708	287.109	93.1895
297.363	97.1535	297.363	97.2008	297.363	97.0202	297.363	97.1671	297.363	96.8024	297.363	97.0623	297.363	96.5059	297.363	96.8964	297.363	96.1354	297.363	96.6724	297.363	95.6878	297.363	96.3798	297.363	95.1473	297.363	95.993	297.363	94.4896	297.363	95.4781	297.363	93.7002	297.363	94.8103	297.363	92.8098	297.363	94.0038	297.363	91.9358	297.363	93.157	297.363	91.2864	297.363	92.4789	297.363	91.0529	297.363	92.2038	297.363	91.2481	297.363	92.3757	297.363	91.7132	297.363	92.7885	297.363	92.2666	297.363	93.1842	297.363	92.7817	297.363	93.4053	297.363	93.1784	297.363	93.3998
307.617	97.3609	307.617	97.2697	307.617	97.3864	307.617	97.1113	307.617	97.3433	307.617	96.8832	307.617	97.2234	307.617	96.5833	307.617	97.0159	307.617	96.2096	307.617	96.7125	307.617	95.7588	307.617	96.3087	307.617	95.2279	307.617	95.7967	307.617	94.618	307.617	95.1531	307.617	93.9383	307.617	94.3361	307.617	93.2102	307.617	93.3105	307.617	92.476	307.617	92.1136	307.617	91.8156	307.617	90.9646	307.617	91.3562	307.617	90.2994	307.617	91.2318	307.617	90.4229	307.617	91.4694	307.617	91.0963	307.617	91.9185	307.617	91.8443	307.617	92.3365	307.617	92.3579	307.617	92.5195
319.336	97.0505	319.336	97.059	319.336	96.9445	319.336	96.9699	319.336	96.749	319.336	96.7875	319.336	96.4793	319.336	96.5147	319.336	96.1515	319.336	96.1473	319.336	95.7725	319.336	95.6673	319.336	95.3369	319.336	95.0409	319.336	94.8365	319.336	94.228	319.336	94.275	319.336	93.2073	319.336	93.6755	319.336	92.0254	319.336	93.0726	319.336	90.8622	319.336	92.5044	319.336	90.0407	319.336	92.0221	319.336	89.8264	319.336	91.7049	319.336	90.1588	319.336	91.6255	319.336	90.7514	319.336	91.7656	319.336	91.3562	319.336	91.9925	319.336	91.8302	319.336	92.1413	319.336	92.0997
329.59	96.9235	329.59	96.8681	329.59	96.9325	329.59	96.783	329.59	96.876	329.59	96.6772	329.59	96.7369	329.59	96.5485	329.59	96.503	329.59	96.3809	329.59	96.1648	329.59	96.1442	329.59	95.7084	329.59	95.7959	329.59	95.111	329.59	95.2852	329.59	94.3424	329.59	94.5601	329.59	93.3802	329.59	93.5867	329.59	92.2414	329.59	92.3936	329.59	91.0293	329.59	91.1531	329.59	89.9778	329.59	90.2292	329.59	89.4001	329.59	89.953	329.59	89.4502	329.59	90.2368	329.59	89.9469	329.59	90.7053	329.59	90.5509	329.59	91.0669	329.59	91.0035	329.59	91.1827
341.309	96.7174	341.309	96.7152	341.309	96.63	341.309	96.6203	341.309	96.4631	341.309	96.4389	341.309	96.2289	341.309	96.1865	341.309	95.9355	341.309	95.8827	341.309	95.5826	341.309	95.5393	341.309	95.161	341.309	95.1466	341.309	94.659	341.309	94.667	341.309	94.0724	341.309	94.0422	341.309	93.4155	341.309	93.218	341.309	92.7308	341.309	92.186	341.309	92.0951	341.309	91.0579	341.309	91.6122	341.309	90.1446	341.309	91.3684	341.309	89.8368	341.309	91.3667	341.309	90.1742	341.309	91.5124	341.309	90.7865	341.309	91.6755	341.309	91.325	341.309	91.7466	341.309	91.647
353.027	96.3846	353.027	96.3665	353.027	96.3508	353.027	96.3004	353.027	96.2613	353.027	96.189	353.027	96.1106	353.027	96.0319	353.027	95.8878	353.027	95.8236	353.027	95.5712	353.027	95.5506	353.027	95.1247	353.027	95.1872	353.027	94.4976	353.027	94.6938	353.027	93.6297	353.027	94.026	353.027	92.4654	353.027	93.1559	353.027	90.9891	353.027	92.1071	353.027	89.3273	353.027	91.0036	353.027	87.9699	353.027	90.1129	353.027	87.7085	353.027	89.7533	353.027	88.5848	353.027	89.995	353.027	89.783	353.027	90.5559	353.027	90.7316	353.027	91.0849	353.027	91.2579	353.027	91.357
366.211	96.0703	366.211	95.9211	366.211	96.1046	366.211	95.6525	366.211	96.0472	366.211	95.2861	366.211	95.9299	366.211	94.8666	366.211	95.7837	366.211	94.4433	366.211	95.6268	366.211	94.0448	366.211	95.449	366.211	93.661	366.211	95.2023	366.211	93.2452	366.211	94.8072	366.211	92.7322	366.211	94.1727	366.211	92.0661	366.211	93.2209	366.211	91.24	366.211	91.9169	366.211	90.3505	366.211	90.3267	366.211	89.6251	366.211	88.7452	366.211	89.3033	366.211	87.7811	366.211	89.3935	366.211	87.8575	366.211	89.6585	366.211	88.578	366.211	89.8342	366.211	89.3101	366.211	89.7452
379.395	96.6316	379.395	96.6637	379.395	96.5087	379.395	96.5802	379.395	96.319	379.395	96.3563	379.395	96.0842	379.395	95.9748	379.395	95.8193	379.395	95.4347	379.395	95.5285	379.395	94.7526	379.395	95.2064	379.395	93.9515	379.395	94.8438	379.395	93.0489	379.395	94.4284	379.395	92.0597	379.395	93.938	379.395	91.0177	379.395	93.3324	379.395	89.9886	379.395	92.5552	379.395	89.0563	379.395	91.5629	379.395	88.3155	379.395	90.393	379.395	87.8952	379.395	89.2587	379.395	87.8953	379.395	88.5328	379.395	88.2117	379.395	88.3974	379.395	88.5589	379.395	88.5826	379.395	88.6989
392.578	96.5576	392.578	96.6645	392.578	96.3577	392.578	96.6993	392.578	96.0438	392.578	96.6691	392.578	95.611	392.578	96.5615	392.578	95.0822	392.578	96.3496	392.578	94.5077	392.578	96.0013	392.578	93.9451	392.578	95.4858	392.578	93.4249	392.578	94.776	392.578	92.9277	392.578	93.8482	392.578	92.4083	392.578	92.6953	392.578	91.8592	392.578	91.3777	392.578	91.3613	392.578	90.1269	392.578	91.051	392.578	89.3728	392.578	90.996	392.578	89.3902	392.578	91.1282	392.578	89.9402	392.578	91.3234	392.578	90.6022	392.578	91.4854	392.578	91.1296	392.578	91.5455	392.578	91.4423
405.762	97.0324	405.762	96.9826	405.762	96.9348	405.762	96.8133	405.762	96.6838	405.762	96.5733	405.762	96.2876	405.762	96.3171	405.762	95.7584	405.762	96.0755	405.762	95.1059	405.762	95.827	405.762	94.3379	405.762	95.4915	405.762	93.4729	405.762	94.9573	405.762	92.564	405.762	94.1273	405.762	91.7127	405.762	92.9563	405.762	91.0396	405.762	91.4769	405.762	90.6218	405.762	89.8567	405.762	90.4803	405.762	88.5473	405.762	90.6125	405.762	88.2376	405.762	90.9711	405.762	89.015	405.762	91.422	405.762	90.1668	405.762	91.786	405.762	91.1275	405.762	91.9146	405.762	91.7127
420.41	96.9364	420.41	96.766	420.41	96.9889	420.41	96.4926	420.41	96.9199	420.41	96.1411	420.41	96.735	420.41	95.7449	420.41	96.4419	420.41	95.3404	420.41	96.0399	420.41	94.9513	420.41	95.5028	420.41	94.5661	420.41	94.7643	420.41	94.1302	420.41	93.7171	420.41	93.5626	420.41	92.2305	420.41	92.7824	420.41	90.1901	420.41	91.745	420.41	87.6423	420.41	90.5295	420.41	85.3979	420.41	89.4841	420.41	85.337	420.41	89.1329	420.41	87.0949	420.41	89.5507	420.41	88.8892	420.41	90.2558	420.41	90.1543	420.41	90.8232	420.41	90.8573	420.41	91.0559
435.059	96.6723	435.059	96.6493	435.059	96.6516	435.059	96.566	435.059	96.5966	435.059	96.4035	435.059	96.5007	435.059	96.1396	435.059	96.3388	435.059	95.7471	435.059	96.0779	435.059	95.1958	435.059	95.6972	435.059	94.4547	435.059	95.1979	435.059	93.4943	435.059	94.5836	435.059	92.294	435.059	93.8201	435.059	90.8688	435.059	92.8279	435.059	89.3198	435.059	91.5555	435.059	87.912	435.059	90.1417	435.059	87.1442	435.059	89.0796	435.059	87.4524	435.059	88.9054	435.059	88.5409	435.059	89.4558	435.059	89.6934	435.059	90.1549	435.059	90.4773	435.059	90.6468	435.059	90.7825
451.172	96.8659	451.172	96.8238	451.172	96.8421	451.172	96.7241	451.172	96.7479	451.172	96.5841	451.172	96.5862	451.172	96.4333	451.172	96.3675	451.172	96.2978	451.172	96.0904	451.172	96.1695	451.172	95.7167	451.172	95.9836	451.172	95.1722	451.172	95.6175	451.172	94.3753	451.172	94.9106	451.172	93.2608	451.172	93.6888	451.172	91.7756	451.172	91.7956	451.172	89.8876	451.172	89.2216	451.172	87.7869	451.172	86.8125	451.172	86.4892	451.172	86.8398	451.172	87.1995	451.172	88.7553	451.172	88.9416	451.172	90.474	451.172	90.4675	451.172	91.4784	451.172	91.4296	451.172	91.7778
465.82	96.8982	465.82	96.812	465.82	96.8376	465.82	96.5866	465.82	96.6561	465.82	96.2653	465.82	96.4035	465.82	95.9172	465.82	96.1369	465.82	95.6084	465.82	95.8963	465.82	95.3598	465.82	95.6735	465.82	95.1254	465.82	95.3883	465.82	94.8152	465.82	94.9015	465.82	94.3261	465.82	94.063	465.82	93.544	465.82	92.7575	465.82	92.3355	465.82	90.9338	465.82	90.592	465.82	88.717	465.82	88.4498	465.82	86.9054	465.82	86.8644	465.82	87.0174	465.82	87.1299	465.82	88.556	465.82	88.49	465.82	89.9096	465.82	89.7212	465.82	90.5376	465.82	90.4413
483.398	96.4682	483.398	96.4383	483.398	96.3907	483.398	96.3073	483.398	96.2115	483.398	96.0835	483.398	95.9616	483.398	95.79	483.398	95.6912	483.398	95.4769	483.398	95.4438	483.398	95.1902	483.398	95.2224	483.398	94.9078	483.398	94.9682	483.398	94.5217	483.398	94.5615	483.398	93.8742	483.398	93.8446	483.398	92.7882	483.398	92.6602	483.398	91.0984	483.398	90.9233	483.398	88.8193	483.398	88.8483	483.398	86.7846	483.398	87.4293	483.398	86.7474	483.398	87.788	483.398	88.2814	483.398	89.2126	483.398	89.8672	483.398	90.5728	483.398	91.0037	483.398	91.4001	483.398	91.5443
499.512	96.8409	499.512	96.785	499.512	96.749	499.512	96.6015	499.512	96.5113	499.512	96.3139	499.512	96.1524	499.512	95.9351	499.512	95.7104	499.512	95.4938	499.512	95.2264	499.512	95.0665	499.512	94.7369	499.512	94.7148	499.512	94.2646	499.512	94.3663	499.512	93.7873	499.512	93.8317	499.512	93.1878	499.512	92.9285	499.512	92.2319	499.512	91.5089	499.512	90.6117	499.512	89.3767	499.512	88.0999	499.512	86.3823	499.512	85.3484	499.512	84.0306	499.512	85.2838	499.512	85.7614	499.512	87.4964	499.512	88.4225	499.512	89.318	499.512	89.985	499.512	90.3033	499.512	90.5379
517.09	97.5427	517.09	97.3863	517.09	97.5121	517.09	97.0492	517.09	97.3177	517.09	96.5999	517.09	97.005	517.09	96.1684	517.09	96.6569	517.09	95.8641	517.09	96.374	517.09	95.6882	517.09	96.195	517.09	95.5434	517.09	96.0289	517.09	95.2941	517.09	95.68	517.09	94.7957	517.09	94.93	517.09	93.9	517.09	93.5825	517.09	92.4347	517.09	91.419	517.09	90.1442	517.09	88.076	517.09	86.7545	517.09	83.302	517.09	83.808	517.09	82.2889	517.09	85.9973	517.09	86.5318	517.09	89.1615	517.09	89.4922	517.09	90.9764	517.09	91.0696	517.09	91.5569
536.133	97.1198	536.133	97.0817	536.133	96.9257	536.133	96.8146	536.133	96.5245	536.133	96.3597	536.133	95.9613	536.133	95.8042	536.133	95.3016	536.133	95.2687	536.133	94.6529	536.133	94.8581	536.133	94.1731	536.133	94.5967	536.133	93.9677	536.133	94.3917	536.133	93.921	536.133	94.0554	536.133	93.7265	536.133	93.3841	536.133	93.0893	536.133	92.2121	536.133	91.8414	536.133	90.3813	536.133	89.9344	536.133	87.7247	536.133	87.4441	536.133	84.6155	536.133	85.0771	536.133	83.9228	536.133	84.9911	536.133	86.1558	536.133	86.8861	536.133	88.0338	536.133	88.384	536.133	88.7823
555.176	97.2779	555.176	97.2351	555.176	97.1659	555.176	97.0177	555.176	96.8963	555.176	96.5954	555.176	96.4602	555.176	95.9625	555.176	95.883	555.176	95.1878	555.176	95.25	555.176	94.4586	555.176	94.6771	555.176	94.0322	555.176	94.2339	555.176	94.0083	555.176	93.8736	555.176	94.1474	555.176	93.3977	555.176	94.0068	555.176	92.4837	555.176	93.1451	555.176	90.7793	555.176	91.1625	555.176	88.0158	555.176	87.5899	555.176	84.4251	555.176	81.9286	555.176	82.8534	555.176	80.3921	555.176	85.2575	555.176	85.1617	555.176	87.8027	555.176	88.0774	555.176	89.1958	555.176	89.318
574.219	97.4567	574.219	97.3946	574.219	97.2931	574.219	97.1078	574.219	96.9263	574.219	96.6226	574.219	96.4099	574.219	95.9976	574.219	95.8363	574.219	95.3285	574.219	95.3291	574.219	94.7309	574.219	94.9951	574.219	94.2786	574.219	94.8311	574.219	93.9335	574.219	94.686	574.219	93.5464	574.219	94.3548	574.219	92.9255	574.219	93.6662	574.219	91.8803	574.219	92.4257	574.219	90.2195	574.219	90.2661	574.219	87.9132	574.219	86.5148	574.219	85.9609	574.219	81.2906	574.219	86.3529	574.219	83.0567	574.219	87.9885	574.219	86.9108	574.219	89.1628	574.219	88.8527	574.219	89.4925
594.727	97.3629	594.727	97.3093	594.727	97.1996	594.727	97.0693	594.727	96.7951	594.727	96.6473	594.727	96.1597	594.727	96.0328	594.727	95.36	594.727	95.2883	594.727	94.5461	594.727	94.6482	594.727	93.9391	594.727	94.3923	594.727	93.6854	594.727	94.4727	594.727	93.677	594.727	94.5344	594.727	93.5976	594.727	94.2497	594.727	93.0993	594.727	93.3895	594.727	91.9051	594.727	91.7613	594.727	89.8469	594.727	89.152	594.727	86.9973	594.727	85.2805	594.727	84.7251	594.727	81.911	594.727	85.6938	594.727	84.5597	594.727	87.7446	594.727	87.5161	594.727	88.8427	594.727	88.8123
615.234	97.7969	615.234	97.7038	615.234	97.6915	615.234	97.4215	615.234	97.376	615.234	96.9654	615.234	96.8195	615.234	96.3418	615.234	96.0032	615.234	95.5341	615.234	95.0113	615.234	94.5323	615.234	94.0805	615.234	93.4632	615.234	93.4527	615.234	92.7047	615.234	93.1404	615.234	92.4592	615.234	92.9593	615.234	92.3085	615.234	92.654	615.234	91.7541	615.234	91.8738	615.234	90.4269	615.234	90.1963	615.234	87.6163	615.234	87.1534	615.234	81.6319	615.234	82.1585	615.234	77.4598	615.234	78.3561	615.234	84.0155	615.234	82.7764	615.234	86.7291	615.234	86.0304	615.234	87.2495
637.207	97.4359	637.207	97.3671	637.207	97.2615	637.207	97.0173	637.207	96.8907	637.207	96.4224	637.207	96.344	637.207	95.7105	637.207	95.5988	637.207	94.99	637.207	94.618	637.207	94.2823	637.207	93.5226	637.207	93.6784	637.207	92.8148	637.207	93.3702	637.207	92.9374	637.207	93.3682	637.207	93.4171	637.207	93.3749	637.207	93.431	637.207	92.8981	637.207	92.5053	637.207	91.4512	637.207	90.4545	637.207	88.8515	637.207	87.2237	637.207	86.0332	637.207	83.4059	637.207	85.9734	637.207	82.9182	637.207	88.09	637.207	85.9258	637.207	89.6181	637.207	88.465	637.207	89.7567
659.18	97.4243	659.18	97.4455	659.18	97.2639	659.18	97.3001	659.18	96.933	659.18	96.9243	659.18	96.3785	659.18	96.2641	659.18	95.5969	659.18	95.32	659.18	94.6559	659.18	94.1645	659.18	93.6513	659.18	92.9523	659.18	92.7019	659.18	92.0152	659.18	91.9529	659.18	91.7104	659.18	91.3839	659.18	91.7975	659.18	90.7222	659.18	91.6179	659.18	89.6603	659.18	90.6633	659.18	87.7452	659.18	88.4099	659.18	83.9636	659.18	83.8923	659.18	78.0976	659.18	78.0041	659.18	82.1783	659.18	82.3531	659.18	86.2726	659.18	85.9866	659.18	87.7678	659.18	87.5947
682.617	97.1418	682.617	97.0275	682.617	96.983	682.617	96.7546	682.617	96.4959	682.617	96.3542	682.617	95.734	682.617	95.7552	682.617	94.8051	682.617	94.9359	682.617	93.8218	682.617	94.0192	682.617	92.9239	682.617	93.2	682.617	92.3311	682.617	92.6003	682.617	92.1799	682.617	92.2178	682.617	92.2546	682.617	91.9336	682.617	92.1421	682.617	91.5371	682.617	91.4624	682.617	90.6989	682.617	89.8788	682.617	88.8093	682.617	86.9786	682.617	84.6894	682.617	82.285	682.617	76.6527	682.617	80.0238	682.617	81.7197	682.617	84.0052	682.617	86.1956	682.617	86.6478	682.617	87.437
707.52	97.5183	707.52	97.4373	707.52	97.4165	707.52	97.1192	707.52	97.1179	707.52	96.5491	707.52	96.5383	707.52	95.8068	707.52	95.643	707.52	94.9644	707.52	94.4659	707.52	93.9696	707.52	93.0232	707.52	92.8319	707.52	91.6931	707.52	92.1103	707.52	91.4375	707.52	92.4449	707.52	91.8835	707.52	92.9791	707.52	91.7564	707.52	92.5539	707.52	90.7767	707.52	90.7692	707.52	89.1372	707.52	87.481	707.52	86.2348	707.52	81.8488	707.52	80.7439	707.52	79.2367	707.52	79.6457	707.52	85.1587	707.52	84.8511	707.52	87.9511	707.52	87.5433	707.52	88.5307
732.422	96.9857	732.422	96.8648	732.422	96.8932	732.422	96.5783	732.422	96.5323	732.422	96.1374	732.422	95.8651	732.422	95.4512	732.422	94.9826	732.422	94.4191	732.422	94.0903	732.422	93.0999	732.422	93.3021	732.422	91.793	732.422	92.5918	732.422	90.9882	732.422	91.9815	732.422	90.9578	732.422	91.5601	732.422	91.2952	732.422	91.3056	732.422	91.3236	732.422	90.9497	732.422	90.5917	732.422	89.894	732.422	88.5956	732.422	87.2336	732.422	84.4855	732.422	81.3771	732.422	77.6691	732.422	75.7137	732.422	76.938	732.422	82.5733	732.422	81.4481	732.422	84.945	732.422	84.2896
757.324	97.5732	757.324	97.5334	757.324	97.4063	757.324	97.2681	757.324	97.0492	757.324	96.7708	757.324	96.3852	757.324	95.9699	757.324	95.2493	757.324	94.7409	757.324	93.7747	757.324	93.1614	757.324	92.3602	757.324	91.916	757.324	91.0291	757.324	91.7564	757.324	89.9565	757.324	91.9665	757.324	90.3995	757.324	91.828	757.324	91.6441	757.324	91.6813	757.324	91.9669	757.324	91.3735	757.324	90.859	757.324	89.8499	757.324	88.0015	757.324	86.0876	757.324	83.526	757.324	80.9999	757.324	82.4935	757.324	84.0958	757.324	84.4606	757.324	87.0547	757.324	85.887	757.324	87.2133
785.156	97.1952	785.156	97.0178	785.156	97.2143	785.156	96.7884	785.156	96.9481	785.156	96.4118	785.156	96.4418	785.156	95.7144	785.156	95.7609	785.156	94.7237	785.156	94.6783	785.156	93.4787	785.156	92.9173	785.156	91.5292	785.156	90.9404	785.156	88.7851	785.156	90.1463	785.156	87.7729	785.156	90.1019	785.156	89.1299	785.156	89.7175	785.156	90.4074	785.156	89.4191	785.156	90.6008	785.156	88.6264	785.156	89.1025	785.156	86.1127	785.156	85.1936	785.156	80.3008	785.156	75.5261	785.156	75.5173	785.156	81.0141	785.156	83.558	785.156	86.1767	785.156	86.631	785.156	87.394
811.523	97.6455	811.523	97.6039	811.523	97.37	811.523	97.1261	811.523	97.0128	811.523	96.3485	811.523	96.6209	811.523	95.5725	811.523	95.9089	811.523	94.7446	811.523	94.6988	811.523	93.4575	811.523	93.2028	811.523	92.0153	811.523	91.5038	811.523	91.1826	811.523	89.836	811.523	90.7289	811.523	89.9092	811.523	90.7532	811.523	91.0312	811.523	91.2776	811.523	91.1502	811.523	91.1851	811.523	89.8957	811.523	89.2239	811.523	87.3538	811.523	84.2085	811.523	82.2045	811.523	72.6184	811.523	77.1463	811.523	78.534	811.523	82.8665	811.523	84.3459	811.523	85.7355	811.523	86.309
840.82	97.2614	840.82	96.993	840.82	97.3413	840.82	96.7312	840.82	97.0232	840.82	96.6512	840.82	96.2736	840.82	96.4444	840.82	95.3587	840.82	95.4612	840.82	94.4253	840.82	93.6721	840.82	93.195	840.82	91.5034	840.82	91.4022	840.82	88.6395	840.82	89.1365	840.82	86.3239	840.82	87.7136	840.82	87.8371	840.82	88.1402	840.82	88.9075	840.82	88.9804	840.82	88.4011	840.82	89.2597	840.82	87.6123	840.82	87.184	840.82	85.2315	840.82	79.4405	840.82	74.6662	840.82	77.9375	840.82	79.3837	840.82	84.3267	840.82	85.1918	840.82	85.5145	840.82	85.8689
870.117	98.137	870.117	97.9639	870.117	98.0774	870.117	97.585	870.117	97.6807	870.117	97.0439	870.117	97.0487	870.117	96.6044	870.117	96.4236	870.117	96.2157	870.117	95.7129	870.117	95.3888	870.117	94.5149	870.117	93.8315	870.117	92.6154	870.117	91.6059	870.117	90.5146	870.117	89.7596	870.117	89.4548	870.117	89.3796	870.117	89.4216	870.117	89.7767	870.117	89.621	870.117	90.6995	870.117	89.5141	870.117	90.3874	870.117	88.2337	870.117	87.0651	870.117	84.8649	870.117	79.0785	870.117	77.526	870.117	78.9884	870.117	81.2689	870.117	84.5162	870.117	86.0642	870.117	86.6473
900.879	97.5622	900.879	97.4994	900.879	97.3348	900.879	97.3496	900.879	97.1022	900.879	97.3659	900.879	96.7804	900.879	96.988	900.879	96.0352	900.879	95.9197	900.879	95.2034	900.879	94.8317	900.879	94.5542	900.879	93.5628	900.879	93.2238	900.879	91.4848	900.879	90.4264	900.879	89.8211	900.879	86.7352	900.879	89.1181	900.879	87.5273	900.879	88.575	900.879	88.8812	900.879	87.9062	900.879	88.407	900.879	86.8023	900.879	86.3949	900.879	84.411	900.879	80.5051	900.879	76.9876	900.879	78.6541	900.879	80.4182	900.879	85.3626	900.879	85.6853	900.879	86.6509	900.879	86.756
933.105	97.8374	933.105	97.6558	933.105	97.8989	933.105	97.2512	933.105	97.7357	933.105	96.5674	933.105	97.315	933.105	95.9806	933.105	96.6606	933.105	95.5834	933.105	95.6108	933.105	94.7454	933.105	94.2983	933.105	93.4605	933.105	93.2284	933.105	92.0031	933.105	91.9711	933.105	89.8424	933.105	90.2084	933.105	88.7123	933.105	89.9689	933.105	90.2475	933.105	90.4028	933.105	90.9884	933.105	89.7056	933.105	89.6196	933.105	87.347	933.105	85.903	933.105	81.7558	933.105	78.1395	933.105	58.8615	933.105	73.6253	933.105	81.2432	933.105	84.3656	933.105	85.8359	933.105	86.8363
965.332	98.0064	965.332	97.812	965.332	97.6791	965.332	97.067	965.332	97.1019	965.332	96.351	965.332	96.5189	965.332	95.985	965.332	95.9688	965.332	95.1716	965.332	95.2357	965.332	94.0875	965.332	94.0958	965.332	93.2272	965.332	92.6541	965.332	91.1123	965.332	91.3969	965.332	88.8185	965.332	89.5871	965.332	89.1704	965.332	88.3459	965.332	89.9735	965.332	88.7049	965.332	90.7066	965.332	87.9805	965.332	89.9335	965.332	86.3578	965.332	87.2835	965.332	82.1914	965.332	80.138	965.332	61.9911	965.332	80.0814	965.332	82.8647	965.332	85.7735	965.332	86.1478	965.332	86.4997
1,000.49	97.7451	1,000.49	97.8212	1,000.49	97.441	1,000.49	97.6279	1,000.49	96.7557	1,000.49	97.0611	1,000.49	96.1229	1,000.49	96.2758	1,000.49	95.7925	1,000.49	95.386	1,000.49	95.0398	1,000.49	94.7577	1,000.49	93.9333	1,000.49	93.9379	1,000.49	92.7017	1,000.49	92.4264	1,000.49	89.9959	1,000.49	90.6035	1,000.49	85.7843	1,000.49	87.2637	1,000.49	85.5352	1,000.49	86.6834	1,000.49	87.1434	1,000.49	89.5986	1,000.49	87.8642	1,000.49	89.6557	1,000.49	86.589	1,000.49	86.8321	1,000.49	81.4245	1,000.49	80.2587	1,000.49	60.9743	1,000.49	67.6241	1,000.49	80.4204	1,000.49	81.312	1,000.49	82.5196	1,000.49	83.4077
1,035.64	97.1679	1,035.64	97.5073	1,035.64	97.0013	1,035.64	97.667	1,035.64	96.8283	1,035.64	96.9808	1,035.64	96.1136	1,035.64	95.6645	1,035.64	94.9597	1,035.64	95.0321	1,035.64	94.2326	1,035.64	94.0965	1,035.64	93.8278	1,035.64	92.3228	1,035.64	92.8857	1,035.64	90.6042	1,035.64	90.9368	1,035.64	87.0297	1,035.64	88.2543	1,035.64	83.8647	1,035.64	86.9035	1,035.64	83.9921	1,035.64	87.2379	1,035.64	85.3291	1,035.64	87.6363	1,035.64	86.2347	1,035.64	87.6496	1,035.64	84.3356	1,035.64	84.5483	1,035.64	78.7049	1,035.64	78.1636	1,035.64	72.1695	1,035.64	80.3251	1,035.64	83.4972	1,035.64	82.9079	1,035.64	85.3722
1,072.27	97.1305	1,072.27	97.1087	1,072.27	97.017	1,072.27	96.6511	1,072.27	96.5765	1,072.27	95.7919	1,072.27	95.7711	1,072.27	94.7544	1,072.27	95.1496	1,072.27	93.9737	1,072.27	93.9328	1,072.27	93.2404	1,072.27	91.8192	1,072.27	92.0261	1,072.27	90.217	1,072.27	90.2281	1,072.27	89.3233	1,072.27	88.7644	1,072.27	87.9682	1,072.27	88.106	1,072.27	85.3297	1,072.27	85.8878	1,072.27	86.1456	1,072.27	86.8797	1,072.27	88.3621	1,072.27	87.6821	1,072.27	88.2082	1,072.27	84.4342	1,072.27	84.7207	1,072.27	74.2861	1,072.27	75.9523	1,072.27	77.3218	1,072.27	74.511	1,072.27	83.7279	1,072.27	81.7342	1,072.27	84.4772
1,108.89	97.1538	1,108.89	97.0845	1,108.89	97.0852	1,108.89	96.8355	1,108.89	96.7462	1,108.89	96.061	1,108.89	95.5803	1,108.89	94.4223	1,108.89	94.0002	1,108.89	93.2597	1,108.89	92.4964	1,108.89	91.624	1,108.89	91.0659	1,108.89	90.2983	1,108.89	91.0875	1,108.89	90.414	1,108.89	90.6504	1,108.89	88.8446	1,108.89	89.2612	1,108.89	85.7599	1,108.89	87.9271	1,108.89	85.6947	1,108.89	87.6278	1,108.89	87.2937	1,108.89	88.8406	1,108.89	85.358	1,108.89	88.0725	1,108.89	84.0903	1,108.89	84.8105	1,108.89	80.4234	1,108.89	78.3137	1,108.89	61.0256	1,108.89	76.377	1,108.89	80.4688	1,108.89	82.3344	1,108.89	83.4208
1,148.44	96.6041	1,148.44	96.2815	1,148.44	96.5582	1,148.44	95.5455	1,148.44	95.9637	1,148.44	94.6862	1,148.44	94.8845	1,148.44	93.6173	1,148.44	93.6497	1,148.44	92.1013	1,148.44	92.1618	1,148.44	91.5882	1,148.44	91.0038	1,148.44	90.9276	1,148.44	90.7507	1,148.44	90.0595	1,148.44	90.2746	1,148.44	88.8679	1,148.44	89.5945	1,148.44	85.242	1,148.44	85.3369	1,148.44	86.1083	1,148.44	85.8561	1,148.44	85.4203	1,148.44	87.9401	1,148.44	86.7105	1,148.44	88.1185	1,148.44	86.531	1,148.44	87.2811	1,148.44	78.3855	1,148.44	79.6835	1,148.44	76.3904	1,148.44	66.8551	1,148.44	81.0078	1,148.44	77.7685	1,148.44	80.7605
1,189.45	96.6508	1,189.45	96.3054	1,189.45	95.9365	1,189.45	95.5023	1,189.45	95.2166	1,189.45	95.5055	1,189.45	94.8691	1,189.45	95.2292	1,189.45	93.328	1,189.45	93.9048	1,189.45	92.4113	1,189.45	92.5296	1,189.45	91.9101	1,189.45	90.5562	1,189.45	90.4482	1,189.45	90.5698	1,189.45	89.3969	1,189.45	87.9472	1,189.45	85.2976	1,189.45	83.0453	1,189.45	83.6385	1,189.45	77.1436	1,189.45	84.7926	1,189.45	80.436	1,189.45	85.3337	1,189.45	85.7126	1,189.45	87.9128	1,189.45	84.9459	1,189.45	87.4977	1,189.45	80.8812	1,189.45	80.4496	1,189.45	68.8576	1,189.45	71.0942	1,189.45	77.9862	1,189.45	77.3473	1,189.45	80.4907
1,230.47	96.3989	1,230.47	96.5184	1,230.47	96.182	1,230.47	96.2067	1,230.47	95.4359	1,230.47	95.4391	1,230.47	94.1068	1,230.47	94.4261	1,230.47	93.009	1,230.47	93.1343	1,230.47	92.2524	1,230.47	92.2457	1,230.47	90.8183	1,230.47	90.0342	1,230.47	89.6354	1,230.47	89.8672	1,230.47	87.719	1,230.47	88.8823	1,230.47	86.5637	1,230.47	85.9856	1,230.47	85.4548	1,230.47	82.5195	1,230.47	85.4758	1,230.47	81.3797	1,230.47	86.5435	1,230.47	85.0172	1,230.47	87.5357	1,230.47	86.0263	1,230.47	87.7804	1,230.47	82.9073	1,230.47	82.5257	1,230.47	79.3939	1,230.47	73.7004	1,230.47	71.1884	1,230.47	70.8852	1,230.47	75.9379
1,274.41	96.8272	1,274.41	97.0013	1,274.41	96.2299	1,274.41	96.5057	1,274.41	95.9139	1,274.41	95.5509	1,274.41	95.7291	1,274.41	94.5372	1,274.41	94.2894	1,274.41	93.1125	1,274.41	92.7778	1,274.41	91.9183	1,274.41	92.587	1,274.41	90.5176	1,274.41	91.5455	1,274.41	89.8601	1,274.41	89.6097	1,274.41	88.6363	1,274.41	87.2629	1,274.41	84.4956	1,274.41	84.9441	1,274.41	82.0044	1,274.41	85.9446	1,274.41	79.9552	1,274.41	85.9576	1,274.41	84.7245	1,274.41	86.8804	1,274.41	85.9985	1,274.41	88.0668	1,274.41	82.424	1,274.41	83.117	1,274.41	69.1156	1,274.41	76.723	1,274.41	76.9865	1,274.41	77.9231	1,274.41	81.6761
1,319.82	97.0935	1,319.82	96.7993	1,319.82	97.0814	1,319.82	96.7391	1,319.82	96.5655	1,319.82	95.8695	1,319.82	95.6005	1,319.82	94.4119	1,319.82	94.7408	1,319.82	93.2771	1,319.82	93.7085	1,319.82	91.9053	1,319.82	91.7605	1,319.82	89.7991	1,319.82	90.7305	1,319.82	87.8781	1,319.82	90.3323	1,319.82	87.8123	1,319.82	89.2121	1,319.82	87.8472	1,319.82	86.776	1,319.82	86.5624	1,319.82	84.3348	1,319.82	84.2575	1,319.82	86.3071	1,319.82	86.6585	1,319.82	86.8179	1,319.82	87.4239	1,319.82	84.2555	1,319.82	84.7756	1,319.82	81.9371	1,319.82	80.1743	1,319.82	54.1302	1,319.82	64.7268	1,319.82	77.0683	1,319.82	76.1608
1,366.7	97.3603	1,366.7	97.1373	1,366.7	97.1943	1,366.7	96.5244	1,366.7	96.4656	1,366.7	95.6361	1,366.7	95.4012	1,366.7	94.6959	1,366.7	94.6446	1,366.7	93.0984	1,366.7	94.1817	1,366.7	92.3206	1,366.7	92.2654	1,366.7	90.9796	1,366.7	91.1727	1,366.7	87.8611	1,366.7	91.117	1,366.7	88.3085	1,366.7	89.9261	1,366.7	88.4237	1,366.7	87.9512	1,366.7	84.8944	1,366.7	82.2628	1,366.7	84.53	1,366.7	84.1209	1,366.7	86.297	1,366.7	84.6233	1,366.7	88.0939	1,366.7	84.7776	1,366.7	87.1872	1,366.7	82.5199	1,366.7	78.924	1,366.7	78.2316	1,366.7	58.8269	1,366.7	61.4824	1,366.7	75.5611
1,413.57	97.4015	1,413.57	96.9592	1,413.57	96.7726	1,413.57	96.8259	1,413.57	95.9728	1,413.57	96.3911	1,413.57	95.4282	1,413.57	95.1723	1,413.57	94.0531	1,413.57	94.2192	1,413.57	93.2476	1,413.57	92.5656	1,413.57	91.3529	1,413.57	91.8697	1,413.57	90.8873	1,413.57	89.4591	1,413.57	88.9868	1,413.57	86.804	1,413.57	89.3136	1,413.57	86.6378	1,413.57	87.6434	1,413.57	84.1899	1,413.57	84.0763	1,413.57	84.5089	1,413.57	83.7851	1,413.57	86.8997	1,413.57	84.6912	1,413.57	85.8473	1,413.57	83.4337	1,413.57	83.7909	1,413.57	80.7774	1,413.57	81.4083	1,413.57	63.6189	1,413.57	77.3709	1,413.57	75.2629	1,413.57	64.0993
1,463.38	96.721	1,463.38	96.2544	1,463.38	95.4856	1,463.38	95.8933	1,463.38	95.646	1,463.38	95.4937	1,463.38	95.4915	1,463.38	94.5273	1,463.38	93.4418	1,463.38	93.2167	1,463.38	91.6914	1,463.38	90.9344	1,463.38	87.2311	1,463.38	91.8804	1,463.38	87.0778	1,463.38	88.6804	1,463.38	88.736	1,463.38	90.3959	1,463.38	87.2747	1,463.38	85.9363	1,463.38	85.1913	1,463.38	85.206	1,463.38	82.6007	1,463.38	83.7182	1,463.38	82.5006	1,463.38	84.2184	1,463.38	84.4946	1,463.38	83.2578	1,463.38	73.5618	1,463.38	83.0166	1,463.38	81.5065	1,463.38	82.0986	1,463.38	62.0428	1,463.38	75.7288	1,463.38	49.9557	1,463.38	78.9381
1,516.11	95.4506	1,516.11	95.5598	1,516.11	95.5421	1,516.11	95.6236	1,516.11	95.6517	1,516.11	94.1102	1,516.11	93.5187	1,516.11	93.9738	1,516.11	92.7583	1,516.11	92.7303	1,516.11	90.4408	1,516.11	90.9578	1,516.11	89.2702	1,516.11	90.2099	1,516.11	89.0055	1,516.11	91.1893	1,516.11	87.4519	1,516.11	88.823	1,516.11	86.1773	1,516.11	88.2348	1,516.11	85.8825	1,516.11	87.3593	1,516.11	83.3903	1,516.11	80.2598	1,516.11	82.8525	1,516.11	73.747	1,516.11	81.7765	1,516.11	81.5163	1,516.11	78.1164	1,516.11	83.7798	1,516.11	84.0786	1,516.11	80.0918	1,516.11	81.0716	1,516.11	77.1694	1,516.11	72.7521	1,516.11	78.1766
1,568.85	94.5984	1,568.85	95.1728	1,568.85	95.4549	1,568.85	94.4066	1,568.85	94.579	1,568.85	93.8548	1,568.85	94.3965	1,568.85	92.9441	1,568.85	92.9366	1,568.85	92.3672	1,568.85	91.2232	1,568.85	90.8624	1,568.85	90.6849	1,568.85	88.5968	1,568.85	88.7208	1,568.85	87.4622	1,568.85	88.3109	1,568.85	86.708	1,568.85	86.2999	1,568.85	86.1174	1,568.85	85.4907	1,568.85	85.167	1,568.85	86.4415	1,568.85	83.0275	1,568.85	82.3095	1,568.85	81.2188	1,568.85	78.2683	1,568.85	79.906	1,568.85	81.2069	1,568.85	82.6035	1,568.85	79.9375	1,568.85	80.7717	1,568.85	74.7838	1,568.85	79.6662	1,568.85	74.2415	1,568.85	78.9919
1,624.51	96.1189	1,624.51	96.5701	1,624.51	95.8792	1,624.51	95.0433	1,624.51	95.38	1,624.51	94.5774	1,624.51	94.9866	1,624.51	93.4308	1,624.51	92.6337	1,624.51	92.937	1,624.51	92.2085	1,624.51	90.8654	1,624.51	90.4112	1,624.51	91.0588	1,624.51	89.1277	1,624.51	88.2175	1,624.51	87.6451	1,624.51	87.4497	1,624.51	84.7271	1,624.51	84.9508	1,624.51	86.2962	1,624.51	83.4029	1,624.51	84.9792	1,624.51	82.8572	1,624.51	82.4399	1,624.51	81.9057	1,624.51	83.2654	1,624.51	84.2757	1,624.51	82.3728	1,624.51	84.0283	1,624.51	80.8959	1,624.51	68.8335	1,624.51	80.9061	1,624.51	73.7357	1,624.51	81.4537	1,624.51	72.6784
1,681.64	96.8565	1,681.64	96.5699	1,681.64	96.494	1,681.64	95.9428	1,681.64	96.3308	1,681.64	95.1446	1,681.64	95.5731	1,681.64	94.0422	1,681.64	94.132	1,681.64	93.3717	1,681.64	93.6379	1,681.64	91.6997	1,681.64	91.6505	1,681.64	89.4865	1,681.64	89.4858	1,681.64	87.1595	1,681.64	88.2285	1,681.64	86.804	1,681.64	86.943	1,681.64	85.225	1,681.64	85.4214	1,681.64	85.0959	1,681.64	84.8984	1,681.64	84.6653	1,681.64	83.5148	1,681.64	80.3726	1,681.64	82.8836	1,681.64	82.721	1,681.64	81.044	1,681.64	80.475	1,681.64	81.3734	1,681.64	80.1952	1,681.64	78.0088	1,681.64	76.3276	1,681.64	81.3237	1,681.64	78.6555
1,741.7	97.3909	1,741.7	97.2097	1,741.7	97.212	1,741.7	96.5884	1,741.7	96.7159	1,741.7	95.7862	1,741.7	95.909	1,741.7	94.8288	1,741.7	94.9946	1,741.7	93.8963	1,741.7	93.6767	1,741.7	92.5205	1,741.7	92.4679	1,741.7	90.8819	1,741.7	90.4948	1,741.7	88.7379	1,741.7	88.1254	1,741.7	87.0892	1,741.7	86.3532	1,741.7	85.4176	1,741.7	85.6425	1,741.7	84.4955	1,741.7	84.9938	1,741.7	81.6328	1,741.7	84.1603	1,741.7	82.9456	1,741.7	83.9479	1,741.7	81.5197	1,741.7	83.4772	1,741.7	84.1967	1,741.7	82.2131	1,741.7	76.916	1,741.7	78.2244	1,741.7	75.9422	1,741.7	80.6381	1,741.7	80.5522
1,803.22	97.1937	1,803.22	97.084	1,803.22	96.9614	1,803.22	96.6444	1,803.22	96.4267	1,803.22	95.9143	1,803.22	95.4468	1,803.22	94.8232	1,803.22	94.2576	1,803.22	93.9931	1,803.22	93.2056	1,803.22	93.4725	1,803.22	91.8026	1,803.22	91.7135	1,803.22	90.0546	1,803.22	89.8172	1,803.22	88.3839	1,803.22	88.1688	1,803.22	85.7588	1,803.22	85.9344	1,803.22	82.9444	1,803.22	83.6598	1,803.22	83.5906	1,803.22	84.7981	1,803.22	82.0485	1,803.22	82.2562	1,803.22	81.8007	1,803.22	81.3545	1,803.22	82.7604	1,803.22	84.0223	1,803.22	82.1347	1,803.22	82.7913	1,803.22	79.2238	1,803.22	79.967	1,803.22	79.1561	1,803.22	82.7083
1,866.21	96.4016	1,866.21	96.5073	1,866.21	96.1228	1,866.21	96.3219	1,866.21	95.4954	1,866.21	95.6237	1,866.21	94.6307	1,866.21	94.5765	1,866.21	93.4314	1,866.21	93.5573	1,866.21	92.2939	1,866.21	92.5103	1,866.21	91.0041	1,866.21	91.7803	1,866.21	89.236	1,866.21	89.8511	1,866.21	88.2496	1,866.21	87.6334	1,866.21	86.8411	1,866.21	86.4331	1,866.21	84.3408	1,866.21	84.5521	1,866.21	80.6783	1,866.21	83.5027	1,866.21	81.5781	1,866.21	83.0996	1,866.21	80.3202	1,866.21	82.58	1,866.21	81.1095	1,866.21	81.5399	1,866.21	79.9603	1,866.21	77.0427	1,866.21	72.2116	1,866.21	74.6808	1,866.21	80.5886	1,866.21	79.9972
1,932.13	95.6943	1,932.13	96.0354	1,932.13	95.5199	1,932.13	95.5889	1,932.13	94.778	1,932.13	95.0052	1,932.13	94.0441	1,932.13	93.9218	1,932.13	93.047	1,932.13	92.4437	1,932.13	91.6534	1,932.13	91.8223	1,932.13	90.5911	1,932.13	90.5346	1,932.13	88.4792	1,932.13	89.3843	1,932.13	87.1831	1,932.13	87.5406	1,932.13	85.6053	1,932.13	85.3892	1,932.13	83.7931	1,932.13	82.7216	1,932.13	80.9497	1,932.13	83.4786	1,932.13	81.7832	1,932.13	83.3515	1,932.13	79.2919	1,932.13	81.8878	1,932.13	80.6947	1,932.13	84.364	1,932.13	81.9964	1,932.13	80.1579	1,932.13	77.3707	1,932.13	77.2501	1,932.13	76.792	1,932.13	80.2756
1,999.51	96.4015	1,999.51	95.7786	1,999.51	95.9455	1,999.51	95.895	1,999.51	95.5504	1,999.51	95.4508	1,999.51	94.7526	1,999.51	94.3961	1,999.51	93.7317	1,999.51	93.0362	1,999.51	92.6833	1,999.51	90.7878	1,999.51	91.3012	1,999.51	89.8897	1,999.51	90.2984	1,999.51	88.4228	1,999.51	87.6016	1,999.51	87.2123	1,999.51	86.6932	1,999.51	85.9082	1,999.51	85.0172	1,999.51	83.5823	1,999.51	83.2911	1,999.51	81.7655	1,999.51	81.0355	1,999.51	81.4973	1,999.51	82.2863	1,999.51	80.3443	1,999.51	82.7188	1,999.51	81.8615	1,999.51	81.057	1,999.51	81.187	1,999.51	77.3381	1,999.51	79.6763	1,999.51	78.7942	1,999.51	80.7047
2,069.82	96.4504	2,069.82	96.5837	2,069.82	96.645	2,069.82	95.9945	2,069.82	96.3189	2,069.82	95.4435	2,069.82	95.5537	2,069.82	94.4665	2,069.82	94.6414	2,069.82	92.9039	2,069.82	93.3366	2,069.82	91.3943	2,069.82	91.5865	2,069.82	89.5385	2,069.82	90.3235	2,069.82	88.0831	2,069.82	88.2154	2,069.82	85.8523	2,069.82	86.3206	2,069.82	84.4598	2,069.82	85.1946	2,069.82	82.5467	2,069.82	82.4455	2,069.82	79.9654	2,069.82	81.6219	2,069.82	82.7336	2,069.82	82.0926	2,069.82	79.5201	2,069.82	81.2665	2,069.82	81.2996	2,069.82	81.5549	2,069.82	80.4225	2,069.82	78.6482	2,069.82	78.382	2,069.82	80.3093	2,069.82	81.0543
2,143.07	96.7739	2,143.07	96.4395	2,143.07	96.3309	2,143.07	96.1012	2,143.07	95.7821	2,143.07	95.7535	2,143.07	95.1946	2,143.07	95.0148	2,143.07	94.0662	2,143.07	93.9661	2,143.07	92.5748	2,143.07	92.2373	2,143.07	91.159	2,143.07	90.0461	2,143.07	89.2089	2,143.07	88.8519	2,143.07	87.5715	2,143.07	86.1675	2,143.07	86.0983	2,143.07	85.0011	2,143.07	84.3288	2,143.07	84.1566	2,143.07	82.2247	2,143.07	80.5883	2,143.07	81.2522	2,143.07	80.483	2,143.07	81.9536	2,143.07	79.6897	2,143.07	80.5539	2,143.07	79.4386	2,143.07	81.7955	2,143.07	79.5719	2,143.07	76.9464	2,143.07	78.9765	2,143.07	81.0431	2,143.07	82.7823
2,219.24	95.9275	2,219.24	95.4417	2,219.24	95.5035	2,219.24	95.5682	2,219.24	95.0037	2,219.24	95.3386	2,219.24	94.0617	2,219.24	95.0208	2,219.24	92.8529	2,219.24	94.1228	2,219.24	91.6152	2,219.24	91.6434	2,219.24	89.7453	2,219.24	90.199	2,219.24	88.7344	2,219.24	87.7748	2,219.24	86.3136	2,219.24	86.0332	2,219.24	83.404	2,219.24	84.6853	2,219.24	83.8619	2,219.24	83.4284	2,219.24	80.8974	2,219.24	79.5393	2,219.24	76.5281	2,219.24	80.5263	2,219.24	79.3493	2,219.24	79.6455	2,219.24	78.5691	2,219.24	81.0991	2,219.24	78.3298	2,219.24	79.1403	2,219.24	70.6737	2,219.24	76.7747	2,219.24	78.1797	2,219.24	81.3591
2,296.88	94.6768	2,296.88	95.1873	2,296.88	94.5156	2,296.88	94.9045	2,296.88	94.3458	2,296.88	94.4683	2,296.88	93.2902	2,296.88	93.4552	2,296.88	92.3673	2,296.88	92.5578	2,296.88	90.9765	2,296.88	91.544	2,296.88	88.8773	2,296.88	89.24	2,296.88	87.3641	2,296.88	88.9015	2,296.88	85.5929	2,296.88	86.3593	2,296.88	83.7533	2,296.88	84.6937	2,296.88	82.891	2,296.88	83.4083	2,296.88	79.601	2,296.88	78.7163	2,296.88	77.5843	2,296.88	80.3215	2,296.88	78.0662	2,296.88	81.0483	2,296.88	77.0814	2,296.88	78.3481	2,296.88	78.8515	2,296.88	75.3029	2,296.88	75.3641	2,296.88	73.3629	2,296.88	78.3	2,296.88	79.1739
2,378.91	94.4786	2,378.91	94.5067	2,378.91	94.4674	2,378.91	94.0593	2,378.91	94.1954	2,378.91	93.293	2,378.91	93.987	2,378.91	92.6724	2,378.91	92.5958	2,378.91	91.6887	2,378.91	91.5569	2,378.91	90.1973	2,378.91	90.0701	2,378.91	88.1415	2,378.91	87.6049	2,378.91	86.8895	2,378.91	85.5083	2,378.91	84.5799	2,378.91	83.8898	2,378.91	82.7096	2,378.91	83.0158	2,378.91	83.0175	2,378.91	82.9233	2,378.91	78.8659	2,378.91	78.8194	2,378.91	77.0468	2,378.91	78.7441	2,378.91	78.3291	2,378.91	79.8825	2,378.91	78.4312	2,378.91	78.4333	2,378.91	77.6247	2,378.91	74.4267	2,378.91	76.0069	2,378.91	75.5736	2,378.91	81.1944
2,462.4	95.9211	2,462.4	95.9187	2,462.4	95.848	2,462.4	95.5313	2,462.4	95.658	2,462.4	94.6681	2,462.4	95.0088	2,462.4	93.6585	2,462.4	94.129	2,462.4	92.2821	2,462.4	92.6177	2,462.4	91.1228	2,462.4	90.7927	2,462.4	89.1094	2,462.4	88.8203	2,462.4	85.5751	2,462.4	86.9744	2,462.4	84.1404	2,462.4	84.2943	2,462.4	83.1228	2,462.4	82.9851	2,462.4	82.2409	2,462.4	82.5187	2,462.4	78.9839	2,462.4	76.0477	2,462.4	77.501	2,462.4	78.5446	2,462.4	78.5269	2,462.4	77.7207	2,462.4	78.5677	2,462.4	78.1362	2,462.4	78.7879	2,462.4	76.8266	2,462.4	73.2636	2,462.4	78.2213	2,462.4	78.6935
2,548.83	96.3066	2,548.83	96.5418	2,548.83	96.1499	2,548.83	96.2604	2,548.83	96.028	2,548.83	96.2088	2,548.83	94.8531	2,548.83	94.8856	2,548.83	93.9677	2,548.83	93.3818	2,548.83	91.9564	2,548.83	92.1139	2,548.83	90.195	2,548.83	90.3043	2,548.83	88.3418	2,548.83	86.8599	2,548.83	86.2326	2,548.83	85.2626	2,548.83	84.4165	2,548.83	83.1116	2,548.83	82.0367	2,548.83	81.8218	2,548.83	81.8348	2,548.83	81.3211	2,548.83	78.036	2,548.83	75.6131	2,548.83	77.9858	2,548.83	78.7777	2,548.83	77.2483	2,548.83	79.2909	2,548.83	79.4385	2,548.83	78.1884	2,548.83	75.6336	2,548.83	77.9325	2,548.83	76.8314	2,548.83	80.7995
2,639.65	95.8938	2,639.65	95.8755	2,639.65	95.651	2,639.65	95.9664	2,639.65	94.7036	2,639.65	95.3066	2,639.65	94.0741	2,639.65	94.6115	2,639.65	92.8141	2,639.65	92.9757	2,639.65	90.832	2,639.65	91.1951	2,639.65	89.5548	2,639.65	89.7345	2,639.65	87.362	2,639.65	87.6368	2,639.65	84.9347	2,639.65	86.0977	2,639.65	83.9707	2,639.65	83.2717	2,639.65	81.9284	2,639.65	82.7614	2,639.65	81.0256	2,639.65	80.5479	2,639.65	79.0039	2,639.65	78.0079	2,639.65	74.7067	2,639.65	78.2367	2,639.65	76.8307	2,639.65	76.9355	2,639.65	76.1525	2,639.65	78.9982	2,639.65	72.8093	2,639.65	71.753	2,639.65	75.9955	2,639.65	79.9936
2,731.93	94.4229	2,731.93	94.4815	2,731.93	94.8457	2,731.93	94.4229	2,731.93	94.21	2,731.93	93.7481	2,731.93	93.852	2,731.93	93.9	2,731.93	92.3154	2,731.93	92.6884	2,731.93	90.7096	2,731.93	89.8213	2,731.93	88.1553	2,731.93	87.7228	2,731.93	85.9266	2,731.93	87.0657	2,731.93	84.8021	2,731.93	84.5179	2,731.93	83.5004	2,731.93	82.8236	2,731.93	81.5746	2,731.93	80.0698	2,731.93	78.6566	2,731.93	79.8387	2,731.93	78.2759	2,731.93	75.6535	2,731.93	73.9649	2,731.93	78.2181	2,731.93	73.4121	2,731.93	72.9109	2,731.93	75.8402	2,731.93	74.6542	2,731.93	72.7984	2,731.93	67.5903	2,731.93	74.0906	2,731.93	77.8692
2,828.61	95.7366	2,828.61	95.5654	2,828.61	95.3054	2,828.61	94.9807	2,828.61	95.1051	2,828.61	94.5541	2,828.61	94.3214	2,828.61	93.5264	2,828.61	92.7157	2,828.61	92.2047	2,828.61	91.2312	2,828.61	90.1178	2,828.61	88.8554	2,828.61	88.3927	2,828.61	86.3684	2,828.61	85.8994	2,828.61	84.9512	2,828.61	82.934	2,828.61	81.9417	2,828.61	81.3622	2,828.61	79.8406	2,828.61	80.2159	2,828.61	79.8785	2,828.61	80.0704	2,828.61	79.6088	2,828.61	76.3272	2,828.61	76.4241	2,828.61	77.3435	2,828.61	75.6496	2,828.61	75.7605	2,828.61	77.1805	2,828.61	73.9374	2,828.61	75.5407	2,828.61	70.5655	2,828.61	74.6546	2,828.61	79.2084
2,928.22	96.8561	2,928.22	96.6736	2,928.22	96.4145	2,928.22	96.2886	2,928.22	96.2148	2,928.22	95.8196	2,928.22	95.0533	2,928.22	94.2609	2,928.22	93.439	2,928.22	92.2397	2,928.22	91.5266	2,928.22	90.5564	2,928.22	89.3095	2,928.22	88.8893	2,928.22	86.7001	2,928.22	85.4168	2,928.22	85.2922	2,928.22	84.0132	2,928.22	82.8861	2,928.22	82.0121	2,928.22	80.5539	2,928.22	78.5373	2,928.22	80.0349	2,928.22	80.5135	2,928.22	80.1294	2,928.22	77.0031	2,928.22	76.6279	2,928.22	77.3988	2,928.22	76.5311	2,928.22	76.3613	2,928.22	76.1346	2,928.22	74.9765	2,928.22	76.1554	2,928.22	71.4334	2,928.22	74.522	2,928.22	78.7867
3,030.76	96.9991	3,030.76	97.0034	3,030.76	96.8353	3,030.76	96.8228	3,030.76	96.029	3,030.76	96.0541	3,030.76	95.1147	3,030.76	94.6357	3,030.76	93.3538	3,030.76	92.2113	3,030.76	91.2445	3,030.76	90.3938	3,030.76	88.8193	3,030.76	87.4707	3,030.76	86.581	3,030.76	84.7568	3,030.76	84.2963	3,030.76	84.1318	3,030.76	82.7575	3,030.76	81.7412	3,030.76	80.2819	3,030.76	78.1746	3,030.76	79.9304	3,030.76	78.3572	3,030.76	79.5641	3,030.76	77.614	3,030.76	77.4079	3,030.76	76.4005	3,030.76	75.7159	3,030.76	74.8842	3,030.76	75.7586	3,030.76	77.0417	3,030.76	74.9273	3,030.76	66.7282	3,030.76	74.5144	3,030.76	78.9016
3,137.7	96.7913	3,137.7	96.8346	3,137.7	96.6286	3,137.7	96.7306	3,137.7	95.9256	3,137.7	96.0786	3,137.7	95.0465	3,137.7	94.7675	3,137.7	93.3479	3,137.7	93.3401	3,137.7	91.2118	3,137.7	90.9237	3,137.7	88.3907	3,137.7	87.9714	3,137.7	86.0811	3,137.7	86.0922	3,137.7	83.3374	3,137.7	84.2942	3,137.7	81.8235	3,137.7	82.7702	3,137.7	80.5129	3,137.7	80.1579	3,137.7	77.6198	3,137.7	78.0744	3,137.7	78.7417	3,137.7	77.7052	3,137.7	76.4815	3,137.7	76.7696	3,137.7	76.8708	3,137.7	75.825	3,137.7	75.459	3,137.7	76.3353	3,137.7	76.6952	3,137.7	65.1947	3,137.7	72.6177	3,137.7	78.0227
3,249.02	96.3005	3,249.02	96.4139	3,249.02	96.3407	3,249.02	96.4187	3,249.02	95.7586	3,249.02	95.673	3,249.02	94.7783	3,249.02	94.5149	3,249.02	93.2202	3,249.02	92.7117	3,249.02	91.0045	3,249.02	90.4161	3,249.02	88.8609	3,249.02	88.135	3,249.02	86.6605	3,249.02	86.3864	3,249.02	84.0404	3,249.02	83.4914	3,249.02	82.2641	3,249.02	81.7054	3,249.02	79.8838	3,249.02	79.0483	3,249.02	78.3681	3,249.02	77.8854	3,249.02	78.3784	3,249.02	77.3343	3,249.02	77.2516	3,249.02	75.3553	3,249.02	77.2801	3,249.02	75.1662	3,249.02	75.1925	3,249.02	75.4773	3,249.02	76.4766	3,249.02	71.4539	3,249.02	70.1698	3,249.02	76.6345
3,363.28	96.67	3,363.28	96.9434	3,363.28	96.1553	3,363.28	96.4705	3,363.28	96.2703	3,363.28	95.38	3,363.28	95.2097	3,363.28	93.9685	3,363.28	93.7882	3,363.28	92.269	3,363.28	91.2718	3,363.28	89.885	3,363.28	89.4866	3,363.28	87.3392	3,363.28	87.0246	3,363.28	85.3987	3,363.28	84.0156	3,363.28	82.972	3,363.28	81.8853	3,363.28	80.5742	3,363.28	80.1198	3,363.28	79.0773	3,363.28	78.3907	3,363.28	77.7176	3,363.28	77.7811	3,363.28	77.2135	3,363.28	77.3924	3,363.28	75.4189	3,363.28	77.1535	3,363.28	76.2043	3,363.28	74.765	3,363.28	75.0662	3,363.28	77.1948	3,363.28	70.6462	3,363.28	69.1919	3,363.28	77.4131
3,481.93	97.0885	3,481.93	97.2814	3,481.93	96.9034	3,481.93	97.1476	3,481.93	96.2033	3,481.93	96.4809	3,481.93	95.3641	3,481.93	94.9358	3,481.93	93.7107	3,481.93	92.1422	3,481.93	91.1765	3,481.93	90.3609	3,481.93	89.1754	3,481.93	87.995	3,481.93	86.7906	3,481.93	85.4668	3,481.93	83.8458	3,481.93	83.0766	3,481.93	81.7565	3,481.93	81.4712	3,481.93	80.4027	3,481.93	79.9934	3,481.93	79.2717	3,481.93	77.9441	3,481.93	75.827	3,481.93	77.6994	3,481.93	76.8412	3,481.93	74.9715	3,481.93	75.4755	3,481.93	75.9286	3,481.93	73.1794	3,481.93	75.3245	3,481.93	77.3217	3,481.93	70.2157	3,481.93	70.9405	3,481.93	75.5134
3,604.98	97.0105	3,604.98	96.9253	3,604.98	97.198	3,604.98	96.8614	3,604.98	96.3325	3,604.98	96.6927	3,604.98	95.7113	3,604.98	95.1051	3,604.98	94.3162	3,604.98	93.3316	3,604.98	92.418	3,604.98	90.8601	3,604.98	89.8918	3,604.98	88.404	3,604.98	87.1898	3,604.98	86.0562	3,604.98	85.4498	3,604.98	83.6767	3,604.98	83.2103	3,604.98	81.9298	3,604.98	80.8202	3,604.98	79.2147	3,604.98	80.7922	3,604.98	78.7157	3,604.98	77.9932	3,604.98	77.2856	3,604.98	77.9365	3,604.98	76.1865	3,604.98	76.7423	3,604.98	75.7108	3,604.98	74.1085	3,604.98	74.2294	3,604.98	77.9156	3,604.98	71.5561	3,604.98	71.5851	3,604.98	76.0454
3,732.42	97.4089	3,732.42	97.2223	3,732.42	97.2811	3,732.42	96.7386	3,732.42	97.1175	3,732.42	96.5276	3,732.42	96.3682	3,732.42	95.1685	3,732.42	95.4994	3,732.42	94.0043	3,732.42	93.5648	3,732.42	91.8103	3,732.42	90.5794	3,732.42	89.4126	3,732.42	88.4369	3,732.42	86.8553	3,732.42	86.0191	3,732.42	83.9935	3,732.42	83.7979	3,732.42	82.7709	3,732.42	81.5684	3,732.42	79.8896	3,732.42	79.3177	3,732.42	78.0846	3,732.42	78.9292	3,732.42	77.9721	3,732.42	78.6975	3,732.42	76.8584	3,732.42	75.2781	3,732.42	76.5404	3,732.42	72.6544	3,732.42	75.1351	3,732.42	78.0784	3,732.42	73.8026	3,732.42	70.6444	3,732.42	76.3915
3,864.26	96.2484	3,864.26	96.8443	3,864.26	96.3742	3,864.26	97.0025	3,864.26	96.5046	3,864.26	96.6936	3,864.26	95.4592	3,864.26	96.0956	3,864.26	94.2234	3,864.26	94.3326	3,864.26	92.434	3,864.26	91.8769	3,864.26	89.4925	3,864.26	89.5124	3,864.26	87.4637	3,864.26	86.9307	3,864.26	85.4331	3,864.26	85.5034	3,864.26	82.6742	3,864.26	81.8185	3,864.26	80.544	3,864.26	80.2196	3,864.26	78.8375	3,864.26	78.7081	3,864.26	76.1409	3,864.26	76.6717	3,864.26	76.3271	3,864.26	76.3239	3,864.26	74.5975	3,864.26	78.4213	3,864.26	73.6183	3,864.26	75.9988	3,864.26	75.6274	3,864.26	73.3731	3,864.26	66.6262	3,864.26	75.581
4,000.49	96.2161	4,000.49	95.815	4,000.49	96.6987	4,000.49	96.3689	4,000.49	96.0339	4,000.49	96.087	4,000.49	95.4845	4,000.49	94.8801	4,000.49	93.7474	4,000.49	92.6488	4,000.49	91.7541	4,000.49	90.4799	4,000.49	90.2062	4,000.49	87.6242	4,000.49	88.0665	4,000.49	84.9493	4,000.49	83.1637	4,000.49	82.4291	4,000.49	81.8019	4,000.49	81.0191	4,000.49	79.7746	4,000.49	79.7832	4,000.49	76.7624	4,000.49	77.2622	4,000.49	77.7409	4,000.49	73.8085	4,000.49	78.6667	4,000.49	74.1348	4,000.49	76.7855	4,000.49	74.2593	4,000.49	74.3837	4,000.49	72.6186	4,000.49	76.5224	4,000.49	72.7381	4,000.49	68.4837	4,000.49	74.0761
4,141.11	96.5819	4,141.11	96.2403	4,141.11	96.7028	4,141.11	96.4486	4,141.11	96.4928	4,141.11	95.764	4,141.11	95.4614	4,141.11	94.233	4,141.11	94.6007	4,141.11	92.8979	4,141.11	93.154	4,141.11	91.0801	4,141.11	90.3425	4,141.11	88.781	4,141.11	86.9739	4,141.11	85.8574	4,141.11	85.2691	4,141.11	83.6254	4,141.11	83.1386	4,141.11	79.0917	4,141.11	79.7624	4,141.11	79.5717	4,141.11	78.2498	4,141.11	78.2614	4,141.11	77.8968	4,141.11	77.1102	4,141.11	75.5722	4,141.11	72.6101	4,141.11	73.2496	4,141.11	75.1458	4,141.11	75.4116	4,141.11	70.9839	4,141.11	77.0583	4,141.11	72.0221	4,141.11	70.1534	4,141.11	75.1545
4,287.6	95.4282	4,287.6	95.9572	4,287.6	95.5317	4,287.6	95.031	4,287.6	95.6155	4,287.6	95.1027	4,287.6	95.0753	4,287.6	95.0451	4,287.6	93.747	4,287.6	93.2768	4,287.6	91.8542	4,287.6	91.3941	4,287.6	89.4753	4,287.6	88.7681	4,287.6	86.3739	4,287.6	85.6615	4,287.6	84.1213	4,287.6	83.3971	4,287.6	82.4779	4,287.6	81.4781	4,287.6	79.3323	4,287.6	78.8155	4,287.6	78.2824	4,287.6	76.2454	4,287.6	76.3554	4,287.6	75.9181	4,287.6	73.5347	4,287.6	74.3099	4,287.6	72.7576	4,287.6	76.3466	4,287.6	74.78	4,287.6	72.207	4,287.6	74.241	4,287.6	72.9126	4,287.6	66.8612	4,287.6	75.2557
4,438.48	96.3085	4,438.48	95.9079	4,438.48	96.0346	4,438.48	95.9399	4,438.48	95.4577	4,438.48	94.8904	4,438.48	94.8829	4,438.48	93.9919	4,438.48	93.5484	4,438.48	93.0893	4,438.48	91.9636	4,438.48	90.4779	4,438.48	90.3869	4,438.48	87.9899	4,438.48	87.6348	4,438.48	86.0403	4,438.48	85.4296	4,438.48	83.19	4,438.48	82.5235	4,438.48	81.9678	4,438.48	80.114	4,438.48	78.9317	4,438.48	77.76	4,438.48	74.211	4,438.48	76.4207	4,438.48	73.7524	4,438.48	71.6854	4,438.48	70.5216	4,438.48	74.0049	4,438.48	74.2526	4,438.48	74.2175	4,438.48	71.549	4,438.48	73.8751	4,438.48	71.3273	4,438.48	71.6278	4,438.48	73.8761
4,595.21	95.4089	4,595.21	95.5323	4,595.21	94.7927	4,595.21	93.6	4,595.21	94.5009	4,595.21	93.8585	4,595.21	93.1877	4,595.21	93.0235	4,595.21	93.2112	4,595.21	91.8887	4,595.21	92.2904	4,595.21	90.9682	4,595.21	90.1918	4,595.21	89.0592	4,595.21	87.2405	4,595.21	84.9255	4,595.21	84.2603	4,595.21	82.167	4,595.21	81.7662	4,595.21	77.8788	4,595.21	79.0722	4,595.21	78.423	4,595.21	77.9487	4,595.21	75.1272	4,595.21	75.1165	4,595.21	75.065	4,595.21	74.0835	4,595.21	70.9118	4,595.21	70.4941	4,595.21	72.664	4,595.21	72.98	4,595.21	70.2428	4,595.21	71.6539	4,595.21	73.4757	4,595.21	64.9575	4,595.21	70.4371
4,756.35	95.7358	4,756.35	95.0305	4,756.35	95.4174	4,756.35	94.502	4,756.35	94.2023	4,756.35	92.922	4,756.35	94.7105	4,756.35	93.2612	4,756.35	93.4707	4,756.35	92.5391	4,756.35	92.1063	4,756.35	90.4536	4,756.35	90.6541	4,756.35	87.1777	4,756.35	88.3841	4,756.35	84.6535	4,756.35	84.7406	4,756.35	83.0245	4,756.35	83.036	4,756.35	82.5697	4,756.35	80.7031	4,756.35	78.5733	4,756.35	78.3169	4,756.35	76.3208	4,756.35	76.6218	4,756.35	74.2277	4,756.35	72.5735	4,756.35	73.6621	4,756.35	71.6497	4,756.35	73.1388	4,756.35	70.7229	4,756.35	71.3657	4,756.35	70.0065	4,756.35	71.6374	4,756.35	67.3999	4,756.35	72.876
4,924.8	95.9906	4,924.8	95.4536	4,924.8	94.3125	4,924.8	94.0437	4,924.8	93.9134	4,924.8	94.1347	4,924.8	93.5617	4,924.8	93.812	4,924.8	93.8399	4,924.8	93.0038	4,924.8	92.7912	4,924.8	91.0957	4,924.8	90.5529	4,924.8	88.732	4,924.8	87.6909	4,924.8	85.4724	4,924.8	85.555	4,924.8	81.3247	4,924.8	82.2065	4,924.8	78.5508	4,924.8	79.8084	4,924.8	77.3608	4,924.8	77.2881	4,924.8	76.0324	4,924.8	76.2627	4,924.8	73.7202	4,924.8	71.6376	4,924.8	70.2922	4,924.8	68.1564	4,924.8	70.3208	4,924.8	72.9228	4,924.8	69.5812	4,924.8	73.7797	4,924.8	71.2132	4,924.8	69.8405	4,924.8	71.365
5,097.66	95.6756	5,097.66	94.8848	5,097.66	94.8418	5,097.66	92.9922	5,097.66	93.1667	5,097.66	92.5855	5,097.66	93.9189	5,097.66	93.0287	5,097.66	93.6208	5,097.66	92.2732	5,097.66	91.893	5,097.66	90.8945	5,097.66	90.2644	5,097.66	88.7232	5,097.66	87.3527	5,097.66	85.8111	5,097.66	83.6483	5,097.66	83.9353	5,097.66	82.1624	5,097.66	81.294	5,097.66	79.3406	5,097.66	78.884	5,097.66	78.2672	5,097.66	77.8327	5,097.66	75.9351	5,097.66	76.732	5,097.66	74.6726	5,097.66	68.4576	5,097.66	72.2378	5,097.66	70.5038	5,097.66	70.3903	5,097.66	70.644	5,097.66	67.5137	5,097.66	70.6916	5,097.66	63.5237	5,097.66	70.1707
5,277.83	96.2426	5,277.83	95.3955	5,277.83	94.4134	5,277.83	93.9436	5,277.83	93.5518	5,277.83	93.6939	5,277.83	93.1949	5,277.83	93.3747	5,277.83	93.5045	5,277.83	91.9975	5,277.83	92.2734	5,277.83	89.7233	5,277.83	89.1562	5,277.83	86.5847	5,277.83	85.6664	5,277.83	84.776	5,277.83	83.8007	5,277.83	80.5221	5,277.83	80.3827	5,277.83	79.7916	5,277.83	79.1679	5,277.83	77.1083	5,277.83	76.681	5,277.83	75.0108	5,277.83	75.2026	5,277.83	75.1817	5,277.83	73.8647	5,277.83	72.2277	5,277.83	70.8622	5,277.83	68.3238	5,277.83	69.332	5,277.83	67.6328	5,277.83	65.6986	5,277.83	69.6191	5,277.83	63.3931	5,277.83	66.5105
5,463.87	96.3213	5,463.87	95.849	5,463.87	95.372	5,463.87	94.3317	5,463.87	93.2381	5,463.87	93.2521	5,463.87	93.4926	5,463.87	93.2509	5,463.87	93.3818	5,463.87	92.5134	5,463.87	91.8517	5,463.87	90.9726	5,463.87	89.3869	5,463.87	89.5525	5,463.87	87.5182	5,463.87	86.3878	5,463.87	83.3162	5,463.87	84.3478	5,463.87	80.1633	5,463.87	77.9117	5,463.87	78.7215	5,463.87	76.5343	5,463.87	76.7073	5,463.87	77.1087	5,463.87	75.3279	5,463.87	75.5875	5,463.87	74.1645	5,463.87	70.9725	5,463.87	66.4526	5,463.87	70.0319	5,463.87	69.0132	5,463.87	68.5396	5,463.87	70.7839	5,463.87	69.2589	5,463.87	67.4345	5,463.87	68.0838
5,657.23	96.8213	5,657.23	96.3308	5,657.23	95.891	5,657.23	94.8996	5,657.23	94.3451	5,657.23	92.8662	5,657.23	93.3416	5,657.23	92.4113	5,657.23	92.8658	5,657.23	91.2856	5,657.23	91.435	5,657.23	89.437	5,657.23	89.4066	5,657.23	86.4904	5,657.23	86.4583	5,657.23	84.2073	5,657.23	83.8802	5,657.23	81.4943	5,657.23	80.3149	5,657.23	78.5493	5,657.23	78.5534	5,657.23	76.3309	5,657.23	76.099	5,657.23	75.815	5,657.23	75.6561	5,657.23	75.0175	5,657.23	71.628	5,657.23	74.5432	5,657.23	71.0578	5,657.23	72.6469	5,657.23	68.5889	5,657.23	70.7346	5,657.23	65.389	5,657.23	69.1876	5,657.23	61.2334	5,657.23	68.8794
5,856.45	96.3919	5,856.45	96.0881	5,856.45	95.9504	5,856.45	94.7009	5,856.45	93.9974	5,856.45	92.8573	5,856.45	92.3328	5,856.45	92.4346	5,856.45	91.6747	5,856.45	91.8624	5,856.45	90.8116	5,856.45	90.5481	5,856.45	89.4322	5,856.45	89.3031	5,856.45	87.5185	5,856.45	86.0832	5,856.45	84.4994	5,856.45	82.7119	5,856.45	81.4247	5,856.45	79.3688	5,856.45	77.76	5,856.45	77.7712	5,856.45	76.9314	5,856.45	76.6731	5,856.45	73.8849	5,856.45	71.9381	5,856.45	74.3694	5,856.45	70.9887	5,856.45	69.8768	5,856.45	70.2093	5,856.45	70.6729	5,856.45	71.5961	5,856.45	70.6306	5,856.45	68.1077	5,856.45	66.4919	5,856.45	65.5317
6,062.99	97.1607	6,062.99	97.09	6,062.99	96.5627	6,062.99	95.7794	6,062.99	94.9208	6,062.99	93.3844	6,062.99	92.7095	6,062.99	91.9251	6,062.99	92.022	6,062.99	91.1911	6,062.99	90.8499	6,062.99	90.294	6,062.99	89.8328	6,062.99	88.5952	6,062.99	86.7952	6,062.99	84.9476	6,062.99	84.7302	6,062.99	81.3151	6,062.99	82.8995	6,062.99	78.9676	6,062.99	79.1892	6,062.99	76.0006	6,062.99	76.4738	6,062.99	76.8117	6,062.99	75.2903	6,062.99	75.9247	6,062.99	74.1339	6,062.99	74.0535	6,062.99	71.4154	6,062.99	69.0044	6,062.99	67.7368	6,062.99	71.6468	6,062.99	68.8894	6,062.99	70.028	6,062.99	62.8934	6,062.99	64.7535
6,276.86	96.2238	6,276.86	96.3924	6,276.86	96.2929	6,276.86	95.1101	6,276.86	94.1988	6,276.86	92.753	6,276.86	91.657	6,276.86	91.5452	6,276.86	91.2229	6,276.86	91.3572	6,276.86	91.187	6,276.86	90.4018	6,276.86	89.9045	6,276.86	88.5475	6,276.86	87.6866	6,276.86	84.9952	6,276.86	84.8032	6,276.86	82.4312	6,276.86	82.3543	6,276.86	79.984	6,276.86	78.6213	6,276.86	78.2044	6,276.86	76.95	6,276.86	75.8599	6,276.86	75.8168	6,276.86	72.1476	6,276.86	75.6282	6,276.86	74.5288	6,276.86	72.0252	6,276.86	71.163	6,276.86	70.0851	6,276.86	73.5384	6,276.86	67.9519	6,276.86	69.2327	6,276.86	67.2838	6,276.86	67.0549
6,498.05	96.7941	6,498.05	96.8306	6,498.05	96.2156	6,498.05	95.9909	6,498.05	94.9306	6,498.05	93.1303	6,498.05	91.8218	6,498.05	91.3115	6,498.05	91.6422	6,498.05	91.291	6,498.05	91.2926	6,498.05	90.2337	6,498.05	89.8237	6,498.05	87.9953	6,498.05	87.1729	6,498.05	86.1766	6,498.05	84.4685	6,498.05	82.7073	6,498.05	82.1312	6,498.05	79.9291	6,498.05	79.2869	6,498.05	77.5263	6,498.05	76.0604	6,498.05	75.9169	6,498.05	75.6472	6,498.05	75.708	6,498.05	71.0899	6,498.05	74.8462	6,498.05	70.6982	6,498.05	68.4056	6,498.05	69.4584	6,498.05	70.6689	6,498.05	65.8962	6,498.05	70.0172	6,498.05	64.6892	6,498.05	65.7496
6,726.56	97.1453	6,726.56	96.9384	6,726.56	96.9144	6,726.56	96.3845	6,726.56	95.2041	6,726.56	94.1802	6,726.56	92.4014	6,726.56	92.4036	6,726.56	91.5815	6,726.56	92.0896	6,726.56	91.6419	6,726.56	91.0692	6,726.56	90.2694	6,726.56	88.7786	6,726.56	88.4206	6,726.56	86.5616	6,726.56	84.1847	6,726.56	83.2092	6,726.56	80.8632	6,726.56	80.1386	6,726.56	78.4082	6,726.56	75.8895	6,726.56	77.0532	6,726.56	74.9888	6,726.56	75.0959	6,726.56	75.1209	6,726.56	73.6975	6,726.56	73.9621	6,726.56	70.9691	6,726.56	69.7702	6,726.56	69.7021	6,726.56	70.8929	6,726.56	67.1984	6,726.56	71.3333	6,726.56	67.1585	6,726.56	65.7591
6,963.87	96.6523	6,963.87	96.6144	6,963.87	96.5468	6,963.87	95.7793	6,963.87	95.1861	6,963.87	93.6812	6,963.87	92.2859	6,963.87	91.768	6,963.87	91.4384	6,963.87	90.9517	6,963.87	90.6722	6,963.87	90.0542	6,963.87	89.5198	6,963.87	87.9326	6,963.87	87.3884	6,963.87	85.8311	6,963.87	85.0329	6,963.87	83.1618	6,963.87	81.8608	6,963.87	79.4179	6,963.87	78.5813	6,963.87	76.9461	6,963.87	76.6977	6,963.87	76.0081	6,963.87	73.7606	6,963.87	73.3058	6,963.87	72.3384	6,963.87	73.9804	6,963.87	70.357	6,963.87	72.1749	6,963.87	68.9029	6,963.87	72.1976	6,963.87	67.4152	6,963.87	68.9559	6,963.87	65.8138	6,963.87	65.6729
7,209.96	97.1854	7,209.96	97.1219	7,209.96	96.9169	7,209.96	96.3442	7,209.96	95.3486	7,209.96	94.5763	7,209.96	92.7323	7,209.96	92.7265	7,209.96	90.937	7,209.96	91.8771	7,209.96	90.987	7,209.96	91.1171	7,209.96	89.796	7,209.96	89.3767	7,209.96	88.1596	7,209.96	86.8663	7,209.96	85.1381	7,209.96	83.1935	7,209.96	81.7422	7,209.96	79.8295	7,209.96	79.4091	7,209.96	76.5416	7,209.96	76.7352	7,209.96	75.0148	7,209.96	75.0854	7,209.96	71.2621	7,209.96	73.6853	7,209.96	73.9238	7,209.96	71.729	7,209.96	71.6585	7,209.96	69.7785	7,209.96	70.1076	7,209.96	68.4767	7,209.96	69.7302	7,209.96	63.2391	7,209.96	65.971
7,464.84	97.2691	7,464.84	97.1883	7,464.84	96.6449	7,464.84	96.3502	7,464.84	95.295	7,464.84	94.326	7,464.84	92.9866	7,464.84	92.4492	7,464.84	91.0275	7,464.84	90.8923	7,464.84	90.6	7,464.84	90.1715	7,464.84	89.6225	7,464.84	88.7592	7,464.84	87.5201	7,464.84	85.7872	7,464.84	84.7442	7,464.84	82.58	7,464.84	81.2513	7,464.84	80.1454	7,464.84	78.5571	7,464.84	77.1997	7,464.84	75.8081	7,464.84	74.0061	7,464.84	73.3818	7,464.84	72.8089	7,464.84	74.5942	7,464.84	73.7583	7,464.84	72.9848	7,464.84	71.3989	7,464.84	68.8001	7,464.84	70.3787	7,464.84	68.835	7,464.84	69.4889	7,464.84	59.7264	7,464.84	66.1708
7,727.05	96.8058	7,727.05	96.5345	7,727.05	96.2963	7,727.05	95.7199	7,727.05	95.0075	7,727.05	93.9123	7,727.05	93.0432	7,727.05	92.2086	7,727.05	91.271	7,727.05	91.287	7,727.05	90.2058	7,727.05	90.1585	7,727.05	89.4605	7,727.05	88.5238	7,727.05	87.8782	7,727.05	85.8521	7,727.05	84.5198	7,727.05	83.4531	7,727.05	81.1355	7,727.05	80.4337	7,727.05	77.6807	7,727.05	76.7269	7,727.05	76.4206	7,727.05	73.1977	7,727.05	75.2765	7,727.05	73.1985	7,727.05	73.7735	7,727.05	73.4663	7,727.05	72.0509	7,727.05	71.046	7,727.05	71.2253	7,727.05	70.132	7,727.05	67.8535	7,727.05	67.0508	7,727.05	61.9001	7,727.05	62.3157
7,999.51	96.8137	7,999.51	96.5528	7,999.51	96.3214	7,999.51	95.9931	7,999.51	94.6731	7,999.51	94.4484	7,999.51	93.0109	7,999.51	92.8231	7,999.51	91.536	7,999.51	91.4704	7,999.51	90.1967	7,999.51	90.2453	7,999.51	89.3406	7,999.51	88.0883	7,999.51	87.8261	7,999.51	85.6345	7,999.51	84.4802	7,999.51	82.4408	7,999.51	81.069	7,999.51	79.1233	7,999.51	77.231	7,999.51	74.7916	7,999.51	75.3765	7,999.51	73.5434	7,999.51	75.4007	7,999.51	72.8972	7,999.51	72.8938	7,999.51	73.215	7,999.51	72.8041	7,999.51	69.8166	7,999.51	68.2623	7,999.51	71.5485	7,999.51	70.428	7,999.51	66.7698	7,999.51	63.7084	7,999.51	65.3348
8,282.23	97.1057	8,282.23	96.6465	8,282.23	96.2088	8,282.23	95.4928	8,282.23	94.644	8,282.23	94.0461	8,282.23	93.1541	8,282.23	92.4516	8,282.23	91.7364	8,282.23	90.7307	8,282.23	90.5784	8,282.23	89.7747	8,282.23	89.2835	8,282.23	88.281	8,282.23	86.7024	8,282.23	85.6269	8,282.23	84.2008	8,282.23	82.5584	8,282.23	80.8234	8,282.23	79.4863	8,282.23	77.2817	8,282.23	76.0171	8,282.23	74.5036	8,282.23	73.8276	8,282.23	72.7035	8,282.23	73.1778	8,282.23	70.1537	8,282.23	72.9191	8,282.23	71.4264	8,282.23	70.8856	8,282.23	68.1964	8,282.23	70.2235	8,282.23	64.4742	8,282.23	63.0444	8,282.23	66.6378	8,282.23	65.2926
8,573.73	97.4822	8,573.73	97.0942	8,573.73	96.3345	8,573.73	95.4693	8,573.73	95.205	8,573.73	94.0699	8,573.73	93.5753	8,573.73	92.547	8,573.73	91.9879	8,573.73	90.702	8,573.73	90.9821	8,573.73	89.7601	8,573.73	89.2482	8,573.73	88.3046	8,573.73	86.9689	8,573.73	85.1754	8,573.73	83.8089	8,573.73	83.1567	8,573.73	80.7446	8,573.73	78.2683	8,573.73	77.8267	8,573.73	75.4664	8,573.73	74.6186	8,573.73	73.3778	8,573.73	72.5385	8,573.73	72.9048	8,573.73	72.8955	8,573.73	71.3027	8,573.73	72.1187	8,573.73	70.4039	8,573.73	68.4094	8,573.73	69.8476	8,573.73	70.1261	8,573.73	66.3588	8,573.73	65.3743	8,573.73	64.2781
8,876.95	97.1479	8,876.95	96.4761	8,876.95	95.941	8,876.95	95.1028	8,876.95	95.0585	8,876.95	93.7749	8,876.95	93.6022	8,876.95	92.5668	8,876.95	92.1123	8,876.95	90.8188	8,876.95	90.7535	8,876.95	89.4709	8,876.95	88.6945	8,876.95	87.5776	8,876.95	86.143	8,876.95	84.7421	8,876.95	83.5218	8,876.95	81.2532	8,876.95	80.2258	8,876.95	78.9978	8,876.95	76.711	8,876.95	75.4461	8,876.95	74.2688	8,876.95	71.29	8,876.95	71.3084	8,876.95	72.2696	8,876.95	71.3658	8,876.95	71.0206	8,876.95	72.0648	8,876.95	71.1767	8,876.95	66.2554	8,876.95	69.3908	8,876.95	67.3893	8,876.95	58.7256	8,876.95	65.1571	8,876.95	63.1437
9,188.96	97.2433	9,188.96	96.6667	9,188.96	96.2367	9,188.96	95.5682	9,188.96	95.4562	9,188.96	94.2717	9,188.96	93.9859	9,188.96	92.6015	9,188.96	92.3972	9,188.96	90.7759	9,188.96	90.6693	9,188.96	89.1127	9,188.96	88.8512	9,188.96	87.1385	9,188.96	86.2106	9,188.96	84.8526	9,188.96	84.5854	9,188.96	81.4485	9,188.96	80.8072	9,188.96	78.1586	9,188.96	76.9668	9,188.96	74.6312	9,188.96	74.4564	9,188.96	70.7218	9,188.96	73.7797	9,188.96	72.0666	9,188.96	73.3624	9,188.96	70.1911	9,188.96	71.8821	9,188.96	68.3254	9,188.96	67.1059	9,188.96	70.0065	9,188.96	69.4637	9,188.96	62.9143	9,188.96	66.8825	9,188.96	63.3718
9,514.16	97.1088	9,514.16	96.4247	9,514.16	96.3929	9,514.16	95.5128	9,514.16	95.6603	9,514.16	94.2109	9,514.16	94.3057	9,514.16	92.6761	9,514.16	92.4972	9,514.16	90.2154	9,514.16	90.5939	9,514.16	88.9742	9,514.16	88.7679	9,514.16	87.2547	9,514.16	86.6984	9,514.16	84.8614	9,514.16	83.9456	9,514.16	82.1015	9,514.16	81.2239	9,514.16	77.9387	9,514.16	77.8587	9,514.16	74.5977	9,514.16	74.018	9,514.16	71.3158	9,514.16	73.2942	9,514.16	71.8451	9,514.16	72.544	9,514.16	71.0634	9,514.16	71.3666	9,514.16	68.6189	9,514.16	68.1111	9,514.16	69.7981	9,514.16	70.6065	9,514.16	63.3384	9,514.16	64.8747	9,514.16	64.3802
9,849.61	96.9587	9,849.61	96.2356	9,849.61	96.6326	9,849.61	95.7113	9,849.61	96.0768	9,849.61	94.9044	9,849.61	94.5814	9,849.61	93.1613	9,849.61	92.4806	9,849.61	90.5734	9,849.61	90.7916	9,849.61	89.2827	9,849.61	89.0198	9,849.61	87.7119	9,849.61	86.3892	9,849.61	84.7715	9,849.61	83.9881	9,849.61	81.3307	9,849.61	80.9788	9,849.61	77.3331	9,849.61	76.8174	9,849.61	72.7929	9,849.61	73.0019	9,849.61	70.6818	9,849.61	73.8101	9,849.61	71.8078	9,849.61	74.1909	9,849.61	70.8568	9,849.61	70.766	9,849.61	68.7837	9,849.61	65.9983	9,849.61	67.9981	9,849.61	69.8942	9,849.61	61.0472	9,849.61	64.6232	9,849.61	61.2162
10,196.8	96.3951	10,196.8	96.154	10,196.8	96.7435	10,196.8	96.0364	10,196.8	96.6263	10,196.8	95.5133	10,196.8	94.9987	10,196.8	93.3729	10,196.8	92.3479	10,196.8	90.782	10,196.8	90.5654	10,196.8	89.24	10,196.8	89.5842	10,196.8	86.8315	10,196.8	86.9067	10,196.8	84.5054	10,196.8	83.9661	10,196.8	79.2666	10,196.8	80.2089	10,196.8	76.5166	10,196.8	75.1151	10,196.8	72.155	10,196.8	71.8048	10,196.8	69.7153	10,196.8	72.7514	10,196.8	69.4105	10,196.8	72.0052	10,196.8	69.6357	10,196.8	70.0072	10,196.8	67.0556	10,196.8	65.4864	10,196.8	65.78	10,196.8	68.9223	10,196.8	62.8566	10,196.8	67.8703	10,196.8	58.0972
10,555.7	96.0636	10,555.7	96.1897	10,555.7	96.8186	10,555.7	96.5597	10,555.7	96.5599	10,555.7	95.948	10,555.7	94.9684	10,555.7	93.5597	10,555.7	92.3378	10,555.7	91.0773	10,555.7	90.7153	10,555.7	89.3618	10,555.7	89.3174	10,555.7	86.5377	10,555.7	86.2669	10,555.7	83.657	10,555.7	83.0378	10,555.7	79.2755	10,555.7	79.3562	10,555.7	76.0332	10,555.7	74.9642	10,555.7	73.3154	10,555.7	72.0611	10,555.7	71.8066	10,555.7	73.0603	10,555.7	69.205	10,555.7	70.7115	10,555.7	68.738	10,555.7	68.5183	10,555.7	63.138	10,555.7	64.8882	10,555.7	64.4278	10,555.7	67.3579	10,555.7	61.4475	10,555.7	67.2524	10,555.7	57.4605
10,927.7	96.0382	10,927.7	96.3619	10,927.7	97.2598	10,927.7	96.9909	10,927.7	96.805	10,927.7	96.1348	10,927.7	95.1291	10,927.7	93.5674	10,927.7	92.4327	10,927.7	91.3093	10,927.7	90.8476	10,927.7	89.0483	10,927.7	88.3904	10,927.7	86.4361	10,927.7	84.8856	10,927.7	82.5177	10,927.7	81.6994	10,927.7	78.8082	10,927.7	78.3421	10,927.7	75.4695	10,927.7	73.9108	10,927.7	72.4409	10,927.7	71.6752	10,927.7	70.2006	10,927.7	70.9194	10,927.7	68.5691	10,927.7	67.7391	10,927.7	67.6867	10,927.7	66.9499	10,927.7	63.0573	10,927.7	65.1664	10,927.7	62.1858	10,927.7	67.061	10,927.7	63.4727	10,927.7	64.2866	10,927.7	58.4884
11,313	95.9163	11,313	96.544	11,313	97.296	11,313	97.1227	11,313	96.9292	11,313	96.0983	11,313	95.2245	11,313	93.6819	11,313	92.6447	11,313	91.4199	11,313	90.2212	11,313	88.868	11,313	87.6662	11,313	85.5743	11,313	84.3663	11,313	82.0044	11,313	80.446	11,313	77.5654	11,313	77.2937	11,313	74.6931	11,313	73.7484	11,313	72.085	11,313	69.9281	11,313	68.5356	11,313	69.7681	11,313	65.891	11,313	61.7642	11,313	64.7148	11,313	65.4465	11,313	61.1941	11,313	61.2616	11,313	61.5194	11,313	64.829	11,313	62.3738	11,313	65.8431	11,313	51.7009
11,712.9	96.2051	11,712.9	96.7631	11,712.9	97.2279	11,712.9	97.2562	11,712.9	96.929	11,712.9	96.0901	11,712.9	95.2507	11,712.9	93.9886	11,712.9	92.6622	11,712.9	91.24	11,712.9	89.3847	11,712.9	88.2529	11,712.9	86.8633	11,712.9	84.8125	11,712.9	83.7478	11,712.9	80.7918	11,712.9	80.1417	11,712.9	77.7071	11,712.9	77.1743	11,712.9	73.7018	11,712.9	72.6667	11,712.9	70.4639	11,712.9	69.2073	11,712.9	66.9591	11,712.9	67.3485	11,712.9	63.0314	11,712.9	63.5999	11,712.9	61.3554	11,712.9	63.8475	11,712.9	58.6273	11,712.9	61.6662	11,712.9	58.3604	11,712.9	60.6841	11,712.9	64.2887	11,712.9	65.9714	11,712.9	55.7772
12,126	95.9056	12,126	96.7368	12,126	96.8216	12,126	97.085	12,126	96.6538	12,126	95.7717	12,126	95.2558	12,126	94.1846	12,126	92.687	12,126	91.2755	12,126	89.025	12,126	87.8573	12,126	86.1868	12,126	84.2994	12,126	83.1112	12,126	80.5565	12,126	79.5296	12,126	77.8194	12,126	77.0321	12,126	74.0788	12,126	72.2474	12,126	70.4567	12,126	69.5194	12,126	66.8578	12,126	66.9285	12,126	60.0348	12,126	63.2022	12,126	61.3812	12,126	60.7124	12,126	56.0315	12,126	62.2772	12,126	53.7959	12,126	55.7007	12,126	66.4311	12,126	65.8543	12,126	56.6251
12,553.7	96.1216	12,553.7	96.765	12,553.7	96.5873	12,553.7	96.735	12,553.7	96.4906	12,553.7	95.4912	12,553.7	95.429	12,553.7	94.4009	12,553.7	92.6106	12,553.7	91.2381	12,553.7	88.5702	12,553.7	87.6525	12,553.7	85.366	12,553.7	84.078	12,553.7	82.125	12,553.7	81.0527	12,553.7	79.3559	12,553.7	77.5687	12,553.7	76.3888	12,553.7	74.4065	12,553.7	73.0995	12,553.7	70.0609	12,553.7	68.3417	12,553.7	66.9576	12,553.7	61.9962	12,553.7	63.6408	12,553.7	62.6043	12,553.7	56.3859	12,553.7	57.7996	12,553.7	55.936	12,553.7	64.751	12,553.7	57.0987	12,553.7	58.8773	12,553.7	67.0155	12,553.7	60.4987	12,553.7	56.3734
12,996.1	96.7147	12,996.1	97.0131	12,996.1	96.6897	12,996.1	96.3328	12,996.1	96.5153	12,996.1	95.533	12,996.1	95.6972	12,996.1	94.5165	12,996.1	92.746	12,996.1	90.4901	12,996.1	88.306	12,996.1	87.2568	12,996.1	85.522	12,996.1	83.8261	12,996.1	82.9699	12,996.1	81.2221	12,996.1	80.2966	12,996.1	77.3568	12,996.1	76.908	12,996.1	74.4735	12,996.1	72.5058	12,996.1	70.2683	12,996.1	68.8048	12,996.1	67.9359	12,996.1	60.3674	12,996.1	63.3636	12,996.1	62.6846	12,996.1	49.9751	12,996.1	57.9157	12,996.1	54.8502	12,996.1	63.9702	12,996.1	57.1468	12,996.1	60.7963	12,996.1	66.438	12,996.1	51.579	12,996.1	55.812
13,454.6	97.2859	13,454.6	97.2982	13,454.6	96.7654	13,454.6	96.1357	13,454.6	96.5908	13,454.6	95.7208	13,454.6	95.6489	13,454.6	94.4531	13,454.6	92.7192	13,454.6	89.852	13,454.6	89.0333	13,454.6	86.9173	13,454.6	86.6989	13,454.6	84.125	13,454.6	83.824	13,454.6	81.0594	13,454.6	80.1706	13,454.6	77.7587	13,454.6	76.5815	13,454.6	74.2642	13,454.6	73.734	13,454.6	71.2918	13,454.6	70.4643	13,454.6	67.3441	13,454.6	64.5267	13,454.6	63.926	13,454.6	65.1232	13,454.6	46.2773	13,454.6	53.9241	13,454.6	54.3863	13,454.6	64.0496	13,454.6	54.6593	13,454.6	57.3733	13,454.6	66.1183	13,454.6	57.0616	13,454.6	55.6619
13,929.2	97.6797	13,929.2	97.2672	13,929.2	96.8555	13,929.2	96.2553	13,929.2	96.7427	13,929.2	95.8203	13,929.2	95.6017	13,929.2	94.0148	13,929.2	92.5509	13,929.2	89.4997	13,929.2	89.4562	13,929.2	87.7118	13,929.2	87.3836	13,929.2	84.3086	13,929.2	84.8672	13,929.2	81.4551	13,929.2	80.8579	13,929.2	76.8243	13,929.2	77.3373	13,929.2	74.4678	13,929.2	74.0709	13,929.2	71.1902	13,929.2	70.1873	13,929.2	68.3075	13,929.2	63.5493	13,929.2	63.5697	13,929.2	62.8362	13,929.2	51.0918	13,929.2	56.0697	13,929.2	57.7755	13,929.2	64.5053	13,929.2	56.8064	13,929.2	57.5628	13,929.2	65.1351	13,929.2	58.4053	13,929.2	52.4172
14,419.9	97.8396	14,419.9	97.289	14,419.9	97.0075	14,419.9	96.4901	14,419.9	96.8016	14,419.9	95.8513	14,419.9	95.3941	14,419.9	93.4425	14,419.9	92.5391	14,419.9	88.9044	14,419.9	89.9726	14,419.9	87.9749	14,419.9	87.8645	14,419.9	84.7809	14,419.9	84.7024	14,419.9	81.2573	14,419.9	82.0344	14,419.9	78.4454	14,419.9	78.4925	14,419.9	75.6137	14,419.9	75.0394	14,419.9	72.1555	14,419.9	71.014	14,419.9	68.3262	14,419.9	63.9353	14,419.9	62.7851	14,419.9	62.992	14,419.9	57.9752	14,419.9	52.7571	14,419.9	56.0552	14,419.9	62.9987	14,419.9	57.6048	14,419.9	56.6698	14,419.9	65.3475	14,419.9	61.7334	14,419.9	49.1113
14,928.2	97.768	14,928.2	97.2052	14,928.2	96.962	14,928.2	96.468	14,928.2	96.64	14,928.2	95.553	14,928.2	94.8011	14,928.2	92.5797	14,928.2	91.9203	14,928.2	89.1684	14,928.2	89.9032	14,928.2	88.0695	14,928.2	87.7486	14,928.2	85.362	14,928.2	85.4349	14,928.2	82.7057	14,928.2	82.5649	14,928.2	79.2854	14,928.2	78.2874	14,928.2	75.4547	14,928.2	75.6336	14,928.2	72.5073	14,928.2	71.9495	14,928.2	68.1292	14,928.2	65.5781	14,928.2	65.1759	14,928.2	65.3495	14,928.2	54.3916	14,928.2	55.0624	14,928.2	48.2237	14,928.2	62.5593	14,928.2	48.1155	14,928.2	51.3731	14,928.2	62.0794	14,928.2	63.3237	14,928.2	55.2603
15,455.6	97.4688	15,455.6	96.9064	15,455.6	96.9273	15,455.6	96.5675	15,455.6	96.2194	15,455.6	95.0431	15,455.6	94.2608	15,455.6	92.3455	15,455.6	91.6921	15,455.6	89.3325	15,455.6	89.1925	15,455.6	87.8446	15,455.6	87.7277	15,455.6	86.4404	15,455.6	85.9348	15,455.6	83.5247	15,455.6	82.6676	15,455.6	79.7925	15,455.6	78.1254	15,455.6	76.0324	15,455.6	74.9391	15,455.6	73.5431	15,455.6	71.4166	15,455.6	69.2322	15,455.6	65.4284	15,455.6	62.4591	15,455.6	66.1509	15,455.6	58.4741	15,455.6	52.3638	15,455.6	39.378	15,455.6	60.0968	15,455.6	54.9318	15,455.6	55.4859	15,455.6	60.3029	15,455.6	58.8007	15,455.6	54.201
16,000.5	97.1436	16,000.5	96.6779	16,000.5	96.7554	16,000.5	96.4725	16,000.5	95.7872	16,000.5	94.5828	16,000.5	93.9118	16,000.5	92.1035	16,000.5	91.4428	16,000.5	88.837	16,000.5	89.0469	16,000.5	87.2155	16,000.5	88.0115	16,000.5	87.0967	16,000.5	85.5841	16,000.5	83.14	16,000.5	82.148	16,000.5	79.9017	16,000.5	77.549	16,000.5	74.4722	16,000.5	74.3741	16,000.5	72.0825	16,000.5	70.0853	16,000.5	66.894	16,000.5	62.8166	16,000.5	60.9153	16,000.5	65.6684	16,000.5	55.6604	16,000.5	50.2864	16,000.5	47.9672	16,000.5	59.0596	16,000.5	60.6195	16,000.5	57.3332	16,000.5	59.222	16,000.5	54.0022	16,000.5	52.1452
16,564.5	96.9314	16,564.5	96.5815	16,564.5	96.7501	16,564.5	96.1707	16,564.5	95.3371	16,564.5	93.7322	16,564.5	93.3488	16,564.5	91.3335	16,564.5	91.16	16,564.5	88.6151	16,564.5	88.6484	16,564.5	87.7257	16,564.5	87.741	16,564.5	86.7195	16,564.5	85.3042	16,564.5	82.5998	16,564.5	81.1809	16,564.5	78.0401	16,564.5	76.8055	16,564.5	73.1238	16,564.5	73.3874	16,564.5	70.1134	16,564.5	69.0528	16,564.5	65.1949	16,564.5	60.7949	16,564.5	61.486	16,564.5	64.9471	16,564.5	49.7079	16,564.5	42.8492	16,564.5	52.3387	16,564.5	54.1664	16,564.5	61.2699	16,564.5	60.1747	16,564.5	54.9608	16,564.5	45.6318	16,564.5	46.5569
17,148.9	96.8133	17,148.9	96.5921	17,148.9	96.4372	17,148.9	95.9352	17,148.9	94.8729	17,148.9	93.079	17,148.9	92.5848	17,148.9	90.7648	17,148.9	90.7595	17,148.9	88.2761	17,148.9	88.6284	17,148.9	87.1173	17,148.9	87.1189	17,148.9	85.6947	17,148.9	84.3109	17,148.9	80.7012	17,148.9	79.2977	17,148.9	76.3233	17,148.9	74.8496	17,148.9	71.094	17,148.9	71.0452	17,148.9	67.0217	17,148.9	66.0757	17,148.9	61.4011	17,148.9	57.3128	17,148.9	60.7629	17,148.9	63.7198	17,148.9	50.5547	17,148.9	39.508	17,148.9	53.1958	17,148.9	51.4008	17,148.9	59.2279	17,148.9	58.7838	17,148.9	53.0435	17,148.9	45.8689	17,148.9	41.5264
17,752.4	96.6988	17,752.4	96.3744	17,752.4	96.2955	17,752.4	95.3826	17,752.4	94.2433	17,752.4	92.1186	17,752.4	91.6486	17,752.4	89.9406	17,752.4	89.716	17,752.4	87.8803	17,752.4	87.3668	17,752.4	85.8065	17,752.4	84.6931	17,752.4	82.6302	17,752.4	80.1294	17,752.4	76.3984	17,752.4	74.2089	17,752.4	70.1157	17,752.4	69.2332	17,752.4	65.2045	17,752.4	65.9528	17,752.4	60.9411	17,752.4	61.4767	17,752.4	53.1418	17,752.4	41.7877	17,752.4	55.7491	17,752.4	55.1065	17,752.4	50.6168	17,752.4	43.7677	17,752.4	56.9589	17,752.4	48.5991	17,752.4	56.4332	17,752.4	53.0483	17,752.4	53.2452	17,752.4	47.422	17,752.4	39.859
18,379.4	96.0194	18,379.4	95.6536	18,379.4	95.5202	18,379.4	94.4791	18,379.4	93.4697	18,379.4	91.1918	18,379.4	91.2769	18,379.4	89.6711	18,379.4	89.3788	18,379.4	86.868	18,379.4	86.4557	18,379.4	83.146	18,379.4	82.0229	18,379.4	76.5995	18,379.4	74.5969	18,379.4	65.4854	18,379.4	64.0871	18,379.4	48.3933	18,379.4	62.8557	18,379.4	62.3956	18,379.4	60.0033	18,379.4	56.1	18,379.4	58.3931	18,379.4	49.739	18,379.4	51.1711	18,379.4	36.487	18,379.4	56.246	18,379.4	48.4061	18,379.4	46.2726	18,379.4	56.0181	18,379.4	46.4188	18,379.4	50.1404	18,379.4	50.6836	18,379.4	47.8694	18,379.4	50.6926	18,379.4	23.3608
19,026.9	95.4337	19,026.9	94.9855	19,026.9	94.899	19,026.9	93.5533	19,026.9	92.9238	19,026.9	91.003	19,026.9	91.2826	19,026.9	89.7785	19,026.9	89.3667	19,026.9	86.3199	19,026.9	85.6047	19,026.9	80.5051	19,026.9	79.6777	19,026.9	69.7417	19,026.9	74.8463	19,026.9	70.5484	19,026.9	71.0169	19,026.9	68.4642	19,026.9	68.9221	19,026.9	65.7988	19,026.9	64.9004	19,026.9	61.4935	19,026.9	62.1396	19,026.9	53.7035	19,026.9	55.6908	19,026.9	50.1538	19,026.9	58.4287	19,026.9	49.1182	19,026.9	48.4671	19,026.9	56.1132	19,026.9	50.0666	19,026.9	50.7999	19,026.9	53.2582	19,026.9	49.8061	19,026.9	52.3825	19,026.9	40.2455
19,697.8	94.9649	19,697.8	94.6751	19,697.8	94.2723	19,697.8	92.8622	19,697.8	92.5935	19,697.8	90.9805	19,697.8	91.5343	19,697.8	89.5211	19,697.8	89.4783	19,697.8	85.732	19,697.8	84.7216	19,697.8	78.2258	19,697.8	79.5253	19,697.8	75.4555	19,697.8	78.436	19,697.8	73.5629	19,697.8	74.348	19,697.8	72.2167	19,697.8	72.0121	19,697.8	65.6352	19,697.8	66.2218	19,697.8	62.8467	19,697.8	62.0241	19,697.8	54.2736	19,697.8	54.6241	19,697.8	54.9846	19,697.8	60.2866	19,697.8	51.4849	19,697.8	47.0476	19,697.8	50.0607	19,697.8	47.1161	19,697.8	44.4612	19,697.8	49.877	19,697.8	51.9835	19,697.8	54.3933	19,697.8	37.8429
19,999.5	94.5639	19,999.5	94.3954	19,999.5	94.3061	19,999.5	92.6399	19,999.5	92.3519	19,999.5	90.986	19,999.5	91.5509	19,999.5	89.5401	19,999.5	89.5946	19,999.5	85.2657	19,999.5	84.5795	19,999.5	76.6968	19,999.5	79.1027	19,999.5	76.4387	19,999.5	80.2006	19,999.5	75.2267	19,999.5	73.9891	19,999.5	72.9873	19,999.5	74.6815	19,999.5	69.7445	19,999.5	66.7847	19,999.5	58.8129	19,999.5	62.7735	19,999.5	50.4728	19,999.5	60.2812	19,999.5	40.5434	19,999.5	66.5413	19,999.5	53.8398	19,999.5	60.4798	19,999.5	54.6734	19,999.5	62.6643	19,999.5	59.3716	19,999.5	65.3245	19,999.5	57.0261	19,999.5	41.1735	19,999.5	57.9565
