"SPL Vertical"
"On-Axis"		"10°"		"-10°"		"20°"		"-20°"		"30°"		"-30°"		"40°"		"-40°"		"50°"		"-50°"		"60°"		"-60°"		"70°"		"-70°"		"80°"		"-80°"		"90°"		"-90°"		"100°"		"-100°"		"110°"		"-110°"		"120°"		"-120°"		"130°"		"-130°"		"140°"		"-140°"		"150°"		"-150°"		"160°"		"-160°"		"170°"		"-170°"		"180°"
"Frequency / Hz"	"Sound Pressure Level / dB (re 20 µPa/V)  [2.83  V @ 1. m]"	"Frequency / Hz"	"Sound Pressure Level / dB (re 20 µPa/V)  [2.83  V @ 1. m]"	"Frequency / Hz"	"Sound Pressure Level / dB (re 20 µPa/V)  [2.83  V @ 1. m]"	"Frequency / Hz"	"Sound Pressure Level / dB (re 20 µPa/V)  [2.83  V @ 1. m]"	"Frequency / Hz"	"Sound Pressure Level / dB (re 20 µPa/V)  [2.83  V @ 1. m]"	"Frequency / Hz"	"Sound Pressure Level / dB (re 20 µPa/V)  [2.83  V @ 1. m]"	"Frequency / Hz"	"Sound Pressure Level / dB (re 20 µPa/V)  [2.83  V @ 1. m]"	"Frequency / Hz"	"Sound Pressure Level / dB (re 20 µPa/V)  [2.83  V @ 1. m]"	"Frequency / Hz"	"Sound Pressure Level / dB (re 20 µPa/V)  [2.83  V @ 1. m]"	"Frequency / Hz"	"Sound Pressure Level / dB (re 20 µPa/V)  [2.83  V @ 1. m]"	"Frequency / Hz"	"Sound Pressure Level / dB (re 20 µPa/V)  [2.83  V @ 1. m]"	"Frequency / Hz"	"Sound Pressure Level / dB (re 20 µPa/V)  [2.83  V @ 1. m]"	"Frequency / Hz"	"Sound Pressure Level / dB (re 20 µPa/V)  [2.83  V @ 1. m]"	"Frequency / Hz"	"Sound Pressure Level / dB (re 20 µPa/V)  [2.83  V @ 1. m]"	"Frequency / Hz"	"Sound Pressure Level / dB (re 20 µPa/V)  [2.83  V @ 1. m]"	"Frequency / Hz"	"Sound Pressure Level / dB (re 20 µPa/V)  [2.83  V @ 1. m]"	"Frequency / Hz"	"Sound Pressure Level / dB (re 20 µPa/V)  [2.83  V @ 1. m]"	"Frequency / Hz"	"Sound Pressure Level / dB (re 20 µPa/V)  [2.83  V @ 1. m]"	"Frequency / Hz"	"Sound Pressure Level / dB (re 20 µPa/V)  [2.83  V @ 1. m]"	"Frequency / Hz"	"Sound Pressure Level / dB (re 20 µPa/V)  [2.83  V @ 1. m]"	"Frequency / Hz"	"Sound Pressure Level / dB (re 20 µPa/V)  [2.83  V @ 1. m]"	"Frequency / Hz"	"Sound Pressure Level / dB (re 20 µPa/V)  [2.83  V @ 1. m]"	"Frequency / Hz"	"Sound Pressure Level / dB (re 20 µPa/V)  [2.83  V @ 1. m]"	"Frequency / Hz"	"Sound Pressure Level / dB (re 20 µPa/V)  [2.83  V @ 1. m]"	"Frequency / Hz"	"Sound Pressure Level / dB (re 20 µPa/V)  [2.83  V @ 1. m]"	"Frequency / Hz"	"Sound Pressure Level / dB (re 20 µPa/V)  [2.83  V @ 1. m]"	"Frequency / Hz"	"Sound Pressure Level / dB (re 20 µPa/V)  [2.83  V @ 1. m]"	"Frequency / Hz"	"Sound Pressure Level / dB (re 20 µPa/V)  [2.83  V @ 1. m]"	"Frequency / Hz"	"Sound Pressure Level / dB (re 20 µPa/V)  [2.83  V @ 1. m]"	"Frequency / Hz"	"Sound Pressure Level / dB (re 20 µPa/V)  [2.83  V @ 1. m]"	"Frequency / Hz"	"Sound Pressure Level / dB (re 20 µPa/V)  [2.83  V @ 1. m]"	"Frequency / Hz"	"Sound Pressure Level / dB (re 20 µPa/V)  [2.83  V @ 1. m]"	"Frequency / Hz"	"Sound Pressure Level / dB (re 20 µPa/V)  [2.83  V @ 1. m]"	"Frequency / Hz"	"Sound Pressure Level / dB (re 20 µPa/V)  [2.83  V @ 1. m]"	"Frequency / Hz"	"Sound Pressure Level / dB (re 20 µPa/V)  [2.83  V @ 1. m]"	"Frequency / Hz"	"Sound Pressure Level / dB (re 20 µPa/V)  [2.83  V @ 1. m]"
20.5078	50.2431	20.5078	50.0726	20.5078	49.9672	20.5078	49.4047	20.5078	49.2202	20.5078	48.0936	20.5078	47.8774	20.5078	45.8072	20.5078	45.6164	20.5078	41.6853	20.5078	41.505	20.5078	33.9523	20.5078	30.667	20.5078	39.7408	20.5078	37.4541	20.5078	46.2773	20.5078	45.5772	20.5078	50.2623	20.5078	50.0519	20.5078	53.0704	20.5078	53.16	20.5078	55.2012	20.5078	55.5073	20.5078	56.8817	20.5078	57.3384	20.5078	58.2317	20.5078	58.7726	20.5078	59.3188	20.5078	59.8739	20.5078	60.1801	20.5078	60.6779	20.5078	60.8307	20.5078	61.2057	20.5078	61.2702	20.5078	61.4716	20.5078	61.4885
21.9727	57.5711	21.9727	57.2504	21.9727	57.644	21.9727	56.6649	21.9727	57.4627	21.9727	55.7729	21.9727	56.995	21.9727	54.5054	21.9727	56.1733	21.9727	52.7696	21.9727	54.8685	21.9727	50.5219	21.9727	52.8195	21.9727	48.2672	21.9727	49.387	21.9727	48.148	21.9727	42.0864	21.9727	50.7104	21.9727	36.1467	21.9727	53.6393	21.9727	48.5989	21.9727	56.097	21.9727	53.6925	21.9727	58.0689	21.9727	56.8792	21.9727	59.6429	21.9727	59.1035	21.9727	60.8877	21.9727	60.7032	21.9727	61.8442	21.9727	61.8357	21.9727	62.5332	21.9727	62.5857	21.9727	62.9605	21.9727	63.0037	21.9727	63.1216
23.4375	61.1098	23.4375	60.5774	23.4375	61.4098	23.4375	59.7947	23.4375	61.4756	23.4375	58.72	23.4375	61.2853	23.4375	57.2792	23.4375	60.7949	23.4375	55.3554	23.4375	59.9297	23.4375	52.8128	23.4375	58.5709	23.4375	49.9035	23.4375	56.5449	23.4375	49.1071	23.4375	53.7602	23.4375	51.9756	23.4375	51.5853	23.4375	55.2899	23.4375	53.5881	23.4375	57.9834	23.4375	57.1964	23.4375	60.1131	23.4375	60.1085	23.4375	61.8105	23.4375	62.2481	23.4375	63.1643	23.4375	63.7834	23.4375	64.2255	23.4375	64.8392	23.4375	65.0193	23.4375	65.4976	23.4375	65.5536	23.4375	65.8132	23.4375	65.8233
24.9023	65.4719	24.9023	65.0488	24.9023	65.7017	24.9023	64.4371	24.9023	65.7276	24.9023	63.6387	24.9023	65.532	24.9023	62.6617	24.9023	65.0927	24.9023	61.5466	24.9023	64.3903	24.9023	60.4288	24.9023	63.4368	24.9023	59.6351	24.9023	62.3627	24.9023	59.6332	24.9023	61.5927	24.9023	60.5839	24.9023	61.8118	24.9023	62.1196	24.9023	63.1583	24.9023	63.7989	24.9023	64.9855	24.9023	65.3855	24.9023	66.735	24.9023	66.7931	24.9023	68.1918	24.9023	67.9973	24.9023	69.3089	24.9023	68.9925	24.9023	70.0935	24.9023	69.7749	24.9023	70.5665	24.9023	70.3373	24.9023	70.7507	24.9023	70.6679
26.3672	68.9712	26.3672	68.7787	26.3672	69.069	26.3672	68.5019	26.3672	69.0653	26.3672	68.159	26.3672	68.9557	26.3672	67.7838	26.3672	68.7409	26.3672	67.4339	26.3672	68.4362	26.3672	67.1949	26.3672	68.09	26.3672	67.1681	26.3672	67.8088	26.3672	67.4311	26.3672	67.7635	26.3672	67.9925	26.3672	68.1184	26.3672	68.7848	26.3672	68.8973	26.3672	69.7029	26.3672	69.9472	26.3672	70.6478	26.3672	71.0588	26.3672	71.546	26.3672	72.0751	26.3672	72.3487	26.3672	72.9113	26.3672	73.0249	26.3672	73.5334	26.3672	73.5544	26.3672	73.9357	26.3672	73.9226	26.3672	74.1261	26.3672	74.1173
27.832	74.3189	27.832	74.1417	27.832	74.418	27.832	73.9044	27.832	74.4279	27.832	73.633	27.832	74.3453	27.832	73.3632	27.832	74.1791	27.832	73.1419	27.832	73.9585	27.832	73.0247	27.832	73.7452	27.832	73.0665	27.832	73.6412	27.832	73.3055	27.832	73.7706	27.832	73.7477	27.832	74.218	27.832	74.3629	27.832	74.9623	27.832	75.0968	27.832	75.8845	27.832	75.8881	27.832	76.8392	27.832	76.6808	27.832	77.7113	27.832	77.4286	27.832	78.4295	27.832	78.0945	27.832	78.9568	27.832	78.6484	27.832	79.2794	27.832	79.0647	27.832	79.3975	27.832	79.3208
29.2969	77.579	29.2969	77.4919	29.2969	77.6376	29.2969	77.3887	29.2969	77.6622	29.2969	77.2883	29.2969	77.6567	29.2969	77.2152	29.2969	77.6361	29.2969	77.1982	29.2969	77.6306	29.2969	77.2669	29.2969	77.6868	29.2969	77.4468	29.2969	77.8616	29.2969	77.7525	29.2969	78.205	29.2969	78.1827	29.2969	78.7338	29.2969	78.72	29.2969	79.4161	29.2969	79.3343	29.2969	80.1818	29.2969	79.9896	29.2969	80.9485	29.2969	80.6484	29.2969	81.6448	29.2969	81.2759	29.2969	82.2194	29.2969	81.8409	29.2969	82.6414	29.2969	82.316	29.2969	82.8964	29.2969	82.6775	29.2969	82.9822	29.2969	82.9051
30.7617	81.5291	30.7617	81.4356	30.7617	81.6069	30.7617	81.3353	30.7617	81.665	30.7617	81.2413	30.7617	81.7054	30.7617	81.1704	30.7617	81.7383	30.7617	81.1424	30.7617	81.784	30.7617	81.1785	30.7617	81.8734	30.7617	81.2982	30.7617	82.0436	30.7617	81.5151	30.7617	82.3274	30.7617	81.8335	30.7617	82.7381	30.7617	82.2459	30.7617	83.2595	30.7617	82.7344	30.7617	83.8481	30.7617	83.2731	30.7617	84.4466	30.7617	83.8321	30.7617	84.9981	30.7617	84.3809	30.7617	85.4564	30.7617	84.8898	30.7617	85.7893	30.7617	85.3314	30.7617	85.9788	30.7617	85.6808	30.7617	86.0196	30.7617	85.9162
32.2266	83.9662	32.2266	83.9139	32.2266	84.0145	32.2266	83.8622	32.2266	84.0591	32.2266	83.8208	32.2266	84.1064	32.2266	83.8032	32.2266	84.1689	32.2266	83.826	32.2266	84.2644	32.2266	83.9068	32.2266	84.4137	32.2266	84.0609	32.2266	84.6371	32.2266	84.2983	32.2266	84.9486	32.2266	84.6207	32.2266	85.3494	32.2266	85.0209	32.2266	85.825	32.2266	85.4831	32.2266	86.3459	32.2266	85.9851	32.2266	86.8731	32.2266	86.5005	32.2266	87.3656	32.2266	87.0011	32.2266	87.7867	32.2266	87.4584	32.2266	88.1076	32.2266	87.8459	32.2266	88.3091	32.2266	88.1403	32.2266	88.3814	32.2266	88.3231
33.6914	86.8842	33.6914	86.8073	33.6914	86.9728	33.6914	86.7478	33.6914	87.0701	33.6914	86.7133	33.6914	87.1761	33.6914	86.7125	33.6914	87.2948	33.6914	86.7545	33.6914	87.434	33.6914	86.8475	33.6914	87.6049	33.6914	86.9985	33.6914	87.8206	33.6914	87.2116	33.6914	88.0923	33.6914	87.4872	33.6914	88.4249	33.6914	87.8216	33.6914	88.8126	33.6914	88.2062	33.6914	89.2371	33.6914	88.6274	33.6914	89.6696	33.6914	89.0675	33.6914	90.0756	33.6914	89.5055	33.6914	90.4213	33.6914	89.9181	33.6914	90.6782	33.6914	90.2811	33.6914	90.8265	33.6914	90.5715	33.6914	90.8565	33.6914	90.7685
35.1562	88.988	35.1562	88.9346	35.1562	89.0577	35.1562	88.9002	35.1562	89.1433	35.1562	88.8889	35.1562	89.2466	35.1562	88.9063	35.1562	89.3718	35.1562	88.9593	35.1562	89.526	35.1562	89.0547	35.1562	89.7177	35.1562	89.199	35.1562	89.9556	35.1562	89.397	35.1562	90.2453	35.1562	89.6503	35.1562	90.5861	35.1562	89.9566	35.1562	90.9684	35.1562	90.3087	35.1562	91.3732	35.1562	90.6949	35.1562	91.7741	35.1562	91.0994	35.1562	92.141	35.1562	91.503	35.1562	92.4455	35.1562	91.8851	35.1562	92.6641	35.1562	92.2243	35.1562	92.7812	35.1562	92.4999	35.1562	92.7903	35.1562	92.6935
36.6211	91.2713	36.6211	91.2079	36.6211	91.3488	36.6211	91.1612	36.6211	91.4392	36.6211	91.1356	36.6211	91.5435	36.6211	91.1367	36.6211	91.6646	36.6211	91.1704	36.6211	91.8071	36.6211	91.2432	36.6211	91.9767	36.6211	91.3603	36.6211	92.1793	36.6211	91.5258	36.6211	92.4188	36.6211	91.7406	36.6211	92.6954	36.6211	92.0028	36.6211	93.0031	36.6211	92.3064	36.6211	93.3291	36.6211	92.6414	36.6211	93.654	36.6211	92.9943	36.6211	93.9544	36.6211	93.3485	36.6211	94.2062	36.6211	93.6855	36.6211	94.3884	36.6211	93.9858	36.6211	94.4858	36.6211	94.2306	36.6211	94.4906	36.6211	94.4032
38.0859	92.7218	38.0859	92.6592	38.0859	92.8039	38.0859	92.6182	38.0859	92.9042	38.0859	92.6017	38.0859	93.0225	38.0859	92.6129	38.0859	93.1596	38.0859	92.6554	38.0859	93.3172	38.0859	92.7327	38.0859	93.4978	38.0859	92.8477	38.0859	93.7038	38.0859	93.0027	38.0859	93.9363	38.0859	93.1982	38.0859	94.1941	38.0859	93.4327	38.0859	94.4716	38.0859	93.702	38.0859	94.7584	38.0859	93.9991	38.0859	95.0389	38.0859	94.3134	38.0859	95.2942	38.0859	94.6316	38.0859	95.504	38.0859	94.938	38.0859	95.6507	38.0859	95.2153	38.0859	95.7212	38.0859	95.4462	38.0859	95.709	38.0859	95.6149
39.5508	93.9313	39.5508	93.8718	39.5508	94.0106	39.5508	93.8334	39.5508	94.1088	39.5508	93.8181	39.5508	94.2254	39.5508	93.8278	39.5508	94.3607	39.5508	93.865	39.5508	94.5152	39.5508	93.9321	39.5508	94.6897	39.5508	94.0315	39.5508	94.8849	39.5508	94.1651	39.5508	95.1003	39.5508	94.3336	39.5508	95.334	39.5508	94.5364	39.5508	95.5807	39.5508	94.7709	39.5508	95.8315	39.5508	95.0314	39.5508	96.0735	39.5508	95.3099	39.5508	96.2907	39.5508	95.5952	39.5508	96.466	39.5508	95.8734	39.5508	96.5838	39.5508	96.1291	39.5508	96.6329	39.5508	96.3463	39.5508	96.6079	39.5508	96.5099
41.0156	94.7743	41.0156	94.7126	41.0156	94.8556	41.0156	94.6715	41.0156	94.9555	41.0156	94.6522	41.0156	95.0729	41.0156	94.6561	41.0156	95.207	41.0156	94.6848	41.0156	95.3572	41.0156	94.7399	41.0156	95.5226	41.0156	94.8232	41.0156	95.7023	41.0156	94.9361	41.0156	95.8952	41.0156	95.0796	41.0156	96.0985	41.0156	95.2532	41.0156	96.308	41.0156	95.455	41.0156	96.5166	41.0156	95.6806	41.0156	96.7142	41.0156	95.9233	41.0156	96.8881	41.0156	96.1738	41.0156	97.0245	41.0156	96.4203	41.0156	97.1107	41.0156	96.6497	41.0156	97.1375	41.0156	96.848	41.0156	97.1007	41.0156	97.0019
42.4805	95.1323	42.4805	95.0612	42.4805	95.2224	42.4805	95.0105	42.4805	95.3298	42.4805	94.9816	42.4805	95.4528	42.4805	94.9756	42.4805	95.5896	42.4805	94.9938	42.4805	95.7384	42.4805	95.0375	42.4805	95.8974	42.4805	95.1079	42.4805	96.0648	42.4805	95.2057	42.4805	96.2384	42.4805	95.3313	42.4805	96.4157	42.4805	95.484	42.4805	96.5926	42.4805	95.6616	42.4805	96.7634	42.4805	95.8605	42.4805	96.9202	42.4805	96.075	42.4805	97.0531	42.4805	96.2974	42.4805	97.1515	42.4805	96.5179	42.4805	97.2057	42.4805	96.7256	42.4805	97.2089	42.4805	96.9088	42.4805	97.1584	42.4805	97.0562
43.9453	95.6331	43.9453	95.5562	43.9453	95.7275	43.9453	95.4989	43.9453	95.8372	43.9453	95.4627	43.9453	95.9601	43.9453	95.4494	43.9453	96.0937	43.9453	95.4601	43.9453	96.2355	43.9453	95.4957	43.9453	96.3833	43.9453	95.5566	43.9453	96.5347	43.9453	95.6428	43.9453	96.6873	43.9453	95.7539	43.9453	96.8385	43.9453	95.8886	43.9453	96.9851	43.9453	96.045	43.9453	97.1227	43.9453	96.2201	43.9453	97.2456	43.9453	96.4092	43.9453	97.3465	43.9453	96.6059	43.9453	97.4174	43.9453	96.8021	43.9453	97.451	43.9453	96.9882	43.9453	97.4417	43.9453	97.154	43.9453	97.3874	43.9453	97.2898
45.4102	95.8136	45.4102	95.7373	45.4102	95.907	45.4102	95.6796	45.4102	96.0154	45.4102	95.6421	45.4102	96.1367	45.4102	95.6257	45.4102	96.2684	45.4102	95.6312	45.4102	96.4077	45.4102	95.6589	45.4102	96.5518	45.4102	95.709	45.4102	96.6979	45.4102	95.7815	45.4102	96.8429	45.4102	95.8758	45.4102	96.984	45.4102	95.9916	45.4102	97.1179	45.4102	96.1277	45.4102	97.2406	45.4102	96.2825	45.4102	97.347	45.4102	96.4528	45.4102	97.431	45.4102	96.634	45.4102	97.4853	45.4102	96.8193	45.4102	97.5033	45.4102	97.0001	45.4102	97.4799	45.4102	97.1661	45.4102	97.4137	45.4102	97.307
46.875	95.8746	46.875	95.8045	46.875	95.9609	46.875	95.7514	46.875	96.0621	46.875	95.7155	46.875	96.1759	46.875	95.697	46.875	96.2999	46.875	95.6957	46.875	96.4307	46.875	95.7114	46.875	96.5649	46.875	95.7443	46.875	96.6987	46.875	95.7945	46.875	96.8287	46.875	95.8623	46.875	96.9514	46.875	95.9483	46.875	97.0635	46.875	96.0526	46.875	97.1616	46.875	96.1752	46.875	97.2415	46.875	96.3147	46.875	97.2982	46.875	96.4681	46.875	97.3265	46.875	96.6303	46.875	97.3213	46.875	96.794	46.875	97.2795	46.875	96.9502	46.875	97.2009	46.875	97.0888
48.3398	95.9435	48.3398	95.8713	48.3398	96.0302	48.3398	95.8143	48.3398	96.1298	48.3398	95.7731	48.3398	96.2401	48.3398	95.7476	48.3398	96.3581	48.3398	95.7375	48.3398	96.4805	48.3398	95.7427	48.3398	96.6036	48.3398	95.7631	48.3398	96.7234	48.3398	95.7988	48.3398	96.8364	48.3398	95.8502	48.3398	96.939	48.3398	95.9179	48.3398	97.0281	48.3398	96.0023	48.3398	97.1008	48.3398	96.1037	48.3398	97.1541	48.3398	96.2213	48.3398	97.1847	48.3398	96.353	48.3398	97.1891	48.3398	96.4947	48.3398	97.1645	48.3398	96.6406	48.3398	97.1094	48.3398	96.7831	48.3398	97.0246	48.3398	96.9137
51.2695	95.8034	51.2695	95.7209	51.2695	95.899	51.2695	95.6531	51.2695	96.0058	51.2695	95.6005	51.2695	96.1209	51.2695	95.5635	51.2695	96.2407	51.2695	95.5417	51.2695	96.3611	51.2695	95.535	51.2695	96.4778	51.2695	95.5428	51.2695	96.5863	51.2695	95.5652	51.2695	96.6826	51.2695	95.602	51.2695	96.763	51.2695	95.6535	51.2695	96.825	51.2695	95.7202	51.2695	96.8664	51.2695	95.8022	51.2695	96.8859	51.2695	95.8994	51.2695	96.8825	51.2695	96.0106	51.2695	96.8553	51.2695	96.1331	51.2695	96.8041	51.2695	96.2627	51.2695	96.7293	51.2695	96.3936	51.2695	96.633	51.2695	96.5193
52.7344	95.8135	52.7344	95.7266	52.7344	95.9124	52.7344	95.6535	52.7344	96.0211	52.7344	95.5949	52.7344	96.1364	52.7344	95.5511	52.7344	96.2546	52.7344	95.5221	52.7344	96.3714	52.7344	95.5073	52.7344	96.4821	52.7344	95.5064	52.7344	96.5825	52.7344	95.519	52.7344	96.6682	52.7344	95.5449	52.7344	96.7359	52.7344	95.5845	52.7344	96.783	52.7344	95.6383	52.7344	96.8078	52.7344	95.7066	52.7344	96.8095	52.7344	95.7899	52.7344	96.7881	52.7344	95.8878	52.7344	96.7437	52.7344	95.9985	52.7344	96.6772	52.7344	96.119	52.7344	96.5904	52.7344	96.2444	52.7344	96.4861	52.7344	96.3688
54.1992	95.7912	54.1992	95.7046	54.1992	95.8892	54.1992	95.631	54.1992	95.996	54.1992	95.5716	54.1992	96.1084	54.1992	95.5267	54.1992	96.2226	54.1992	95.4962	54.1992	96.3344	54.1992	95.4797	54.1992	96.4391	54.1992	95.4765	54.1992	96.5323	54.1992	95.486	54.1992	96.6098	54.1992	95.5079	54.1992	96.6681	54.1992	95.5421	54.1992	96.7049	54.1992	95.5887	54.1992	96.7187	54.1992	95.6482	54.1992	96.7093	54.1992	95.7209	54.1992	96.6772	54.1992	95.8069	54.1992	96.6236	54.1992	95.9051	54.1992	96.5505	54.1992	96.0134	54.1992	96.4603	54.1992	96.128	54.1992	96.3567	54.1992	96.2442
55.6641	95.8354	55.6641	95.7467	55.6641	95.9339	55.6641	95.6696	55.6641	96.0396	55.6641	95.6051	55.6641	96.1492	55.6641	95.5539	55.6641	96.2588	55.6641	95.5157	55.6641	96.3641	55.6641	95.4901	55.6641	96.4604	55.6641	95.4767	55.6641	96.5432	55.6641	95.4746	55.6641	96.6084	55.6641	95.4837	55.6641	96.6526	55.6641	95.5038	55.6641	96.6735	55.6641	95.5353	55.6641	96.67	55.6641	95.5789	55.6641	96.6424	55.6641	95.6357	55.6641	96.5921	55.6641	95.7062	55.6641	96.5213	55.6641	95.7904	55.6641	96.4333	55.6641	95.8872	55.6641	96.3319	55.6641	95.9941	55.6641	96.2215	55.6641	96.1071
58.5938	95.792	58.5938	95.701	58.5938	95.8924	58.5938	95.6216	58.5938	95.9995	58.5938	95.5549	58.5938	96.1098	58.5938	95.5017	58.5938	96.2194	58.5938	95.462	58.5938	96.3237	58.5938	95.4354	58.5938	96.4182	58.5938	95.4212	58.5938	96.4981	58.5938	95.4185	58.5938	96.5591	58.5938	95.4266	58.5938	96.5976	58.5938	95.4451	58.5938	96.6113	58.5938	95.4739	58.5938	96.599	58.5938	95.5135	58.5938	96.5614	58.5938	95.5645	58.5938	96.5007	58.5938	95.6278	58.5938	96.4204	58.5938	95.7038	58.5938	96.325	58.5938	95.7919	58.5938	96.2193	58.5938	95.8906	58.5938	96.1085	58.5938	95.9974
60.0586	95.7851	60.0586	95.6909	60.0586	95.8887	60.0586	95.6083	60.0586	95.9987	60.0586	95.5388	60.0586	96.1115	60.0586	95.4831	60.0586	96.2228	60.0586	95.4413	60.0586	96.3278	60.0586	95.4129	60.0586	96.4218	60.0586	95.397	60.0586	96.4997	60.0586	95.3927	60.0586	96.5572	60.0586	95.3989	60.0586	96.5906	60.0586	95.4151	60.0586	96.5976	60.0586	95.4409	60.0586	96.5772	60.0586	95.4767	60.0586	96.5307	60.0586	95.5231	60.0586	96.4607	60.0586	95.5811	60.0586	96.3716	60.0586	95.6514	60.0586	96.2687	60.0586	95.7342	60.0586	96.1577	60.0586	95.8287	60.0586	96.0441	60.0586	95.933
62.9883	95.8519	62.9883	95.7556	62.9883	95.9565	62.9883	95.6702	62.9883	96.0661	62.9883	95.5974	62.9883	96.177	62.9883	95.538	62.9883	96.285	62.9883	95.4923	62.9883	96.3852	62.9883	95.4597	62.9883	96.4731	62.9883	95.4394	62.9883	96.5438	62.9883	95.4299	62.9883	96.593	62.9883	95.4302	62.9883	96.6173	62.9883	95.4394	62.9883	96.6143	62.9883	95.4571	62.9883	96.5832	62.9883	95.4835	62.9883	96.5253	62.9883	95.5196	62.9883	96.444	62.9883	95.5667	62.9883	96.3443	62.9883	95.6263	62.9883	96.2323	62.9883	95.6996	62.9883	96.1147	62.9883	95.787	62.9883	95.9979	62.9883	95.8873
64.4531	95.833	64.4531	95.7379	64.4531	95.936	64.4531	95.6529	64.4531	96.0436	64.4531	95.5796	64.4531	96.1523	64.4531	95.5189	64.4531	96.258	64.4531	95.4708	64.4531	96.356	64.4531	95.435	64.4531	96.4418	64.4531	95.4105	64.4531	96.5105	64.4531	95.3962	64.4531	96.558	64.4531	95.3911	64.4531	96.5804	64.4531	95.3945	64.4531	96.5752	64.4531	95.4062	64.4531	96.5416	64.4531	95.4268	64.4531	96.4806	64.4531	95.4574	64.4531	96.3954	64.4531	95.4998	64.4531	96.2911	64.4531	95.556	64.4531	96.1742	64.4531	95.6275	64.4531	96.0518	64.4531	95.7148	64.4531	95.9307	64.4531	95.8168
67.3828	95.8242	67.3828	95.7218	67.3828	95.9321	67.3828	95.6279	67.3828	96.0423	67.3828	95.5446	67.3828	96.1508	67.3828	95.4731	67.3828	96.2536	67.3828	95.414	67.3828	96.3461	67.3828	95.3672	67.3828	96.424	67.3828	95.3321	67.3828	96.4828	67.3828	95.3077	67.3828	96.5186	67.3828	95.2931	67.3828	96.5282	67.3828	95.2874	67.3828	96.5094	67.3828	95.2906	67.3828	96.4617	67.3828	95.3032	67.3828	96.3867	67.3828	95.3266	67.3828	96.2882	67.3828	95.3628	67.3828	96.1719	67.3828	95.4141	67.3828	96.0449	67.3828	95.4823	67.3828	95.9146	67.3828	95.5683	67.3828	95.788	67.3828	95.671
68.8477	95.8466	68.8477	95.7395	68.8477	95.9583	68.8477	95.64	68.8477	96.0712	68.8477	95.5506	68.8477	96.1811	68.8477	95.4727	68.8477	96.2838	68.8477	95.4072	68.8477	96.375	68.8477	95.354	68.8477	96.4502	68.8477	95.3127	68.8477	96.5052	68.8477	95.2823	68.8477	96.536	68.8477	95.2618	68.8477	96.5394	68.8477	95.2506	68.8477	96.5134	68.8477	95.2485	68.8477	96.4574	68.8477	95.256	68.8477	96.3732	68.8477	95.2747	68.8477	96.265	68.8477	95.3067	68.8477	96.1389	68.8477	95.3547	68.8477	96.0026	68.8477	95.4209	68.8477	95.8643	68.8477	95.5064	68.8477	95.7316	68.8477	95.6108
71.7773	96.0124	71.7773	95.9035	71.7773	96.1246	71.7773	95.801	71.7773	96.2367	71.7773	95.7075	71.7773	96.3448	71.7773	95.6248	71.7773	96.4449	71.7773	95.554	71.7773	96.5328	71.7773	95.4957	71.7773	96.6044	71.7773	95.4493	71.7773	96.6555	71.7773	95.4143	71.7773	96.6821	71.7773	95.3894	71.7773	96.6808	71.7773	95.3738	71.7773	96.649	71.7773	95.3671	71.7773	96.586	71.7773	95.3694	71.7773	96.4932	71.7773	95.382	71.7773	96.375	71.7773	95.407	71.7773	96.2382	71.7773	95.4474	71.7773	96.0918	71.7773	95.506	71.7773	95.9453	71.7773	95.5854	71.7773	95.8079	71.7773	95.6865
74.707	96.0923	74.707	95.9879	74.707	96.1986	74.707	95.8885	74.707	96.3033	74.707	95.7967	74.707	96.4027	74.707	95.7143	74.707	96.493	74.707	95.6428	74.707	96.5705	74.707	95.5823	74.707	96.6315	74.707	95.5328	74.707	96.6723	74.707	95.4935	74.707	96.6894	74.707	95.4632	74.707	96.6799	74.707	95.4411	74.707	96.6415	74.707	95.4269	74.707	96.5737	74.707	95.4209	74.707	96.4782	74.707	95.4246	74.707	96.3592	74.707	95.4406	74.707	96.2236	74.707	95.4721	74.707	96.0799	74.707	95.5227	74.707	95.9376	74.707	95.5948	74.707	95.8052	74.707	95.6895
77.6367	96.1495	77.6367	96.0417	77.6367	96.2582	77.6367	95.9384	77.6367	96.364	77.6367	95.8425	77.6367	96.4631	77.6367	95.7563	77.6367	96.5517	77.6367	95.6812	77.6367	96.6261	77.6367	95.6176	77.6367	96.6828	77.6367	95.5651	77.6367	96.7184	77.6367	95.523	77.6367	96.7295	77.6367	95.4899	77.6367	96.7133	77.6367	95.465	77.6367	96.6678	77.6367	95.4478	77.6367	96.5927	77.6367	95.4387	77.6367	96.4899	77.6367	95.4392	77.6367	96.3642	77.6367	95.4518	77.6367	96.223	77.6367	95.4798	77.6367	96.0757	77.6367	95.5267	77.6367	95.9317	77.6367	95.5951	77.6367	95.7999	77.6367	95.6865
79.1016	96.186	79.1016	96.0762	79.1016	96.2955	79.1016	95.9697	79.1016	96.4008	79.1016	95.8697	79.1016	96.4983	79.1016	95.7784	79.1016	96.584	79.1016	95.6975	79.1016	96.6544	79.1016	95.6276	79.1016	96.7059	79.1016	95.5684	79.1016	96.7352	79.1016	95.5194	79.1016	96.739	79.1016	95.4793	79.1016	96.7145	79.1016	95.4475	79.1016	96.6596	79.1016	95.4234	79.1016	96.5742	79.1016	95.4075	79.1016	96.4606	79.1016	95.4013	79.1016	96.3242	79.1016	95.4073	79.1016	96.1731	79.1016	95.4288	79.1016	96.0176	79.1016	95.4695	79.1016	95.8681	79.1016	95.5329	79.1016	95.7338	79.1016	95.621
82.0312	96.1732	82.0312	96.0631	82.0312	96.2822	82.0312	95.9553	82.0312	96.3863	82.0312	95.8531	82.0312	96.482	82.0312	95.7588	82.0312	96.5656	82.0312	95.6745	82.0312	96.6336	82.0312	95.601	82.0312	96.6827	82.0312	95.5385	82.0312	96.7094	82.0312	95.4863	82.0312	96.7104	82.0312	95.4435	82.0312	96.6828	82.0312	95.4091	82.0312	96.6243	82.0312	95.3825	82.0312	96.5344	82.0312	95.3636	82.0312	96.4155	82.0312	95.3538	82.0312	96.273	82.0312	95.3555	82.0312	96.1156	82.0312	95.3721	82.0312	95.9544	82.0312	95.4078	82.0312	95.8007	82.0312	95.4668	82.0312	95.6644	82.0312	95.5522
84.9609	96.2342	84.9609	96.127	84.9609	96.3381	84.9609	96.0197	84.9609	96.4356	84.9609	95.9154	84.9609	96.5238	84.9609	95.8167	84.9609	96.5999	84.9609	95.7255	84.9609	96.6617	84.9609	95.6432	84.9609	96.7068	84.9609	95.5701	84.9609	96.7325	84.9609	95.5061	84.9609	96.7358	84.9609	95.4509	84.9609	96.7133	84.9609	95.404	84.9609	96.6619	84.9609	95.3657	84.9609	96.5798	84.9609	95.3372	84.9609	96.4671	84.9609	95.3206	84.9609	96.3278	84.9609	95.3195	84.9609	96.1688	84.9609	95.3381	84.9609	96.0005	84.9609	95.3811	84.9609	95.8347	84.9609	95.4522	84.9609	95.6825	84.9609	95.5532
87.8906	96.2247	87.8906	96.1209	87.8906	96.3254	87.8906	96.0171	87.8906	96.4198	87.8906	95.9162	87.8906	96.5051	87.8906	95.8209	87.8906	96.5788	87.8906	95.7331	87.8906	96.6389	87.8906	95.6537	87.8906	96.6831	87.8906	95.583	87.8906	96.7092	87.8906	95.5207	87.8906	96.7142	87.8906	95.466	87.8906	96.6948	87.8906	95.4184	87.8906	96.6478	87.8906	95.3782	87.8906	96.5711	87.8906	95.3467	87.8906	96.4644	87.8906	95.3267	87.8906	96.3307	87.8906	95.3223	87.8906	96.1762	87.8906	95.3389	87.8906	96.0105	87.8906	95.3816	87.8906	95.8448	87.8906	95.4544	87.8906	95.6907	87.8906	95.5584
90.8203	96.4686	90.8203	96.3617	90.8203	96.5672	90.8203	96.2498	90.8203	96.6543	90.8203	96.136	90.8203	96.7271	90.8203	96.0231	90.8203	96.7829	90.8203	95.9135	90.8203	96.8199	90.8203	95.8088	90.8203	96.8361	90.8203	95.7103	90.8203	96.8299	90.8203	95.6185	90.8203	96.8	90.8203	95.5342	90.8203	96.7448	90.8203	95.4583	90.8203	96.6634	90.8203	95.3922	90.8203	96.556	90.8203	95.3387	90.8203	96.4243	90.8203	95.3011	90.8203	96.2726	90.8203	95.2839	90.8203	96.1078	90.8203	95.2918	90.8203	95.9385	90.8203	95.3287	90.8203	95.7742	90.8203	95.397	90.8203	95.6242	90.8203	95.4965
95.2148	96.2678	95.2148	96.1423	95.2148	96.3856	95.2148	96.0144	95.2148	96.4909	95.2148	95.8892	95.2148	96.5799	95.2148	95.7714	95.2148	96.6497	95.2148	95.6647	95.2148	96.6985	95.2148	95.5713	95.2148	96.7248	95.2148	95.4921	95.2148	96.7274	95.2148	95.4269	95.2148	96.7049	95.2148	95.374	95.2148	96.6551	95.2148	95.3315	95.2148	96.5761	95.2148	95.2973	95.2148	96.4667	95.2148	95.2702	95.2148	96.3284	95.2148	95.2502	95.2148	96.1664	95.2148	95.2393	95.2148	95.9898	95.2148	95.2416	95.2148	95.8113	95.2148	95.2631	95.2148	95.6443	95.2148	95.3103	95.2148	95.5009	95.2148	95.3887
98.1445	96.3728	98.1445	96.2651	98.1445	96.4714	98.1445	96.151	98.1445	96.5583	98.1445	96.0336	98.1445	96.6313	98.1445	95.9158	98.1445	96.6888	98.1445	95.8007	98.1445	96.729	98.1445	95.6909	98.1445	96.7503	98.1445	95.5883	98.1445	96.7509	98.1445	95.4948	98.1445	96.7285	98.1445	95.4115	98.1445	96.6806	98.1445	95.3396	98.1445	96.605	98.1445	95.2802	98.1445	96.5007	98.1445	95.2349	98.1445	96.3691	98.1445	95.206	98.1445	96.2145	98.1445	95.1964	98.1445	96.0446	98.1445	95.2097	98.1445	95.8695	98.1445	95.2495	98.1445	95.7004	98.1445	95.3187	98.1445	95.5474	98.1445	95.4186
101.074	96.0475	101.074	95.9196	101.074	96.1749	101.074	95.7965	101.074	96.2967	101.074	95.6828	101.074	96.4079	101.074	95.5825	101.074	96.5045	101.074	95.4983	101.074	96.5834	101.074	95.4319	101.074	96.6423	101.074	95.3835	101.074	96.6796	101.074	95.3525	101.074	96.6935	101.074	95.3369	101.074	96.6824	101.074	95.3347	101.074	96.6444	101.074	95.3437	101.074	96.5788	101.074	95.3625	101.074	96.4865	101.074	95.3907	101.074	96.3715	101.074	95.4289	101.074	96.2404	101.074	95.479	101.074	96.1016	101.074	95.5431	101.074	95.9641	101.074	95.6233	101.074	95.8354	101.074	95.7209
105.469	96.5751	105.469	96.443	105.469	96.6878	105.469	96.2978	105.469	96.776	105.469	96.1466	105.469	96.8364	105.469	95.9964	105.469	96.8673	105.469	95.8534	105.469	96.869	105.469	95.7228	105.469	96.8433	105.469	95.608	105.469	96.7928	105.469	95.5106	105.469	96.7203	105.469	95.4307	105.469	96.6279	105.469	95.3674	105.469	96.5173	105.469	95.3192	105.469	96.3897	105.469	95.2849	105.469	96.2474	105.469	95.2638	105.469	96.0943	105.469	95.2567	105.469	95.9365	105.469	95.2653	105.469	95.7819	105.469	95.2925	105.469	95.6391	105.469	95.3417	105.469	95.5154	105.469	95.4157
108.398	96.8122	108.398	96.6871	108.398	96.9149	108.398	96.5454	108.398	96.9905	108.398	96.3939	108.398	97.0359	108.398	96.2395	108.398	97.0499	108.398	96.0886	108.398	97.0331	108.398	95.9464	108.398	96.9876	108.398	95.8168	108.398	96.9163	108.398	95.7022	108.398	96.8227	108.398	95.6033	108.398	96.7095	108.398	95.5201	108.398	96.5795	108.398	95.4518	108.398	96.4349	108.398	95.3977	108.398	96.2791	108.398	95.3579	108.398	96.1165	108.398	95.3334	108.398	95.9534	108.398	95.3265	108.398	95.7975	108.398	95.3405	108.398	95.6566	108.398	95.3787	108.398	95.5372	108.398	95.444
112.793	96.8865	112.793	96.7612	112.793	96.9838	112.793	96.6125	112.793	97.0499	112.793	96.4461	112.793	97.0831	112.793	96.2689	112.793	97.0836	112.793	96.0878	112.793	97.0532	112.793	95.9101	112.793	96.9947	112.793	95.7424	112.793	96.9119	112.793	95.5905	112.793	96.8085	112.793	95.4594	112.793	96.6879	112.793	95.3523	112.793	96.5523	112.793	95.2711	112.793	96.404	112.793	95.2164	112.793	96.2456	112.793	95.1873	112.793	96.0814	112.793	95.1824	112.793	95.9171	112.793	95.2002	112.793	95.7593	112.793	95.2396	112.793	95.6148	112.793	95.3006	112.793	95.4885	112.793	95.3835
117.188	96.9851	117.188	96.8584	117.188	97.0852	117.188	96.71	117.188	97.1543	117.188	96.5452	117.188	97.1893	117.188	96.3693	117.188	97.1883	117.188	96.1873	117.188	97.1511	117.188	96.0036	117.188	97.0789	117.188	95.8223	117.188	96.9744	117.188	95.6471	117.188	96.8413	117.188	95.4819	117.188	96.6842	117.188	95.3309	117.188	96.5079	117.188	95.1987	117.188	96.3179	117.188	95.09	117.188	96.12	117.188	95.0096	117.188	95.9206	117.188	94.9611	117.188	95.7262	117.188	94.9471	117.188	95.543	117.188	94.9685	117.188	95.3767	117.188	95.0247	117.188	95.232	117.188	95.1135
120.117	97.0176	120.117	96.8844	120.117	97.1237	120.117	96.7297	120.117	97.198	120.117	96.5594	120.117	97.2366	120.117	96.3792	120.117	97.2371	120.117	96.1945	120.117	97.1985	120.117	96.0102	120.117	97.1214	120.117	95.8301	120.117	97.0079	120.117	95.6575	120.117	96.8611	120.117	95.4955	120.117	96.6858	120.117	95.3473	120.117	96.4877	120.117	95.2162	120.117	96.2743	120.117	95.1064	120.117	96.0545	120.117	95.0219	120.117	95.8382	120.117	94.9664	120.117	95.6348	120.117	94.9423	120.117	95.4519	120.117	94.9507	120.117	95.2943	120.117	94.9913	120.117	95.1642	120.117	95.0629
124.512	96.8504	124.512	96.7194	124.512	96.9563	124.512	96.5694	124.512	97.0324	124.512	96.407	124.512	97.0755	124.512	96.2388	124.512	97.0845	124.512	96.0703	124.512	97.0594	124.512	95.9055	124.512	97.0009	124.512	95.7465	124.512	96.9103	124.512	95.5938	124.512	96.7879	124.512	95.4474	124.512	96.634	124.512	95.3073	124.512	96.4493	124.512	95.1745	124.512	96.2363	124.512	95.052	124.512	96.0014	124.512	94.9448	124.512	95.7557	124.512	94.8591	124.512	95.514	124.512	94.8015	124.512	95.2919	124.512	94.7782	124.512	95.1028	124.512	94.7939	124.512	94.9551	124.512	94.8521
128.906	96.5573	128.906	96.4226	128.906	96.6695	128.906	96.2718	128.906	96.7546	128.906	96.1131	128.906	96.81	128.906	95.9554	128.906	96.8355	128.906	95.8074	128.906	96.8327	128.906	95.6762	128.906	96.8047	128.906	95.5664	128.906	96.7556	128.906	95.4792	128.906	96.6886	128.906	95.4124	128.906	96.6054	128.906	95.362	128.906	96.5058	128.906	95.3227	128.906	96.3878	128.906	95.2905	128.906	96.2503	128.906	95.2635	128.906	96.0945	128.906	95.2429	128.906	95.9259	128.906	95.2336	128.906	95.7546	128.906	95.2431	128.906	95.5936	128.906	95.2795	128.906	95.4554	128.906	95.3495
133.301	96.8073	133.301	96.6601	133.301	96.9268	133.301	96.4925	133.301	97.0127	133.301	96.3124	133.301	97.0605	133.301	96.1278	133.301	97.0682	133.301	95.9463	133.301	97.0363	133.301	95.7748	133.301	96.9677	133.301	95.6189	133.301	96.8675	133.301	95.4826	133.301	96.7422	133.301	95.3685	133.301	96.5989	133.301	95.2779	133.301	96.4448	133.301	95.2108	133.301	96.2858	133.301	95.1665	133.301	96.1273	133.301	95.1441	133.301	95.973	133.301	95.1427	133.301	95.8255	133.301	95.162	133.301	95.6866	133.301	95.202	133.301	95.5584	133.301	95.2627	133.301	95.4431	133.301	95.3436
139.16	96.7864	139.16	96.6368	139.16	96.9028	139.16	96.4624	139.16	96.9802	139.16	96.2727	139.16	97.0155	139.16	96.0777	139.16	97.0087	139.16	95.8867	139.16	96.9624	139.16	95.7072	139.16	96.8815	139.16	95.5443	139.16	96.772	139.16	95.4007	139.16	96.64	139.16	95.2772	139.16	96.491	139.16	95.1736	139.16	96.3293	139.16	95.09	139.16	96.1594	139.16	95.0271	139.16	95.9861	139.16	94.9865	139.16	95.8152	139.16	94.9702	139.16	95.6526	139.16	94.9793	139.16	95.5029	139.16	95.0139	139.16	95.3688	139.16	95.0723	139.16	95.2517	139.16	95.1524
143.555	96.7596	143.555	96.6002	143.555	96.8787	143.555	96.4092	143.555	96.9521	143.555	96.1976	143.555	96.9777	143.555	95.9781	143.555	96.9568	143.555	95.7635	143.555	96.894	143.555	95.565	143.555	96.7959	143.555	95.3912	143.555	96.6707	143.555	95.2473	143.555	96.5268	143.555	95.1347	143.555	96.3715	143.555	95.0521	143.555	96.2109	143.555	94.9967	143.555	96.0498	143.555	94.9651	143.555	95.8923	143.555	94.9548	143.555	95.7419	143.555	94.9636	143.555	95.6018	143.555	94.9905	143.555	95.4738	143.555	95.0344	143.555	95.3589	143.555	95.0942	143.555	95.2572	143.555	95.1688
147.949	96.7831	147.949	96.6255	147.949	96.8975	147.949	96.4318	147.949	96.9645	147.949	96.2115	147.949	96.9827	147.949	95.9759	147.949	96.9541	147.949	95.7374	147.949	96.883	147.949	95.5079	147.949	96.7764	147.949	95.2983	147.949	96.6425	147.949	95.117	147.949	96.4902	147.949	94.9699	147.949	96.3275	147.949	94.8601	147.949	96.1611	147.949	94.7884	147.949	95.9963	147.949	94.7533	147.949	95.8372	147.949	94.7521	147.949	95.6869	147.949	94.7806	147.949	95.5474	147.949	94.8336	147.949	95.4188	147.949	94.9055	147.949	95.3002	147.949	94.9913	147.949	95.19	147.949	95.0869
153.809	96.8971	153.809	96.7257	153.809	97.0182	153.809	96.5119	153.809	97.084	153.809	96.2666	153.809	97.0928	153.809	96.0023	153.809	97.0464	153.809	95.7331	153.809	96.9503	153.809	95.473	153.809	96.8123	153.809	95.2356	153.809	96.6426	153.809	95.0319	153.809	96.4518	153.809	94.8699	153.809	96.2503	153.809	94.7536	153.809	96.0474	153.809	94.6834	153.809	95.8518	153.809	94.6559	153.809	95.6713	153.809	94.6656	153.809	95.5121	153.809	94.7049	153.809	95.3773	153.809	94.7659	153.809	95.2653	153.809	94.8403	153.809	95.1706	153.809	94.921	153.809	95.0853	153.809	95.0031
159.668	96.9252	159.668	96.7743	159.668	97.0261	159.668	96.5809	159.668	97.0722	159.668	96.3552	159.668	97.0625	159.668	96.1089	159.668	96.9993	159.668	95.8544	159.668	96.8885	159.668	95.6032	159.668	96.7389	159.668	95.3657	159.668	96.562	159.668	95.1507	159.668	96.3706	159.668	94.9658	159.668	96.1777	159.668	94.8179	159.668	95.9946	159.668	94.7127	159.668	95.8293	159.668	94.6541	159.668	95.6856	159.668	94.6431	159.668	95.5628	159.668	94.676	159.668	95.4559	159.668	94.7449	159.668	95.3579	159.668	94.8387	159.668	95.2615	159.668	94.9455	159.668	95.1613	159.668	95.0552
165.527	97.0352	165.527	96.8768	165.527	97.1391	165.527	96.6726	165.527	97.1834	165.527	96.4338	165.527	97.166	165.527	96.1738	165.527	97.0884	165.527	95.9074	165.527	96.956	165.527	95.649	165.527	96.7778	165.527	95.4114	165.527	96.5663	165.527	95.2051	165.527	96.3371	165.527	95.0378	165.527	96.1073	165.527	94.9146	165.527	95.8943	165.527	94.8384	165.527	95.713	165.527	94.8095	165.527	95.5725	165.527	94.8247	165.527	95.474	165.527	94.8769	165.527	95.4096	165.527	94.955	165.527	95.3654	165.527	95.0458	165.527	95.3258	165.527	95.1359	165.527	95.2782	165.527	95.2152
171.387	97.2973	171.387	97.1347	171.387	97.3965	171.387	96.9158	171.387	97.4275	171.387	96.6508	171.387	97.3886	171.387	96.3517	171.387	97.2814	171.387	96.0329	171.387	97.1107	171.387	95.7101	171.387	96.8844	171.387	95.3999	171.387	96.6142	171.387	95.119	171.387	96.3151	171.387	94.8827	171.387	96.0061	171.387	94.7033	171.387	95.7099	171.387	94.5885	171.387	95.4506	171.387	94.5395	171.387	95.2488	171.387	94.5501	171.387	95.1142	171.387	94.6072	171.387	95.0413	171.387	94.6926	171.387	95.0108	171.387	94.787	171.387	94.9975	171.387	94.873	171.387	94.9782	171.387	94.9383
177.246	97.225	177.246	97.0656	177.246	97.3237	177.246	96.8512	177.246	97.358	177.246	96.5895	177.246	97.3261	177.246	96.2893	177.246	97.2279	177.246	95.9606	177.246	97.0652	177.246	95.6138	177.246	96.8414	177.246	95.2602	177.246	96.5625	177.246	94.9125	177.246	96.2381	177.246	94.5862	177.246	95.8836	177.246	94.2996	177.246	95.5221	177.246	94.0727	177.246	95.1838	177.246	93.9227	177.246	94.8997	177.246	93.8583	177.246	94.6912	177.246	93.8749	177.246	94.5592	177.246	93.9539	177.246	94.4831	177.246	94.0681	177.246	94.4314	177.246	94.1892	177.246	94.3747	177.246	94.295
183.105	97.0724	183.105	96.8985	183.105	97.1866	183.105	96.6724	183.105	97.2364	183.105	96.4039	183.105	97.2196	183.105	96.1044	183.105	97.1369	183.105	95.7868	183.105	96.992	183.105	95.4637	183.105	96.7902	183.105	95.1469	183.105	96.5378	183.105	94.8464	183.105	96.2417	183.105	94.5709	183.105	95.9111	183.105	94.3296	183.105	95.5608	183.105	94.133	183.105	95.2149	183.105	93.9932	183.105	94.906	183.105	93.9202	183.105	94.6659	183.105	93.917	183.105	94.5094	183.105	93.9744	183.105	94.4251	183.105	94.071	183.105	94.38	183.105	94.1786	183.105	94.3372	183.105	94.2718
188.965	97.2521	188.965	97.1051	188.965	97.3369	188.965	96.9025	188.965	97.3553	188.965	96.653	188.965	97.3068	188.965	96.3664	188.965	97.1941	188.965	96.0532	188.965	97.0225	188.965	95.7241	188.965	96.7988	188.965	95.39	188.965	96.5296	188.965	95.0621	188.965	96.2209	188.965	94.752	188.965	95.8801	188.965	94.4723	188.965	95.5195	188.965	94.2365	188.965	95.1604	188.965	94.0585	188.965	94.8334	188.965	93.9487	188.965	94.5701	188.965	93.9098	188.965	94.3896	188.965	93.9327	188.965	94.2866	188.965	93.9967	188.965	94.2334	188.965	94.0753	188.965	94.195	188.965	94.1449
196.289	97.2976	196.289	97.1575	196.289	97.3798	196.289	96.9681	196.289	97.3994	196.289	96.7396	196.289	97.3553	196.289	96.4823	196.289	97.2501	196.289	96.2049	196.289	97.0886	196.289	95.913	196.289	96.8759	196.289	95.6094	196.289	96.6157	196.289	95.296	196.289	96.3097	196.289	94.9764	196.289	95.9603	196.289	94.6593	196.289	95.5759	196.289	94.3598	196.289	95.1766	196.289	94.098	196.289	94.7951	196.289	93.8946	196.289	94.4683	196.289	93.763	196.289	94.2204	196.289	93.7038	196.289	94.0519	196.289	93.7039	196.289	93.9422	196.289	93.7424	196.289	93.8644	196.289	93.7992
203.613	97.1265	203.613	96.9625	203.613	97.2226	203.613	96.7393	203.613	97.2458	203.613	96.4685	203.613	97.1961	203.613	96.1637	203.613	97.0782	203.613	95.839	203.613	96.9012	203.613	95.5088	203.613	96.6754	203.613	95.187	203.613	96.4089	203.613	94.8864	203.613	96.1032	203.613	94.6166	203.613	95.7539	203.613	94.3838	203.613	95.3566	203.613	94.1899	203.613	94.9201	203.613	94.0345	203.613	94.4796	203.613	93.9167	203.613	94.0962	203.613	93.8359	203.613	93.8309	203.613	93.7897	203.613	93.7055	203.613	93.7699	203.613	93.687	203.613	93.7613	203.613	93.716	203.613	93.7462
210.938	96.9995	210.938	96.8472	210.938	97.0837	210.938	96.6353	210.938	97.0956	210.938	96.3748	210.938	97.0359	210.938	96.0778	210.938	96.9107	210.938	95.7545	210.938	96.7299	210.938	95.4123	210.938	96.5064	210.938	95.0569	210.938	96.2526	210.938	94.695	210.938	95.977	210.938	94.338	210.938	95.6823	210.938	94.0049	210.938	95.3663	210.938	93.7208	210.938	95.0286	210.938	93.5103	210.938	94.6793	210.938	93.3881	210.938	94.3443	210.938	93.3517	210.938	94.0591	210.938	93.3815	210.938	93.8512	210.938	93.4475	210.938	93.7218	210.938	93.5213	210.938	93.645	210.938	93.5861
218.262	96.7699	218.262	96.6001	218.262	96.876	218.262	96.3767	218.262	96.9123	218.262	96.1124	218.262	96.8776	218.262	95.8205	218.262	96.7756	218.262	95.5129	218.262	96.6147	218.262	95.1984	218.262	96.4059	218.262	94.8844	218.262	96.1616	218.262	94.5786	218.262	95.8932	218.262	94.2919	218.262	95.6096	218.262	94.0402	218.262	95.3185	218.262	93.842	218.262	95.029	218.262	93.7132	218.262	94.7548	218.262	93.6602	218.262	94.5133	218.262	93.6759	218.262	94.3213	218.262	93.7404	218.262	94.1861	218.262	93.8276	218.262	94.0996	218.262	93.9133	218.262	94.0405	218.262	93.9838
225.586	96.9925	225.586	96.7844	225.586	97.1115	225.586	96.4999	225.586	97.1362	225.586	96.1591	225.586	97.0684	225.586	95.7875	225.586	96.9153	225.586	95.4119	225.586	96.6896	225.586	95.0551	225.586	96.4081	225.586	94.7316	225.586	96.0908	225.586	94.4484	225.586	95.7592	225.586	94.2092	225.586	95.4344	225.586	94.0207	225.586	95.1363	225.586	93.8948	225.586	94.8832	225.586	93.8444	225.586	94.6895	225.586	93.8749	225.586	94.5625	225.586	93.9752	225.586	94.4989	225.586	94.1179	225.586	94.4835	225.586	94.2666	225.586	94.4917	225.586	94.3889	225.586	94.4944	225.586	94.4653
232.91	97.353	232.91	97.1767	232.91	97.4359	232.91	96.9132	232.91	97.4245	232.91	96.5747	232.91	97.3213	232.91	96.1802	232.91	97.1319	232.91	95.7539	232.91	96.8651	232.91	95.3211	232.91	96.5325	232.91	94.9045	232.91	96.1472	232.91	94.5209	232.91	95.7218	232.91	94.1827	232.91	95.2698	232.91	93.9021	232.91	94.8119	232.91	93.6949	232.91	94.3848	232.91	93.5779	232.91	94.043	232.91	93.5601	232.91	93.8391	232.91	93.6321	232.91	93.7895	232.91	93.7631	232.91	93.8559	232.91	93.909	232.91	93.9672	232.91	94.0251	232.91	94.0553	232.91	94.0786
241.699	97.1205	241.699	96.9219	241.699	97.2368	241.699	96.6516	241.699	97.2627	241.699	96.3221	241.699	97.1934	241.699	95.949	241.699	97.0288	241.699	95.55	241.699	96.7746	241.699	95.1427	241.699	96.4424	241.699	94.7421	241.699	96.0468	241.699	94.3586	241.699	95.603	241.699	94	241.699	95.1242	241.699	93.6765	241.699	94.6253	241.699	93.4054	241.699	94.1305	241.699	93.2099	241.699	93.6827	241.699	93.1099	241.699	93.3393	241.699	93.107	241.699	93.1484	241.699	93.176	241.699	93.1138	241.699	93.2703	241.699	93.1851	241.699	93.3391	241.699	93.2844	241.699	93.3461
250.488	97.2773	250.488	97.0182	250.488	97.4299	250.488	96.6674	250.488	97.4687	250.488	96.2471	250.488	97.3936	250.488	95.7863	250.488	97.2112	250.488	95.3186	250.488	96.9332	250.488	94.8758	250.488	96.575	250.488	94.4788	250.488	96.1528	250.488	94.1315	250.488	95.6823	250.488	93.8223	250.488	95.1789	250.488	93.5377	250.488	94.6636	250.488	93.2771	250.488	94.171	250.488	93.0607	250.488	93.7495	250.488	92.9205	250.488	93.4435	250.488	92.8766	250.488	93.2671	250.488	92.9185	250.488	93.1952	250.488	93.0067	250.488	93.1809	250.488	93.0958	250.488	93.1784	250.488	93.1552
259.277	97.4165	259.277	97.2295	259.277	97.5088	259.277	96.9534	259.277	97.5043	259.277	96.5981	259.277	97.4055	259.277	96.1763	259.277	97.2186	259.277	95.7049	259.277	96.954	259.277	95.2069	259.277	96.6273	259.277	94.7147	259.277	96.2562	259.277	94.2681	259.277	95.8567	259.277	93.9046	259.277	95.4358	259.277	93.642	259.277	94.9884	259.277	93.471	259.277	94.505	259.277	93.3644	259.277	93.9932	259.277	93.298	259.277	93.505	259.277	93.2632	259.277	93.1382	259.277	93.2596	259.277	92.9773	259.277	93.2772	259.277	93.011	259.277	93.2844	259.277	93.135	259.277	93.2416
268.066	97.0956	268.066	96.8873	268.066	97.2075	268.066	96.5892	268.066	97.2218	268.066	96.2147	268.066	97.1413	268.066	95.7844	268.066	96.9724	268.066	95.325	268.066	96.724	268.066	94.8643	268.066	96.4056	268.066	94.4253	268.066	96.0247	268.066	94.0223	268.066	95.5867	268.066	93.6621	268.066	95.1004	268.066	93.3512	268.066	94.59	268.066	93.1022	268.066	94.104	268.066	92.9318	268.066	93.7051	268.066	92.8503	268.066	93.4342	268.066	92.8507	268.066	93.2816	268.066	92.9067	268.066	93.2036	268.066	92.9833	268.066	93.1604	268.066	93.0514	268.066	93.1302	268.066	93.0986
276.855	97.0865	276.855	96.9057	276.855	97.1694	276.855	96.6262	276.855	97.1574	276.855	96.2529	276.855	97.055	276.855	95.7982	276.855	96.8692	276.855	95.2814	276.855	96.6113	276.855	94.7253	276.855	96.2969	276.855	94.1567	276.855	95.9395	276.855	93.6085	276.855	95.5425	276.855	93.1221	276.855	95.0952	276.855	92.7391	276.855	94.582	276.855	92.4849	276.855	94.0097	276.855	92.3578	276.855	93.441	276.855	92.3362	276.855	92.9975	276.855	92.3956	276.855	92.7864	276.855	92.5161	276.855	92.7957	276.855	92.6741	276.855	92.8998	276.855	92.833	276.855	92.9697	276.855	92.9453
287.109	96.8796	287.109	96.7282	287.109	96.9117	287.109	96.4701	287.109	96.8254	287.109	96.1259	287.109	96.6381	287.109	95.7182	287.109	96.3797	287.109	95.268	287.109	96.0823	287.109	94.7916	287.109	95.7704	287.109	94.2974	287.109	95.4547	287.109	93.7862	287.109	95.1331	287.109	93.2598	287.109	94.7978	287.109	92.74	287.109	94.4457	287.109	92.2838	287.109	94.0883	287.109	91.9769	287.109	93.7558	287.109	91.8917	287.109	93.4906	287.109	92.0343	287.109	93.3283	287.109	92.334	287.109	93.2724	287.109	92.6839	287.109	93.2794	287.109	92.9885	287.109	93.2749	287.109	93.1895
297.363	97.1535	297.363	97.0035	297.363	97.1962	297.363	96.7542	297.363	97.1255	297.363	96.4154	297.363	96.9389	297.363	95.995	297.363	96.6409	297.363	95.4958	297.363	96.2488	297.363	94.9154	297.363	95.7959	297.363	94.2548	297.363	95.3268	297.363	93.5353	297.363	94.8823	297.363	92.8181	297.363	94.4819	297.363	92.21	297.363	94.1172	297.363	91.8324	297.363	93.766	297.363	91.7528	297.363	93.4241	297.363	91.9376	297.363	93.1351	297.363	92.2833	297.363	92.9817	297.363	92.6795	297.363	93.0143	297.363	93.0384	297.363	93.1788	297.363	93.2938	297.363	93.3454	297.363	93.3998
307.617	97.3609	307.617	97.1671	307.617	97.4449	307.617	96.8648	307.617	97.4194	307.617	96.4612	307.617	97.2859	307.617	95.9756	307.617	97.0475	307.617	95.4437	307.617	96.7111	307.617	94.9114	307.617	96.2874	307.617	94.415	307.617	95.7888	307.617	93.9569	307.617	95.2251	307.617	93.5007	307.617	94.5999	307.617	92.9957	307.617	93.9174	307.617	92.4202	307.617	93.2049	307.617	91.8245	307.617	92.5479	307.617	91.3481	307.617	92.0977	307.617	91.1647	307.617	91.9827	307.617	91.3418	307.617	92.1633	307.617	91.7611	307.617	92.4365	307.617	92.2121	307.617	92.5927	307.617	92.5195
319.336	97.0505	319.336	96.7702	319.336	97.1968	319.336	96.383	319.336	97.1976	319.336	95.9267	319.336	97.0583	319.336	95.4406	319.336	96.7968	319.336	94.9566	319.336	96.4372	319.336	94.4945	319.336	96.0018	319.336	94.0604	319.336	95.505	319.336	93.6486	319.336	94.9512	319.336	93.2485	319.336	94.3426	319.336	92.8551	319.336	93.6937	319.336	92.4802	319.336	93.0409	319.336	92.1563	319.336	92.439	319.336	91.9282	319.336	91.9522	319.336	91.8321	319.336	91.6533	319.336	91.8686	319.336	91.597	319.336	91.9868	319.336	91.7475	319.336	92.0947	319.336	91.964	319.336	92.0997
329.59	96.9235	329.59	96.7495	329.59	96.9762	329.59	96.4557	329.59	96.9156	329.59	96.0547	329.59	96.7534	329.59	95.5691	329.59	96.5018	329.59	95.0273	329.59	96.1744	329.59	94.46	329.59	95.7868	329.59	93.8956	329.59	95.3525	329.59	93.3536	329.59	94.871	329.59	92.8395	329.59	94.3175	329.59	92.3474	329.59	93.6475	329.59	91.8741	329.59	92.8282	329.59	91.4376	329.59	91.9009	329.59	91.0862	329.59	91.0504	329.59	90.8814	329.59	90.5633	329.59	90.8542	329.59	90.5584	329.59	90.966	329.59	90.8289	329.59	91.1149	329.59	91.0864	329.59	91.1827
341.309	96.7174	341.309	96.4786	341.309	96.8132	341.309	96.1023	341.309	96.7725	341.309	95.6099	341.309	96.6085	341.309	95.0404	341.309	96.3388	341.309	94.4456	341.309	95.9849	341.309	93.8799	341.309	95.5705	341.309	93.3833	341.309	95.1158	341.309	92.9668	341.309	94.6292	341.309	92.6117	341.309	94.101	341.309	92.2882	341.309	93.5059	341.309	91.981	341.309	92.8193	341.309	91.7053	341.309	92.0554	341.309	91.5028	341.309	91.3268	341.309	91.4162	341.309	90.8582	341.309	91.4535	341.309	90.8197	341.309	91.5678	341.309	91.1074	341.309	91.6664	341.309	91.4473	341.309	91.647
353.027	96.3846	353.027	96.1772	353.027	96.4616	353.027	95.8419	353.027	96.4112	353.027	95.3905	353.027	96.2432	353.027	94.8487	353.027	95.9773	353.027	94.2564	353.027	95.6394	353.027	93.659	353.027	95.2505	353.027	93.0915	353.027	94.8115	353.027	92.5652	353.027	94.3014	353.027	92.0678	353.027	93.6988	353.027	91.5818	353.027	93.0218	353.027	91.1152	353.027	92.3491	353.027	90.7276	353.027	91.7722	353.027	90.5219	353.027	91.3125	353.027	90.5738	353.027	90.9512	353.027	90.8432	353.027	90.7556	353.027	91.1738	353.027	90.8334	353.027	91.3833	353.027	91.1136	353.027	91.357
366.211	96.0703	366.211	95.8617	366.211	96.1374	366.211	95.5347	366.211	96.0563	366.211	95.1234	366.211	95.8406	366.211	94.6655	366.211	95.5243	366.211	94.1907	366.211	95.1566	366.211	93.7059	366.211	94.791	366.211	93.1929	366.211	94.4646	366.211	92.6311	366.211	94.1718	366.211	92.0364	366.211	93.8516	366.211	91.4825	366.211	93.404	366.211	91.0592	366.211	92.7279	366.211	90.7835	366.211	91.7762	366.211	90.5774	366.211	90.6431	366.211	90.3592	366.211	89.651	366.211	90.1271	366.211	89.1959	366.211	89.9446	366.211	89.2843	366.211	89.8409	366.211	89.554	366.211	89.7452
379.395	96.6316	379.395	96.439	379.395	96.6661	379.395	96.0724	379.395	96.5628	379.395	95.5271	379.395	96.3412	379.395	94.8239	379.395	96.0215	379.395	94.0294	379.395	95.6306	379.395	93.2637	379.395	95.1998	379.395	92.6542	379.395	94.746	379.395	92.2324	379.395	94.2524	379.395	91.8946	379.395	93.6816	379.395	91.4972	379.395	93.0248	379.395	90.9726	379.395	92.338	379.395	90.3641	379.395	91.6926	379.395	89.7833	379.395	91.0666	379.395	89.3282	379.395	90.3601	379.395	89.0305	379.395	89.5859	379.395	88.8637	379.395	88.9676	379.395	88.7699	379.395	88.7021	379.395	88.6989
392.578	96.5576	392.578	96.3557	392.578	96.6401	392.578	96.0471	392.578	96.5846	392.578	95.6361	392.578	96.373	392.578	95.1187	392.578	96.0048	392.578	94.4886	392.578	95.5168	392.578	93.7557	392.578	94.9897	392.578	92.9697	392.578	94.521	392.578	92.2311	392.578	94.1606	392.578	91.6557	392.578	93.8569	392.578	91.2955	392.578	93.4812	392.578	91.1022	392.578	92.917	392.578	90.9928	392.578	92.161	392.578	90.9287	392.578	91.402	392.578	90.9234	392.578	90.965	392.578	90.9979	392.578	90.9885	392.578	91.144	392.578	91.2417	392.578	91.3173	392.578	91.4302	392.578	91.4423
405.762	97.0324	405.762	96.6943	405.762	97.1547	405.762	96.1752	405.762	97.0412	405.762	95.5234	405.762	96.6956	405.762	94.8009	405.762	96.1586	405.762	94.0736	405.762	95.5148	405.762	93.38	405.762	94.8786	405.762	92.6958	405.762	94.3448	405.762	91.9448	405.762	93.9165	405.762	91.0795	405.762	93.488	405.762	90.1965	405.762	92.9328	405.762	89.595	405.762	92.2418	405.762	89.5803	405.762	91.5895	405.762	90.0971	405.762	91.1836	405.762	90.7989	405.762	91.0173	405.762	91.4005	405.762	90.9782	405.762	91.7732	405.762	91.0899	405.762	91.8745	405.762	91.3846	405.762	91.7127
420.41	96.9364	420.41	96.6953	420.41	96.9482	420.41	96.2521	420.41	96.7273	420.41	95.6468	420.41	96.3038	420.41	94.9255	420.41	95.7402	420.41	94.142	420.41	95.1167	420.41	93.3589	420.41	94.5097	420.41	92.6372	420.41	93.967	420.41	92.0031	420.41	93.4831	420.41	91.4204	420.41	93.0038	420.41	90.8239	420.41	92.4825	420.41	90.2085	420.41	91.9337	420.41	89.7088	420.41	91.3977	420.41	89.5506	420.41	90.8573	420.41	89.8269	420.41	90.3032	420.41	90.3656	420.41	89.9428	420.41	90.8845	420.41	90.0833	420.41	91.1569	420.41	90.605	420.41	91.0559
435.059	96.6723	435.059	96.5443	435.059	96.5883	435.059	96.2067	435.059	96.3127	435.059	95.6778	435.059	95.8858	435.059	94.9888	435.059	95.3568	435.059	94.1916	435.059	94.7831	435.059	93.3614	435.059	94.2436	435.059	92.5719	435.059	93.8194	435.059	91.8503	435.059	93.5157	435.059	91.1683	435.059	93.2217	435.059	90.4984	435.059	92.8073	435.059	89.8929	435.059	92.2768	435.059	89.5059	435.059	91.8113	435.059	89.4779	435.059	91.5521	435.059	89.7713	435.059	91.3684	435.059	90.2008	435.059	91.0827	435.059	90.5805	435.059	90.7885	435.059	90.7851	435.059	90.7033	435.059	90.7825
451.172	96.8659	451.172	96.5851	451.172	96.9864	451.172	96.155	451.172	96.9255	451.172	95.5954	451.172	96.6497	451.172	94.9429	451.172	96.1361	451.172	94.2371	451.172	95.4073	451.172	93.4972	451.172	94.5549	451.172	92.7218	451.172	93.7254	451.172	91.914	451.172	93.046	451.172	91.104	451.172	92.5247	451.172	90.3485	451.172	92.0481	451.172	89.7168	451.172	91.5073	451.172	89.2919	451.172	90.9213	451.172	89.1758	451.172	90.4723	451.172	89.4365	451.172	90.4155	451.172	90.0198	451.172	90.8154	451.172	90.7464	451.172	91.3911	451.172	91.3955	451.172	91.7756	451.172	91.7778
465.82	96.8982	465.82	96.5722	465.82	96.9948	465.82	96.0659	465.82	96.8394	465.82	95.4436	465.82	96.445	465.82	94.7803	465.82	95.8574	465.82	94.1572	465.82	95.1386	465.82	93.6312	465.82	94.3563	465.82	93.1781	465.82	93.5947	465.82	92.6724	465.82	92.9528	465.82	91.9482	465.82	92.4569	465.82	90.91	465.82	91.9701	465.82	89.6567	465.82	91.2996	465.82	88.5757	465.82	90.4384	465.82	88.1555	465.82	89.69	465.82	88.4584	465.82	89.4205	465.82	89.1148	465.82	89.6172	465.82	89.779	465.82	89.9987	465.82	90.2546	465.82	90.3272	465.82	90.4413
483.398	96.4682	483.398	96.1632	483.398	96.4394	483.398	95.56	483.398	96.1209	483.398	94.7792	483.398	95.6023	483.398	93.996	483.398	94.9765	483.398	93.3749	483.398	94.3241	483.398	93.0031	483.398	93.7243	483.398	92.8564	483.398	93.2521	483.398	92.799	483.398	92.9394	483.398	92.6274	483.398	92.7338	483.398	92.151	483.398	92.4884	483.398	91.2671	483.398	91.9943	483.398	90.0402	483.398	91.0522	483.398	88.8501	483.398	89.6328	483.398	88.4312	483.398	88.3214	483.398	89.1213	483.398	88.4302	483.398	90.298	483.398	89.8116	483.398	91.2351	483.398	91.0553	483.398	91.5443
499.512	96.8409	499.512	96.4681	499.512	96.9038	499.512	95.7995	499.512	96.6583	499.512	94.8732	499.512	96.1162	499.512	93.7655	499.512	95.3111	499.512	92.6203	499.512	94.3275	499.512	91.6856	499.512	93.3329	499.512	91.2405	499.512	92.5625	499.512	91.3017	499.512	92.186	499.512	91.5157	499.512	92.1369	499.512	91.4906	499.512	92.1671	499.512	91.0461	499.512	92.0532	499.512	90.2328	499.512	91.6971	499.512	89.3184	499.512	91.1095	499.512	88.7557	499.512	90.3857	499.512	88.9057	499.512	89.7954	499.512	89.6067	499.512	89.7625	499.512	90.303	499.512	90.2231	499.512	90.5379
517.09	97.5427	517.09	97.2618	517.09	97.4579	517.09	96.5921	517.09	97.0693	517.09	95.5655	517.09	96.4621	517.09	94.2969	517.09	95.716	517.09	92.9986	517.09	94.8825	517.09	91.8989	517.09	94.008	517.09	91.0852	517.09	93.1776	517.09	90.5235	517.09	92.477	517.09	90.2236	517.09	91.9106	517.09	90.1593	517.09	91.4727	517.09	90.0805	517.09	91.2531	517.09	89.6764	517.09	91.2136	517.09	88.9668	517.09	90.98	517.09	88.5753	517.09	90.3087	517.09	89.153	517.09	89.7832	517.09	90.2918	517.09	90.2654	517.09	91.2241	517.09	91.1622	517.09	91.5569
536.133	97.1198	536.133	96.8327	536.133	97.0917	536.133	96.2476	536.133	96.7514	536.133	95.4011	536.133	96.1096	536.133	94.3343	536.133	95.1762	536.133	93.0924	536.133	93.9868	536.133	91.7945	536.133	92.6711	536.133	90.7324	536.133	91.5238	536.133	90.212	536.133	90.9464	536.133	90.1023	536.133	91.0663	536.133	89.9328	536.133	91.4244	536.133	89.4111	536.133	91.3387	536.133	88.575	536.133	90.3661	536.133	87.6613	536.133	88.691	536.133	86.9383	536.133	87.7118	536.133	86.7021	536.133	88.1831	536.133	87.1967	536.133	88.7901	536.133	88.1057	536.133	88.9869	536.133	88.7823
555.176	97.2779	555.176	97.0617	555.176	97.1252	555.176	96.4564	555.176	96.6567	555.176	95.4969	555.176	95.9259	555.176	94.3093	555.176	94.9503	555.176	93.1255	555.176	93.7273	555.176	92.1669	555.176	92.3142	555.176	91.4447	555.176	90.9174	555.176	90.8389	555.176	89.9125	555.176	90.3886	555.176	89.6435	555.176	90.2231	555.176	90.0511	555.176	90.1881	555.176	90.5928	555.176	89.8842	555.176	90.5817	555.176	89.0403	555.176	89.5081	555.176	87.7932	555.176	87.4	555.176	86.9798	555.176	86.1427	555.176	87.4913	555.176	87.4906	555.176	88.6484	555.176	88.9579	555.176	89.318
574.219	97.4567	574.219	97.0982	574.219	97.5831	574.219	96.4515	574.219	97.4995	574.219	95.5076	574.219	97.1525	574.219	94.3179	574.219	96.473	574.219	92.9637	574.219	95.4283	574.219	91.5719	574.219	94.0056	574.219	90.4046	574.219	92.246	574.219	89.803	574.219	90.4632	574.219	89.7548	574.219	89.4395	574.219	89.7895	574.219	89.5652	574.219	89.5217	574.219	90.085	574.219	88.9396	574.219	90.3369	574.219	88.2956	574.219	90.2327	574.219	87.897	574.219	89.7318	574.219	87.9969	574.219	88.7336	574.219	88.6469	574.219	88.0466	574.219	89.3867	574.219	88.7115	574.219	89.4925
594.727	97.3629	594.727	97.0625	594.727	97.4546	594.727	96.5858	594.727	97.265	594.727	95.8834	594.727	96.7739	594.727	94.881	594.727	96.026	594.727	93.5686	594.727	95.0414	594.727	92.0757	594.727	93.7619	594.727	90.6724	594.727	92.1373	594.727	89.582	594.727	90.3211	594.727	88.8912	594.727	88.8757	594.727	88.7577	594.727	88.4054	594.727	89.1531	594.727	88.6644	594.727	89.5929	594.727	89.1634	594.727	89.581	594.727	89.7631	594.727	89.0346	594.727	90.1004	594.727	88.4425	594.727	89.7663	594.727	88.4196	594.727	89.0241	594.727	88.743	594.727	88.689	594.727	88.8123
615.234	97.7969	615.234	97.6347	615.234	97.5275	615.234	97.0476	615.234	96.9776	615.234	96.1766	615.234	96.3104	615.234	95.1808	615.234	95.5164	615.234	94.119	615.234	94.4856	615.234	92.9233	615.234	93.2141	615.234	91.5202	615.234	91.849	615.234	90.0467	615.234	90.5742	615.234	88.9109	615.234	89.4874	615.234	88.3304	615.234	88.7881	615.234	88.0042	615.234	88.8501	615.234	87.5487	615.234	88.9892	615.234	86.7651	615.234	87.6705	615.234	85.6282	615.234	84.3837	615.234	84.6705	615.234	83.8863	615.234	85.0634	615.234	86.3579	615.234	86.3665	615.234	87.362	615.234	87.2495
637.207	97.4359	637.207	97.1586	637.207	97.4158	637.207	96.6329	637.207	97.0615	637.207	95.8607	637.207	96.4428	637.207	94.8233	637.207	95.6901	637.207	93.5533	637.207	94.7902	637.207	92.2	637.207	93.5685	637.207	90.9952	637.207	91.9529	637.207	90.1087	637.207	90.2681	637.207	89.5938	637.207	89.3675	637.207	89.3889	637.207	89.7372	637.207	89.2966	637.207	90.5228	637.207	89.1053	637.207	90.7718	637.207	88.7107	637.207	90.1314	637.207	88.1157	637.207	88.6718	637.207	87.5932	637.207	87.4721	637.207	87.8445	637.207	88.2628	637.207	88.9144	637.207	89.55	637.207	89.7567
659.18	97.4243	659.18	97.4994	659.18	97.2032	659.18	97.2339	659.18	96.9953	659.18	96.5424	659.18	96.7079	659.18	95.4312	659.18	96.0854	659.18	93.9427	659.18	95.0127	659.18	92.1453	659.18	93.648	659.18	90.2671	659.18	92.273	659.18	88.9215	659.18	90.981	659.18	88.5521	659.18	89.562	659.18	88.6538	659.18	88.0664	659.18	88.8036	659.18	87.6821	659.18	89.0584	659.18	88.5167	659.18	89.1753	659.18	89.0916	659.18	88.7307	659.18	88.9697	659.18	87.9021	659.18	87.6283	659.18	87.6881	659.18	84.8256	659.18	88.1234	659.18	85.2226	659.18	87.5947
682.617	97.1418	682.617	96.9879	682.617	97.082	682.617	96.6373	682.617	96.7336	682.617	96.0705	682.617	96.0576	682.617	95.2472	682.617	95.1627	682.617	94.1328	682.617	94.1995	682.617	92.7595	682.617	93.146	682.617	91.228	682.617	91.8685	682.617	89.7929	682.617	90.3896	682.617	88.9221	682.617	88.9701	682.617	88.4691	682.617	87.8078	682.617	87.8347	682.617	87.176	682.617	87.3904	682.617	87.7174	682.617	87.5287	682.617	88.2369	682.617	87.3554	682.617	87.2144	682.617	86.3591	682.617	86.0629	682.617	85.9039	682.617	86.928	682.617	86.7357	682.617	87.5835	682.617	87.437
707.52	97.5183	707.52	97.2754	707.52	97.3716	707.52	96.8401	707.52	96.8161	707.52	96.3096	707.52	96.1076	707.52	95.5681	707.52	95.4097	707.52	94.4419	707.52	94.5646	707.52	92.9575	707.52	93.4501	707.52	91.3429	707.52	92.1654	707.52	89.741	707.52	90.8043	707.52	88.4559	707.52	89.2395	707.52	88.0415	707.52	87.8856	707.52	88.2619	707.52	88.6666	707.52	88.586	707.52	90.1999	707.52	88.6952	707.52	90.0165	707.52	88.1592	707.52	88.6523	707.52	86.9096	707.52	88.4379	707.52	86.2443	707.52	88.8076	707.52	87.3068	707.52	88.92	707.52	88.5307
732.422	96.9857	732.422	96.812	732.422	97.018	732.422	96.5959	732.422	96.8189	732.422	96.2559	732.422	96.2976	732.422	95.5214	732.422	95.487	732.422	94.2392	732.422	94.6292	732.422	92.538	732.422	93.7619	732.422	90.6129	732.422	92.442	732.422	88.6959	732.422	90.2822	732.422	87.4854	732.422	88.0615	732.422	87.1981	732.422	87.4788	732.422	87.3874	732.422	87.277	732.422	88.2418	732.422	86.8023	732.422	89.4631	732.422	88.2382	732.422	89.7791	732.422	89.2272	732.422	88.3012	732.422	87.7619	732.422	85.4368	732.422	85.234	732.422	83.9953	732.422	84.3813	732.422	84.2896
757.324	97.5732	757.324	97.4628	757.324	97.2327	757.324	96.9651	757.324	96.5977	757.324	96.3203	757.324	95.8248	757.324	95.5368	757.324	94.9462	757.324	94.29	757.324	93.8851	757.324	92.4264	757.324	92.5918	757.324	90.1025	757.324	91.196	757.324	87.2852	757.324	90.0934	757.324	84.1133	757.324	89.5047	757.324	82.6142	757.324	88.8017	757.324	83.1917	757.324	87.9003	757.324	84.492	757.324	87.5975	757.324	86.5186	757.324	87.0151	757.324	87.8451	757.324	85.8108	757.324	87.7126	757.324	84.9812	757.324	87.0108	757.324	85.2147	757.324	86.9753	757.324	86.5362	757.324	87.2133
785.156	97.1952	785.156	96.8621	785.156	97.6452	785.156	96.8379	785.156	97.5627	785.156	96.5603	785.156	96.7023	785.156	95.4366	785.156	95.4809	785.156	93.5967	785.156	94.3594	785.156	91.9418	785.156	93.2276	785.156	90.6473	785.156	91.9393	785.156	89.2396	785.156	90.281	785.156	88.3966	785.156	87.713	785.156	88.1386	785.156	85.9327	785.156	87.3754	785.156	87.6874	785.156	86.9411	785.156	89.1012	785.156	87.8997	785.156	90.3102	785.156	88.5919	785.156	90.0735	785.156	88.0519	785.156	88.2276	785.156	86.5697	785.156	88.9633	785.156	86.2042	785.156	88.968	785.156	87.394
811.523	97.6455	811.523	97.8039	811.523	97.3627	811.523	97.3414	811.523	97.1006	811.523	96.208	811.523	96.3644	811.523	94.743	811.523	95.0901	811.523	93.3062	811.523	93.8394	811.523	91.9369	811.523	92.9005	811.523	90.1201	811.523	91.9806	811.523	87.3698	811.523	90.7781	811.523	85.046	811.523	89.3304	811.523	84.9216	811.523	88.2311	811.523	85.339	811.523	86.921	811.523	86.1512	811.523	84.4043	811.523	87.0584	811.523	85.5993	811.523	87.6667	811.523	88.4639	811.523	87.945	811.523	89.0811	811.523	87.7799	811.523	86.941	811.523	87.1841	811.523	84.9226	811.523	86.309
840.82	97.2614	840.82	97.4317	840.82	97.1814	840.82	97.0139	840.82	96.854	840.82	95.79	840.82	95.8506	840.82	94.5502	840.82	94.6956	840.82	93.5424	840.82	93.8282	840.82	91.9127	840.82	92.9126	840.82	90.0108	840.82	91.752	840.82	88.9413	840.82	90.6274	840.82	87.8335	840.82	89.8414	840.82	87.6275	840.82	88.6493	840.82	88.3243	840.82	87.2197	840.82	86.6246	840.82	88.4279	840.82	84.1879	840.82	87.5452	840.82	83.9128	840.82	85.5172	840.82	84.196	840.82	85.7232	840.82	85.085	840.82	84.5519	840.82	85.4902	840.82	86.1417	840.82	85.8689
870.117	98.137	870.117	97.1898	870.117	97.9852	870.117	96.1531	870.117	97.0021	870.117	95.717	870.117	96.2844	870.117	95.0266	870.117	95.5969	870.117	93.45	870.117	94.3087	870.117	91.4529	870.117	92.7604	870.117	90.0044	870.117	91.4912	870.117	88.4876	870.117	90.6125	870.117	85.6798	870.117	89.6042	870.117	84.0393	870.117	87.0764	870.117	84.0229	870.117	84.7653	870.117	83.9254	870.117	86.5146	870.117	86.3581	870.117	88.5441	870.117	88.8087	870.117	90.1596	870.117	88.0271	870.117	87.921	870.117	85.5712	870.117	84.2726	870.117	84.5649	870.117	87.4716	870.117	86.6473
900.879	97.5622	900.879	97.9296	900.879	97.4891	900.879	97.2462	900.879	97.7666	900.879	95.1852	900.879	97.1785	900.879	93.831	900.879	95.6628	900.879	94.1086	900.879	94.1405	900.879	93.2422	900.879	92.7846	900.879	91.0855	900.879	90.999	900.879	89.7194	900.879	89.055	900.879	87.6456	900.879	88.1781	900.879	84.8846	900.879	88.7055	900.879	87.4547	900.879	88.1222	900.879	87.8351	900.879	87.57	900.879	86.5181	900.879	86.8452	900.879	86.5557	900.879	85.4667	900.879	85.8635	900.879	88.2763	900.879	84.8723	900.879	86.8997	900.879	85.8525	900.879	85.6558	900.879	86.756
933.105	97.8374	933.105	97.3902	933.105	98.0893	933.105	97.0942	933.105	97.7486	933.105	96.4219	933.105	97.0651	933.105	94.8741	933.105	95.938	933.105	93.1228	933.105	94.2314	933.105	92.1418	933.105	92.5519	933.105	90.852	933.105	91.2048	933.105	89.0889	933.105	89.7151	933.105	88.3577	933.105	88.2229	933.105	87.652	933.105	87.4804	933.105	86.542	933.105	87.1246	933.105	84.9233	933.105	87.3298	933.105	84.7684	933.105	89.5452	933.105	87.7107	933.105	90.9511	933.105	87.9326	933.105	89.0924	933.105	84.5395	933.105	87.7379	933.105	82.4239	933.105	88.8369	933.105	86.8363
965.332	98.0064	965.332	97.4905	965.332	98.269	965.332	96.8883	965.332	97.768	965.332	95.51	965.332	96.5135	965.332	93.5461	965.332	95.2914	965.332	93.0428	965.332	94.4864	965.332	93.0014	965.332	93.322	965.332	91.1688	965.332	91.3328	965.332	88.0341	965.332	89.4714	965.332	87.0342	965.332	88.9079	965.332	86.2756	965.332	88.7872	965.332	85.6209	965.332	87.9678	965.332	85.4514	965.332	86.5633	965.332	83.9858	965.332	84.3557	965.332	85.53	965.332	85.8842	965.332	87.9477	965.332	88.9785	965.332	87.7945	965.332	85.9033	965.332	86.3405	965.332	85.9778	965.332	86.4997
1,000.49	97.7451	1,000.49	97.7519	1,000.49	98.2406	1,000.49	97.4567	1,000.49	98.3842	1,000.49	96.2014	1,000.49	97.4955	1,000.49	94.4837	1,000.49	96.1451	1,000.49	93.5176	1,000.49	94.5438	1,000.49	92.9159	1,000.49	92.8394	1,000.49	91.6423	1,000.49	91.4553	1,000.49	90.2351	1,000.49	90.3592	1,000.49	88.6057	1,000.49	88.8934	1,000.49	86.4901	1,000.49	87.9491	1,000.49	85.0247	1,000.49	87.9353	1,000.49	84.5116	1,000.49	87.1334	1,000.49	85.9835	1,000.49	87.1344	1,000.49	87.2607	1,000.49	89.5887	1,000.49	88.2369	1,000.49	89.728	1,000.49	87.4119	1,000.49	89.1165	1,000.49	83.8127	1,000.49	87.4258	1,000.49	83.4077
1,035.64	97.1679	1,035.64	97.129	1,035.64	97.5976	1,035.64	97.4337	1,035.64	97.4409	1,035.64	96.5469	1,035.64	97.382	1,035.64	94.461	1,035.64	96.9413	1,035.64	92.7242	1,035.64	95.3897	1,035.64	92.2164	1,035.64	93.24	1,035.64	92.2269	1,035.64	90.4801	1,035.64	90.5623	1,035.64	87.4057	1,035.64	87.7327	1,035.64	85.0308	1,035.64	89.3875	1,035.64	85.9861	1,035.64	90.4142	1,035.64	87.5049	1,035.64	86.5784	1,035.64	87.5356	1,035.64	82.0734	1,035.64	85.6386	1,035.64	82.4074	1,035.64	83.0317	1,035.64	83.2852	1,035.64	88.2169	1,035.64	85.3598	1,035.64	86.4077	1,035.64	85.8491	1,035.64	84.9861	1,035.64	85.3722
1,072.27	97.1305	1,072.27	96.9759	1,072.27	97.1698	1,072.27	96.5831	1,072.27	97.1865	1,072.27	96.3178	1,072.27	97.1859	1,072.27	95.527	1,072.27	96.5264	1,072.27	93.5897	1,072.27	94.6975	1,072.27	92.2716	1,072.27	92.9517	1,072.27	90.6333	1,072.27	91.7717	1,072.27	88.2963	1,072.27	89.1758	1,072.27	88.9233	1,072.27	86.5603	1,072.27	88.2374	1,072.27	85.967	1,072.27	88.3137	1,072.27	85.8641	1,072.27	88.3959	1,072.27	88.1377	1,072.27	84.3091	1,072.27	89.5744	1,072.27	85.9044	1,072.27	89.02	1,072.27	87.8659	1,072.27	87.3065	1,072.27	86.0784	1,072.27	87.7112	1,072.27	84.7463	1,072.27	85.0821	1,072.27	84.4772
1,108.89	97.1538	1,108.89	96.7352	1,108.89	97.0255	1,108.89	96.9731	1,108.89	96.5253	1,108.89	96.4225	1,108.89	96.9975	1,108.89	94.3628	1,108.89	96.879	1,108.89	92.8497	1,108.89	95.1476	1,108.89	93.2725	1,108.89	92.8735	1,108.89	92.1562	1,108.89	90.6833	1,108.89	89.0227	1,108.89	88.301	1,108.89	87.4965	1,108.89	86.2283	1,108.89	87.4663	1,108.89	81.2635	1,108.89	87.3787	1,108.89	86.4585	1,108.89	88.9781	1,108.89	88.2068	1,108.89	86.7686	1,108.89	84.2435	1,108.89	85.4634	1,108.89	84.6502	1,108.89	86.176	1,108.89	88.0793	1,108.89	85.2173	1,108.89	85.6866	1,108.89	83.8665	1,108.89	82.5119	1,108.89	83.4208
1,148.44	96.6041	1,148.44	96.475	1,148.44	96.6814	1,148.44	96.4108	1,148.44	96.3754	1,148.44	95.8248	1,148.44	96.2871	1,148.44	94.9628	1,148.44	96.0365	1,148.44	94.2921	1,148.44	95.0599	1,148.44	93.0318	1,148.44	93.1871	1,148.44	90.3433	1,148.44	91.0236	1,148.44	87.4373	1,148.44	89.5607	1,148.44	83.2212	1,148.44	86.899	1,148.44	81.3114	1,148.44	82.1989	1,148.44	84.4391	1,148.44	85.21	1,148.44	86.7877	1,148.44	87.2058	1,148.44	86.8851	1,148.44	88.85	1,148.44	82.4934	1,148.44	86.9416	1,148.44	84.6543	1,148.44	86.3315	1,148.44	86.5164	1,148.44	88.0337	1,148.44	82.46	1,148.44	86.2363	1,148.44	80.7605
1,189.45	96.6508	1,189.45	96.2366	1,189.45	96.7281	1,189.45	95.3492	1,189.45	97.1007	1,189.45	95.6517	1,189.45	96.3552	1,189.45	95.8051	1,189.45	95.3271	1,189.45	93.6151	1,189.45	94.8433	1,189.45	91.0237	1,189.45	93.2743	1,189.45	91.2336	1,189.45	91.1999	1,189.45	90.4649	1,189.45	90.4716	1,189.45	88.07	1,189.45	88.3509	1,189.45	85.5359	1,189.45	83.6708	1,189.45	83.5925	1,189.45	84.1978	1,189.45	84.476	1,189.45	87.115	1,189.45	84.4016	1,189.45	84.4153	1,189.45	83.7495	1,189.45	84.3095	1,189.45	85.116	1,189.45	88.1141	1,189.45	86.5514	1,189.45	84.8545	1,189.45	85.1461	1,189.45	79.4087	1,189.45	80.4907
1,230.47	96.3989	1,230.47	95.9349	1,230.47	97.235	1,230.47	95.7626	1,230.47	96.9952	1,230.47	95.3749	1,230.47	96.3754	1,230.47	95.6754	1,230.47	95.3711	1,230.47	94.1176	1,230.47	94.4228	1,230.47	91.3795	1,230.47	92.7442	1,230.47	91.5256	1,230.47	90.7565	1,230.47	90.3562	1,230.47	89.9137	1,230.47	88.9382	1,230.47	87.976	1,230.47	87.325	1,230.47	85.8337	1,230.47	85.8554	1,230.47	78.9342	1,230.47	83.1431	1,230.47	84.9075	1,230.47	81.0384	1,230.47	86.217	1,230.47	83.0433	1,230.47	84.1408	1,230.47	84.5356	1,230.47	83.4422	1,230.47	85.4983	1,230.47	84.1745	1,230.47	82.3332	1,230.47	79.8793	1,230.47	75.9379
1,274.41	96.8272	1,274.41	95.8993	1,274.41	97.6506	1,274.41	95.0506	1,274.41	97.5788	1,274.41	94.9998	1,274.41	96.2263	1,274.41	95.6836	1,274.41	94.6433	1,274.41	94.2448	1,274.41	93.9184	1,274.41	92.1016	1,274.41	91.8775	1,274.41	91.0873	1,274.41	89.3688	1,274.41	90.0709	1,274.41	87.9582	1,274.41	88.8504	1,274.41	86.9548	1,274.41	84.7393	1,274.41	86.2309	1,274.41	83.5992	1,274.41	82.6851	1,274.41	84.8533	1,274.41	85.8919	1,274.41	85.5979	1,274.41	86.6592	1,274.41	85.765	1,274.41	79.1775	1,274.41	82.3807	1,274.41	85.2974	1,274.41	81.4574	1,274.41	85.3976	1,274.41	83.7917	1,274.41	80.2165	1,274.41	81.6761
1,319.82	97.0935	1,319.82	96.4009	1,319.82	97.5429	1,319.82	96.2779	1,319.82	97.6737	1,319.82	96.3663	1,319.82	96.986	1,319.82	95.9166	1,319.82	95.0269	1,319.82	94.5805	1,319.82	92.8192	1,319.82	92.0692	1,319.82	91.7099	1,319.82	90.846	1,319.82	89.7182	1,319.82	89.5637	1,319.82	88.2956	1,319.82	85.793	1,319.82	87.0317	1,319.82	84.0647	1,319.82	83.8326	1,319.82	83.4456	1,319.82	80.2829	1,319.82	84.6738	1,319.82	81.3164	1,319.82	83.3246	1,319.82	84.6902	1,319.82	81.7407	1,319.82	82.5625	1,319.82	85.1139	1,319.82	85.9023	1,319.82	84.4631	1,319.82	84.5084	1,319.82	81.2768	1,319.82	80.4169	1,319.82	76.1608
1,366.7	97.3603	1,366.7	96.8617	1,366.7	97.8664	1,366.7	96.5896	1,366.7	97.652	1,366.7	95.9708	1,366.7	96.778	1,366.7	95.556	1,366.7	95.8564	1,366.7	93.806	1,366.7	94.2892	1,366.7	91.8662	1,366.7	91.632	1,366.7	90.5688	1,366.7	90.2071	1,366.7	90.316	1,366.7	90.06	1,366.7	89.6901	1,366.7	87.6106	1,366.7	89.3734	1,366.7	85.6672	1,366.7	86.8512	1,366.7	78.5301	1,366.7	85.0405	1,366.7	81.1643	1,366.7	86.6446	1,366.7	85.002	1,366.7	80.7498	1,366.7	85.6914	1,366.7	82.2276	1,366.7	81.7099	1,366.7	84.4238	1,366.7	87.9063	1,366.7	82.8141	1,366.7	80.4778	1,366.7	75.5611
1,413.57	97.4015	1,413.57	96.6881	1,413.57	97.7012	1,413.57	96.3035	1,413.57	98.3044	1,413.57	96.3237	1,413.57	96.8184	1,413.57	94.7335	1,413.57	94.7112	1,413.57	93.7624	1,413.57	92.9679	1,413.57	93.1245	1,413.57	91.1697	1,413.57	88.6558	1,413.57	91.2113	1,413.57	83.8876	1,413.57	90.3286	1,413.57	83.7119	1,413.57	87.4866	1,413.57	85.0594	1,413.57	87.7009	1,413.57	83.842	1,413.57	83.674	1,413.57	87.0829	1,413.57	84.2328	1,413.57	88.1945	1,413.57	86.2727	1,413.57	83.7753	1,413.57	78.8873	1,413.57	82.7763	1,413.57	86.6349	1,413.57	87.8927	1,413.57	84.3802	1,413.57	85.5405	1,413.57	78.8629	1,413.57	64.0993
1,463.38	96.721	1,463.38	96.465	1,463.38	96.7485	1,463.38	96.2229	1,463.38	97.7783	1,463.38	95.9639	1,463.38	97.8074	1,463.38	93.2386	1,463.38	95.8377	1,463.38	94.2438	1,463.38	92.8158	1,463.38	93.2783	1,463.38	92.5869	1,463.38	87.7781	1,463.38	90.6792	1,463.38	85.8953	1,463.38	87.5768	1,463.38	82.961	1,463.38	83.2322	1,463.38	82.6741	1,463.38	85.8071	1,463.38	84.6691	1,463.38	85.1516	1,463.38	85.7904	1,463.38	79.2145	1,463.38	82.353	1,463.38	84.6073	1,463.38	77.5944	1,463.38	78.2387	1,463.38	78.1385	1,463.38	85.4429	1,463.38	82.9455	1,463.38	84.1181	1,463.38	78.6679	1,463.38	85.6373	1,463.38	78.9381
1,516.11	95.4506	1,516.11	96.0608	1,516.11	95.96	1,516.11	96.4466	1,516.11	97.7517	1,516.11	95.4617	1,516.11	97.3164	1,516.11	94.3331	1,516.11	96.9561	1,516.11	94.4631	1,516.11	94.396	1,516.11	92.1596	1,516.11	90.9567	1,516.11	88.9599	1,516.11	91.1456	1,516.11	84.3824	1,516.11	86.5531	1,516.11	84.5303	1,516.11	81.3489	1,516.11	85.2711	1,516.11	83.6778	1,516.11	80.0135	1,516.11	81.4547	1,516.11	83.064	1,516.11	79.8224	1,516.11	89.1369	1,516.11	85.3647	1,516.11	84.7153	1,516.11	85.5788	1,516.11	75.7337	1,516.11	81.9332	1,516.11	84.6238	1,516.11	81.9375	1,516.11	84.9655	1,516.11	77.8365	1,516.11	78.1766
1,568.85	94.5984	1,568.85	95.1295	1,568.85	96.0025	1,568.85	95.6188	1,568.85	96.4511	1,568.85	94.4965	1,568.85	96.058	1,568.85	94.082	1,568.85	95.8257	1,568.85	93.8554	1,568.85	94.9549	1,568.85	91.5225	1,568.85	91.8555	1,568.85	87.5773	1,568.85	88.2288	1,568.85	87.8813	1,568.85	87.8427	1,568.85	85.4775	1,568.85	86.4371	1,568.85	84.5743	1,568.85	87.647	1,568.85	86.1161	1,568.85	84.6051	1,568.85	77.8838	1,568.85	85.1489	1,568.85	83.8331	1,568.85	84.8006	1,568.85	84.4527	1,568.85	87.8035	1,568.85	74.4203	1,568.85	83.328	1,568.85	81.753	1,568.85	85.2073	1,568.85	81.8989	1,568.85	82.1668	1,568.85	78.9919
1,624.51	96.1189	1,624.51	95.0949	1,624.51	95.4652	1,624.51	94.933	1,624.51	95.7178	1,624.51	94.211	1,624.51	95.8482	1,624.51	94.1554	1,624.51	95.4884	1,624.51	91.2612	1,624.51	94.2455	1,624.51	88.5628	1,624.51	91.9004	1,624.51	87.6688	1,624.51	87.7801	1,624.51	82.25	1,624.51	86.3299	1,624.51	86.804	1,624.51	85.475	1,624.51	74.6266	1,624.51	83.1158	1,624.51	86.0627	1,624.51	85.4981	1,624.51	85.1853	1,624.51	84.5495	1,624.51	79.2715	1,624.51	85.6785	1,624.51	77.5714	1,624.51	81.2663	1,624.51	73.9629	1,624.51	84.7625	1,624.51	77.8905	1,624.51	85.3239	1,624.51	84.1496	1,624.51	79.1962	1,624.51	72.6784
1,681.64	96.8565	1,681.64	96.3594	1,681.64	96.4655	1,681.64	95.1236	1,681.64	95.56	1,681.64	94.5851	1,681.64	94.7697	1,681.64	93.0761	1,681.64	95.0786	1,681.64	90.7939	1,681.64	94.5737	1,681.64	89.5876	1,681.64	92.5783	1,681.64	88.4834	1,681.64	89.4174	1,681.64	76.9297	1,681.64	84.5038	1,681.64	80.7551	1,681.64	84.3714	1,681.64	72.6796	1,681.64	80.2626	1,681.64	79.8972	1,681.64	85.8211	1,681.64	77.8245	1,681.64	82.3786	1,681.64	85.1932	1,681.64	82.0258	1,681.64	83.2716	1,681.64	84.1725	1,681.64	82.1872	1,681.64	78.8719	1,681.64	72.435	1,681.64	81.8346	1,681.64	78.0565	1,681.64	77.0381	1,681.64	78.6555
1,741.7	97.3909	1,741.7	97.227	1,741.7	96.7439	1,741.7	95.5049	1,741.7	96.0593	1,741.7	93.103	1,741.7	95.0011	1,741.7	92.1225	1,741.7	94.5841	1,741.7	89.8836	1,741.7	93.1742	1,741.7	88.1604	1,741.7	92.2558	1,741.7	85.6515	1,741.7	89.9341	1,741.7	87.617	1,741.7	87.7857	1,741.7	85.6103	1,741.7	80.9204	1,741.7	86.5537	1,741.7	80.4671	1,741.7	76.1994	1,741.7	79.9546	1,741.7	80.8369	1,741.7	83.846	1,741.7	84.0801	1,741.7	81.6168	1,741.7	83.7421	1,741.7	82.7182	1,741.7	79.0507	1,741.7	83.3384	1,741.7	79.2642	1,741.7	81.4533	1,741.7	73.635	1,741.7	81.1071	1,741.7	80.5522
1,803.22	97.1937	1,803.22	97.692	1,803.22	96.704	1,803.22	96.0196	1,803.22	96.2703	1,803.22	91.4252	1,803.22	95.563	1,803.22	89.4667	1,803.22	93.562	1,803.22	90.2838	1,803.22	91.6661	1,803.22	88.8388	1,803.22	90.0702	1,803.22	88.8791	1,803.22	89.2862	1,803.22	85.152	1,803.22	88.1646	1,803.22	80.9253	1,803.22	86.4338	1,803.22	81.6246	1,803.22	76.3067	1,803.22	84.8517	1,803.22	75.4099	1,803.22	76.6898	1,803.22	82.0144	1,803.22	82.5977	1,803.22	81.5075	1,803.22	79.9035	1,803.22	82.1071	1,803.22	79.131	1,803.22	81.4225	1,803.22	74.8974	1,803.22	78.8364	1,803.22	77.6923	1,803.22	79.325	1,803.22	82.7083
1,866.21	96.4016	1,866.21	97.4093	1,866.21	95.6534	1,866.21	96.2133	1,866.21	95.9427	1,866.21	90.9395	1,866.21	94.7802	1,866.21	88.8802	1,866.21	92.2964	1,866.21	90.4934	1,866.21	91.6098	1,866.21	88.1728	1,866.21	90.0765	1,866.21	86.9977	1,866.21	89.6297	1,866.21	86.7123	1,866.21	86.3007	1,866.21	83.7188	1,866.21	83.8697	1,866.21	80.14	1,866.21	77.8322	1,866.21	83.603	1,866.21	78.6912	1,866.21	80.78	1,866.21	77.9475	1,866.21	82.858	1,866.21	80.0361	1,866.21	81.3697	1,866.21	80.8262	1,866.21	79.6446	1,866.21	80.8796	1,866.21	74.4069	1,866.21	80.5173	1,866.21	75.808	1,866.21	77.7531	1,866.21	79.9972
1,932.13	95.6943	1,932.13	96.654	1,932.13	94.4573	1,932.13	94.8331	1,932.13	94.2162	1,932.13	91.3088	1,932.13	92.3381	1,932.13	88.1193	1,932.13	90.9226	1,932.13	87.8126	1,932.13	91.8024	1,932.13	87.7519	1,932.13	91.6942	1,932.13	87.6745	1,932.13	90.7443	1,932.13	84.7451	1,932.13	87.6318	1,932.13	83.7696	1,932.13	80.9068	1,932.13	83.3147	1,932.13	82.5296	1,932.13	79.5067	1,932.13	77.2771	1,932.13	81.7823	1,932.13	78.7319	1,932.13	78.022	1,932.13	80.8709	1,932.13	83.8535	1,932.13	77.9458	1,932.13	75.2506	1,932.13	80.1847	1,932.13	75.1115	1,932.13	76.6354	1,932.13	71.6546	1,932.13	80.2883	1,932.13	80.2756
1,999.51	96.4015	1,999.51	95.4573	1,999.51	94.952	1,999.51	93.6258	1,999.51	93.6874	1,999.51	92.6201	1,999.51	92.6196	1,999.51	86.9134	1,999.51	91.1368	1,999.51	87.6302	1,999.51	91.7827	1,999.51	88.3021	1,999.51	92.3109	1,999.51	86.2732	1,999.51	89.2246	1,999.51	85.4311	1,999.51	90.2783	1,999.51	79.6051	1,999.51	84.9367	1,999.51	78.5149	1,999.51	84.3826	1,999.51	80.9625	1,999.51	77.4589	1,999.51	82.905	1,999.51	77.9434	1,999.51	80.0335	1,999.51	75.8231	1,999.51	82.6702	1,999.51	80.2282	1,999.51	76.5237	1,999.51	79.5982	1,999.51	74.3529	1,999.51	77.9886	1,999.51	76.6251	1,999.51	78.6424	1,999.51	80.7047
2,069.82	96.4504	2,069.82	94.7041	2,069.82	95.5271	2,069.82	92.545	2,069.82	93.8585	2,069.82	90.0268	2,069.82	91.3541	2,069.82	84.1387	2,069.82	89.4578	2,069.82	86.6595	2,069.82	92.3575	2,069.82	88.9786	2,069.82	93.1227	2,069.82	89.5421	2,069.82	91.7448	2,069.82	88.6959	2,069.82	88.9877	2,069.82	84.869	2,069.82	85.5103	2,069.82	84.3022	2,069.82	79.6702	2,069.82	82.3363	2,069.82	81.3671	2,069.82	81.185	2,069.82	74.9074	2,069.82	82.0736	2,069.82	76.572	2,069.82	79.7354	2,069.82	67.243	2,069.82	78.5446	2,069.82	80.0512	2,069.82	71.2785	2,069.82	77.1112	2,069.82	71.5039	2,069.82	74.6496	2,069.82	81.0543
2,143.07	96.7739	2,143.07	94.8852	2,143.07	96.0588	2,143.07	90.7559	2,143.07	92.5483	2,143.07	84.8985	2,143.07	88.1951	2,143.07	84.8803	2,143.07	90.2445	2,143.07	87.8701	2,143.07	92.9023	2,143.07	90.6157	2,143.07	93.1621	2,143.07	89.1739	2,143.07	91.3274	2,143.07	85.0967	2,143.07	89.7799	2,143.07	86.1594	2,143.07	86.1759	2,143.07	79.3735	2,143.07	81.3286	2,143.07	82.807	2,143.07	76.2018	2,143.07	78.82	2,143.07	78.0032	2,143.07	84.0351	2,143.07	78.7582	2,143.07	78.9183	2,143.07	74.3273	2,143.07	80.1329	2,143.07	74.2607	2,143.07	65.0315	2,143.07	73.7099	2,143.07	69.2942	2,143.07	73.6316	2,143.07	82.7823
2,219.24	95.9275	2,219.24	94.2463	2,219.24	95.7621	2,219.24	90.3992	2,219.24	91.5504	2,219.24	83.6815	2,219.24	86.0018	2,219.24	85.0974	2,219.24	89.395	2,219.24	88.3489	2,219.24	93.463	2,219.24	88.9071	2,219.24	93.9552	2,219.24	88.245	2,219.24	91.2643	2,219.24	88.2378	2,219.24	86.746	2,219.24	80.7963	2,219.24	83.9965	2,219.24	82.1917	2,219.24	80.2194	2,219.24	80.4279	2,219.24	77.5679	2,219.24	79.8893	2,219.24	80.7417	2,219.24	81.2436	2,219.24	80.5381	2,219.24	79.1166	2,219.24	74.054	2,219.24	78.8988	2,219.24	75.452	2,219.24	65.5248	2,219.24	70.09	2,219.24	68.2161	2,219.24	73.1751	2,219.24	81.3591
2,296.88	94.6768	2,296.88	93.0652	2,296.88	94.8219	2,296.88	89.608	2,296.88	92.045	2,296.88	82.985	2,296.88	82.9139	2,296.88	84.9835	2,296.88	87.8292	2,296.88	88.0489	2,296.88	93.6992	2,296.88	89.2538	2,296.88	93.6575	2,296.88	85.909	2,296.88	88.9904	2,296.88	87.1429	2,296.88	86.7623	2,296.88	83.1201	2,296.88	84.9799	2,296.88	82.4513	2,296.88	80.4325	2,296.88	79.1615	2,296.88	81.7434	2,296.88	80.4994	2,296.88	80.6876	2,296.88	79.562	2,296.88	80.6224	2,296.88	79.4426	2,296.88	76.3374	2,296.88	77.2934	2,296.88	71.2207	2,296.88	66.0361	2,296.88	68.695	2,296.88	75.1308	2,296.88	75.6844	2,296.88	79.1739
2,378.91	94.4786	2,378.91	91.016	2,378.91	93.6502	2,378.91	87.8818	2,378.91	87.8633	2,378.91	81.1064	2,378.91	66.3515	2,378.91	81.6074	2,378.91	89.1926	2,378.91	88.2509	2,378.91	93.782	2,378.91	89.3727	2,378.91	93.6387	2,378.91	89.16	2,378.91	90.2756	2,378.91	86.5174	2,378.91	84.6905	2,378.91	84.2814	2,378.91	85.0053	2,378.91	80.933	2,378.91	82.7137	2,378.91	79.1461	2,378.91	78.8026	2,378.91	80.5464	2,378.91	82.2626	2,378.91	79.0701	2,378.91	81.6356	2,378.91	78.9061	2,378.91	77.25	2,378.91	76.8882	2,378.91	65.3111	2,378.91	66.3445	2,378.91	65.3318	2,378.91	74.2119	2,378.91	76.055	2,378.91	81.1944
2,462.4	95.9211	2,462.4	92.2838	2,462.4	94.8002	2,462.4	85.7441	2,462.4	86.2584	2,462.4	76.3675	2,462.4	73.9007	2,462.4	83.6931	2,462.4	90.1005	2,462.4	88.8512	2,462.4	93.6445	2,462.4	88.9128	2,462.4	93.2992	2,462.4	88.2834	2,462.4	90.9707	2,462.4	85.2594	2,462.4	83.5981	2,462.4	83.9419	2,462.4	80.2972	2,462.4	79.4586	2,462.4	80.0327	2,462.4	79.1098	2,462.4	81.1813	2,462.4	76.9016	2,462.4	80.4375	2,462.4	79.3262	2,462.4	77.3195	2,462.4	78.947	2,462.4	77.8748	2,462.4	77.34	2,462.4	66.2825	2,462.4	69.995	2,462.4	71.4875	2,462.4	72.4702	2,462.4	74.7934	2,462.4	78.6935
2,548.83	96.3066	2,548.83	93.2897	2,548.83	95.7196	2,548.83	84.4686	2,548.83	87.31	2,548.83	77.0469	2,548.83	82.4195	2,548.83	85.382	2,548.83	90.36	2,548.83	88.0473	2,548.83	93.1954	2,548.83	89.2362	2,548.83	92.0738	2,548.83	86.5452	2,548.83	88.6147	2,548.83	86.3168	2,548.83	83.7215	2,548.83	81.8905	2,548.83	82.1954	2,548.83	81.9574	2,548.83	79.6091	2,548.83	76.3343	2,548.83	80.9177	2,548.83	79.1581	2,548.83	76.7037	2,548.83	77.864	2,548.83	78.783	2,548.83	76.491	2,548.83	76.3518	2,548.83	77.5753	2,548.83	67.7893	2,548.83	70.6748	2,548.83	74.6888	2,548.83	74.282	2,548.83	74.8738	2,548.83	80.7995
2,639.65	95.8938	2,639.65	93.1646	2,639.65	94.8581	2,639.65	86.104	2,639.65	88.0849	2,639.65	80.367	2,639.65	84.3856	2,639.65	86.568	2,639.65	90.7228	2,639.65	89.2795	2,639.65	92.8648	2,639.65	89.3117	2,639.65	92.2419	2,639.65	88.4622	2,639.65	88.0243	2,639.65	85.9008	2,639.65	82.733	2,639.65	84.962	2,639.65	80.5358	2,639.65	79.787	2,639.65	77.6911	2,639.65	79.6849	2,639.65	66.3126	2,639.65	79.2366	2,639.65	78.8668	2,639.65	76.8142	2,639.65	78.2364	2,639.65	78.9035	2,639.65	76.6413	2,639.65	77.8599	2,639.65	72.3746	2,639.65	72.7641	2,639.65	69.2007	2,639.65	75.083	2,639.65	70.8049	2,639.65	79.9936
2,731.93	94.4229	2,731.93	91.9187	2,731.93	92.9767	2,731.93	82.9703	2,731.93	83.1017	2,731.93	80.9018	2,731.93	86.0968	2,731.93	86.8328	2,731.93	90.8779	2,731.93	88.8942	2,731.93	92.2254	2,731.93	88.3458	2,731.93	90.5629	2,731.93	88.8216	2,731.93	86.7669	2,731.93	86.0883	2,731.93	83.4747	2,731.93	81.9163	2,731.93	75.6717	2,731.93	79.453	2,731.93	74.6592	2,731.93	78.0296	2,731.93	74.4209	2,731.93	78.0513	2,731.93	78.8804	2,731.93	76.3708	2,731.93	77.9952	2,731.93	76.9218	2,731.93	74.7625	2,731.93	77.4279	2,731.93	70.948	2,731.93	71.2075	2,731.93	68.9367	2,731.93	76.7177	2,731.93	71.8096	2,731.93	77.8692
2,828.61	95.7366	2,828.61	92.1558	2,828.61	93.063	2,828.61	80.5279	2,828.61	78.6489	2,828.61	82.5911	2,828.61	88.1834	2,828.61	88.0394	2,828.61	90.2124	2,828.61	89.2405	2,828.61	91.5522	2,828.61	90.0624	2,828.61	89.4176	2,828.61	87.4318	2,828.61	86.6173	2,828.61	86.4053	2,828.61	84.7374	2,828.61	82.0406	2,828.61	75.7027	2,828.61	82.2914	2,828.61	64.7419	2,828.61	74.6197	2,828.61	72.4057	2,828.61	78.9348	2,828.61	79.7259	2,828.61	74.6864	2,828.61	77.0718	2,828.61	75.6753	2,828.61	66.7431	2,828.61	75.3952	2,828.61	72.17	2,828.61	71.6329	2,828.61	70.6487	2,828.61	74.6878	2,828.61	72.1079	2,828.61	79.2084
2,928.22	96.8561	2,928.22	93.9416	2,928.22	94.2095	2,928.22	82.5712	2,928.22	80.1618	2,928.22	85.9077	2,928.22	88.5835	2,928.22	89.2676	2,928.22	89.4192	2,928.22	89.8558	2,928.22	91.1601	2,928.22	89.8062	2,928.22	89.9359	2,928.22	87.5845	2,928.22	86.6011	2,928.22	85.5753	2,928.22	83.7585	2,928.22	84.6118	2,928.22	62.521	2,928.22	79.4795	2,928.22	68.3749	2,928.22	76.3678	2,928.22	70.4753	2,928.22	76.7608	2,928.22	79.3083	2,928.22	73.3089	2,928.22	73.5135	2,928.22	77.0733	2,928.22	64.7863	2,928.22	73.1858	2,928.22	75.1263	2,928.22	71.8321	2,928.22	71.2527	2,928.22	75.3117	2,928.22	70.4269	2,928.22	78.7867
3,030.76	96.9991	3,030.76	93.9493	3,030.76	94.6585	3,030.76	83.9632	3,030.76	82.8307	3,030.76	87.5298	3,030.76	87.7196	3,030.76	90.047	3,030.76	89.8482	3,030.76	89.936	3,030.76	90.8284	3,030.76	88.4469	3,030.76	90.2299	3,030.76	88.0562	3,030.76	88.9995	3,030.76	83.6012	3,030.76	84.3336	3,030.76	80.8148	3,030.76	78.4975	3,030.76	75.142	3,030.76	72.1849	3,030.76	78.1083	3,030.76	71.7039	3,030.76	75.494	3,030.76	75.9525	3,030.76	74.8961	3,030.76	75.0176	3,030.76	77.2803	3,030.76	60.3146	3,030.76	74.23	3,030.76	74.659	3,030.76	73.2879	3,030.76	70.5435	3,030.76	76.6393	3,030.76	67.782	3,030.76	78.9016
3,137.7	96.7913	3,137.7	93.7568	3,137.7	94.3917	3,137.7	86.0749	3,137.7	83.9882	3,137.7	89.3926	3,137.7	87.5955	3,137.7	91.2071	3,137.7	90.1077	3,137.7	90.103	3,137.7	89.797	3,137.7	88.3752	3,137.7	89.2636	3,137.7	86.4643	3,137.7	89.2409	3,137.7	84.4978	3,137.7	84.9957	3,137.7	80.2599	3,137.7	82.209	3,137.7	79.1261	3,137.7	78.2218	3,137.7	76.5615	3,137.7	71.2815	3,137.7	73.3418	3,137.7	74.667	3,137.7	73.5276	3,137.7	74.0687	3,137.7	75.0572	3,137.7	72.0324	3,137.7	73.7706	3,137.7	75.7912	3,137.7	71.4072	3,137.7	71.7293	3,137.7	77.7661	3,137.7	70.3954	3,137.7	78.0227
3,249.02	96.3005	3,249.02	93.1175	3,249.02	93.6082	3,249.02	86.0342	3,249.02	85.4327	3,249.02	91.077	3,249.02	86.9437	3,249.02	92.0005	3,249.02	88.8202	3,249.02	90.3093	3,249.02	87.4721	3,249.02	87.6437	3,249.02	89.3032	3,249.02	85.4891	3,249.02	90.7844	3,249.02	85.1436	3,249.02	88.0203	3,249.02	76.3555	3,249.02	85.2372	3,249.02	79.1909	3,249.02	79.5307	3,249.02	72.6203	3,249.02	72.2301	3,249.02	75.959	3,249.02	72.124	3,249.02	69.373	3,249.02	75.7255	3,249.02	69.1609	3,249.02	72.9417	3,249.02	72.9117	3,249.02	76.1074	3,249.02	70.6768	3,249.02	73.2421	3,249.02	77.2909	3,249.02	69.9249	3,249.02	76.6345
3,363.28	96.67	3,363.28	93.7029	3,363.28	93.0674	3,363.28	87.9122	3,363.28	86.5297	3,363.28	91.812	3,363.28	87.4559	3,363.28	92.0004	3,363.28	89.2842	3,363.28	89.9343	3,363.28	86.1543	3,363.28	85.9956	3,363.28	90.5726	3,363.28	84.2666	3,363.28	92.4264	3,363.28	81.0132	3,363.28	88.5876	3,363.28	81.3151	3,363.28	85.8958	3,363.28	79.9594	3,363.28	83.3149	3,363.28	75.649	3,363.28	71.3874	3,363.28	73.8114	3,363.28	68.6106	3,363.28	68.7062	3,363.28	76.2411	3,363.28	70.5821	3,363.28	69.3525	3,363.28	66.8438	3,363.28	74.37	3,363.28	73.1463	3,363.28	71.0121	3,363.28	73.8834	3,363.28	69.5911	3,363.28	77.4131
3,481.93	97.0885	3,481.93	94.1301	3,481.93	93.2138	3,481.93	90.6379	3,481.93	88.1616	3,481.93	92.8145	3,481.93	88.0617	3,481.93	92.1547	3,481.93	88.8714	3,481.93	88.9945	3,481.93	85.6909	3,481.93	85.8727	3,481.93	92.0219	3,481.93	83.1613	3,481.93	91.6404	3,481.93	83.8179	3,481.93	89.8208	3,481.93	79.5591	3,481.93	82.7922	3,481.93	77.7111	3,481.93	78.965	3,481.93	72.9304	3,481.93	79.2553	3,481.93	76.1711	3,481.93	63.2301	3,481.93	70.491	3,481.93	70.6885	3,481.93	69.8997	3,481.93	71.1411	3,481.93	71.4387	3,481.93	75.8212	3,481.93	70.764	3,481.93	70.4991	3,481.93	74.8835	3,481.93	69.4333	3,481.93	75.5134
3,604.98	97.0105	3,604.98	94.3202	3,604.98	92.5392	3,604.98	93.0072	3,604.98	88.9723	3,604.98	93.9318	3,604.98	90.2078	3,604.98	91.5078	3,604.98	90.8271	3,604.98	88.4642	3,604.98	89.5655	3,604.98	85.4795	3,604.98	92.3576	3,604.98	84.5708	3,604.98	91.3684	3,604.98	81.7135	3,604.98	89.939	3,604.98	82.6187	3,604.98	81.1504	3,604.98	77.396	3,604.98	81.4352	3,604.98	76.9623	3,604.98	81.5897	3,604.98	77.154	3,604.98	60.2172	3,604.98	72.7626	3,604.98	67.7721	3,604.98	70.5647	3,604.98	73.4382	3,604.98	69.8159	3,604.98	75.5574	3,604.98	67.6189	3,604.98	69.3714	3,604.98	74.7395	3,604.98	69.405	3,604.98	76.0454
3,732.42	97.4089	3,732.42	95.1415	3,732.42	93.761	3,732.42	94.3164	3,732.42	87.9671	3,732.42	94.7014	3,732.42	91.3513	3,732.42	90.9402	3,732.42	92.0543	3,732.42	88.0692	3,732.42	91.1025	3,732.42	84.2479	3,732.42	92.4399	3,732.42	85.8454	3,732.42	90.6118	3,732.42	85.5239	3,732.42	87.6981	3,732.42	80.936	3,732.42	70.6434	3,732.42	78.5669	3,732.42	81.345	3,732.42	77.2781	3,732.42	83.9128	3,732.42	77.6047	3,732.42	68.6139	3,732.42	72.028	3,732.42	69.0124	3,732.42	70.1791	3,732.42	71.7684	3,732.42	71.6485	3,732.42	72.7078	3,732.42	68.9456	3,732.42	72.6777	3,732.42	75.8528	3,732.42	69.9119	3,732.42	76.3915
3,864.26	96.2484	3,864.26	96.0056	3,864.26	93.6294	3,864.26	94.6099	3,864.26	91.5217	3,864.26	94.1009	3,864.26	93.2635	3,864.26	91.5338	3,864.26	94.4663	3,864.26	87.9041	3,864.26	92.6229	3,864.26	88.1879	3,864.26	91.8727	3,864.26	86.6084	3,864.26	92.4224	3,864.26	82.6809	3,864.26	85.7916	3,864.26	82.2656	3,864.26	76.0325	3,864.26	76.1995	3,864.26	78.763	3,864.26	78.4519	3,864.26	80.7992	3,864.26	77.225	3,864.26	69.3259	3,864.26	70.8366	3,864.26	74.1757	3,864.26	71.3224	3,864.26	72.6224	3,864.26	68.4365	3,864.26	71.8191	3,864.26	66.8118	3,864.26	73.8801	3,864.26	74.1698	3,864.26	71.6207	3,864.26	75.581
4,000.49	96.2161	4,000.49	94.8049	4,000.49	91.6009	4,000.49	95.7211	4,000.49	92.7161	4,000.49	94.811	4,000.49	94.5174	4,000.49	91.6295	4,000.49	93.7729	4,000.49	88.2033	4,000.49	92.2394	4,000.49	88.8234	4,000.49	92.5506	4,000.49	86.0672	4,000.49	91.8787	4,000.49	85.7197	4,000.49	87.127	4,000.49	80.6	4,000.49	78.6336	4,000.49	78.7291	4,000.49	72.4993	4,000.49	75.8753	4,000.49	72.4225	4,000.49	76.3391	4,000.49	70.7875	4,000.49	74.003	4,000.49	75.2575	4,000.49	63.9604	4,000.49	70.7777	4,000.49	68.9285	4,000.49	71.1671	4,000.49	69.7529	4,000.49	70.4174	4,000.49	73.2023	4,000.49	71.0431	4,000.49	74.0761
4,141.11	96.5819	4,141.11	95.6928	4,141.11	93.8188	4,141.11	96.2485	4,141.11	91.581	4,141.11	95.0197	4,141.11	95.3564	4,141.11	90.9175	4,141.11	93.8334	4,141.11	89.7783	4,141.11	90.4152	4,141.11	86.3936	4,141.11	91.5073	4,141.11	86.537	4,141.11	87.1703	4,141.11	81.9083	4,141.11	84.4815	4,141.11	82.1321	4,141.11	81.5651	4,141.11	77.0189	4,141.11	85.2642	4,141.11	74.5858	4,141.11	73.2339	4,141.11	76.6384	4,141.11	71.2945	4,141.11	73.2921	4,141.11	69.2348	4,141.11	68.88	4,141.11	74.599	4,141.11	66.1783	4,141.11	72.0713	4,141.11	66.8046	4,141.11	74.2388	4,141.11	73.7176	4,141.11	65.5062	4,141.11	75.1545
4,287.6	95.4282	4,287.6	95.6975	4,287.6	94.6213	4,287.6	95.8585	4,287.6	92.8942	4,287.6	95.3851	4,287.6	94.7677	4,287.6	91.2114	4,287.6	94.0474	4,287.6	89.736	4,287.6	89.8291	4,287.6	87.0713	4,287.6	89.1611	4,287.6	85.7411	4,287.6	87.3482	4,287.6	84.4662	4,287.6	87.7942	4,287.6	79.2256	4,287.6	86.0083	4,287.6	72.7456	4,287.6	84.6357	4,287.6	78.6861	4,287.6	77.5103	4,287.6	76.1406	4,287.6	69.4506	4,287.6	71.964	4,287.6	72.4935	4,287.6	66.0988	4,287.6	73.0263	4,287.6	68.7157	4,287.6	70.3396	4,287.6	58.8614	4,287.6	71.5185	4,287.6	73.3896	4,287.6	67.7027	4,287.6	75.2557
4,438.48	96.3085	4,438.48	95.0702	4,438.48	93.9335	4,438.48	96.6479	4,438.48	93.7645	4,438.48	94.9853	4,438.48	94.4851	4,438.48	92.9991	4,438.48	93.5449	4,438.48	88.469	4,438.48	88.1891	4,438.48	89.6763	4,438.48	82.5784	4,438.48	85.6709	4,438.48	89.4473	4,438.48	82.5693	4,438.48	89.7183	4,438.48	82.1215	4,438.48	81.2758	4,438.48	79.6364	4,438.48	77.7524	4,438.48	73.3182	4,438.48	73.0065	4,438.48	73.8446	4,438.48	71.1689	4,438.48	76.0652	4,438.48	72.2591	4,438.48	65.3088	4,438.48	68.2919	4,438.48	58.1374	4,438.48	69.0388	4,438.48	63.7401	4,438.48	70.2348	4,438.48	73.0408	4,438.48	71.8001	4,438.48	73.8761
4,595.21	95.4089	4,595.21	95.0403	4,595.21	94.3094	4,595.21	95.0098	4,595.21	93.9448	4,595.21	95.2941	4,595.21	94.3054	4,595.21	92.3812	4,595.21	93.2812	4,595.21	90.2731	4,595.21	86.718	4,595.21	85.1945	4,595.21	86.7935	4,595.21	85.8259	4,595.21	92.2669	4,595.21	83.2512	4,595.21	88.4495	4,595.21	79.2715	4,595.21	82.8035	4,595.21	77.0259	4,595.21	75.6547	4,595.21	71.3526	4,595.21	69.5624	4,595.21	76.3689	4,595.21	64.1561	4,595.21	72.41	4,595.21	72.7098	4,595.21	63.3822	4,595.21	70.7591	4,595.21	72.0049	4,595.21	69.5851	4,595.21	53.5394	4,595.21	75.3302	4,595.21	69.879	4,595.21	69.2105	4,595.21	70.4371
4,756.35	95.7358	4,756.35	95.6963	4,756.35	94.9084	4,756.35	96.0933	4,756.35	94.5682	4,756.35	95.3433	4,756.35	95.4514	4,756.35	92.7154	4,756.35	92.3732	4,756.35	89.4101	4,756.35	86.4075	4,756.35	88.0342	4,756.35	89.3596	4,756.35	83.6924	4,756.35	92.5178	4,756.35	83.6607	4,756.35	85.6855	4,756.35	79.2826	4,756.35	81.4799	4,756.35	72.5402	4,756.35	79.6435	4,756.35	75.7013	4,756.35	68.4446	4,756.35	74.5785	4,756.35	59.8888	4,756.35	70.4811	4,756.35	67.2247	4,756.35	70.1973	4,756.35	66.6695	4,756.35	66.9921	4,756.35	69.4872	4,756.35	64.4575	4,756.35	73.136	4,756.35	70.1492	4,756.35	66.6037	4,756.35	72.876
4,924.8	95.9906	4,924.8	95.7697	4,924.8	95.7482	4,924.8	95.0944	4,924.8	94.119	4,924.8	95.5213	4,924.8	95.7032	4,924.8	93.6747	4,924.8	91.8857	4,924.8	89.2018	4,924.8	86.845	4,924.8	87.8695	4,924.8	90.4038	4,924.8	85.3404	4,924.8	90.4778	4,924.8	81.3389	4,924.8	85.4905	4,924.8	78.7298	4,924.8	79.8178	4,924.8	75.2159	4,924.8	77.4117	4,924.8	70.8367	4,924.8	71.6263	4,924.8	73.1798	4,924.8	65.5016	4,924.8	73.35	4,924.8	72.6207	4,924.8	68.258	4,924.8	72.1209	4,924.8	64.5467	4,924.8	67.6811	4,924.8	66.4634	4,924.8	66.6368	4,924.8	59.051	4,924.8	65.3931	4,924.8	71.365
5,097.66	95.6756	5,097.66	95.5144	5,097.66	95.7659	5,097.66	95.3368	5,097.66	95.3163	5,097.66	94.781	5,097.66	93.6876	5,097.66	92.8354	5,097.66	92.4174	5,097.66	90.4035	5,097.66	87.2295	5,097.66	86.881	5,097.66	89.0665	5,097.66	84.5249	5,097.66	87.2839	5,097.66	81.4949	5,097.66	84.3662	5,097.66	79.8532	5,097.66	72.9242	5,097.66	72.1967	5,097.66	79.7503	5,097.66	74.5389	5,097.66	76.3959	5,097.66	72.3734	5,097.66	53.9122	5,097.66	71.5674	5,097.66	68.6413	5,097.66	67.6328	5,097.66	62.5503	5,097.66	65.2209	5,097.66	62.7431	5,097.66	64.9216	5,097.66	69.1459	5,097.66	65.8395	5,097.66	65.266	5,097.66	70.1707
5,277.83	96.2426	5,277.83	95.5273	5,277.83	95.2688	5,277.83	95.452	5,277.83	94.4862	5,277.83	95.1409	5,277.83	93.4658	5,277.83	93.3723	5,277.83	92.2859	5,277.83	90.0034	5,277.83	89.0451	5,277.83	87.6981	5,277.83	86.16	5,277.83	84.2397	5,277.83	83.4678	5,277.83	82.1596	5,277.83	85.6875	5,277.83	78.7959	5,277.83	78.8645	5,277.83	74.2824	5,277.83	80.7989	5,277.83	72.0806	5,277.83	76.6383	5,277.83	70.343	5,277.83	67.4053	5,277.83	74.3287	5,277.83	66.1688	5,277.83	67.5783	5,277.83	70.0928	5,277.83	67.6296	5,277.83	65.3289	5,277.83	64.3791	5,277.83	71.1718	5,277.83	62.5693	5,277.83	67.9632	5,277.83	66.5105
5,463.87	96.3213	5,463.87	95.7619	5,463.87	95.3228	5,463.87	95.6608	5,463.87	95.3265	5,463.87	94.7107	5,463.87	94.6261	5,463.87	93.1055	5,463.87	94.2118	5,463.87	90.132	5,463.87	90.0438	5,463.87	87.0186	5,463.87	82.596	5,463.87	85.366	5,463.87	83.7096	5,463.87	80.8822	5,463.87	85.2121	5,463.87	79.8741	5,463.87	80.3203	5,463.87	71.9725	5,463.87	81.616	5,463.87	74.071	5,463.87	73.632	5,463.87	72.4789	5,463.87	65.5723	5,463.87	73.9043	5,463.87	62.8462	5,463.87	65.3625	5,463.87	73.3387	5,463.87	66.4051	5,463.87	64.3196	5,463.87	67.6887	5,463.87	67.6523	5,463.87	40.9514	5,463.87	65.6975	5,463.87	68.0838
5,657.23	96.8213	5,657.23	95.0847	5,657.23	95.5095	5,657.23	95.9546	5,657.23	95.6457	5,657.23	94.9407	5,657.23	93.3441	5,657.23	93.6838	5,657.23	94.1424	5,657.23	90.27	5,657.23	89.6384	5,657.23	87.2232	5,657.23	82.8754	5,657.23	85.2214	5,657.23	85.7325	5,657.23	82.2097	5,657.23	84.659	5,657.23	78.8094	5,657.23	72.214	5,657.23	76.1972	5,657.23	74.9649	5,657.23	73.3148	5,657.23	66.1304	5,657.23	68.2212	5,657.23	53.5922	5,657.23	72.3963	5,657.23	66.4018	5,657.23	66.7908	5,657.23	72.3229	5,657.23	65.9085	5,657.23	63.5047	5,657.23	65.2351	5,657.23	65.0052	5,657.23	60.2297	5,657.23	66.8585	5,657.23	68.8794
5,856.45	96.3919	5,856.45	95.2803	5,856.45	95.3037	5,856.45	95.6565	5,856.45	95.4886	5,856.45	94.4786	5,856.45	92.9461	5,856.45	92.7676	5,856.45	94.0222	5,856.45	89.665	5,856.45	89.8021	5,856.45	87.1401	5,856.45	81.6831	5,856.45	85.9478	5,856.45	86.0494	5,856.45	83.3777	5,856.45	84.3664	5,856.45	79.1581	5,856.45	83.1404	5,856.45	73.7908	5,856.45	64.6024	5,856.45	71.7833	5,856.45	59.776	5,856.45	72.4438	5,856.45	66.0199	5,856.45	73.0455	5,856.45	65.5509	5,856.45	68.3499	5,856.45	69.2159	5,856.45	65.9386	5,856.45	70.8146	5,856.45	65.4952	5,856.45	60.9637	5,856.45	58.6858	5,856.45	66.8882	5,856.45	65.5317
6,062.99	97.1607	6,062.99	95.3922	6,062.99	95.8297	6,062.99	96.0851	6,062.99	96.0552	6,062.99	95.0929	6,062.99	93.2674	6,062.99	92.251	6,062.99	92.9314	6,062.99	89.7064	6,062.99	89.8739	6,062.99	88.0128	6,062.99	82.232	6,062.99	85.4796	6,062.99	88.0098	6,062.99	80.9787	6,062.99	86.1849	6,062.99	78.08	6,062.99	80.7044	6,062.99	74.914	6,062.99	78.9437	6,062.99	71.7985	6,062.99	71.5878	6,062.99	72.0211	6,062.99	69.3984	6,062.99	73.955	6,062.99	68.9341	6,062.99	68.6233	6,062.99	65.3952	6,062.99	69.2629	6,062.99	62.5555	6,062.99	68.6078	6,062.99	66.7578	6,062.99	58.1508	6,062.99	69.3296	6,062.99	64.7535
6,276.86	96.2238	6,276.86	95.6548	6,276.86	95.8635	6,276.86	95.7233	6,276.86	95.3864	6,276.86	95.2949	6,276.86	93.375	6,276.86	92.5528	6,276.86	91.7133	6,276.86	89.6162	6,276.86	89.4423	6,276.86	87.6847	6,276.86	81.0181	6,276.86	84.9445	6,276.86	88.5083	6,276.86	82.96	6,276.86	87.0466	6,276.86	79.6809	6,276.86	80.7445	6,276.86	75.0026	6,276.86	76.1628	6,276.86	70.778	6,276.86	75.3968	6,276.86	71.2755	6,276.86	67.0007	6,276.86	73.1437	6,276.86	68.5938	6,276.86	69.5586	6,276.86	59.1037	6,276.86	66.0317	6,276.86	65.3903	6,276.86	68.9196	6,276.86	69.5041	6,276.86	52.1549	6,276.86	67.4664	6,276.86	67.0549
6,498.05	96.7941	6,498.05	95.8589	6,498.05	96.1283	6,498.05	95.3547	6,498.05	95.1858	6,498.05	94.972	6,498.05	93.629	6,498.05	92.5552	6,498.05	90.7691	6,498.05	89.8737	6,498.05	90.4369	6,498.05	87.3532	6,498.05	80.9079	6,498.05	85.6655	6,498.05	89.4983	6,498.05	82.2782	6,498.05	86.4856	6,498.05	79.3996	6,498.05	80.5029	6,498.05	72.7853	6,498.05	73.5915	6,498.05	68.4235	6,498.05	72.499	6,498.05	71.5277	6,498.05	57.9884	6,498.05	74.7337	6,498.05	59.5513	6,498.05	67.6779	6,498.05	65.638	6,498.05	70.3839	6,498.05	66.1778	6,498.05	66.762	6,498.05	64.3069	6,498.05	62.102	6,498.05	62.5542	6,498.05	65.7496
6,726.56	97.1453	6,726.56	95.9703	6,726.56	96.6075	6,726.56	95.329	6,726.56	94.7638	6,726.56	94.7671	6,726.56	93.5749	6,726.56	92.2373	6,726.56	92.319	6,726.56	89.4288	6,726.56	90.5312	6,726.56	87.9431	6,726.56	84.8383	6,726.56	85.6698	6,726.56	89.4023	6,726.56	82.3456	6,726.56	83.5201	6,726.56	80.5851	6,726.56	79.5973	6,726.56	71.6245	6,726.56	73.837	6,726.56	69.3882	6,726.56	63.8238	6,726.56	72.581	6,726.56	65.1642	6,726.56	71.6374	6,726.56	68.9467	6,726.56	68.2037	6,726.56	59.0019	6,726.56	67.2251	6,726.56	66.0307	6,726.56	66.4181	6,726.56	46.2666	6,726.56	60.0009	6,726.56	66.2727	6,726.56	65.7591
6,963.87	96.6523	6,963.87	96.0421	6,963.87	96.3471	6,963.87	95.2956	6,963.87	95.2196	6,963.87	94.06	6,963.87	92.518	6,963.87	92.8718	6,963.87	93.0701	6,963.87	89.1708	6,963.87	91.0837	6,963.87	87.7646	6,963.87	85.3611	6,963.87	84.5981	6,963.87	84.4153	6,963.87	79.786	6,963.87	82.2501	6,963.87	77.4168	6,963.87	81.2951	6,963.87	72.6458	6,963.87	46.4748	6,963.87	68.5083	6,963.87	55.406	6,963.87	70.8239	6,963.87	69.4663	6,963.87	69.8614	6,963.87	67.3686	6,963.87	69.4792	6,963.87	55.0932	6,963.87	64.5847	6,963.87	68.2078	6,963.87	65.0818	6,963.87	66.5585	6,963.87	59.6688	6,963.87	65.7551	6,963.87	65.6729
7,209.96	97.1854	7,209.96	96.4542	7,209.96	95.9931	7,209.96	94.829	7,209.96	94.8318	7,209.96	94.2199	7,209.96	93.0095	7,209.96	92.6321	7,209.96	90.1495	7,209.96	89.499	7,209.96	92.5634	7,209.96	87.0571	7,209.96	83.7485	7,209.96	85.2597	7,209.96	81.5742	7,209.96	81.8209	7,209.96	87.7525	7,209.96	79.8543	7,209.96	81.0267	7,209.96	72.972	7,209.96	73.6171	7,209.96	70.9936	7,209.96	68.5134	7,209.96	69.5953	7,209.96	66.4816	7,209.96	70.9232	7,209.96	65.0575	7,209.96	68.5572	7,209.96	68.3819	7,209.96	70.0439	7,209.96	69.0864	7,209.96	67.3505	7,209.96	59.4725	7,209.96	60.0125	7,209.96	60.3046	7,209.96	65.971
7,464.84	97.2691	7,464.84	96.5468	7,464.84	96.3325	7,464.84	94.6402	7,464.84	94.9821	7,464.84	94.0827	7,464.84	92.1872	7,464.84	92.309	7,464.84	89.9844	7,464.84	89.5583	7,464.84	92.9976	7,464.84	86.8314	7,464.84	84.4122	7,464.84	84.8619	7,464.84	86.3192	7,464.84	81.9937	7,464.84	87.3113	7,464.84	76.951	7,464.84	81.7802	7,464.84	75.147	7,464.84	75.6381	7,464.84	69.8358	7,464.84	70.2133	7,464.84	65.7401	7,464.84	53.4869	7,464.84	69.5162	7,464.84	61.9126	7,464.84	69.4056	7,464.84	64.2933	7,464.84	66.4763	7,464.84	70.0372	7,464.84	68.5841	7,464.84	61.0576	7,464.84	54.7453	7,464.84	64.9312	7,464.84	66.1708
7,727.05	96.8058	7,727.05	96.7237	7,727.05	95.9657	7,727.05	94.774	7,727.05	94.8358	7,727.05	93.0281	7,727.05	93.4083	7,727.05	92.8312	7,727.05	91.7901	7,727.05	89.1492	7,727.05	92.4452	7,727.05	86.6019	7,727.05	85.5364	7,727.05	83.7665	7,727.05	87.8669	7,727.05	80.0787	7,727.05	83.3564	7,727.05	78.8408	7,727.05	78.522	7,727.05	70.8609	7,727.05	74.095	7,727.05	68.9873	7,727.05	70.4015	7,727.05	69.9243	7,727.05	60.5254	7,727.05	69.0714	7,727.05	64.5476	7,727.05	69.5054	7,727.05	64.4536	7,727.05	66.6945	7,727.05	66.8064	7,727.05	66.0196	7,727.05	62.5485	7,727.05	53.8448	7,727.05	65.8987	7,727.05	62.3157
7,999.51	96.8137	7,999.51	97.1432	7,999.51	96.559	7,999.51	94.2274	7,999.51	94.7035	7,999.51	93.265	7,999.51	92.9561	7,999.51	93.0348	7,999.51	91.8048	7,999.51	88.5605	7,999.51	90.8403	7,999.51	86.4776	7,999.51	88.7732	7,999.51	84.348	7,999.51	86.0018	7,999.51	82.2913	7,999.51	83.2144	7,999.51	78.175	7,999.51	77.4733	7,999.51	75.6208	7,999.51	75.6213	7,999.51	69.4462	7,999.51	69.7857	7,999.51	67.9574	7,999.51	65.1401	7,999.51	66.1127	7,999.51	61.307	7,999.51	70.0305	7,999.51	58.0037	7,999.51	65.6012	7,999.51	64.5975	7,999.51	68.1834	7,999.51	54.3166	7,999.51	36.4327	7,999.51	60.0221	7,999.51	65.3348
8,282.23	97.1057	8,282.23	96.6826	8,282.23	96.5275	8,282.23	94.5511	8,282.23	95.1161	8,282.23	93.1462	8,282.23	91.9054	8,282.23	92.3819	8,282.23	91.0526	8,282.23	89.2356	8,282.23	88.1356	8,282.23	86.3173	8,282.23	88.4385	8,282.23	84.7129	8,282.23	80.3932	8,282.23	80.8057	8,282.23	84.7932	8,282.23	79.2163	8,282.23	72.6336	8,282.23	71.0769	8,282.23	70.0498	8,282.23	67.6831	8,282.23	68.9808	8,282.23	69.2458	8,282.23	55.3413	8,282.23	72.5117	8,282.23	55.8041	8,282.23	72.1777	8,282.23	59.3685	8,282.23	66.57	8,282.23	62.4747	8,282.23	67.8825	8,282.23	55.8638	8,282.23	58.5505	8,282.23	57.7336	8,282.23	65.2926
8,573.73	97.4822	8,573.73	96.4966	8,573.73	96.4369	8,573.73	94.7483	8,573.73	95.404	8,573.73	93.0763	8,573.73	93.8423	8,573.73	92.4497	8,573.73	90.7899	8,573.73	89.2256	8,573.73	88.5091	8,573.73	86.3782	8,573.73	87.2991	8,573.73	84.7002	8,573.73	74.1572	8,573.73	81.0425	8,573.73	85.4378	8,573.73	77.4082	8,573.73	76.1194	8,573.73	74.5564	8,573.73	67.6281	8,573.73	66.8072	8,573.73	66.3013	8,573.73	63.5869	8,573.73	55.9547	8,573.73	68.1721	8,573.73	63.9469	8,573.73	68.2867	8,573.73	65.5759	8,573.73	68.0173	8,573.73	65.0967	8,573.73	66.7746	8,573.73	58.2165	8,573.73	51.1545	8,573.73	52.6373	8,573.73	64.2781
8,876.95	97.1479	8,876.95	96.6738	8,876.95	96.3254	8,876.95	95.2379	8,876.95	94.9407	8,876.95	93.171	8,876.95	93.1573	8,876.95	92.4262	8,876.95	90.7945	8,876.95	89.6649	8,876.95	90.6606	8,876.95	86.5842	8,876.95	86.2347	8,876.95	84.6263	8,876.95	80.3433	8,876.95	80.2282	8,876.95	83.7046	8,876.95	78.3494	8,876.95	74.8403	8,876.95	68.02	8,876.95	65.8208	8,876.95	68.8609	8,876.95	53.3692	8,876.95	70.1406	8,876.95	65.9878	8,876.95	70.7056	8,876.95	63.474	8,876.95	70.3975	8,876.95	66.9888	8,876.95	65.7667	8,876.95	64.4228	8,876.95	67.2107	8,876.95	58.3658	8,876.95	40.3906	8,876.95	60.1345	8,876.95	63.1437
9,188.96	97.2433	9,188.96	96.6428	9,188.96	96.567	9,188.96	95.2232	9,188.96	95.0322	9,188.96	93.6918	9,188.96	94.1735	9,188.96	92.0843	9,188.96	92.117	9,188.96	90.2452	9,188.96	91.0719	9,188.96	86.2368	9,188.96	85.9482	9,188.96	83.951	9,188.96	75.9248	9,188.96	79.7668	9,188.96	83.9932	9,188.96	76.1317	9,188.96	75.2518	9,188.96	74.2298	9,188.96	74.8482	9,188.96	68.3222	9,188.96	59.6948	9,188.96	62.6401	9,188.96	66.9836	9,188.96	67.4075	9,188.96	61.502	9,188.96	68.761	9,188.96	63.787	9,188.96	64.6247	9,188.96	65.0609	9,188.96	67.3165	9,188.96	61.5399	9,188.96	54.9732	9,188.96	53.5008	9,188.96	63.3718
9,514.16	97.1088	9,514.16	95.917	9,514.16	96.1538	9,514.16	95.7579	9,514.16	95.4009	9,514.16	93.8237	9,514.16	94.514	9,514.16	92.6597	9,514.16	92.5461	9,514.16	90.1927	9,514.16	90.0882	9,514.16	86.3465	9,514.16	86.4503	9,514.16	82.7415	9,514.16	78.1566	9,514.16	80.7199	9,514.16	83.7434	9,514.16	76.4032	9,514.16	76.4091	9,514.16	70.5813	9,514.16	74.6835	9,514.16	68.3908	9,514.16	62.8963	9,514.16	66.5182	9,514.16	62.7259	9,514.16	70.1004	9,514.16	52.1901	9,514.16	68.3515	9,514.16	68.2688	9,514.16	67.8134	9,514.16	61.2556	9,514.16	67.8238	9,514.16	62.7549	9,514.16	57.9684	9,514.16	54.2141	9,514.16	64.3802
9,849.61	96.9587	9,849.61	95.5908	9,849.61	96.2726	9,849.61	96.1821	9,849.61	95.197	9,849.61	94.3225	9,849.61	94.5154	9,849.61	92.8135	9,849.61	90.3093	9,849.61	90.7521	9,849.61	87.599	9,849.61	86.1054	9,849.61	87.6515	9,849.61	83.4125	9,849.61	77.8792	9,849.61	79.2346	9,849.61	84.099	9,849.61	78.6716	9,849.61	77.0776	9,849.61	73.7538	9,849.61	77.5238	9,849.61	63.2684	9,849.61	67.288	9,849.61	67.8101	9,849.61	58.9432	9,849.61	70.7979	9,849.61	63.9376	9,849.61	67.3616	9,849.61	69.6933	9,849.61	66.6285	9,849.61	51.1856	9,849.61	66.4592	9,849.61	60.8258	9,849.61	60.9839	9,849.61	56.3382	9,849.61	61.2162
10,196.8	96.3951	10,196.8	96.0911	10,196.8	96.5232	10,196.8	96.3652	10,196.8	95.6207	10,196.8	94.9756	10,196.8	95.5248	10,196.8	92.7917	10,196.8	90.2156	10,196.8	90.5427	10,196.8	88.5235	10,196.8	86.3071	10,196.8	88.0638	10,196.8	83.0298	10,196.8	81.5971	10,196.8	81.5487	10,196.8	82.1819	10,196.8	74.8221	10,196.8	70.3667	10,196.8	72.7325	10,196.8	73.8368	10,196.8	69.602	10,196.8	67.8811	10,196.8	66.7763	10,196.8	57.4003	10,196.8	70.8759	10,196.8	62.8635	10,196.8	64.3642	10,196.8	68.9948	10,196.8	65.5985	10,196.8	58.5138	10,196.8	63.8044	10,196.8	60.0981	10,196.8	64.5924	10,196.8	58.1708	10,196.8	58.0972
10,555.7	96.0636	10,555.7	95.9898	10,555.7	96.5661	10,555.7	96.3266	10,555.7	95.9897	10,555.7	95.1563	10,555.7	94.411	10,555.7	92.7816	10,555.7	91.792	10,555.7	90.0036	10,555.7	90.8014	10,555.7	87.0656	10,555.7	86.2886	10,555.7	82.6917	10,555.7	81.3883	10,555.7	80.0243	10,555.7	79.9044	10,555.7	77.7395	10,555.7	73.4594	10,555.7	70.5708	10,555.7	69.4549	10,555.7	64.8357	10,555.7	59.9837	10,555.7	66.0086	10,555.7	50.2413	10,555.7	70.9004	10,555.7	62.9869	10,555.7	66.0569	10,555.7	67.0853	10,555.7	66.1172	10,555.7	53.389	10,555.7	64.7498	10,555.7	55.8338	10,555.7	65.5734	10,555.7	53.8861	10,555.7	57.4605
10,927.7	96.0382	10,927.7	96.313	10,927.7	96.3472	10,927.7	96.3447	10,927.7	96.4302	10,927.7	95.2755	10,927.7	94.6896	10,927.7	92.2342	10,927.7	91.1365	10,927.7	89.975	10,927.7	90.7193	10,927.7	86.5407	10,927.7	84.1289	10,927.7	81.6002	10,927.7	80.6665	10,927.7	77.8473	10,927.7	76.5028	10,927.7	74.8471	10,927.7	70.1225	10,927.7	71.1064	10,927.7	71.9984	10,927.7	68.3281	10,927.7	67.2265	10,927.7	68.7093	10,927.7	53.5699	10,927.7	66.2228	10,927.7	55.3192	10,927.7	67.0667	10,927.7	59.1432	10,927.7	58.1912	10,927.7	56.3931	10,927.7	57.505	10,927.7	48.8826	10,927.7	63.7346	10,927.7	50.4969	10,927.7	58.4884
11,313	95.9163	11,313	96.8997	11,313	96.7848	11,313	96.2902	11,313	96.6316	11,313	95.0213	11,313	94.3163	11,313	92.2333	11,313	92.5679	11,313	89.5593	11,313	89.1963	11,313	86.2096	11,313	84.257	11,313	79.4451	11,313	80.3496	11,313	77.5913	11,313	65.7639	11,313	71.0441	11,313	70.2712	11,313	62.4167	11,313	70.1847	11,313	54.5698	11,313	62.8408	11,313	62.3157	11,313	46.6215	11,313	65.3324	11,313	55.3179	11,313	58.5355	11,313	62.372	11,313	67.2898	11,313	53.9189	11,313	58.7289	11,313	52.9593	11,313	64.0634	11,313	58.1835	11,313	51.7009
11,712.9	96.2051	11,712.9	97.0132	11,712.9	96.9767	11,712.9	96.2905	11,712.9	96.9054	11,712.9	94.8202	11,712.9	94.6096	11,712.9	92.1649	11,712.9	91.6303	11,712.9	89.6699	11,712.9	89.2566	11,712.9	84.7698	11,712.9	83.8162	11,712.9	77.3814	11,712.9	78.3954	11,712.9	74.6308	11,712.9	75.1928	11,712.9	72.4284	11,712.9	71.1521	11,712.9	69.6807	11,712.9	70.5257	11,712.9	63.4183	11,712.9	61.5402	11,712.9	65.4751	11,712.9	54.2081	11,712.9	61.1272	11,712.9	56.6427	11,712.9	62.834	11,712.9	62.9142	11,712.9	60.529	11,712.9	55.7938	11,712.9	51.2158	11,712.9	50.7365	11,712.9	60.2992	11,712.9	56.52	11,712.9	55.7772
12,126	95.9056	12,126	97.0624	12,126	96.7252	12,126	96.0167	12,126	96.7612	12,126	94.8593	12,126	94.5055	12,126	91.9957	12,126	92.4134	12,126	89.162	12,126	88.2019	12,126	84.3109	12,126	82.0931	12,126	75.0454	12,126	80.4595	12,126	75.0092	12,126	71.4398	12,126	70.7248	12,126	70.1058	12,126	66.9137	12,126	69.8186	12,126	59.7353	12,126	60.2489	12,126	66.5054	12,126	57.2722	12,126	59.5957	12,126	44.7284	12,126	64.1441	12,126	60.6778	12,126	58.9903	12,126	56.4616	12,126	47.9323	12,126	52.112	12,126	58.0867	12,126	57.7049	12,126	56.6251
12,553.7	96.1216	12,553.7	97.177	12,553.7	96.5802	12,553.7	95.9007	12,553.7	96.4938	12,553.7	94.628	12,553.7	94.7477	12,553.7	92.305	12,553.7	91.9114	12,553.7	88.5151	12,553.7	87.2762	12,553.7	83.7277	12,553.7	79.5437	12,553.7	77.2689	12,553.7	79.5743	12,553.7	74.1133	12,553.7	60.2005	12,553.7	65.9612	12,553.7	67.7997	12,553.7	65.5068	12,553.7	69.5702	12,553.7	55.9462	12,553.7	50.8683	12,553.7	64.897	12,553.7	44.7673	12,553.7	62.0611	12,553.7	52.5286	12,553.7	63.2138	12,553.7	53.525	12,553.7	60.6759	12,553.7	55.9829	12,553.7	54.8289	12,553.7	51.864	12,553.7	62.3982	12,553.7	57.4872	12,553.7	56.3734
12,996.1	96.7147	12,996.1	97.235	12,996.1	96.4277	12,996.1	95.9511	12,996.1	96.1347	12,996.1	94.8925	12,996.1	94.844	12,996.1	92.3368	12,996.1	91.9065	12,996.1	87.4521	12,996.1	87.5848	12,996.1	84.0345	12,996.1	83.7119	12,996.1	77.6831	12,996.1	79.5778	12,996.1	74.1466	12,996.1	69.7805	12,996.1	69.4792	12,996.1	68.0421	12,996.1	69.03	12,996.1	70.8402	12,996.1	58.6409	12,996.1	59.3774	12,996.1	64.1685	12,996.1	54.6588	12,996.1	63.7406	12,996.1	47.8227	12,996.1	61.1446	12,996.1	53.1787	12,996.1	59.6952	12,996.1	54.9638	12,996.1	49.8444	12,996.1	47.2815	12,996.1	61.4904	12,996.1	59.6623	12,996.1	55.812
13,454.6	97.2859	13,454.6	97.256	13,454.6	96.7016	13,454.6	96.1295	13,454.6	95.9734	13,454.6	94.9442	13,454.6	94.5499	13,454.6	92.0454	13,454.6	91.985	13,454.6	86.9248	13,454.6	86.1096	13,454.6	84.3118	13,454.6	84.2275	13,454.6	77.5696	13,454.6	79.5584	13,454.6	71.8329	13,454.6	67.68	13,454.6	70.5234	13,454.6	67.0732	13,454.6	68.1615	13,454.6	74.0981	13,454.6	54.6488	13,454.6	67.5659	13,454.6	57.4951	13,454.6	46.8535	13,454.6	61.3759	13,454.6	56.0213	13,454.6	55.8433	13,454.6	46.3895	13,454.6	65.136	13,454.6	58.0867	13,454.6	49.9478	13,454.6	44.4677	13,454.6	60.6848	13,454.6	58.3035	13,454.6	55.6619
13,929.2	97.6797	13,929.2	97.2076	13,929.2	96.8006	13,929.2	96.4163	13,929.2	96.1242	13,929.2	95.2078	13,929.2	94.2777	13,929.2	91.3286	13,929.2	90.886	13,929.2	87.6796	13,929.2	86.1076	13,929.2	84.659	13,929.2	82.881	13,929.2	77.4832	13,929.2	80.0692	13,929.2	72.1946	13,929.2	63.3923	13,929.2	71.7826	13,929.2	64.4953	13,929.2	62.2363	13,929.2	75.3015	13,929.2	59.1388	13,929.2	68.2796	13,929.2	62.8987	13,929.2	42.7332	13,929.2	57.0123	13,929.2	53.0994	13,929.2	63.166	13,929.2	47.7331	13,929.2	59.277	13,929.2	49.2933	13,929.2	53.5981	13,929.2	56.0717	13,929.2	62.5829	13,929.2	59.5963	13,929.2	52.4172
14,419.9	97.8396	14,419.9	96.9501	14,419.9	96.6823	14,419.9	96.392	14,419.9	96.2392	14,419.9	95.2	14,419.9	94.1725	14,419.9	90.4017	14,419.9	89.7464	14,419.9	88.1389	14,419.9	87.6732	14,419.9	84.8805	14,419.9	84.2715	14,419.9	79.789	14,419.9	79.0564	14,419.9	73.6135	14,419.9	71.3125	14,419.9	73.17	14,419.9	65.0213	14,419.9	65.4786	14,419.9	78.2546	14,419.9	61.9237	14,419.9	70.7402	14,419.9	60.5304	14,419.9	52.2766	14,419.9	57.6048	14,419.9	51.4064	14,419.9	62.4013	14,419.9	56.8131	14,419.9	66.0448	14,419.9	50.2289	14,419.9	58.5198	14,419.9	55.5085	14,419.9	59.2466	14,419.9	55.3686	14,419.9	49.1113
14,928.2	97.768	14,928.2	96.8729	14,928.2	96.5858	14,928.2	96.3169	14,928.2	96.335	14,928.2	94.7922	14,928.2	94.3396	14,928.2	89.8491	14,928.2	89.6357	14,928.2	87.1316	14,928.2	87.9158	14,928.2	84.7514	14,928.2	85.9738	14,928.2	81.0003	14,928.2	74.0997	14,928.2	72.3715	14,928.2	73.4412	14,928.2	72.8793	14,928.2	61.5997	14,928.2	65.5062	14,928.2	78.6167	14,928.2	61.0651	14,928.2	69.1233	14,928.2	59.541	14,928.2	41.1645	14,928.2	59.1533	14,928.2	47.7972	14,928.2	60.1871	14,928.2	59.3086	14,928.2	64.1803	14,928.2	50.8668	14,928.2	60.2606	14,928.2	57.0851	14,928.2	57.3894	14,928.2	53.046	14,928.2	55.2603
15,455.6	97.4688	15,455.6	96.7162	15,455.6	96.7717	15,455.6	96.0559	15,455.6	96.157	15,455.6	94.0339	15,455.6	93.9162	15,455.6	90.0238	15,455.6	89.5416	15,455.6	85.5472	15,455.6	87.1381	15,455.6	84.7916	15,455.6	84.8462	15,455.6	81.592	15,455.6	77.6736	15,455.6	71.4103	15,455.6	69.9995	15,455.6	72.5292	15,455.6	60.2558	15,455.6	65.2724	15,455.6	78.3925	15,455.6	64.311	15,455.6	68.339	15,455.6	53.7449	15,455.6	46.0798	15,455.6	58.2626	15,455.6	48.5463	15,455.6	56.3254	15,455.6	41.6337	15,455.6	62.8012	15,455.6	44.384	15,455.6	60.2896	15,455.6	52.6856	15,455.6	58.255	15,455.6	38.496	15,455.6	54.201
16,000.5	97.1436	16,000.5	96.7128	16,000.5	96.7516	16,000.5	95.8926	16,000.5	95.6672	16,000.5	93.3568	16,000.5	93.0302	16,000.5	90.0724	16,000.5	89.3453	16,000.5	84.7907	16,000.5	86.062	16,000.5	84.9461	16,000.5	85.399	16,000.5	80.8618	16,000.5	75.8856	16,000.5	73.2607	16,000.5	72.4141	16,000.5	71.3669	16,000.5	63.3676	16,000.5	64.4614	16,000.5	77.5197	16,000.5	63.6044	16,000.5	63.4792	16,000.5	55.4058	16,000.5	52.6334	16,000.5	57.0614	16,000.5	54.5473	16,000.5	57.529	16,000.5	53.5112	16,000.5	55.9508	16,000.5	45.8625	16,000.5	57.1122	16,000.5	46.6499	16,000.5	58.1375	16,000.5	44.2682	16,000.5	52.1452
16,564.5	96.9314	16,564.5	96.5384	16,564.5	96.4829	16,564.5	95.5052	16,564.5	95.0847	16,564.5	92.7385	16,564.5	92.1756	16,564.5	89.2012	16,564.5	88.5793	16,564.5	85.0894	16,564.5	85.4022	16,564.5	84.5408	16,564.5	84.4016	16,564.5	80.4702	16,564.5	77.0388	16,564.5	73.7663	16,564.5	71.2958	16,564.5	70.9457	16,564.5	53.6355	16,564.5	61.8486	16,564.5	77.5442	16,564.5	66.3578	16,564.5	66.1316	16,564.5	51.2373	16,564.5	55.7754	16,564.5	52.3625	16,564.5	52.2428	16,564.5	45.8416	16,564.5	50.6522	16,564.5	60.2031	16,564.5	42.3375	16,564.5	58.6635	16,564.5	47.0488	16,564.5	57.8458	16,564.5	47.6762	16,564.5	46.5569
17,148.9	96.8133	17,148.9	96.5318	17,148.9	96.2978	17,148.9	95.061	17,148.9	94.5285	17,148.9	92.1324	17,148.9	91.5498	17,148.9	88.0943	17,148.9	88.6453	17,148.9	84.9957	17,148.9	84.976	17,148.9	83.2737	17,148.9	83.7052	17,148.9	79.7051	17,148.9	76.9906	17,148.9	72.1763	17,148.9	68.7985	17,148.9	68.2177	17,148.9	61.8347	17,148.9	59.4862	17,148.9	77.9822	17,148.9	64.5815	17,148.9	68.6846	17,148.9	43.8399	17,148.9	54.8559	17,148.9	55.2516	17,148.9	55.7219	17,148.9	54.3182	17,148.9	43.9272	17,148.9	57.7368	17,148.9	54.8109	17,148.9	57.0264	17,148.9	51.6639	17,148.9	55.8087	17,148.9	43.7741	17,148.9	41.5264
17,752.4	96.6988	17,752.4	96.392	17,752.4	96.0605	17,752.4	94.3398	17,752.4	93.9578	17,752.4	91.2056	17,752.4	90.7314	17,752.4	86.8771	17,752.4	87.3343	17,752.4	83.8041	17,752.4	84.3956	17,752.4	81.417	17,752.4	80.4547	17,752.4	76.8645	17,752.4	73.0347	17,752.4	65.1996	17,752.4	67.2354	17,752.4	64.0672	17,752.4	62.7341	17,752.4	52.8804	17,752.4	78.8206	17,752.4	60.6617	17,752.4	68.3434	17,752.4	38.4592	17,752.4	51.4974	17,752.4	51.8585	17,752.4	55.8911	17,752.4	48.8337	17,752.4	44.808	17,752.4	57.6633	17,752.4	49.4406	17,752.4	54.3984	17,752.4	38.8035	17,752.4	51.1272	17,752.4	44.9619	17,752.4	39.859
18,379.4	96.0194	18,379.4	95.5884	18,379.4	95.4088	18,379.4	93.3159	18,379.4	93.2383	18,379.4	90.4579	18,379.4	90.0864	18,379.4	86.9155	18,379.4	86.8979	18,379.4	82.9246	18,379.4	83.5819	18,379.4	78.6958	18,379.4	77.3731	18,379.4	71.1345	18,379.4	65.7689	18,379.4	59.0999	18,379.4	59.2481	18,379.4	57.5859	18,379.4	67.327	18,379.4	49.0172	18,379.4	80.4012	18,379.4	57.1324	18,379.4	69.3808	18,379.4	45.1451	18,379.4	56.4061	18,379.4	40.6289	18,379.4	57.2247	18,379.4	48.7368	18,379.4	46.1728	18,379.4	59.6291	18,379.4	52.2592	18,379.4	50.1001	18,379.4	42.0665	18,379.4	49.4144	18,379.4	45.5743	18,379.4	23.3608
19,026.9	95.4337	19,026.9	95.0639	19,026.9	94.6495	19,026.9	92.67	19,026.9	92.2357	19,026.9	90.2686	19,026.9	90.1286	19,026.9	87.0653	19,026.9	87.0787	19,026.9	82.1749	19,026.9	82.8467	19,026.9	75.5739	19,026.9	72.0655	19,026.9	64.4649	19,026.9	61.1889	19,026.9	65.7308	19,026.9	58.2278	19,026.9	50.3113	19,026.9	67.0272	19,026.9	46.8056	19,026.9	80.9684	19,026.9	54.5141	19,026.9	69.2624	19,026.9	43.8306	19,026.9	56.4418	19,026.9	54.9201	19,026.9	54.1511	19,026.9	53.4368	19,026.9	53.3561	19,026.9	52.4722	19,026.9	49.123	19,026.9	56.8986	19,026.9	45.3367	19,026.9	54.6492	19,026.9	45.3575	19,026.9	40.2455
19,697.8	94.9649	19,697.8	94.6296	19,697.8	94.3317	19,697.8	92.3785	19,697.8	91.9097	19,697.8	90.0885	19,697.8	89.9118	19,697.8	87.146	19,697.8	86.9025	19,697.8	81.5202	19,697.8	81.7133	19,697.8	73.8412	19,697.8	70.0679	19,697.8	66.4972	19,697.8	68.0818	19,697.8	65.3302	19,697.8	63.0979	19,697.8	59.1171	19,697.8	68.0774	19,697.8	53.2866	19,697.8	80.5357	19,697.8	59.0322	19,697.8	67.4701	19,697.8	44.0903	19,697.8	52.9315	19,697.8	56.6995	19,697.8	53.6041	19,697.8	49.4192	19,697.8	52.6396	19,697.8	48.2372	19,697.8	44.7867	19,697.8	56.7449	19,697.8	53.7782	19,697.8	50.3888	19,697.8	46.5928	19,697.8	37.8429
19,999.5	94.5639	19,999.5	94.4009	19,999.5	94.1298	19,999.5	92.6055	19,999.5	91.9527	19,999.5	89.8505	19,999.5	90.1493	19,999.5	87.3207	19,999.5	86.7286	19,999.5	81.4856	19,999.5	81.6329	19,999.5	74.9162	19,999.5	74.5636	19,999.5	65.8647	19,999.5	70.5503	19,999.5	67.6542	19,999.5	62.3742	19,999.5	59.6027	19,999.5	70.1277	19,999.5	58.4523	19,999.5	80.7859	19,999.5	62.96	19,999.5	65.4185	19,999.5	60.7471	19,999.5	56.8902	19,999.5	56.7402	19,999.5	57.8402	19,999.5	56.0551	19,999.5	59.0224	19,999.5	64.1033	19,999.5	44.837	19,999.5	56.7669	19,999.5	64.1052	19,999.5	61.5841	19,999.5	61.6141	19,999.5	57.9565
