"SPL Vertical"
"On-Axis"		"10°"		"-10°"		"20°"		"-20°"		"30°"		"-30°"		"40°"		"-40°"		"50°"		"-50°"		"60°"		"-60°"		"70°"		"-70°"		"80°"		"-80°"		"90°"		"-90°"		"100°"		"-100°"		"110°"		"-110°"		"120°"		"-120°"		"130°"		"-130°"		"140°"		"-140°"		"150°"		"-150°"		"160°"		"-160°"		"170°"		"-170°"		"180°"
"Frequency / Hz"	"Sound Pressure Level / dB (re 20 µPa/V)  [2.83  V @ 1. m]"	"Frequency / Hz"	"Sound Pressure Level / dB (re 20 µPa/V)  [2.83  V @ 1. m]"	"Frequency / Hz"	"Sound Pressure Level / dB (re 20 µPa/V)  [2.83  V @ 1. m]"	"Frequency / Hz"	"Sound Pressure Level / dB (re 20 µPa/V)  [2.83  V @ 1. m]"	"Frequency / Hz"	"Sound Pressure Level / dB (re 20 µPa/V)  [2.83  V @ 1. m]"	"Frequency / Hz"	"Sound Pressure Level / dB (re 20 µPa/V)  [2.83  V @ 1. m]"	"Frequency / Hz"	"Sound Pressure Level / dB (re 20 µPa/V)  [2.83  V @ 1. m]"	"Frequency / Hz"	"Sound Pressure Level / dB (re 20 µPa/V)  [2.83  V @ 1. m]"	"Frequency / Hz"	"Sound Pressure Level / dB (re 20 µPa/V)  [2.83  V @ 1. m]"	"Frequency / Hz"	"Sound Pressure Level / dB (re 20 µPa/V)  [2.83  V @ 1. m]"	"Frequency / Hz"	"Sound Pressure Level / dB (re 20 µPa/V)  [2.83  V @ 1. m]"	"Frequency / Hz"	"Sound Pressure Level / dB (re 20 µPa/V)  [2.83  V @ 1. m]"	"Frequency / Hz"	"Sound Pressure Level / dB (re 20 µPa/V)  [2.83  V @ 1. m]"	"Frequency / Hz"	"Sound Pressure Level / dB (re 20 µPa/V)  [2.83  V @ 1. m]"	"Frequency / Hz"	"Sound Pressure Level / dB (re 20 µPa/V)  [2.83  V @ 1. m]"	"Frequency / Hz"	"Sound Pressure Level / dB (re 20 µPa/V)  [2.83  V @ 1. m]"	"Frequency / Hz"	"Sound Pressure Level / dB (re 20 µPa/V)  [2.83  V @ 1. m]"	"Frequency / Hz"	"Sound Pressure Level / dB (re 20 µPa/V)  [2.83  V @ 1. m]"	"Frequency / Hz"	"Sound Pressure Level / dB (re 20 µPa/V)  [2.83  V @ 1. m]"	"Frequency / Hz"	"Sound Pressure Level / dB (re 20 µPa/V)  [2.83  V @ 1. m]"	"Frequency / Hz"	"Sound Pressure Level / dB (re 20 µPa/V)  [2.83  V @ 1. m]"	"Frequency / Hz"	"Sound Pressure Level / dB (re 20 µPa/V)  [2.83  V @ 1. m]"	"Frequency / Hz"	"Sound Pressure Level / dB (re 20 µPa/V)  [2.83  V @ 1. m]"	"Frequency / Hz"	"Sound Pressure Level / dB (re 20 µPa/V)  [2.83  V @ 1. m]"	"Frequency / Hz"	"Sound Pressure Level / dB (re 20 µPa/V)  [2.83  V @ 1. m]"	"Frequency / Hz"	"Sound Pressure Level / dB (re 20 µPa/V)  [2.83  V @ 1. m]"	"Frequency / Hz"	"Sound Pressure Level / dB (re 20 µPa/V)  [2.83  V @ 1. m]"	"Frequency / Hz"	"Sound Pressure Level / dB (re 20 µPa/V)  [2.83  V @ 1. m]"	"Frequency / Hz"	"Sound Pressure Level / dB (re 20 µPa/V)  [2.83  V @ 1. m]"	"Frequency / Hz"	"Sound Pressure Level / dB (re 20 µPa/V)  [2.83  V @ 1. m]"	"Frequency / Hz"	"Sound Pressure Level / dB (re 20 µPa/V)  [2.83  V @ 1. m]"	"Frequency / Hz"	"Sound Pressure Level / dB (re 20 µPa/V)  [2.83  V @ 1. m]"	"Frequency / Hz"	"Sound Pressure Level / dB (re 20 µPa/V)  [2.83  V @ 1. m]"	"Frequency / Hz"	"Sound Pressure Level / dB (re 20 µPa/V)  [2.83  V @ 1. m]"	"Frequency / Hz"	"Sound Pressure Level / dB (re 20 µPa/V)  [2.83  V @ 1. m]"	"Frequency / Hz"	"Sound Pressure Level / dB (re 20 µPa/V)  [2.83  V @ 1. m]"
20.5078	62.58	20.5078	62.4703	20.5078	62.7045	20.5078	62.3775	20.5078	62.8409	20.5078	62.3035	20.5078	62.9858	20.5078	62.2495	20.5078	63.1355	20.5078	62.2166	20.5078	63.2854	20.5078	62.2053	20.5078	63.4307	20.5078	62.2158	20.5078	63.5663	20.5078	62.2483	20.5078	63.6869	20.5078	62.3021	20.5078	63.7876	20.5078	62.3765	20.5078	63.8639	20.5078	62.4701	20.5078	63.9123	20.5078	62.5814	20.5078	63.9305	20.5078	62.7079	20.5078	63.9172	20.5078	62.8467	20.5078	63.8732	20.5078	62.9944	20.5078	63.8002	20.5078	63.1467	20.5078	63.7017	20.5078	63.2989	20.5078	63.5818	20.5078	63.4458
21.9727	65.2331	21.9727	65.125	21.9727	65.3563	21.9727	65.0343	21.9727	65.492	21.9727	64.9627	21.9727	65.6367	21.9727	64.9113	21.9727	65.7866	21.9727	64.8812	21.9727	65.9373	21.9727	64.8727	21.9727	66.0839	21.9727	64.8859	21.9727	66.2213	21.9727	64.9208	21.9727	66.3441	21.9727	64.9767	21.9727	66.4473	21.9727	65.0527	21.9727	66.5264	21.9727	65.1476	21.9727	66.5775	21.9727	65.2596	21.9727	66.5982	21.9727	65.3864	21.9727	66.5873	21.9727	65.5251	21.9727	66.5451	21.9727	65.6724	21.9727	66.4737	21.9727	65.8242	21.9727	66.3763	21.9727	65.9758	21.9727	66.2574	21.9727	66.122
23.4375	67.063	23.4375	66.9561	23.4375	67.1851	23.4375	66.8668	23.4375	67.3198	23.4375	66.7965	23.4375	67.4639	23.4375	66.7465	23.4375	67.6136	23.4375	66.7178	23.4375	67.7645	23.4375	66.7106	23.4375	67.9119	23.4375	66.7253	23.4375	68.0506	23.4375	66.7615	23.4375	68.1753	23.4375	66.8188	23.4375	68.281	23.4375	66.8961	23.4375	68.3629	23.4375	66.9923	23.4375	68.4171	23.4375	67.1055	23.4375	68.4407	23.4375	67.2334	23.4375	68.4325	23.4375	67.3733	23.4375	68.3927	23.4375	67.5216	23.4375	68.323	23.4375	67.6743	23.4375	68.2267	23.4375	67.8265	23.4375	68.1083	23.4375	67.9731
24.9023	68.567	24.9023	68.4595	24.9023	68.6897	24.9023	68.3693	24.9023	68.825	24.9023	68.2982	24.9023	68.9696	24.9023	68.2473	24.9023	69.1196	24.9023	68.2174	24.9023	69.2706	24.9023	68.209	24.9023	69.4179	24.9023	68.2221	24.9023	69.5561	24.9023	68.2567	24.9023	69.68	24.9023	68.3121	24.9023	69.7842	24.9023	68.3875	24.9023	69.8642	24.9023	68.4816	24.9023	69.9159	24.9023	68.5928	24.9023	69.9367	24.9023	68.7188	24.9023	69.9255	24.9023	68.857	24.9023	69.8826	24.9023	69.0039	24.9023	69.81	24.9023	69.1557	24.9023	69.7113	24.9023	69.3077	24.9023	69.5911	24.9023	69.4547
26.3672	69.7347	26.3672	69.6286	26.3672	69.8561	26.3672	69.5399	26.3672	69.99	26.3672	69.4702	26.3672	70.1333	26.3672	69.4206	26.3672	70.2823	26.3672	69.392	26.3672	70.4324	26.3672	69.3848	26.3672	70.579	26.3672	69.399	26.3672	70.7168	26.3672	69.4344	26.3672	70.8405	26.3672	69.4905	26.3672	70.9449	26.3672	69.5664	26.3672	71.0254	26.3672	69.6608	26.3672	71.0779	26.3672	69.7719	26.3672	71.0999	26.3672	69.8976	26.3672	71.09	26.3672	70.0352	26.3672	71.0487	26.3672	70.1813	26.3672	70.9779	26.3672	70.332	26.3672	70.8811	26.3672	70.4826	26.3672	70.7627	26.3672	70.628
27.832	70.7274	27.832	70.6207	27.832	70.8494	27.832	70.5316	27.832	70.9841	27.832	70.4615	27.832	71.1282	27.832	70.4117	27.832	71.2781	27.832	70.3829	27.832	71.4291	27.832	70.3755	27.832	71.5765	27.832	70.3896	27.832	71.715	27.832	70.4248	27.832	71.8393	27.832	70.4807	27.832	71.944	27.832	70.5563	27.832	72.0244	27.832	70.6504	27.832	72.0765	27.832	70.7613	27.832	72.0978	27.832	70.8869	27.832	72.0869	27.832	71.0244	27.832	72.0444	27.832	71.1706	27.832	71.9723	27.832	71.3215	27.832	71.8741	27.832	71.4726	27.832	71.7545	27.832	71.6188
29.2969	71.4933	29.2969	71.3873	29.2969	71.6147	29.2969	71.2989	29.2969	71.7489	29.2969	71.2296	29.2969	71.8927	29.2969	71.1806	29.2969	72.0423	29.2969	71.1525	29.2969	72.1933	29.2969	71.1459	29.2969	72.3409	29.2969	71.1607	29.2969	72.4797	29.2969	71.1967	29.2969	72.6044	29.2969	71.2532	29.2969	72.7097	29.2969	71.3294	29.2969	72.7908	29.2969	71.424	29.2969	72.8439	29.2969	71.5353	29.2969	72.8661	29.2969	71.6611	29.2969	72.8562	29.2969	71.7987	29.2969	72.8146	29.2969	71.9449	29.2969	72.7434	29.2969	72.0957	29.2969	72.6461	29.2969	72.2465	29.2969	72.5272	29.2969	72.3922
30.7617	72.0898	30.7617	71.9826	30.7617	72.2125	30.7617	71.8932	30.7617	72.3482	30.7617	71.8231	30.7617	72.4936	30.7617	71.7734	30.7617	72.6448	30.7617	71.7449	30.7617	72.7975	30.7617	71.7378	30.7617	72.9466	30.7617	71.7524	30.7617	73.0869	30.7617	71.7882	30.7617	73.2128	30.7617	71.8446	30.7617	73.319	30.7617	71.9209	30.7617	73.4007	30.7617	72.0157	30.7617	73.4539	30.7617	72.1273	30.7617	73.4758	30.7617	72.2537	30.7617	73.4651	30.7617	72.3923	30.7617	73.4222	30.7617	72.5396	30.7617	73.3494	30.7617	72.6919	30.7617	73.2501	30.7617	72.8444	30.7617	73.1292	30.7617	72.9921
32.2266	72.463	32.2266	72.3564	32.2266	72.5852	32.2266	72.2678	32.2266	72.7205	32.2266	72.1985	32.2266	72.8656	32.2266	72.1497	32.2266	73.0166	32.2266	72.1222	32.2266	73.1692	32.2266	72.1162	32.2266	73.3182	32.2266	72.1319	32.2266	73.4585	32.2266	72.1687	32.2266	73.5846	32.2266	72.2262	32.2266	73.691	32.2266	72.3033	32.2266	73.7731	32.2266	72.3988	32.2266	73.8269	32.2266	72.511	32.2266	73.8495	32.2266	72.6378	32.2266	73.8398	32.2266	72.7763	32.2266	73.7981	32.2266	72.9234	32.2266	73.7266	32.2266	73.0751	32.2266	73.6288	32.2266	73.2268	32.2266	73.5093	32.2266	73.3734
33.6914	72.7607	33.6914	72.6528	33.6914	72.8843	33.6914	72.5627	33.6914	73.0208	33.6914	72.492	33.6914	73.1669	33.6914	72.4418	33.6914	73.3188	33.6914	72.413	33.6914	73.472	33.6914	72.4058	33.6914	73.6215	33.6914	72.4203	33.6914	73.7619	33.6914	72.4562	33.6914	73.8878	33.6914	72.5129	33.6914	73.9939	33.6914	72.5896	33.6914	74.0754	33.6914	72.6848	33.6914	74.1281	33.6914	72.7969	33.6914	74.1496	33.6914	72.9239	33.6914	74.1385	33.6914	73.0629	33.6914	74.0953	33.6914	73.2107	33.6914	74.0222	33.6914	73.3634	33.6914	73.9227	33.6914	73.5163	33.6914	73.8015	33.6914	73.6642
35.1562	72.8911	35.1562	72.7829	35.1562	73.0149	35.1562	72.6926	35.1562	73.1517	35.1562	72.6217	35.1562	73.2982	35.1562	72.5714	35.1562	73.4505	35.1562	72.5424	35.1562	73.6039	35.1562	72.5351	35.1562	73.7537	35.1562	72.5494	35.1562	73.8943	35.1562	72.5852	35.1562	74.0202	35.1562	72.6418	35.1562	74.1263	35.1562	72.7183	35.1562	74.2075	35.1562	72.8134	35.1562	74.26	35.1562	72.9255	35.1562	74.281	35.1562	73.0524	35.1562	74.2695	35.1562	73.1914	35.1562	74.2259	35.1562	73.3393	35.1562	74.1523	35.1562	73.4921	35.1562	74.0524	35.1562	73.6451	35.1562	73.9309	35.1562	73.7933
36.6211	72.9061	36.6211	72.7955	36.6211	73.0326	36.6211	72.7029	36.6211	73.1722	36.6211	72.63	36.6211	73.3213	36.6211	72.578	36.6211	73.4762	36.6211	72.5477	36.6211	73.632	36.6211	72.5394	36.6211	73.7839	36.6211	72.5534	36.6211	73.9263	36.6211	72.5891	36.6211	74.0537	36.6211	72.6461	36.6211	74.1607	36.6211	72.7234	36.6211	74.2424	36.6211	72.8197	36.6211	74.2947	36.6211	72.9333	36.6211	74.3152	36.6211	73.062	36.6211	74.3025	36.6211	73.2031	36.6211	74.2572	36.6211	73.3532	36.6211	74.1816	36.6211	73.5085	36.6211	74.0793	36.6211	73.6641	36.6211	73.9553	36.6211	73.815
38.0859	72.8721	38.0859	72.7638	38.0859	72.9961	38.0859	72.6734	38.0859	73.1331	38.0859	72.6025	38.0859	73.2797	38.0859	72.5522	38.0859	73.4321	38.0859	72.5231	38.0859	73.5856	38.0859	72.5158	38.0859	73.7353	38.0859	72.5301	38.0859	73.8757	38.0859	72.5657	38.0859	74.0013	38.0859	72.6219	38.0859	74.1068	38.0859	72.698	38.0859	74.1873	38.0859	72.7926	38.0859	74.239	38.0859	72.904	38.0859	74.2592	38.0859	73.0301	38.0859	74.2467	38.0859	73.1684	38.0859	74.2023	38.0859	73.3155	38.0859	74.128	38.0859	73.4677	38.0859	74.0276	38.0859	73.6202	38.0859	73.9058	38.0859	73.7682
39.5508	72.5956	39.5508	72.4867	39.5508	72.7204	39.5508	72.3958	39.5508	72.8581	39.5508	72.3244	39.5508	73.0057	39.5508	72.2737	39.5508	73.159	39.5508	72.2445	39.5508	73.3135	39.5508	72.237	39.5508	73.4641	39.5508	72.2514	39.5508	73.6055	39.5508	72.2872	39.5508	73.7321	39.5508	72.3439	39.5508	73.8386	39.5508	72.4205	39.5508	73.92	39.5508	72.5158	39.5508	73.9725	39.5508	72.6282	39.5508	73.9932	39.5508	72.7554	39.5508	73.9811	39.5508	72.8949	39.5508	73.9367	39.5508	73.0434	39.5508	73.8622	39.5508	73.1968	39.5508	73.7612	39.5508	73.3507	39.5508	73.6386	39.5508	73.4999
41.0156	72.8011	41.0156	72.6934	41.0156	72.9248	41.0156	72.6037	41.0156	73.0616	41.0156	72.5335	41.0156	73.2083	41.0156	72.4841	41.0156	73.3609	41.0156	72.4561	41.0156	73.5148	41.0156	72.4497	41.0156	73.6649	41.0156	72.465	41.0156	73.8059	41.0156	72.5016	41.0156	73.9323	41.0156	72.5588	41.0156	74.0386	41.0156	72.6356	41.0156	74.12	41.0156	72.7309	41.0156	74.1727	41.0156	72.8429	41.0156	74.1938	41.0156	72.9695	41.0156	74.1824	41.0156	73.108	41.0156	74.1388	41.0156	73.2553	41.0156	74.0654	41.0156	73.4074	41.0156	73.9658	41.0156	73.5598	41.0156	73.8446	41.0156	73.7074
42.4805	73.2349	42.4805	73.1289	42.4805	73.357	42.4805	73.0411	42.4805	73.4926	42.4805	72.973	42.4805	73.6382	42.4805	72.9256	42.4805	73.7902	42.4805	72.8995	42.4805	73.9438	42.4805	72.8951	42.4805	74.0942	42.4805	72.9121	42.4805	74.236	42.4805	72.9503	42.4805	74.3636	42.4805	73.0088	42.4805	74.4716	42.4805	73.0868	42.4805	74.5552	42.4805	73.1829	42.4805	74.6103	42.4805	73.2955	42.4805	74.6339	42.4805	73.4224	42.4805	74.6249	42.4805	73.561	42.4805	74.5837	42.4805	73.7081	42.4805	74.5122	42.4805	73.8599	42.4805	74.4143	42.4805	74.0117	42.4805	74.2945	42.4805	74.1584
43.9453	73.8105	43.9453	73.7039	43.9453	73.9332	43.9453	73.6156	43.9453	74.0694	43.9453	73.5471	43.9453	74.2158	43.9453	73.4994	43.9453	74.3685	43.9453	73.473	43.9453	74.5228	43.9453	73.4683	43.9453	74.6738	43.9453	73.4851	43.9453	74.816	43.9453	73.523	43.9453	74.9438	43.9453	73.5814	43.9453	75.0519	43.9453	73.6592	43.9453	75.1353	43.9453	73.7552	43.9453	75.1899	43.9453	73.8677	43.9453	75.213	43.9453	73.9947	43.9453	75.2033	43.9453	74.1335	43.9453	75.1612	43.9453	74.2809	43.9453	75.0889	43.9453	74.433	43.9453	74.9901	43.9453	74.5853	43.9453	74.8695	43.9453	74.7327
45.4102	74.5801	45.4102	74.4738	45.4102	74.7025	45.4102	74.3857	45.4102	74.8383	45.4102	74.3173	45.4102	74.9843	45.4102	74.2695	45.4102	75.1365	45.4102	74.2431	45.4102	75.2903	45.4102	74.2381	45.4102	75.4408	45.4102	74.2544	45.4102	75.5824	45.4102	74.2918	45.4102	75.7095	45.4102	74.3494	45.4102	75.8169	45.4102	74.4264	45.4102	75.8996	45.4102	74.5215	45.4102	75.9534	45.4102	74.633	45.4102	75.9758	45.4102	74.7589	45.4102	75.9653	45.4102	74.8967	45.4102	75.9226	45.4102	75.0432	45.4102	75.8498	45.4102	75.1945	45.4102	75.7506	45.4102	75.3462	45.4102	75.6299	45.4102	75.4932
46.875	75.4567	46.875	75.3495	46.875	75.5802	46.875	75.2605	46.875	75.7171	46.875	75.1913	46.875	75.8642	46.875	75.1428	46.875	76.0176	46.875	75.1157	46.875	76.1725	46.875	75.1102	46.875	76.3238	46.875	75.1262	46.875	76.4662	46.875	75.1631	46.875	76.5939	46.875	75.2205	46.875	76.7014	46.875	75.2972	46.875	76.7839	46.875	75.3921	46.875	76.8372	46.875	75.5036	46.875	76.8587	46.875	75.6297	46.875	76.8471	46.875	75.7677	46.875	76.803	46.875	75.9147	46.875	76.7287	46.875	76.0668	46.875	76.628	46.875	76.2195	46.875	76.5058	46.875	76.3677
48.3398	76.4198	48.3398	76.3119	48.3398	76.5442	48.3398	76.2224	48.3398	76.6822	48.3398	76.1529	48.3398	76.8305	48.3398	76.1043	48.3398	76.9851	48.3398	76.0774	48.3398	77.1413	48.3398	76.0721	48.3398	77.2938	48.3398	76.0884	48.3398	77.4372	48.3398	76.1259	48.3398	77.5657	48.3398	76.1838	48.3398	77.6738	48.3398	76.2613	48.3398	77.7566	48.3398	76.3569	48.3398	77.81	48.3398	76.4691	48.3398	77.8313	48.3398	76.5959	48.3398	77.8195	48.3398	76.7348	48.3398	77.775	48.3398	76.8825	48.3398	77.7002	48.3398	77.0353	48.3398	77.5989	48.3398	77.1886	48.3398	77.4762	48.3398	77.3375
51.2695	77.9988	51.2695	77.8945	51.2695	78.1198	51.2695	77.8091	51.2695	78.255	51.2695	77.7439	51.2695	78.401	51.2695	77.6998	51.2695	78.5539	51.2695	77.6773	51.2695	78.7089	51.2695	77.6764	51.2695	78.8608	51.2695	77.6968	51.2695	79.0043	51.2695	77.7379	51.2695	79.1335	51.2695	77.799	51.2695	79.243	51.2695	77.8788	51.2695	79.3278	51.2695	77.9759	51.2695	79.3838	51.2695	78.0888	51.2695	79.4084	51.2695	78.2152	51.2695	79.4003	51.2695	78.3527	51.2695	79.3601	51.2695	78.498	51.2695	79.2899	51.2695	78.6477	51.2695	79.1935	51.2695	78.7972	51.2695	79.0756	51.2695	78.9416
52.7344	79.0332	52.7344	78.9304	52.7344	79.1527	52.7344	78.8462	52.7344	79.2862	52.7344	78.7818	52.7344	79.4305	52.7344	78.7382	52.7344	79.5816	52.7344	78.7156	52.7344	79.7349	52.7344	78.7142	52.7344	79.8854	52.7344	78.7336	52.7344	80.0274	52.7344	78.7733	52.7344	80.1552	52.7344	78.8324	52.7344	80.2635	52.7344	78.9099	52.7344	80.3471	52.7344	79.0045	52.7344	80.402	52.7344	79.1147	52.7344	80.4255	52.7344	79.2385	52.7344	80.4164	52.7344	79.3735	52.7344	80.3753	52.7344	79.5166	52.7344	80.3044	52.7344	79.6644	52.7344	80.2076	52.7344	79.8126	52.7344	80.0897	52.7344	79.9561
54.1992	80.0226	54.1992	79.9191	54.1992	80.1428	54.1992	79.8341	54.1992	80.277	54.1992	79.7691	54.1992	80.4219	54.1992	79.7248	54.1992	80.5735	54.1992	79.7017	54.1992	80.7272	54.1992	79.6997	54.1992	80.8779	54.1992	79.7187	54.1992	81.02	54.1992	79.758	54.1992	81.1478	54.1992	79.8168	54.1992	81.2558	54.1992	79.8941	54.1992	81.3391	54.1992	79.9888	54.1992	81.3937	54.1992	80.0991	54.1992	81.4168	54.1992	80.2231	54.1992	81.4072	54.1992	80.3585	54.1992	81.3655	54.1992	80.5021	54.1992	81.2941	54.1992	80.6506	54.1992	81.1966	54.1992	80.7994	54.1992	81.078	54.1992	80.9437
55.6641	80.7814	55.6641	80.6771	55.6641	80.9027	55.6641	80.5918	55.6641	81.0386	55.6641	80.5269	55.6641	81.1856	55.6641	80.4832	55.6641	81.3398	55.6641	80.461	55.6641	81.4963	55.6641	80.4602	55.6641	81.6499	55.6641	80.4807	55.6641	81.795	55.6641	80.5216	55.6641	81.9257	55.6641	80.5823	55.6641	82.0364	55.6641	80.6616	55.6641	82.122	55.6641	80.7583	55.6641	82.1784	55.6641	80.8707	55.6641	82.2028	55.6641	80.9969	55.6641	82.194	55.6641	81.1343	55.6641	82.1525	55.6641	81.2801	55.6641	82.0808	55.6641	81.4305	55.6641	81.9826	55.6641	81.5812	55.6641	81.8629	55.6641	81.7272
58.5938	81.79	58.5938	81.6847	58.5938	81.9124	58.5938	81.5985	58.5938	82.0493	58.5938	81.5327	58.5938	82.1972	58.5938	81.4882	58.5938	82.3521	58.5938	81.4653	58.5938	82.5093	58.5938	81.4641	58.5938	82.6634	58.5938	81.4842	58.5938	82.8088	58.5938	81.5251	58.5938	82.9396	58.5938	81.5859	58.5938	83.0502	58.5938	81.6655	58.5938	83.1356	58.5938	81.7627	58.5938	83.1917	58.5938	81.8758	58.5938	83.2156	58.5938	82.0028	58.5938	83.2063	58.5938	82.1411	58.5938	83.1643	58.5938	82.2877	58.5938	83.0921	58.5938	82.4389	58.5938	82.9934	58.5938	82.5903	58.5938	82.8731	58.5938	82.7369
60.0586	82.1801	60.0586	82.0793	60.0586	82.2981	60.0586	81.9976	60.0586	82.4309	60.0586	81.9361	60.0586	82.5752	60.0586	81.8956	60.0586	82.727	60.0586	81.8763	60.0586	82.8816	60.0586	81.8781	60.0586	83.0339	60.0586	81.9006	60.0586	83.1782	60.0586	81.9431	60.0586	83.3086	60.0586	82.0047	60.0586	83.4195	60.0586	82.0844	60.0586	83.5059	60.0586	82.1808	60.0586	83.5634	60.0586	82.2922	60.0586	83.5894	60.0586	82.4167	60.0586	83.5826	60.0586	82.5519	60.0586	83.5437	60.0586	82.6949	60.0586	83.4748	60.0586	82.842	60.0586	83.3798	60.0586	82.9892	60.0586	83.2635	60.0586	83.1315
62.9883	83.0459	62.9883	82.9441	62.9883	83.1651	62.9883	82.8615	62.9883	83.2992	62.9883	82.7993	62.9883	83.4449	62.9883	82.7581	62.9883	83.598	62.9883	82.7382	62.9883	83.7538	62.9883	82.7394	62.9883	83.9069	62.9883	82.7611	62.9883	84.0515	62.9883	82.8027	62.9883	84.1817	62.9883	82.8633	62.9883	84.2918	62.9883	82.9418	62.9883	84.3767	62.9883	83.0369	62.9883	84.4323	62.9883	83.1471	62.9883	84.4559	62.9883	83.2705	62.9883	84.4465	62.9883	83.4048	62.9883	84.4049	62.9883	83.5471	62.9883	84.3335	62.9883	83.6941	62.9883	84.2362	62.9883	83.8415	62.9883	84.1181	62.9883	83.9847
64.4531	83.0168	64.4531	82.9149	64.4531	83.1365	64.4531	82.8326	64.4531	83.2714	64.4531	82.7712	64.4531	83.4182	64.4531	82.731	64.4531	83.5728	64.4531	82.7124	64.4531	83.7303	64.4531	82.7151	64.4531	83.8854	64.4531	82.7384	64.4531	84.0321	64.4531	82.7818	64.4531	84.1644	64.4531	82.8441	64.4531	84.2765	64.4531	82.9243	64.4531	84.3634	64.4531	83.0211	64.4531	84.4207	64.4531	83.1328	64.4531	84.4458	64.4531	83.2576	64.4531	84.4376	64.4531	83.3931	64.4531	84.3967	64.4531	83.5366	64.4531	84.3258	64.4531	83.6845	64.4531	84.2286	64.4531	83.8328	64.4531	84.1104	64.4531	83.9765
67.3828	81.6842	67.3828	81.5831	67.3828	81.8033	67.3828	81.502	67.3828	81.9379	67.3828	81.4417	67.3828	82.0848	67.3828	81.4029	67.3828	82.2398	67.3828	81.3856	67.3828	82.398	67.3828	81.3895	67.3828	82.5539	67.3828	81.4141	67.3828	82.7016	67.3828	81.4584	67.3828	82.8351	67.3828	81.5215	67.3828	82.9484	67.3828	81.6023	67.3828	83.0363	67.3828	81.6994	67.3828	83.0947	67.3828	81.8113	67.3828	83.1206	67.3828	81.9361	67.3828	83.1132	67.3828	82.0716	67.3828	83.0729	67.3828	82.2149	67.3828	83.0025	67.3828	82.3627	67.3828	82.9058	67.3828	82.5107	67.3828	82.7878	67.3828	82.6542
68.8477	80.8136	68.8477	80.7135	68.8477	80.9318	68.8477	80.6332	68.8477	81.0656	68.8477	80.5738	68.8477	81.2117	68.8477	80.5358	68.8477	81.366	68.8477	80.5193	68.8477	81.5236	68.8477	80.5238	68.8477	81.679	68.8477	80.5489	68.8477	81.8264	68.8477	80.5935	68.8477	81.9597	68.8477	80.6568	68.8477	82.0729	68.8477	80.7376	68.8477	82.1609	68.8477	80.8346	68.8477	82.2195	68.8477	80.9462	68.8477	82.2459	68.8477	81.0706	68.8477	82.2389	68.8477	81.2055	68.8477	82.1994	68.8477	81.3481	68.8477	82.1299	68.8477	81.495	68.8477	82.0341	68.8477	81.6421	68.8477	81.9172	68.8477	81.7846
71.7773	81.2239	71.7773	81.1256	71.7773	81.3403	71.7773	81.047	71.7773	81.4724	71.7773	80.9891	71.7773	81.6168	71.7773	80.9524	71.7773	81.7695	71.7773	80.9367	71.7773	81.9257	71.7773	80.9418	71.7773	82.0799	71.7773	80.9669	71.7773	82.2261	71.7773	81.0113	71.7773	82.3582	71.7773	81.0738	71.7773	82.4703	71.7773	81.1534	71.7773	82.5574	71.7773	81.2489	71.7773	82.6152	71.7773	81.3586	71.7773	82.641	71.7773	81.4809	71.7773	82.6338	71.7773	81.6136	71.7773	82.5944	71.7773	81.7539	71.7773	82.5253	71.7773	81.8985	71.7773	82.4305	71.7773	82.0435	71.7773	82.3149	71.7773	82.1841
74.707	81.8806	74.707	81.7855	74.707	81.9939	74.707	81.7103	74.707	82.1232	74.707	81.6556	74.707	82.2652	74.707	81.622	74.707	82.416	74.707	81.6091	74.707	82.5707	74.707	81.6166	74.707	82.7237	74.707	81.6435	74.707	82.8693	74.707	81.6892	74.707	83.0012	74.707	81.7524	74.707	83.1135	74.707	81.8322	74.707	83.2012	74.707	81.9271	74.707	83.2601	74.707	82.0359	74.707	83.2874	74.707	82.1566	74.707	83.2822	74.707	82.2872	74.707	83.2451	74.707	82.4252	74.707	83.1787	74.707	82.5671	74.707	83.0868	74.707	82.7091	74.707	82.9743	74.707	82.8466
77.6367	81.8633	77.6367	81.7699	77.6367	81.9753	77.6367	81.6966	77.6367	82.1038	77.6367	81.6442	77.6367	82.2455	77.6367	81.6129	77.6367	82.3965	77.6367	81.6023	77.6367	82.5519	77.6367	81.612	77.6367	82.7061	77.6367	81.641	77.6367	82.8531	77.6367	81.6884	77.6367	82.9867	77.6367	81.7532	77.6367	83.101	77.6367	81.8342	77.6367	83.1906	77.6367	81.9301	77.6367	83.2514	77.6367	82.0395	77.6367	83.2806	77.6367	82.1606	77.6367	83.2771	77.6367	82.2913	77.6367	83.2418	77.6367	82.4291	77.6367	83.177	77.6367	82.5706	77.6367	83.0865	77.6367	82.712	77.6367	82.9752	77.6367	82.8486
79.1016	82.1174	79.1016	82.0235	79.1016	82.2301	79.1016	81.9498	79.1016	82.3593	79.1016	81.8971	79.1016	82.5019	79.1016	81.8655	79.1016	82.6538	79.1016	81.8548	79.1016	82.8102	79.1016	81.8644	79.1016	82.9653	79.1016	81.8934	79.1016	83.1132	79.1016	81.9408	79.1016	83.2475	79.1016	82.0057	79.1016	83.3623	79.1016	82.0869	79.1016	83.4523	79.1016	82.183	79.1016	83.5132	79.1016	82.2928	79.1016	83.5423	79.1016	82.4144	79.1016	83.5386	79.1016	82.5457	79.1016	83.5027	79.1016	82.6842	79.1016	83.4372	79.1016	82.8265	79.1016	83.3459	79.1016	82.9688	79.1016	83.2338	79.1016	83.1062
82.0312	82.5119	82.0312	82.4189	82.0312	82.624	82.0312	82.3463	82.0312	82.7527	82.0312	82.2947	82.0312	82.8952	82.0312	82.2643	82.0312	83.0472	82.0312	82.2547	82.0312	83.2039	82.0312	82.2653	82.0312	83.3596	82.0312	82.2952	82.0312	83.5081	82.0312	82.3433	82.0312	83.6431	82.0312	82.4087	82.0312	83.7587	82.0312	82.4902	82.0312	83.8493	82.0312	82.5865	82.0312	83.9109	82.0312	82.6962	82.0312	83.9405	82.0312	82.8176	82.0312	83.9373	82.0312	82.9487	82.0312	83.902	82.0312	83.0869	82.0312	83.837	82.0312	83.2288	82.0312	83.7463	82.0312	83.3706	82.0312	83.6347	82.0312	83.5076
84.9609	82.4509	84.9609	82.36	84.9609	82.5608	84.9609	82.2895	84.9609	82.6878	84.9609	82.2399	84.9609	82.8288	84.9609	82.2113	84.9609	82.9797	84.9609	82.2032	84.9609	83.1356	84.9609	82.2148	84.9609	83.2909	84.9609	82.2454	84.9609	83.4395	84.9609	82.2939	84.9609	83.5748	84.9609	82.3593	84.9609	83.6909	84.9609	82.4404	84.9609	83.7824	84.9609	82.5362	84.9609	83.8449	84.9609	82.6451	84.9609	83.8757	84.9609	82.7657	84.9609	83.8737	84.9609	82.8958	84.9609	83.8397	84.9609	83.033	84.9609	83.776	84.9609	83.1739	84.9609	83.6866	84.9609	83.3146	84.9609	83.5763	84.9609	83.4505
87.8906	82.6602	87.8906	82.5699	87.8906	82.7698	87.8906	82.5002	87.8906	82.8966	87.8906	82.4514	87.8906	83.0376	87.8906	82.4235	87.8906	83.189	87.8906	82.4161	87.8906	83.3457	87.8906	82.4285	87.8906	83.502	87.8906	82.4596	87.8906	83.6518	87.8906	82.5087	87.8906	83.7885	87.8906	82.5747	87.8906	83.9061	87.8906	82.6564	87.8906	83.999	87.8906	82.7529	87.8906	84.063	87.8906	82.8627	87.8906	84.0951	87.8906	82.9842	87.8906	84.0943	87.8906	83.1154	87.8906	84.0613	87.8906	83.2536	87.8906	83.9985	87.8906	83.3955	87.8906	83.9096	87.8906	83.537	87.8906	83.7994	87.8906	83.6734
90.8203	82.5936	90.8203	82.5056	90.8203	82.7013	90.8203	82.4384	90.8203	82.8268	90.8203	82.3924	90.8203	82.9672	90.8203	82.3674	90.8203	83.1186	90.8203	82.3629	90.8203	83.276	90.8203	82.3779	90.8203	83.4338	90.8203	82.4117	90.8203	83.5857	90.8203	82.4631	90.8203	83.7251	90.8203	82.5313	90.8203	83.8457	90.8203	82.6151	90.8203	83.942	90.8203	82.7134	90.8203	84.0096	90.8203	82.8249	90.8203	84.0454	90.8203	82.9479	90.8203	84.0482	90.8203	83.0804	90.8203	84.0186	90.8203	83.2196	90.8203	83.9588	90.8203	83.362	90.8203	83.8724	90.8203	83.5036	90.8203	83.7642	90.8203	83.6394
95.2148	82.6815	95.2148	82.5966	95.2148	82.786	95.2148	82.5324	95.2148	82.9085	95.2148	82.489	95.2148	83.0461	95.2148	82.4662	95.2148	83.1952	95.2148	82.4633	95.2148	83.3509	95.2148	82.4795	95.2148	83.5077	95.2148	82.514	95.2148	83.6592	95.2148	82.5658	95.2148	83.7989	95.2148	82.634	95.2148	83.9205	95.2148	82.7177	95.2148	84.0183	95.2148	82.8158	95.2148	84.088	95.2148	82.9271	95.2148	84.1263	95.2148	83.0499	95.2148	84.132	95.2148	83.182	95.2148	84.1054	95.2148	83.3207	95.2148	84.0487	95.2148	83.4624	95.2148	83.9653	95.2148	83.6028	95.2148	83.8596	95.2148	83.737
98.1445	82.7828	98.1445	82.7013	98.1445	82.8839	98.1445	82.6403	98.1445	83.0031	98.1445	82.5999	98.1445	83.1378	98.1445	82.5796	98.1445	83.2843	98.1445	82.5789	98.1445	83.4382	98.1445	82.5968	98.1445	83.5938	98.1445	82.6325	98.1445	83.7448	98.1445	82.6852	98.1445	83.885	98.1445	82.7539	98.1445	84.0078	98.1445	82.8378	98.1445	84.1078	98.1445	82.936	98.1445	84.1802	98.1445	83.0472	98.1445	84.2219	98.1445	83.1699	98.1445	84.2313	98.1445	83.3018	98.1445	84.2087	98.1445	83.4401	98.1445	84.1557	98.1445	83.5811	98.1445	84.0758	98.1445	83.7204	98.1445	83.9731	98.1445	83.8528
101.074	82.8817	101.074	82.8047	101.074	82.9788	101.074	82.7483	101.074	83.0944	101.074	82.7125	101.074	83.2263	101.074	82.6966	101.074	83.3711	101.074	82.7001	101.074	83.5241	101.074	82.7219	101.074	83.6799	101.074	82.7613	101.074	83.8323	101.074	82.8173	101.074	83.9746	101.074	82.8892	101.074	84.1005	101.074	82.976	101.074	84.2042	101.074	83.0767	101.074	84.281	101.074	83.1902	101.074	84.3278	101.074	83.3145	101.074	84.3428	101.074	83.4474	101.074	84.326	101.074	83.5857	101.074	84.2791	101.074	83.7257	101.074	84.205	101.074	83.8627	101.074	84.1076	101.074	83.9918
105.469	82.7386	105.469	82.6639	105.469	82.8332	105.469	82.6097	105.469	82.9466	105.469	82.5758	105.469	83.0765	105.469	82.5617	105.469	83.2198	105.469	82.5667	105.469	83.3722	105.469	82.5901	105.469	83.5283	105.469	82.6309	105.469	83.682	105.469	82.6886	105.469	83.8269	105.469	82.7624	105.469	83.9564	105.469	82.8514	105.469	84.0647	105.469	82.9548	105.469	84.1468	105.469	83.0713	105.469	84.1992	105.469	83.1989	105.469	84.22	105.469	83.335	105.469	84.2086	105.469	83.4763	105.469	84.1665	105.469	83.6186	105.469	84.096	105.469	83.7571	105.469	84.0011	105.469	83.8864
108.398	82.746	108.398	82.6728	108.398	82.8389	108.398	82.6197	108.398	82.9504	108.398	82.5864	108.398	83.0788	108.398	82.5726	108.398	83.2208	108.398	82.5776	108.398	83.3725	108.398	82.6007	108.398	83.5286	108.398	82.6414	108.398	83.683	108.398	82.6991	108.398	83.8291	108.398	82.7732	108.398	83.9604	108.398	82.863	108.398	84.0708	108.398	82.9676	108.398	84.1553	108.398	83.0855	108.398	84.2101	108.398	83.2148	108.398	84.2332	108.398	83.3528	108.398	84.2241	108.398	83.4957	108.398	84.184	108.398	83.6392	108.398	84.1154	108.398	83.7784	108.398	84.0217	108.398	83.9077
112.793	82.811	112.793	82.7475	112.793	82.8935	112.793	82.7028	112.793	82.9946	112.793	82.6766	112.793	83.1127	112.793	82.668	112.793	83.2453	112.793	82.6763	112.793	83.3886	112.793	82.701	112.793	83.5376	112.793	82.7415	112.793	83.6864	112.793	82.7975	112.793	83.8283	112.793	82.8686	112.793	83.9568	112.793	82.9543	112.793	84.0657	112.793	83.0539	112.793	84.1501	112.793	83.166	112.793	84.2063	112.793	83.2887	112.793	84.2323	112.793	83.4194	112.793	84.2277	112.793	83.5544	112.793	84.1934	112.793	83.6896	112.793	84.1317	112.793	83.82	112.793	84.046	112.793	83.9405
117.188	82.704	117.188	82.6558	117.188	82.771	117.188	82.6256	117.188	82.857	117.188	82.6127	117.188	82.9612	117.188	82.6157	117.188	83.0816	117.188	82.6339	117.188	83.2149	117.188	82.6664	117.188	83.3566	117.188	82.7127	117.188	83.501	117.188	82.7727	117.188	83.6417	117.188	82.8459	117.188	83.7723	117.188	82.9321	117.188	83.8864	117.188	83.0306	117.188	83.9791	117.188	83.1403	117.188	84.0462	117.188	83.2592	117.188	84.0853	117.188	83.3845	117.188	84.0953	117.188	83.5127	117.188	84.0765	117.188	83.6393	117.188	84.0304	117.188	83.7594	117.188	83.9596	117.188	83.8678
120.117	82.6614	120.117	82.6219	120.117	82.7196	120.117	82.6002	120.117	82.7969	120.117	82.5948	120.117	82.8931	120.117	82.6048	120.117	83.0065	120.117	82.6289	120.117	83.1344	120.117	82.6666	120.117	83.2724	120.117	82.7174	120.117	83.4152	120.117	82.7811	120.117	83.5565	120.117	82.8575	120.117	83.6898	120.117	82.9463	120.117	83.8089	120.117	83.0468	120.117	83.9086	120.117	83.1578	120.117	83.9845	120.117	83.2771	120.117	84.0337	120.117	83.4018	120.117	84.0546	120.117	83.528	120.117	84.047	120.117	83.6511	120.117	84.0117	120.117	83.7659	120.117	83.9507	120.117	83.8674
124.512	82.6413	124.512	82.61	124.512	82.6912	124.512	82.5958	124.512	82.7604	124.512	82.5973	124.512	82.8492	124.512	82.613	124.512	82.9563	124.512	82.6418	124.512	83.0793	124.512	82.6831	124.512	83.2142	124.512	82.7364	124.512	83.3559	124.512	82.8015	124.512	83.4981	124.512	82.8786	124.512	83.6344	124.512	82.9674	124.512	83.7583	124.512	83.0674	124.512	83.8643	124.512	83.1774	124.512	83.9477	124.512	83.2954	124.512	84.005	124.512	83.4185	124.512	84.0341	124.512	83.5427	124.512	84.0342	124.512	83.6633	124.512	84.0059	124.512	83.775	124.512	83.9509	124.512	83.8726
128.906	82.5221	128.906	82.4993	128.906	82.5641	128.906	82.4938	128.906	82.6265	128.906	82.5039	128.906	82.7098	128.906	82.5279	128.906	82.8132	128.906	82.5646	128.906	82.9346	128.906	82.613	128.906	83.0701	128.906	82.6728	128.906	83.2146	128.906	82.7439	128.906	83.3621	128.906	82.8264	128.906	83.5057	128.906	82.9201	128.906	83.639	128.906	83.0246	128.906	83.7559	128.906	83.1387	128.906	83.8512	128.906	83.2603	128.906	83.921	128.906	83.3862	128.906	83.9624	128.906	83.512	128.906	83.974	128.906	83.6328	128.906	83.9557	128.906	83.7429	128.906	83.909	128.906	83.8367
133.301	82.4	133.301	82.387	133.301	82.4326	133.301	82.3913	133.301	82.4864	133.301	82.4108	133.301	82.5623	133.301	82.4435	133.301	82.6601	133.301	82.4881	133.301	82.7778	133.301	82.5436	133.301	82.912	133.301	82.6095	133.301	83.0577	133.301	82.6858	133.301	83.2088	133.301	82.7725	133.301	83.3585	133.301	82.8697	133.301	83.4998	133.301	82.9769	133.301	83.6263	133.301	83.0929	133.301	83.7325	133.301	83.2155	133.301	83.8137	133.301	83.3413	133.301	83.8667	133.301	83.466	133.301	83.8894	133.301	83.5842	133.301	83.8812	133.301	83.6902	133.301	83.8433	133.301	83.7783
139.16	82.2391	139.16	82.2399	139.16	82.2579	139.16	82.2576	139.16	82.2984	139.16	82.2896	139.16	82.3623	139.16	82.3337	139.16	82.4497	139.16	82.3884	139.16	82.5594	139.16	82.4526	139.16	82.6885	139.16	82.526	139.16	82.8322	139.16	82.6084	139.16	82.9846	139.16	82.7	139.16	83.1389	139.16	82.801	139.16	83.2881	139.16	82.9109	139.16	83.4254	139.16	83.0283	139.16	83.5448	139.16	83.1509	139.16	83.6413	139.16	83.2751	139.16	83.7106	139.16	83.3961	139.16	83.75	139.16	83.5085	139.16	83.7582	139.16	83.6062	139.16	83.7353	139.16	83.6834
143.555	82.1147	143.555	82.1291	143.555	82.1199	143.555	82.1601	143.555	82.1477	143.555	82.2047	143.555	82.2002	143.555	82.2603	143.555	82.2784	143.555	82.3253	143.555	82.3815	143.555	82.3985	143.555	82.507	143.555	82.4794	143.555	82.6505	143.555	82.5681	143.555	82.806	143.555	82.6649	143.555	82.9667	143.555	82.7699	143.555	83.1252	143.555	82.8825	143.555	83.2742	143.555	83.0014	143.555	83.4073	143.555	83.1242	143.555	83.5186	143.555	83.247	143.555	83.6034	143.555	83.3649	143.555	83.6582	143.555	83.4722	143.555	83.6809	143.555	83.5627	143.555	83.6712	143.555	83.6307
147.949	81.9788	147.949	82.0054	147.949	81.9719	147.949	82.0483	147.949	81.9882	147.949	82.1041	147.949	82.0303	147.949	82.1701	147.949	82.0997	147.949	82.2444	147.949	82.1962	147.949	82.3258	147.949	82.3176	147.949	82.4138	147.949	82.4599	147.949	82.5086	147.949	82.6171	147.949	82.6105	147.949	82.7824	147.949	82.7195	147.949	82.9483	147.949	82.8351	147.949	83.1073	147.949	82.9558	147.949	83.2525	147.949	83.0791	147.949	83.3776	147.949	83.2008	147.949	83.4771	147.949	83.3157	147.949	83.5469	147.949	83.4178	147.949	83.5841	147.949	83.5009	147.949	83.5879	147.949	83.5591
153.809	81.7073	153.809	81.7562	153.809	81.6788	153.809	81.8211	153.809	81.6751	153.809	81.8978	153.809	81.6998	153.809	81.983	153.809	81.7554	153.809	82.0745	153.809	81.8423	153.809	82.1708	153.809	81.959	153.809	82.2714	153.809	82.1015	153.809	82.3764	153.809	82.2641	153.809	82.4861	153.809	82.4395	153.809	82.6006	153.809	82.6196	153.809	82.7195	153.809	82.7964	153.809	82.8411	153.809	82.962	153.809	82.9627	153.809	83.1091	153.809	83.0802	153.809	83.2315	153.809	83.1883	153.809	83.3238	153.809	83.2809	153.809	83.3826	153.809	83.3517	153.809	83.4061	153.809	83.3949
159.668	81.561	159.668	81.624	159.668	81.5173	159.668	81.7014	159.668	81.4978	159.668	81.7887	159.668	81.5071	159.668	81.8825	159.668	81.5482	159.668	81.9801	159.668	81.6226	159.668	82.0803	159.668	81.7295	159.668	82.1826	159.668	81.8655	159.668	82.2872	159.668	82.0254	159.668	82.3946	159.668	82.2018	159.668	82.5052	159.668	82.3866	159.668	82.6188	159.668	82.5709	159.668	82.7341	159.668	82.7461	159.668	82.8488	159.668	82.9041	159.668	82.9589	159.668	83.0377	159.668	83.0593	159.668	83.1411	159.668	83.1441	159.668	83.2104	159.668	83.2067	159.668	83.2436	159.668	83.2415
165.527	81.391	165.527	81.473	165.527	81.3267	165.527	81.5672	165.527	81.2857	165.527	81.6689	165.527	81.2733	165.527	81.7743	165.527	81.2939	165.527	81.8808	165.527	81.3498	165.527	81.9871	165.527	81.4413	165.527	82.0926	165.527	81.5661	165.527	82.1978	165.527	81.7192	165.527	82.3034	165.527	81.8938	165.527	82.4098	165.527	82.0813	165.527	82.5171	165.527	82.2725	165.527	82.6242	165.527	82.4582	165.527	82.7288	165.527	82.6294	165.527	82.8273	165.527	82.7782	165.527	82.9147	165.527	82.8982	165.527	82.985	165.527	82.9848	165.527	83.0322	165.527	83.0355	165.527	83.0505
171.387	81.0848	171.387	81.1775	171.387	81.0088	171.387	81.2814	171.387	80.9555	171.387	81.3915	171.387	80.9305	171.387	81.5039	171.387	80.9384	171.387	81.6159	171.387	80.9824	171.387	81.726	171.387	81.0633	171.387	81.8336	171.387	81.1795	171.387	81.939	171.387	81.3267	171.387	82.0428	171.387	81.4981	171.387	82.1456	171.387	81.6854	171.387	82.2477	171.387	81.8792	171.387	82.3482	171.387	82.0698	171.387	82.445	171.387	82.2481	171.387	82.5349	171.387	82.4055	171.387	82.613	171.387	82.5351	171.387	82.6736	171.387	82.6319	171.387	82.7107	171.387	82.6932	171.387	82.7187
177.246	80.7684	177.246	80.8636	177.246	80.6891	177.246	80.9692	177.246	80.6311	177.246	81.0808	177.246	80.5996	177.246	81.1944	177.246	80.5993	177.246	81.3075	177.246	80.6333	177.246	81.4183	177.246	80.703	177.246	81.5262	177.246	80.8074	177.246	81.6314	177.246	80.943	177.246	81.7344	177.246	81.1041	177.246	81.8357	177.246	81.2833	177.246	81.9356	177.246	81.4718	177.246	82.0329	177.246	81.6607	177.246	82.1257	177.246	81.8409	177.246	82.2103	177.246	82.0039	177.246	82.2819	177.246	82.142	177.246	82.3344	177.246	82.2494	177.246	82.362	177.246	82.3222	177.246	82.3592
183.105	80.2931	183.105	80.4063	183.105	80.1971	183.105	80.5307	183.105	80.1242	183.105	80.6612	183.105	80.0801	183.105	80.7933	183.105	80.0694	183.105	80.9235	183.105	80.0958	183.105	81.0499	183.105	80.1608	183.105	81.1713	183.105	80.2639	183.105	81.2879	183.105	80.402	183.105	81.4001	183.105	80.57	183.105	81.5084	183.105	80.7606	183.105	81.6132	183.105	80.9652	183.105	81.7135	183.105	81.1742	183.105	81.8072	183.105	81.3775	183.105	81.8906	183.105	81.5653	183.105	81.9585	183.105	81.7282	183.105	82.0046	183.105	81.8588	183.105	82.0224	183.105	81.9521	183.105	82.0063
188.965	79.7692	188.965	79.9046	188.965	79.6523	188.965	80.0515	188.965	79.561	188.965	80.2035	188.965	79.5016	188.965	80.355	188.965	79.4797	188.965	80.502	188.965	79.4989	188.965	80.6417	188.965	79.5612	188.965	80.773	188.965	79.6659	188.965	80.8957	188.965	79.8097	188.965	81.0104	188.965	79.9869	188.965	81.118	188.965	80.1895	188.965	81.2192	188.965	80.4077	188.965	81.3135	188.965	80.6311	188.965	81.3993	188.965	80.849	188.965	81.4734	188.965	81.0508	188.965	81.5308	188.965	81.2273	188.965	81.5657	188.965	81.371	188.965	81.5718	188.965	81.477	188.965	81.5435
196.289	79.2315	196.289	79.379	196.289	79.1002	196.289	79.5352	196.289	78.992	196.289	79.6937	196.289	78.9138	196.289	79.8489	196.289	78.8715	196.289	79.9967	196.289	78.8691	196.289	80.1345	196.289	78.9092	196.289	80.2611	196.289	78.9916	196.289	80.3765	196.289	79.1135	196.289	80.4816	196.289	79.2698	196.289	80.5773	196.289	79.4534	196.289	80.6645	196.289	79.6558	196.289	80.7427	196.289	79.8679	196.289	80.8105	196.289	80.0804	196.289	80.8646	196.289	80.2837	196.289	80.9004	196.289	80.4688	196.289	80.9121	196.289	80.6273	196.289	80.8942	196.289	80.7528	196.289	80.842
203.613	78.4713	203.613	78.6425	203.613	78.3174	203.613	78.8226	203.613	78.1893	203.613	79.0038	203.613	78.0944	203.613	79.1796	203.613	78.0386	203.613	79.3452	203.613	78.0263	203.613	79.4976	203.613	78.0595	203.613	79.6358	203.613	78.1379	203.613	79.7599	203.613	78.2591	203.613	79.8712	203.613	78.4186	203.613	79.9711	203.613	78.6104	203.613	80.0608	203.613	78.8268	203.613	80.14	203.613	79.0592	203.613	80.2074	203.613	79.2975	203.613	80.2593	203.613	79.5304	203.613	80.2905	203.613	79.7463	203.613	80.2947	203.613	79.9344	203.613	80.2653	203.613	80.0861	203.613	80.1967
210.938	78.131	210.938	78.2986	210.938	77.9755	210.938	78.4705	210.938	77.8401	210.938	78.6395	210.938	77.7322	210.938	78.7999	210.938	77.6583	210.938	78.9474	210.938	77.6233	210.938	79.0799	210.938	77.6304	210.938	79.1965	210.938	77.6806	210.938	79.2981	210.938	77.7727	210.938	79.3861	210.938	77.9033	210.938	79.4625	210.938	78.0671	210.938	79.5286	210.938	78.2574	210.938	79.5849	210.938	78.4659	210.938	79.6305	210.938	78.6836	210.938	79.6624	210.938	78.8999	210.938	79.6761	210.938	79.104	210.938	79.6656	210.938	79.2853	210.938	79.6249	210.938	79.4353	210.938	79.5489
218.262	77.4424	218.262	77.6365	218.262	77.2626	218.262	77.835	218.262	77.1068	218.262	78.0288	218.262	76.9836	218.262	78.2107	218.262	76.8992	218.262	78.3755	218.262	76.8573	218.262	78.5203	218.262	76.8584	218.262	78.6444	218.262	76.901	218.262	78.7488	218.262	76.9817	218.262	78.8354	218.262	77.0961	218.262	78.9067	218.262	77.2405	218.262	78.9645	218.262	77.4114	218.262	79.0096	218.262	77.6059	218.262	79.041	218.262	77.8196	218.262	79.0554	218.262	78.0452	218.262	79.0475	218.262	78.2716	218.262	79.0106	218.262	78.4854	218.262	78.9384	218.262	78.6736	218.262	78.8261
225.586	77.007	225.586	77.1921	225.586	76.8219	225.586	77.3702	225.586	76.6451	225.586	77.5358	225.586	76.4856	225.586	77.6855	225.586	76.3519	225.586	77.8177	225.586	76.2516	225.586	77.9326	225.586	76.1906	225.586	78.0321	225.586	76.1733	225.586	78.1188	225.586	76.2025	225.586	78.196	225.586	76.2808	225.586	78.2669	225.586	76.4101	225.586	78.3333	225.586	76.5908	225.586	78.3953	225.586	76.8199	225.586	78.4505	225.586	77.088	225.586	78.4928	225.586	77.3786	225.586	78.5132	225.586	77.6694	225.586	78.5005	225.586	77.9369	225.586	78.443	225.586	78.1616	225.586	78.3315
232.91	77.2517	232.91	77.3834	232.91	77.1079	232.91	77.5005	232.91	76.9558	232.91	77.602	232.91	76.8007	232.91	77.6879	232.91	76.6496	232.91	77.7597	232.91	76.5107	232.91	77.8198	232.91	76.3936	232.91	77.8714	232.91	76.3084	232.91	77.9184	232.91	76.2654	232.91	77.9644	232.91	76.2739	232.91	78.0125	232.91	76.3409	232.91	78.0637	232.91	76.4698	232.91	78.1168	232.91	76.6574	232.91	78.1675	232.91	76.8931	232.91	78.2084	232.91	77.1582	232.91	78.2292	232.91	77.429	232.91	78.2181	232.91	77.6813	232.91	78.1636	232.91	77.8948	232.91	78.0569
241.699	77.2782	241.699	77.4178	241.699	77.1277	241.699	77.5433	241.699	76.9703	241.699	77.6522	241.699	76.8108	241.699	77.7435	241.699	76.6543	241.699	77.8174	241.699	76.507	241.699	77.8753	241.699	76.3756	241.699	77.92	241.699	76.268	241.699	77.9547	241.699	76.1927	241.699	77.9827	241.699	76.1588	241.699	78.0066	241.699	76.1755	241.699	78.0273	241.699	76.2502	241.699	78.0437	241.699	76.3857	241.699	78.0525	241.699	76.5775	241.699	78.0478	241.699	76.8116	241.699	78.022	241.699	77.0664	241.699	77.9659	241.699	77.3178	241.699	77.8708	241.699	77.5441	241.699	77.7305
250.488	77.3712	250.488	77.52	250.488	77.2159	250.488	77.6578	250.488	77.0583	250.488	77.7806	250.488	76.9022	250.488	77.8855	250.488	76.7512	250.488	77.971	250.488	76.6087	250.488	78.0372	250.488	76.4788	250.488	78.0858	250.488	76.367	250.488	78.1195	250.488	76.2807	250.488	78.1414	250.488	76.2301	250.488	78.1546	250.488	76.227	250.488	78.161	250.488	76.283	250.488	78.1612	250.488	76.4055	250.488	78.1537	250.488	76.5921	250.488	78.1345	250.488	76.829	250.488	78.0968	250.488	77.092	250.488	78.0317	250.488	77.3533	250.488	77.9296	250.488	77.5889	250.488	77.7829
259.277	77.6189	259.277	77.7764	259.277	77.4513	259.277	77.9192	259.277	77.2784	259.277	78.0432	259.277	77.1048	259.277	78.1456	259.277	76.9345	259.277	78.2252	259.277	76.771	259.277	78.2821	259.277	76.6185	259.277	78.3181	259.277	76.4818	259.277	78.336	259.277	76.3682	259.277	78.3392	259.277	76.288	259.277	78.3307	259.277	76.2543	259.277	78.313	259.277	76.2812	259.277	78.2871	259.277	76.3786	259.277	78.2522	259.277	76.547	259.277	78.2052	259.277	76.7736	259.277	78.1403	259.277	77.0345	259.277	78.0496	259.277	77.3009	259.277	77.9243	259.277	77.5475	259.277	77.7575
268.066	77.9461	268.066	78.0788	268.066	77.8033	268.066	78.1981	268.066	77.653	268.066	78.3006	268.066	77.497	268.066	78.3831	268.066	77.3366	268.066	78.4433	268.066	77.1733	268.066	78.4801	268.066	77.0093	268.066	78.494	268.066	76.8488	268.066	78.4863	268.066	76.6986	268.066	78.4594	268.066	76.5689	268.066	78.4159	268.066	76.4737	268.066	78.3583	268.066	76.4294	268.066	78.2886	268.066	76.4501	268.066	78.2078	268.066	76.5426	268.066	78.1154	268.066	76.7006	268.066	78.0092	268.066	76.9058	268.066	77.8846	268.066	77.1325	268.066	77.7365	268.066	77.3564	268.066	77.5603
276.855	78.1538	276.855	78.2696	276.855	78.0376	276.855	78.3818	276.855	77.9211	276.855	78.4852	276.855	77.8016	276.855	78.5737	276.855	77.6745	276.855	78.642	276.855	77.535	276.855	78.6863	276.855	77.3804	276.855	78.7047	276.855	77.2113	276.855	78.6974	276.855	77.0338	276.855	78.666	276.855	76.8599	276.855	78.6132	276.855	76.7088	276.855	78.5421	276.855	76.6043	276.855	78.4562	276.855	76.5704	276.855	78.3581	276.855	76.622	276.855	78.249	276.855	76.7577	276.855	78.1278	276.855	76.9574	276.855	77.9903	276.855	77.1903	276.855	77.8302	276.855	77.4256	276.855	77.6421
287.109	78.3675	287.109	78.5437	287.109	78.1906	287.109	78.7088	287.109	78.0209	287.109	78.8525	287.109	77.862	287.109	78.9667	287.109	77.7123	287.109	79.0459	287.109	77.566	287.109	79.0883	287.109	77.4154	287.109	79.0946	287.109	77.2546	287.109	79.0678	287.109	77.0828	287.109	79.012	287.109	76.9071	287.109	78.9319	287.109	76.7439	287.109	78.8319	287.109	76.6185	287.109	78.7155	287.109	76.5592	287.109	78.5852	287.109	76.588	287.109	78.4412	287.109	76.7098	287.109	78.2819	287.109	76.9092	287.109	78.1033	287.109	77.1563	287.109	77.9006	287.109	77.4186	287.109	77.6712
297.363	78.9798	297.363	79.1502	297.363	78.787	297.363	79.2899	297.363	78.5805	297.363	79.3927	297.363	78.3677	297.363	79.4548	297.363	78.1526	297.363	79.4753	297.363	77.9352	297.363	79.4557	297.363	77.7119	297.363	79.3989	297.363	77.4772	297.363	79.3086	297.363	77.2271	297.363	79.1881	297.363	76.9626	297.363	79.0401	297.363	76.6935	297.363	78.8656	297.363	76.441	297.363	78.665	297.363	76.237	297.363	78.4384	297.363	76.1174	297.363	78.1866	297.363	76.1089	297.363	77.9116	297.363	76.2164	297.363	77.6171	297.363	76.4212	297.363	77.3087	297.363	76.6914	297.363	76.9952
307.617	79.3613	307.617	79.5336	307.617	79.1595	307.617	79.6698	307.617	78.9356	307.617	79.7647	307.617	78.6957	307.617	79.8153	307.617	78.4433	307.617	79.8207	307.617	78.1781	307.617	79.7823	307.617	77.8964	307.617	79.7027	307.617	77.5924	307.617	79.5849	307.617	77.2613	307.617	79.4316	307.617	76.9032	307.617	79.2446	307.617	76.5285	307.617	79.0243	307.617	76.1627	307.617	78.7703	307.617	75.8481	307.617	78.4827	307.617	75.6371	307.617	78.1626	307.617	75.574	307.617	77.8125	307.617	75.674	307.617	77.4369	307.617	75.9156	307.617	77.0425	307.617	76.2537	307.617	76.641
319.336	79.6116	319.336	79.7928	319.336	79.3986	319.336	79.9348	319.336	79.1621	319.336	80.0326	319.336	78.9093	319.336	80.0838	319.336	78.6445	319.336	80.0886	319.336	78.3667	319.336	80.049	319.336	78.0695	319.336	79.9678	319.336	77.7422	319.336	79.8479	319.336	77.3733	319.336	79.6907	319.336	76.9556	319.336	79.4958	319.336	76.4942	319.336	79.2607	319.336	76.0154	319.336	78.9818	319.336	75.574	319.336	78.6554	319.336	75.2484	319.336	78.2803	319.336	75.1141	319.336	77.8583	319.336	75.2044	319.336	77.3956	319.336	75.4923	319.336	76.9033	319.336	75.9126	319.336	76.399
329.59	79.8045	329.59	79.9618	329.59	79.6105	329.59	80.0788	329.59	79.3847	329.59	80.1529	329.59	79.1317	329.59	80.1829	329.59	78.8546	329.59	80.1689	329.59	78.5533	329.59	80.1115	329.59	78.223	329.59	80.0116	329.59	77.8551	329.59	79.8699	329.59	77.4388	329.59	79.6856	329.59	76.9667	329.59	79.4565	329.59	76.4421	329.59	79.1784	329.59	75.8899	329.59	78.8467	329.59	75.365	329.59	78.4578	329.59	74.9505	329.59	78.0119	329.59	74.7316	329.59	77.5156	329.59	74.7525	329.59	76.9823	329.59	74.9941	329.59	76.4321	329.59	75.3955	329.59	75.8915
341.309	79.9817	341.309	80.1277	341.309	79.806	341.309	80.2401	341.309	79.6039	341.309	80.3154	341.309	79.3775	341.309	80.3503	341.309	79.1262	341.309	80.3425	341.309	78.8457	341.309	80.2896	341.309	78.5274	341.309	80.1898	341.309	78.1586	341.309	80.0408	341.309	77.7256	341.309	79.8397	341.309	77.2179	341.309	79.5829	341.309	76.6362	341.309	79.2664	341.309	76.0041	341.309	78.8867	341.309	75.3806	341.309	78.4434	341.309	74.862	341.309	77.9406	341.309	74.5543	341.309	77.3895	341.309	74.519	341.309	76.8082	341.309	74.7381	341.309	76.22	341.309	75.1407	341.309	75.6523
353.027	80.1132	353.027	80.2467	353.027	79.9471	353.027	80.3443	353.027	79.7516	353.027	80.4036	353.027	79.53	353.027	80.4223	353.027	79.2832	353.027	80.3983	353.027	79.0082	353.027	80.3292	353.027	78.6968	353.027	80.2122	353.027	78.336	353.027	80.044	353.027	77.9097	353.027	79.82	353.027	77.4035	353.027	79.5342	353.027	76.8114	353.027	79.1797	353.027	76.1458	353.027	78.7496	353.027	75.4491	353.027	78.2394	353.027	74.8012	353.027	77.6513	353.027	74.3099	353.027	76.9973	353.027	74.0729	353.027	76.3033	353.027	74.1305	353.027	75.6099	353.027	74.4529	353.027	74.971
366.211	80.6032	366.211	80.6926	366.211	80.4642	366.211	80.7314	366.211	80.2794	366.211	80.7209	366.211	80.0541	366.211	80.6646	366.211	79.7932	366.211	80.5659	366.211	79.4974	366.211	80.4276	366.211	79.1619	366.211	80.2501	366.211	78.7746	366.211	80.031	366.211	78.3171	366.211	79.7642	366.211	77.7678	366.211	79.4398	366.211	77.107	366.211	79.0444	366.211	76.326	366.211	78.563	366.211	75.4426	366.211	77.9825	366.211	74.5237	366.211	77.297	366.211	73.7036	366.211	76.5137	366.211	73.1643	366.211	75.6604	366.211	73.0462	366.211	74.7896	366.211	73.3559	366.211	73.9833
379.395	80.4619	379.395	80.5612	379.395	80.3112	379.395	80.6104	379.395	80.11	379.395	80.6123	379.395	79.8618	379.395	80.5701	379.395	79.5711	379.395	80.4865	379.395	79.2408	379.395	80.3629	379.395	78.8687	379.395	80.1996	379.395	78.4445	379.395	79.9948	379.395	77.9487	379.395	79.7443	379.395	77.3553	379.395	79.4408	379.395	76.6384	379.395	79.0733	379.395	75.7845	379.395	78.6277	379.395	74.8142	379.395	78.0876	379.395	73.8118	379.395	77.4385	379.395	72.9515	379.395	76.6729	379.395	72.4664	379.395	75.7982	379.395	72.513	379.395	74.8463	379.395	73.0481	379.395	73.8876
392.578	80.3924	392.578	80.4634	392.578	80.2705	392.578	80.4872	392.578	80.0959	392.578	80.4681	392.578	79.8688	392.578	80.4101	392.578	79.5907	392.578	80.3155	392.578	79.2618	392.578	80.1843	392.578	78.8783	392.578	80.0142	392.578	78.4288	392.578	79.8006	392.578	77.8926	392.578	79.5355	392.578	77.2407	392.578	79.2078	392.578	76.4407	392.578	78.8013	392.578	75.4687	392.578	78.2954	392.578	74.33	392.578	77.6662	392.578	73.0934	392.578	76.8904	392.578	71.9333	392.578	75.9531	392.578	71.1346	392.578	74.8609	392.578	70.968	392.578	73.661	392.578	71.4795	392.578	72.4667
405.762	80.1889	405.762	80.2777	405.762	80.0583	405.762	80.3215	405.762	79.8911	405.762	80.32	405.762	79.6919	405.762	80.2751	405.762	79.4614	405.762	80.1895	405.762	79.1929	405.762	80.0654	405.762	78.8712	405.762	79.9023	405.762	78.4734	405.762	79.6966	405.762	77.9711	405.762	79.4405	405.762	77.3336	405.762	79.1212	405.762	76.5333	405.762	78.7209	405.762	75.5538	405.762	78.2177	405.762	74.408	405.762	77.5866	405.762	73.1683	405.762	76.8049	405.762	72.005	405.762	75.8592	405.762	71.1893	405.762	74.7599	405.762	70.9814	405.762	73.5609	405.762	71.4392	405.762	72.3851
420.41	80.4527	420.41	80.5028	420.41	80.3216	420.41	80.483	420.41	80.1091	420.41	80.4107	420.41	79.8283	420.41	80.304	420.41	79.5018	420.41	80.1762	420.41	79.154	420.41	80.033	420.41	78.7986	420.41	79.871	420.41	78.4288	420.41	79.6789	420.41	78.0167	420.41	79.4387	420.41	77.5213	420.41	79.1268	420.41	76.9014	420.41	78.7152	420.41	76.1261	420.41	78.1727	420.41	75.1873	420.41	77.4683	420.41	74.1134	420.41	76.5781	420.41	72.9917	420.41	75.4989	420.41	71.9903	420.41	74.2704	420.41	71.3542	420.41	73.0081	420.41	71.3162	420.41	71.9298
435.059	80.0298	435.059	80.0296	435.059	79.9925	435.059	80.0036	435.059	79.9091	435.059	79.9633	435.059	79.7761	435.059	79.9165	435.059	79.5946	435.059	79.8652	435.059	79.3676	435.059	79.8057	435.059	79.0944	435.059	79.7297	435.059	78.7661	435.059	79.6264	435.059	78.3608	435.059	79.4831	435.059	77.8446	435.059	79.2851	435.059	77.1752	435.059	79.0123	435.059	76.3129	435.059	78.6366	435.059	75.2371	435.059	78.121	435.059	73.9778	435.059	77.4233	435.059	72.6643	435.059	76.5071	435.059	71.5818	435.059	75.3601	435.059	71.1341	435.059	74.0261	435.059	71.5561	435.059	72.6552
451.172	80.2444	451.172	80.224	451.172	80.1816	451.172	80.1332	451.172	80.0386	451.172	79.9947	451.172	79.8368	451.172	79.8324	451.172	79.6121	451.172	79.6655	451.172	79.4014	451.172	79.5036	451.172	79.2232	451.172	79.3463	451.172	79.064	451.172	79.1861	451.172	78.8801	451.172	79.0107	451.172	78.6123	451.172	78.8043	451.172	78.2037	451.172	78.5468	451.172	77.6138	451.172	78.2104	451.172	76.8292	451.172	77.7598	451.172	75.8774	451.172	77.1575	451.172	74.8436	451.172	76.3791	451.172	73.8857	451.172	75.4397	451.172	73.2303	451.172	74.4325	451.172	73.1014	451.172	73.5614
465.82	79.6962	465.82	79.5974	465.82	79.7148	465.82	79.4516	465.82	79.6346	465.82	79.2952	465.82	79.4611	465.82	79.1568	465.82	79.2269	465.82	79.0489	465.82	78.9851	465.82	78.9669	465.82	78.786	465.82	78.8945	465.82	78.6433	465.82	78.8119	465.82	78.5167	465.82	78.7035	465.82	78.3263	465.82	78.5613	465.82	77.9874	465.82	78.3813	465.82	77.4405	465.82	78.1541	465.82	76.6719	465.82	77.8554	465.82	75.7297	465.82	77.4444	465.82	74.7409	465.82	76.8759	465.82	73.9165	465.82	76.1275	465.82	73.5089	465.82	75.2358	465.82	73.6755	465.82	74.3368
483.398	79.5416	483.398	79.3852	483.398	79.6058	483.398	79.1857	483.398	79.5394	483.398	78.9911	483.398	79.3257	483.398	78.8363	483.398	78.9774	483.398	78.7357	483.398	78.5407	483.398	78.6805	483.398	78.0888	483.398	78.6443	483.398	77.6957	483.398	78.5906	483.398	77.3979	483.398	78.4833	483.398	77.1699	483.398	78.2927	483.398	76.9407	483.398	78	483.398	76.6332	483.398	77.5956	483.398	76.1999	483.398	77.0769	483.398	75.6422	483.398	76.4483	483.398	75.0162	483.398	75.7307	483.398	74.4192	483.398	74.9827	483.398	73.9647	483.398	74.3169	483.398	73.7584	483.398	73.8758
499.512	79.4654	499.512	79.29	499.512	79.5447	499.512	79.0445	499.512	79.5189	499.512	78.7644	499.512	79.4003	499.512	78.4857	499.512	79.222	499.512	78.237	499.512	79.0298	499.512	78.0323	499.512	78.8657	499.512	77.8694	499.512	78.7478	499.512	77.7328	499.512	78.6582	499.512	77.6011	499.512	78.5469	499.512	77.4545	499.512	78.3478	499.512	77.2782	499.512	77.9972	499.512	77.0576	499.512	77.4518	499.512	76.7688	499.512	76.7063	499.512	76.3748	499.512	75.8116	499.512	75.8411	499.512	74.89	499.512	75.1723	499.512	74.1362	499.512	74.4613	499.512	73.7712	499.512	73.9134
517.09	80.2528	517.09	80.1173	517.09	80.2376	517.09	79.8881	517.09	80.038	517.09	79.628	517.09	79.6585	517.09	79.3881	517.09	79.1586	517.09	79.1945	517.09	78.6614	517.09	79.0462	517.09	78.3246	517.09	78.9219	517.09	78.2481	517.09	78.7894	517.09	78.3916	517.09	78.6133	517.09	78.6113	517.09	78.3615	517.09	78.7634	517.09	78.0113	517.09	78.7609	517.09	77.5583	517.09	78.5732	517.09	77.0237	517.09	78.2079	517.09	76.458	517.09	77.6973	517.09	75.9385	517.09	77.0927	517.09	75.5584	517.09	76.4657	517.09	75.4058	517.09	75.91	517.09	75.5296
536.133	79.7253	536.133	79.3471	536.133	80.0083	536.133	78.9894	536.133	80.1054	536.133	78.7543	536.133	79.9707	536.133	78.6875	536.133	79.6151	536.133	78.7667	536.133	79.1224	536.133	78.931	536.133	78.6541	536.133	79.1168	536.133	78.3912	536.133	79.2763	536.133	78.403	536.133	79.378	536.133	78.5862	536.133	79.3986	536.133	78.7637	536.133	79.3158	536.133	78.8004	536.133	79.1022	536.133	78.6335	536.133	78.7243	536.133	78.2543	536.133	78.1504	536.133	77.6814	536.133	77.3748	536.133	76.9514	536.133	76.4682	536.133	76.1496	536.133	75.6468	536.133	75.478	536.133	75.2519
555.176	78.8281	555.176	78.4289	555.176	79.289	555.176	78.2098	555.176	79.6738	555.176	78.2128	555.176	79.8841	555.176	78.3997	555.176	79.8908	555.176	78.6951	555.176	79.7418	555.176	79.0265	555.176	79.5486	555.176	79.3388	555.176	79.4319	555.176	79.5978	555.176	79.4361	555.176	79.7878	555.176	79.496	555.176	79.905	555.176	79.4944	555.176	79.9436	555.176	79.3383	555.176	79.8788	555.176	78.9928	555.176	79.6603	555.176	78.4764	555.176	79.225	555.176	77.8362	555.176	78.5309	555.176	77.1261	555.176	77.6118	555.176	76.4339	555.176	76.6526	555.176	75.9623	555.176	76.0069
574.219	78.7165	574.219	78.4726	574.219	79.083	574.219	78.4055	574.219	79.4092	574.219	78.4615	574.219	79.5282	574.219	78.5665	574.219	79.3718	574.219	78.6807	574.219	79.0363	574.219	78.7879	574.219	78.794	574.219	78.87	574.219	78.9241	574.219	78.9051	574.219	79.4132	574.219	78.8916	574.219	79.9805	574.219	78.8752	574.219	80.3665	574.219	78.9395	574.219	80.4517	574.219	79.1353	574.219	80.2236	574.219	79.3981	574.219	79.7322	574.219	79.5613	574.219	79.0632	574.219	79.455	574.219	78.3225	574.219	78.9989	574.219	77.6625	574.219	78.2751	574.219	77.34	574.219	77.5867
594.727	81.0819	594.727	81.218	594.727	80.9194	594.727	81.319	594.727	80.7171	594.727	81.3761	594.727	80.4261	594.727	81.3897	594.727	79.9907	594.727	81.3621	594.727	79.4259	594.727	81.2853	594.727	78.9107	594.727	81.1314	594.727	78.7608	594.727	80.8505	594.727	79.119	594.727	80.381	594.727	79.7405	594.727	79.6767	594.727	80.2667	594.727	78.7629	594.727	80.4836	594.727	77.8256	594.727	80.3216	594.727	77.2181	594.727	79.7972	594.727	77.1377	594.727	78.9926	594.727	77.3192	594.727	78.0656	594.727	77.3663	594.727	77.2513	594.727	77.1451	594.727	76.8075	594.727	76.841
615.234	81.9469	615.234	81.8555	615.234	82.1519	615.234	81.9392	615.234	82.3223	615.234	82.1671	615.234	82.2861	615.234	82.4666	615.234	81.9119	615.234	82.7663	615.234	81.1599	615.234	83.0064	615.234	80.1603	615.234	83.1328	615.234	79.3062	615.234	83.0919	615.234	79.0709	615.234	82.8305	615.234	79.4346	615.234	82.3008	615.234	79.9201	615.234	81.4777	615.234	80.1545	615.234	80.4031	615.234	80.0107	615.234	79.2527	615.234	79.4991	615.234	78.3198	615.234	78.6786	615.234	77.7443	615.234	77.6334	615.234	77.3005	615.234	76.5638	615.234	76.7116	615.234	75.9213	615.234	76.0758
637.207	81.6539	637.207	81.7879	637.207	81.6105	637.207	81.9486	637.207	81.6735	637.207	82.0975	637.207	81.7538	637.207	82.2394	637.207	81.6991	637.207	82.3943	637.207	81.396	637.207	82.563	637.207	80.859	637.207	82.7102	637.207	80.276	637.207	82.7706	637.207	79.9228	637.207	82.6657	637.207	79.8963	637.207	82.3198	637.207	80.0016	637.207	81.676	637.207	79.9875	637.207	80.7194	637.207	79.7428	637.207	79.5183	637.207	79.301	637.207	78.276	637.207	78.766	637.207	77.3065	637.207	78.2275	637.207	76.8224	637.207	77.7263	637.207	76.7609	637.207	77.2876	637.207	76.9496
659.18	82.0123	659.18	82.1016	659.18	81.896	659.18	82.1967	659.18	81.696	659.18	82.3179	659.18	81.3284	659.18	82.4783	659.18	80.7089	659.18	82.6785	659.18	79.8318	659.18	82.896	659.18	78.9137	659.18	83.0773	659.18	78.4512	659.18	83.1422	659.18	78.7561	659.18	82.996	659.18	79.4747	659.18	82.5427	659.18	80.08	659.18	81.7045	659.18	80.3015	659.18	80.4605	659.18	80.0706	659.18	78.9277	659.18	79.422	659.18	77.4364	659.18	78.4555	659.18	76.3477	659.18	77.2994	659.18	75.6304	659.18	76.0911	659.18	75.0427	659.18	75.0936	659.18	74.7263
682.617	82.0408	682.617	82.1471	682.617	82.0257	682.617	82.291	682.617	82.1041	682.617	82.4466	682.617	82.1479	682.617	82.6253	682.617	81.9337	682.617	82.8454	682.617	81.2615	682.617	83.1015	682.617	80.0688	682.617	83.3539	682.617	78.5813	682.617	83.5323	682.617	77.4553	682.617	83.5455	682.617	77.2611	682.617	83.2899	682.617	77.6387	682.617	82.6608	682.617	77.9566	682.617	81.5765	682.617	77.996	682.617	80.0343	682.617	77.8199	682.617	78.2128	682.617	77.5046	682.617	76.5221	682.617	76.9818	682.617	75.3009	682.617	76.1278	682.617	74.5415	682.617	75.0694	682.617	74.3883
707.52	82.8424	707.52	82.8299	707.52	82.7502	707.52	82.7116	707.52	82.5943	707.52	82.5429	707.52	82.3857	707.52	82.4081	707.52	82.0486	707.52	82.3759	707.52	81.4585	707.52	82.4648	707.52	80.545	707.52	82.6346	707.52	79.3876	707.52	82.8035	707.52	78.2441	707.52	82.8712	707.52	77.3809	707.52	82.7349	707.52	76.7722	707.52	82.2984	707.52	76.1541	707.52	81.4794	707.52	75.3856	707.52	80.224	707.52	74.6244	707.52	78.546	707.52	74.1096	707.52	76.6268	707.52	73.7692	707.52	74.9176	707.52	73.4249	707.52	73.8521	707.52	73.2176	707.52	73.3508
732.422	83.1917	732.422	83.0599	732.422	83.2321	732.422	82.859	732.422	83.1745	732.422	82.6512	732.422	82.9804	732.422	82.5191	732.422	82.5612	732.422	82.5226	732.422	81.8162	732.422	82.6617	732.422	80.7174	732.422	82.8745	732.422	79.4239	732.422	83.0615	732.422	78.333	732.422	83.1112	732.422	77.7654	732.422	82.9115	732.422	77.5179	732.422	82.3549	732.422	77.1395	732.422	81.3585	732.422	76.4059	732.422	79.9152	732.422	75.4112	732.422	78.1691	732.422	74.41	732.422	76.3758	732.422	73.4186	732.422	74.557	732.422	72.0698	732.422	72.3965	732.422	70.4198	732.422	70.3263
757.324	82.7136	757.324	82.2957	757.324	83.134	757.324	81.9262	757.324	83.5044	757.324	81.6832	757.324	83.7032	757.324	81.6428	757.324	83.5612	757.324	81.8183	757.324	82.9572	757.324	82.1424	757.324	81.9045	757.324	82.5024	757.324	80.6165	757.324	82.7813	757.324	79.4661	757.324	82.8743	757.324	78.6544	757.324	82.6902	757.324	77.9388	757.324	82.1561	757.324	76.9134	757.324	81.2304	757.324	75.4422	757.324	79.9216	757.324	74.054	757.324	78.3035	757.324	73.6077	757.324	76.5401	757.324	73.7653	757.324	74.9703	757.324	73.8375	757.324	74.0608	757.324	73.823	757.324	73.8279
785.156	83.9386	785.156	83.5944	785.156	83.9924	785.156	83.1096	785.156	83.7601	785.156	82.6766	785.156	83.3831	785.156	82.4159	785.156	82.9471	785.156	82.3467	785.156	82.3499	785.156	82.4296	785.156	81.4589	785.156	82.6011	785.156	80.3507	785.156	82.7732	785.156	79.345	785.156	82.8342	785.156	78.6388	785.156	82.6672	785.156	77.9455	785.156	82.1665	785.156	76.7697	785.156	81.2346	785.156	74.7751	785.156	79.7837	785.156	72.0733	785.156	77.8326	785.156	69.9612	785.156	75.876	785.156	69.9109	785.156	74.9484	785.156	71.1803	785.156	74.8474	785.156	72.9216	785.156	74.3123
811.523	83.2479	811.523	83.0736	811.523	83.3508	811.523	82.7858	811.523	83.4353	811.523	82.4012	811.523	83.493	811.523	81.9904	811.523	83.4094	811.523	81.639	811.523	82.9978	811.523	81.4196	811.523	82.1062	811.523	81.3759	811.523	80.7718	811.523	81.4847	811.523	79.3818	811.523	81.6293	811.523	78.482	811.523	81.6322	811.523	78.0361	811.523	81.319	811.523	77.4942	811.523	80.5616	811.523	76.5485	811.523	79.327	811.523	75.3123	811.523	77.8132	811.523	74.0993	811.523	76.5633	811.523	73.0468	811.523	75.8734	811.523	72.2353	811.523	75.1377	811.523	72.4175	811.523	73.805
840.82	83.6274	840.82	82.7635	840.82	83.7052	840.82	81.4467	840.82	83.3803	840.82	80.5012	840.82	83.3536	840.82	80.5256	840.82	83.5493	840.82	81.2711	840.82	83.4014	840.82	82.1073	840.82	82.7485	840.82	82.663	840.82	81.7676	840.82	82.8794	840.82	80.7035	840.82	82.8218	840.82	79.7329	840.82	82.5396	840.82	78.8263	840.82	82.0174	840.82	77.6924	840.82	81.1674	840.82	76.0755	840.82	79.8194	840.82	74.2178	840.82	77.7869	840.82	72.7048	840.82	75.3873	840.82	71.4506	840.82	74.4739	840.82	71.3198	840.82	75.2453	840.82	73.4751	840.82	75.2035
870.117	83.0219	870.117	81.8619	870.117	83.7311	870.117	80.9506	870.117	83.6494	870.117	80.7517	870.117	82.9492	870.117	81.1086	870.117	82.1233	870.117	81.6273	870.117	81.4723	870.117	82.0543	870.117	80.9329	870.117	82.3142	870.117	80.481	870.117	82.4162	870.117	80.2326	870.117	82.3666	870.117	80.1485	870.117	82.1193	870.117	79.9331	870.117	81.562	870.117	79.2644	870.117	80.5435	870.117	77.9384	870.117	78.9966	870.117	75.9079	870.117	77.257	870.117	73.4546	870.117	76.1732	870.117	71.5098	870.117	75.8671	870.117	71.2959	870.117	75.489	870.117	72.7848	870.117	74.4784
900.879	83.4509	900.879	82.4269	900.879	83.7233	900.879	81.0507	900.879	83.4274	900.879	80.0511	900.879	83.1613	900.879	79.9398	900.879	83.0729	900.879	80.5048	900.879	82.7093	900.879	81.1891	900.879	81.7862	900.879	81.6848	900.879	80.4284	900.879	81.9516	900.879	79.2373	900.879	82.0347	900.879	78.8495	900.879	81.9519	900.879	78.8904	900.879	81.6197	900.879	78.6031	900.879	80.7799	900.879	77.7575	900.879	78.9841	900.879	76.5102	900.879	75.7514	900.879	74.7982	900.879	72.1867	900.879	72.4976	900.879	73.0632	900.879	71.6044	900.879	74.8972	900.879	73.4352	900.879	74.9737
933.105	83.2733	933.105	82.43	933.105	83.5096	933.105	81.4255	933.105	83.083	933.105	80.6369	933.105	82.3813	933.105	80.1762	933.105	81.785	933.105	80.1577	933.105	81.2539	933.105	80.577	933.105	80.6758	933.105	81.1821	933.105	80.2362	933.105	81.7111	933.105	80.152	933.105	82.0079	933.105	80.2437	933.105	81.9722	933.105	80.0763	933.105	81.5094	933.105	79.2246	933.105	80.5271	933.105	77.3564	933.105	78.9688	933.105	74.4715	933.105	76.8379	933.105	71.1768	933.105	74.4006	933.105	68.5582	933.105	73.5247	933.105	70.4857	933.105	75.0781	933.105	74.2427	933.105	75.8096
965.332	82.7312	965.332	81.7075	965.332	83.2465	965.332	80.7544	965.332	82.9904	965.332	80.272	965.332	82.4028	965.332	80.3483	965.332	82.0116	965.332	80.6567	965.332	81.5743	965.332	80.8447	965.332	80.6512	965.332	80.8889	965.332	79.2664	965.332	80.9637	965.332	78.2774	965.332	81.1504	965.332	78.4861	965.332	81.3402	965.332	78.9507	965.332	81.3181	965.332	78.5837	965.332	80.7761	965.332	76.9759	965.332	79.2896	965.332	74.2574	965.332	76.3879	965.332	71.4001	965.332	72.2549	965.332	70.7762	965.332	71.383	965.332	73.7004	965.332	74.3905	965.332	76.0957	965.332	76.3012
1,000.49	84.0722	1,000.49	83.1836	1,000.49	83.889	1,000.49	81.824	1,000.49	82.5769	1,000.49	80.449	1,000.49	80.9902	1,000.49	79.1045	1,000.49	80.3273	1,000.49	78.1633	1,000.49	80.3076	1,000.49	78.0065	1,000.49	79.9973	1,000.49	78.2835	1,000.49	79.1964	1,000.49	78.6597	1,000.49	78.3176	1,000.49	79.1168	1,000.49	77.6217	1,000.49	79.5936	1,000.49	76.7996	1,000.49	79.8392	1,000.49	75.4576	1,000.49	79.51	1,000.49	73.5392	1,000.49	78.2984	1,000.49	71.4673	1,000.49	76.0578	1,000.49	69.8371	1,000.49	72.8696	1,000.49	70.3181	1,000.49	69.8584	1,000.49	72.7523	1,000.49	71.4715	1,000.49	74.4178	1,000.49	74.0836
1,035.64	81.7767	1,035.64	80.8777	1,035.64	82.8917	1,035.64	80.9062	1,035.64	83.0533	1,035.64	80.9662	1,035.64	82.3096	1,035.64	80.5265	1,035.64	81.5133	1,035.64	79.6583	1,035.64	80.9738	1,035.64	78.5775	1,035.64	80.1497	1,035.64	77.5452	1,035.64	78.9757	1,035.64	76.9075	1,035.64	78.4431	1,035.64	76.9492	1,035.64	78.9227	1,035.64	77.5787	1,035.64	79.2287	1,035.64	78.3663	1,035.64	78.5547	1,035.64	78.712	1,035.64	76.6598	1,035.64	77.9169	1,035.64	73.7273	1,035.64	75.3661	1,035.64	70.8649	1,035.64	71.4703	1,035.64	70.0293	1,035.64	70.4318	1,035.64	72.0538	1,035.64	72.5386	1,035.64	74.1627	1,035.64	74.2729
1,072.27	82.1563	1,072.27	81.9189	1,072.27	82.1426	1,072.27	81.0705	1,072.27	81.6845	1,072.27	79.4581	1,072.27	80.7106	1,072.27	77.7059	1,072.27	79.7082	1,072.27	76.7174	1,072.27	78.9025	1,072.27	76.7811	1,072.27	77.9523	1,072.27	77.5159	1,072.27	77.0517	1,072.27	78.4781	1,072.27	77.0501	1,072.27	79.3108	1,072.27	77.4403	1,072.27	79.717	1,072.27	77.2516	1,072.27	79.5907	1,072.27	76.1042	1,072.27	78.9492	1,072.27	73.8362	1,072.27	77.5249	1,072.27	71.3667	1,072.27	74.4992	1,072.27	69.9192	1,072.27	68.2261	1,072.27	68.8846	1,072.27	63.5972	1,072.27	70.7056	1,072.27	70.3172	1,072.27	72.9223	1,072.27	73.0069
1,108.89	81.9239	1,108.89	81.1493	1,108.89	82.2698	1,108.89	80.0963	1,108.89	81.9035	1,108.89	78.9495	1,108.89	81.1459	1,108.89	78.1784	1,108.89	80.8438	1,108.89	77.9581	1,108.89	80.9162	1,108.89	77.9489	1,108.89	80.3644	1,108.89	77.8988	1,108.89	78.4171	1,108.89	77.9685	1,108.89	75.6137	1,108.89	78.3376	1,108.89	74.8613	1,108.89	78.7939	1,108.89	75.6163	1,108.89	78.9382	1,108.89	75.4361	1,108.89	78.4553	1,108.89	74.0223	1,108.89	77.0004	1,108.89	71.8559	1,108.89	74.1118	1,108.89	69.7863	1,108.89	69.9742	1,108.89	70.7412	1,108.89	68.4186	1,108.89	74.0215	1,108.89	71.2561	1,108.89	75.7117	1,108.89	74.638
1,148.44	81.6594	1,148.44	81.8993	1,148.44	81.2511	1,148.44	81.1806	1,148.44	80.945	1,148.44	79.4486	1,148.44	80.6456	1,148.44	77.6765	1,148.44	80.5952	1,148.44	76.9127	1,148.44	80.6339	1,148.44	76.9306	1,148.44	80.2586	1,148.44	76.9786	1,148.44	79.4606	1,148.44	76.9144	1,148.44	78.6466	1,148.44	76.9335	1,148.44	77.8512	1,148.44	77.024	1,148.44	76.7415	1,148.44	77.1489	1,148.44	74.708	1,148.44	77.3361	1,148.44	71.2353	1,148.44	76.9852	1,148.44	69.9195	1,148.44	74.8429	1,148.44	71.3314	1,148.44	69.5108	1,148.44	72.8662	1,148.44	68.7339	1,148.44	75.301	1,148.44	72.9833	1,148.44	76.3465	1,148.44	75.3691
1,189.45	82.9763	1,189.45	81.7989	1,189.45	82.7598	1,189.45	79.8	1,189.45	81.4093	1,189.45	77.941	1,189.45	80.4576	1,189.45	76.9544	1,189.45	80.9826	1,189.45	76.7713	1,189.45	81.7041	1,189.45	76.8234	1,189.45	81.4134	1,189.45	76.9088	1,189.45	80.008	1,189.45	77.1465	1,189.45	78.4308	1,189.45	77.4987	1,189.45	77.5662	1,189.45	77.7241	1,189.45	76.7753	1,189.45	77.5718	1,189.45	74.8606	1,189.45	77.0521	1,189.45	71.2496	1,189.45	76.2702	1,189.45	70.5774	1,189.45	74.4417	1,189.45	72.5788	1,189.45	69.3145	1,189.45	73.9738	1,189.45	65.164	1,189.45	75.808	1,189.45	73.5743	1,189.45	77.0243	1,189.45	76.6375
1,230.47	83.1834	1,230.47	82.9724	1,230.47	82.9444	1,230.47	82.02	1,230.47	82.1054	1,230.47	80.0869	1,230.47	81.2848	1,230.47	77.9793	1,230.47	81.6925	1,230.47	77.0175	1,230.47	82.6838	1,230.47	77.0904	1,230.47	82.7087	1,230.47	77.3283	1,230.47	81.5549	1,230.47	77.6782	1,230.47	80.1358	1,230.47	78.0715	1,230.47	79.2456	1,230.47	77.8593	1,230.47	78.4591	1,230.47	76.5933	1,230.47	76.8825	1,230.47	74.9966	1,230.47	73.9838	1,230.47	74.8104	1,230.47	71.8638	1,230.47	75.027	1,230.47	72.4836	1,230.47	72.8334	1,230.47	73.7767	1,230.47	69.4921	1,230.47	75.7538	1,230.47	73.4791	1,230.47	77.1169	1,230.47	76.5576
1,274.41	84.1516	1,274.41	83.8125	1,274.41	83.8992	1,274.41	82.7754	1,274.41	82.7935	1,274.41	80.866	1,274.41	81.8532	1,274.41	78.9823	1,274.41	82.6395	1,274.41	78.1318	1,274.41	83.9131	1,274.41	78.0426	1,274.41	83.9785	1,274.41	78.0592	1,274.41	82.7669	1,274.41	77.9938	1,274.41	80.5616	1,274.41	77.9172	1,274.41	77.937	1,274.41	78.2297	1,274.41	76.9995	1,274.41	78.5294	1,274.41	77.046	1,274.41	77.6388	1,274.41	76.0456	1,274.41	75.2359	1,274.41	75.2642	1,274.41	73.1787	1,274.41	75.2528	1,274.41	73.266	1,274.41	75.4255	1,274.41	72.1018	1,274.41	76.5243	1,274.41	74.9854	1,274.41	77.9806	1,274.41	77.9724
1,319.82	84.6111	1,319.82	84.7255	1,319.82	84.5283	1,319.82	83.8882	1,319.82	84.1254	1,319.82	81.8371	1,319.82	83.1151	1,319.82	79.6206	1,319.82	83.1935	1,319.82	78.458	1,319.82	84.7528	1,319.82	78.3733	1,319.82	84.8291	1,319.82	78.6092	1,319.82	82.9751	1,319.82	78.8954	1,319.82	81.0982	1,319.82	78.7233	1,319.82	80.0661	1,319.82	77.6525	1,319.82	78.5193	1,319.82	76.1739	1,319.82	76.6796	1,319.82	75.6149	1,319.82	75.23	1,319.82	75.8289	1,319.82	75.0696	1,319.82	75.4195	1,319.82	75.7663	1,319.82	74.667	1,319.82	76.326	1,319.82	73.8806	1,319.82	77.4944	1,319.82	74.6647	1,319.82	78.4031	1,319.82	77.7035
1,366.7	84.7906	1,366.7	85.4594	1,366.7	84.7002	1,366.7	85.1235	1,366.7	85.1813	1,366.7	83.5644	1,366.7	84.9345	1,366.7	81.6422	1,366.7	84.4134	1,366.7	79.8994	1,366.7	84.7989	1,366.7	79.0634	1,366.7	84.5561	1,366.7	79.4719	1,366.7	82.7747	1,366.7	80.4468	1,366.7	80.0604	1,366.7	80.9547	1,366.7	77.4963	1,366.7	80.4443	1,366.7	76.1598	1,366.7	79.1057	1,366.7	75.2966	1,366.7	78.1075	1,366.7	74.5656	1,366.7	78.5444	1,366.7	77.5231	1,366.7	78.4568	1,366.7	79.2857	1,366.7	75.9855	1,366.7	79.6744	1,366.7	74.9876	1,366.7	79.3448	1,366.7	75.7127	1,366.7	77.9216	1,366.7	76.4625
1,413.57	85.3773	1,413.57	85.4184	1,413.57	85.1542	1,413.57	84.2322	1,413.57	85.5071	1,413.57	82.8831	1,413.57	85.1081	1,413.57	81.595	1,413.57	84.339	1,413.57	79.6736	1,413.57	85.1932	1,413.57	78.2081	1,413.57	85.29	1,413.57	78.8892	1,413.57	83.4578	1,413.57	80.7581	1,413.57	81.465	1,413.57	81.587	1,413.57	79.998	1,413.57	80.4242	1,413.57	78.2282	1,413.57	78.1355	1,413.57	76.8412	1,413.57	77.3417	1,413.57	75.5387	1,413.57	77.8303	1,413.57	75.9249	1,413.57	77.5765	1,413.57	78.0826	1,413.57	76.3625	1,413.57	79.3568	1,413.57	74.1619	1,413.57	78.1415	1,413.57	76.1141	1,413.57	75.7656	1,413.57	76.1791
1,463.38	86.0421	1,463.38	85.8215	1,463.38	85.0669	1,463.38	84.3451	1,463.38	85.6759	1,463.38	83.1825	1,463.38	86.684	1,463.38	81.4065	1,463.38	85.6512	1,463.38	77.9893	1,463.38	84.8163	1,463.38	75.3924	1,463.38	85.1254	1,463.38	76.0092	1,463.38	83.7025	1,463.38	78.3068	1,463.38	81.2007	1,463.38	79.9618	1,463.38	80.3255	1,463.38	80.0496	1,463.38	80.714	1,463.38	79.0796	1,463.38	79.9902	1,463.38	77.9352	1,463.38	75.6488	1,463.38	78.08	1,463.38	73.6599	1,463.38	78.2546	1,463.38	78.613	1,463.38	75.9268	1,463.38	80.3187	1,463.38	71.6767	1,463.38	79.9611	1,463.38	74.324	1,463.38	78.3867	1,463.38	76.7491
1,516.11	86.8137	1,516.11	85.9512	1,516.11	86.0355	1,516.11	84.8512	1,516.11	85.4677	1,516.11	84.3056	1,516.11	86.3195	1,516.11	82.5858	1,516.11	85.957	1,516.11	80.4877	1,516.11	84.8524	1,516.11	80.1229	1,516.11	84.3789	1,516.11	80.3001	1,516.11	82.4979	1,516.11	80.2424	1,516.11	80.3228	1,516.11	80.7453	1,516.11	80.3875	1,516.11	81.2068	1,516.11	80.7394	1,516.11	80.9185	1,516.11	79.5785	1,516.11	78.5222	1,516.11	75.7882	1,516.11	73.7878	1,516.11	75.3446	1,516.11	75.8959	1,516.11	78.0497	1,516.11	76.854	1,516.11	79.8025	1,516.11	74.0166	1,516.11	81.0328	1,516.11	75.4643	1,516.11	80.6706	1,516.11	78.8006
1,568.85	87.7861	1,568.85	86.768	1,568.85	87.8733	1,568.85	86.1079	1,568.85	86.774	1,568.85	84.2172	1,568.85	86.2033	1,568.85	80.5802	1,568.85	85.558	1,568.85	78.981	1,568.85	84.07	1,568.85	78.9889	1,568.85	83.7705	1,568.85	78.8068	1,568.85	82.8072	1,568.85	78.7241	1,568.85	80.5349	1,568.85	79.4836	1,568.85	79.6104	1,568.85	80.6659	1,568.85	79.7942	1,568.85	81.3052	1,568.85	78.105	1,568.85	79.9882	1,568.85	76.1387	1,568.85	74.2294	1,568.85	76.6822	1,568.85	71.0474	1,568.85	78.0781	1,568.85	78.1459	1,568.85	80.5071	1,568.85	77.8439	1,568.85	81.8823	1,568.85	76.907	1,568.85	82.1282	1,568.85	80.8144
1,624.51	86.9272	1,624.51	85.2514	1,624.51	88.2396	1,624.51	84.7248	1,624.51	87.4267	1,624.51	83.1585	1,624.51	85.8723	1,624.51	81.5059	1,624.51	84.9404	1,624.51	81.4121	1,624.51	83.0775	1,624.51	80.6657	1,624.51	82.6844	1,624.51	79.1206	1,624.51	83.5988	1,624.51	77.9784	1,624.51	82.8036	1,624.51	78.4917	1,624.51	80.804	1,624.51	80.7553	1,624.51	79.4803	1,624.51	82.6985	1,624.51	75.7953	1,624.51	82.2634	1,624.51	65.7707	1,624.51	76.9411	1,624.51	69.1346	1,624.51	63.7498	1,624.51	75.6483	1,624.51	77.739	1,624.51	80.3506	1,624.51	79.0311	1,624.51	82.7297	1,624.51	77.9141	1,624.51	83.4728	1,624.51	81.3113
1,681.64	86.1324	1,681.64	86.0796	1,681.64	86.8901	1,681.64	85.3332	1,681.64	87.588	1,681.64	83.4589	1,681.64	86.7707	1,681.64	81.4793	1,681.64	84.4203	1,681.64	79.4847	1,681.64	82.0778	1,681.64	78.5253	1,681.64	81.2988	1,681.64	79.6424	1,681.64	81.8187	1,681.64	80.7145	1,681.64	81.2729	1,681.64	81.0076	1,681.64	78.7235	1,681.64	81.354	1,681.64	74.7323	1,681.64	81.5517	1,681.64	69.0469	1,681.64	80.9558	1,681.64	66.9033	1,681.64	78.6434	1,681.64	74.4067	1,681.64	68.3048	1,681.64	79.4185	1,681.64	76.318	1,681.64	81.7539	1,681.64	81.6748	1,681.64	82.4431	1,681.64	79.7661	1,681.64	81.5842	1,681.64	78.8711
1,741.7	84.1359	1,741.7	84.1796	1,741.7	85.6172	1,741.7	84.1529	1,741.7	86.6056	1,741.7	83.4984	1,741.7	85.9477	1,741.7	83.1508	1,741.7	84.3391	1,741.7	82.0449	1,741.7	81.935	1,741.7	79.741	1,741.7	80.0528	1,741.7	78.4364	1,741.7	80.9552	1,741.7	79.0597	1,741.7	80.9259	1,741.7	79.6724	1,741.7	78.1443	1,741.7	79.2824	1,741.7	72.7697	1,741.7	78.6564	1,741.7	68.8631	1,741.7	78.336	1,741.7	73.8787	1,741.7	76.4934	1,741.7	77.3653	1,741.7	69.4539	1,741.7	80.8055	1,741.7	72.6646	1,741.7	82.2987	1,741.7	80.0832	1,741.7	81.3623	1,741.7	80.5318	1,741.7	78.5124	1,741.7	77.5107
1,803.22	85.3912	1,803.22	85.0776	1,803.22	85.2193	1,803.22	84.0917	1,803.22	85.3541	1,803.22	82.9637	1,803.22	85.0999	1,803.22	81.4621	1,803.22	83.5816	1,803.22	79.454	1,803.22	81.6966	1,803.22	77.5525	1,803.22	80.9969	1,803.22	76.4104	1,803.22	80.6912	1,803.22	76.2944	1,803.22	79.5598	1,803.22	76.2463	1,803.22	77.7222	1,803.22	76.7904	1,803.22	74.5865	1,803.22	77.0704	1,803.22	62.8761	1,803.22	74.2177	1,803.22	72.9062	1,803.22	64.6524	1,803.22	79.1453	1,803.22	71.799	1,803.22	80.2696	1,803.22	74.5108	1,803.22	79.6816	1,803.22	78.2312	1,803.22	79.2205	1,803.22	80.0909	1,803.22	79.3025	1,803.22	79.8135
1,866.21	85.0375	1,866.21	84.146	1,866.21	85.6604	1,866.21	83.3047	1,866.21	84.9764	1,866.21	82.0286	1,866.21	83.8052	1,866.21	80.3932	1,866.21	83.3683	1,866.21	78.6807	1,866.21	81.9382	1,866.21	76.9206	1,866.21	80.0914	1,866.21	75.1389	1,866.21	79.8644	1,866.21	74.685	1,866.21	78.8059	1,866.21	76.6355	1,866.21	77.4666	1,866.21	77.3439	1,866.21	73.9776	1,866.21	75.185	1,866.21	50.2448	1,866.21	71.2449	1,866.21	73.2708	1,866.21	65.4761	1,866.21	77.3182	1,866.21	71.739	1,866.21	78.5774	1,866.21	76.6554	1,866.21	77.5307	1,866.21	78.3013	1,866.21	77.4902	1,866.21	79.855	1,866.21	78.9201	1,866.21	80.1447
1,932.13	84.3596	1,932.13	84.1946	1,932.13	85.0211	1,932.13	83.4668	1,932.13	84.8815	1,932.13	81.739	1,932.13	83.262	1,932.13	79.9657	1,932.13	82.0183	1,932.13	78.5168	1,932.13	81.6728	1,932.13	77.1099	1,932.13	80.8572	1,932.13	76.4066	1,932.13	79.1546	1,932.13	76.6021	1,932.13	76.6977	1,932.13	76.2489	1,932.13	73.7045	1,932.13	75.844	1,932.13	66.1127	1,932.13	74.2152	1,932.13	64.9034	1,932.13	68.1408	1,932.13	73.9458	1,932.13	66.2269	1,932.13	77.9279	1,932.13	74.0853	1,932.13	77.0749	1,932.13	77.5091	1,932.13	74.8837	1,932.13	78.5376	1,932.13	76.7541	1,932.13	79.1896	1,932.13	77.3839	1,932.13	78.2668
1,999.51	83.2524	1,999.51	83.3349	1,999.51	83.3138	1,999.51	82.6051	1,999.51	84.1302	1,999.51	81.8096	1,999.51	83.0733	1,999.51	80.2283	1,999.51	80.3036	1,999.51	77.7307	1,999.51	79.7964	1,999.51	75.2518	1,999.51	80.0779	1,999.51	74.0214	1,999.51	79.8948	1,999.51	75.1236	1,999.51	77.9363	1,999.51	75.9072	1,999.51	71.9756	1,999.51	74.8114	1,999.51	63.9789	1,999.51	71.7286	1,999.51	60.9549	1,999.51	62.7589	1,999.51	73.6448	1,999.51	69.5889	1,999.51	75.3452	1,999.51	75.0532	1,999.51	73.5256	1,999.51	77.8267	1,999.51	74.7193	1,999.51	77.7972	1,999.51	74.3289	1,999.51	76.6484	1,999.51	73.1281	1,999.51	75.338
2,069.82	82.1174	2,069.82	81.338	2,069.82	82.0103	2,069.82	81.1171	2,069.82	81.6201	2,069.82	80.7842	2,069.82	81.0584	2,069.82	78.6761	2,069.82	78.7738	2,069.82	75.72	2,069.82	76.9126	2,069.82	74.3944	2,069.82	77.5769	2,069.82	74.44	2,069.82	77.6677	2,069.82	75.5255	2,069.82	76.1047	2,069.82	75.5937	2,069.82	71.505	2,069.82	73.3783	2,069.82	60.3424	2,069.82	69.3263	2,069.82	68.3562	2,069.82	61.4871	2,069.82	74.07	2,069.82	71.6905	2,069.82	74.7401	2,069.82	75.3001	2,069.82	73.9631	2,069.82	76.1998	2,069.82	72.838	2,069.82	75.8533	2,069.82	69.9368	2,069.82	73.9788	2,069.82	71.2048	2,069.82	72.9354
2,143.07	81.1313	2,143.07	80.523	2,143.07	80.9443	2,143.07	80.0716	2,143.07	79.5706	2,143.07	78.5328	2,143.07	78.4993	2,143.07	76.459	2,143.07	76.0627	2,143.07	74.761	2,143.07	71.6704	2,143.07	72.6331	2,143.07	72.825	2,143.07	71.2453	2,143.07	72.3078	2,143.07	71.15	2,143.07	71.1699	2,143.07	71.1019	2,143.07	70.326	2,143.07	69.4674	2,143.07	66.0474	2,143.07	63.1521	2,143.07	65.3825	2,143.07	58.5211	2,143.07	69.9353	2,143.07	70.5161	2,143.07	72.3396	2,143.07	74.6119	2,143.07	72.966	2,143.07	74.6222	2,143.07	71.2978	2,143.07	72.8636	2,143.07	70.5292	2,143.07	71.4353	2,143.07	72.1403	2,143.07	71.7524
2,219.24	80.8264	2,219.24	81.2375	2,219.24	81.1936	2,219.24	80.3141	2,219.24	80.7579	2,219.24	78.5324	2,219.24	78.5758	2,219.24	76.6675	2,219.24	76.479	2,219.24	74.0417	2,219.24	72.7932	2,219.24	72.7501	2,219.24	71.1322	2,219.24	73.9036	2,219.24	72.214	2,219.24	73.4948	2,219.24	70.893	2,219.24	70.6344	2,219.24	70.3539	2,219.24	66.8201	2,219.24	66.9778	2,219.24	57.312	2,219.24	58.6769	2,219.24	62.2749	2,219.24	69.3692	2,219.24	70.2497	2,219.24	73.2777	2,219.24	73.4641	2,219.24	72.0497	2,219.24	73.5528	2,219.24	69.7015	2,219.24	71.7156	2,219.24	70.5637	2,219.24	69.8053	2,219.24	69.1247	2,219.24	68.0676
2,296.88	81.4128	2,296.88	81.3797	2,296.88	81.2882	2,296.88	80.8513	2,296.88	81.3083	2,296.88	79.934	2,296.88	79.8631	2,296.88	77.7385	2,296.88	76.7253	2,296.88	74.7376	2,296.88	72.9539	2,296.88	72.3374	2,296.88	70.479	2,296.88	71.6874	2,296.88	72.2736	2,296.88	73.8834	2,296.88	70.7224	2,296.88	74.3183	2,296.88	67.2017	2,296.88	70.2306	2,296.88	64.0378	2,296.88	55.6479	2,296.88	56.7851	2,296.88	66.0147	2,296.88	70.8262	2,296.88	71.9005	2,296.88	72.936	2,296.88	73.4396	2,296.88	71.157	2,296.88	73.3626	2,296.88	70.8006	2,296.88	70.2206	2,296.88	68.663	2,296.88	64.8822	2,296.88	66.4444	2,296.88	64.8848
2,378.91	81.9666	2,378.91	81.7047	2,378.91	81.3539	2,378.91	81.3557	2,378.91	80.3607	2,378.91	80.743	2,378.91	79.1823	2,378.91	78.4347	2,378.91	76.2149	2,378.91	74.8538	2,378.91	71.0551	2,378.91	73.7126	2,378.91	68.6719	2,378.91	74.0235	2,378.91	71.0779	2,378.91	73.3843	2,378.91	70.1759	2,378.91	71.4146	2,378.91	62.4826	2,378.91	66.9941	2,378.91	42.7805	2,378.91	49.9861	2,378.91	62.8103	2,378.91	67.3415	2,378.91	71.0507	2,378.91	73.302	2,378.91	72.0707	2,378.91	74.0109	2,378.91	71.1667	2,378.91	71.5694	2,378.91	71.7327	2,378.91	66.3888	2,378.91	69.6242	2,378.91	63.9566	2,378.91	70.4708	2,378.91	68.9342
2,462.4	82.6772	2,462.4	82.7624	2,462.4	81.6386	2,462.4	82.3691	2,462.4	80.1525	2,462.4	81.3594	2,462.4	78.1451	2,462.4	79.4096	2,462.4	74.7874	2,462.4	77.0949	2,462.4	68.0685	2,462.4	74.9213	2,462.4	64.9064	2,462.4	74.444	2,462.4	68.6013	2,462.4	73.8382	2,462.4	68.5836	2,462.4	71.6004	2,462.4	64.1063	2,462.4	65.989	2,462.4	52.2919	2,462.4	55.8838	2,462.4	62.1061	2,462.4	69.9543	2,462.4	69.0814	2,462.4	73.6508	2,462.4	71.3944	2,462.4	74.1155	2,462.4	72.6048	2,462.4	69.7388	2,462.4	70.8827	2,462.4	62.3016	2,462.4	71.238	2,462.4	67.2826	2,462.4	72.1777	2,462.4	69.4906
2,548.83	83.184	2,548.83	83.8609	2,548.83	82.1524	2,548.83	83.5304	2,548.83	80.5062	2,548.83	82.2664	2,548.83	77.6583	2,548.83	80.107	2,548.83	73.8116	2,548.83	77.5646	2,548.83	65.7937	2,548.83	75.9812	2,548.83	57.1484	2,548.83	75.7085	2,548.83	64.5178	2,548.83	74.932	2,548.83	64.2787	2,548.83	71.4724	2,548.83	59.4356	2,548.83	66.0251	2,548.83	60.8889	2,548.83	58.7083	2,548.83	54.7103	2,548.83	71.2125	2,548.83	69.2122	2,548.83	73.6981	2,548.83	71.7442	2,548.83	72.1814	2,548.83	71.7018	2,548.83	63.4195	2,548.83	68.885	2,548.83	66.7784	2,548.83	70.3821	2,548.83	70.7387	2,548.83	71.5765	2,548.83	71.8034
2,639.65	84.0203	2,639.65	84.8044	2,639.65	82.5859	2,639.65	84.6209	2,639.65	80.9146	2,639.65	83.2738	2,639.65	78.2936	2,639.65	80.4978	2,639.65	74.1147	2,639.65	77.8964	2,639.65	68.2155	2,639.65	77.1627	2,639.65	63.1992	2,639.65	75.7692	2,639.65	61.1126	2,639.65	74.7127	2,639.65	56.8767	2,639.65	72.1846	2,639.65	48.4851	2,639.65	59.4895	2,639.65	52.5496	2,639.65	66.9703	2,639.65	65.1531	2,639.65	71.5126	2,639.65	72.6794	2,639.65	73.4609	2,639.65	72.4424	2,639.65	71.174	2,639.65	70.6199	2,639.65	63.1667	2,639.65	65.9244	2,639.65	71.813	2,639.65	70.0867	2,639.65	74.7566	2,639.65	73.8319	2,639.65	75.4637
2,731.93	85.0115	2,731.93	85.5717	2,731.93	83.4988	2,731.93	85.084	2,731.93	81.2606	2,731.93	83.676	2,731.93	78.8024	2,731.93	81.4078	2,731.93	75.8838	2,731.93	78.2325	2,731.93	72.0775	2,731.93	76.5736	2,731.93	68.0233	2,731.93	75.865	2,731.93	64.4887	2,731.93	74.2947	2,731.93	55.607	2,731.93	69.7511	2,731.93	61.8595	2,731.93	55.0744	2,731.93	59.6158	2,731.93	68.0291	2,731.93	65.3995	2,731.93	72.5193	2,731.93	71.9214	2,731.93	70.9091	2,731.93	71.7776	2,731.93	66.2287	2,731.93	68.3866	2,731.93	65.8262	2,731.93	63.5834	2,731.93	75.1236	2,731.93	73.3883	2,731.93	77.0326	2,731.93	76.0609	2,731.93	76.87
2,828.61	85.2442	2,828.61	85.8854	2,828.61	83.8287	2,828.61	85.0966	2,828.61	81.8763	2,828.61	83.8203	2,828.61	79.0765	2,828.61	81.9812	2,828.61	76.4746	2,828.61	78.8896	2,828.61	74.6451	2,828.61	77.5736	2,828.61	72.1127	2,828.61	77.4241	2,828.61	69.223	2,828.61	74.8157	2,828.61	64.3702	2,828.61	67.3486	2,828.61	64.2561	2,828.61	56.2217	2,828.61	62.5549	2,828.61	65.988	2,828.61	67.1079	2,828.61	73.2419	2,828.61	72.2652	2,828.61	70.2433	2,828.61	72.3648	2,828.61	48.2814	2,828.61	66.1147	2,828.61	69.6831	2,828.61	64.4945	2,828.61	76.5119	2,828.61	74.1753	2,828.61	77.6451	2,828.61	75.694	2,828.61	76.4339
2,928.22	85.7298	2,928.22	86.0874	2,928.22	84.3635	2,928.22	85.4085	2,928.22	82.5732	2,928.22	84.3967	2,928.22	80.3007	2,928.22	82.5616	2,928.22	78.3702	2,928.22	79.6052	2,928.22	77.6364	2,928.22	78.911	2,928.22	75.579	2,928.22	77.5972	2,928.22	71.4063	2,928.22	74.6813	2,928.22	66.8182	2,928.22	70.0336	2,928.22	56.6685	2,928.22	65.0785	2,928.22	62.2133	2,928.22	70.6362	2,928.22	68.0204	2,928.22	70.8404	2,928.22	74.1953	2,928.22	69.2244	2,928.22	73.4687	2,928.22	62.4964	2,928.22	63.1371	2,928.22	73.3364	2,928.22	69.5145	2,928.22	77.3734	2,928.22	73.4503	2,928.22	78.249	2,928.22	75.0922	2,928.22	76.8511
3,030.76	86.6532	3,030.76	86.5524	3,030.76	85.5624	3,030.76	86.1224	3,030.76	83.839	3,030.76	85.1793	3,030.76	81.6755	3,030.76	82.8248	3,030.76	79.9797	3,030.76	79.5505	3,030.76	79.5468	3,030.76	78.0036	3,030.76	77.9139	3,030.76	77.366	3,030.76	74.2441	3,030.76	75.7819	3,030.76	68.6479	3,030.76	68.9818	3,030.76	57.5793	3,030.76	63.4877	3,030.76	60.6526	3,030.76	69.8783	3,030.76	57.6931	3,030.76	70.7294	3,030.76	73.7299	3,030.76	61.3048	3,030.76	72.1214	3,030.76	67.4761	3,030.76	56.4342	3,030.76	74.4933	3,030.76	68.9364	3,030.76	77.5773	3,030.76	74.3045	3,030.76	78.4173	3,030.76	75.681	3,030.76	77.0941
3,137.7	86.669	3,137.7	86.7823	3,137.7	86.2904	3,137.7	86.3638	3,137.7	84.8318	3,137.7	85.187	3,137.7	82.6775	3,137.7	83.5506	3,137.7	80.5423	3,137.7	79.6214	3,137.7	79.0474	3,137.7	77.5952	3,137.7	78.1765	3,137.7	78.046	3,137.7	75.3341	3,137.7	74.9661	3,137.7	67.6608	3,137.7	68.4165	3,137.7	59.6419	3,137.7	66.7967	3,137.7	56.3272	3,137.7	71.1401	3,137.7	67.709	3,137.7	69.8075	3,137.7	74.2346	3,137.7	63.1256	3,137.7	69.1342	3,137.7	71.2756	3,137.7	58.4484	3,137.7	74.8103	3,137.7	72.4085	3,137.7	76.5331	3,137.7	74.7827	3,137.7	76.6029	3,137.7	72.4789	3,137.7	73.288
3,249.02	87.1479	3,249.02	87.2064	3,249.02	86.7992	3,249.02	86.42	3,249.02	86.3548	3,249.02	85.1684	3,249.02	84.4216	3,249.02	83.5437	3,249.02	82.1297	3,249.02	81.1254	3,249.02	80.2396	3,249.02	80.0293	3,249.02	78.1848	3,249.02	78.7141	3,249.02	75.745	3,249.02	77.0112	3,249.02	71.8456	3,249.02	74.1599	3,249.02	69.9315	3,249.02	70.243	3,249.02	66.3844	3,249.02	73.4445	3,249.02	71.2941	3,249.02	69.0517	3,249.02	73.9848	3,249.02	65.7731	3,249.02	67.5576	3,249.02	74.4777	3,249.02	61.9924	3,249.02	76.3561	3,249.02	74.762	3,249.02	76.2208	3,249.02	75.3234	3,249.02	75.5516	3,249.02	69.1703	3,249.02	70.8565
3,363.28	87.7806	3,363.28	87.2111	3,363.28	87.7918	3,363.28	86.4657	3,363.28	87.5134	3,363.28	85.2844	3,363.28	86.2382	3,363.28	83.0421	3,363.28	83.919	3,363.28	82.537	3,363.28	81.7504	3,363.28	81.4276	3,363.28	79.2737	3,363.28	79.8131	3,363.28	75.8755	3,363.28	77.2323	3,363.28	72.9223	3,363.28	72.4902	3,363.28	73.1591	3,363.28	68.5234	3,363.28	72.1814	3,363.28	73.1851	3,363.28	68.8771	3,363.28	67.9277	3,363.28	71.6777	3,363.28	69.8124	3,363.28	64.8072	3,363.28	75.8228	3,363.28	65.3114	3,363.28	78.458	3,363.28	76.1512	3,363.28	75.3027	3,363.28	75.2785	3,363.28	73.3196	3,363.28	71.9315	3,363.28	69.636
3,481.93	87.4628	3,481.93	86.6644	3,481.93	88.0947	3,481.93	86.3628	3,481.93	88.1511	3,481.93	84.942	3,481.93	86.8037	3,481.93	83.5079	3,481.93	84.4692	3,481.93	82.1219	3,481.93	81.7183	3,481.93	81.5517	3,481.93	79.2218	3,481.93	80.4648	3,481.93	75.8654	3,481.93	75.3736	3,481.93	74.1638	3,481.93	74.6254	3,481.93	74.0725	3,481.93	73.0254	3,481.93	74.2724	3,481.93	74.9319	3,481.93	68.1252	3,481.93	65.0919	3,481.93	69.9752	3,481.93	74.2866	3,481.93	60.5912	3,481.93	76.2182	3,481.93	70.2638	3,481.93	78.1741	3,481.93	75.5827	3,481.93	74.2587	3,481.93	74.8518	3,481.93	69.3845	3,481.93	70.3958	3,481.93	62.158
3,604.98	86.6174	3,604.98	85.8456	3,604.98	87.382	3,604.98	85.3223	3,604.98	87.6593	3,604.98	83.836	3,604.98	86.5027	3,604.98	83.1103	3,604.98	83.7292	3,604.98	81.1721	3,604.98	80.1543	3,604.98	80.3774	3,604.98	78.0951	3,604.98	80.292	3,604.98	76.7813	3,604.98	77.3054	3,604.98	75.1301	3,604.98	75.6536	3,604.98	70.3738	3,604.98	72.5583	3,604.98	76.4573	3,604.98	74.3007	3,604.98	66.1385	3,604.98	71.0374	3,604.98	71.5292	3,604.98	74.2828	3,604.98	57.693	3,604.98	77.8784	3,604.98	58.0427	3,604.98	76.3477	3,604.98	69.6168	3,604.98	73.7594	3,604.98	69.7263	3,604.98	68.2111	3,604.98	66.9609	3,604.98	65.681
3,732.42	86.3624	3,732.42	84.8436	3,732.42	87.4988	3,732.42	83.7621	3,732.42	87.6865	3,732.42	82.5711	3,732.42	85.8805	3,732.42	82.3631	3,732.42	82.9137	3,732.42	79.8985	3,732.42	80.8168	3,732.42	80.0608	3,732.42	79.826	3,732.42	80.179	3,732.42	78.6137	3,732.42	76.8334	3,732.42	75.4103	3,732.42	72.4928	3,732.42	62.8375	3,732.42	72.8245	3,732.42	74.7677	3,732.42	73.9917	3,732.42	73.6982	3,732.42	72.9034	3,732.42	75.4059	3,732.42	73.0593	3,732.42	66.8201	3,732.42	79.1875	3,732.42	68.2604	3,732.42	74.9923	3,732.42	70.7111	3,732.42	73.922	3,732.42	62.5047	3,732.42	68.7472	3,732.42	73.8355	3,732.42	68.4074
3,864.26	84.522	3,864.26	83.0006	3,864.26	86.7485	3,864.26	81.7358	3,864.26	87.4484	3,864.26	81.744	3,864.26	85.7582	3,864.26	81.5588	3,864.26	82.5209	3,864.26	80.4357	3,864.26	79.9785	3,864.26	81.3796	3,864.26	79.4494	3,864.26	80.6373	3,864.26	80.3348	3,864.26	77.5991	3,864.26	77.2528	3,864.26	74.5653	3,864.26	66.9051	3,864.26	72.4223	3,864.26	73.1534	3,864.26	72.0287	3,864.26	72.5825	3,864.26	73.5203	3,864.26	76.7879	3,864.26	72.4829	3,864.26	70.1399	3,864.26	79.8238	3,864.26	69.3149	3,864.26	74.1936	3,864.26	69.4192	3,864.26	74.3409	3,864.26	56.9544	3,864.26	70.6132	3,864.26	70.7458	3,864.26	67.9246
4,000.49	83.7213	4,000.49	80.7255	4,000.49	85.3535	4,000.49	80.4787	4,000.49	86.4794	4,000.49	80.9477	4,000.49	85.868	4,000.49	81.6657	4,000.49	83.3374	4,000.49	81.2766	4,000.49	80.7226	4,000.49	81.1379	4,000.49	81.3672	4,000.49	78.2627	4,000.49	83.2917	4,000.49	74.2263	4,000.49	79.7197	4,000.49	74.2039	4,000.49	69.4637	4,000.49	70.8024	4,000.49	73.2546	4,000.49	69.2912	4,000.49	76.5319	4,000.49	73.444	4,000.49	77.3149	4,000.49	71.0578	4,000.49	68.5955	4,000.49	79.5327	4,000.49	66.6348	4,000.49	72.4602	4,000.49	67.2143	4,000.49	77.887	4,000.49	63.6221	4,000.49	75.2026	4,000.49	69.8483	4,000.49	72.2038
4,141.11	83.2678	4,141.11	80.3611	4,141.11	84.8672	4,141.11	79.0133	4,141.11	85.8557	4,141.11	80.1963	4,141.11	85.1559	4,141.11	81.3014	4,141.11	83.2242	4,141.11	80.8959	4,141.11	83.8261	4,141.11	79.2532	4,141.11	83.3224	4,141.11	79.656	4,141.11	84.0803	4,141.11	73.0717	4,141.11	79.8617	4,141.11	75.6156	4,141.11	66.132	4,141.11	71.5555	4,141.11	56.3042	4,141.11	67.7578	4,141.11	77.8939	4,141.11	74.6721	4,141.11	71.8796	4,141.11	72.972	4,141.11	64.6051	4,141.11	79.1717	4,141.11	58.3938	4,141.11	74.4136	4,141.11	61.1132	4,141.11	79.8273	4,141.11	70.1162	4,141.11	77.7183	4,141.11	66.3855	4,141.11	74.9297
4,287.6	81.0291	4,287.6	75.9978	4,287.6	83.6706	4,287.6	77.342	4,287.6	83.4389	4,287.6	79.8994	4,287.6	82.9514	4,287.6	82.2019	4,287.6	83.389	4,287.6	78.308	4,287.6	83.2638	4,287.6	78.7558	4,287.6	84.35	4,287.6	78.4923	4,287.6	82.4874	4,287.6	75.6634	4,287.6	77.0916	4,287.6	77.1715	4,287.6	74.5286	4,287.6	74.0494	4,287.6	74.3718	4,287.6	66.0216	4,287.6	75.2207	4,287.6	71.2788	4,287.6	67.5554	4,287.6	75.1495	4,287.6	59.2514	4,287.6	77.9761	4,287.6	63.5502	4,287.6	77.128	4,287.6	65.1879	4,287.6	80.1347	4,287.6	68.4133	4,287.6	76.5212	4,287.6	69.5375	4,287.6	75.4298
4,438.48	76.6922	4,438.48	74.6947	4,438.48	79.5102	4,438.48	78.341	4,438.48	81.7865	4,438.48	81.0051	4,438.48	82.5104	4,438.48	80.5302	4,438.48	82.0479	4,438.48	78.3119	4,438.48	83.3221	4,438.48	78.194	4,438.48	82.4727	4,438.48	77.9661	4,438.48	78.9188	4,438.48	66.5823	4,438.48	76.8302	4,438.48	72.9535	4,438.48	72.9891	4,438.48	73.0583	4,438.48	74.5627	4,438.48	62.8363	4,438.48	76.3292	4,438.48	72.0344	4,438.48	73.6285	4,438.48	72.1289	4,438.48	65.4262	4,438.48	76.391	4,438.48	61.4031	4,438.48	78.8631	4,438.48	73.4526	4,438.48	81.915	4,438.48	75.3655	4,438.48	79.3346	4,438.48	72.1089	4,438.48	67.5283
4,595.21	73.0266	4,595.21	76.3855	4,595.21	72.887	4,595.21	81.376	4,595.21	75.7444	4,595.21	83.627	4,595.21	79.2829	4,595.21	81.2521	4,595.21	81.421	4,595.21	80.6069	4,595.21	81.3229	4,595.21	78.7523	4,595.21	81.7712	4,595.21	79.3947	4,595.21	79.8389	4,595.21	73.8482	4,595.21	78.4529	4,595.21	73.9049	4,595.21	73.8215	4,595.21	75.2444	4,595.21	70.0425	4,595.21	60.4469	4,595.21	75.3933	4,595.21	72.5378	4,595.21	71.8566	4,595.21	69.472	4,595.21	72.3704	4,595.21	76.7803	4,595.21	75.479	4,595.21	79.3261	4,595.21	78.8978	4,595.21	78.2938	4,595.21	77.3945	4,595.21	78.7362	4,595.21	71.2029	4,595.21	69.3225
4,756.35	72.2164	4,756.35	79.6173	4,756.35	52.9003	4,756.35	84.5002	4,756.35	69.2046	4,756.35	85.5067	4,756.35	77.5137	4,756.35	84.8598	4,756.35	79.8279	4,756.35	83.8909	4,756.35	78.9583	4,756.35	81.2416	4,756.35	77.9315	4,756.35	80.981	4,756.35	77.4822	4,756.35	74.7937	4,756.35	76.8646	4,756.35	72.8261	4,756.35	71.1116	4,756.35	75.5912	4,756.35	74.0879	4,756.35	57.7195	4,756.35	75.9137	4,756.35	73.8018	4,756.35	70.8936	4,756.35	64.4979	4,756.35	75.3702	4,756.35	78.3453	4,756.35	78.2832	4,756.35	79.3091	4,756.35	77.7165	4,756.35	77.8171	4,756.35	72.5653	4,756.35	71.8134	4,756.35	71.966	4,756.35	70.6764
4,924.8	74.8614	4,924.8	82.1558	4,924.8	70.7926	4,924.8	86.05	4,924.8	77.2497	4,924.8	86.6075	4,924.8	81.4828	4,924.8	86.4884	4,924.8	83.2582	4,924.8	84.9607	4,924.8	81.6352	4,924.8	81.747	4,924.8	78.1832	4,924.8	80.6141	4,924.8	75.8835	4,924.8	75.7696	4,924.8	76.2238	4,924.8	71.789	4,924.8	75.2556	4,924.8	72.2235	4,924.8	79.2124	4,924.8	61.994	4,924.8	76.986	4,924.8	73.2221	4,924.8	69.5208	4,924.8	66.4581	4,924.8	78.866	4,924.8	78.934	4,924.8	79.2079	4,924.8	76.0399	4,924.8	73.8938	4,924.8	77.2311	4,924.8	68.9817	4,924.8	72.3688	4,924.8	68.1165	4,924.8	75.2162
5,097.66	79.631	5,097.66	83.5467	5,097.66	76.2696	5,097.66	85.6481	5,097.66	80.4545	5,097.66	86.5787	5,097.66	84.0707	5,097.66	85.8243	5,097.66	85.0396	5,097.66	83.5239	5,097.66	83.6128	5,097.66	80.8778	5,097.66	80.2725	5,097.66	78.6465	5,097.66	77.1509	5,097.66	74.371	5,097.66	78.9452	5,097.66	72.5043	5,097.66	76.9783	5,097.66	67.8654	5,097.66	78.3322	5,097.66	67.8965	5,097.66	74.769	5,097.66	69.053	5,097.66	70.6476	5,097.66	70.2441	5,097.66	79.6534	5,097.66	78.0928	5,097.66	79.0697	5,097.66	73.7375	5,097.66	71.7754	5,097.66	78.634	5,097.66	57.4504	5,097.66	76.9481	5,097.66	62.8736	5,097.66	78.5288
5,277.83	81.1055	5,277.83	83.6953	5,277.83	78.323	5,277.83	84.7693	5,277.83	81.9144	5,277.83	85.8964	5,277.83	85.0151	5,277.83	84.6156	5,277.83	84.8153	5,277.83	82.1269	5,277.83	82.8978	5,277.83	80.3793	5,277.83	81.3417	5,277.83	77.5154	5,277.83	77.6362	5,277.83	74.5871	5,277.83	75.4562	5,277.83	72.7043	5,277.83	76.9346	5,277.83	67.5695	5,277.83	77.5996	5,277.83	71.1296	5,277.83	71.3105	5,277.83	65.3103	5,277.83	71.2402	5,277.83	74.7403	5,277.83	77.074	5,277.83	74.5557	5,277.83	76.5257	5,277.83	74.8678	5,277.83	67.377	5,277.83	80.1758	5,277.83	63.4167	5,277.83	76.5384	5,277.83	69.6283	5,277.83	77.2103
5,463.87	80.78	5,463.87	82.7802	5,463.87	79.8034	5,463.87	83.8944	5,463.87	82.4948	5,463.87	85.5341	5,463.87	84.4338	5,463.87	83.3589	5,463.87	84.4093	5,463.87	80.9526	5,463.87	82.7911	5,463.87	78.5548	5,463.87	80.0821	5,463.87	78.3556	5,463.87	78.0836	5,463.87	75.0575	5,463.87	78.2017	5,463.87	75.1747	5,463.87	77.9293	5,463.87	67.8685	5,463.87	77.0682	5,463.87	70.4518	5,463.87	74.3932	5,463.87	64.9703	5,463.87	74.3978	5,463.87	75.5656	5,463.87	76.761	5,463.87	71.7765	5,463.87	71.3714	5,463.87	76.8948	5,463.87	62.7739	5,463.87	80.1384	5,463.87	69.5077	5,463.87	77.3988	5,463.87	70.1631	5,463.87	73.7872
5,657.23	80.2421	5,657.23	82.0987	5,657.23	80.4882	5,657.23	83.7531	5,657.23	82.6992	5,657.23	82.8058	5,657.23	83.1712	5,657.23	81.899	5,657.23	81.8448	5,657.23	81.1758	5,657.23	80.8544	5,657.23	80.6864	5,657.23	81.0411	5,657.23	78.6374	5,657.23	78.6955	5,657.23	76.5468	5,657.23	74.9343	5,657.23	74.0756	5,657.23	79.4709	5,657.23	66.7152	5,657.23	78.3918	5,657.23	70.0138	5,657.23	72.6274	5,657.23	55.8185	5,657.23	74.6185	5,657.23	75.8073	5,657.23	76.6128	5,657.23	68.2105	5,657.23	66.4347	5,657.23	78.628	5,657.23	61.3079	5,657.23	78.3053	5,657.23	71.377	5,657.23	73.7891	5,657.23	68.5223	5,657.23	71.6367
5,856.45	80.1138	5,856.45	82.3709	5,856.45	79.6635	5,856.45	81.2701	5,856.45	82.319	5,856.45	80.5043	5,856.45	82.4041	5,856.45	80.9222	5,856.45	80.586	5,856.45	80.4019	5,856.45	79.9671	5,856.45	81.0086	5,856.45	80.8418	5,856.45	78.6692	5,856.45	77.2903	5,856.45	74.2067	5,856.45	75.7537	5,856.45	73.243	5,856.45	79.5076	5,856.45	67.0467	5,856.45	79.3873	5,856.45	67.8058	5,856.45	71.7969	5,856.45	61.7265	5,856.45	71.5721	5,856.45	73.3139	5,856.45	73.5421	5,856.45	65.026	5,856.45	65.6244	5,856.45	78.5271	5,856.45	66.3903	5,856.45	73.7449	5,856.45	68.871	5,856.45	70.0475	5,856.45	62.8557	5,856.45	71.5097
6,062.99	80.6092	6,062.99	81.3466	6,062.99	79.2758	6,062.99	78.2057	6,062.99	82.1046	6,062.99	78.6869	6,062.99	82.2858	6,062.99	80.3086	6,062.99	80.854	6,062.99	78.9147	6,062.99	80.2513	6,062.99	78.2491	6,062.99	79.5792	6,062.99	76.4298	6,062.99	76.5953	6,062.99	73.8264	6,062.99	75.0232	6,062.99	69.8194	6,062.99	79.6262	6,062.99	67.2861	6,062.99	80.2945	6,062.99	62.1241	6,062.99	68.0083	6,062.99	64.3751	6,062.99	68.3981	6,062.99	69.3141	6,062.99	69.1215	6,062.99	59.0706	6,062.99	69.6867	6,062.99	77.2823	6,062.99	64.2503	6,062.99	67.5633	6,062.99	63.0862	6,062.99	68.2306	6,062.99	59.788	6,062.99	68.9972
6,276.86	80.042	6,276.86	79.1634	6,276.86	79.5048	6,276.86	76.6122	6,276.86	81.4437	6,276.86	78.2669	6,276.86	81.8486	6,276.86	79.0747	6,276.86	80.3248	6,276.86	78.6145	6,276.86	78.9362	6,276.86	78.4113	6,276.86	78.259	6,276.86	76.0622	6,276.86	75.9016	6,276.86	73.3722	6,276.86	72.8409	6,276.86	68.0323	6,276.86	79.0287	6,276.86	64.9495	6,276.86	80.225	6,276.86	62.4328	6,276.86	66.3923	6,276.86	64.4558	6,276.86	61.9036	6,276.86	65.8809	6,276.86	60.9605	6,276.86	65.8082	6,276.86	67.8802	6,276.86	75.2882	6,276.86	61.8404	6,276.86	61.5593	6,276.86	60.64	6,276.86	68.6342	6,276.86	59.4323	6,276.86	67.4511
6,498.05	78.5393	6,498.05	76.7904	6,498.05	79.0589	6,498.05	74.3999	6,498.05	80.5153	6,498.05	77.6352	6,498.05	81.1078	6,498.05	78.6967	6,498.05	79.9374	6,498.05	78.0424	6,498.05	77.9433	6,498.05	77.0835	6,498.05	75.9641	6,498.05	74.3182	6,498.05	73.9277	6,498.05	70.5707	6,498.05	69.1086	6,498.05	66.4508	6,498.05	78.135	6,498.05	65.1749	6,498.05	80.049	6,498.05	58.9873	6,498.05	66.1639	6,498.05	65.5972	6,498.05	56.9628	6,498.05	61.3063	6,498.05	63.9027	6,498.05	69.2665	6,498.05	65.6891	6,498.05	72.5431	6,498.05	68.3282	6,498.05	61.9788	6,498.05	66.9758	6,498.05	68.739	6,498.05	61.8422	6,498.05	64.5054
6,726.56	77.1198	6,726.56	73.7473	6,726.56	79.0144	6,726.56	72.2159	6,726.56	79.6643	6,726.56	78.2783	6,726.56	80.3162	6,726.56	77.9733	6,726.56	79.8796	6,726.56	76.4335	6,726.56	77.4689	6,726.56	75.853	6,726.56	74.363	6,726.56	74.35	6,726.56	68.3215	6,726.56	70.071	6,726.56	69.1675	6,726.56	62.3117	6,726.56	76.3138	6,726.56	64.9266	6,726.56	79.4714	6,726.56	55.3108	6,726.56	67.1196	6,726.56	64.6537	6,726.56	63.05	6,726.56	59.1353	6,726.56	67.1123	6,726.56	71.608	6,726.56	60.2214	6,726.56	70.1949	6,726.56	69.7563	6,726.56	66.1531	6,726.56	66.9017	6,726.56	66.3305	6,726.56	62.7202	6,726.56	60.778
6,963.87	75.0476	6,963.87	73.9917	6,963.87	77.8318	6,963.87	71.7108	6,963.87	78.9715	6,963.87	77.2935	6,963.87	79.8935	6,963.87	76.5069	6,963.87	79.652	6,963.87	76.1743	6,963.87	76.5937	6,963.87	74.4135	6,963.87	71.7094	6,963.87	71.6696	6,963.87	68.3948	6,963.87	67.8636	6,963.87	63.7291	6,963.87	58.2847	6,963.87	73.9971	6,963.87	64.5547	6,963.87	78.1846	6,963.87	55.1014	6,963.87	63.1156	6,963.87	63.6785	6,963.87	62.7563	6,963.87	57.7273	6,963.87	62.0826	6,963.87	70.8425	6,963.87	66.1997	6,963.87	70.0649	6,963.87	67.1929	6,963.87	69.4537	6,963.87	61.1665	6,963.87	60.8958	6,963.87	61.3059	6,963.87	66.6122
7,209.96	74.2047	7,209.96	75.4623	7,209.96	77.2828	7,209.96	71.0581	7,209.96	78.749	7,209.96	74.23	7,209.96	79.1389	7,209.96	76.0305	7,209.96	78.1665	7,209.96	75.7986	7,209.96	75.2536	7,209.96	74.8245	7,209.96	71.6987	7,209.96	70.9094	7,209.96	68.3351	7,209.96	66.3087	7,209.96	60.56	7,209.96	57.3732	7,209.96	72.2009	7,209.96	64.1941	7,209.96	76.6094	7,209.96	56.6312	7,209.96	61.5047	7,209.96	63.6413	7,209.96	56.9025	7,209.96	57.7454	7,209.96	60.5262	7,209.96	70.7247	7,209.96	63.2131	7,209.96	66.9719	7,209.96	63.5976	7,209.96	71.1226	7,209.96	54.7454	7,209.96	57.2613	7,209.96	51.401	7,209.96	69.9479
7,464.84	74.0253	7,464.84	77.3723	7,464.84	76.1626	7,464.84	73.4706	7,464.84	77.0442	7,464.84	71.8492	7,464.84	78.2084	7,464.84	75.267	7,464.84	78.0187	7,464.84	75.3672	7,464.84	75.5587	7,464.84	74.5121	7,464.84	71.9885	7,464.84	70.6352	7,464.84	64.9853	7,464.84	65.727	7,464.84	56.4546	7,464.84	58.7435	7,464.84	70.8901	7,464.84	63.63	7,464.84	75.7941	7,464.84	52.9565	7,464.84	63.7442	7,464.84	65.3915	7,464.84	51.5198	7,464.84	51.0392	7,464.84	64.2311	7,464.84	71.5304	7,464.84	64.2685	7,464.84	65.6222	7,464.84	60.5352	7,464.84	72.3701	7,464.84	42.9064	7,464.84	54.1098	7,464.84	58.2633	7,464.84	71.5718
7,727.05	74.7903	7,727.05	77.9315	7,727.05	75.5286	7,727.05	75.1614	7,727.05	76.0776	7,727.05	74.8369	7,727.05	77.4592	7,727.05	74.3866	7,727.05	78.4822	7,727.05	74.5517	7,727.05	74.7762	7,727.05	74.6356	7,727.05	70.868	7,727.05	72.2355	7,727.05	64.2354	7,727.05	68.5759	7,727.05	63.0521	7,727.05	65.5129	7,727.05	69.4519	7,727.05	65.2245	7,727.05	76.6532	7,727.05	57.4225	7,727.05	67.2875	7,727.05	65.5446	7,727.05	55.8648	7,727.05	54.0535	7,727.05	63.1953	7,727.05	71.5364	7,727.05	62.9911	7,727.05	68.2714	7,727.05	58.6781	7,727.05	73.0189	7,727.05	64.7832	7,727.05	54.7576	7,727.05	56.9076	7,727.05	71.7271
7,999.51	76.498	7,999.51	77.6802	7,999.51	74.4826	7,999.51	75.2798	7,999.51	75.926	7,999.51	76.3012	7,999.51	77.078	7,999.51	75.4468	7,999.51	77.5657	7,999.51	74.4823	7,999.51	75.3977	7,999.51	74.3698	7,999.51	73.1485	7,999.51	72.8464	7,999.51	68.4581	7,999.51	69.7375	7,999.51	67.5411	7,999.51	67.6175	7,999.51	72.9254	7,999.51	64.0876	7,999.51	77.7283	7,999.51	57.9528	7,999.51	67.9041	7,999.51	64.8222	7,999.51	48.7241	7,999.51	62.4712	7,999.51	60.2641	7,999.51	70.3186	7,999.51	62.0573	7,999.51	71.2128	7,999.51	60.6106	7,999.51	70.1996	7,999.51	69.6174	7,999.51	61.5833	7,999.51	56.7988	7,999.51	70.0093
8,282.23	78.1534	8,282.23	76.8197	8,282.23	74.9496	8,282.23	75.5137	8,282.23	75.4645	8,282.23	77.8165	8,282.23	76.2846	8,282.23	76.3039	8,282.23	77.9074	8,282.23	73.796	8,282.23	78.186	8,282.23	71.6083	8,282.23	76.2728	8,282.23	71.5203	8,282.23	73.5009	8,282.23	68.7989	8,282.23	67.1814	8,282.23	65.8014	8,282.23	75.917	8,282.23	63.4132	8,282.23	80.099	8,282.23	50.8592	8,282.23	69.8876	8,282.23	63.004	8,282.23	42.0022	8,282.23	65.7029	8,282.23	38.2775	8,282.23	68.4639	8,282.23	65.045	8,282.23	71.4034	8,282.23	65.8223	8,282.23	63.5494	8,282.23	71.802	8,282.23	62.1224	8,282.23	56.7699	8,282.23	68.7092
8,573.73	79.5778	8,573.73	74.2016	8,573.73	77.737	8,573.73	74.761	8,573.73	75.1412	8,573.73	78.7088	8,573.73	76.2637	8,573.73	78.1222	8,573.73	79.152	8,573.73	75.2427	8,573.73	79.985	8,573.73	71.8086	8,573.73	77.4735	8,573.73	71.53	8,573.73	69.6411	8,573.73	68.5268	8,573.73	62.4677	8,573.73	63.0468	8,573.73	75.6468	8,573.73	62.3193	8,573.73	81.1212	8,573.73	40.4194	8,573.73	68.1987	8,573.73	65.0378	8,573.73	51.2186	8,573.73	67.6656	8,573.73	58.6249	8,573.73	63.0309	8,573.73	66.9172	8,573.73	67.7959	8,573.73	65.2905	8,573.73	67.8701	8,573.73	73.4877	8,573.73	58.5906	8,573.73	63.6858	8,573.73	67.5631
8,876.95	79.617	8,876.95	67.6137	8,876.95	79.6858	8,876.95	75.17	8,876.95	76.3794	8,876.95	79.6084	8,876.95	75.9964	8,876.95	79.8788	8,876.95	79.0764	8,876.95	78.1944	8,876.95	80.8679	8,876.95	72.3063	8,876.95	78.0252	8,876.95	71.4419	8,876.95	68.9012	8,876.95	69.1605	8,876.95	66.5669	8,876.95	63.2766	8,876.95	75.1634	8,876.95	63.0532	8,876.95	81.4941	8,876.95	46.9986	8,876.95	68.7755	8,876.95	67.3619	8,876.95	60.2722	8,876.95	70.0144	8,876.95	67.8343	8,876.95	51.1599	8,876.95	68.156	8,876.95	65.9072	8,876.95	65.7795	8,876.95	75.1924	8,876.95	72.7952	8,876.95	53.3057	8,876.95	68.8582	8,876.95	67.306
9,188.96	78.2536	9,188.96	58.7882	9,188.96	80.1636	9,188.96	76.3514	9,188.96	78.5264	9,188.96	80.669	9,188.96	76.1758	9,188.96	81.5531	9,188.96	77.5439	9,188.96	77.9355	9,188.96	79.7018	9,188.96	71.6669	9,188.96	78.8985	9,188.96	75.4795	9,188.96	73.4363	9,188.96	72.7185	9,188.96	75.8575	9,188.96	66.1125	9,188.96	72.0619	9,188.96	68.0642	9,188.96	81.7559	9,188.96	48.6275	9,188.96	70.2927	9,188.96	65.1369	9,188.96	71.529	9,188.96	70.3245	9,188.96	71.6676	9,188.96	68.2798	9,188.96	67.7315	9,188.96	71.3906	9,188.96	59.0244	9,188.96	78.9776	9,188.96	71.4471	9,188.96	68.3321	9,188.96	71.3669	9,188.96	65.4907
9,514.16	74.6253	9,514.16	67.7901	9,514.16	79.5696	9,514.16	77.702	9,514.16	80.1702	9,514.16	81.8229	9,514.16	77.0131	9,514.16	78.8642	9,514.16	76.3507	9,514.16	75.4793	9,514.16	77.6821	9,514.16	74.9413	9,514.16	78.579	9,514.16	76.1977	9,514.16	76.3195	9,514.16	73.0053	9,514.16	77.8953	9,514.16	63.6831	9,514.16	58.0721	9,514.16	70.5126	9,514.16	79.0361	9,514.16	58.8934	9,514.16	69.4893	9,514.16	66.2761	9,514.16	72.4234	9,514.16	69.359	9,514.16	69.3535	9,514.16	72.5118	9,514.16	74.9961	9,514.16	73.2374	9,514.16	59.5879	9,514.16	76.6034	9,514.16	71.7993	9,514.16	72.8006	9,514.16	73.4784	9,514.16	66.5503
9,849.61	72.1824	9,849.61	76.2663	9,849.61	78.6951	9,849.61	79.4885	9,849.61	80.1412	9,849.61	81.9453	9,849.61	76.8268	9,849.61	74.4255	9,849.61	73.4158	9,849.61	77.8196	9,849.61	71.9422	9,849.61	75.8039	9,849.61	73.8876	9,849.61	76.5025	9,849.61	74.2183	9,849.61	71.9341	9,849.61	75.6311	9,849.61	65.3023	9,849.61	70.2038	9,849.61	72.0562	9,849.61	67.1855	9,849.61	65.0151	9,849.61	64.3922	9,849.61	67.863	9,849.61	71.496	9,849.61	67.4938	9,849.61	70.4152	9,849.61	73.7677	9,849.61	75.7165	9,849.61	64.6489	9,849.61	64.9256	9,849.61	73.5411	9,849.61	74.8996	9,849.61	69.5807	9,849.61	73.3765	9,849.61	67.0866
10,196.8	72.3714	10,196.8	79.8461	10,196.8	77.3409	10,196.8	80.4856	10,196.8	80.398	10,196.8	79.6827	10,196.8	79.1911	10,196.8	75.0492	10,196.8	71.641	10,196.8	78.4208	10,196.8	56.4949	10,196.8	75.256	10,196.8	67.7175	10,196.8	76.6932	10,196.8	73.5588	10,196.8	68.8901	10,196.8	72.9697	10,196.8	63.3541	10,196.8	69.8028	10,196.8	71.0992	10,196.8	73.7315	10,196.8	64.3028	10,196.8	59.2259	10,196.8	65.6605	10,196.8	71.1237	10,196.8	61.1315	10,196.8	71.8005	10,196.8	68.67	10,196.8	74.9013	10,196.8	68.3996	10,196.8	65.4664	10,196.8	76.4447	10,196.8	73.1601	10,196.8	72.328	10,196.8	71.8727	10,196.8	68.725
10,555.7	74.79	10,555.7	79.8143	10,555.7	73.7316	10,555.7	80.223	10,555.7	78.5156	10,555.7	75.9394	10,555.7	78.8418	10,555.7	77.786	10,555.7	71.9008	10,555.7	77.6312	10,555.7	65.8763	10,555.7	75.4802	10,555.7	68.4915	10,555.7	76.0104	10,555.7	73.6248	10,555.7	68.4478	10,555.7	73.201	10,555.7	65.3879	10,555.7	70.8576	10,555.7	65.1467	10,555.7	80.2585	10,555.7	59.7287	10,555.7	68.9766	10,555.7	60.7727	10,555.7	68.7306	10,555.7	62.6628	10,555.7	68.8919	10,555.7	66.4735	10,555.7	72.5577	10,555.7	74.4511	10,555.7	61.9387	10,555.7	77.1601	10,555.7	69.7317	10,555.7	73.2698	10,555.7	69.8747	10,555.7	69.6144
10,927.7	78.3095	10,927.7	78.9101	10,927.7	70.0885	10,927.7	77.9151	10,927.7	76.3531	10,927.7	74.1145	10,927.7	76.7131	10,927.7	77.9806	10,927.7	71.0201	10,927.7	76.6335	10,927.7	68.9133	10,927.7	74.408	10,927.7	69.3267	10,927.7	73.8766	10,927.7	72.749	10,927.7	68.1215	10,927.7	67.368	10,927.7	65.1805	10,927.7	68.9142	10,927.7	64.7011	10,927.7	81.6329	10,927.7	60.7402	10,927.7	71.3793	10,927.7	62.2031	10,927.7	65.0469	10,927.7	65.7705	10,927.7	66.4832	10,927.7	74.4316	10,927.7	73.4556	10,927.7	74.431	10,927.7	52.6642	10,927.7	75.8476	10,927.7	70.0869	10,927.7	72.5943	10,927.7	68.6196	10,927.7	72.383
11,313	81.2166	11,313	78.7661	11,313	73.7093	11,313	72.6084	11,313	70.6105	11,313	78.9576	11,313	73.9308	11,313	76.689	11,313	71.0956	11,313	74.0306	11,313	71.4459	11,313	71.4779	11,313	68.6777	11,313	73.7837	11,313	73.0156	11,313	70.3623	11,313	66.9778	11,313	66.4808	11,313	71.3084	11,313	70.4401	11,313	80.6539	11,313	65.5973	11,313	68.4484	11,313	64.4034	11,313	65.6875	11,313	67.5497	11,313	69.8356	11,313	76.9072	11,313	75.0667	11,313	70.7557	11,313	46.4953	11,313	73.6581	11,313	69.5	11,313	70.7068	11,313	70.6097	11,313	73.99
11,712.9	82.1806	11,712.9	77.4845	11,712.9	77.7619	11,712.9	70.5336	11,712.9	52.9518	11,712.9	81.1998	11,712.9	72.4131	11,712.9	73.3724	11,712.9	75.657	11,712.9	73.8148	11,712.9	74.6302	11,712.9	72.9147	11,712.9	72.7024	11,712.9	74.1469	11,712.9	74.791	11,712.9	70.0017	11,712.9	63.4087	11,712.9	64.1735	11,712.9	70.2012	11,712.9	72.2779	11,712.9	74.1844	11,712.9	69.0019	11,712.9	66.6783	11,712.9	65.2792	11,712.9	67.0825	11,712.9	66.3694	11,712.9	65.6617	11,712.9	76.8635	11,712.9	75.7736	11,712.9	66.3487	11,712.9	65.2892	11,712.9	78.3766	11,712.9	71.4722	11,712.9	67.915	11,712.9	73.3892	11,712.9	74.722
12,126	81.8106	12,126	75.3513	12,126	78.4105	12,126	73.556	12,126	59.1243	12,126	78.7429	12,126	73.0447	12,126	70.8059	12,126	75.9705	12,126	74.8469	12,126	76.0861	12,126	72.4008	12,126	74.0314	12,126	70.9101	12,126	75.425	12,126	66.831	12,126	62.1782	12,126	45.5782	12,126	69.0407	12,126	71.3876	12,126	71.9712	12,126	70.4781	12,126	68.5831	12,126	61.9129	12,126	64.2152	12,126	67.0886	12,126	61.0789	12,126	74.125	12,126	76.2285	12,126	68.3007	12,126	71.9467	12,126	80.3589	12,126	75.4665	12,126	71.9518	12,126	77.7045	12,126	78.7341
12,553.7	79.7515	12,553.7	76.7635	12,553.7	80.3461	12,553.7	76.8974	12,553.7	74.6341	12,553.7	73.3137	12,553.7	74.2712	12,553.7	73.2494	12,553.7	77.8019	12,553.7	73.2484	12,553.7	74.5566	12,553.7	70.9666	12,553.7	73.6367	12,553.7	67.5785	12,553.7	68.3641	12,553.7	53.8627	12,553.7	65.1028	12,553.7	67.2432	12,553.7	67.8773	12,553.7	62.1992	12,553.7	76.7349	12,553.7	68.4022	12,553.7	73.5517	12,553.7	61.2214	12,553.7	62.9304	12,553.7	65.8767	12,553.7	68.8855	12,553.7	73.9397	12,553.7	67.5536	12,553.7	67.7256	12,553.7	68.3549	12,553.7	81.7831	12,553.7	77.1125	12,553.7	75.1741	12,553.7	79.1712	12,553.7	80.2052
12,996.1	78.0908	12,996.1	81.4818	12,996.1	82.3848	12,996.1	79.1055	12,996.1	79.1573	12,996.1	74.6855	12,996.1	77.573	12,996.1	74.4551	12,996.1	78.8537	12,996.1	71.4299	12,996.1	71.905	12,996.1	70.9783	12,996.1	73.4002	12,996.1	57.9775	12,996.1	59.2727	12,996.1	67.2237	12,996.1	69.012	12,996.1	69.7364	12,996.1	67.9462	12,996.1	65.4515	12,996.1	71.8934	12,996.1	65.6703	12,996.1	72.029	12,996.1	54.0797	12,996.1	63.8575	12,996.1	67.9996	12,996.1	61.5138	12,996.1	73.202	12,996.1	67.4914	12,996.1	66.804	12,996.1	72.6978	12,996.1	81.6238	12,996.1	78.3783	12,996.1	75.1184	12,996.1	79.5664	12,996.1	80.9333
13,454.6	82.8999	13,454.6	84.0664	13,454.6	80.7669	13,454.6	80.51	13,454.6	82.1114	13,454.6	76.597	13,454.6	79.1533	13,454.6	72.3825	13,454.6	79.1807	13,454.6	75.9293	13,454.6	71.6556	13,454.6	67.9117	13,454.6	73.1482	13,454.6	66.5673	13,454.6	62.6871	13,454.6	71.0528	13,454.6	71.2914	13,454.6	65.3786	13,454.6	71.46	13,454.6	71.6051	13,454.6	67.7755	13,454.6	67.9257	13,454.6	69.1869	13,454.6	72.423	13,454.6	58.1365	13,454.6	74.465	13,454.6	67.3925	13,454.6	70.854	13,454.6	70.5306	13,454.6	70.7429	13,454.6	73.6447	13,454.6	82.1961	13,454.6	77.7438	13,454.6	71.5076	13,454.6	79.5765	13,454.6	82.1856
13,929.2	85.9089	13,929.2	82.5117	13,929.2	79.5692	13,929.2	82.2419	13,929.2	82.4563	13,929.2	76.3768	13,929.2	79.6615	13,929.2	70.0938	13,929.2	79.0329	13,929.2	75.0875	13,929.2	74.1582	13,929.2	66.365	13,929.2	69.8689	13,929.2	71.8883	13,929.2	65.4467	13,929.2	66.8786	13,929.2	64.9216	13,929.2	58.3611	13,929.2	66.669	13,929.2	66.0682	13,929.2	75.1339	13,929.2	63.406	13,929.2	71.4157	13,929.2	74.2052	13,929.2	62.2409	13,929.2	74.8542	13,929.2	59.7774	13,929.2	59.2516	13,929.2	71.5254	13,929.2	74.0532	13,929.2	74.901	13,929.2	80.3801	13,929.2	74.6371	13,929.2	64.546	13,929.2	78.7916	13,929.2	81.3485
14,419.9	85.0056	14,419.9	78.8485	14,419.9	82.7826	14,419.9	81.1222	14,419.9	80.3767	14,419.9	77.3128	14,419.9	78.999	14,419.9	72.2117	14,419.9	78.4712	14,419.9	67.6324	14,419.9	76.4321	14,419.9	67.0181	14,419.9	64.0989	14,419.9	66.6982	14,419.9	71.3607	14,419.9	64.4186	14,419.9	69.0402	14,419.9	64.4112	14,419.9	62.0642	14,419.9	60.1683	14,419.9	71.0412	14,419.9	63.9467	14,419.9	70.2508	14,419.9	69.8788	14,419.9	55.1985	14,419.9	70.6627	14,419.9	67.2552	14,419.9	71.9165	14,419.9	66.5855	14,419.9	74.0536	14,419.9	74.918	14,419.9	75.0182	14,419.9	69.119	14,419.9	69.9363	14,419.9	75.8937	14,419.9	78.2213
14,928.2	81.8213	14,928.2	78.6065	14,928.2	83.2366	14,928.2	78.66	14,928.2	76.7923	14,928.2	75.6539	14,928.2	75.2925	14,928.2	72.8642	14,928.2	78.3695	14,928.2	57.1296	14,928.2	74.9625	14,928.2	57.614	14,928.2	65.6178	14,928.2	67.6007	14,928.2	70.6508	14,928.2	69.7104	14,928.2	72.3495	14,928.2	58.9669	14,928.2	71.8078	14,928.2	63.9565	14,928.2	70.7857	14,928.2	62.8855	14,928.2	70.2968	14,928.2	59.4324	14,928.2	62.7283	14,928.2	67.1735	14,928.2	64.5639	14,928.2	72.4103	14,928.2	69.1305	14,928.2	71.6393	14,928.2	74.7164	14,928.2	72.1507	14,928.2	66.477	14,928.2	72.1981	14,928.2	66.2513	14,928.2	76.5415
15,455.6	74.5812	15,455.6	78.2707	15,455.6	80.1282	15,455.6	76.4864	15,455.6	74.6507	15,455.6	71.5997	15,455.6	70.8726	15,455.6	70.6688	15,455.6	73.6942	15,455.6	60.4055	15,455.6	69.5794	15,455.6	56.8935	15,455.6	66.7703	15,455.6	69.3359	15,455.6	68.2809	15,455.6	67.2145	15,455.6	70.885	15,455.6	57.4738	15,455.6	72.0057	15,455.6	62.9691	15,455.6	65.148	15,455.6	54.6437	15,455.6	67.6679	15,455.6	62.415	15,455.6	71.1794	15,455.6	73.4069	15,455.6	65.1016	15,455.6	70.5621	15,455.6	55.0444	15,455.6	68.0096	15,455.6	74.9344	15,455.6	59.9515	15,455.6	63.6885	15,455.6	76.2808	15,455.6	63.5035	15,455.6	71.4254
16,000.5	62.5933	16,000.5	76.4661	16,000.5	75.1397	16,000.5	71.3801	16,000.5	72.7989	16,000.5	69.451	16,000.5	65.7471	16,000.5	52.8416	16,000.5	54.5278	16,000.5	66.834	16,000.5	62.8479	16,000.5	58.5231	16,000.5	66.5168	16,000.5	67.25	16,000.5	66.7395	16,000.5	64.5736	16,000.5	64.9932	16,000.5	56.6918	16,000.5	68.2824	16,000.5	58.3268	16,000.5	51.5429	16,000.5	59.0658	16,000.5	63.0098	16,000.5	62.9608	16,000.5	72.1836	16,000.5	65.4735	16,000.5	64.4919	16,000.5	61.8415	16,000.5	68.0586	16,000.5	67.5061	16,000.5	71.471	16,000.5	65.226	16,000.5	56.5889	16,000.5	73.886	16,000.5	65.0815	16,000.5	61.9629
16,564.5	72.245	16,564.5	75.1388	16,564.5	70.1852	16,564.5	71.4045	16,564.5	71.9901	16,564.5	58.2422	16,564.5	68.7333	16,564.5	63.1931	16,564.5	63.5823	16,564.5	69.2153	16,564.5	56.7125	16,564.5	59.5366	16,564.5	67.4202	16,564.5	65.5517	16,564.5	65.8773	16,564.5	61.5637	16,564.5	57.0363	16,564.5	52.3098	16,564.5	59.0825	16,564.5	51.4364	16,564.5	56.5873	16,564.5	57.1509	16,564.5	65.7997	16,564.5	65.3062	16,564.5	69.1275	16,564.5	55.7183	16,564.5	64.3854	16,564.5	63.4195	16,564.5	69.0261	16,564.5	62.8351	16,564.5	61.6022	16,564.5	62.15	16,564.5	67.2101	16,564.5	70.0499	16,564.5	66.3147	16,564.5	60.5606
17,148.9	75.2671	17,148.9	71.5497	17,148.9	69.4136	17,148.9	76.472	17,148.9	71.5685	17,148.9	60.7076	17,148.9	71.1041	17,148.9	66.2016	17,148.9	70.963	17,148.9	70.1438	17,148.9	62.8266	17,148.9	66.988	17,148.9	60.0169	17,148.9	68.7652	17,148.9	63.197	17,148.9	54.1609	17,148.9	63.8753	17,148.9	51.9452	17,148.9	65.1247	17,148.9	51.3442	17,148.9	57.6269	17,148.9	56.1497	17,148.9	66.6392	17,148.9	54.802	17,148.9	57.8241	17,148.9	60.447	17,148.9	67.3029	17,148.9	61.4186	17,148.9	69.4563	17,148.9	68.798	17,148.9	57.6149	17,148.9	69.3935	17,148.9	71.3034	17,148.9	58.7461	17,148.9	68.7464	17,148.9	68.4372
17,752.4	73.7276	17,752.4	69.1061	17,752.4	73.7787	17,752.4	76.4478	17,752.4	70.4765	17,752.4	69.5041	17,752.4	69.2731	17,752.4	61.7509	17,752.4	71.3437	17,752.4	66.3224	17,752.4	69.0365	17,752.4	72.0613	17,752.4	63.8452	17,752.4	66.3224	17,752.4	66.7561	17,752.4	58.4152	17,752.4	66.3546	17,752.4	43.5051	17,752.4	60.7556	17,752.4	48.2708	17,752.4	59.3762	17,752.4	60.2029	17,752.4	60.9855	17,752.4	60.5595	17,752.4	63.8906	17,752.4	65.9937	17,752.4	62.7961	17,752.4	66.6241	17,752.4	65.0144	17,752.4	66.7092	17,752.4	59.9154	17,752.4	69.6983	17,752.4	70.172	17,752.4	60.5919	17,752.4	69.0972	17,752.4	67.1399
18,379.4	72.8149	18,379.4	70.1998	18,379.4	72.5895	18,379.4	74.6292	18,379.4	74.377	18,379.4	74.3314	18,379.4	69.0969	18,379.4	55.8651	18,379.4	66.3722	18,379.4	67.2355	18,379.4	68.8036	18,379.4	69.3154	18,379.4	67.4827	18,379.4	65.5991	18,379.4	69.3262	18,379.4	48.8063	18,379.4	68.296	18,379.4	51.322	18,379.4	54.8139	18,379.4	43.122	18,379.4	61.999	18,379.4	51.9672	18,379.4	62.2815	18,379.4	57.3102	18,379.4	58.8548	18,379.4	62.3448	18,379.4	57.3513	18,379.4	66.8383	18,379.4	58.987	18,379.4	65.2554	18,379.4	66.4965	18,379.4	70.7427	18,379.4	70.8362	18,379.4	60.715	18,379.4	68.7032	18,379.4	69.2579
19,026.9	77.2024	19,026.9	71.3989	19,026.9	70.3197	19,026.9	78.5005	19,026.9	77.7277	19,026.9	77.6567	19,026.9	74.576	19,026.9	72.8168	19,026.9	61.1645	19,026.9	72.5267	19,026.9	67.5314	19,026.9	66.0378	19,026.9	64.9543	19,026.9	61.6537	19,026.9	67.7597	19,026.9	60.6743	19,026.9	64.6534	19,026.9	59.0517	19,026.9	48.772	19,026.9	55.0617	19,026.9	68.0377	19,026.9	49.0963	19,026.9	66.7722	19,026.9	50.0762	19,026.9	61.24	19,026.9	50.5448	19,026.9	68.4525	19,026.9	56.1216	19,026.9	64.5368	19,026.9	64.688	19,026.9	67.5878	19,026.9	64.9007	19,026.9	72.6025	19,026.9	67.9453	19,026.9	69.3374	19,026.9	66.0935
19,697.8	79.049	19,697.8	72.3972	19,697.8	76.3711	19,697.8	80.9111	19,697.8	78.2875	19,697.8	74.2966	19,697.8	78.9248	19,697.8	78.3559	19,697.8	58.9889	19,697.8	74.0254	19,697.8	58.4622	19,697.8	66.7732	19,697.8	58.0422	19,697.8	64.0161	19,697.8	65.8098	19,697.8	64.3215	19,697.8	57.7947	19,697.8	67.5105	19,697.8	52.2019	19,697.8	47.1987	19,697.8	63.114	19,697.8	59.7684	19,697.8	61.6711	19,697.8	55.2283	19,697.8	66.7022	19,697.8	58.11	19,697.8	65.6576	19,697.8	60.2536	19,697.8	67.9612	19,697.8	66.5082	19,697.8	64.4995	19,697.8	62.3263	19,697.8	65.6224	19,697.8	70.5054	19,697.8	69.8077	19,697.8	54.6198
19,999.5	78.5541	19,999.5	73.6632	19,999.5	79.4805	19,999.5	82.8428	19,999.5	77.3803	19,999.5	67.1991	19,999.5	80.8967	19,999.5	78.6886	19,999.5	64.7878	19,999.5	76.2123	19,999.5	54.2801	19,999.5	67.8189	19,999.5	68.1856	19,999.5	61.1269	19,999.5	69.2101	19,999.5	66.8734	19,999.5	68.2725	19,999.5	67.1959	19,999.5	52.2155	19,999.5	59.2177	19,999.5	64.5042	19,999.5	61.4113	19,999.5	61.8425	19,999.5	58.1919	19,999.5	65.8009	19,999.5	56.0764	19,999.5	57.3754	19,999.5	56.7283	19,999.5	68.2909	19,999.5	55.7578	19,999.5	60.9409	19,999.5	62.63	19,999.5	56.2115	19,999.5	66.7859	19,999.5	68.6677	19,999.5	52.8658
