"SPL Horizontal"
"On-Axis"		"10°"		"-10°"		"20°"		"-20°"		"30°"		"-30°"		"40°"		"-40°"		"50°"		"-50°"		"60°"		"-60°"		"70°"		"-70°"		"80°"		"-80°"		"90°"		"-90°"		"100°"		"-100°"		"110°"		"-110°"		"120°"		"-120°"		"130°"		"-130°"		"140°"		"-140°"		"150°"		"-150°"		"160°"		"-160°"		"170°"		"-170°"		"180°"
"Frequency / Hz"	"Sound Pressure Level / dB (re 20 µPa/V)  [2.83  V @ 1. m]"	"Frequency / Hz"	"Sound Pressure Level / dB (re 20 µPa/V)  [2.83  V @ 1. m]"	"Frequency / Hz"	"Sound Pressure Level / dB (re 20 µPa/V)  [2.83  V @ 1. m]"	"Frequency / Hz"	"Sound Pressure Level / dB (re 20 µPa/V)  [2.83  V @ 1. m]"	"Frequency / Hz"	"Sound Pressure Level / dB (re 20 µPa/V)  [2.83  V @ 1. m]"	"Frequency / Hz"	"Sound Pressure Level / dB (re 20 µPa/V)  [2.83  V @ 1. m]"	"Frequency / Hz"	"Sound Pressure Level / dB (re 20 µPa/V)  [2.83  V @ 1. m]"	"Frequency / Hz"	"Sound Pressure Level / dB (re 20 µPa/V)  [2.83  V @ 1. m]"	"Frequency / Hz"	"Sound Pressure Level / dB (re 20 µPa/V)  [2.83  V @ 1. m]"	"Frequency / Hz"	"Sound Pressure Level / dB (re 20 µPa/V)  [2.83  V @ 1. m]"	"Frequency / Hz"	"Sound Pressure Level / dB (re 20 µPa/V)  [2.83  V @ 1. m]"	"Frequency / Hz"	"Sound Pressure Level / dB (re 20 µPa/V)  [2.83  V @ 1. m]"	"Frequency / Hz"	"Sound Pressure Level / dB (re 20 µPa/V)  [2.83  V @ 1. m]"	"Frequency / Hz"	"Sound Pressure Level / dB (re 20 µPa/V)  [2.83  V @ 1. m]"	"Frequency / Hz"	"Sound Pressure Level / dB (re 20 µPa/V)  [2.83  V @ 1. m]"	"Frequency / Hz"	"Sound Pressure Level / dB (re 20 µPa/V)  [2.83  V @ 1. m]"	"Frequency / Hz"	"Sound Pressure Level / dB (re 20 µPa/V)  [2.83  V @ 1. m]"	"Frequency / Hz"	"Sound Pressure Level / dB (re 20 µPa/V)  [2.83  V @ 1. m]"	"Frequency / Hz"	"Sound Pressure Level / dB (re 20 µPa/V)  [2.83  V @ 1. m]"	"Frequency / Hz"	"Sound Pressure Level / dB (re 20 µPa/V)  [2.83  V @ 1. m]"	"Frequency / Hz"	"Sound Pressure Level / dB (re 20 µPa/V)  [2.83  V @ 1. m]"	"Frequency / Hz"	"Sound Pressure Level / dB (re 20 µPa/V)  [2.83  V @ 1. m]"	"Frequency / Hz"	"Sound Pressure Level / dB (re 20 µPa/V)  [2.83  V @ 1. m]"	"Frequency / Hz"	"Sound Pressure Level / dB (re 20 µPa/V)  [2.83  V @ 1. m]"	"Frequency / Hz"	"Sound Pressure Level / dB (re 20 µPa/V)  [2.83  V @ 1. m]"	"Frequency / Hz"	"Sound Pressure Level / dB (re 20 µPa/V)  [2.83  V @ 1. m]"	"Frequency / Hz"	"Sound Pressure Level / dB (re 20 µPa/V)  [2.83  V @ 1. m]"	"Frequency / Hz"	"Sound Pressure Level / dB (re 20 µPa/V)  [2.83  V @ 1. m]"	"Frequency / Hz"	"Sound Pressure Level / dB (re 20 µPa/V)  [2.83  V @ 1. m]"	"Frequency / Hz"	"Sound Pressure Level / dB (re 20 µPa/V)  [2.83  V @ 1. m]"	"Frequency / Hz"	"Sound Pressure Level / dB (re 20 µPa/V)  [2.83  V @ 1. m]"	"Frequency / Hz"	"Sound Pressure Level / dB (re 20 µPa/V)  [2.83  V @ 1. m]"	"Frequency / Hz"	"Sound Pressure Level / dB (re 20 µPa/V)  [2.83  V @ 1. m]"	"Frequency / Hz"	"Sound Pressure Level / dB (re 20 µPa/V)  [2.83  V @ 1. m]"	"Frequency / Hz"	"Sound Pressure Level / dB (re 20 µPa/V)  [2.83  V @ 1. m]"	"Frequency / Hz"	"Sound Pressure Level / dB (re 20 µPa/V)  [2.83  V @ 1. m]"
20.5078	62.58	20.5078	62.5833	20.5078	62.5885	20.5078	62.5983	20.5078	62.6086	20.5078	62.6247	20.5078	62.6398	20.5078	62.6619	20.5078	62.6814	20.5078	62.7092	20.5078	62.7324	20.5078	62.7655	20.5078	62.7916	20.5078	62.8293	20.5078	62.8576	20.5078	62.8992	20.5078	62.9286	20.5078	62.9731	20.5078	63.0027	20.5078	63.0491	20.5078	63.0779	20.5078	63.1248	20.5078	63.1518	20.5078	63.1976	20.5078	63.2221	20.5078	63.265	20.5078	63.2863	20.5078	63.3247	20.5078	63.3423	20.5078	63.3743	20.5078	63.3878	20.5078	63.4119	20.5078	63.421	20.5078	63.4361	20.5078	63.4407	20.5078	63.4458
21.9727	65.2331	21.9727	65.2321	21.9727	65.2464	21.9727	65.2433	21.9727	65.2716	21.9727	65.2666	21.9727	65.3081	21.9727	65.3014	21.9727	65.3551	21.9727	65.347	21.9727	65.4115	21.9727	65.4024	21.9727	65.4759	21.9727	65.4661	21.9727	65.5466	21.9727	65.5367	21.9727	65.6217	21.9727	65.612	21.9727	65.6991	21.9727	65.6901	21.9727	65.7765	21.9727	65.7685	21.9727	65.8514	21.9727	65.8446	21.9727	65.9214	21.9727	65.916	21.9727	65.9842	21.9727	65.98	21.9727	66.0375	21.9727	66.0345	21.9727	66.0792	21.9727	66.0773	21.9727	66.1079	21.9727	66.1068	21.9727	66.1224	21.9727	66.122
23.4375	67.063	23.4375	67.0643	23.4375	67.0742	23.4375	67.0781	23.4375	67.0978	23.4375	67.1042	23.4375	67.133	23.4375	67.142	23.4375	67.1792	23.4375	67.1907	23.4375	67.2351	23.4375	67.249	23.4375	67.2994	23.4375	67.3157	23.4375	67.3705	23.4375	67.3889	23.4375	67.4464	23.4375	67.4666	23.4375	67.525	23.4375	67.5466	23.4375	67.6041	23.4375	67.6264	23.4375	67.6812	23.4375	67.7034	23.4375	67.7537	23.4375	67.775	23.4375	67.8193	23.4375	67.8387	23.4375	67.8757	23.4375	67.892	23.4375	67.9207	23.4375	67.9332	23.4375	67.9527	23.4375	67.9605	23.4375	67.9704	23.4375	67.9731
24.9023	68.567	24.9023	68.5679	24.9023	68.5785	24.9023	68.5811	24.9023	68.602	24.9023	68.6063	24.9023	68.637	24.9023	68.6431	24.9023	68.6827	24.9023	68.6905	24.9023	68.7379	24.9023	68.7475	24.9023	68.8013	24.9023	68.8125	24.9023	68.8712	24.9023	68.884	24.9023	68.9456	24.9023	68.9598	24.9023	69.0226	24.9023	69.0379	24.9023	69.0997	24.9023	69.1157	24.9023	69.1747	24.9023	69.1908	24.9023	69.245	24.9023	69.2606	24.9023	69.3084	24.9023	69.3226	24.9023	69.3626	24.9023	69.3748	24.9023	69.4057	24.9023	69.415	24.9023	69.4361	24.9023	69.442	24.9023	69.4527	24.9023	69.4547
26.3672	69.7347	26.3672	69.7357	26.3672	69.7461	26.3672	69.7491	26.3672	69.7696	26.3672	69.7747	26.3672	69.8047	26.3672	69.8117	26.3672	69.8506	26.3672	69.8595	26.3672	69.9061	26.3672	69.9167	26.3672	69.9698	26.3672	69.9821	26.3672	70.0401	26.3672	70.0539	26.3672	70.1151	26.3672	70.1301	26.3672	70.1926	26.3672	70.2085	26.3672	70.2703	26.3672	70.2866	26.3672	70.3459	26.3672	70.3621	26.3672	70.4168	26.3672	70.4323	26.3672	70.4807	26.3672	70.4948	26.3672	70.5353	26.3672	70.5473	26.3672	70.5788	26.3672	70.5879	26.3672	70.6094	26.3672	70.6151	26.3672	70.626	26.3672	70.628
27.832	70.7274	27.832	70.7287	27.832	70.7385	27.832	70.7425	27.832	70.7617	27.832	70.7684	27.832	70.7966	27.832	70.8058	27.832	70.8423	27.832	70.8539	27.832	70.8976	27.832	70.9114	27.832	70.9612	27.832	70.977	27.832	71.0313	27.832	71.0489	27.832	71.1061	27.832	71.1251	27.832	71.1834	27.832	71.2034	27.832	71.2609	27.832	71.2813	27.832	71.3363	27.832	71.3564	27.832	71.407	27.832	71.4261	27.832	71.4707	27.832	71.488	27.832	71.5253	27.832	71.5399	27.832	71.5688	27.832	71.5799	27.832	71.5995	27.832	71.6065	27.832	71.6165	27.832	71.6188
29.2969	71.4933	29.2969	71.4949	29.2969	71.5042	29.2969	71.5089	29.2969	71.5274	29.2969	71.5351	29.2969	71.5624	29.2969	71.5729	29.2969	71.6082	29.2969	71.6214	29.2969	71.6638	29.2969	71.6794	29.2969	71.7278	29.2969	71.7454	29.2969	71.7985	29.2969	71.8177	29.2969	71.8739	29.2969	71.8944	29.2969	71.952	29.2969	71.9731	29.2969	72.0303	29.2969	72.0515	29.2969	72.1064	29.2969	72.1271	29.2969	72.178	29.2969	72.1974	29.2969	72.2424	29.2969	72.2598	29.2969	72.2977	29.2969	72.3122	29.2969	72.3416	29.2969	72.3527	29.2969	72.3728	29.2969	72.3796	29.2969	72.3898	29.2969	72.3922
30.7617	72.0898	30.7617	72.0908	30.7617	72.1013	30.7617	72.1044	30.7617	72.1251	30.7617	72.1303	30.7617	72.1607	30.7617	72.1679	30.7617	72.2071	30.7617	72.2163	30.7617	72.2633	30.7617	72.2743	30.7617	72.3278	30.7617	72.3405	30.7617	72.3989	30.7617	72.4131	30.7617	72.4747	30.7617	72.4902	30.7617	72.553	30.7617	72.5694	30.7617	72.6315	30.7617	72.6484	30.7617	72.7078	30.7617	72.7245	30.7617	72.7793	30.7617	72.7953	30.7617	72.8437	30.7617	72.8582	30.7617	72.8987	30.7617	72.911	30.7617	72.9425	30.7617	72.9518	30.7617	72.9733	30.7617	72.9792	30.7617	72.9901	30.7617	72.9921
32.2266	72.463	32.2266	72.4639	32.2266	72.4746	32.2266	72.4775	32.2266	72.4987	32.2266	72.5035	32.2266	72.5346	32.2266	72.5412	32.2266	72.5815	32.2266	72.5898	32.2266	72.6382	32.2266	72.6481	32.2266	72.7034	32.2266	72.7147	32.2266	72.7752	32.2266	72.7878	32.2266	72.8518	32.2266	72.8653	32.2266	72.931	32.2266	72.9451	32.2266	73.0104	32.2266	73.0247	32.2266	73.0874	32.2266	73.1015	32.2266	73.1597	32.2266	73.173	32.2266	73.2248	32.2266	73.2367	32.2266	73.2803	32.2266	73.2903	32.2266	73.3243	32.2266	73.3319	32.2266	73.3552	32.2266	73.36	32.2266	73.3718	32.2266	73.3734
33.6914	72.7607	33.6914	72.761	33.6914	72.773	33.6914	72.7739	33.6914	72.7975	33.6914	72.799	33.6914	72.8338	33.6914	72.8359	33.6914	72.8808	33.6914	72.8837	33.6914	72.9376	33.6914	72.9411	33.6914	73.0026	33.6914	73.0069	33.6914	73.0742	33.6914	73.0792	33.6914	73.1503	33.6914	73.1561	33.6914	73.229	33.6914	73.2353	33.6914	73.3076	33.6914	73.3145	33.6914	73.3839	33.6914	73.391	33.6914	73.4554	33.6914	73.4623	33.6914	73.5196	33.6914	73.526	33.6914	73.5742	33.6914	73.5798	33.6914	73.6174	33.6914	73.6217	33.6914	73.6474	33.6914	73.6501	33.6914	73.6632	33.6914	73.6642
35.1562	72.8911	35.1562	72.8908	35.1562	72.9039	35.1562	72.9031	35.1562	72.9289	35.1562	72.9277	35.1562	72.9655	35.1562	72.9641	35.1562	73.0129	35.1562	73.0114	35.1562	73.0699	35.1562	73.0684	35.1562	73.1351	35.1562	73.1339	35.1562	73.2067	35.1562	73.2059	35.1562	73.2829	35.1562	73.2827	35.1562	73.3614	35.1562	73.3618	35.1562	73.4399	35.1562	73.441	35.1562	73.516	35.1562	73.5177	35.1562	73.5871	35.1562	73.5893	35.1562	73.6509	35.1562	73.6533	35.1562	73.7052	35.1562	73.7075	35.1562	73.7479	35.1562	73.7498	35.1562	73.7775	35.1562	73.7787	35.1562	73.7928	35.1562	73.7933
36.6211	72.9061	36.6211	72.9073	36.6211	72.9176	36.6211	72.9212	36.6211	72.9414	36.6211	72.9474	36.6211	72.9769	36.6211	72.9853	36.6211	73.0234	36.6211	73.0342	36.6211	73.0796	36.6211	73.0927	36.6211	73.1443	36.6211	73.1595	36.6211	73.2156	36.6211	73.2328	36.6211	73.2916	36.6211	73.3105	36.6211	73.3703	36.6211	73.3904	36.6211	73.4493	36.6211	73.4699	36.6211	73.5261	36.6211	73.5466	36.6211	73.5982	36.6211	73.6179	36.6211	73.6633	36.6211	73.6812	36.6211	73.7191	36.6211	73.7342	36.6211	73.7636	36.6211	73.7751	36.6211	73.7952	36.6211	73.8024	36.6211	73.8125	36.6211	73.815
38.0859	72.8721	38.0859	72.8728	38.0859	72.8838	38.0859	72.8861	38.0859	72.9077	38.0859	72.9114	38.0859	72.9432	38.0859	72.9484	38.0859	72.9895	38.0859	72.9962	38.0859	73.0454	38.0859	73.0535	38.0859	73.1095	38.0859	73.119	38.0859	73.1802	38.0859	73.1909	38.0859	73.2556	38.0859	73.2672	38.0859	73.3334	38.0859	73.3458	38.0859	73.4114	38.0859	73.4242	38.0859	73.4872	38.0859	73.4999	38.0859	73.5583	38.0859	73.5704	38.0859	73.6222	38.0859	73.6332	38.0859	73.6768	38.0859	73.6861	38.0859	73.7201	38.0859	73.7271	38.0859	73.7504	38.0859	73.7548	38.0859	73.7666	38.0859	73.7682
39.5508	72.5956	39.5508	72.5978	39.5508	72.606	39.5508	72.6124	39.5508	72.6286	39.5508	72.6392	39.5508	72.6629	39.5508	72.6775	39.5508	72.7082	39.5508	72.7265	39.5508	72.7633	39.5508	72.7851	39.5508	72.827	39.5508	72.8516	39.5508	72.8975	39.5508	72.9245	39.5508	72.9729	39.5508	73.0017	39.5508	73.0512	39.5508	73.081	39.5508	73.1301	39.5508	73.1599	39.5508	73.207	39.5508	73.2358	39.5508	73.2794	39.5508	73.3063	39.5508	73.345	39.5508	73.3689	39.5508	73.4014	39.5508	73.4212	39.5508	73.4466	39.5508	73.4614	39.5508	73.4788	39.5508	73.488	39.5508	73.4968	39.5508	73.4999
41.0156	72.8011	41.0156	72.8034	41.0156	72.8114	41.0156	72.8181	41.0156	72.834	41.0156	72.845	41.0156	72.8684	41.0156	72.8835	41.0156	72.9137	41.0156	72.9327	41.0156	72.9689	41.0156	72.9914	41.0156	73.0326	41.0156	73.0582	41.0156	73.1032	41.0156	73.1313	41.0156	73.1787	41.0156	73.2087	41.0156	73.2572	41.0156	73.2881	41.0156	73.3361	41.0156	73.3672	41.0156	73.4132	41.0156	73.4433	41.0156	73.4859	41.0156	73.5139	41.0156	73.5516	41.0156	73.5765	41.0156	73.6082	41.0156	73.6289	41.0156	73.6536	41.0156	73.6691	41.0156	73.686	41.0156	73.6956	41.0156	73.7041	41.0156	73.7074
42.4805	73.2349	42.4805	73.239	42.4805	73.2436	42.4805	73.2558	42.4805	73.2648	42.4805	73.2849	42.4805	73.2981	42.4805	73.3256	42.4805	73.3428	42.4805	73.377	42.4805	73.3977	42.4805	73.4379	42.4805	73.4615	42.4805	73.5067	42.4805	73.5326	42.4805	73.5816	42.4805	73.6091	42.4805	73.6607	42.4805	73.6888	42.4805	73.7415	42.4805	73.7693	42.4805	73.8216	42.4805	73.8483	42.4805	73.8985	42.4805	73.9231	42.4805	73.9695	42.4805	73.9911	42.4805	74.032	42.4805	74.0501	42.4805	74.0839	42.4805	74.0979	42.4805	74.1231	42.4805	74.1327	42.4805	74.1483	42.4805	74.1531	42.4805	74.1584
43.9453	73.8105	43.9453	73.8156	43.9453	73.8181	43.9453	73.8334	43.9453	73.8382	43.9453	73.8633	43.9453	73.8705	43.9453	73.9048	43.9453	73.9141	43.9453	73.9568	43.9453	73.9681	43.9453	74.0181	43.9453	74.0312	43.9453	74.0872	43.9453	74.1017	43.9453	74.1623	43.9453	74.1778	43.9453	74.2413	43.9453	74.2573	43.9453	74.3219	43.9453	74.3379	43.9453	74.4016	43.9453	74.4171	43.9453	74.4779	43.9453	74.4923	43.9453	74.5482	43.9453	74.5609	43.9453	74.61	43.9453	74.6206	43.9453	74.661	43.9453	74.6693	43.9453	74.6994	43.9453	74.705	43.9453	74.7235	43.9453	74.7264	43.9453	74.7327
45.4102	74.5801	45.4102	74.5861	45.4102	74.5867	45.4102	74.6046	45.4102	74.6058	45.4102	74.6351	45.4102	74.6369	45.4102	74.6771	45.4102	74.6793	45.4102	74.7294	45.4102	74.7321	45.4102	74.7908	45.4102	74.7939	45.4102	74.8599	45.4102	74.8632	45.4102	74.9347	45.4102	74.938	45.4102	75.0133	45.4102	75.0165	45.4102	75.0933	45.4102	75.0961	45.4102	75.1722	45.4102	75.1745	45.4102	75.2475	45.4102	75.2492	45.4102	75.3166	45.4102	75.3176	45.4102	75.3769	45.4102	75.3774	45.4102	75.4264	45.4102	75.4265	45.4102	75.4631	45.4102	75.463	45.4102	75.4856	45.4102	75.4855	45.4102	75.4932
46.875	75.4567	46.875	75.4619	46.875	75.4641	46.875	75.4797	46.875	75.484	46.875	75.5095	46.875	75.5159	46.875	75.5508	46.875	75.5591	46.875	75.6025	46.875	75.6126	46.875	75.6634	46.875	75.6749	46.875	75.732	46.875	75.7446	46.875	75.8065	46.875	75.8198	46.875	75.8847	46.875	75.8983	46.875	75.9644	46.875	75.9778	46.875	76.0431	46.875	76.0558	46.875	76.1183	46.875	76.1299	46.875	76.1875	46.875	76.1976	46.875	76.2482	46.875	76.2565	46.875	76.2981	46.875	76.3045	46.875	76.3356	46.875	76.3399	46.875	76.359	46.875	76.3612	46.875	76.3677
48.3398	76.4198	48.3398	76.422	48.3398	76.4304	48.3398	76.4369	48.3398	76.4535	48.3398	76.4642	48.3398	76.4885	48.3398	76.5032	48.3398	76.5347	48.3398	76.5531	48.3398	76.5908	48.3398	76.6127	48.3398	76.6556	48.3398	76.6803	48.3398	76.7272	48.3398	76.7544	48.3398	76.8038	48.3398	76.8328	48.3398	76.8833	48.3398	76.9132	48.3398	76.9631	48.3398	76.9932	48.3398	77.0409	48.3398	77.0703	48.3398	77.1142	48.3398	77.1417	48.3398	77.1805	48.3398	77.2051	48.3398	77.2376	48.3398	77.2581	48.3398	77.2832	48.3398	77.2987	48.3398	77.3159	48.3398	77.3255	48.3398	77.3342	48.3398	77.3375
51.2695	77.9988	51.2695	78.0039	51.2695	78.0067	51.2695	78.022	51.2695	78.0275	51.2695	78.0527	51.2695	78.0608	51.2695	78.0952	51.2695	78.1056	51.2695	78.1486	51.2695	78.161	51.2695	78.2116	51.2695	78.2255	51.2695	78.2825	51.2695	78.2975	51.2695	78.3596	51.2695	78.3752	51.2695	78.4406	51.2695	78.4562	51.2695	78.5232	51.2695	78.5382	51.2695	78.6048	51.2695	78.6189	51.2695	78.6828	51.2695	78.6954	51.2695	78.7546	51.2695	78.7654	51.2695	78.8176	51.2695	78.8263	51.2695	78.8695	51.2695	78.8761	51.2695	78.9083	51.2695	78.9127	51.2695	78.9327	51.2695	78.9349	51.2695	78.9416
52.7344	79.0332	52.7344	79.0356	52.7344	79.0437	52.7344	79.0507	52.7344	79.0666	52.7344	79.0783	52.7344	79.1016	52.7344	79.1177	52.7344	79.1477	52.7344	79.1681	52.7344	79.2038	52.7344	79.2281	52.7344	79.2686	52.7344	79.2964	52.7344	79.3403	52.7344	79.3711	52.7344	79.4171	52.7344	79.4501	52.7344	79.4967	52.7344	79.5312	52.7344	79.5769	52.7344	79.6118	52.7344	79.6551	52.7344	79.6894	52.7344	79.7289	52.7344	79.7612	52.7344	79.7958	52.7344	79.8247	52.7344	79.8535	52.7344	79.8777	52.7344	79.8999	52.7344	79.9182	52.7344	79.9332	52.7344	79.9446	52.7344	79.9522	52.7344	79.9561
54.1992	80.0226	54.1992	80.0226	54.1992	80.0353	54.1992	80.0353	54.1992	80.0604	54.1992	80.0604	54.1992	80.0972	54.1992	80.0974	54.1992	80.145	54.1992	80.1455	54.1992	80.2025	54.1992	80.2036	54.1992	80.2684	54.1992	80.2703	54.1992	80.3411	54.1992	80.3438	54.1992	80.4184	54.1992	80.4221	54.1992	80.4984	54.1992	80.503	54.1992	80.5785	54.1992	80.584	54.1992	80.6563	54.1992	80.6625	54.1992	80.7293	54.1992	80.7359	54.1992	80.795	54.1992	80.8014	54.1992	80.851	54.1992	80.8568	54.1992	80.8954	54.1992	80.9	54.1992	80.9263	54.1992	80.9293	54.1992	80.9427	54.1992	80.9437
55.6641	80.7814	55.6641	80.7808	55.6641	80.795	55.6641	80.7933	55.6641	80.8213	55.6641	80.8187	55.6641	80.8598	55.6641	80.8563	55.6641	80.9095	55.6641	80.9053	55.6641	80.9693	55.6641	80.9646	55.6641	81.0376	55.6641	81.0326	55.6641	81.1127	55.6641	81.1077	55.6641	81.1925	55.6641	81.1878	55.6641	81.2748	55.6641	81.2706	55.6641	81.3572	55.6641	81.3537	55.6641	81.4371	55.6641	81.4343	55.6641	81.5118	55.6641	81.5098	55.6641	81.5788	55.6641	81.5775	55.6641	81.6358	55.6641	81.6351	55.6641	81.6806	55.6641	81.6802	55.6641	81.7114	55.6641	81.7113	55.6641	81.7272	55.6641	81.7272
58.5938	81.79	58.5938	81.7892	58.5938	81.8039	58.5938	81.8014	58.5938	81.8305	58.5938	81.8264	58.5938	81.8692	58.5938	81.8636	58.5938	81.9191	58.5938	81.9123	58.5938	81.979	58.5938	81.9712	58.5938	82.0475	58.5938	82.039	58.5938	82.1228	58.5938	82.1139	58.5938	82.2028	58.5938	82.1939	58.5938	82.2854	58.5938	82.2767	58.5938	82.3679	58.5938	82.3599	58.5938	82.448	58.5938	82.4407	58.5938	82.5229	58.5938	82.5166	58.5938	82.59	58.5938	82.5848	58.5938	82.6469	58.5938	82.6429	58.5938	82.6915	58.5938	82.6887	58.5938	82.7221	58.5938	82.7204	58.5938	82.7374	58.5938	82.7369
60.0586	82.1801	60.0586	82.1814	60.0586	82.1919	60.0586	82.1957	60.0586	82.2166	60.0586	82.2229	60.0586	82.2535	60.0586	82.2621	60.0586	82.3018	60.0586	82.3126	60.0586	82.3604	60.0586	82.3732	60.0586	82.4279	60.0586	82.4424	60.0586	82.5025	60.0586	82.5183	60.0586	82.5822	60.0586	82.599	60.0586	82.6648	60.0586	82.6822	60.0586	82.7478	60.0586	82.7653	60.0586	82.8287	60.0586	82.8457	60.0586	82.9048	60.0586	82.9207	60.0586	82.9734	60.0586	82.9876	60.0586	83.0322	60.0586	83.0441	60.0586	83.0789	60.0586	83.0879	60.0586	83.1118	60.0586	83.1174	60.0586	83.1296	60.0586	83.1315
62.9883	83.0459	62.9883	83.0453	62.9883	83.0594	62.9883	83.0576	62.9883	83.0854	62.9883	83.0825	62.9883	83.1234	62.9883	83.1195	62.9883	83.1726	62.9883	83.1679	62.9883	83.2316	62.9883	83.2264	62.9883	83.2991	62.9883	83.2936	62.9883	83.3734	62.9883	83.368	62.9883	83.4525	62.9883	83.4473	62.9883	83.5341	62.9883	83.5295	62.9883	83.6159	62.9883	83.6121	62.9883	83.6953	62.9883	83.6923	62.9883	83.7697	62.9883	83.7676	62.9883	83.8365	62.9883	83.8351	62.9883	83.8933	62.9883	83.8926	62.9883	83.9381	62.9883	83.9377	62.9883	83.9689	62.9883	83.9688	62.9883	83.9847	62.9883	83.9847
64.4531	83.0168	64.4531	83.0159	64.4531	83.0309	64.4531	83.0283	64.4531	83.0579	64.4531	83.0537	64.4531	83.0972	64.4531	83.0916	64.4531	83.1479	64.4531	83.1411	64.4531	83.2086	64.4531	83.2011	64.4531	83.2779	64.4531	83.2701	64.4531	83.354	64.4531	83.3463	64.4531	83.4349	64.4531	83.4276	64.4531	83.5183	64.4531	83.5118	64.4531	83.6017	64.4531	83.5963	64.4531	83.6825	64.4531	83.6783	64.4531	83.7582	64.4531	83.7552	64.4531	83.8261	64.4531	83.8242	64.4531	83.8839	64.4531	83.8827	64.4531	83.9293	64.4531	83.9287	64.4531	83.9606	64.4531	83.9604	64.4531	83.9766	64.4531	83.9765
67.3828	81.6842	67.3828	81.6814	67.3828	81.7004	67.3828	81.6921	67.3828	81.7296	67.3828	81.7161	67.3828	81.771	67.3828	81.7529	67.3828	81.8238	67.3828	81.8017	67.3828	81.8865	67.3828	81.8613	67.3828	81.9576	67.3828	81.9303	67.3828	82.0353	67.3828	82.0069	67.3828	82.1175	67.3828	82.089	67.3828	82.2019	67.3828	82.1743	67.3828	82.2859	67.3828	82.2602	67.3828	82.3671	67.3828	82.3439	67.3828	82.4427	67.3828	82.4226	67.3828	82.5102	67.3828	82.4936	67.3828	82.5672	67.3828	82.5543	67.3828	82.6116	67.3828	82.6024	67.3828	82.6416	67.3828	82.6362	67.3828	82.6561	67.3828	82.6542
68.8477	80.8136	68.8477	80.8099	68.8477	80.8306	68.8477	80.8198	68.8477	80.8606	68.8477	80.8429	68.8477	80.9028	68.8477	80.879	68.8477	80.9563	68.8477	80.927	68.8477	81.0196	68.8477	80.986	68.8477	81.0913	68.8477	81.0545	68.8477	81.1695	68.8477	81.1307	68.8477	81.2521	68.8477	81.2126	68.8477	81.3367	68.8477	81.2979	68.8477	81.4209	68.8477	81.384	68.8477	81.502	68.8477	81.4682	68.8477	81.5775	68.8477	81.5476	68.8477	81.6447	68.8477	81.6195	68.8477	81.7012	68.8477	81.6812	68.8477	81.745	68.8477	81.7304	68.8477	81.7741	68.8477	81.7654	68.8477	81.7876	68.8477	81.7846
71.7773	81.2239	71.7773	81.2179	71.7773	81.2431	71.7773	81.2252	71.7773	81.2751	71.7773	81.2458	71.7773	81.3189	71.7773	81.2792	71.7773	81.3737	71.7773	81.3248	71.7773	81.438	71.7773	81.3814	71.7773	81.5102	71.7773	81.4478	71.7773	81.5885	71.7773	81.5223	71.7773	81.6709	71.7773	81.6028	71.7773	81.7549	71.7773	81.6872	71.7773	81.8381	71.7773	81.7728	71.7773	81.9179	71.7773	81.8571	71.7773	81.9917	71.7773	81.9372	71.7773	82.0569	71.7773	82.0102	71.7773	82.1112	71.7773	82.0736	71.7773	82.1524	71.7773	82.1249	71.7773	82.179	71.7773	82.1622	71.7773	82.1897	71.7773	82.1841
74.707	81.8806	74.707	81.8754	74.707	81.899	74.707	81.8837	74.707	81.9302	74.707	81.9052	74.707	81.9735	74.707	81.9396	74.707	82.0278	74.707	81.9861	74.707	82.0918	74.707	82.0437	74.707	82.164	74.707	82.1109	74.707	82.2423	74.707	82.1861	74.707	82.3249	74.707	82.2672	74.707	82.4093	74.707	82.3521	74.707	82.4931	74.707	82.438	74.707	82.5736	74.707	82.5225	74.707	82.6482	74.707	82.6025	74.707	82.7144	74.707	82.6753	74.707	82.7696	74.707	82.7383	74.707	82.8119	74.707	82.789	74.707	82.8395	74.707	82.8256	74.707	82.8513	74.707	82.8466
77.6367	81.8633	77.6367	81.8607	77.6367	81.8793	77.6367	81.8717	77.6367	81.9085	77.6367	81.8962	77.6367	81.95	77.6367	81.9335	77.6367	82.0029	77.6367	81.9829	77.6367	82.066	77.6367	82.0433	77.6367	82.1376	77.6367	82.1132	77.6367	82.216	77.6367	82.1908	77.6367	82.2991	77.6367	82.2741	77.6367	82.3846	77.6367	82.3607	77.6367	82.47	77.6367	82.448	77.6367	82.5526	77.6367	82.5331	77.6367	82.6299	77.6367	82.6133	77.6367	82.6991	77.6367	82.6856	77.6367	82.7577	77.6367	82.7474	77.6367	82.8036	77.6367	82.7963	77.6367	82.8348	77.6367	82.8305	77.6367	82.85	77.6367	82.8486
79.1016	82.1174	79.1016	82.1152	79.1016	82.1332	79.1016	82.1266	79.1016	82.162	79.1016	82.1514	79.1016	82.2033	79.1016	82.1891	79.1016	82.256	79.1016	82.2389	79.1016	82.3189	79.1016	82.2996	79.1016	82.3905	79.1016	82.3698	79.1016	82.4689	79.1016	82.4478	79.1016	82.5521	79.1016	82.5313	79.1016	82.6378	79.1016	82.6182	79.1016	82.7235	79.1016	82.7057	79.1016	82.8066	79.1016	82.7911	79.1016	82.8844	79.1016	82.8714	79.1016	82.9541	79.1016	82.9438	79.1016	83.0133	79.1016	83.0056	79.1016	83.0598	79.1016	83.0544	79.1016	83.0915	79.1016	83.0884	79.1016	83.1073	79.1016	83.1062
82.0312	82.5119	82.0312	82.5097	82.0312	82.5278	82.0312	82.521	82.0312	82.5569	82.0312	82.5458	82.0312	82.5985	82.0312	82.5835	82.0312	82.6516	82.0312	82.6334	82.0312	82.715	82.0312	82.6942	82.0312	82.7872	82.0312	82.7646	82.0312	82.8663	82.0312	82.8427	82.0312	82.9503	82.0312	82.9266	82.0312	83.0368	82.0312	83.0138	82.0312	83.1233	82.0312	83.1018	82.0312	83.2071	82.0312	83.1878	82.0312	83.2855	82.0312	83.2688	82.0312	83.3558	82.0312	83.342	82.0312	83.4154	82.0312	83.4047	82.0312	83.462	82.0312	83.4544	82.0312	83.4937	82.0312	83.4891	82.0312	83.5091	82.0312	83.5076
84.9609	82.4509	84.9609	82.4485	84.9609	82.4668	84.9609	82.4597	84.9609	82.4959	84.9609	82.4844	84.9609	82.5375	84.9609	82.522	84.9609	82.5907	84.9609	82.5716	84.9609	82.6543	84.9609	82.6323	84.9609	82.7266	84.9609	82.7025	84.9609	82.806	84.9609	82.7806	84.9609	82.8903	84.9609	82.8645	84.9609	82.9772	84.9609	82.952	84.9609	83.0642	84.9609	83.0403	84.9609	83.1485	84.9609	83.1268	84.9609	83.2274	84.9609	83.2084	84.9609	83.2982	84.9609	83.2823	84.9609	83.3582	84.9609	83.3457	84.9609	83.4051	84.9609	83.3961	84.9609	83.4369	84.9609	83.4315	84.9609	83.4523	84.9609	83.4505
87.8906	82.6602	87.8906	82.6565	87.8906	82.6776	87.8906	82.6664	87.8906	82.7082	87.8906	82.69	87.8906	82.7514	87.8906	82.7266	87.8906	82.8062	87.8906	82.7756	87.8906	82.8714	87.8906	82.8357	87.8906	82.9454	87.8906	82.9058	87.8906	83.0264	87.8906	82.9841	87.8906	83.1123	87.8906	83.0686	87.8906	83.2006	87.8906	83.1571	87.8906	83.289	87.8906	83.2468	87.8906	83.3745	87.8906	83.3351	87.8906	83.4543	87.8906	83.4189	87.8906	83.5256	87.8906	83.4953	87.8906	83.5857	87.8906	83.5613	87.8906	83.6322	87.8906	83.6143	87.8906	83.6631	87.8906	83.6522	87.8906	83.6771	87.8906	83.6734
90.8203	82.5936	90.8203	82.5882	90.8203	82.613	90.8203	82.5969	90.8203	82.646	90.8203	82.6196	90.8203	82.6918	90.8203	82.6558	90.8203	82.7495	90.8203	82.7048	90.8203	82.8177	90.8203	82.7656	90.8203	82.895	90.8203	82.8368	90.8203	82.9792	90.8203	82.9167	90.8203	83.0684	90.8203	83.0033	90.8203	83.16	90.8203	83.0945	90.8203	83.2513	90.8203	83.1874	90.8203	83.3394	90.8203	83.2792	90.8203	83.4215	90.8203	83.3669	90.8203	83.4944	90.8203	83.4473	90.8203	83.5555	90.8203	83.5172	90.8203	83.6023	90.8203	83.5741	90.8203	83.6326	90.8203	83.6154	90.8203	83.6452	90.8203	83.6394
95.2148	82.6815	95.2148	82.6723	95.2148	82.7046	95.2148	82.6772	95.2148	82.7411	95.2148	82.6962	95.2148	82.7902	95.2148	82.7289	95.2148	82.8509	95.2148	82.7748	95.2148	82.9218	95.2148	82.833	95.2148	83.0014	95.2148	82.9022	95.2148	83.0877	95.2148	82.981	95.2148	83.1785	95.2148	83.0675	95.2148	83.2714	95.2148	83.1593	95.2148	83.3636	95.2148	83.254	95.2148	83.4522	95.2148	83.3486	95.2148	83.5343	95.2148	83.4399	95.2148	83.6066	95.2148	83.5247	95.2148	83.6663	95.2148	83.5996	95.2148	83.7109	95.2148	83.6616	95.2148	83.7383	95.2148	83.708	95.2148	83.7472	95.2148	83.737
98.1445	82.7828	98.1445	82.7714	98.1445	82.8081	98.1445	82.7742	98.1445	82.8468	98.1445	82.7914	98.1445	82.8981	98.1445	82.8225	98.1445	82.9609	98.1445	82.8672	98.1445	83.0339	98.1445	82.9246	98.1445	83.1153	98.1445	82.9935	98.1445	83.2033	98.1445	83.0725	98.1445	83.2958	98.1445	83.1598	98.1445	83.3901	98.1445	83.253	98.1445	83.4835	98.1445	83.3496	98.1445	83.5731	98.1445	83.4466	98.1445	83.6558	98.1445	83.5407	98.1445	83.7284	98.1445	83.6285	98.1445	83.7879	98.1445	83.7066	98.1445	83.8319	98.1445	83.7718	98.1445	83.8581	98.1445	83.8212	98.1445	83.8653	98.1445	83.8528
101.074	82.8817	101.074	82.8704	101.074	82.9074	101.074	82.8738	101.074	82.9469	101.074	82.8917	101.074	82.9995	101.074	82.9241	101.074	83.0641	101.074	82.9702	101.074	83.1393	101.074	83.0293	101.074	83.2235	101.074	83.1003	101.074	83.3148	101.074	83.1817	101.074	83.4108	101.074	83.2716	101.074	83.5089	101.074	83.3678	101.074	83.6064	101.074	83.4676	101.074	83.6999	101.074	83.5681	101.074	83.7863	101.074	83.6657	101.074	83.8622	101.074	83.7571	101.074	83.9245	101.074	83.8385	101.074	83.9704	101.074	83.9066	101.074	83.9977	101.074	83.9585	101.074	84.005	101.074	83.9918
105.469	82.7386	105.469	82.7188	105.469	82.7732	105.469	82.7144	105.469	82.8219	105.469	82.7255	105.469	82.8836	105.469	82.7521	105.469	82.9571	105.469	82.794	105.469	83.0408	105.469	82.8504	105.469	83.1327	105.469	82.9203	105.469	83.2307	105.469	83.0024	105.469	83.3323	105.469	83.0948	105.469	83.4346	105.469	83.1952	105.469	83.5347	105.469	83.3007	105.469	83.6292	105.469	83.4081	105.469	83.715	105.469	83.5138	105.469	83.7886	105.469	83.6141	105.469	83.8471	105.469	83.7049	105.469	83.8877	105.469	83.7826	105.469	83.9085	105.469	83.844	105.469	83.9082	105.469	83.8864
108.398	82.746	108.398	82.7274	108.398	82.7791	108.398	82.7239	108.398	82.8262	108.398	82.7355	108.398	82.8864	108.398	82.7622	108.398	82.9586	108.398	82.8038	108.398	83.0413	108.398	82.8596	108.398	83.1328	108.398	82.9288	108.398	83.231	108.398	83.0101	108.398	83.3336	108.398	83.1018	108.398	83.4377	108.398	83.2018	108.398	83.5402	108.398	83.3076	108.398	83.6377	108.398	83.4159	108.398	83.7268	108.398	83.5233	108.398	83.8038	108.398	83.6257	108.398	83.8652	108.398	83.7192	108.398	83.9082	108.398	83.7997	108.398	83.9304	108.398	83.8635	108.398	83.9303	108.398	83.9077
112.793	82.811	112.793	82.7935	112.793	82.8422	112.793	82.79	112.793	82.8865	112.793	82.8008	112.793	82.9432	112.793	82.8256	112.793	83.0114	112.793	82.8645	112.793	83.0898	112.793	82.9168	112.793	83.177	112.793	82.982	112.793	83.271	112.793	83.0591	112.793	83.3697	112.793	83.1467	112.793	83.4706	112.793	83.243	112.793	83.5707	112.793	83.3457	112.793	83.6668	112.793	83.4516	112.793	83.7553	112.793	83.5574	112.793	83.8325	112.793	83.659	112.793	83.8947	112.793	83.7522	112.793	83.9387	112.793	83.8326	112.793	83.9619	112.793	83.8965	112.793	83.9626	112.793	83.9405
117.188	82.704	117.188	82.6814	117.188	82.7404	117.188	82.6732	117.188	82.79	117.188	82.6797	117.188	82.8518	117.188	82.7011	117.188	82.9248	117.188	82.7374	117.188	83.0077	117.188	82.7882	117.188	83.0989	117.188	82.8532	117.188	83.1965	117.188	82.9312	117.188	83.2985	117.188	83.0212	117.188	83.4022	117.188	83.1211	117.188	83.5048	117.188	83.2285	117.188	83.6028	117.188	83.3403	117.188	83.6926	117.188	83.4526	117.188	83.7704	117.188	83.5611	117.188	83.8325	117.188	83.6613	117.188	83.8755	117.188	83.7485	117.188	83.8966	117.188	83.8185	117.188	83.8941	117.188	83.8678
120.117	82.6614	120.117	82.634	120.117	82.703	120.117	82.6213	120.117	82.7579	120.117	82.6241	120.117	82.8252	120.117	82.6425	120.117	82.9037	120.117	82.6767	120.117	82.9919	120.117	82.7266	120.117	83.0882	120.117	82.7917	120.117	83.1908	120.117	82.8714	120.117	83.2974	120.117	82.9642	120.117	83.4053	120.117	83.0682	120.117	83.5113	120.117	83.1808	120.117	83.6122	120.117	83.2987	120.117	83.704	120.117	83.4179	120.117	83.7828	120.117	83.5337	120.117	83.8447	120.117	83.6413	120.117	83.8864	120.117	83.7356	120.117	83.9049	120.117	83.8122	120.117	83.8987	120.117	83.8674
124.512	82.6413	124.512	82.6067	124.512	82.6898	124.512	82.587	124.512	82.7511	124.512	82.5829	124.512	82.8242	124.512	82.5951	124.512	82.9077	124.512	82.6242	124.512	83.0003	124.512	82.6703	124.512	83.1004	124.512	82.7334	124.512	83.206	124.512	82.8128	124.512	83.3149	124.512	82.9073	124.512	83.4247	124.512	83.0149	124.512	83.5321	124.512	83.1328	124.512	83.6337	124.512	83.2574	124.512	83.7257	124.512	83.3843	124.512	83.8041	124.512	83.5084	124.512	83.8648	124.512	83.6243	124.512	83.9043	124.512	83.7268	124.512	83.9197	124.512	83.8109	124.512	83.9093	124.512	83.8726
128.906	82.5221	128.906	82.4846	128.906	82.5739	128.906	82.4625	128.906	82.6389	128.906	82.4567	128.906	82.716	128.906	82.4681	128.906	82.804	128.906	82.4976	128.906	82.9015	128.906	82.5454	128.906	83.0069	128.906	82.6116	128.906	83.1185	128.906	82.6958	128.906	83.234	128.906	82.7965	128.906	83.3506	128.906	82.9118	128.906	83.4653	128.906	83.0387	128.906	83.5743	128.906	83.1731	128.906	83.6735	128.906	83.3102	128.906	83.7584	128.906	83.4443	128.906	83.8246	128.906	83.5696	128.906	83.8682	128.906	83.6802	128.906	83.8858	128.906	83.7706	128.906	83.8755	128.906	83.8367
133.301	82.4	133.301	82.3638	133.301	82.4509	133.301	82.3432	133.301	82.5153	133.301	82.3393	133.301	82.5922	133.301	82.3531	133.301	82.6805	133.301	82.3854	133.301	82.7789	133.301	82.4365	133.301	82.8862	133.301	82.5067	133.301	83.0005	133.301	82.5953	133.301	83.1197	133.301	82.7011	133.301	83.2412	133.301	82.8219	133.301	83.3617	133.301	82.9545	133.301	83.4773	133.301	83.0947	133.301	83.5837	133.301	83.2375	133.301	83.676	133.301	83.3768	133.301	83.7493	133.301	83.5065	133.301	83.7992	133.301	83.6202	133.301	83.822	133.301	83.7123	133.301	83.8153	133.301	83.7783
139.16	82.2391	139.16	82.2031	139.16	82.2898	139.16	82.1826	139.16	82.3544	139.16	82.1786	139.16	82.4319	139.16	82.192	139.16	82.5216	139.16	82.2238	139.16	82.6225	139.16	82.2746	139.16	82.7334	139.16	82.3448	139.16	82.8526	139.16	82.4342	139.16	82.9781	139.16	82.5419	139.16	83.1069	139.16	82.666	139.16	83.2355	139.16	82.8035	139.16	83.3597	139.16	82.9504	139.16	83.4744	139.16	83.1012	139.16	83.5741	139.16	83.2495	139.16	83.6535	139.16	83.3886	139.16	83.7075	139.16	83.5114	139.16	83.7319	139.16	83.6114	139.16	83.7241	139.16	83.6834
143.555	82.1147	143.555	82.065	143.555	82.1792	143.555	82.0314	143.555	82.2576	143.555	82.0152	143.555	82.3486	143.555	82.0179	143.555	82.4514	143.555	82.0408	143.555	82.5647	143.555	82.0852	143.555	82.6872	143.555	82.1518	143.555	82.817	143.555	82.2408	143.555	82.9518	143.555	82.3517	143.555	83.0885	143.555	82.4826	143.555	83.2233	143.555	82.6304	143.555	83.3516	143.555	82.7907	143.555	83.4681	143.555	82.9575	143.555	83.5672	143.555	83.1238	143.555	83.6431	143.555	83.2818	143.555	83.6907	143.555	83.4235	143.555	83.7059	143.555	83.5418	143.555	83.686	143.555	83.6307
147.949	81.9788	147.949	81.9139	147.949	82.0583	147.949	81.8657	147.949	82.151	147.949	81.8361	147.949	82.2555	147.949	81.8271	147.949	82.3703	147.949	81.8409	147.949	82.4942	147.949	81.8791	147.949	82.6258	147.949	81.943	147.949	82.7632	147.949	82.0331	147.949	82.9041	147.949	82.1488	147.949	83.0456	147.949	82.2881	147.949	83.1839	147.949	82.4476	147.949	83.3144	147.949	82.6222	147.949	83.4317	147.949	82.8052	147.949	83.5301	147.949	82.9887	147.949	83.6035	147.949	83.1641	147.949	83.6466	147.949	83.3227	147.949	83.655	147.949	83.4566	147.949	83.626	147.949	83.5591
153.809	81.7073	153.809	81.6364	153.809	81.7934	153.809	81.5826	153.809	81.8927	153.809	81.5483	153.809	82.0038	153.809	81.536	153.809	82.1253	153.809	81.5482	153.809	82.2561	153.809	81.5869	153.809	82.3948	153.809	81.6538	153.809	82.5397	153.809	81.7495	153.809	82.6887	153.809	81.8734	153.809	82.8387	153.809	82.0234	153.809	82.9859	153.809	82.1956	153.809	83.1253	153.809	82.3844	153.809	83.2513	153.809	82.5823	153.809	83.3575	153.809	82.7808	153.809	83.4375	153.809	82.9703	153.809	83.4851	153.809	83.1413	153.809	83.4956	153.809	83.2852	153.809	83.4657	153.809	83.3949
159.668	81.561	159.668	81.4776	159.668	81.658	159.668	81.4102	159.668	81.7668	159.668	81.3615	159.668	81.8858	159.668	81.3346	159.668	82.0138	159.668	81.3327	159.668	82.1499	159.668	81.3587	159.668	82.2927	159.668	81.4151	159.668	82.4407	159.668	81.5032	159.668	82.5916	159.668	81.6231	159.668	82.7425	159.668	81.7729	159.668	82.8894	159.668	81.9489	159.668	83.0273	159.668	82.1452	159.668	83.1506	159.668	82.354	159.668	83.2525	159.668	82.5658	159.668	83.3265	159.668	82.7704	159.668	83.3664	159.668	82.9573	159.668	83.3672	159.668	83.1169	159.668	83.3257	159.668	83.2415
165.527	81.391	165.527	81.2876	165.527	81.5066	165.527	81.1993	165.527	81.6322	165.527	81.1296	165.527	81.7659	165.527	81.0823	165.527	81.9062	165.527	81.0614	165.527	82.052	165.527	81.0706	165.527	82.202	165.527	81.1133	165.527	82.3545	165.527	81.1916	165.527	82.5075	165.527	81.3059	165.527	82.658	165.527	81.4551	165.527	82.8021	165.527	81.6354	165.527	82.935	165.527	81.8408	165.527	83.0508	165.527	82.063	165.527	83.1431	165.527	82.2917	165.527	83.2051	165.527	82.5157	165.527	83.2306	165.527	82.7236	165.527	83.2149	165.527	82.9047	165.527	83.1549	165.527	83.0505
171.387	81.0848	171.387	80.9565	171.387	81.2231	171.387	80.8416	171.387	81.3688	171.387	80.7445	171.387	81.5196	171.387	80.6698	171.387	81.6742	171.387	80.6227	171.387	81.8312	171.387	80.6082	171.387	81.9895	171.387	80.6309	171.387	82.1475	171.387	80.6944	171.387	82.3033	171.387	80.8002	171.387	82.4539	171.387	80.9478	171.387	82.5955	171.387	81.1339	171.387	82.7232	171.387	81.3521	171.387	82.8311	171.387	81.5932	171.387	82.9125	171.387	81.8459	171.387	82.9605	171.387	82.0973	171.387	82.9689	171.387	82.3342	171.387	82.9327	171.387	82.5447	171.387	82.8492	171.387	82.7187
177.246	80.7684	177.246	80.6152	177.246	80.9287	177.246	80.4731	177.246	81.0927	177.246	80.3474	177.246	81.2582	177.246	80.2441	177.246	81.4236	177.246	80.1698	177.246	81.5879	177.246	80.131	177.246	81.7501	177.246	80.1337	177.246	81.9091	177.246	80.1828	177.246	82.0633	177.246	80.281	177.246	82.2103	177.246	80.428	177.246	82.3465	177.246	80.6206	177.246	82.4671	177.246	80.8518	177.246	82.5663	177.246	81.1114	177.246	82.6373	177.246	81.3865	177.246	82.6731	177.246	81.6628	177.246	82.6672	177.246	81.9255	177.246	82.6143	177.246	82.1613	177.246	82.5115	177.246	82.3592
183.105	80.2931	183.105	80.1348	183.105	80.4582	183.105	79.9876	183.105	80.6269	183.105	79.8571	183.105	80.7971	183.105	79.7497	183.105	80.9675	183.105	79.6726	183.105	81.1376	183.105	79.6331	183.105	81.3066	183.105	79.6377	183.105	81.4736	183.105	79.6917	183.105	81.6373	183.105	79.7979	183.105	81.795	183.105	79.9563	183.105	81.9429	183.105	80.1631	183.105	82.0757	183.105	80.4106	183.105	82.187	183.105	80.6879	183.105	82.2692	183.105	80.9809	183.105	82.3145	183.105	81.2742	183.105	82.3154	183.105	81.552	183.105	82.266	183.105	81.7999	183.105	82.163	183.105	82.0063
188.965	79.7692	188.965	79.5923	188.965	79.9529	188.965	79.4269	188.965	80.1401	188.965	79.2788	188.965	80.3283	188.965	79.1548	188.965	80.5159	188.965	79.0625	188.965	80.7019	188.965	79.0098	188.965	80.8852	188.965	79.004	188.965	81.0646	188.965	79.0513	188.965	81.2383	188.965	79.1556	188.965	81.4035	188.965	79.3174	188.965	81.5562	188.965	79.5336	188.965	81.6911	188.965	79.7964	188.965	81.8015	188.965	80.0942	188.965	81.8796	188.965	80.4117	188.965	81.9175	188.965	80.7319	188.965	81.9075	188.965	81.0374	188.965	81.8435	188.965	81.3123	188.965	81.7221	188.965	81.5435
196.289	79.2315	196.289	79.0065	196.289	79.4567	196.289	78.787	196.289	79.6784	196.289	78.5797	196.289	79.8941	196.289	78.3934	196.289	80.1024	196.289	78.238	196.289	80.3025	196.289	78.1246	196.289	80.4938	196.289	78.064	196.289	80.6755	196.289	78.0664	196.289	80.8463	196.289	78.1391	196.289	81.0035	196.289	78.2854	196.289	81.1435	196.289	78.5034	196.289	81.2608	196.289	78.7849	196.289	81.3487	196.289	79.1164	196.289	81.3992	196.289	79.4797	196.289	81.404	196.289	79.8539	196.289	81.3551	196.289	80.218	196.289	81.2466	196.289	80.5526	196.289	81.0752	196.289	80.842
203.613	78.4713	203.613	78.1983	203.613	78.7415	203.613	77.9285	203.613	79.0048	203.613	77.67	203.613	79.2586	203.613	77.4329	203.613	79.5015	203.613	77.2296	203.613	79.7326	203.613	77.074	203.613	79.9514	203.613	76.9802	203.613	80.1569	203.613	76.9617	203.613	80.3476	203.613	77.0285	203.613	80.5205	203.613	77.1856	203.613	80.6713	203.613	77.4313	203.613	80.7938	203.613	77.7561	203.613	80.8806	203.613	78.1434	203.613	80.9229	203.613	78.5712	203.613	80.9116	203.613	79.0143	203.613	80.8381	203.613	79.4475	203.613	80.6959	203.613	79.8477	203.613	80.4817	203.613	80.1967
210.938	78.131	210.938	77.8308	210.938	78.4222	210.938	77.5277	210.938	78.7005	210.938	77.23	210.938	78.9635	210.938	76.9486	210.938	79.2098	210.938	76.697	210.938	79.439	210.938	76.4907	210.938	79.6507	210.938	76.3462	210.938	79.8442	210.938	76.2794	210.938	80.0183	210.938	76.3033	210.938	80.1705	210.938	76.4255	210.938	80.2972	210.938	76.6469	210.938	80.3926	210.938	76.9598	210.938	80.4499	210.938	77.3483	210.938	80.4605	210.938	77.7898	210.938	80.4156	210.938	78.2572	210.938	80.3067	210.938	78.7227	210.938	80.1272	210.938	79.1602	210.938	79.8739	210.938	79.5489
218.262	77.4424	218.262	77.1009	218.262	77.7691	218.262	76.7511	218.262	78.077	218.262	76.4023	218.262	78.3641	218.262	76.0669	218.262	78.6295	218.262	75.7607	218.262	78.8736	218.262	75.5023	218.262	79.0966	218.262	75.3116	218.262	79.2985	218.262	75.2084	218.262	79.4786	218.262	75.2092	218.262	79.6345	218.262	75.3248	218.262	79.7621	218.262	75.557	218.262	79.8553	218.262	75.8978	218.262	79.9062	218.262	76.3291	218.262	79.9053	218.262	76.8247	218.262	79.8426	218.262	77.3531	218.262	79.7085	218.262	77.8817	218.262	79.4957	218.262	78.3808	218.262	79.2008	218.262	78.8261
225.586	77.007	225.586	76.6423	225.586	77.358	225.586	76.271	225.586	77.6907	225.586	75.9029	225.586	78.0021	225.586	75.5507	225.586	78.2906	225.586	75.2298	225.586	78.5554	225.586	74.9582	225.586	78.7961	225.586	74.7551	225.586	79.0116	225.586	74.6393	225.586	79.2003	225.586	74.6268	225.586	79.3591	225.586	74.7286	225.586	79.4833	225.586	74.9485	225.586	79.5668	225.586	75.2812	225.586	79.6017	225.586	75.7116	225.586	79.5789	225.586	76.2156	225.586	79.4891	225.586	76.7621	225.586	79.3235	225.586	77.3175	225.586	79.0759	225.586	77.8495	225.586	78.7439	225.586	78.3315
232.91	77.2517	232.91	76.9002	232.91	77.586	232.91	76.5365	232.91	77.9	232.91	76.1675	232.91	78.1916	232.91	75.8027	232.91	78.4597	232.91	75.4548	232.91	78.7035	232.91	75.1398	232.91	78.9223	232.91	74.877	232.91	79.1149	232.91	74.6875	232.91	79.2791	232.91	74.5925	232.91	79.4117	232.91	74.6098	232.91	79.5079	232.91	74.7508	232.91	79.5611	232.91	75.0174	232.91	79.5632	232.91	75.3998	232.91	79.5052	232.91	75.8766	232.91	79.3776	232.91	76.4166	232.91	79.172	232.91	76.9834	232.91	78.8828	232.91	77.5406	232.91	78.5091	232.91	78.0569
241.699	77.2782	241.699	76.8983	241.699	77.6319	241.699	76.4952	241.699	77.9585	241.699	76.0739	241.699	78.2576	241.699	75.6432	241.699	78.5293	241.699	75.2164	241.699	78.7737	241.699	74.8127	241.699	78.9903	241.699	74.4574	241.699	79.1778	241.699	74.18	241.699	79.3335	241.699	74.0108	241.699	79.4535	241.699	73.9757	241.699	79.5322	241.699	74.0906	241.699	79.5623	241.699	74.3581	241.699	79.5356	241.699	74.7661	241.699	79.4425	241.699	75.2881	241.699	79.2737	241.699	75.887	241.699	79.0209	241.699	76.5204	241.699	78.6787	241.699	77.1466	241.699	78.2464	241.699	77.7305
250.488	77.3712	250.488	76.9367	250.488	77.7766	250.488	76.4759	250.488	78.1514	250.488	75.9945	250.488	78.4949	250.488	75.5021	250.488	78.8066	250.488	75.0139	250.488	79.0857	250.488	74.5525	250.488	79.331	250.488	74.1474	250.488	79.54	250.488	73.8329	250.488	79.7093	250.488	73.6432	250.488	79.8343	250.488	73.6057	250.488	79.9088	250.488	73.7357	250.488	79.9259	250.488	74.0339	250.488	79.8773	250.488	74.4859	250.488	79.7541	250.488	75.0636	250.488	79.5475	250.488	75.7274	250.488	79.2495	250.488	76.4311	250.488	78.8551	250.488	77.1292	250.488	78.3639	250.488	77.7829
259.277	77.6189	259.277	77.1675	259.277	78.0377	259.277	76.6855	259.277	78.4234	259.277	76.1771	259.277	78.7757	259.277	75.651	259.277	79.0944	259.277	75.1219	259.277	79.3787	259.277	74.6128	259.277	79.627	259.277	74.1551	259.277	79.8367	259.277	73.7861	259.277	80.0037	259.277	73.5433	259.277	80.1227	259.277	73.4574	259.277	80.1873	259.277	73.5466	259.277	80.1893	259.277	73.8154	259.277	80.1201	259.277	74.2547	259.277	79.9699	259.277	74.8403	259.277	79.7293	259.277	75.5336	259.277	79.3899	259.277	76.2847	259.277	78.9466	259.277	77.0413	259.277	78.3994	259.277	77.7575
268.066	77.9461	268.066	77.4994	268.066	78.3569	268.066	77.0163	268.066	78.7328	268.066	76.4984	268.066	79.0745	268.066	75.9513	268.066	79.3824	268.066	75.387	268.066	79.6555	268.066	74.8267	268.066	79.8917	268.066	74.3024	268.066	80.0876	268.066	73.8548	268.066	80.2382	268.066	73.5273	268.066	80.3371	268.066	73.3572	268.066	80.3768	268.066	73.3687	268.066	80.3486	268.066	73.5715	268.066	80.2431	268.066	73.9617	268.066	80.0508	268.066	74.5212	268.066	79.7622	268.066	75.2142	268.066	79.3697	268.066	75.9897	268.066	78.869	268.066	76.7895	268.066	78.2619	268.066	77.5603
276.855	78.1538	276.855	77.6873	276.855	78.584	276.855	77.1824	276.855	78.9796	276.855	76.6391	276.855	79.3417	276.855	76.0618	276.855	79.6696	276.855	75.4629	276.855	79.9614	276.855	74.8666	276.855	80.2136	276.855	74.31	276.855	80.4214	276.855	73.8398	276.855	80.5786	276.855	73.5029	276.855	80.6782	276.855	73.3336	276.855	80.7122	276.855	73.3487	276.855	80.6719	276.855	73.5513	276.855	80.5478	276.855	73.9376	276.855	80.3306	276.855	74.4957	276.855	80.0111	276.855	75.1974	276.855	79.5821	276.855	75.9951	276.855	79.0402	276.855	76.8292	276.855	78.3887	276.855	77.6421
287.109	78.3675	287.109	77.9028	287.109	78.7995	287.109	77.4013	287.109	79.2023	287.109	76.8597	287.109	79.5773	287.109	76.2781	287.109	79.924	287.109	75.6641	287.109	80.2397	287.109	75.036	287.109	80.5194	287.109	74.4256	287.109	80.7563	287.109	73.8767	287.109	80.9415	287.109	73.4387	287.109	81.0651	287.109	73.1564	287.109	81.1158	287.109	73.0632	287.109	81.0822	287.109	73.1822	287.109	80.9524	287.109	73.5289	287.109	80.7151	287.109	74.1032	287.109	80.3598	287.109	74.875	287.109	79.8781	287.109	75.7805	287.109	79.2654	287.109	76.7379	287.109	78.5248	287.109	77.6712
297.363	78.9798	297.363	78.5622	297.363	79.3644	297.363	78.104	297.363	79.7214	297.363	77.5974	297.363	80.053	297.363	77.0361	297.363	80.3587	297.363	76.4202	297.363	80.6349	297.363	75.7591	297.363	80.8761	297.363	75.076	297.363	81.0745	297.363	74.4083	297.363	81.2205	297.363	73.8032	297.363	81.3027	297.363	73.3087	297.363	81.3082	297.363	72.9658	297.363	81.2226	297.363	72.8122	297.363	81.0306	297.363	72.8933	297.363	80.7167	297.363	73.2581	297.363	80.2665	297.363	73.9246	297.363	79.6683	297.363	74.8434	297.363	78.9164	297.363	75.9066	297.363	78.0169	297.363	76.9952
307.617	79.3613	307.617	78.9329	307.617	79.7462	307.617	78.4459	307.617	80.0996	307.617	77.8831	307.617	80.4282	307.617	77.2292	307.617	80.7341	307.617	76.4749	307.617	81.0143	307.617	75.6241	307.617	81.2617	307.617	74.7027	307.617	81.4656	307.617	73.7673	307.617	81.6124	307.617	72.9058	307.617	81.6868	307.617	72.2197	307.617	81.6723	307.617	71.7877	307.617	81.5519	307.617	71.6453	307.617	81.3089	307.617	71.8065	307.617	80.9275	307.617	72.2896	307.617	80.3937	307.617	73.098	307.617	79.6967	307.617	74.1737	307.617	78.8317	307.617	75.398	307.617	77.8046	307.617	76.641
319.336	79.6116	319.336	79.1248	319.336	80.0494	319.336	78.5713	319.336	80.451	319.336	77.9308	319.336	80.8236	319.336	77.1842	319.336	81.1685	319.336	76.3192	319.336	81.482	319.336	75.3399	319.336	81.7562	319.336	74.2789	319.336	81.9795	319.336	73.2097	319.336	82.1379	319.336	72.2438	319.336	82.2152	319.336	71.4926	319.336	82.1941	319.336	71.0113	319.336	82.0563	319.336	70.7949	319.336	81.7828	319.336	70.8533	319.336	81.3549	319.336	71.2708	319.336	80.7543	319.336	72.1378	319.336	79.9645	319.336	73.41	319.336	78.9733	319.336	74.8984	319.336	77.7783	319.336	76.399
329.59	79.8045	329.59	79.3237	329.59	80.2364	329.59	78.773	329.59	80.6348	329.59	78.1278	329.59	81.0081	329.59	77.364	329.59	81.3577	329.59	76.4649	329.59	81.6793	329.59	75.4299	329.59	81.9632	329.59	74.2894	329.59	82.1963	329.59	73.1202	329.59	82.3625	329.59	72.0472	329.59	82.4433	329.59	71.1988	329.59	82.4191	329.59	70.6277	329.59	82.2687	329.59	70.2932	329.59	81.9702	329.59	70.1696	329.59	81.501	329.59	70.3722	329.59	80.838	329.59	71.1175	329.59	79.9585	329.59	72.4576	329.59	78.8429	329.59	74.1521	329.59	77.4815	329.59	75.8915
341.309	79.9817	341.309	79.4625	341.309	80.4531	341.309	78.8696	341.309	80.895	341.309	78.1724	341.309	81.3169	341.309	77.3404	341.309	81.7198	341.309	76.3501	341.309	82.0971	341.309	75.1967	341.309	82.4361	341.309	73.9142	341.309	82.72	341.309	72.6014	341.309	82.9287	341.309	71.4273	341.309	83.0402	341.309	70.5568	341.309	83.0315	341.309	70.0105	341.309	82.8787	341.309	69.6518	341.309	82.5576	341.309	69.3779	341.309	82.0429	341.309	69.3433	341.309	81.3084	341.309	69.9813	341.309	80.3261	341.309	71.5142	341.309	79.0677	341.309	73.5691	341.309	77.5099	341.309	75.6523
353.027	80.1132	353.027	79.696	353.027	80.4984	353.027	79.2156	353.027	80.8732	353.027	78.635	353.027	81.2479	353.027	77.916	353.027	81.6218	353.027	77.0252	353.027	81.9851	353.027	75.943	353.027	82.3217	353.027	74.6785	353.027	82.6109	353.027	73.2944	353.027	82.8297	353.027	71.9273	353.027	82.9533	353.027	70.7557	353.027	82.9561	353.027	69.8671	353.027	82.8112	353.027	69.1571	353.027	82.4906	353.027	68.4675	353.027	81.9644	353.027	67.9285	353.027	81.1997	353.027	68.2509	353.027	80.1595	353.027	69.9948	353.027	78.8021	353.027	72.5067	353.027	77.0833	353.027	74.971
366.211	80.6032	366.211	80.2172	366.211	80.9409	366.211	79.7412	366.211	81.2618	366.211	79.1264	366.211	81.5843	366.211	78.3191	366.211	81.9138	366.211	77.2632	366.211	82.2432	366.211	75.9021	366.211	82.5559	366.211	74.1885	366.211	82.8292	366.211	72.1175	366.211	83.036	366.211	69.8255	366.211	83.1476	366.211	67.7572	366.211	83.1338	366.211	66.4975	366.211	82.9635	366.211	65.9266	366.211	82.6043	366.211	65.304	366.211	82.0212	366.211	64.3587	366.211	81.175	366.211	64.4047	366.211	80.0183	366.211	67.139	366.211	78.491	366.211	70.8036	366.211	76.5136	366.211	73.9833
379.395	80.4619	379.395	79.9536	379.395	80.9058	379.395	79.334	379.395	81.3194	379.395	78.5458	379.395	81.723	379.395	77.5224	379.395	82.1232	379.395	76.189	379.395	82.514	379.395	74.467	379.395	82.8802	379.395	72.3001	379.395	83.1994	379.395	69.7745	379.395	83.4453	379.395	67.4812	379.395	83.5891	379.395	66.5414	379.395	83.6007	379.395	66.8127	379.395	83.449	379.395	66.954	379.395	83.101	379.395	66.0788	379.395	82.5201	379.395	63.5387	379.395	81.6628	379.395	60.0178	379.395	80.4735	379.395	64.2447	379.395	78.8744	379.395	69.9213	379.395	76.7464	379.395	73.8876
392.578	80.3924	392.578	79.9341	392.578	80.8234	392.578	79.3976	392.578	81.2598	392.578	78.7188	392.578	81.7145	392.578	77.8248	392.578	82.1825	392.578	76.6374	392.578	82.6462	392.578	75.0779	392.578	83.0803	392.578	73.0879	392.578	83.4559	392.578	70.7286	392.578	83.7426	392.578	68.4896	392.578	83.9093	392.578	67.4395	392.578	83.9241	392.578	67.7093	392.578	83.7534	392.578	68.0667	392.578	83.3608	392.578	67.5653	392.578	82.7046	392.578	65.4337	392.578	81.733	392.578	59.456	392.578	80.376	392.578	55.048	392.578	78.5285	392.578	66.9517	392.578	76.0115	392.578	72.4667
405.762	80.1889	405.762	79.8092	405.762	80.5394	405.762	79.3326	405.762	80.9101	405.762	78.6792	405.762	81.3271	405.762	77.7579	405.762	81.7912	405.762	76.4592	405.762	82.283	405.762	74.637	405.762	82.7698	405.762	72.0699	405.762	83.2127	405.762	68.4139	405.762	83.5715	405.762	63.6424	405.762	83.8071	405.762	62.293	405.762	83.882	405.762	65.3548	405.762	83.7597	405.762	67.2855	405.762	83.4029	405.762	67.5458	405.762	82.7698	405.762	65.91	405.762	81.8092	405.762	60.7304	405.762	80.4506	405.762	54.0467	405.762	78.5856	405.762	66.6232	405.762	76.0257	405.762	72.3851
420.41	80.4527	420.41	80.0095	420.41	80.8457	420.41	79.4353	420.41	81.2467	420.41	78.6299	420.41	81.6875	420.41	77.4693	420.41	82.1727	420.41	75.7843	420.41	82.6848	420.41	73.3027	420.41	83.192	420.41	69.4961	420.41	83.6558	420.41	63.492	420.41	84.0359	420.41	62.3117	420.41	84.2924	420.41	67.6774	420.41	84.3867	420.41	70.7469	420.41	84.2798	420.41	72.1825	420.41	83.9302	420.41	72.4023	420.41	83.2894	420.41	71.4194	420.41	82.2957	420.41	68.8782	420.41	80.8622	420.41	64.4635	420.41	78.8531	420.41	65.9712	420.41	76.0302	420.41	71.9298
435.059	80.0298	435.059	79.5677	435.059	80.4615	435.059	78.9833	435.059	80.9272	435.059	78.1629	435.059	81.4581	435.059	76.9685	435.059	82.0528	435.059	75.2201	435.059	82.6852	435.059	72.6634	435.059	83.3148	435.059	69.0435	435.059	83.8961	435.059	65.7822	435.059	84.3836	435.059	67.6727	435.059	84.7348	435.059	70.8882	435.059	84.9097	435.059	72.9185	435.059	84.8697	435.059	73.8142	435.059	84.5747	435.059	73.663	435.059	83.9792	435.059	72.3189	435.059	83.0251	435.059	69.175	435.059	81.629	435.059	62.7199	435.059	79.6552	435.059	65.627	435.059	76.8509	435.059	72.6552
451.172	80.2444	451.172	79.8648	451.172	80.622	451.172	79.393	451.172	81.0593	451.172	78.7191	451.172	81.5816	451.172	77.714	451.172	82.1795	451.172	76.2137	451.172	82.8192	451.172	73.978	451.172	83.455	451.172	70.6235	451.172	84.0386	451.172	66.03	451.172	84.5243	451.172	65.3241	451.172	84.8695	451.172	69.3496	451.172	85.0348	451.172	72.1839	451.172	84.982	451.172	73.661	451.172	84.6711	451.172	74.0594	451.172	84.0571	451.172	73.4573	451.172	83.084	451.172	71.8221	451.172	81.676	451.172	69.6003	451.172	79.7235	451.172	69.9148	451.172	77.0672	451.172	73.5614
465.82	79.6962	465.82	79.2925	465.82	80.1115	465.82	78.7813	465.82	80.6186	465.82	78.0183	465.82	81.2454	465.82	76.8283	465.82	81.9703	465.82	74.9601	465.82	82.7405	465.82	71.9351	465.82	83.4938	465.82	66.3626	465.82	84.1717	465.82	46.525	465.82	84.7243	465.82	65.3487	465.82	85.1109	465.82	71.0402	465.82	85.2975	465.82	73.821	465.82	85.2529	465.82	75.1979	465.82	84.9447	465.82	75.5777	465.82	84.3344	465.82	75.0701	465.82	83.371	465.82	73.6982	465.82	81.9839	465.82	71.8443	465.82	80.0735	465.82	71.6134	465.82	77.5197	465.82	74.3368
483.398	79.5416	483.398	79.1212	483.398	79.9614	483.398	78.5534	483.398	80.481	483.398	77.6608	483.398	81.1365	483.398	76.2243	483.398	81.9033	483.398	73.9277	483.398	82.7217	483.398	70.2901	483.398	83.5233	483.398	66.1546	483.398	84.2454	483.398	68.867	483.398	84.8354	483.398	73.2537	483.398	85.2491	483.398	76.1148	483.398	85.4482	483.398	77.8463	483.398	85.3961	483.398	78.7387	483.398	85.0543	483.398	78.9152	483.398	84.3773	483.398	78.3965	483.398	83.3046	483.398	77.1384	483.398	81.7524	483.398	75.1491	483.398	79.6094	483.398	73.2076	483.398	76.8065	483.398	73.8758
499.512	79.4654	499.512	79.2809	499.512	79.6839	499.512	78.9652	499.512	80.0659	499.512	78.3475	499.512	80.6652	499.512	77.2475	499.512	81.4491	499.512	75.4499	499.512	82.3339	499.512	72.7179	499.512	83.2269	499.512	69.5082	499.512	84.0487	499.512	69.7114	499.512	84.7367	499.512	73.0748	499.512	85.2415	499.512	75.8212	499.512	85.5217	499.512	77.5404	499.512	85.5399	499.512	78.4039	499.512	85.2579	499.512	78.5195	499.512	84.6316	499.512	77.9039	499.512	83.6033	499.512	76.5045	499.512	82.0914	499.512	74.3485	499.512	79.9805	499.512	72.5303	499.512	77.1558	499.512	73.9134
517.09	80.2528	517.09	80.194	517.09	80.36	517.09	80.0172	517.09	80.6495	517.09	79.5547	517.09	81.1789	517.09	78.6362	517.09	81.9175	517.09	77.0618	517.09	82.7806	517.09	74.5815	517.09	83.672	517.09	71.2389	517.09	84.5074	517.09	70.0556	517.09	85.2189	517.09	73.2445	517.09	85.7524	517.09	76.3529	517.09	86.0626	517.09	78.3879	517.09	86.1084	517.09	79.5155	517.09	85.8488	517.09	79.8758	517.09	85.2377	517.09	79.5214	517.09	84.2182	517.09	78.4526	517.09	82.7176	517.09	76.7395	517.09	80.6544	517.09	75.0944	517.09	78.0399	517.09	75.5296
536.133	79.7253	536.133	79.8832	536.133	79.626	536.133	79.9058	536.133	79.7563	536.133	79.6109	536.133	80.2034	536.133	78.8176	536.133	80.9442	536.133	77.2961	536.133	81.8811	536.133	74.6554	536.133	82.8953	536.133	70.1409	536.133	83.8778	536.133	65.7904	536.133	84.7398	536.133	71.0197	536.133	85.4128	536.133	75.3805	536.133	85.8447	536.133	77.9333	536.133	85.9926	536.133	79.3375	536.133	85.8148	536.133	79.8785	536.133	85.2631	536.133	79.6545	536.133	84.275	536.133	78.6684	536.133	82.7656	536.133	76.9419	536.133	80.6342	536.133	75.0652	536.133	77.8745	536.133	75.2519
555.176	78.8281	555.176	78.9743	555.176	78.7967	555.176	78.9805	555.176	79.1014	555.176	78.6107	555.176	79.8312	555.176	77.6289	555.176	80.9095	555.176	75.7278	555.176	82.169	555.176	72.4546	555.176	83.4439	555.176	68.5578	555.176	84.6098	555.176	71.1409	555.176	85.5845	555.176	75.6328	555.176	86.3149	555.176	78.605	555.176	86.7638	555.176	80.4204	555.176	86.9001	555.176	81.3821	555.176	86.6902	555.176	81.6308	555.176	86.0916	555.176	81.207	555.176	85.0461	555.176	80.0858	555.176	83.4729	555.176	78.2565	555.176	81.277	555.176	76.1919	555.176	78.4825	555.176	76.0069
574.219	78.7165	574.219	79.0826	574.219	78.5954	574.219	79.4061	574.219	78.9823	574.219	79.4562	574.219	79.9392	574.219	79.0431	574.219	81.2794	574.219	77.9776	574.219	82.737	574.219	76.0544	574.219	84.1118	574.219	73.319	574.219	85.2909	574.219	71.9357	574.219	86.2186	574.219	74.4822	574.219	86.8687	574.219	77.5467	574.219	87.227	574.219	79.6815	574.219	87.2803	574.219	80.9336	574.219	87.0097	574.219	81.4403	574.219	86.3845	574.219	81.2722	574.219	85.3588	574.219	80.4532	574.219	83.8723	574.219	79.0613	574.219	81.8785	574.219	77.6131	574.219	79.5027	574.219	77.5867
594.727	81.0819	594.727	81.4943	594.727	80.6458	594.727	81.6582	594.727	80.5111	594.727	81.4328	594.727	80.9442	594.727	80.6979	594.727	81.9083	594.727	79.2962	594.727	83.1247	594.727	76.9823	594.727	84.329	594.727	73.5724	594.727	85.3678	594.727	71.3461	594.727	86.1663	594.727	74.4238	594.727	86.6874	594.727	77.9192	594.727	86.9081	594.727	80.2172	594.727	86.808	594.727	81.5239	594.727	86.3617	594.727	82.0382	594.727	85.5335	594.727	81.8654	594.727	84.2737	594.727	81.0515	594.727	82.527	594.727	79.6387	594.727	80.2963	594.727	77.8764	594.727	77.9489	594.727	76.841
615.234	81.9469	615.234	82.7792	615.234	81.0501	615.234	83.3158	615.234	80.445	615.234	83.418	615.234	80.4755	615.234	82.9785	615.234	81.1891	615.234	81.8709	615.234	82.3261	615.234	79.9013	615.234	83.5889	615.234	76.7859	615.234	84.776	615.234	72.906	615.234	85.7673	615.234	73.2127	615.234	86.4879	615.234	76.8871	615.234	86.8871	615.234	79.5815	615.234	86.9258	615.234	81.1534	615.234	86.5681	615.234	81.8513	615.234	85.7721	615.234	81.8044	615.234	84.481	615.234	81.0471	615.234	82.619	615.234	79.5694	615.234	80.1362	615.234	77.518	615.234	77.3615	615.234	76.0758
637.207	81.6539	637.207	82.4777	637.207	80.6995	637.207	82.982	637.207	79.9182	637.207	83.0401	637.207	79.6988	637.207	82.5326	637.207	80.2701	637.207	81.2877	637.207	81.4687	637.207	78.9625	637.207	82.9167	637.207	74.6186	637.207	84.3036	637.207	62.9144	637.207	85.4489	637.207	68.7587	637.207	86.2578	637.207	76.4453	637.207	86.6769	637.207	79.9722	637.207	86.6681	637.207	81.9046	637.207	86.1917	637.207	82.8727	637.207	85.1916	637.207	83.102	637.207	83.5797	637.207	82.6548	637.207	81.2354	637.207	81.494	637.207	78.1783	637.207	79.5312	637.207	75.7949	637.207	76.9496
659.18	82.0123	659.18	82.6517	659.18	81.3324	659.18	83.0408	659.18	80.8767	659.18	83.0082	659.18	80.8989	659.18	82.3759	659.18	81.4843	659.18	80.8853	659.18	82.4863	659.18	78.0127	659.18	83.6586	659.18	72.2141	659.18	84.7931	659.18	65.1962	659.18	85.7525	659.18	75.1431	659.18	86.4496	659.18	79.9075	659.18	86.8231	659.18	82.5088	659.18	86.8208	659.18	83.9302	659.18	86.3866	659.18	84.5113	659.18	85.4452	659.18	84.3703	659.18	83.8767	659.18	83.5022	659.18	81.4642	659.18	81.7839	659.18	77.8344	659.18	78.9286	659.18	73.4222	659.18	74.7263
682.617	82.0408	682.617	82.8035	682.617	81.1645	682.617	83.2589	682.617	80.4864	682.617	83.2733	682.617	80.3789	682.617	82.7082	682.617	81.0011	682.617	81.3487	682.617	82.1456	682.617	78.7507	682.617	83.4736	682.617	73.6294	682.617	84.7348	682.617	61.685	682.617	85.7844	682.617	73.3363	682.617	86.5375	682.617	78.9632	682.617	86.9354	682.617	81.8685	682.617	86.9266	682.617	83.4374	682.617	86.4513	682.617	84.1085	682.617	85.4229	682.617	84.0455	682.617	83.6937	682.617	83.2708	682.617	80.9801	682.617	81.6721	682.617	76.7128	682.617	78.9226	682.617	71.3677	682.617	74.3883
707.52	82.8424	707.52	83.5497	707.52	81.993	707.52	83.9404	707.52	81.2597	707.52	83.8814	707.52	80.9642	707.52	83.229	707.52	81.3255	707.52	81.7552	707.52	82.2719	707.52	78.9659	707.52	83.5142	707.52	73.2659	707.52	84.7624	707.52	47.5248	707.52	85.8241	707.52	74.3075	707.52	86.5922	707.52	79.7917	707.52	87.0054	707.52	82.6023	707.52	87.016	707.52	84.1036	707.52	86.567	707.52	84.7081	707.52	85.5744	707.52	84.5545	707.52	83.8965	707.52	83.6392	707.52	81.256	707.52	81.8184	707.52	77.0245	707.52	78.6924	707.52	70.6435	707.52	73.3508
732.422	83.1917	732.422	83.8812	732.422	82.406	732.422	84.2634	732.422	81.816	732.422	84.1778	732.422	81.7317	732.422	83.46	732.422	82.2823	732.422	81.8574	732.422	83.304	732.422	78.8107	732.422	84.5013	732.422	72.3667	732.422	85.632	732.422	60.7488	732.422	86.5478	732.422	75.726	732.422	87.1656	732.422	80.5853	732.422	87.4373	732.422	83.0945	732.422	87.327	732.422	84.3602	732.422	86.7903	732.422	84.7411	732.422	85.7532	732.422	84.3602	732.422	84.0793	732.422	83.2014	732.422	81.4897	732.422	81.0787	732.422	77.2932	732.422	77.4175	732.422	69.3585	732.422	70.3263
757.324	82.7136	757.324	83.3298	757.324	82.0198	757.324	83.6698	757.324	81.5217	757.324	83.5772	757.324	81.5212	757.324	82.8888	757.324	82.1485	757.324	81.3637	757.324	83.2274	757.324	78.5073	757.324	84.4442	757.324	72.8707	757.324	85.5545	757.324	65.2286	757.324	86.4204	757.324	75.1855	757.324	86.9685	757.324	80.0895	757.324	87.1516	757.324	82.7561	757.324	86.9234	757.324	84.1993	757.324	86.2196	757.324	84.7685	757.324	84.9352	757.324	84.5961	757.324	82.8802	757.324	83.6989	757.324	79.6433	757.324	81.9711	757.324	74.0397	757.324	79.0599	757.324	64.7243	757.324	73.8279
785.156	83.9386	785.156	84.4861	785.156	83.2177	785.156	84.6601	785.156	82.6115	785.156	84.3046	785.156	82.4323	785.156	83.2319	785.156	82.8096	785.156	81.0908	785.156	83.6009	785.156	76.9435	785.156	84.5613	785.156	65.822	785.156	85.4908	785.156	71.5181	785.156	86.2475	785.156	79.1682	785.156	86.7262	785.156	82.7114	785.156	86.8461	785.156	84.6197	785.156	86.5423	785.156	85.5325	785.156	85.7489	785.156	85.7043	785.156	84.3667	785.156	85.2387	785.156	82.2008	785.156	84.1399	785.156	78.7878	785.156	82.2988	785.156	72.6538	785.156	79.3782	785.156	63.4255	785.156	74.3123
811.523	83.2479	811.523	84.0884	811.523	82.2545	811.523	84.5538	811.523	81.4593	811.523	84.5013	811.523	81.2588	811.523	83.7991	811.523	81.8052	811.523	82.2391	811.523	82.8771	811.523	79.3346	811.523	84.1218	811.523	73.4556	811.523	85.2636	811.523	62.9581	811.523	86.132	811.523	75.8569	811.523	86.6325	811.523	80.904	811.523	86.7147	811.523	83.5226	811.523	86.3452	811.523	84.8533	811.523	85.4837	811.523	85.29	811.523	84.0554	811.523	84.9913	811.523	81.8957	811.523	83.9793	811.523	78.5888	811.523	82.1401	811.523	72.8065	811.523	79.1192	811.523	63.3081	811.523	73.805
840.82	83.6274	840.82	84.1848	840.82	82.9184	840.82	84.3844	840.82	82.3545	840.82	84.0586	840.82	82.2557	840.82	82.9997	840.82	82.7331	840.82	80.8291	840.82	83.591	840.82	76.5453	840.82	84.529	840.82	65.1956	840.82	85.3291	840.82	72.899	840.82	85.8827	840.82	79.9002	840.82	86.1468	840.82	83.3414	840.82	86.0935	840.82	85.2137	840.82	85.6723	840.82	86.0814	840.82	84.7853	840.82	86.1827	840.82	83.2612	840.82	85.6248	840.82	80.7963	840.82	84.4303	840.82	76.7093	840.82	82.5357	840.82	68.2557	840.82	79.7143	840.82	64.8371	840.82	75.2035
870.117	83.0219	870.117	83.7692	870.117	82.0974	870.117	84.1182	870.117	81.3967	870.117	83.9473	870.117	81.358	870.117	83.138	870.117	82.0593	870.117	81.4721	870.117	83.184	870.117	78.3933	870.117	84.3515	870.117	71.8361	870.117	85.2832	870.117	62.6851	870.117	85.8302	870.117	76.2332	870.117	85.9578	870.117	81.0887	870.117	85.6962	870.117	83.6581	870.117	85.0715	870.117	84.9771	870.117	84.0505	870.117	85.3932	870.117	82.5197	870.117	85.0353	870.117	80.2734	870.117	83.9224	870.117	76.9335	870.117	81.9843	870.117	71.7778	870.117	79.0113	870.117	68.541	870.117	74.4784
900.879	83.4509	900.879	84.1265	900.879	82.5603	900.879	84.3699	900.879	81.8136	900.879	84.0309	900.879	81.6321	900.879	82.9285	900.879	82.1542	900.879	80.7029	900.879	83.0804	900.879	76.3621	900.879	84.0085	900.879	65.9666	900.879	84.7066	900.879	73.3915	900.879	85.112	900.879	79.8975	900.879	85.232	900.879	83.1361	900.879	85.0587	900.879	84.8568	900.879	84.5318	900.879	85.6085	900.879	83.5402	900.879	85.6271	900.879	81.9336	900.879	85.0052	900.879	79.5348	900.879	83.7404	900.879	76.1436	900.879	81.7551	900.879	71.8792	900.879	78.8983	900.879	70.7606	900.879	74.9737
933.105	83.2733	933.105	83.9007	933.105	82.6063	933.105	84.1804	933.105	82.2802	933.105	83.9049	933.105	82.5107	933.105	82.8847	933.105	83.1759	933.105	80.8095	933.105	83.9964	933.105	76.8677	933.105	84.7317	933.105	67.0537	933.105	85.2204	933.105	69.738	933.105	85.3873	933.105	78.2892	933.105	85.2386	933.105	82.201	933.105	84.8164	933.105	84.3681	933.105	84.1317	933.105	85.4583	933.105	83.1318	933.105	85.7168	933.105	81.7311	933.105	85.2298	933.105	79.8854	933.105	83.993	933.105	77.6692	933.105	81.9506	933.105	75.3779	933.105	79.0793	933.105	74.1269	933.105	75.8096
965.332	82.7312	965.332	83.865	965.332	81.3654	965.332	84.4769	965.332	80.3768	965.332	84.4283	965.332	80.3988	965.332	83.5768	965.332	81.2871	965.332	81.624	965.332	82.4107	965.332	77.7097	965.332	83.3625	965.332	67.3775	965.332	83.9978	965.332	71.3087	965.332	84.2973	965.332	79.3548	965.332	84.2709	965.332	82.8922	965.332	83.9076	965.332	84.7057	965.332	83.1885	965.332	85.5121	965.332	82.1256	965.332	85.5786	965.332	80.7959	965.332	84.9597	965.332	79.3901	965.332	83.5921	965.332	78.1655	965.332	81.3973	965.332	77.1348	965.332	78.5562	965.332	76.1912	965.332	76.3012
1,000.49	84.0722	1,000.49	84.7615	1,000.49	83.2074	1,000.49	85.0143	1,000.49	82.5787	1,000.49	84.6813	1,000.49	82.5313	1,000.49	83.626	1,000.49	83.0292	1,000.49	81.6394	1,000.49	83.7464	1,000.49	78.3287	1,000.49	84.3522	1,000.49	73.0709	1,000.49	84.6481	1,000.49	71.2376	1,000.49	84.5941	1,000.49	76.8611	1,000.49	84.2637	1,000.49	80.7527	1,000.49	83.7515	1,000.49	83.0629	1,000.49	83.099	1,000.49	84.2111	1,000.49	82.3188	1,000.49	84.3351	1,000.49	81.4807	1,000.49	83.4285	1,000.49	80.687	1,000.49	81.4013	1,000.49	79.8704	1,000.49	78.145	1,000.49	78.6902	1,000.49	74.3362	1,000.49	76.7088	1,000.49	74.0836
1,035.64	81.7767	1,035.64	82.8375	1,035.64	80.8168	1,035.64	83.538	1,035.64	80.4749	1,035.64	83.5777	1,035.64	80.9079	1,035.64	82.7296	1,035.64	81.7797	1,035.64	80.6741	1,035.64	82.6607	1,035.64	76.5908	1,035.64	83.2814	1,035.64	68.6159	1,035.64	83.5513	1,035.64	73.6891	1,035.64	83.5093	1,035.64	79.4678	1,035.64	83.2193	1,035.64	82.2627	1,035.64	82.6844	1,035.64	83.5024	1,035.64	81.8953	1,035.64	83.7427	1,035.64	80.9479	1,035.64	83.2178	1,035.64	80.0742	1,035.64	81.9441	1,035.64	79.4913	1,035.64	79.755	1,035.64	79.1051	1,035.64	76.4328	1,035.64	78.4414	1,035.64	73.142	1,035.64	76.9109	1,035.64	74.2729
1,072.27	82.1563	1,072.27	82.8468	1,072.27	81.3884	1,072.27	83.0882	1,072.27	81.1071	1,072.27	82.6892	1,072.27	81.573	1,072.27	81.48	1,072.27	82.4224	1,072.27	79.2566	1,072.27	83.1491	1,072.27	76.0449	1,072.27	83.4759	1,072.27	74.0176	1,072.27	83.3906	1,072.27	76.2603	1,072.27	83.0711	1,072.27	79.3596	1,072.27	82.6962	1,072.27	81.6757	1,072.27	82.2757	1,072.27	83.0833	1,072.27	81.7323	1,072.27	83.5429	1,072.27	81.0872	1,072.27	82.9849	1,072.27	80.4979	1,072.27	81.2995	1,072.27	80.0804	1,072.27	78.2463	1,072.27	79.656	1,072.27	73.207	1,072.27	78.762	1,072.27	68.2509	1,072.27	76.813	1,072.27	73.0069
1,108.89	81.9239	1,108.89	82.6569	1,108.89	81.2251	1,108.89	82.9903	1,108.89	81.0648	1,108.89	82.6618	1,108.89	81.5527	1,108.89	81.4873	1,108.89	82.3208	1,108.89	79.2084	1,108.89	83.0165	1,108.89	75.307	1,108.89	83.4733	1,108.89	71.3996	1,108.89	83.6042	1,108.89	75.5393	1,108.89	83.3384	1,108.89	79.7145	1,108.89	82.652	1,108.89	82.0776	1,108.89	81.6708	1,108.89	83.1867	1,108.89	80.7509	1,108.89	83.3294	1,108.89	80.3069	1,108.89	82.5544	1,108.89	80.42	1,108.89	80.6611	1,108.89	80.7445	1,108.89	77.0319	1,108.89	80.7825	1,108.89	69.5262	1,108.89	80.1142	1,108.89	65.8587	1,108.89	78.3377	1,108.89	74.638
1,148.44	81.6594	1,148.44	82.465	1,148.44	81.1356	1,148.44	82.9311	1,148.44	81.4424	1,148.44	82.682	1,148.44	82.2975	1,148.44	81.3776	1,148.44	83.0432	1,148.44	78.5013	1,148.44	83.3465	1,148.44	73.4006	1,148.44	83.1888	1,148.44	72.5379	1,148.44	82.7307	1,148.44	77.7932	1,148.44	82.2011	1,148.44	81.0249	1,148.44	81.7326	1,148.44	82.7185	1,148.44	81.3299	1,148.44	83.3572	1,148.44	81.0609	1,148.44	83.0989	1,148.44	81.1034	1,148.44	81.9337	1,148.44	81.494	1,148.44	79.7193	1,148.44	81.9592	1,148.44	75.9014	1,148.44	82.0619	1,148.44	67.6126	1,148.44	81.3692	1,148.44	65.2264	1,148.44	79.4224	1,148.44	75.3691
1,189.45	82.9763	1,189.45	83.6598	1,189.45	82.3337	1,189.45	83.868	1,189.45	82.3683	1,189.45	83.3659	1,189.45	83.0612	1,189.45	81.979	1,189.45	83.8703	1,189.45	79.4422	1,189.45	84.4831	1,189.45	75.853	1,189.45	84.8197	1,189.45	75.0076	1,189.45	84.7931	1,189.45	78.2779	1,189.45	84.3054	1,189.45	81.1037	1,189.45	83.4068	1,189.45	82.8764	1,189.45	82.3638	1,189.45	83.7133	1,189.45	81.5461	1,189.45	83.6772	1,189.45	81.3125	1,189.45	82.745	1,189.45	81.7797	1,189.45	80.7134	1,189.45	82.4622	1,189.45	77.1112	1,189.45	82.6815	1,189.45	71.312	1,189.45	82.0098	1,189.45	70.9358	1,189.45	80.1458	1,189.45	76.6375
1,230.47	83.1834	1,230.47	84.0815	1,230.47	82.6123	1,230.47	84.5701	1,230.47	82.9424	1,230.47	84.2194	1,230.47	83.8599	1,230.47	82.7329	1,230.47	84.7928	1,230.47	79.8599	1,230.47	85.3907	1,230.47	76.1111	1,230.47	85.3989	1,230.47	75.9199	1,230.47	84.7039	1,230.47	79.1949	1,230.47	83.4743	1,230.47	81.9069	1,230.47	82.1645	1,230.47	83.6573	1,230.47	81.4152	1,230.47	84.5494	1,230.47	81.7176	1,230.47	84.6281	1,230.47	82.6668	1,230.47	83.8407	1,230.47	83.4793	1,230.47	82.1761	1,230.47	83.7942	1,230.47	79.8493	1,230.47	83.4736	1,230.47	76.9892	1,230.47	82.325	1,230.47	74.5071	1,230.47	80.0555	1,230.47	76.5576
1,274.41	84.1516	1,274.41	84.9933	1,274.41	83.2811	1,274.41	85.258	1,274.41	83.2713	1,274.41	84.73	1,274.41	84.1327	1,274.41	83.2049	1,274.41	85.046	1,274.41	80.389	1,274.41	85.5675	1,274.41	76.5478	1,274.41	85.5405	1,274.41	76.3917	1,274.41	84.87	1,274.41	79.8426	1,274.41	83.6448	1,274.41	82.4326	1,274.41	82.2352	1,274.41	84.0043	1,274.41	81.2964	1,274.41	84.8116	1,274.41	81.5514	1,274.41	85.013	1,274.41	82.8241	1,274.41	84.6457	1,274.41	84.1619	1,274.41	83.5679	1,274.41	84.8898	1,274.41	81.7042	1,274.41	84.7032	1,274.41	79.2282	1,274.41	83.439	1,274.41	77.0649	1,274.41	81.0181	1,274.41	77.9724
1,319.82	84.6111	1,319.82	85.8102	1,319.82	83.6427	1,319.82	86.4108	1,319.82	83.7773	1,319.82	86.043	1,319.82	84.7324	1,319.82	84.5069	1,319.82	85.6951	1,319.82	81.7246	1,319.82	86.0941	1,319.82	78.843	1,319.82	85.5946	1,319.82	79.8414	1,319.82	84.1253	1,319.82	82.7353	1,319.82	81.9768	1,319.82	84.7514	1,319.82	80.253	1,319.82	85.8216	1,319.82	80.5329	1,319.82	86.2551	1,319.82	82.0308	1,319.82	86.2815	1,319.82	83.4862	1,319.82	86.0177	1,319.82	84.6508	1,319.82	85.5488	1,319.82	85.297	1,319.82	84.7251	1,319.82	85.0663	1,319.82	82.9846	1,319.82	83.5995	1,319.82	79.8765	1,319.82	80.6181	1,319.82	77.7035
1,366.7	84.7906	1,366.7	85.8431	1,366.7	83.6327	1,366.7	86.2227	1,366.7	83.2941	1,366.7	85.7217	1,366.7	83.9163	1,366.7	84.3017	1,366.7	84.6851	1,366.7	82.1548	1,366.7	84.9691	1,366.7	80.5706	1,366.7	84.4711	1,366.7	81.8495	1,366.7	83.2475	1,366.7	84.1202	1,366.7	81.8053	1,366.7	85.4754	1,366.7	81.2037	1,366.7	86.127	1,366.7	82.1524	1,366.7	86.6764	1,366.7	83.5259	1,366.7	87.1555	1,366.7	84.5356	1,366.7	87.2157	1,366.7	85.3165	1,366.7	86.8252	1,366.7	85.7342	1,366.7	86.0814	1,366.7	85.2389	1,366.7	84.501	1,366.7	83.2479	1,366.7	81.1865	1,366.7	79.1079	1,366.7	76.4625
1,413.57	85.3773	1,413.57	86.5768	1,413.57	84.1333	1,413.57	86.9073	1,413.57	83.7534	1,413.57	85.9257	1,413.57	84.3451	1,413.57	83.6343	1,413.57	85.1788	1,413.57	81.2862	1,413.57	85.5714	1,413.57	81.6741	1,413.57	85.0939	1,413.57	83.6672	1,413.57	83.5632	1,413.57	85.1759	1,413.57	81.5405	1,413.57	85.8562	1,413.57	81.1116	1,413.57	85.9297	1,413.57	82.4365	1,413.57	85.966	1,413.57	83.6392	1,413.57	86.3854	1,413.57	84.7955	1,413.57	86.7278	1,413.57	85.9933	1,413.57	86.4353	1,413.57	86.5807	1,413.57	85.4868	1,413.57	86.0752	1,413.57	83.8611	1,413.57	83.9575	1,413.57	80.9432	1,413.57	79.2448	1,413.57	76.1791
1,463.38	86.0421	1,463.38	86.8093	1,463.38	84.6392	1,463.38	86.664	1,463.38	83.5043	1,463.38	85.457	1,463.38	83.6542	1,463.38	83.2078	1,463.38	84.5421	1,463.38	81.3008	1,463.38	85.1008	1,463.38	82.3415	1,463.38	84.7532	1,463.38	84.4231	1,463.38	83.5283	1,463.38	85.614	1,463.38	82.2957	1,463.38	85.8576	1,463.38	82.0122	1,463.38	85.8323	1,463.38	82.1266	1,463.38	86.1654	1,463.38	82.4976	1,463.38	86.5339	1,463.38	84.032	1,463.38	86.4876	1,463.38	85.9625	1,463.38	86.3701	1,463.38	87.1029	1,463.38	86.2113	1,463.38	87.0209	1,463.38	85.1418	1,463.38	85.2115	1,463.38	82.1517	1,463.38	80.5802	1,463.38	76.7491
1,516.11	86.8137	1,516.11	87.6311	1,516.11	86.016	1,516.11	87.5549	1,516.11	85.9613	1,516.11	85.9715	1,516.11	86.4401	1,516.11	82.7463	1,516.11	86.8745	1,516.11	80.4412	1,516.11	86.8341	1,516.11	82.6334	1,516.11	86.1042	1,516.11	84.8427	1,516.11	85.0372	1,516.11	85.7658	1,516.11	84.1249	1,516.11	85.888	1,516.11	83.1602	1,516.11	85.966	1,516.11	81.994	1,516.11	86.4776	1,516.11	82.3426	1,516.11	86.9675	1,516.11	84.9362	1,516.11	86.9715	1,516.11	87.0985	1,516.11	86.9131	1,516.11	88.0227	1,516.11	87.1159	1,516.11	87.7011	1,516.11	86.6922	1,516.11	85.6611	1,516.11	84.3539	1,516.11	80.6115	1,516.11	78.8006
1,568.85	87.7861	1,568.85	88.337	1,568.85	86.5244	1,568.85	87.7229	1,568.85	85.692	1,568.85	85.8691	1,568.85	86.1345	1,568.85	83.0279	1,568.85	87.105	1,568.85	81.5635	1,568.85	87.4614	1,568.85	83.664	1,568.85	86.6172	1,568.85	85.6906	1,568.85	84.7971	1,568.85	86.1596	1,568.85	83.363	1,568.85	85.308	1,568.85	82.6427	1,568.85	84.2968	1,568.85	81.6741	1,568.85	84.3081	1,568.85	82.5243	1,568.85	84.9659	1,568.85	85.577	1,568.85	85.6794	1,568.85	87.7656	1,568.85	86.7487	1,568.85	88.3992	1,568.85	87.6435	1,568.85	87.4374	1,568.85	87.3549	1,568.85	84.5913	1,568.85	85.2468	1,568.85	79.8096	1,568.85	80.8144
1,624.51	86.9272	1,624.51	87.8579	1,624.51	85.7007	1,624.51	87.6588	1,624.51	85.3395	1,624.51	85.893	1,624.51	85.8966	1,624.51	82.4812	1,624.51	86.6381	1,624.51	81.2213	1,624.51	87.0709	1,624.51	84.1857	1,624.51	86.8404	1,624.51	85.8138	1,624.51	85.6406	1,624.51	85.5541	1,624.51	83.5574	1,624.51	84.2076	1,624.51	81.099	1,624.51	82.8186	1,624.51	79.2802	1,624.51	81.9794	1,624.51	82.352	1,624.51	81.9167	1,624.51	86.1357	1,624.51	83.2471	1,624.51	88.047	1,624.51	85.5663	1,624.51	88.4539	1,624.51	87.0203	1,624.51	87.2845	1,624.51	86.9977	1,624.51	83.8057	1,624.51	85.3017	1,624.51	78.3415	1,624.51	81.3113
1,681.64	86.1324	1,681.64	86.7265	1,681.64	84.5516	1,681.64	85.9153	1,681.64	83.4036	1,681.64	83.8678	1,681.64	84.0212	1,681.64	81.8476	1,681.64	85.1388	1,681.64	82.6941	1,681.64	85.1516	1,681.64	84.9825	1,681.64	83.9472	1,681.64	86.0289	1,681.64	83.1916	1,681.64	85.2152	1,681.64	82.9459	1,681.64	82.9776	1,681.64	80.9748	1,681.64	80.8388	1,681.64	79.388	1,681.64	79.7344	1,681.64	82.3111	1,681.64	79.6726	1,681.64	85.1966	1,681.64	81.3606	1,681.64	86.8152	1,681.64	84.1944	1,681.64	87.2317	1,681.64	86.0397	1,681.64	85.9364	1,681.64	86.0913	1,681.64	81.7668	1,681.64	84.0698	1,681.64	72.6147	1,681.64	78.8711
1,741.7	84.1359	1,741.7	84.9534	1,741.7	82.3304	1,741.7	84.1356	1,741.7	81.1695	1,741.7	81.2271	1,741.7	82.098	1,741.7	77.7989	1,741.7	83.3283	1,741.7	80.6549	1,741.7	83.8323	1,741.7	83.6168	1,741.7	83.8293	1,741.7	84.4595	1,741.7	83.0252	1,741.7	83.7858	1,741.7	80.9145	1,741.7	81.9547	1,741.7	78.0053	1,741.7	79.0161	1,741.7	77.5356	1,741.7	75.9851	1,741.7	80.9932	1,741.7	76.1032	1,741.7	84.1021	1,741.7	79.3814	1,741.7	85.7817	1,741.7	82.4423	1,741.7	86.3116	1,741.7	84.2357	1,741.7	85.5115	1,741.7	84.5093	1,741.7	82.6415	1,741.7	82.6189	1,741.7	76.6828	1,741.7	77.5107
1,803.22	85.3912	1,803.22	85.547	1,803.22	83.917	1,803.22	84.2351	1,803.22	82.2687	1,803.22	81.3423	1,803.22	82.1883	1,803.22	76.5851	1,803.22	83.3597	1,803.22	78.2553	1,803.22	84.1953	1,803.22	82.2671	1,803.22	84.0641	1,803.22	83.3763	1,803.22	83.0583	1,803.22	82.2978	1,803.22	81.129	1,803.22	79.8209	1,803.22	78.1448	1,803.22	76.5178	1,803.22	77.1646	1,803.22	73.6915	1,803.22	80.1951	1,803.22	74.6972	1,803.22	83.2792	1,803.22	79.0082	1,803.22	85.3102	1,803.22	82.789	1,803.22	86.0265	1,803.22	84.8999	1,803.22	85.2065	1,803.22	85.2352	1,803.22	82.3829	1,803.22	83.6821	1,803.22	77.8145	1,803.22	79.8135
1,866.21	85.0375	1,866.21	85.8091	1,866.21	83.5651	1,866.21	85.1893	1,866.21	82.2381	1,866.21	82.2165	1,866.21	82.4151	1,866.21	76.508	1,866.21	83.7223	1,866.21	78.2264	1,866.21	84.6844	1,866.21	82.2597	1,866.21	84.6398	1,866.21	83.5008	1,866.21	83.4521	1,866.21	82.4748	1,866.21	81.0278	1,866.21	79.469	1,866.21	77.5349	1,866.21	74.9656	1,866.21	76.7275	1,866.21	71.948	1,866.21	80.2748	1,866.21	72.777	1,866.21	83.4926	1,866.21	77.6571	1,866.21	85.4514	1,866.21	81.9815	1,866.21	86.0652	1,866.21	84.4873	1,866.21	85.1045	1,866.21	85.2018	1,866.21	81.9886	1,866.21	83.9366	1,866.21	77.2087	1,866.21	80.1447
1,932.13	84.3596	1,932.13	85.2733	1,932.13	82.2875	1,932.13	84.5531	1,932.13	80.4435	1,932.13	81.9224	1,932.13	80.8454	1,932.13	77.3537	1,932.13	82.4451	1,932.13	77.4479	1,932.13	83.6352	1,932.13	81.4446	1,932.13	83.8177	1,932.13	82.5101	1,932.13	82.6882	1,932.13	80.9196	1,932.13	79.9032	1,932.13	77.1245	1,932.13	75.4064	1,932.13	72.4736	1,932.13	75.0577	1,932.13	72.0092	1,932.13	79.2439	1,932.13	72.5526	1,932.13	82.4048	1,932.13	76.1875	1,932.13	84.4588	1,932.13	80.739	1,932.13	85.1965	1,932.13	83.3311	1,932.13	84.2034	1,932.13	83.9064	1,932.13	80.9142	1,932.13	82.3927	1,932.13	75.5392	1,932.13	78.2668
1,999.51	83.2524	1,999.51	84.0965	1,999.51	81.1692	1,999.51	83.4309	1,999.51	79.023	1,999.51	80.8309	1,999.51	79.1771	1,999.51	76.2864	1,999.51	81.3394	1,999.51	77.1461	1,999.51	82.9356	1,999.51	80.3138	1,999.51	83.1079	1,999.51	80.8008	1,999.51	81.7502	1,999.51	78.6347	1,999.51	78.5815	1,999.51	73.8644	1,999.51	72.9773	1,999.51	71.3443	1,999.51	73.2303	1,999.51	73.0739	1,999.51	77.9371	1,999.51	73.3686	1,999.51	80.9799	1,999.51	76.0353	1,999.51	82.9359	1,999.51	79.7189	1,999.51	83.7033	1,999.51	81.8629	1,999.51	82.8411	1,999.51	82.1712	1,999.51	79.7017	1,999.51	80.3805	1,999.51	72.9874	1,999.51	75.338
2,069.82	82.1174	2,069.82	82.9357	2,069.82	80.3093	2,069.82	82.2143	2,069.82	78.1953	2,069.82	78.9281	2,069.82	78.4581	2,069.82	72.8424	2,069.82	80.6199	2,069.82	75.0427	2,069.82	82.0914	2,069.82	78.6234	2,069.82	82.2796	2,069.82	79.091	2,069.82	80.728	2,069.82	76.8254	2,069.82	76.5303	2,069.82	73.2685	2,069.82	70.3487	2,069.82	73.6718	2,069.82	74.9994	2,069.82	74.6771	2,069.82	79.2001	2,069.82	73.9496	2,069.82	81.4235	2,069.82	75.5758	2,069.82	82.6969	2,069.82	79.0447	2,069.82	83.0264	2,069.82	80.9129	2,069.82	82.0667	2,069.82	80.8594	2,069.82	79.1867	2,069.82	78.6553	2,069.82	72.8249	2,069.82	72.9354
2,143.07	81.1313	2,143.07	82.3972	2,143.07	78.1372	2,143.07	81.9338	2,143.07	75.4683	2,143.07	79.4181	2,143.07	77.1566	2,143.07	73.8341	2,143.07	79.9658	2,143.07	73.5271	2,143.07	81.7239	2,143.07	78.0815	2,143.07	81.9999	2,143.07	79.0749	2,143.07	80.303	2,143.07	77.6969	2,143.07	75.6158	2,143.07	74.9761	2,143.07	72.7984	2,143.07	73.7187	2,143.07	77.8802	2,143.07	73.6417	2,143.07	80.786	2,143.07	72.7165	2,143.07	82.1713	2,143.07	74.7973	2,143.07	82.9504	2,143.07	78.5965	2,143.07	83.062	2,143.07	80.8144	2,143.07	81.9949	2,143.07	80.9466	2,143.07	79.0092	2,143.07	78.4816	2,143.07	72.2646	2,143.07	71.7524
2,219.24	80.8264	2,219.24	82.5717	2,219.24	77.5834	2,219.24	82.5196	2,219.24	73.9082	2,219.24	80.2357	2,219.24	74.3984	2,219.24	75.0957	2,219.24	78.5383	2,219.24	74.9342	2,219.24	81.2539	2,219.24	78.9463	2,219.24	81.7341	2,219.24	80.0758	2,219.24	80.1013	2,219.24	78.4305	2,219.24	76.3386	2,219.24	74.7929	2,219.24	74.9602	2,219.24	73.7766	2,219.24	78.3787	2,219.24	74.8649	2,219.24	80.5671	2,219.24	74.0001	2,219.24	81.7139	2,219.24	74.6034	2,219.24	82.4155	2,219.24	78.2941	2,219.24	82.6494	2,219.24	80.4695	2,219.24	81.8346	2,219.24	80.402	2,219.24	79.1878	2,219.24	77.4391	2,219.24	72.779	2,219.24	68.0676
2,296.88	81.4128	2,296.88	82.8925	2,296.88	78.809	2,296.88	82.7185	2,296.88	75.1299	2,296.88	80.1042	2,296.88	73.7099	2,296.88	74.6717	2,296.88	78.3188	2,296.88	75.6094	2,296.88	81.3907	2,296.88	79.6584	2,296.88	82.2443	2,296.88	80.3096	2,296.88	80.9744	2,296.88	78.1526	2,296.88	77.2998	2,296.88	74.4671	2,296.88	75.3425	2,296.88	74.6083	2,296.88	78.9238	2,296.88	75.933	2,296.88	81.1813	2,296.88	74.891	2,296.88	81.8288	2,296.88	75.4808	2,296.88	82.1706	2,296.88	78.7888	2,296.88	82.4474	2,296.88	80.4764	2,296.88	81.8961	2,296.88	79.687	2,296.88	79.896	2,296.88	75.5294	2,296.88	74.948	2,296.88	64.8848
2,378.91	81.9666	2,378.91	83.2109	2,378.91	79.8742	2,378.91	82.8584	2,378.91	76.9223	2,378.91	80.0335	2,378.91	75.6934	2,378.91	72.7887	2,378.91	79.6078	2,378.91	73.8936	2,378.91	82.688	2,378.91	79.5512	2,378.91	83.6743	2,378.91	80.8665	2,378.91	82.104	2,378.91	79.4411	2,378.91	77.4728	2,378.91	76.8857	2,378.91	76.1615	2,378.91	76.7745	2,378.91	80.9898	2,378.91	77.0694	2,378.91	83.3126	2,378.91	75.5308	2,378.91	83.6698	2,378.91	75.7885	2,378.91	83.5403	2,378.91	79.3109	2,378.91	83.4287	2,378.91	81.0824	2,378.91	82.8345	2,378.91	80.3044	2,378.91	81.3375	2,378.91	75.9227	2,378.91	77.466	2,378.91	68.9342
2,462.4	82.6772	2,462.4	84.0254	2,462.4	80.7704	2,462.4	84.1277	2,462.4	78.2354	2,462.4	82.1522	2,462.4	77.5337	2,462.4	76.1383	2,462.4	81.4923	2,462.4	71.0082	2,462.4	84.5226	2,462.4	79.3408	2,462.4	85.1558	2,462.4	81.6425	2,462.4	83.1907	2,462.4	81.1751	2,462.4	78.1856	2,462.4	79.1865	2,462.4	78.7632	2,462.4	77.9539	2,462.4	83.3502	2,462.4	77.9596	2,462.4	85.1293	2,462.4	76.695	2,462.4	85.0592	2,462.4	76.5238	2,462.4	84.4652	2,462.4	80.2021	2,462.4	84.2156	2,462.4	82.2861	2,462.4	83.7966	2,462.4	81.5025	2,462.4	82.476	2,462.4	76.7935	2,462.4	78.752	2,462.4	69.4906
2,548.83	83.184	2,548.83	84.3338	2,548.83	81.7357	2,548.83	84.3681	2,548.83	79.5272	2,548.83	82.336	2,548.83	77.432	2,548.83	76.4704	2,548.83	81.6057	2,548.83	71.4458	2,548.83	85.0596	2,548.83	79.3727	2,548.83	85.8293	2,548.83	81.9869	2,548.83	83.8596	2,548.83	81.6646	2,548.83	78.5118	2,548.83	79.1646	2,548.83	79.5492	2,548.83	77.354	2,548.83	84.2764	2,548.83	78.2899	2,548.83	85.608	2,548.83	77.5726	2,548.83	84.9848	2,548.83	77.0972	2,548.83	83.849	2,548.83	80.6038	2,548.83	83.6722	2,548.83	82.501	2,548.83	83.8085	2,548.83	81.4879	2,548.83	83.1103	2,548.83	76.1307	2,548.83	80.2496	2,548.83	71.8034
2,639.65	84.0203	2,639.65	84.6438	2,639.65	83.4651	2,639.65	84.615	2,639.65	82.1614	2,639.65	82.6715	2,639.65	79.9033	2,639.65	76.8804	2,639.65	82.6685	2,639.65	67.0642	2,639.65	86.1309	2,639.65	79.2564	2,639.65	86.8562	2,639.65	82.6828	2,639.65	84.5636	2,639.65	82.7718	2,639.65	77.6315	2,639.65	80.3479	2,639.65	81.0619	2,639.65	78.723	2,639.65	86.0444	2,639.65	80.1448	2,639.65	87.1771	2,639.65	79.2626	2,639.65	86.1965	2,639.65	77.4097	2,639.65	84.5404	2,639.65	81.0287	2,639.65	84.2099	2,639.65	83.2743	2,639.65	84.7328	2,639.65	82.5014	2,639.65	84.5134	2,639.65	77.6959	2,639.65	82.0424	2,639.65	75.4637
2,731.93	85.0115	2,731.93	85.2347	2,731.93	84.8074	2,731.93	85.2546	2,731.93	83.4702	2,731.93	83.681	2,731.93	81.0617	2,731.93	79.0689	2,731.93	83.7869	2,731.93	64.595	2,731.93	87.0044	2,731.93	78.4045	2,731.93	87.4515	2,731.93	82.897	2,731.93	84.5574	2,731.93	83.3044	2,731.93	77.0033	2,731.93	80.9278	2,731.93	83.37	2,731.93	79.2417	2,731.93	87.6408	2,731.93	81.8768	2,731.93	88.3504	2,731.93	81.7481	2,731.93	86.99	2,731.93	78.6364	2,731.93	85.0644	2,731.93	81.3537	2,731.93	84.8698	2,731.93	84.2116	2,731.93	85.6823	2,731.93	84.076	2,731.93	85.6217	2,731.93	80.5258	2,731.93	82.8244	2,731.93	76.87
2,828.61	85.2442	2,828.61	85.1627	2,828.61	85.2622	2,828.61	85.0171	2,828.61	83.8346	2,828.61	83.453	2,828.61	80.4537	2,828.61	79.2481	2,828.61	82.8238	2,828.61	66.8493	2,828.61	86.5393	2,828.61	77.4057	2,828.61	87.0874	2,828.61	82.2573	2,828.61	84.0447	2,828.61	82.8706	2,828.61	76.7933	2,828.61	80.0025	2,828.61	83.7662	2,828.61	78.7713	2,828.61	87.7448	2,828.61	82.9641	2,828.61	88.1418	2,828.61	83.398	2,828.61	86.403	2,828.61	80.3856	2,828.61	84.2615	2,828.61	81.3794	2,828.61	84.3634	2,828.61	84.0853	2,828.61	85.7201	2,828.61	84.1933	2,828.61	85.6052	2,828.61	81.2496	2,828.61	82.2657	2,828.61	76.4339
2,928.22	85.7298	2,928.22	85.4474	2,928.22	86.16	2,928.22	85.3862	2,928.22	85.061	2,928.22	84.2334	2,928.22	81.8109	2,928.22	80.9258	2,928.22	83.0864	2,928.22	71.6419	2,928.22	86.5295	2,928.22	77.5228	2,928.22	87.0762	2,928.22	82.9224	2,928.22	83.5056	2,928.22	83.5223	2,928.22	74.9419	2,928.22	79.549	2,928.22	84.7109	2,928.22	80.2236	2,928.22	88.4885	2,928.22	84.9338	2,928.22	88.5734	2,928.22	85.1605	2,928.22	86.7375	2,928.22	81.8614	2,928.22	84.9191	2,928.22	81.7765	2,928.22	85.2527	2,928.22	84.5934	2,928.22	86.7409	2,928.22	85.2108	2,928.22	86.6282	2,928.22	82.8578	2,928.22	82.9758	2,928.22	76.8511
3,030.76	86.6532	3,030.76	86.3521	3,030.76	87.1128	3,030.76	86.4486	3,030.76	85.8804	3,030.76	85.4345	3,030.76	82.7165	3,030.76	82.4327	3,030.76	83.6327	3,030.76	75.4726	3,030.76	86.8835	3,030.76	79.396	3,030.76	87.0524	3,030.76	84.1065	3,030.76	82.5673	3,030.76	84.1934	3,030.76	75.0519	3,030.76	79.5649	3,030.76	86.0012	3,030.76	81.9463	3,030.76	88.9634	3,030.76	86.7364	3,030.76	88.6265	3,030.76	86.7392	3,030.76	86.3082	3,030.76	82.7265	3,030.76	84.6141	3,030.76	80.9901	3,030.76	85.5417	3,030.76	84.0842	3,030.76	87.6891	3,030.76	85.4454	3,030.76	87.6612	3,030.76	84.0843	3,030.76	83.0977	3,030.76	77.0941
3,137.7	86.669	3,137.7	86.201	3,137.7	87.3322	3,137.7	86.357	3,137.7	86.231	3,137.7	85.287	3,137.7	82.9687	3,137.7	82.2794	3,137.7	83.7337	3,137.7	77.9867	3,137.7	86.3711	3,137.7	81.2334	3,137.7	85.7854	3,137.7	84.149	3,137.7	79.8359	3,137.7	83.407	3,137.7	75.4739	3,137.7	77.1601	3,137.7	85.7915	3,137.7	82.8132	3,137.7	88.5477	3,137.7	87.8834	3,137.7	87.8206	3,137.7	87.8238	3,137.7	85.4693	3,137.7	83.4671	3,137.7	84.198	3,137.7	79.2616	3,137.7	85.0406	3,137.7	82.8981	3,137.7	87.5746	3,137.7	85.5615	3,137.7	87.7958	3,137.7	84.2623	3,137.7	82.9454	3,137.7	73.288
3,249.02	87.1479	3,249.02	86.3606	3,249.02	88.1027	3,249.02	86.4436	3,249.02	87.1068	3,249.02	85.5545	3,249.02	83.7668	3,249.02	82.2238	3,249.02	84.3503	3,249.02	78.7003	3,249.02	86.3269	3,249.02	82.7696	3,249.02	85.265	3,249.02	84.4726	3,249.02	77.0589	3,249.02	82.699	3,249.02	78.7155	3,249.02	73.1771	3,249.02	86.5714	3,249.02	83.5136	3,249.02	88.3858	3,249.02	88.1848	3,249.02	87.4683	3,249.02	87.612	3,249.02	86.3471	3,249.02	82.8586	3,249.02	85.8753	3,249.02	78.0233	3,249.02	85.4531	3,249.02	83.0706	3,249.02	87.9531	3,249.02	85.987	3,249.02	88.1696	3,249.02	84.6531	3,249.02	83.37	3,249.02	70.8565
3,363.28	87.7806	3,363.28	87.141	3,363.28	88.7334	3,363.28	87.1337	3,363.28	87.471	3,363.28	86.0173	3,363.28	84.4782	3,363.28	82.5651	3,363.28	85.2086	3,363.28	80.5272	3,363.28	86.8425	3,363.28	84.5777	3,363.28	84.735	3,363.28	85.364	3,363.28	73.3979	3,363.28	81.4222	3,363.28	80.3424	3,363.28	67.0802	3,363.28	87.3551	3,363.28	85.12	3,363.28	88.7125	3,363.28	88.8562	3,363.28	87.8006	3,363.28	87.8438	3,363.28	87.8618	3,363.28	83.177	3,363.28	87.8522	3,363.28	79.424	3,363.28	86.7955	3,363.28	83.3207	3,363.28	88.3604	3,363.28	86.7141	3,363.28	88.593	3,363.28	85.3344	3,363.28	83.6303	3,363.28	69.636
3,481.93	87.4628	3,481.93	87.2487	3,481.93	88.2117	3,481.93	87.3531	3,481.93	86.6483	3,481.93	85.4265	3,481.93	82.9026	3,481.93	80.6468	3,481.93	85.3446	3,481.93	82.3317	3,481.93	86.5953	3,481.93	86.1213	3,481.93	82.1787	3,481.93	85.1068	3,481.93	63.9771	3,481.93	76.7077	3,481.93	83.8295	3,481.93	77.8991	3,481.93	87.2633	3,481.93	86.4961	3,481.93	87.5719	3,481.93	88.7448	3,481.93	87.0355	3,481.93	87.101	3,481.93	88.464	3,481.93	82.4919	3,481.93	88.7151	3,481.93	79.8119	3,481.93	86.7597	3,481.93	84.4928	3,481.93	87.4653	3,481.93	86.8062	3,481.93	87.8022	3,481.93	83.9615	3,481.93	83.548	3,481.93	62.158
3,604.98	86.6174	3,604.98	85.5374	3,604.98	88.9717	3,604.98	86.4947	3,604.98	88.0294	3,604.98	85.625	3,604.98	82.9775	3,604.98	79.482	3,604.98	85.0721	3,604.98	83.1362	3,604.98	86.6259	3,604.98	87.8919	3,604.98	82.515	3,604.98	86.2038	3,604.98	75.9433	3,604.98	73.2749	3,604.98	85.5081	3,604.98	82.5959	3,604.98	87.9765	3,604.98	88.2345	3,604.98	87.3994	3,604.98	89.295	3,604.98	87.088	3,604.98	86.6257	3,604.98	89.2063	3,604.98	83.8503	3,604.98	89.5968	3,604.98	81.506	3,604.98	87.4736	3,604.98	85.3443	3,604.98	87.214	3,604.98	87.7539	3,604.98	87.0985	3,604.98	83.8676	3,604.98	83.1522	3,604.98	65.681
3,732.42	86.3624	3,732.42	84.9024	3,732.42	88.9723	3,732.42	86.3722	3,732.42	88.0499	3,732.42	86.2258	3,732.42	82.6296	3,732.42	80.3559	3,732.42	84.8677	3,732.42	83.4749	3,732.42	86.7871	3,732.42	88.5673	3,732.42	83.2744	3,732.42	86.7805	3,732.42	77.8838	3,732.42	68.0138	3,732.42	86.3025	3,732.42	84.6876	3,732.42	88.3564	3,732.42	89.2988	3,732.42	87.6333	3,732.42	89.4541	3,732.42	88.0183	3,732.42	86.9411	3,732.42	90.3121	3,732.42	86.342	3,732.42	90.0038	3,732.42	83.9651	3,732.42	87.5936	3,732.42	85.2232	3,732.42	86.9294	3,732.42	87.6719	3,732.42	86.3605	3,732.42	84.2276	3,732.42	81.8751	3,732.42	68.4074
3,864.26	84.522	3,864.26	82.5472	3,864.26	88.3136	3,864.26	84.9299	3,864.26	87.5644	3,864.26	85.0918	3,864.26	80.9368	3,864.26	78.4411	3,864.26	83.9896	3,864.26	83.7019	3,864.26	86.6192	3,864.26	88.3875	3,864.26	83.3567	3,864.26	85.5818	3,864.26	78.8061	3,864.26	69.5614	3,864.26	86.3324	3,864.26	86.756	3,864.26	88.3457	3,864.26	89.3525	3,864.26	87.2987	3,864.26	88.5212	3,864.26	88.3476	3,864.26	86.1406	3,864.26	90.9564	3,864.26	87.8288	3,864.26	90.3041	3,864.26	84.9127	3,864.26	86.9058	3,864.26	84.8275	3,864.26	86.4265	3,864.26	87.1215	3,864.26	85.7113	3,864.26	83.8361	3,864.26	81.5146	3,864.26	67.9246
4,000.49	83.7213	4,000.49	80.4144	4,000.49	88.5857	4,000.49	84.1372	4,000.49	87.557	4,000.49	85.2788	4,000.49	80.6779	4,000.49	78.516	4,000.49	84.0572	4,000.49	84.2091	4,000.49	87.0276	4,000.49	88.6487	4,000.49	84.2072	4,000.49	85.1887	4,000.49	78.6381	4,000.49	74.1009	4,000.49	86.6791	4,000.49	87.4048	4,000.49	88.47	4,000.49	89.4094	4,000.49	87.173	4,000.49	87.6852	4,000.49	89.2166	4,000.49	86.3673	4,000.49	92.3441	4,000.49	89.38	4,000.49	91.0929	4,000.49	86.8768	4,000.49	86.7384	4,000.49	84.7773	4,000.49	86.2354	4,000.49	88.3202	4,000.49	86.9825	4,000.49	85.7686	4,000.49	83.0725	4,000.49	72.2038
4,141.11	83.2678	4,141.11	78.1418	4,141.11	88.7779	4,141.11	84.1015	4,141.11	88.1212	4,141.11	85.7223	4,141.11	79.4579	4,141.11	78.8785	4,141.11	84.3408	4,141.11	85.0438	4,141.11	87.9032	4,141.11	88.5448	4,141.11	85.4231	4,141.11	83.4613	4,141.11	79.2859	4,141.11	78.3244	4,141.11	88.0871	4,141.11	87.6775	4,141.11	88.8787	4,141.11	88.5488	4,141.11	86.0924	4,141.11	86.0072	4,141.11	88.9679	4,141.11	86.6424	4,141.11	92.8511	4,141.11	90.6173	4,141.11	91.8342	4,141.11	87.2636	4,141.11	85.7009	4,141.11	83.0855	4,141.11	86.1507	4,141.11	88.6899	4,141.11	88.4705	4,141.11	87.3568	4,141.11	86.0167	4,141.11	74.9297
4,287.6	81.0291	4,287.6	76.5995	4,287.6	88.0088	4,287.6	82.8575	4,287.6	87.3067	4,287.6	85.0796	4,287.6	76.4683	4,287.6	76.9979	4,287.6	83.8025	4,287.6	85.3584	4,287.6	88.2652	4,287.6	87.4429	4,287.6	86.5735	4,287.6	81.5206	4,287.6	78.2163	4,287.6	80.3474	4,287.6	88.4222	4,287.6	87.7662	4,287.6	88.2139	4,287.6	86.2247	4,287.6	82.7683	4,287.6	81.8771	4,287.6	87.53	4,287.6	85.1028	4,287.6	93.0209	4,287.6	90.7081	4,287.6	91.5888	4,287.6	88.2233	4,287.6	82.1784	4,287.6	77.006	4,287.6	82.9284	4,287.6	86.2848	4,287.6	88.0628	4,287.6	88.1179	4,287.6	86.5147	4,287.6	75.4298
4,438.48	76.6922	4,438.48	72.5637	4,438.48	86.3424	4,438.48	81.2952	4,438.48	85.652	4,438.48	83.1551	4,438.48	75.97	4,438.48	68.0326	4,438.48	79.718	4,438.48	83.5816	4,438.48	88.5484	4,438.48	84.9832	4,438.48	87.982	4,438.48	80.4405	4,438.48	72.2736	4,438.48	78.4539	4,438.48	89.9339	4,438.48	87.2085	4,438.48	88.8731	4,438.48	85.8555	4,438.48	76.4185	4,438.48	75.7924	4,438.48	86.4015	4,438.48	83.5739	4,438.48	91.7764	4,438.48	89.686	4,438.48	89.8515	4,438.48	87.7666	4,438.48	79.3034	4,438.48	75.2425	4,438.48	77.1606	4,438.48	83.5655	4,438.48	88.8676	4,438.48	86.4828	4,438.48	88.138	4,438.48	67.5283
4,595.21	73.0266	4,595.21	71.7743	4,595.21	83.623	4,595.21	77.9612	4,595.21	83.6417	4,595.21	79.7039	4,595.21	78.7531	4,595.21	69.3593	4,595.21	77.294	4,595.21	77.3855	4,595.21	88.7321	4,595.21	81.1953	4,595.21	87.9081	4,595.21	81.6393	4,595.21	75.8006	4,595.21	71.9039	4,595.21	89.8318	4,595.21	86.508	4,595.21	86.6026	4,595.21	83.8898	4,595.21	74.4121	4,595.21	41.62	4,595.21	86.5208	4,595.21	83.2564	4,595.21	90.1633	4,595.21	89.3171	4,595.21	86.175	4,595.21	85.8389	4,595.21	84.0968	4,595.21	73.316	4,595.21	78.9436	4,595.21	82.6824	4,595.21	88.4056	4,595.21	87.9716	4,595.21	88.2988	4,595.21	69.3225
4,756.35	72.2164	4,756.35	73.351	4,756.35	81.7577	4,756.35	66.0962	4,756.35	82.3268	4,756.35	77.0884	4,756.35	82.5638	4,756.35	79.5514	4,756.35	80.1211	4,756.35	58.8131	4,756.35	88.916	4,756.35	82.5855	4,756.35	87.3205	4,756.35	80.9734	4,756.35	81.2353	4,756.35	79.1355	4,756.35	88.684	4,756.35	87.1875	4,756.35	82.4856	4,756.35	80.5255	4,756.35	83.3844	4,756.35	79.2979	4,756.35	86.8142	4,756.35	84.28	4,756.35	86.1343	4,756.35	87.2365	4,756.35	79.5858	4,756.35	81.3847	4,756.35	86.3488	4,756.35	72.5989	4,756.35	83.5827	4,756.35	82.8191	4,756.35	86.0384	4,756.35	85.48	4,756.35	87.1755	4,756.35	70.6764
4,924.8	74.8614	4,924.8	77.2385	4,924.8	79.3957	4,924.8	73.3757	4,924.8	83.4518	4,924.8	81.5254	4,924.8	84.4159	4,924.8	82.1667	4,924.8	82.7304	4,924.8	77.6468	4,924.8	89.2997	4,924.8	84.2445	4,924.8	86.1537	4,924.8	78.781	4,924.8	84.5527	4,924.8	83.5613	4,924.8	87.3289	4,924.8	86.2486	4,924.8	68.8453	4,924.8	66.2677	4,924.8	86.5704	4,924.8	83.6625	4,924.8	84.7541	4,924.8	82.6453	4,924.8	77.8262	4,924.8	81.5441	4,924.8	75.4466	4,924.8	76.8637	4,924.8	86.2593	4,924.8	79.5833	4,924.8	82.8507	4,924.8	82.035	4,924.8	83.2852	4,924.8	85.7016	4,924.8	85.7353	4,924.8	75.2162
5,097.66	79.631	5,097.66	79.7566	5,097.66	79.4248	5,097.66	76.7501	5,097.66	83.723	5,097.66	82.8253	5,097.66	85.5472	5,097.66	82.75	5,097.66	83.4421	5,097.66	78.7697	5,097.66	87.702	5,097.66	83.8096	5,097.66	81.7671	5,097.66	66.332	5,097.66	84.7538	5,097.66	83.2189	5,097.66	83.1484	5,097.66	82.7919	5,097.66	78.2538	5,097.66	76.5645	5,097.66	85.6191	5,097.66	85.1253	5,097.66	75.9279	5,097.66	77.2354	5,097.66	78.1697	5,097.66	62.8571	5,097.66	82.2461	5,097.66	83.0948	5,097.66	84.4319	5,097.66	83.0528	5,097.66	79.1193	5,097.66	80.1968	5,097.66	79.7018	5,097.66	85.1107	5,097.66	83.1593	5,097.66	78.5288
5,277.83	81.1055	5,277.83	81.8978	5,277.83	79.7796	5,277.83	76.9857	5,277.83	83.7577	5,277.83	81.9899	5,277.83	85.1658	5,277.83	81.6629	5,277.83	83.193	5,277.83	79.2611	5,277.83	86.21	5,277.83	83.2041	5,277.83	76.2091	5,277.83	66.1739	5,277.83	82.704	5,277.83	83.3866	5,277.83	78.9304	5,277.83	76.5715	5,277.83	81.1927	5,277.83	81.0506	5,277.83	83.2601	5,277.83	84.6071	5,277.83	67.4216	5,277.83	72.3435	5,277.83	81.3659	5,277.83	77.6603	5,277.83	81.1149	5,277.83	84.3515	5,277.83	80.6511	5,277.83	83.8243	5,277.83	77.0301	5,277.83	77.9859	5,277.83	78.0208	5,277.83	85.548	5,277.83	82.8453	5,277.83	77.2103
5,463.87	80.78	5,463.87	82.1287	5,463.87	80.1873	5,463.87	78.2803	5,463.87	83.4739	5,463.87	80.7254	5,463.87	84.4261	5,463.87	79.4025	5,463.87	82.4399	5,463.87	77.3401	5,463.87	83.7308	5,463.87	80.2779	5,463.87	69.3378	5,463.87	72.6206	5,463.87	79.8491	5,463.87	80.3994	5,463.87	72.2659	5,463.87	70.3171	5,463.87	80.2855	5,463.87	80.9759	5,463.87	76.8429	5,463.87	79.4958	5,463.87	78.8457	5,463.87	77.0928	5,463.87	82.4365	5,463.87	81.7249	5,463.87	77.0714	5,463.87	82.7623	5,463.87	74.7548	5,463.87	82.3292	5,463.87	80.0315	5,463.87	74.7892	5,463.87	78.4044	5,463.87	83.7123	5,463.87	81.5298	5,463.87	73.7872
5,657.23	80.2421	5,657.23	81.5899	5,657.23	80.2566	5,657.23	77.8005	5,657.23	83.3391	5,657.23	78.2612	5,657.23	83.6956	5,657.23	76.192	5,657.23	80.2063	5,657.23	74.8345	5,657.23	80.9062	5,657.23	75.8965	5,657.23	38.9729	5,657.23	74.1142	5,657.23	77.0089	5,657.23	76.4087	5,657.23	72.9172	5,657.23	74.0095	5,657.23	79.3211	5,657.23	79.9313	5,657.23	75.3674	5,657.23	76.3988	5,657.23	80.8522	5,657.23	80.7985	5,657.23	81.2448	5,657.23	82.6291	5,657.23	76.7764	5,657.23	80.3079	5,657.23	80.0119	5,657.23	79.547	5,657.23	82.0718	5,657.23	72.8436	5,657.23	77.4481	5,657.23	79.9535	5,657.23	80.6084	5,657.23	71.6367
5,856.45	80.1138	5,856.45	80.3031	5,856.45	80.9077	5,856.45	76.5725	5,856.45	82.5819	5,856.45	75.9985	5,856.45	81.851	5,856.45	72.085	5,856.45	78.0065	5,856.45	74.9599	5,856.45	79.2953	5,856.45	74.8244	5,856.45	55.9943	5,856.45	72.4708	5,856.45	75.9301	5,856.45	73.1857	5,856.45	72.2936	5,856.45	76.7142	5,856.45	78.208	5,856.45	79.3867	5,856.45	77.9985	5,856.45	78.3918	5,856.45	81.3797	5,856.45	81.3838	5,856.45	80.589	5,856.45	81.674	5,856.45	79.7522	5,856.45	80.4013	5,856.45	81.7401	5,856.45	79.5399	5,856.45	81.3252	5,856.45	72.7228	5,856.45	78.0048	5,856.45	72.2476	5,856.45	78.6863	5,856.45	71.5097
6,062.99	80.6092	6,062.99	78.6269	6,062.99	81.43	6,062.99	75.1279	6,062.99	80.8823	6,062.99	69.9071	6,062.99	80.4131	6,062.99	68.1482	6,062.99	75.7667	6,062.99	72.8821	6,062.99	76.7873	6,062.99	74.838	6,062.99	66.3369	6,062.99	65.0409	6,062.99	73.9387	6,062.99	75.246	6,062.99	71.31	6,062.99	75.4183	6,062.99	78.7025	6,062.99	78.7108	6,062.99	78.3184	6,062.99	79.069	6,062.99	81.8287	6,062.99	80.3169	6,062.99	80.9767	6,062.99	81.1841	6,062.99	80.7961	6,062.99	81.3315	6,062.99	82.3129	6,062.99	80.0343	6,062.99	79.7386	6,062.99	76.4924	6,062.99	77.5666	6,062.99	74.0355	6,062.99	73.8668	6,062.99	68.9972
6,276.86	80.042	6,276.86	77.29	6,276.86	80.302	6,276.86	75.659	6,276.86	78.0582	6,276.86	60.3033	6,276.86	78.6248	6,276.86	71.0971	6,276.86	76.1634	6,276.86	60.1632	6,276.86	75.3392	6,276.86	74.5993	6,276.86	72.7938	6,276.86	69.539	6,276.86	71.4297	6,276.86	76.6806	6,276.86	72.1137	6,276.86	73.1372	6,276.86	78.2858	6,276.86	80.3767	6,276.86	78.7175	6,276.86	78.7254	6,276.86	82.424	6,276.86	81.4141	6,276.86	82.0228	6,276.86	81.7374	6,276.86	82.2715	6,276.86	82.028	6,276.86	83.2318	6,276.86	78.543	6,276.86	78.4494	6,276.86	78.8897	6,276.86	77.2601	6,276.86	74.0438	6,276.86	70.4122	6,276.86	67.4511
6,498.05	78.5393	6,498.05	77.1711	6,498.05	76.1371	6,498.05	74.0432	6,498.05	75.6373	6,498.05	62.6145	6,498.05	76.1273	6,498.05	71.0795	6,498.05	76.4883	6,498.05	70.5126	6,498.05	71.5157	6,498.05	72.2269	6,498.05	74.9049	6,498.05	75.9831	6,498.05	68.5703	6,498.05	74.3276	6,498.05	75.3286	6,498.05	76.1969	6,498.05	78.7284	6,498.05	79.8895	6,498.05	78.8118	6,498.05	78.441	6,498.05	81.9547	6,498.05	82.4471	6,498.05	81.282	6,498.05	79.2667	6,498.05	80.8024	6,498.05	80.9509	6,498.05	82.1495	6,498.05	79.9605	6,498.05	76.2222	6,498.05	79.6666	6,498.05	74.9144	6,498.05	70.591	6,498.05	72.0816	6,498.05	64.5054
6,726.56	77.1198	6,726.56	76.4914	6,726.56	71.3413	6,726.56	72.2604	6,726.56	75.9873	6,726.56	70.4745	6,726.56	72.3816	6,726.56	68.1495	6,726.56	76.7964	6,726.56	73.7267	6,726.56	65.8529	6,726.56	67.2341	6,726.56	75.5176	6,726.56	76.9157	6,726.56	71.9142	6,726.56	69.4257	6,726.56	77.4522	6,726.56	78.3745	6,726.56	79.6932	6,726.56	77.3619	6,726.56	80.5676	6,726.56	80.8637	6,726.56	82.7493	6,726.56	81.5685	6,726.56	80.8947	6,726.56	77.4598	6,726.56	80.3884	6,726.56	81.6242	6,726.56	82.37	6,726.56	81.3508	6,726.56	78.521	6,726.56	79.0346	6,726.56	75.7468	6,726.56	75.3276	6,726.56	76.4147	6,726.56	60.778
6,963.87	75.0476	6,963.87	75.2636	6,963.87	67.1024	6,963.87	72.6178	6,963.87	74.8252	6,963.87	74.7825	6,963.87	70.0533	6,963.87	69.234	6,963.87	75.0885	6,963.87	75.0651	6,963.87	62.2886	6,963.87	56.1781	6,963.87	75.0561	6,963.87	75.7786	6,963.87	70.7621	6,963.87	67.9333	6,963.87	77.4161	6,963.87	77.7267	6,963.87	79.0035	6,963.87	77.4763	6,963.87	81.2196	6,963.87	82.1428	6,963.87	82.8633	6,963.87	81.2025	6,963.87	82.2784	6,963.87	81.2281	6,963.87	81.9946	6,963.87	80.831	6,963.87	81.2118	6,963.87	81.6936	6,963.87	82.3175	6,963.87	74.7878	6,963.87	74.5913	6,963.87	76.9145	6,963.87	77.6839	6,963.87	66.6122
7,209.96	74.2047	7,209.96	73.9629	7,209.96	71.6085	7,209.96	73.7173	7,209.96	74.1104	7,209.96	77.1084	7,209.96	68.3923	7,209.96	63.5227	7,209.96	72.0736	7,209.96	73.0657	7,209.96	64.1719	7,209.96	68.1176	7,209.96	71.5473	7,209.96	73.0237	7,209.96	72.1445	7,209.96	70.3172	7,209.96	75.2335	7,209.96	76.4071	7,209.96	77.9878	7,209.96	78.6312	7,209.96	80.4271	7,209.96	82.0933	7,209.96	82.8115	7,209.96	81.1026	7,209.96	83.2541	7,209.96	81.995	7,209.96	83.4242	7,209.96	79.9714	7,209.96	78.3334	7,209.96	82.0753	7,209.96	83.3588	7,209.96	72.9506	7,209.96	74.2249	7,209.96	78.275	7,209.96	79.0726	7,209.96	69.9479
7,464.84	74.0253	7,464.84	76.2246	7,464.84	72.9491	7,464.84	75.6801	7,464.84	73.2247	7,464.84	78.199	7,464.84	65.8503	7,464.84	58.6927	7,464.84	68.6322	7,464.84	70.5776	7,464.84	71.6717	7,464.84	72.3909	7,464.84	71.845	7,464.84	71.4484	7,464.84	71.5748	7,464.84	68.7748	7,464.84	75.6509	7,464.84	77.6049	7,464.84	76.3698	7,464.84	78.9228	7,464.84	81.393	7,464.84	83.4773	7,464.84	82.4453	7,464.84	81.7437	7,464.84	84.7116	7,464.84	83.3454	7,464.84	84.723	7,464.84	80.9695	7,464.84	74.6523	7,464.84	81.7651	7,464.84	84.0015	7,464.84	74.1382	7,464.84	75.6271	7,464.84	79.123	7,464.84	78.9368	7,464.84	71.5718
7,727.05	74.7903	7,727.05	77.6182	7,727.05	72.8186	7,727.05	77.2349	7,727.05	68.653	7,727.05	78.4353	7,727.05	71.2927	7,727.05	71.5155	7,727.05	71.7085	7,727.05	69.9284	7,727.05	73.0656	7,727.05	73.1184	7,727.05	72.6201	7,727.05	73.3662	7,727.05	63.0024	7,727.05	67.9655	7,727.05	76.5021	7,727.05	78.4889	7,727.05	72.9888	7,727.05	78.6206	7,727.05	81.9311	7,727.05	84.0338	7,727.05	80.5327	7,727.05	82.3709	7,727.05	85.8878	7,727.05	84.276	7,727.05	85.299	7,727.05	79.4922	7,727.05	75.1559	7,727.05	81.4041	7,727.05	84.8616	7,727.05	77.0331	7,727.05	74.6521	7,727.05	81.0961	7,727.05	80.9586	7,727.05	71.7271
7,999.51	76.498	7,999.51	78.7925	7,999.51	74.1151	7,999.51	78.7148	7,999.51	72.3505	7,999.51	77.0774	7,999.51	75.5899	7,999.51	74.944	7,999.51	72.0748	7,999.51	73.2543	7,999.51	69.5556	7,999.51	73.5405	7,999.51	69.0263	7,999.51	71.2307	7,999.51	57.041	7,999.51	70.6853	7,999.51	75.2193	7,999.51	77.5015	7,999.51	74.1064	7,999.51	78.0004	7,999.51	81.7977	7,999.51	84.1204	7,999.51	79.1732	7,999.51	83.2182	7,999.51	86.5725	7,999.51	85.0183	7,999.51	86.2807	7,999.51	79.3856	7,999.51	78.7321	7,999.51	81.7536	7,999.51	84.1274	7,999.51	78.4244	7,999.51	73.1111	7,999.51	80.8705	7,999.51	80.7707	7,999.51	70.0093
8,282.23	78.1534	8,282.23	79.9222	8,282.23	77.0516	8,282.23	78.4542	8,282.23	77.2429	8,282.23	77.8092	8,282.23	77.3942	8,282.23	77.1016	8,282.23	68.4068	8,282.23	77.0257	8,282.23	61.6361	8,282.23	71.8947	8,282.23	67.7097	8,282.23	73.0971	8,282.23	54.1214	8,282.23	69.6462	8,282.23	76.2807	8,282.23	76.6375	8,282.23	73.3093	8,282.23	77.3191	8,282.23	82.2693	8,282.23	83.4462	8,282.23	79.0585	8,282.23	83.813	8,282.23	86.9714	8,282.23	85.6398	8,282.23	87.1408	8,282.23	81.3996	8,282.23	82.32	8,282.23	82.9086	8,282.23	83.3807	8,282.23	79.5882	8,282.23	74.6711	8,282.23	81.5071	8,282.23	79.92	8,282.23	68.7092
8,573.73	79.5778	8,573.73	79.8741	8,573.73	79.954	8,573.73	75.9345	8,573.73	79.443	8,573.73	78.8744	8,573.73	77.742	8,573.73	77.7336	8,573.73	69.4988	8,573.73	79.3336	8,573.73	60.9339	8,573.73	66.7794	8,573.73	70.8736	8,573.73	73.9903	8,573.73	68.907	8,573.73	71.1557	8,573.73	77.2818	8,573.73	74.9934	8,573.73	74.7526	8,573.73	79.3275	8,573.73	82.2384	8,573.73	82.2824	8,573.73	81.7716	8,573.73	85.0226	8,573.73	87.2707	8,573.73	85.9521	8,573.73	87.7719	8,573.73	83.8069	8,573.73	84.3045	8,573.73	82.8002	8,573.73	82.068	8,573.73	80.6845	8,573.73	77.7698	8,573.73	80.9695	8,573.73	77.2585	8,573.73	67.5631
8,876.95	79.617	8,876.95	78.6663	8,876.95	81.491	8,876.95	74.4492	8,876.95	80.3579	8,876.95	78.371	8,876.95	78.9537	8,876.95	79.9844	8,876.95	74.7967	8,876.95	80.4336	8,876.95	70.1558	8,876.95	74.9048	8,876.95	74.2123	8,876.95	70.8431	8,876.95	78.3063	8,876.95	74.7867	8,876.95	78.3345	8,876.95	70.6598	8,876.95	79.0175	8,876.95	80.303	8,876.95	80.8083	8,876.95	81.4862	8,876.95	84.3489	8,876.95	85.7035	8,876.95	87.5301	8,876.95	86.852	8,876.95	88.7828	8,876.95	86.8937	8,876.95	86.4757	8,876.95	83.2202	8,876.95	81.8956	8,876.95	82.4929	8,876.95	80.5804	8,876.95	79.4807	8,876.95	72.8784	8,876.95	67.306
9,188.96	78.2536	9,188.96	76.8907	9,188.96	81.2124	9,188.96	75.1733	9,188.96	79.7514	9,188.96	77.2027	9,188.96	80.5624	9,188.96	83.3405	9,188.96	78.4115	9,188.96	80.0145	9,188.96	78.6607	9,188.96	79.4091	9,188.96	79.9789	9,188.96	57.5782	9,188.96	84.3623	9,188.96	71.9607	9,188.96	72.0628	9,188.96	78.779	9,188.96	83.1585	9,188.96	79.5443	9,188.96	76.1596	9,188.96	83.7986	9,188.96	85.956	9,188.96	86.785	9,188.96	89.0866	9,188.96	89.0712	9,188.96	90.0462	9,188.96	88.6464	9,188.96	89.2351	9,188.96	84.939	9,188.96	83.2046	9,188.96	83.562	9,188.96	81.3071	9,188.96	78.1401	9,188.96	72.2122	9,188.96	65.4907
9,514.16	74.6253	9,514.16	68.8025	9,514.16	78.8364	9,514.16	76.4146	9,514.16	80.4135	9,514.16	78.6965	9,514.16	82.0511	9,514.16	84.711	9,514.16	81.0731	9,514.16	80.0285	9,514.16	82.0492	9,514.16	80.5349	9,514.16	84.0171	9,514.16	64.0992	9,514.16	84.5459	9,514.16	75.2571	9,514.16	77.5822	9,514.16	79.5313	9,514.16	82.7168	9,514.16	81.3205	9,514.16	81.0667	9,514.16	84.0737	9,514.16	85.1911	9,514.16	88.6215	9,514.16	90.9863	9,514.16	89.8448	9,514.16	89.6094	9,514.16	90.7654	9,514.16	92.294	9,514.16	87.7198	9,514.16	83.5491	9,514.16	81.9333	9,514.16	81.3358	9,514.16	75.825	9,514.16	67.1799	9,514.16	66.5503
9,849.61	72.1824	9,849.61	65.4131	9,849.61	75.7311	9,849.61	75.2511	9,849.61	83.035	9,849.61	79.9644	9,849.61	84.2284	9,849.61	83.2056	9,849.61	82.1967	9,849.61	81.1996	9,849.61	81.2524	9,849.61	82.8242	9,849.61	84.3028	9,849.61	71.6819	9,849.61	79.7018	9,849.61	77.9096	9,849.61	82.0142	9,849.61	78.3241	9,849.61	76.7664	9,849.61	80.0184	9,849.61	82.5339	9,849.61	81.9894	9,849.61	86.0936	9,849.61	88.9179	9,849.61	91.5365	9,849.61	88.9396	9,849.61	88.5577	9,849.61	91.9277	9,849.61	93.4941	9,849.61	88.6795	9,849.61	83.0566	9,849.61	80.8014	9,849.61	80.8166	9,849.61	72.2454	9,849.61	61.808	9,849.61	67.0866
10,196.8	72.3714	10,196.8	73.0212	10,196.8	76.0615	10,196.8	64.9314	10,196.8	85.2664	10,196.8	76.5473	10,196.8	84.7969	10,196.8	80.0805	10,196.8	81.9388	10,196.8	82.8997	10,196.8	76.4809	10,196.8	80.7273	10,196.8	80.9313	10,196.8	76.774	10,196.8	78.2533	10,196.8	71.7753	10,196.8	80.9316	10,196.8	80.3887	10,196.8	63.5485	10,196.8	79.9764	10,196.8	80.8461	10,196.8	76.8836	10,196.8	86.2621	10,196.8	88.4097	10,196.8	90.3285	10,196.8	86.4805	10,196.8	85.7997	10,196.8	91.6266	10,196.8	93.7366	10,196.8	87.7374	10,196.8	81.4131	10,196.8	78.5422	10,196.8	80.807	10,196.8	69.0993	10,196.8	67.7944	10,196.8	68.725
10,555.7	74.79	10,555.7	63.379	10,555.7	79.9556	10,555.7	75.0872	10,555.7	85.0314	10,555.7	77.3692	10,555.7	83.8856	10,555.7	76.9568	10,555.7	79.8516	10,555.7	81.9965	10,555.7	70.0318	10,555.7	77.1447	10,555.7	75.0173	10,555.7	71.8155	10,555.7	79.8579	10,555.7	71.6816	10,555.7	74.6661	10,555.7	73.6124	10,555.7	58.7297	10,555.7	80.717	10,555.7	73.2764	10,555.7	59.1152	10,555.7	84.9222	10,555.7	86.9714	10,555.7	86.8756	10,555.7	83.5011	10,555.7	80.364	10,555.7	90.3574	10,555.7	92.7497	10,555.7	86.6691	10,555.7	80.0815	10,555.7	78.9979	10,555.7	80.2802	10,555.7	69.3209	10,555.7	73.4699	10,555.7	69.6144
10,927.7	78.3095	10,927.7	75.1927	10,927.7	82.5012	10,927.7	79.6663	10,927.7	82.8686	10,927.7	78.6131	10,927.7	82.1786	10,927.7	76.4334	10,927.7	74.8836	10,927.7	79.6638	10,927.7	58.0656	10,927.7	79.6659	10,927.7	65.9342	10,927.7	64.9033	10,927.7	74.9863	10,927.7	71.4364	10,927.7	54.988	10,927.7	68.8885	10,927.7	67.0344	10,927.7	77.614	10,927.7	65.8486	10,927.7	73.6047	10,927.7	83.5132	10,927.7	83.1552	10,927.7	81.3065	10,927.7	80.768	10,927.7	75.9256	10,927.7	88.9267	10,927.7	91.0027	10,927.7	85.6392	10,927.7	79.6864	10,927.7	77.9618	10,927.7	79.9476	10,927.7	73.7198	10,927.7	75.6292	10,927.7	72.383
11,313	81.2166	11,313	81.5861	11,313	82.8391	11,313	81.5857	11,313	79.4475	11,313	75.8311	11,313	80.0549	11,313	77.432	11,313	71.835	11,313	78.1353	11,313	67.5519	11,313	80.0505	11,313	70.9982	11,313	61.9852	11,313	68.8226	11,313	70.7691	11,313	55.0091	11,313	72.9244	11,313	71.5796	11,313	70.8311	11,313	68.0808	11,313	73.2285	11,313	81.8611	11,313	78.9708	11,313	75.4423	11,313	73.1024	11,313	79.6904	11,313	88.4485	11,313	89.8046	11,313	84.112	11,313	80.2022	11,313	80.152	11,313	79.3088	11,313	74.7155	11,313	73.9167	11,313	73.99
11,712.9	82.1806	11,712.9	83.2443	11,712.9	80.2464	11,712.9	81.3945	11,712.9	76.2758	11,712.9	72.3654	11,712.9	78.708	11,712.9	78.6423	11,712.9	76.8208	11,712.9	77.6495	11,712.9	74.868	11,712.9	76.3197	11,712.9	77.1044	11,712.9	71.9545	11,712.9	63.2954	11,712.9	73.9237	11,712.9	70.2567	11,712.9	72.5216	11,712.9	72.2703	11,712.9	65.1031	11,712.9	74.0663	11,712.9	77.4034	11,712.9	81.6226	11,712.9	76.225	11,712.9	68.22	11,712.9	71.7045	11,712.9	82.3162	11,712.9	88.214	11,712.9	88.6777	11,712.9	82.3022	11,712.9	81.2421	11,712.9	83.6537	11,712.9	78.5586	11,712.9	76.7191	11,712.9	74.7627	11,712.9	74.722
12,126	81.8106	12,126	82.3126	12,126	76.482	12,126	80.8369	12,126	77.9461	12,126	77.0794	12,126	78.3681	12,126	77.3538	12,126	80.0743	12,126	76.0314	12,126	75.4185	12,126	73.17	12,126	75.8628	12,126	76.9198	12,126	68.234	12,126	71.089	12,126	71.1045	12,126	72.9126	12,126	68.7363	12,126	75.0351	12,126	79.6069	12,126	80.5948	12,126	79.5662	12,126	77.5872	12,126	73.9168	12,126	80.5995	12,126	85.0052	12,126	87.5671	12,126	87.0647	12,126	82.0621	12,126	82.5754	12,126	86.6007	12,126	78.7014	12,126	79.2699	12,126	75.6865	12,126	78.7341
12,553.7	79.7515	12,553.7	80.7944	12,553.7	76.0436	12,553.7	80.5356	12,553.7	80.1942	12,553.7	80.9643	12,553.7	77.6383	12,553.7	74.5998	12,553.7	80.7845	12,553.7	73.9667	12,553.7	75.1316	12,553.7	73.5887	12,553.7	72.5802	12,553.7	75.3887	12,553.7	73.0368	12,553.7	72.4972	12,553.7	74.8941	12,553.7	75.1502	12,553.7	73.0944	12,553.7	80.0499	12,553.7	80.6464	12,553.7	78.2905	12,553.7	78.459	12,553.7	80.3877	12,553.7	76.3241	12,553.7	83.6329	12,553.7	84.6588	12,553.7	85.7265	12,553.7	85.855	12,553.7	81.7445	12,553.7	84.1334	12,553.7	88.44	12,553.7	80.1232	12,553.7	82.077	12,553.7	78.4811	12,553.7	80.2052
12,996.1	78.0908	12,996.1	81.4953	12,996.1	79.0516	12,996.1	81.7838	12,996.1	80.5092	12,996.1	81.4932	12,996.1	78.6261	12,996.1	69.6215	12,996.1	80.0873	12,996.1	74.0426	12,996.1	75.5989	12,996.1	76.17	12,996.1	65.6566	12,996.1	71.0286	12,996.1	75.9449	12,996.1	69.8192	12,996.1	72.9596	12,996.1	81.0395	12,996.1	80.1361	12,996.1	79.5354	12,996.1	78.0121	12,996.1	73.3286	12,996.1	77.1905	12,996.1	78.6591	12,996.1	82.2111	12,996.1	83.0668	12,996.1	81.4192	12,996.1	84.4303	12,996.1	84.7355	12,996.1	81.6307	12,996.1	85.236	12,996.1	89.2553	12,996.1	77.5664	12,996.1	82.8921	12,996.1	80.8243	12,996.1	80.9333
13,454.6	82.8999	13,454.6	83.7402	13,454.6	83.5115	13,454.6	83.1404	13,454.6	80.5165	13,454.6	79.6209	13,454.6	78.9898	13,454.6	67.629	13,454.6	79.7893	13,454.6	77.1465	13,454.6	77.6002	13,454.6	72.5255	13,454.6	74.8752	13,454.6	68.4407	13,454.6	76.8405	13,454.6	56.3398	13,454.6	76.429	13,454.6	81.2313	13,454.6	81.1823	13,454.6	81.6068	13,454.6	78.8113	13,454.6	72.0031	13,454.6	75.1407	13,454.6	78.6514	13,454.6	85.2224	13,454.6	84.5799	13,454.6	79.8542	13,454.6	81.3497	13,454.6	83.6527	13,454.6	82.8519	13,454.6	87.1772	13,454.6	89.0856	13,454.6	80.7497	13,454.6	82.215	13,454.6	82.2519	13,454.6	82.1856
13,929.2	85.9089	13,929.2	83.1683	13,929.2	85.8421	13,929.2	81.6365	13,929.2	80.386	13,929.2	76.8463	13,929.2	77.174	13,929.2	72.4772	13,929.2	80.6705	13,929.2	74.9163	13,929.2	78.6772	13,929.2	57.331	13,929.2	74.4109	13,929.2	64.5935	13,929.2	71.4129	13,929.2	70.0244	13,929.2	79.2624	13,929.2	78.6087	13,929.2	78.696	13,929.2	78.9273	13,929.2	80.7868	13,929.2	71.3834	13,929.2	77.6954	13,929.2	78.4197	13,929.2	84.0534	13,929.2	82.0711	13,929.2	71.8974	13,929.2	71.176	13,929.2	82.0477	13,929.2	80.9217	13,929.2	87.7956	13,929.2	86.3795	13,929.2	82.146	13,929.2	77.8714	13,929.2	82.2993	13,929.2	81.3485
14,419.9	85.0056	14,419.9	77.4161	14,419.9	86.4312	14,419.9	82.1212	14,419.9	80.3708	14,419.9	81.5609	14,419.9	79.0512	14,419.9	78.7129	14,419.9	80.0251	14,419.9	75.0368	14,419.9	75.9306	14,419.9	65.8962	14,419.9	66.158	14,419.9	58.8251	14,419.9	69.1097	14,419.9	76.6696	14,419.9	74.9855	14,419.9	75.8162	14,419.9	75.193	14,419.9	73.5621	14,419.9	82.3269	14,419.9	69.4235	14,419.9	79.1707	14,419.9	75.9805	14,419.9	80.1056	14,419.9	62.0172	14,419.9	80.1314	14,419.9	74.5139	14,419.9	80.1701	14,419.9	77.4158	14,419.9	86.9169	14,419.9	82.3565	14,419.9	78.8429	14,419.9	73.202	14,419.9	80.8366	14,419.9	78.2213
14,928.2	81.8213	14,928.2	66.5425	14,928.2	84.8882	14,928.2	81.8917	14,928.2	82.1244	14,928.2	83.7655	14,928.2	74.1544	14,928.2	81.0676	14,928.2	72.7388	14,928.2	72.8012	14,928.2	63.1701	14,928.2	67.4406	14,928.2	59.2925	14,928.2	49.6763	14,928.2	68.3184	14,928.2	77.0882	14,928.2	69.3977	14,928.2	74.6691	14,928.2	70.8496	14,928.2	69.9685	14,928.2	81.6316	14,928.2	73.3032	14,928.2	79.9528	14,928.2	74.8954	14,928.2	75.9255	14,928.2	80.58	14,928.2	86.9729	14,928.2	80.1624	14,928.2	81.7832	14,928.2	75.5804	14,928.2	85.1069	14,928.2	83.5188	14,928.2	78.2084	14,928.2	73.0944	14,928.2	78.7895	14,928.2	76.5415
15,455.6	74.5812	15,455.6	73.9663	15,455.6	80.8539	15,455.6	75.6092	15,455.6	82.3306	15,455.6	80.0976	15,455.6	75.5579	15,455.6	78.4896	15,455.6	71.7751	15,455.6	68.2529	15,455.6	71.885	15,455.6	48.8642	15,455.6	65.6382	15,455.6	58.9823	15,455.6	74.8278	15,455.6	69.5622	15,455.6	76.1287	15,455.6	75.485	15,455.6	58.0045	15,455.6	67.6542	15,455.6	80.1986	15,455.6	75.5293	15,455.6	82.141	15,455.6	73.0098	15,455.6	80.0281	15,455.6	85.837	15,455.6	91.434	15,455.6	81.1643	15,455.6	85.5043	15,455.6	75.3966	15,455.6	85.1427	15,455.6	83.9472	15,455.6	79.9336	15,455.6	69.9035	15,455.6	78.2564	15,455.6	71.4254
16,000.5	62.5933	16,000.5	75.1227	16,000.5	74.7183	16,000.5	71.9875	16,000.5	77.582	16,000.5	68.0115	16,000.5	75.8554	16,000.5	71.7096	16,000.5	69.9425	16,000.5	70.4406	16,000.5	57.9264	16,000.5	65.5787	16,000.5	69.4047	16,000.5	63.2129	16,000.5	67.7325	16,000.5	59.649	16,000.5	73.1226	16,000.5	70.5619	16,000.5	70.1518	16,000.5	67.1184	16,000.5	77.9826	16,000.5	76.7793	16,000.5	82.7937	16,000.5	67.1236	16,000.5	80.8333	16,000.5	83.7061	16,000.5	91.43	16,000.5	72.9775	16,000.5	84.2031	16,000.5	73.1176	16,000.5	85.9798	16,000.5	81.2822	16,000.5	80.8507	16,000.5	69.0549	16,000.5	76.1084	16,000.5	61.9629
16,564.5	72.245	16,564.5	75.9694	16,564.5	69.9816	16,564.5	70.376	16,564.5	71.7174	16,564.5	57.8709	16,564.5	68.5341	16,564.5	69.1439	16,564.5	61.9017	16,564.5	53.2582	16,564.5	67.5272	16,564.5	58.272	16,564.5	57.9041	16,564.5	56.7223	16,564.5	62.8218	16,564.5	64.9755	16,564.5	64.2631	16,564.5	66.1457	16,564.5	70.7478	16,564.5	59.0221	16,564.5	71.4226	16,564.5	76.4121	16,564.5	79.6059	16,564.5	68.3281	16,564.5	78.152	16,564.5	79.1264	16,564.5	87.8931	16,564.5	67.3923	16,564.5	76.91	16,564.5	69.8912	16,564.5	83.5035	16,564.5	77.3987	16,564.5	78.9963	16,564.5	67.8026	16,564.5	71.2645	16,564.5	60.5606
17,148.9	75.2671	17,148.9	74.7137	17,148.9	66.5327	17,148.9	66.8411	17,148.9	65.8396	17,148.9	68.193	17,148.9	68.3651	17,148.9	62.6326	17,148.9	71.4332	17,148.9	65.7659	17,148.9	71.7259	17,148.9	62.6117	17,148.9	65.3976	17,148.9	67.8309	17,148.9	67.5323	17,148.9	69.2311	17,148.9	69.9982	17,148.9	69.4871	17,148.9	64.0207	17,148.9	65.9979	17,148.9	67.3325	17,148.9	75.2896	17,148.9	75.6431	17,148.9	73.3641	17,148.9	77.1324	17,148.9	79.0762	17,148.9	87.025	17,148.9	54.9926	17,148.9	68.2274	17,148.9	69.7615	17,148.9	83.7403	17,148.9	75.9982	17,148.9	76.904	17,148.9	71.0525	17,148.9	68.9917	17,148.9	68.4372
17,752.4	73.7276	17,752.4	67.0481	17,752.4	69.1058	17,752.4	71.6133	17,752.4	67.2708	17,752.4	70.8263	17,752.4	71.6519	17,752.4	71.1609	17,752.4	68.9446	17,752.4	70.3204	17,752.4	69.9857	17,752.4	69.2796	17,752.4	63.4394	17,752.4	62.9231	17,752.4	63.618	17,752.4	68.5894	17,752.4	72.8507	17,752.4	61.6218	17,752.4	63.9374	17,752.4	65.8479	17,752.4	69.8976	17,752.4	73.1769	17,752.4	73.2905	17,752.4	72.988	17,752.4	74.9522	17,752.4	76.7728	17,752.4	83.6394	17,752.4	70.3386	17,752.4	69.4135	17,752.4	72.5621	17,752.4	82.3413	17,752.4	71.6814	17,752.4	72.4495	17,752.4	71.6065	17,752.4	66.8289	17,752.4	67.1399
18,379.4	72.8149	18,379.4	63.1208	18,379.4	68.8371	18,379.4	72.5794	18,379.4	68.0681	18,379.4	68.9793	18,379.4	71.8814	18,379.4	67.8816	18,379.4	65.6679	18,379.4	72.8577	18,379.4	72.692	18,379.4	69.9791	18,379.4	61.0179	18,379.4	65.81	18,379.4	63.9969	18,379.4	64.5572	18,379.4	68.6147	18,379.4	61.5917	18,379.4	70.9726	18,379.4	65.9848	18,379.4	66.963	18,379.4	75.9942	18,379.4	73.1612	18,379.4	73.0925	18,379.4	69.6457	18,379.4	75.4035	18,379.4	81.1718	18,379.4	75.7426	18,379.4	71.5845	18,379.4	69.2053	18,379.4	81.1279	18,379.4	74.0318	18,379.4	71.3961	18,379.4	70.2919	18,379.4	59.1121	18,379.4	69.2579
19,026.9	77.2024	19,026.9	69.2492	19,026.9	70.7656	19,026.9	70.1023	19,026.9	68.442	19,026.9	74.0666	19,026.9	70.699	19,026.9	71.3916	19,026.9	74.6885	19,026.9	67.251	19,026.9	75.0163	19,026.9	67.5914	19,026.9	70.9742	19,026.9	69.9684	19,026.9	72.2393	19,026.9	62.8072	19,026.9	65.7612	19,026.9	63.4283	19,026.9	72.6668	19,026.9	69.5519	19,026.9	64.5654	19,026.9	77.0547	19,026.9	72.9936	19,026.9	71.8819	19,026.9	69.4875	19,026.9	77.8529	19,026.9	81.4511	19,026.9	73.5774	19,026.9	74.9908	19,026.9	63.9863	19,026.9	79.2682	19,026.9	78.1471	19,026.9	75.3781	19,026.9	67.9291	19,026.9	70.6196	19,026.9	66.0935
19,697.8	79.049	19,697.8	71.0874	19,697.8	78.2264	19,697.8	74.0237	19,697.8	75.1028	19,697.8	77.7458	19,697.8	68.0119	19,697.8	71.4023	19,697.8	80.4243	19,697.8	70.4338	19,697.8	74.325	19,697.8	70.7839	19,697.8	75.2458	19,697.8	69.6333	19,697.8	74.9628	19,697.8	68.5016	19,697.8	72.2064	19,697.8	68.1699	19,697.8	67.0271	19,697.8	70.0085	19,697.8	42.8149	19,697.8	76.9482	19,697.8	75.2036	19,697.8	67.1195	19,697.8	71.3504	19,697.8	77.4822	19,697.8	78.7417	19,697.8	70.4847	19,697.8	71.7961	19,697.8	70.4484	19,697.8	76.6677	19,697.8	77.0226	19,697.8	74.5076	19,697.8	52.1871	19,697.8	71.7852	19,697.8	54.6198
19,999.5	78.5541	19,999.5	70.4096	19,999.5	80.0493	19,999.5	73.1441	19,999.5	76.8355	19,999.5	78.6614	19,999.5	74.4828	19,999.5	76.361	19,999.5	80.2086	19,999.5	76.4522	19,999.5	70.873	19,999.5	76.4028	19,999.5	71.7869	19,999.5	71.7275	19,999.5	73.899	19,999.5	71.017	19,999.5	70.9532	19,999.5	66.0017	19,999.5	62.2779	19,999.5	66.4317	19,999.5	58.9115	19,999.5	74.9297	19,999.5	77.4881	19,999.5	65.8021	19,999.5	72.8914	19,999.5	76.3196	19,999.5	76.3668	19,999.5	72.337	19,999.5	69.869	19,999.5	70.809	19,999.5	77.5079	19,999.5	75.6106	19,999.5	75.5452	19,999.5	63.6587	19,999.5	70.0751	19,999.5	52.8658
