"SPL Horizontal"
"On-Axis"		"10°"		"-10°"		"20°"		"-20°"		"30°"		"-30°"		"40°"		"-40°"		"50°"		"-50°"		"60°"		"-60°"		"70°"		"-70°"		"80°"		"-80°"		"90°"		"-90°"		"100°"		"-100°"		"110°"		"-110°"		"120°"		"-120°"		"130°"		"-130°"		"140°"		"-140°"		"150°"		"-150°"		"160°"		"-160°"		"170°"		"-170°"		"180°"
"Frequency [Hz]"	"Sound Pessure Level [dB]  / [2.83V 1m] "	"Frequency [Hz]"	"Sound Pessure Level [dB]  / [2.83V 1m] "	"Frequency [Hz]"	"Sound Pessure Level [dB]  / [2.83V 1m] "	"Frequency [Hz]"	"Sound Pessure Level [dB]  / [2.83V 1m] "	"Frequency [Hz]"	"Sound Pessure Level [dB]  / [2.83V 1m] "	"Frequency [Hz]"	"Sound Pessure Level [dB]  / [2.83V 1m] "	"Frequency [Hz]"	"Sound Pessure Level [dB]  / [2.83V 1m] "	"Frequency [Hz]"	"Sound Pessure Level [dB]  / [2.83V 1m] "	"Frequency [Hz]"	"Sound Pessure Level [dB]  / [2.83V 1m] "	"Frequency [Hz]"	"Sound Pessure Level [dB]  / [2.83V 1m] "	"Frequency [Hz]"	"Sound Pessure Level [dB]  / [2.83V 1m] "	"Frequency [Hz]"	"Sound Pessure Level [dB]  / [2.83V 1m] "	"Frequency [Hz]"	"Sound Pessure Level [dB]  / [2.83V 1m] "	"Frequency [Hz]"	"Sound Pessure Level [dB]  / [2.83V 1m] "	"Frequency [Hz]"	"Sound Pessure Level [dB]  / [2.83V 1m] "	"Frequency [Hz]"	"Sound Pessure Level [dB]  / [2.83V 1m] "	"Frequency [Hz]"	"Sound Pessure Level [dB]  / [2.83V 1m] "	"Frequency [Hz]"	"Sound Pessure Level [dB]  / [2.83V 1m] "	"Frequency [Hz]"	"Sound Pessure Level [dB]  / [2.83V 1m] "	"Frequency [Hz]"	"Sound Pessure Level [dB]  / [2.83V 1m] "	"Frequency [Hz]"	"Sound Pessure Level [dB]  / [2.83V 1m] "	"Frequency [Hz]"	"Sound Pessure Level [dB]  / [2.83V 1m] "	"Frequency [Hz]"	"Sound Pessure Level [dB]  / [2.83V 1m] "	"Frequency [Hz]"	"Sound Pessure Level [dB]  / [2.83V 1m] "	"Frequency [Hz]"	"Sound Pessure Level [dB]  / [2.83V 1m] "	"Frequency [Hz]"	"Sound Pessure Level [dB]  / [2.83V 1m] "	"Frequency [Hz]"	"Sound Pessure Level [dB]  / [2.83V 1m] "	"Frequency [Hz]"	"Sound Pessure Level [dB]  / [2.83V 1m] "	"Frequency [Hz]"	"Sound Pessure Level [dB]  / [2.83V 1m] "	"Frequency [Hz]"	"Sound Pessure Level [dB]  / [2.83V 1m] "	"Frequency [Hz]"	"Sound Pessure Level [dB]  / [2.83V 1m] "	"Frequency [Hz]"	"Sound Pessure Level [dB]  / [2.83V 1m] "	"Frequency [Hz]"	"Sound Pessure Level [dB]  / [2.83V 1m] "	"Frequency [Hz]"	"Sound Pessure Level [dB]  / [2.83V 1m] "	"Frequency [Hz]"	"Sound Pessure Level [dB]  / [2.83V 1m] "	"Frequency [Hz]"	"Sound Pessure Level [dB]  / [2.83V 1m] "
20.5078	54.4315	20.5078	54.5908	20.5078	54.3063	20.5078	54.767	20.5078	54.2329	20.5078	54.9453	20.5078	54.2278	20.5078	55.1146	20.5078	54.3018	20.5078	55.2681	20.5078	54.455	20.5078	55.404	20.5078	54.6738	20.5078	55.523	20.5078	54.9319	20.5078	55.6247	20.5078	55.1969	20.5078	55.705	20.5078	55.4384	20.5078	55.7582	20.5078	55.6355	20.5078	55.7814	20.5078	55.7786	20.5078	55.7801	20.5078	55.8685	20.5078	55.7677	20.5078	55.913	20.5078	55.7606	20.5078	55.9241	20.5078	55.7685	20.5078	55.9147	20.5078	55.791	20.5078	55.8959	20.5078	55.8203	20.5078	55.8736	20.5078	55.8487
21.9727	48.0357	21.9727	48.2747	21.9727	47.8327	21.9727	48.5259	21.9727	47.6937	21.9727	48.7694	21.9727	47.6466	21.9727	48.9891	21.9727	47.711	21.9727	49.1737	21.9727	47.889	21.9727	49.3171	21.9727	48.1598	21.9727	49.4185	21.9727	48.4829	21.9727	49.4797	21.9727	48.8086	21.9727	49.503	21.9727	49.0917	21.9727	49.4922	21.9727	49.3021	21.9727	49.4545	21.9727	49.4294	21.9727	49.4022	21.9727	49.4814	21.9727	49.3504	21.9727	49.4773	21.9727	49.3109	21.9727	49.4398	21.9727	49.2875	21.9727	49.3893	21.9727	49.2771	21.9727	49.3414	21.9727	49.276	21.9727	49.3053	21.9727	49.2842
23.4375	51.9915	23.4375	51.9882	23.4375	52.0071	23.4375	51.9941	23.4375	52.038	23.4375	52.0065	23.4375	52.0857	23.4375	52.0231	23.4375	52.1482	23.4375	52.0421	23.4375	52.2195	23.4375	52.0613	23.4375	52.2894	23.4375	52.0783	23.4375	52.3447	23.4375	52.0891	23.4375	52.3713	23.4375	52.0884	23.4375	52.3563	23.4375	52.0704	23.4375	52.2909	23.4375	52.0301	23.4375	52.172	23.4375	51.9636	23.4375	52.0045	23.4375	51.867	23.4375	51.8015	23.4375	51.7381	23.4375	51.5844	23.4375	51.5807	23.4375	51.3817	23.4375	51.4109	23.4375	51.2263	23.4375	51.2587	23.4375	51.1477	23.4375	51.1612
24.9023	51.2349	24.9023	51.3637	24.9023	51.0869	24.9023	51.4652	24.9023	50.9272	24.9023	51.5316	24.9023	50.7631	24.9023	51.557	24.9023	50.6014	24.9023	51.5387	24.9023	50.4474	24.9023	51.4779	24.9023	50.3042	24.9023	51.3776	24.9023	50.1696	24.9023	51.2393	24.9023	50.0342	24.9023	51.0604	24.9023	49.8825	24.9023	50.8341	24.9023	49.6975	24.9023	50.5529	24.9023	49.4693	24.9023	50.2153	24.9023	49.2018	24.9023	49.8302	24.9023	48.9155	24.9023	49.4201	24.9023	48.6426	24.9023	49.0198	24.9023	48.4174	24.9023	48.6704	24.9023	48.2667	24.9023	48.4077	24.9023	48.2078	24.9023	48.2524
26.3672	51.6683	26.3672	51.7473	26.3672	51.5758	26.3672	51.8108	26.3672	51.4709	26.3672	51.8565	26.3672	51.3544	26.3672	51.8814	26.3672	51.2269	26.3672	51.8825	26.3672	51.089	26.3672	51.8564	26.3672	50.9414	26.3672	51.7983	26.3672	50.7847	26.3672	51.7013	26.3672	50.6169	26.3672	51.5568	26.3672	50.4319	26.3672	51.3559	26.3672	50.2199	26.3672	51.0928	26.3672	49.9721	26.3672	50.7676	26.3672	49.6873	26.3672	50.3885	26.3672	49.3761	26.3672	49.972	26.3672	49.063	26.3672	49.5438	26.3672	48.7846	26.3672	49.1396	26.3672	48.5856	26.3672	48.8041	26.3672	48.5097	26.3672	48.5836
27.832	55.6578	27.832	55.6763	27.832	55.619	27.832	55.6706	27.832	55.5635	27.832	55.6371	27.832	55.4944	27.832	55.5723	27.832	55.4147	27.832	55.4745	27.832	55.327	27.832	55.3439	27.832	55.2333	27.832	55.1827	27.832	55.1347	27.832	54.9951	27.832	55.0304	27.832	54.7876	27.832	54.9181	27.832	54.5695	27.832	54.794	27.832	54.3538	27.832	54.6554	27.832	54.156	27.832	54.5024	27.832	53.9898	27.832	54.3401	27.832	53.8632	27.832	54.1782	27.832	53.7779	27.832	54.0286	27.832	53.7312	27.832	53.9021	27.832	53.7206	27.832	53.8064	27.832	53.7456
29.2969	55.7741	29.2969	55.7766	29.2969	55.7545	29.2969	55.7603	29.2969	55.719	29.2969	55.7237	29.2969	55.6693	29.2969	55.6658	29.2969	55.6067	29.2969	55.5858	29.2969	55.5329	29.2969	55.4838	29.2969	55.4488	29.2969	55.3605	29.2969	55.3544	29.2969	55.2175	29.2969	55.2486	29.2969	55.0575	29.2969	55.1305	29.2969	54.8858	29.2969	55	29.2969	54.7105	29.2969	54.8597	29.2969	54.5418	29.2969	54.7147	29.2969	54.3894	29.2969	54.5717	29.2969	54.2611	29.2969	54.4372	29.2969	54.1624	29.2969	54.3163	29.2969	54.098	29.2969	54.2136	29.2969	54.0718	29.2969	54.1342	29.2969	54.0848
30.7617	57.0459	30.7617	57.074	30.7617	57.0033	30.7617	57.0874	30.7617	56.9456	30.7617	57.0854	30.7617	56.8727	30.7617	57.0669	30.7617	56.7851	30.7617	57.0307	30.7617	56.685	30.7617	56.9764	30.7617	56.5763	30.7617	56.904	30.7617	56.464	30.7617	56.8143	30.7617	56.3528	30.7617	56.7087	30.7617	56.2456	30.7617	56.5888	30.7617	56.1428	30.7617	56.457	30.7617	56.0437	30.7617	56.3161	30.7617	55.9484	30.7617	56.1704	30.7617	55.859	30.7617	56.0258	30.7617	55.7791	30.7617	55.8908	30.7617	55.7126	30.7617	55.7762	30.7617	55.6641	30.7617	55.693	30.7617	55.64	30.7617	55.6477
32.2266	58.9725	32.2266	58.9769	32.2266	58.9613	32.2266	58.9747	32.2266	58.9428	32.2266	58.9659	32.2266	58.9165	32.2266	58.9503	32.2266	58.8828	32.2266	58.9272	32.2266	58.8431	32.2266	58.8959	32.2266	58.8	32.2266	58.8559	32.2266	58.7572	32.2266	58.8074	32.2266	58.7187	32.2266	58.7512	32.2266	58.6871	32.2266	58.689	32.2266	58.6635	32.2266	58.6232	32.2266	58.6469	32.2266	58.5571	32.2266	58.6344	32.2266	58.4958	32.2266	58.6213	32.2266	58.4454	32.2266	58.6021	32.2266	58.412	32.2266	58.5726	32.2266	58.4002	32.2266	58.5323	32.2266	58.4114	32.2266	58.486	32.2266	58.4425
33.6914	60.7072	33.6914	60.7285	33.6914	60.6706	33.6914	60.7348	33.6914	60.6185	33.6914	60.7258	33.6914	60.5506	33.6914	60.701	33.6914	60.4671	33.6914	60.66	33.6914	60.3691	33.6914	60.6029	33.6914	60.2594	33.6914	60.5301	33.6914	60.1415	33.6914	60.4424	33.6914	60.0202	33.6914	60.3416	33.6914	59.9002	33.6914	60.2298	33.6914	59.786	33.6914	60.1101	33.6914	59.6819	33.6914	59.9862	33.6914	59.5922	33.6914	59.8628	33.6914	59.5203	33.6914	59.7455	33.6914	59.4681	33.6914	59.6403	33.6914	59.4354	33.6914	59.553	33.6914	59.4208	33.6914	59.4875	33.6914	59.4235	33.6914	59.4449
35.1562	62.1239	35.1562	62.1226	35.1562	62.1137	35.1562	62.1106	35.1562	62.0912	35.1562	62.088	35.1562	62.0554	35.1562	62.0547	35.1562	62.006	35.1562	62.01	35.1562	61.9435	35.1562	61.9533	35.1562	61.8698	35.1562	61.8844	35.1562	61.7874	35.1562	61.8038	35.1562	61.6994	35.1562	61.7129	35.1562	61.6087	35.1562	61.614	35.1562	61.5173	35.1562	61.5097	35.1562	61.4268	35.1562	61.4027	35.1562	61.3379	35.1562	61.2963	35.1562	61.2513	35.1562	61.1944	35.1562	61.1681	35.1562	61.1025	35.1562	61.0911	35.1562	61.0282	35.1562	61.0258	35.1562	60.9797	35.1562	60.9804	35.1562	60.9635
36.6211	63.6784	36.6211	63.6934	36.6211	63.6465	36.6211	63.6915	36.6211	63.5978	36.6211	63.6722	36.6211	63.5322	36.6211	63.6347	36.6211	63.45	36.6211	63.5782	36.6211	63.3523	36.6211	63.5021	36.6211	63.241	36.6211	63.4063	36.6211	63.1189	36.6211	63.292	36.6211	62.9893	36.6211	63.1618	36.6211	62.8557	36.6211	63.0196	36.6211	62.7217	36.6211	62.8703	36.6211	62.591	36.6211	62.7191	36.6211	62.4673	36.6211	62.5715	36.6211	62.3544	36.6211	62.4333	36.6211	62.2561	36.6211	62.3105	36.6211	62.1764	36.6211	62.2097	36.6211	62.1201	36.6211	62.1371	36.6211	62.0923	36.6211	62.0974
38.0859	64.9807	38.0859	64.9655	38.0859	64.9739	38.0859	64.9274	38.0859	64.9457	38.0859	64.8652	38.0859	64.8967	38.0859	64.7777	38.0859	64.8271	38.0859	64.6641	38.0859	64.7376	38.0859	64.5237	38.0859	64.6292	38.0859	64.3572	38.0859	64.5031	38.0859	64.1671	38.0859	64.3611	38.0859	63.9581	38.0859	64.2054	38.0859	63.7382	38.0859	64.0387	38.0859	63.5183	38.0859	63.865	38.0859	63.3111	38.0859	63.6888	38.0859	63.1296	38.0859	63.5151	38.0859	62.9843	38.0859	63.3485	38.0859	62.8826	38.0859	63.1934	38.0859	62.8283	38.0859	63.0556	38.0859	62.8221	38.0859	62.9422	38.0859	62.8619
39.5508	66.0294	39.5508	66.0108	39.5508	66.0246	39.5508	65.9676	39.5508	65.997	39.5508	65.8975	39.5508	65.9463	39.5508	65.798	39.5508	65.8722	39.5508	65.6663	39.5508	65.7741	39.5508	65.4998	39.5508	65.6519	39.5508	65.2971	39.5508	65.506	39.5508	65.0592	39.5508	65.3376	39.5508	64.7912	39.5508	65.1485	39.5508	64.5033	39.5508	64.9419	39.5508	64.2109	39.5508	64.7222	39.5508	63.9337	39.5508	64.4948	39.5508	63.691	39.5508	64.2646	39.5508	63.4974	39.5508	64.0362	39.5508	63.361	39.5508	63.8154	39.5508	63.2851	39.5508	63.6128	39.5508	63.2729	39.5508	63.4443	39.5508	63.327
41.0156	70.3308	41.0156	70.3414	41.0156	70.3242	41.0156	70.3543	41.0156	70.3228	41.0156	70.3675	41.0156	70.3276	41.0156	70.379	41.0156	70.3391	41.0156	70.3871	41.0156	70.3575	41.0156	70.3903	41.0156	70.3827	41.0156	70.3878	41.0156	70.4138	41.0156	70.3795	41.0156	70.4494	41.0156	70.3656	41.0156	70.4872	41.0156	70.3462	41.0156	70.5242	41.0156	70.3215	41.0156	70.5571	41.0156	70.2921	41.0156	70.5826	41.0156	70.2615	41.0156	70.597	41.0156	70.2384	41.0156	70.597	41.0156	70.2361	41.0156	70.5792	41.0156	70.2651	41.0156	70.5404	41.0156	70.3252	41.0156	70.4798	41.0156	70.4031
42.4805	69.0336	42.4805	69.0274	42.4805	69.0259	42.4805	69.0074	42.4805	69.0042	42.4805	68.9742	42.4805	68.9684	42.4805	68.9281	42.4805	68.9187	42.4805	68.8697	42.4805	68.8554	42.4805	68.7997	42.4805	68.7789	42.4805	68.7188	42.4805	68.6894	42.4805	68.6287	42.4805	68.587	42.4805	68.5319	42.4805	68.4716	42.4805	68.4318	42.4805	68.3434	42.4805	68.3327	42.4805	68.2039	42.4805	68.2378	42.4805	68.0581	42.4805	68.1489	42.4805	67.9165	42.4805	68.0658	42.4805	67.7955	42.4805	67.9863	42.4805	67.7136	42.4805	67.9077	42.4805	67.6826	42.4805	67.8294	42.4805	67.7014	42.4805	67.7563
43.9453	70.3932	43.9453	70.3902	43.9453	70.3923	43.9453	70.3837	43.9453	70.3873	43.9453	70.3743	43.9453	70.3786	43.9453	70.3633	43.9453	70.3669	43.9453	70.3523	43.9453	70.3534	43.9453	70.3431	43.9453	70.3397	43.9453	70.3377	43.9453	70.328	43.9453	70.338	43.9453	70.3207	43.9453	70.3454	43.9453	70.3198	43.9453	70.3606	43.9453	70.3263	43.9453	70.3834	43.9453	70.3404	43.9453	70.4118	43.9453	70.361	43.9453	70.4431	43.9453	70.3868	43.9453	70.4738	43.9453	70.4166	43.9453	70.5003	43.9453	70.4487	43.9453	70.5193	43.9453	70.4801	43.9453	70.5277	43.9453	70.5066	43.9453	70.5235
45.4102	71.8463	45.4102	71.852	45.4102	71.8344	45.4102	71.8515	45.4102	71.8163	45.4102	71.8455	45.4102	71.7928	45.4102	71.8347	45.4102	71.7649	45.4102	71.8204	45.4102	71.7342	45.4102	71.8039	45.4102	71.7029	45.4102	71.787	45.4102	71.6731	45.4102	71.7712	45.4102	71.6473	45.4102	71.7583	45.4102	71.6276	45.4102	71.7493	45.4102	71.6157	45.4102	71.7448	45.4102	71.6122	45.4102	71.7439	45.4102	71.6171	45.4102	71.7453	45.4102	71.6295	45.4102	71.7471	45.4102	71.6479	45.4102	71.7479	45.4102	71.6702	45.4102	71.7463	45.4102	71.6934	45.4102	71.741	45.4102	71.7144	45.4102	71.7306
46.875	73.2354	46.875	73.2373	46.875	73.2245	46.875	73.2304	46.875	73.2043	46.875	73.2155	46.875	73.1746	46.875	73.193	46.875	73.136	46.875	73.1638	46.875	73.0891	46.875	73.1287	46.875	73.0354	46.875	73.0887	46.875	72.9769	46.875	73.0449	46.875	72.9159	46.875	72.9988	46.875	72.855	46.875	72.9515	46.875	72.797	46.875	72.904	46.875	72.7441	46.875	72.8568	46.875	72.6986	46.875	72.8103	46.875	72.6621	46.875	72.7654	46.875	72.6359	46.875	72.7237	46.875	72.6206	46.875	72.6871	46.875	72.616	46.875	72.6573	46.875	72.6212	46.875	72.6352
48.3398	74.2462	48.3398	74.2454	48.3398	74.2398	48.3398	74.2376	48.3398	74.2262	48.3398	74.2231	48.3398	74.2057	48.3398	74.2024	48.3398	74.1787	48.3398	74.1762	48.3398	74.1461	48.3398	74.1455	48.3398	74.109	48.3398	74.1112	48.3398	74.0689	48.3398	74.0749	48.3398	74.0276	48.3398	74.038	48.3398	73.9868	48.3398	74.0024	48.3398	73.9485	48.3398	73.9693	48.3398	73.9144	48.3398	73.9399	48.3398	73.8859	48.3398	73.9145	48.3398	73.8638	48.3398	73.8932	48.3398	73.8487	48.3398	73.8758	48.3398	73.8401	48.3398	73.8621	48.3398	73.8372	48.3398	73.8515	48.3398	73.8389	48.3398	73.8438
51.2695	76.7451	51.2695	76.7494	51.2695	76.7325	51.2695	76.7453	51.2695	76.7117	51.2695	76.733	51.2695	76.6834	51.2695	76.7129	51.2695	76.6484	51.2695	76.6856	51.2695	76.6078	51.2695	76.652	51.2695	76.5631	51.2695	76.6132	51.2695	76.5158	51.2695	76.5707	51.2695	76.4677	51.2695	76.5259	51.2695	76.4206	51.2695	76.4809	51.2695	76.3762	51.2695	76.4371	51.2695	76.3361	51.2695	76.3961	51.2695	76.3014	51.2695	76.3589	51.2695	76.2731	51.2695	76.3261	51.2695	76.2521	51.2695	76.2979	51.2695	76.2388	51.2695	76.2746	51.2695	76.2332	51.2695	76.2561	51.2695	76.2348	51.2695	76.2427
52.7344	77.9246	52.7344	77.9263	52.7344	77.9151	52.7344	77.92	52.7344	77.8977	52.7344	77.9062	52.7344	77.873	52.7344	77.8852	52.7344	77.8417	52.7344	77.8577	52.7344	77.8045	52.7344	77.8246	52.7344	77.7629	52.7344	77.787	52.7344	77.7183	52.7344	77.7461	52.7344	77.6724	52.7344	77.7036	52.7344	77.6271	52.7344	77.6611	52.7344	77.5841	52.7344	77.6201	52.7344	77.5449	52.7344	77.582	52.7344	77.511	52.7344	77.5475	52.7344	77.4834	52.7344	77.5174	52.7344	77.4626	52.7344	77.4921	52.7344	77.4489	52.7344	77.4717	52.7344	77.442	52.7344	77.4563	52.7344	77.4413	52.7344	77.4462
54.1992	78.9729	54.1992	78.9718	54.1992	78.9669	54.1992	78.9636	54.1992	78.954	54.1992	78.9485	54.1992	78.9346	54.1992	78.9271	54.1992	78.9094	54.1992	78.9	54.1992	78.8792	54.1992	78.8683	54.1992	78.8451	54.1992	78.8331	54.1992	78.8082	54.1992	78.7961	54.1992	78.7701	54.1992	78.7588	54.1992	78.7321	54.1992	78.7228	54.1992	78.6958	54.1992	78.6896	54.1992	78.6628	54.1992	78.6602	54.1992	78.6343	54.1992	78.6352	54.1992	78.6113	54.1992	78.6148	54.1992	78.5944	54.1992	78.5991	54.1992	78.5832	54.1992	78.5877	54.1992	78.5771	54.1992	78.5802	54.1992	78.575	54.1992	78.5761
55.6641	79.9306	55.6641	79.9294	55.6641	79.9244	55.6641	79.921	55.6641	79.9112	55.6641	79.9059	55.6641	79.8916	55.6641	79.8846	55.6641	79.8662	55.6641	79.8582	55.6641	79.8362	55.6641	79.8279	55.6641	79.8029	55.6641	79.7951	55.6641	79.7677	55.6641	79.7614	55.6641	79.7322	55.6641	79.7285	55.6641	79.6979	55.6641	79.698	55.6641	79.6663	55.6641	79.671	55.6641	79.6389	55.6641	79.6485	55.6641	79.6167	55.6641	79.6304	55.6641	79.6003	55.6641	79.6165	55.6641	79.5897	55.6641	79.606	55.6641	79.5843	55.6641	79.5981	55.6641	79.583	55.6641	79.5921	55.6641	79.5845	55.6641	79.5877
58.5938	81.8976	58.5938	81.8912	58.5938	81.895	58.5938	81.8761	58.5938	81.8838	58.5938	81.8528	58.5938	81.8647	58.5938	81.8222	58.5938	81.8387	58.5938	81.7857	58.5938	81.8071	58.5938	81.745	58.5938	81.7712	58.5938	81.702	58.5938	81.7324	58.5938	81.6588	58.5938	81.6923	58.5938	81.6173	58.5938	81.6523	58.5938	81.5792	58.5938	81.6138	58.5938	81.5458	58.5938	81.5781	58.5938	81.5177	58.5938	81.5461	58.5938	81.4952	58.5938	81.5185	58.5938	81.478	58.5938	81.4956	58.5938	81.4656	58.5938	81.4776	58.5938	81.4575	58.5938	81.4647	58.5938	81.4533	58.5938	81.4565	58.5938	81.4529
60.0586	82.8086	60.0586	82.8044	60.0586	82.8036	60.0586	82.7911	60.0586	82.7894	60.0586	82.7692	60.0586	82.7667	60.0586	82.7397	60.0586	82.7361	60.0586	82.7038	60.0586	82.6987	60.0586	82.663	60.0586	82.6559	60.0586	82.6191	60.0586	82.6091	60.0586	82.5739	60.0586	82.5601	60.0586	82.5292	60.0586	82.5107	60.0586	82.4869	60.0586	82.4631	60.0586	82.4484	60.0586	82.4192	60.0586	82.4146	60.0586	82.3809	60.0586	82.386	60.0586	82.3497	60.0586	82.3624	60.0586	82.3263	60.0586	82.3433	60.0586	82.311	60.0586	82.3278	60.0586	82.3033	60.0586	82.3156	60.0586	82.3023	60.0586	82.3068
62.9883	84.2659	62.9883	84.2594	62.9883	84.2634	62.9883	84.2443	62.9883	84.2521	62.9883	84.2212	62.9883	84.2324	62.9883	84.1912	62.9883	84.2052	62.9883	84.1556	62.9883	84.1714	62.9883	84.116	62.9883	84.1326	62.9883	84.0744	62.9883	84.0902	62.9883	84.0327	62.9883	84.0461	62.9883	83.9927	62.9883	84.0021	62.9883	83.9561	62.9883	83.96	62.9883	83.9241	62.9883	83.9216	62.9883	83.8974	62.9883	83.8884	62.9883	83.8759	62.9883	83.8613	62.9883	83.859	62.9883	83.841	62.9883	83.8459	62.9883	83.8274	62.9883	83.8355	62.9883	83.8202	62.9883	83.8272	62.9883	83.8185	62.9883	83.8213
64.4531	84.8528	64.4531	84.8425	64.4531	84.8542	64.4531	84.8237	64.4531	84.847	64.4531	84.7973	64.4531	84.8314	64.4531	84.7642	64.4531	84.8081	64.4531	84.726	64.4531	84.7783	64.4531	84.6845	64.4531	84.7431	64.4531	84.6417	64.4531	84.7041	64.4531	84.5997	64.4531	84.6628	64.4531	84.5607	64.4531	84.621	64.4531	84.5262	64.4531	84.5805	64.4531	84.4975	64.4531	84.5429	64.4531	84.4751	64.4531	84.5097	64.4531	84.4587	64.4531	84.482	64.4531	84.4474	64.4531	84.4604	64.4531	84.4399	64.4531	84.445	64.4531	84.435	64.4531	84.4356	64.4531	84.4317	64.4531	84.431	64.4531	84.4302
67.3828	85.7319	67.3828	85.7165	67.3828	85.7389	67.3828	85.6927	67.3828	85.7377	67.3828	85.6612	67.3828	85.729	67.3828	85.623	67.3828	85.7135	67.3828	85.5797	67.3828	85.6925	67.3828	85.5332	67.3828	85.6672	67.3828	85.4859	67.3828	85.6387	67.3828	85.4402	67.3828	85.6083	67.3828	85.3988	67.3828	85.5775	67.3828	85.3638	67.3828	85.5474	67.3828	85.3371	67.3828	85.5189	67.3828	85.3199	67.3828	85.4928	67.3828	85.3124	67.3828	85.4692	67.3828	85.3139	67.3828	85.448	67.3828	85.3228	67.3828	85.4284	67.3828	85.337	67.3828	85.4097	67.3828	85.3542	67.3828	85.3913	67.3828	85.3727
68.8477	86.128	68.8477	86.1145	68.8477	86.1321	68.8477	86.0919	68.8477	86.1274	68.8477	86.0605	68.8477	86.1146	68.8477	86.0214	68.8477	86.095	68.8477	85.9762	68.8477	86.0699	68.8477	85.927	68.8477	86.0407	68.8477	85.8762	68.8477	86.0087	68.8477	85.8265	68.8477	85.9755	68.8477	85.7805	68.8477	85.9422	68.8477	85.7408	68.8477	85.9101	68.8477	85.7094	68.8477	85.88	68.8477	85.6876	68.8477	85.8526	68.8477	85.6758	68.8477	85.8278	68.8477	85.6736	68.8477	85.8055	68.8477	85.6796	68.8477	85.785	68.8477	85.6919	68.8477	85.7654	68.8477	85.7083	68.8477	85.7461	68.8477	85.7268
71.7773	86.6352	71.7773	86.6241	71.7773	86.6357	71.7773	86.6023	71.7773	86.6261	71.7773	86.5701	71.7773	86.6076	71.7773	86.5288	71.7773	86.5818	71.7773	86.4801	71.7773	86.5504	71.7773	86.426	71.7773	86.5152	71.7773	86.3694	71.7773	86.478	71.7773	86.3131	71.7773	86.4403	71.7773	86.2602	71.7773	86.4037	71.7773	86.2135	71.7773	86.3693	71.7773	86.1754	71.7773	86.3381	71.7773	86.1476	71.7773	86.3103	71.7773	86.1306	71.7773	86.2858	71.7773	86.1242	71.7773	86.2635	71.7773	86.1275	71.7773	86.2421	71.7773	86.1388	71.7773	86.2207	71.7773	86.1559	71.7773	86.1987	71.7773	86.1766
74.707	86.9968	74.707	86.9932	74.707	86.9882	74.707	86.9774	74.707	86.968	74.707	86.9501	74.707	86.9374	74.707	86.9126	74.707	86.898	74.707	86.8664	74.707	86.8519	74.707	86.8138	74.707	86.8015	74.707	86.7572	74.707	86.7493	74.707	86.6992	74.707	86.6975	74.707	86.6424	74.707	86.6483	74.707	86.5895	74.707	86.6034	74.707	86.5424	74.707	86.5641	74.707	86.5027	74.707	86.5309	74.707	86.4713	74.707	86.5038	74.707	86.4484	74.707	86.4823	74.707	86.4338	74.707	86.4651	74.707	86.4269	74.707	86.4511	74.707	86.4264	74.707	86.4398	74.707	86.4312
77.6367	87.24	77.6367	87.2371	77.6367	87.2313	77.6367	87.2229	77.6367	87.2114	77.6367	87.1982	77.6367	87.1813	77.6367	87.1644	77.6367	87.1425	77.6367	87.1234	77.6367	87.0971	77.6367	87.0774	77.6367	87.0477	77.6367	87.029	77.6367	86.9969	77.6367	86.9808	77.6367	86.9473	77.6367	86.9352	77.6367	86.9016	77.6367	86.8943	77.6367	86.8615	77.6367	86.8596	77.6367	86.8285	77.6367	86.8316	77.6367	86.8031	77.6367	86.8104	77.6367	86.7852	77.6367	86.7951	77.6367	86.7739	77.6367	86.7844	77.6367	86.7678	77.6367	86.7769	77.6367	86.7655	77.6367	86.7717	77.6367	86.7659	77.6367	86.7681
79.1016	87.3064	79.1016	87.3026	79.1016	87.2986	79.1016	87.2875	79.1016	87.2795	79.1016	87.2619	79.1016	87.2502	79.1016	87.2274	79.1016	87.2122	79.1016	87.1859	79.1016	87.1677	79.1016	87.1399	79.1016	87.1192	79.1016	87.092	79.1016	87.0694	79.1016	87.0449	79.1016	87.0211	79.1016	87.0014	79.1016	86.977	79.1016	86.9636	79.1016	86.9391	79.1016	86.9328	79.1016	86.9087	79.1016	86.9096	79.1016	86.8865	79.1016	86.8935	79.1016	86.8721	79.1016	86.8833	79.1016	86.8643	79.1016	86.8773	79.1016	86.8617	79.1016	86.8736	79.1016	86.8624	79.1016	86.8707	79.1016	86.8648	79.1016	86.8678
82.0312	87.4588	82.0312	87.4546	82.0312	87.4503	82.0312	87.438	82.0312	87.4296	82.0312	87.4101	82.0312	87.3976	82.0312	87.3725	82.0312	87.3558	82.0312	87.3275	82.0312	87.3065	82.0312	87.2778	82.0312	87.2524	82.0312	87.2264	82.0312	87.1963	82.0312	87.1767	82.0312	87.1416	82.0312	87.1314	82.0312	87.0912	82.0312	87.093	82.0312	87.0479	82.0312	87.0629	82.0312	87.0134	82.0312	87.0412	82.0312	86.9889	82.0312	87.0272	82.0312	86.974	82.0312	87.0186	82.0312	86.9679	82.0312	87.013	82.0312	86.9688	82.0312	87.0078	82.0312	86.9747	82.0312	87.0013	82.0312	86.9834	82.0312	86.9929
84.9609	87.5381	84.9609	87.5361	84.9609	87.527	84.9609	87.5212	84.9609	87.5029	84.9609	87.4945	84.9609	87.4668	84.9609	87.4575	84.9609	87.4205	84.9609	87.4123	84.9609	87.3661	84.9609	87.3616	84.9609	87.3063	84.9609	87.308	84.9609	87.2443	84.9609	87.2545	84.9609	87.1833	84.9609	87.204	84.9609	87.1266	84.9609	87.159	84.9609	87.0769	84.9609	87.1212	84.9609	87.0365	84.9609	87.0914	84.9609	87.0067	84.9609	87.0692	84.9609	86.9878	84.9609	87.0532	84.9609	86.979	84.9609	87.0409	84.9609	86.9787	84.9609	87.0301	84.9609	86.9849	84.9609	87.019	84.9609	86.9951	84.9609	87.0071
87.8906	87.5836	87.8906	87.5697	87.8906	87.5848	87.8906	87.5437	87.8906	87.5733	87.8906	87.507	87.8906	87.55	87.8906	87.4619	87.8906	87.5165	87.8906	87.4112	87.8906	87.4748	87.8906	87.3582	87.8906	87.4277	87.8906	87.3064	87.8906	87.3782	87.8906	87.2593	87.8906	87.3293	87.8906	87.2199	87.8906	87.2841	87.8906	87.1904	87.8906	87.2451	87.8906	87.1718	87.8906	87.2143	87.8906	87.164	87.8906	87.1926	87.8906	87.1653	87.8906	87.1801	87.8906	87.1728	87.8906	87.1757	87.8906	87.1827	87.8906	87.1777	87.8906	87.1913	87.8906	87.1836	87.8906	87.1957	87.8906	87.1903	87.8906	87.1951
90.8203	87.7168	90.8203	87.722	90.8203	87.6974	90.8203	87.7129	90.8203	87.6648	90.8203	87.6907	90.8203	87.621	90.8203	87.6572	90.8203	87.5691	90.8203	87.6155	90.8203	87.5127	90.8203	87.5691	90.8203	87.4559	90.8203	87.5221	90.8203	87.403	90.8203	87.4789	90.8203	87.358	90.8203	87.443	90.8203	87.3239	90.8203	87.4175	90.8203	87.3028	90.8203	87.4039	90.8203	87.2954	90.8203	87.402	90.8203	87.301	90.8203	87.4098	90.8203	87.3176	90.8203	87.4237	90.8203	87.3422	90.8203	87.4387	90.8203	87.3712	90.8203	87.4495	90.8203	87.4005	90.8203	87.452	90.8203	87.4261	90.8203	87.444
95.2148	88.0338	95.2148	88.0397	95.2148	88.0092	95.2148	88.0277	95.2148	87.9666	95.2148	87.999	95.2148	87.9074	95.2148	87.9562	95.2148	87.8344	95.2148	87.9022	95.2148	87.7515	95.2148	87.8406	95.2148	87.6633	95.2148	87.7756	95.2148	87.5754	95.2148	87.7115	95.2148	87.4935	95.2148	87.6522	95.2148	87.4232	95.2148	87.6012	95.2148	87.3689	95.2148	87.561	95.2148	87.334	95.2148	87.5322	95.2148	87.3193	95.2148	87.5141	95.2148	87.3235	95.2148	87.5044	95.2148	87.3429	95.2148	87.499	95.2148	87.3725	95.2148	87.4933	95.2148	87.4062	95.2148	87.4829	95.2148	87.4384	95.2148	87.4648
98.1445	88.1577	98.1445	88.1572	98.1445	88.1402	98.1445	88.1396	98.1445	88.1047	98.1445	88.1068	98.1445	88.0523	98.1445	88.0615	98.1445	87.9854	98.1445	88.0067	98.1445	87.9073	98.1445	87.9462	98.1445	87.8225	98.1445	87.8835	98.1445	87.7359	98.1445	87.8225	98.1445	87.653	98.1445	87.7664	98.1445	87.5794	98.1445	87.7177	98.1445	87.5198	98.1445	87.6781	98.1445	87.4778	98.1445	87.6479	98.1445	87.455	98.1445	87.6265	98.1445	87.4506	98.1445	87.6122	98.1445	87.4616	98.1445	87.602	98.1445	87.4835	98.1445	87.5925	98.1445	87.5107	98.1445	87.58	98.1445	87.5383	98.1445	87.562
101.074	88.1167	101.074	88.1095	101.074	88.1075	101.074	88.0871	101.074	88.0815	101.074	88.0515	101.074	88.0396	101.074	88.0054	101.074	87.9835	101.074	87.9522	101.074	87.9165	101.074	87.8956	101.074	87.8425	101.074	87.8395	101.074	87.7665	101.074	87.7878	101.074	87.6936	101.074	87.7438	101.074	87.6292	101.074	87.7101	101.074	87.5779	101.074	87.688	101.074	87.5434	101.074	87.6773	101.074	87.5276	101.074	87.6761	101.074	87.5306	101.074	87.6815	101.074	87.5497	101.074	87.6889	101.074	87.5803	101.074	87.6932	101.074	87.6158	101.074	87.6896	101.074	87.6493	101.074	87.675
105.469	88.4665	105.469	88.472	105.469	88.4469	105.469	88.4622	105.469	88.4147	105.469	88.4372	105.469	88.3724	105.469	88.3981	105.469	88.3226	105.469	88.3472	105.469	88.2683	105.469	88.2883	105.469	88.2128	105.469	88.2262	105.469	88.1599	105.469	88.1666	105.469	88.113	105.469	88.1151	105.469	88.0749	105.469	88.0769	105.469	88.0471	105.469	88.0549	105.469	88.0295	105.469	88.0496	105.469	88.0213	105.469	88.0581	105.469	88.0212	105.469	88.0745	105.469	88.028	105.469	88.0913	105.469	88.0409	105.469	88.102	105.469	88.0581	105.469	88.1027	105.469	88.0769	105.469	88.0933
108.398	88.6908	108.398	88.685	108.398	88.6751	108.398	88.6581	108.398	88.6389	108.398	88.6115	108.398	88.5848	108.398	88.5482	108.398	88.5163	108.398	88.472	108.398	88.4386	108.398	88.3878	108.398	88.3574	108.398	88.3012	108.398	88.2794	108.398	88.2184	108.398	88.2107	108.398	88.1455	108.398	88.1566	108.398	88.0885	108.398	88.1201	108.398	88.0518	108.398	88.1019	108.398	88.0373	108.398	88.0999	108.398	88.044	108.398	88.1101	108.398	88.0669	108.398	88.1273	108.398	88.0986	108.398	88.1462	108.398	88.1304	108.398	88.162	108.398	88.1552	108.398	88.1706	108.398	88.1688
112.793	88.9022	112.793	88.9071	112.793	88.8751	112.793	88.8907	112.793	88.8263	112.793	88.8548	112.793	88.7573	112.793	88.8022	112.793	88.6715	112.793	88.7363	112.793	88.5734	112.793	88.6612	112.793	88.4687	112.793	88.5812	112.793	88.3638	112.793	88.5006	112.793	88.2652	112.793	88.4236	112.793	88.179	112.793	88.3537	112.793	88.1103	112.793	88.2935	112.793	88.0625	112.793	88.2449	112.793	88.0368	112.793	88.2086	112.793	88.0316	112.793	88.1839	112.793	88.043	112.793	88.1684	112.793	88.0651	112.793	88.1582	112.793	88.0914	112.793	88.1485	112.793	88.1159	112.793	88.1352
117.188	89.0696	117.188	89.066	117.188	89.0518	117.188	89.0421	117.188	89.0126	117.188	89	117.188	88.9532	117.188	88.9431	117.188	88.8765	117.188	88.8754	117.188	88.7865	117.188	88.8019	117.188	88.6889	117.188	88.7278	117.188	88.5901	117.188	88.6586	117.188	88.4974	117.188	88.5991	117.188	88.4174	117.188	88.5526	117.188	88.3556	117.188	88.5211	117.188	88.3155	117.188	88.504	117.188	88.2981	117.188	88.4986	117.188	88.302	117.188	88.5004	117.188	88.3236	117.188	88.5034	117.188	88.3575	117.188	88.5018	117.188	88.3974	117.188	88.4911	117.188	88.4366	117.188	88.4691
120.117	89.2993	120.117	89.2773	120.117	89.2983	120.117	89.2337	120.117	89.2738	120.117	89.1711	120.117	89.2267	120.117	89.0933	120.117	89.1594	120.117	89.005	120.117	89.0754	120.117	88.9118	120.117	88.9801	120.117	88.8196	120.117	88.8798	120.117	88.7345	120.117	88.7818	120.117	88.6619	120.117	88.6933	120.117	88.6058	120.117	88.6209	120.117	88.5684	120.117	88.5689	120.117	88.5497	120.117	88.539	120.117	88.5474	120.117	88.53	120.117	88.5576	120.117	88.5378	120.117	88.5746	120.117	88.5562	120.117	88.592	120.117	88.578	120.117	88.6037	120.117	88.5962	120.117	88.6055
124.512	89.6768	124.512	89.6477	124.512	89.6842	124.512	89.5973	124.512	89.6704	124.512	89.5266	124.512	89.6366	124.512	89.4382	124.512	89.5842	124.512	89.3356	124.512	89.5154	124.512	89.2236	124.512	89.4328	124.512	89.1078	124.512	89.34	124.512	88.9948	124.512	89.2416	124.512	88.8909	124.512	89.143	124.512	88.8021	124.512	89.0502	124.512	88.733	124.512	88.9692	124.512	88.6864	124.512	88.9043	124.512	88.6628	124.512	88.8574	124.512	88.6603	124.512	88.8269	124.512	88.6749	124.512	88.8082	124.512	88.7006	124.512	88.7944	124.512	88.7303	124.512	88.779	124.512	88.7577
128.906	89.7612	128.906	89.764	128.906	89.7372	128.906	89.7454	128.906	89.6942	128.906	89.7066	128.906	89.6356	128.906	89.6509	128.906	89.5662	128.906	89.5827	128.906	89.4911	128.906	89.5075	128.906	89.4156	128.906	89.4313	128.906	89.3442	128.906	89.3598	128.906	89.2808	128.906	89.2976	128.906	89.228	128.906	89.2479	128.906	89.1875	128.906	89.2118	128.906	89.1597	128.906	89.1883	128.906	89.1441	128.906	89.1753	128.906	89.1392	128.906	89.17	128.906	89.1425	128.906	89.1696	128.906	89.1509	128.906	89.1716	128.906	89.1607	128.906	89.1735	128.906	89.1687	128.906	89.173
133.301	90.1223	133.301	90.1255	133.301	90.0915	133.301	90.1017	133.301	90.0344	133.301	90.0534	133.301	89.9543	133.301	89.985	133.301	89.856	133.301	89.9022	133.301	89.7462	133.301	89.8122	133.301	89.6324	133.301	89.7231	133.301	89.5229	133.301	89.6427	133.301	89.4258	133.301	89.5779	133.301	89.3486	133.301	89.5334	133.301	89.2969	133.301	89.5105	133.301	89.2737	133.301	89.5068	133.301	89.2788	133.301	89.5171	133.301	89.3086	133.301	89.5342	133.301	89.3559	133.301	89.5511	133.301	89.4118	133.301	89.5614	133.301	89.4667	133.301	89.5603	133.301	89.5126	133.301	89.5444
139.16	90.6448	139.16	90.644	139.16	90.6127	139.16	90.6114	139.16	90.5485	139.16	90.55	139.16	90.4552	139.16	90.4649	139.16	90.3374	139.16	90.3624	139.16	90.2015	139.16	90.2503	139.16	90.0552	139.16	90.1371	139.16	89.907	139.16	90.0312	139.16	89.7659	139.16	89.94	139.16	89.6404	139.16	89.8682	139.16	89.5379	139.16	89.8175	139.16	89.4638	139.16	89.7856	139.16	89.421	139.16	89.7666	139.16	89.4094	139.16	89.7528	139.16	89.4257	139.16	89.7366	139.16	89.4637	139.16	89.7119	139.16	89.5156	139.16	89.6757	139.16	89.573	139.16	89.6283
143.555	90.9538	143.555	90.9289	143.555	90.9458	143.555	90.8726	143.555	90.9051	143.555	90.7881	143.555	90.8336	143.555	90.6802	143.555	90.7351	143.555	90.5554	143.555	90.615	143.555	90.4217	143.555	90.4802	143.555	90.2884	143.555	90.3384	143.555	90.1652	143.555	90.1981	143.555	90.061	143.555	90.0669	143.555	89.9825	143.555	89.9517	143.555	89.9318	143.555	89.8575	143.555	89.9063	143.555	89.7873	143.555	89.8984	143.555	89.7423	143.555	89.8978	143.555	89.722	143.555	89.8943	143.555	89.7244	143.555	89.8808	143.555	89.7457	143.555	89.8548	143.555	89.7798	143.555	89.8189
147.949	91.0225	147.949	90.9871	147.949	91.0276	147.949	90.9234	147.949	91.0024	147.949	90.835	147.949	90.949	147.949	90.727	147.949	90.8713	147.949	90.6057	147.949	90.7748	147.949	90.4786	147.949	90.6665	147.949	90.3538	147.949	90.5541	147.949	90.2399	147.949	90.4453	147.949	90.1449	147.949	90.3467	147.949	90.0751	147.949	90.2633	147.949	90.0338	147.949	90.1977	147.949	90.0202	147.949	90.15	147.949	90.0284	147.949	90.1184	147.949	90.0495	147.949	90.1001	147.949	90.0733	147.949	90.0923	147.949	90.0917	147.949	90.0922	147.949	90.1007	147.949	90.0965	147.949	90.101
153.809	91.0854	153.809	91.0666	153.809	91.0709	153.809	91.0162	153.809	91.0234	153.809	90.9379	153.809	90.9453	153.809	90.837	153.809	90.8417	153.809	90.7202	153.809	90.7198	153.809	90.5955	153.809	90.5892	153.809	90.4715	153.809	90.4611	153.809	90.3572	153.809	90.347	153.809	90.261	153.809	90.2576	153.809	90.1908	153.809	90.2005	153.809	90.1526	153.809	90.1781	153.809	90.1494	153.809	90.1874	153.809	90.1793	153.809	90.2206	153.809	90.2335	153.809	90.2676	153.809	90.2978	153.809	90.3181	153.809	90.3559	153.809	90.3633	153.809	90.3947	153.809	90.3955	153.809	90.4077
159.668	91.4473	159.668	91.4274	159.668	91.4301	159.668	91.3713	159.668	91.3769	159.668	91.2825	159.668	91.2913	159.668	91.1666	159.668	91.1793	159.668	91.0322	159.668	91.049	159.668	90.89	159.668	90.9103	159.668	90.7527	159.668	90.7746	159.668	90.6337	159.668	90.653	159.668	90.5445	159.668	90.5558	159.668	90.493	159.668	90.4909	159.668	90.4816	159.668	90.4626	159.668	90.507	159.668	90.4711	159.668	90.5605	159.668	90.5114	159.668	90.6298	159.668	90.5744	159.668	90.7007	159.668	90.6479	159.668	90.7593	159.668	90.718	159.668	90.7944	159.668	90.7717	159.668	90.7988
165.527	91.7612	165.527	91.738	165.527	91.7427	165.527	91.6745	165.527	91.6831	165.527	91.5745	165.527	91.585	165.527	91.4434	165.527	91.4538	165.527	91.2895	165.527	91.2977	165.527	91.1231	165.527	91.1278	165.527	90.9568	165.527	90.9581	165.527	90.8042	165.527	90.8038	165.527	90.6788	165.527	90.6793	165.527	90.5923	165.527	90.5955	165.527	90.5515	165.527	90.5576	165.527	90.5569	165.527	90.5634	165.527	90.6017	165.527	90.6048	165.527	90.6722	165.527	90.6689	165.527	90.7507	165.527	90.7412	165.527	90.8193	165.527	90.8076	165.527	90.8637	165.527	90.8558	165.527	90.8762
171.387	91.9892	171.387	91.9438	171.387	91.9902	171.387	91.8556	171.387	91.9476	171.387	91.7279	171.387	91.8638	171.387	91.5668	171.387	91.7436	171.387	91.3815	171.387	91.5938	171.387	91.1839	171.387	91.424	171.387	90.989	171.387	91.2459	171.387	90.8124	171.387	91.073	171.387	90.669	171.387	90.9195	171.387	90.5693	171.387	90.7988	171.387	90.5184	171.387	90.7207	171.387	90.5151	171.387	90.6892	171.387	90.5531	171.387	90.7009	171.387	90.6218	171.387	90.7445	171.387	90.7066	171.387	90.803	171.387	90.7903	171.387	90.8574	171.387	90.8563	171.387	90.8908	171.387	90.8916
177.246	91.9802	177.246	91.9617	177.246	91.9518	177.246	91.896	177.246	91.8786	177.246	91.7844	177.246	91.764	177.246	91.6306	177.246	91.6133	177.246	91.4407	177.246	91.434	177.246	91.2247	177.246	91.2356	177.246	90.9969	177.246	91.0306	177.246	90.7758	177.246	90.8333	177.246	90.5825	177.246	90.6591	177.246	90.4368	177.246	90.5219	177.246	90.3514	177.246	90.4319	177.246	90.3276	177.246	90.3931	177.246	90.355	177.246	90.4018	177.246	90.4158	177.246	90.4467	177.246	90.4901	177.246	90.5106	177.246	90.5598	177.246	90.5736	177.246	90.6102	177.246	90.6177	177.246	90.631
183.105	91.8197	183.105	91.8062	183.105	91.7856	183.105	91.746	183.105	91.7051	183.105	91.642	183.105	91.5818	183.105	91.4986	183.105	91.4216	183.105	91.3224	183.105	91.2326	183.105	91.1219	183.105	91.0252	183.105	90.9092	183.105	90.8111	183.105	90.7002	183.105	90.6035	183.105	90.514	183.105	90.4158	183.105	90.3696	183.105	90.2605	183.105	90.281	183.105	90.1478	183.105	90.2515	183.105	90.0847	183.105	90.2713	183.105	90.0737	183.105	90.3209	183.105	90.1106	183.105	90.3774	183.105	90.1832	183.105	90.4202	183.105	90.2718	183.105	90.4342	183.105	90.3543	183.105	90.412
188.965	91.7313	188.965	91.6968	188.965	91.7147	188.965	91.6154	188.965	91.6445	188.965	91.4925	188.965	91.5218	188.965	91.3338	188.965	91.3519	188.965	91.1449	188.965	91.1453	188.965	90.9324	188.965	90.9172	188.965	90.7043	188.965	90.6866	188.965	90.4719	188.965	90.4742	188.965	90.2513	188.965	90.2984	188.965	90.0635	188.965	90.1707	188.965	89.931	188.965	90.093	188.965	89.87	188.965	90.0578	188.965	89.8809	188.965	90.0533	188.965	89.9444	188.965	90.0684	188.965	90.0291	188.965	90.0949	188.965	90.1047	188.965	90.126	188.965	90.1519	188.965	90.1535	188.965	90.166
196.289	92.0503	196.289	92.0214	196.289	92.0321	196.289	91.9484	196.289	91.9642	196.289	91.8348	196.289	91.8453	196.289	91.6855	196.289	91.6766	196.289	91.507	196.289	91.463	196.289	91.3085	196.289	91.2145	196.289	91.1014	196.289	90.946	196.289	90.8988	196.289	90.6769	196.289	90.7141	196.289	90.4294	196.289	90.56	196.289	90.2252	196.289	90.4464	196.289	90.0811	196.289	90.3787	196.289	90.0045	196.289	90.3562	196.289	89.992	196.289	90.3687	196.289	90.0319	196.289	90.3973	196.289	90.1081	196.289	90.4189	196.289	90.2026	196.289	90.4133	196.289	90.2964	196.289	90.3712
203.613	92.4001	203.613	92.3486	203.613	92.3827	203.613	92.229	203.613	92.2986	203.613	92.0458	203.613	92.1518	203.613	91.8085	203.613	91.9477	203.613	91.5318	203.613	91.6939	203.613	91.2343	203.613	91.4018	203.613	90.9365	203.613	91.0879	203.613	90.6583	203.613	90.7744	203.613	90.4159	203.613	90.4885	203.613	90.2218	203.613	90.258	203.613	90.0857	203.613	90.1041	203.613	90.0161	203.613	90.0345	203.613	90.0163	203.613	90.0402	203.613	90.0782	203.613	90.0997	203.613	90.1775	203.613	90.1865	203.613	90.2792	203.613	90.2753	203.613	90.3504	203.613	90.3435	203.613	90.3724
210.938	91.8261	210.938	91.7702	210.938	91.8277	210.938	91.6582	210.938	91.7765	210.938	91.4885	210.938	91.6728	210.938	91.2613	210.938	91.5172	210.938	90.9794	210.938	91.3103	210.938	90.6503	210.938	91.0543	210.938	90.2869	210.938	90.7536	210.938	89.9077	210.938	90.4164	210.938	89.5358	210.938	90.0557	210.938	89.1958	210.938	89.6912	210.938	88.9109	210.938	89.3474	210.938	88.6989	210.938	89.0504	210.938	88.5692	210.938	88.8206	210.938	88.5177	210.938	88.6672	210.938	88.5241	210.938	88.5865	210.938	88.5558	210.938	88.5629	210.938	88.5816	210.938	88.5717	210.938	88.5851
218.262	91.6139	218.262	91.5721	218.262	91.6178	218.262	91.4912	218.262	91.5859	218.262	91.3707	218.262	91.5206	218.262	91.2126	218.262	91.4247	218.262	91.0214	218.262	91.3022	218.262	90.8058	218.262	91.1597	218.262	90.5783	218.262	91.0069	218.262	90.3548	218.262	90.8558	218.262	90.1521	218.262	90.7189	218.262	89.9853	218.262	90.6048	218.262	89.865	218.262	90.5152	218.262	89.7954	218.262	90.4443	218.262	89.7743	218.262	90.3823	218.262	89.7943	218.262	90.3209	218.262	89.844	218.262	90.2564	218.262	89.9108	218.262	90.1899	218.262	89.9834	218.262	90.1228	218.262	90.0545
225.586	92.0509	225.586	92.0582	225.586	91.9813	225.586	92.0016	225.586	91.8542	225.586	91.8833	225.586	91.678	225.586	91.7083	225.586	91.4636	225.586	91.4858	225.586	91.2234	225.586	91.2291	225.586	90.9697	225.586	90.9567	225.586	90.7141	225.586	90.6912	225.586	90.4687	225.586	90.4552	225.586	90.2484	225.586	90.2668	225.586	90.0716	225.586	90.1362	225.586	89.9565	225.586	90.0666	225.586	89.912	225.586	90.0552	225.586	89.9313	225.586	90.0918	225.586	89.9938	225.586	90.1559	225.586	90.075	225.586	90.2199	225.586	90.1553	225.586	90.2582	225.586	90.2204	225.586	90.258
232.91	92.021	232.91	91.9832	232.91	91.9908	232.91	91.8827	232.91	91.889	232.91	91.7264	232.91	91.7163	232.91	91.5207	232.91	91.4777	232.91	91.2716	232.91	91.1843	232.91	90.9866	232.91	90.8534	232.91	90.6772	232.91	90.5091	232.91	90.3638	232.91	90.1802	232.91	90.0768	232.91	89.8967	232.91	89.8526	232.91	89.6836	232.91	89.7206	232.91	89.5554	232.91	89.6872	232.91	89.5131	232.91	89.7326	232.91	89.5445	232.91	89.8209	232.91	89.6287	232.91	89.9159	232.91	89.741	232.91	89.9901	232.91	89.8566	232.91	90.0253	232.91	89.9531	232.91	90.0127
241.699	91.5994	241.699	91.5225	241.699	91.6249	241.699	91.3998	241.699	91.5952	241.699	91.2369	241.699	91.5096	241.699	91.0381	241.699	91.3705	241.699	90.8073	241.699	91.1826	241.699	90.5496	241.699	90.9519	241.699	90.2727	241.699	90.6854	241.699	89.9866	241.699	90.3919	241.699	89.7025	241.699	90.0832	241.699	89.4347	241.699	89.7771	241.699	89.2057	241.699	89.5002	241.699	89.0474	241.699	89.287	241.699	88.9904	241.699	89.1704	241.699	89.0415	241.699	89.1634	241.699	89.171	241.699	89.2444	241.699	89.3235	241.699	89.3625	241.699	89.4429	241.699	89.4593	241.699	89.4918
250.488	91.3122	250.488	91.2705	250.488	91.3005	250.488	91.1774	250.488	91.2341	250.488	91.0357	250.488	91.1141	250.488	90.8492	250.488	90.9449	250.488	90.624	250.488	90.7356	250.488	90.3696	250.488	90.4999	250.488	90.0995	250.488	90.2558	250.488	89.8314	250.488	90.0251	250.488	89.5841	250.488	89.8298	250.488	89.3739	250.488	89.6859	250.488	89.2102	250.488	89.5956	250.488	89.0963	250.488	89.5456	250.488	89.0321	250.488	89.5139	250.488	89.0172	250.488	89.4824	250.488	89.0484	250.488	89.4439	250.488	89.1148	250.488	89.3984	250.488	89.1977	250.488	89.3444	250.488	89.2777
259.277	91.5694	259.277	91.5182	259.277	91.5485	259.277	91.3939	259.277	91.4567	259.277	91.1961	259.277	91.2958	259.277	90.9265	259.277	91.07	259.277	90.5919	259.277	90.7875	259.277	90.2067	259.277	90.4617	259.277	89.7956	259.277	90.1112	259.277	89.3928	259.277	89.7607	259.277	89.0361	259.277	89.4399	259.277	88.7567	259.277	89.1809	259.277	88.5709	259.277	89.0081	259.277	88.4815	259.277	88.9268	259.277	88.4821	259.277	88.9187	259.277	88.5569	259.277	88.9517	259.277	88.6785	259.277	88.9939	259.277	88.8111	259.277	89.0235	259.277	88.9227	259.277	89.0271	259.277	88.9955
268.066	91.1695	268.066	91.1427	268.066	91.1162	268.066	91.0377	268.066	90.9864	268.066	90.8601	268.066	90.7885	268.066	90.6179	268.066	90.5349	268.066	90.318	268.066	90.2412	268.066	89.9657	268.066	89.9256	268.066	89.5676	268.066	89.6077	268.066	89.1373	268.066	89.3058	268.066	88.7025	268.066	89.0353	268.066	88.3063	268.066	88.8078	268.066	87.9992	268.066	88.6301	268.066	87.8203	268.066	88.504	268.066	87.779	268.066	88.4257	268.066	87.85	268.066	88.3874	268.066	87.9859	268.066	88.3776	268.066	88.136	268.066	88.3809	268.066	88.2614	268.066	88.3762	268.066	88.3415
276.855	90.7909	276.855	90.7722	276.855	90.733	276.855	90.6801	276.855	90.598	276.855	90.5201	276.855	90.3892	276.855	90.3001	276.855	90.113	276.855	90.0298	276.855	89.7794	276.855	89.7211	276.855	89.4025	276.855	89.386	276.855	89.0021	276.855	89.0349	276.855	88.6061	276.855	88.677	276.855	88.2527	276.855	88.325	276.855	87.9863	276.855	88.0035	276.855	87.8449	276.855	87.7534	276.855	87.8396	276.855	87.6193	276.855	87.9406	276.855	87.6208	276.855	88.0872	276.855	87.732	276.855	88.2152	276.855	87.8969	276.855	88.2816	276.855	88.0623	276.855	88.2724	276.855	88.1942
287.109	90.6328	287.109	90.6373	287.109	90.5441	287.109	90.5607	287.109	90.3697	287.109	90.4073	287.109	90.111	287.109	90.1839	287.109	89.7749	287.109	89.9018	287.109	89.3758	287.109	89.5792	287.109	88.9366	287.109	89.2418	287.109	88.4877	287.109	88.9187	287.109	88.0641	287.109	88.6321	287.109	87.7003	287.109	88.3876	287.109	87.4238	287.109	88.1789	287.109	87.2488	287.109	88.0059	287.109	87.1741	287.109	87.8872	287.109	87.1875	287.109	87.8438	287.109	87.2719	287.109	87.8662	287.109	87.4066	287.109	87.9063	287.109	87.5669	287.109	87.9091	287.109	87.7238	287.109	87.8464
297.363	90.5422	297.363	90.5809	297.363	90.424	297.363	90.5348	297.363	90.2323	297.363	90.4018	297.363	89.971	297.363	90.1841	297.363	89.6388	297.363	89.8895	297.363	89.2279	297.363	89.5333	297.363	88.7236	297.363	89.1403	297.363	88.113	297.363	88.7434	297.363	87.4052	297.363	88.3742	297.363	86.6668	297.363	88.0471	297.363	86.0451	297.363	87.753	297.363	85.7051	297.363	87.4787	297.363	85.6782	297.363	87.234	297.363	85.8294	297.363	87.0534	297.363	86.0148	297.363	86.9575	297.363	86.1906	297.363	86.9166	297.363	86.376	297.363	86.8649	297.363	86.5752	297.363	86.7515
307.617	90.3467	307.617	90.2608	307.617	90.3609	307.617	90.1133	307.617	90.2908	307.617	89.9083	307.617	90.1302	307.617	89.6434	307.617	89.8852	307.617	89.3152	307.617	89.5768	307.617	88.9268	307.617	89.234	307.617	88.4983	307.617	88.8759	307.617	88.0729	307.617	88.4918	307.617	87.7097	307.617	88.0407	307.617	87.4536	307.617	87.4883	307.617	87.3005	307.617	86.8697	307.617	87.2019	307.617	86.3282	307.617	87.1141	307.617	86.0526	307.617	87.04	307.617	86.1107	307.617	87.0159	307.617	86.3839	307.617	87.052	307.617	86.6984	307.617	87.0972	307.617	86.9436	307.617	87.0761
319.336	90.1112	319.336	89.9949	319.336	90.1331	319.336	89.7914	319.336	90.0602	319.336	89.5163	319.336	89.896	319.336	89.1909	319.336	89.646	319.336	88.8353	319.336	89.3181	319.336	88.4589	319.336	88.9283	319.336	88.0561	319.336	88.5075	319.336	87.6138	319.336	88.1001	319.336	87.1375	319.336	87.7479	319.336	86.6805	319.336	87.4619	319.336	86.3451	319.336	87.2155	319.336	86.2186	319.336	86.9727	319.336	86.2819	319.336	86.7289	319.336	86.4129	319.336	86.5193	319.336	86.4919	319.336	86.3832	319.336	86.482	319.336	86.3256	319.336	86.4201	319.336	86.3235	319.336	86.3583
329.59	89.4568	329.59	89.368	329.59	89.4821	329.59	89.2259	329.59	89.4347	329.59	89.0382	329.59	89.3093	329.59	88.8093	329.59	89.1074	329.59	88.5447	329.59	88.8357	329.59	88.2599	329.59	88.5029	329.59	87.9829	329.59	88.1144	329.59	87.7409	329.59	87.6755	329.59	87.5351	329.59	87.2037	329.59	87.3293	329.59	86.7409	329.59	87.0749	329.59	86.3447	329.59	86.7609	329.59	86.056	329.59	86.4436	329.59	85.8747	329.59	86.2142	329.59	85.7735	329.59	86.1109	329.59	85.7321	329.59	86.0785	329.59	85.7508	329.59	86.033	329.59	85.8295	329.59	85.9403
341.309	90.459	341.309	90.2748	341.309	90.5059	341.309	89.963	341.309	90.414	341.309	89.5421	341.309	90.1896	341.309	89.0417	341.309	89.8449	341.309	88.5038	341.309	89.3982	341.309	87.9827	341.309	88.8787	341.309	87.5378	341.309	88.3328	341.309	87.22	341.309	87.8263	341.309	87.0525	341.309	87.4303	341.309	87.014	341.309	87.1941	341.309	87.0442	341.309	87.1217	341.309	87.0753	341.309	87.1711	341.309	87.0725	341.309	87.2782	341.309	87.051	341.309	87.3855	341.309	87.0564	341.309	87.4568	341.309	87.1211	341.309	87.4767	341.309	87.234	341.309	87.4408	341.309	87.3535
353.027	90.9769	353.027	90.8472	353.027	90.9735	353.027	90.5869	353.027	90.8347	353.027	90.1978	353.027	90.5629	353.027	89.6822	353.027	90.1694	353.027	89.0483	353.027	89.6748	353.027	88.3224	353.027	89.1053	353.027	87.5683	353.027	88.4847	353.027	86.9014	353.027	87.8315	353.027	86.4579	353.027	87.1702	353.027	86.3065	353.027	86.5571	353.027	86.3909	353.027	86.0946	353.027	86.5857	353.027	85.8874	353.027	86.7845	353.027	85.9444	353.027	86.9298	353.027	86.1522	353.027	86.9991	353.027	86.3745	353.027	86.9894	353.027	86.5473	353.027	86.9143	353.027	86.6807	353.027	86.8026
366.211	91.0556	366.211	90.9265	366.211	91.047	366.211	90.6514	366.211	90.9119	366.211	90.2292	366.211	90.6585	366.211	89.6639	366.211	90.2893	366.211	88.9599	366.211	89.8066	366.211	88.1208	366.211	89.2254	366.211	87.1619	366.211	88.5866	366.211	86.1452	366.211	87.9577	366.211	85.2301	366.211	87.4067	366.211	84.6672	366.211	86.9626	366.211	84.6242	366.211	86.6093	366.211	84.991	366.211	86.3354	366.211	85.4916	366.211	86.1771	366.211	85.9268	366.211	86.1863	366.211	86.2446	366.211	86.348	366.211	86.4763	366.211	86.5626	366.211	86.6484	366.211	86.7145	366.211	86.7412
379.395	91.1016	379.395	90.9701	379.395	91.1153	379.395	90.7265	379.395	91.0007	379.395	90.3649	379.395	90.7523	379.395	89.8708	379.395	90.3744	379.395	89.2328	379.395	89.8791	379.395	88.4594	379.395	89.2806	379.395	87.5958	379.395	88.593	379.395	86.7346	379.395	87.8419	379.395	86.0059	379.395	87.0962	379.395	85.5247	379.395	86.4946	379.395	85.3196	379.395	86.1946	379.395	85.3311	379.395	86.2275	379.395	85.4865	379.395	86.4487	379.395	85.7442	379.395	86.6765	379.395	86.0636	379.395	86.8174	379.395	86.3796	379.395	86.8677	379.395	86.6276	379.395	86.8539	379.395	86.781
392.578	91.307	392.578	91.252	392.578	91.2719	392.578	91.0913	392.578	91.1497	392.578	90.8027	392.578	90.9308	392.578	90.3645	392.578	90.5997	392.578	89.7595	392.578	90.145	392.578	88.9811	392.578	89.5666	392.578	88.0443	392.578	88.8783	392.578	87.002	392.578	88.1089	392.578	85.9612	392.578	87.3094	392.578	85.0885	392.578	86.5758	392.578	84.5875	392.578	86.0645	392.578	84.6091	392.578	85.9273	392.578	85.1139	392.578	86.166	392.578	85.8692	392.578	86.6102	392.578	86.6172	392.578	87.0671	392.578	87.1983	392.578	87.4249	392.578	87.5553	392.578	87.6407	392.578	87.6932
405.762	91.3478	405.762	91.236	405.762	91.3303	405.762	91.0022	405.762	91.1809	405.762	90.6635	405.762	90.8964	405.762	90.2473	405.762	90.4694	405.762	89.78	405.762	89.8928	405.762	89.2643	405.762	89.177	405.762	88.6716	405.762	88.3767	405.762	87.9781	405.762	87.5983	405.762	87.2376	405.762	86.9514	405.762	86.6177	405.762	86.4688	405.762	86.3003	405.762	86.1266	405.762	86.3134	405.762	85.9697	405.762	86.5523	405.762	86.1236	405.762	86.9284	405.762	86.6011	405.762	87.3838	405.762	87.2182	405.762	87.8253	405.762	87.7613	405.762	88.1369	405.762	88.1146	405.762	88.2414
420.41	92.1521	420.41	91.9677	420.41	92.1796	420.41	91.637	420.41	92.0543	420.41	91.1774	420.41	91.7942	420.41	90.5955	420.41	91.4238	420.41	89.877	420.41	90.9634	420.41	88.9994	420.41	90.4136	420.41	87.9605	420.41	89.7444	420.41	86.808	420.41	88.9093	420.41	85.6622	420.41	87.901	420.41	84.7283	420.41	86.8392	420.41	84.2363	420.41	86.0137	420.41	84.272	420.41	85.7002	420.41	84.7085	420.41	85.8541	420.41	85.3541	420.41	86.2084	420.41	86.0526	420.41	86.5819	420.41	86.6677	420.41	86.9164	420.41	87.0841	420.41	87.1639	420.41	87.2439
435.059	91.6382	435.059	91.6409	435.059	91.5689	435.059	91.5585	435.059	91.4308	435.059	91.3537	435.059	91.2055	435.059	90.9811	435.059	90.8678	435.059	90.4014	435.059	90.4	435.059	89.5902	435.059	89.8109	435.059	88.5407	435.059	89.1467	435.059	87.2746	435.059	88.4706	435.059	85.8979	435.059	87.8206	435.059	84.7275	435.059	87.2043	435.059	84.2728	435.059	86.6746	435.059	84.6829	435.059	86.3961	435.059	85.5011	435.059	86.5183	435.059	86.2888	435.059	86.9525	435.059	86.9126	435.059	87.4479	435.059	87.3944	435.059	87.8194	435.059	87.7543	435.059	87.9956	435.059	87.9671
451.172	90.548	451.172	90.4968	451.172	90.5213	451.172	90.3656	451.172	90.4155	451.172	90.1551	451.172	90.2257	451.172	89.8717	451.172	89.9454	451.172	89.5165	451.172	89.562	451.172	89.0677	451.172	89.0521	451.172	88.4707	451.172	88.3896	451.172	87.6465	451.172	87.568	451.172	86.5253	451.172	86.6229	451.172	85.1214	451.172	85.654	451.172	83.6928	451.172	84.8547	451.172	82.8632	451.172	84.4873	451.172	83.0818	451.172	84.6861	451.172	83.9591	451.172	85.2829	451.172	84.921	451.172	85.9551	451.172	85.7185	451.172	86.457	451.172	86.2913	451.172	86.6828	451.172	86.6202
465.82	90.7603	465.82	90.699	465.82	90.7124	465.82	90.5198	465.82	90.5634	465.82	90.2228	465.82	90.3119	465.82	89.8228	465.82	89.9438	465.82	89.3444	465.82	89.4362	465.82	88.8045	465.82	88.7679	465.82	88.1947	465.82	87.9288	465.82	87.4853	465.82	86.9301	465.82	86.6597	465.82	85.8109	465.82	85.7583	465.82	84.6397	465.82	84.912	465.82	83.5475	465.82	84.3371	465.82	82.8408	465.82	84.2348	465.82	82.959	465.82	84.616	465.82	83.896	465.82	85.2688	465.82	85.0605	465.82	85.9263	465.82	85.9676	465.82	86.4022	465.82	86.4736	465.82	86.6017
483.398	91.1566	483.398	91.0636	483.398	91.2044	483.398	90.9506	483.398	91.1716	483.398	90.7964	483.398	91.0358	483.398	90.521	483.398	90.7846	483.398	90.0199	483.398	90.4039	483.398	89.2189	483.398	89.8731	483.398	88.1154	483.398	89.1712	483.398	86.7959	483.398	88.2898	483.398	85.4253	483.398	87.2449	483.398	84.1885	483.398	86.0879	483.398	83.202	483.398	84.9416	483.398	82.5441	483.398	84.0636	483.398	82.412	483.398	83.7684	483.398	82.9765	483.398	84.0818	483.398	83.9911	483.398	84.6884	483.398	84.9831	483.398	85.2899	483.398	85.6432	483.398	85.7245	483.398	85.8764
499.512	90.8621	499.512	90.8816	499.512	90.7526	499.512	90.7783	499.512	90.593	499.512	90.546	499.512	90.408	499.512	90.2046	499.512	90.1894	499.512	89.7812	499.512	89.8987	499.512	89.2852	499.512	89.4878	499.512	88.6872	499.512	88.9213	499.512	87.9077	499.512	88.187	499.512	86.8427	499.512	87.3055	499.512	85.4899	499.512	86.3648	499.512	84.2228	499.512	85.554	499.512	83.8323	499.512	85.0884	499.512	84.4734	499.512	85.0536	499.512	85.4078	499.512	85.4011	499.512	86.1778	499.512	86.018	499.512	86.7611	499.512	86.7042	499.512	87.1884	499.512	87.2113	499.512	87.3746
517.09	90.503	517.09	90.4211	517.09	90.477	517.09	90.2587	517.09	90.3371	517.09	90.0506	517.09	90.0974	517.09	89.8244	517.09	89.7728	517.09	89.5892	517.09	89.3602	517.09	89.3184	517.09	88.8427	517.09	88.9316	517.09	88.2153	517.09	88.3077	517.09	87.496	517.09	87.3483	517.09	86.6867	517.09	86.0834	517.09	85.7198	517.09	84.7734	517.09	84.5155	517.09	83.8328	517.09	83.2754	517.09	83.4842	517.09	82.8233	517.09	83.6972	517.09	83.658	517.09	84.4251	517.09	84.9408	517.09	85.4351	517.09	85.9521	517.09	86.2834	517.09	86.5384	517.09	86.6677
536.133	90.7533	536.133	90.6743	536.133	90.7918	536.133	90.5852	536.133	90.7388	536.133	90.4548	536.133	90.5701	536.133	90.2045	536.133	90.2948	536.133	89.7672	536.133	89.9318	536.133	89.1343	536.133	89.4808	536.133	88.352	536.133	88.902	536.133	87.4635	536.133	88.1176	536.133	86.4424	536.133	87.0628	536.133	85.196	536.133	85.7796	536.133	83.7361	536.133	84.5072	536.133	82.6251	536.133	83.6508	536.133	82.8343	536.133	83.4947	536.133	84.0066	536.133	83.9728	536.133	85.0893	536.133	84.771	536.133	85.7224	536.133	85.5017	536.133	85.9901	536.133	85.9244	536.133	86.051
555.176	90.6235	555.176	90.6564	555.176	90.5255	555.176	90.5544	555.176	90.4136	555.176	90.2944	555.176	90.2778	555.176	89.908	555.176	90.0666	555.176	89.4299	555.176	89.728	555.176	88.8583	555.176	89.2341	555.176	88.1667	555.176	88.5977	555.176	87.3169	555.176	87.8659	555.176	86.2519	555.176	87.0532	555.176	84.9507	555.176	86.0658	555.176	83.5894	555.176	84.7745	555.176	82.656	555.176	83.3251	555.176	82.5749	555.176	82.4863	555.176	83.1627	555.176	82.9232	555.176	84.0424	555.176	84.0645	555.176	85.0189	555.176	85.1668	555.176	85.8275	555.176	85.9192	555.176	86.1649
574.219	90.93	574.219	90.8535	574.219	90.9207	574.219	90.7108	574.219	90.7992	574.219	90.5031	574.219	90.5527	574.219	90.2233	574.219	90.1895	574.219	89.8704	574.219	89.7337	574.219	89.4396	574.219	89.1994	574.219	88.8915	574.219	88.5587	574.219	88.1354	574.219	87.7463	574.219	87.0671	574.219	86.718	574.219	85.6466	574.219	85.5094	574.219	83.9782	574.219	84.2383	574.219	82.368	574.219	83.0765	574.219	81.3507	574.219	82.3047	574.219	81.4582	574.219	82.3492	574.219	82.4802	574.219	83.2538	574.219	83.6585	574.219	84.3295	574.219	84.5417	574.219	84.9583	574.219	85.0006
594.727	91.2873	594.727	91.2575	594.727	91.2272	594.727	91.124	594.727	91.1006	594.727	90.8961	594.727	90.9238	594.727	90.5948	594.727	90.6861	594.727	90.2033	594.727	90.3367	594.727	89.6463	594.727	89.8099	594.727	88.8644	594.727	89.0885	594.727	87.915	594.727	88.2412	594.727	86.9343	594.727	87.3378	594.727	85.9316	594.727	86.2701	594.727	84.7563	594.727	84.7332	594.727	83.5004	594.727	82.6415	594.727	82.9041	594.727	81.1155	594.727	83.4689	594.727	81.629	594.727	84.5825	594.727	83.0327	594.727	85.6138	594.727	84.3556	594.727	86.2118	594.727	85.4677	594.727	86.1614
615.234	92.3043	615.234	92.1922	615.234	92.2856	615.234	92.0046	615.234	92.1052	615.234	91.7607	615.234	91.7826	615.234	91.4181	615.234	91.3779	615.234	90.9402	615.234	90.9587	615.234	90.3682	615.234	90.5392	615.234	89.763	615.234	90.0217	615.234	89.082	615.234	89.2435	615.234	88.1915	615.234	88.1399	615.234	87.0046	615.234	86.8656	615.234	85.6511	615.234	85.6711	615.234	84.6011	615.234	84.5803	615.234	84.4215	615.234	83.6425	615.234	85.0771	615.234	83.66	615.234	85.9884	615.234	84.9121	615.234	86.7327	615.234	86.2708	615.234	87.1844	615.234	87.075	615.234	87.3261
637.207	92.8305	637.207	92.822	637.207	92.7493	637.207	92.6897	637.207	92.5951	637.207	92.4575	637.207	92.3634	637.207	92.1991	637.207	92.0722	637.207	91.9132	637.207	91.7318	637.207	91.5068	637.207	91.2915	637.207	90.9282	637.207	90.6941	637.207	90.2112	637.207	89.9505	637.207	89.3301	637.207	89.0703	637.207	88.0803	637.207	87.9526	637.207	86.2116	637.207	86.4663	637.207	83.8263	637.207	84.7595	637.207	82.1974	637.207	83.6298	637.207	82.7357	637.207	84.0849	637.207	84.2012	637.207	85.6563	637.207	85.6377	637.207	87.113	637.207	86.8813	637.207	87.8254	637.207	87.6938
659.18	93.409	659.18	93.2314	659.18	93.4736	659.18	92.9398	659.18	93.3988	659.18	92.5146	659.18	93.1383	659.18	91.9804	659.18	92.6444	659.18	91.4127	659.18	91.9461	659.18	90.8168	659.18	91.1913	659.18	90.0996	659.18	90.5038	659.18	89.2091	659.18	89.7851	659.18	88.1888	659.18	88.806	659.18	87.0751	659.18	87.4299	659.18	85.8698	659.18	85.6078	659.18	84.6602	659.18	83.4083	659.18	83.7338	659.18	81.4892	659.18	83.8438	659.18	81.13	659.18	85.3645	659.18	82.3684	659.18	87.0572	659.18	84.1564	659.18	87.8055	659.18	85.9299	659.18	87.3251
682.617	93.4845	682.617	93.3563	682.617	93.4373	682.617	93.1156	682.617	93.1937	682.617	92.8059	682.617	92.7903	682.617	92.4085	682.617	92.3144	682.617	91.9094	682.617	91.8556	682.617	91.3669	682.617	91.4045	682.617	90.8146	682.617	90.8387	682.617	90.1726	682.617	90.0647	682.617	89.3498	682.617	89.1252	682.617	88.2799	682.617	88.0754	682.617	86.7889	682.617	86.7562	682.617	84.7112	682.617	84.9328	682.617	82.9599	682.617	82.9996	682.617	83.3786	682.617	82.8341	682.617	84.5633	682.617	84.705	682.617	85.1948	682.617	86.346	682.617	85.727	682.617	86.9059	682.617	86.4987
707.52	94.0782	707.52	93.9247	707.52	94.0277	707.52	93.5872	707.52	93.7561	707.52	93.1035	707.52	93.301	707.52	92.5316	707.52	92.7877	707.52	91.8896	707.52	92.292	707.52	91.1258	707.52	91.7108	707.52	90.1918	707.52	90.9459	707.52	89.1358	707.52	90.1083	707.52	88.0509	707.52	89.3064	707.52	86.9116	707.52	88.3225	707.52	85.5965	707.52	86.7813	707.52	84.1295	707.52	84.528	707.52	83.0965	707.52	81.9538	707.52	83.1455	707.52	80.5968	707.52	83.739	707.52	81.7229	707.52	84.6428	707.52	83.9008	707.52	85.7136	707.52	85.5726	707.52	86.1716
732.422	94.4213	732.422	94.2966	732.422	94.3464	732.422	93.9493	732.422	94.1221	732.422	93.3916	732.422	93.7721	732.422	92.6876	732.422	93.2411	732.422	91.9509	732.422	92.5063	732.422	91.2515	732.422	91.738	732.422	90.547	732.422	91.0984	732.422	89.7354	732.422	90.3968	732.422	88.6736	732.422	89.3529	732.422	87.1644	732.422	88.0366	732.422	85.0884	732.422	86.7958	732.422	82.7406	732.422	85.6148	732.422	81.1606	732.422	83.994	732.422	81.682	732.422	82.5047	732.422	84.1838	732.422	83.2315	732.422	86.834	732.422	85.1664	732.422	88.2542	732.422	86.9272	732.422	88.1511
757.324	95.1616	757.324	94.967	757.324	95.1379	757.324	94.5971	757.324	94.8447	757.324	94.0604	757.324	94.2754	757.324	93.3579	757.324	93.5065	757.324	92.5294	757.324	92.6722	757.324	91.6534	757.324	91.83	757.324	90.7871	757.324	90.8972	757.324	89.9098	757.324	89.8445	757.324	88.9356	757.324	88.7903	757.324	87.7483	757.324	87.669	757.324	86.1177	757.324	86.0557	757.324	83.6295	757.324	83.5638	757.324	80.3984	757.324	80.745	757.324	79.1415	757.324	80.1261	757.324	81.0223	757.324	81.848	757.324	83.1493	757.324	83.8028	757.324	84.6357	757.324	85.0774	757.324	85.3304
785.156	94.3601	785.156	94.1395	785.156	94.2933	785.156	93.6612	785.156	93.9636	785.156	93.0202	785.156	93.4103	785.156	92.2687	785.156	92.723	785.156	91.359	785.156	91.9774	785.156	90.2306	785.156	91.1116	785.156	88.9146	785.156	90.1011	785.156	87.5864	785.156	89.1264	785.156	86.3894	785.156	88.2106	785.156	85.1125	785.156	86.9898	785.156	83.394	785.156	85.2208	785.156	80.9331	785.156	83.1768	785.156	77.6799	785.156	81.3117	785.156	76.5923	785.156	79.5278	785.156	79.124	785.156	78.5367	785.156	80.5366	785.156	80.1627	785.156	80.8188	785.156	81.5417	785.156	81.3312
811.523	93.9017	811.523	93.6597	811.523	93.8735	811.523	93.152	811.523	93.5606	811.523	92.3494	811.523	93.0054	811.523	91.3114	811.523	92.2437	811.523	90.2491	811.523	91.2773	811.523	89.378	811.523	90.1963	811.523	88.6877	811.523	89.1253	811.523	87.9013	811.523	87.9647	811.523	86.7042	811.523	86.5422	811.523	85.0195	811.523	84.9828	811.523	83.0957	811.523	83.4704	811.523	80.9339	811.523	81.6636	811.523	78.2175	811.523	78.9023	811.523	77.8063	811.523	76.6765	811.523	80.6834	811.523	79.3092	811.523	83.4373	811.523	82.297	811.523	85.0711	811.523	84.1464	811.523	85.2157
840.82	94.8331	840.82	94.5494	840.82	94.7695	840.82	93.9862	840.82	94.3862	840.82	93.2144	840.82	93.7266	840.82	92.1961	840.82	92.7991	840.82	90.8943	840.82	91.6858	840.82	89.3797	840.82	90.529	840.82	87.6842	840.82	89.2882	840.82	85.8755	840.82	87.8278	840.82	84.3767	840.82	86.2459	840.82	83.4948	840.82	84.7757	840.82	82.3201	840.82	83.4439	840.82	79.6138	840.82	81.7617	840.82	76.0261	840.82	78.698	840.82	76.0893	840.82	74.262	840.82	79.5846	840.82	75.3866	840.82	82.1471	840.82	79.8054	840.82	83.6772	840.82	82.7506	840.82	84.0059
870.117	94.7861	870.117	94.5938	870.117	94.6413	870.117	93.9222	870.117	94.2176	870.117	92.8902	870.117	93.4162	870.117	91.7366	870.117	92.3031	870.117	90.4969	870.117	91.0875	870.117	89.2375	870.117	89.7766	870.117	88.1758	870.117	88.3466	870.117	87.0628	870.117	86.9905	870.117	85.3458	870.117	85.7794	870.117	83.2661	870.117	84.501	870.117	81.878	870.117	83.0623	870.117	80.4457	870.117	81.34	870.117	76.523	870.117	78.2417	870.117	69.5015	870.117	72.7953	870.117	74.519	870.117	72.466	870.117	79.4377	870.117	78.441	870.117	82.043	870.117	82.0132	870.117	83.0282
900.879	95.8974	900.879	95.5348	900.879	95.7977	900.879	95.0066	900.879	95.238	900.879	94.2465	900.879	94.4736	900.879	92.9567	900.879	93.4451	900.879	91.2852	900.879	91.9948	900.879	89.4946	900.879	90.3277	900.879	87.4413	900.879	88.6994	900.879	85.2259	900.879	87.0793	900.879	83.6274	900.879	85.4236	900.879	83.1498	900.879	83.9335	900.879	82.6035	900.879	82.8706	900.879	80.5388	900.879	81.9577	900.879	77.441	900.879	81.0347	900.879	73.9383	900.879	79.1305	900.879	71.4107	900.879	74.7078	900.879	76.4516	900.879	76.014	900.879	79.7887	900.879	78.9306	900.879	80.4786
933.105	96.2808	933.105	96.0192	933.105	96.2066	933.105	95.3881	933.105	95.6716	933.105	94.3605	933.105	94.7298	933.105	93.1086	933.105	93.6331	933.105	91.7151	933.105	92.3444	933.105	90.0709	933.105	90.7374	933.105	88.242	933.105	88.9971	933.105	86.4426	933.105	87.1137	933.105	84.3501	933.105	85.0439	933.105	81.5058	933.105	83.159	933.105	79.672	933.105	81.2874	933.105	79.0406	933.105	79.9312	933.105	76.0238	933.105	78.8753	933.105	69.0711	933.105	75.2684	933.105	73.9693	933.105	71.0727	933.105	78.521	933.105	74.4425	933.105	79.5077	933.105	77.708	933.105	78.9253
965.332	95.9597	965.332	95.8425	965.332	95.7634	965.332	95.2971	965.332	95.3198	965.332	94.2871	965.332	94.5206	965.332	92.9472	965.332	93.2829	965.332	91.4493	965.332	91.7718	965.332	89.6886	965.332	90.0764	965.332	87.5168	965.332	88.1287	965.332	85.0749	965.332	86.0822	965.332	82.466	965.332	83.668	965.332	79.7089	965.332	80.3915	965.332	77.0074	965.332	77.9237	965.332	76.1139	965.332	76.6907	965.332	76.4295	965.332	75.8492	965.332	72.569	965.332	74.4751	965.332	69.3658	965.332	69.5031	965.332	72.5353	965.332	72.2831	965.332	73.2529	965.332	75.0569	965.332	74.4403
1,000.49	95.3994	1,000.49	95.2432	1,000.49	95.263	1,000.49	94.5774	1,000.49	94.8905	1,000.49	93.6288	1,000.49	94.0443	1,000.49	92.607	1,000.49	92.731	1,000.49	91.1394	1,000.49	91.1587	1,000.49	89.0681	1,000.49	89.4063	1,000.49	86.831	1,000.49	87.4616	1,000.49	84.4031	1,000.49	85.1824	1,000.49	81.0245	1,000.49	82.2082	1,000.49	75.6335	1,000.49	78.417	1,000.49	65.4401	1,000.49	74.3346	1,000.49	69.596	1,000.49	71.0625	1,000.49	70.3958	1,000.49	70.5068	1,000.49	67.6254	1,000.49	68.5376	1,000.49	65.9049	1,000.49	59.6797	1,000.49	65.2664	1,000.49	69.3612	1,000.49	59.8714	1,000.49	66.9141	1,000.49	60.5221
1,035.64	94.8299	1,035.64	94.5188	1,035.64	94.6345	1,035.64	94.033	1,035.64	94.0449	1,035.64	93.3043	1,035.64	93.3577	1,035.64	91.9871	1,035.64	92.3099	1,035.64	90.2603	1,035.64	90.6495	1,035.64	88.4498	1,035.64	88.6541	1,035.64	86.3964	1,035.64	86.4873	1,035.64	83.8943	1,035.64	84.081	1,035.64	80.7254	1,035.64	81.7067	1,035.64	76.0437	1,035.64	78.6315	1,035.64	68.7586	1,035.64	72.4757	1,035.64	57.3758	1,035.64	61.7452	1,035.64	67.9553	1,035.64	58.4463	1,035.64	71.0315	1,035.64	59.8472	1,035.64	65.7546	1,035.64	65.9771	1,035.64	60.5556	1,035.64	53.3144	1,035.64	65.2884	1,035.64	64.6561	1,035.64	63.9081
1,072.27	93.8438	1,072.27	93.6344	1,072.27	93.6575	1,072.27	93.0761	1,072.27	93.2221	1,072.27	92.3095	1,072.27	92.5621	1,072.27	91.2488	1,072.27	91.5436	1,072.27	89.7743	1,072.27	90.1849	1,072.27	88.0026	1,072.27	88.5823	1,072.27	85.9432	1,072.27	86.6448	1,072.27	83.2635	1,072.27	84.3013	1,072.27	80.225	1,072.27	81.6583	1,072.27	78.1082	1,072.27	78.7204	1,072.27	75.7472	1,072.27	75.1273	1,072.27	71.9717	1,072.27	70.4103	1,072.27	71.1238	1,072.27	68.5282	1,072.27	69.07	1,072.27	69.5155	1,072.27	69.5631	1,072.27	64.1036	1,072.27	72.293	1,072.27	56.8392	1,072.27	70.3751	1,072.27	60.6977	1,072.27	65.8015
1,108.89	92.7202	1,108.89	92.5384	1,108.89	92.6091	1,108.89	92.0259	1,108.89	92.3081	1,108.89	91.3159	1,108.89	91.7469	1,108.89	90.4784	1,108.89	90.8743	1,108.89	89.3712	1,108.89	89.8535	1,108.89	87.7716	1,108.89	88.5593	1,108.89	85.6101	1,108.89	86.5516	1,108.89	83.1539	1,108.89	84.0343	1,108.89	80.5231	1,108.89	81.7598	1,108.89	77.1448	1,108.89	79.3721	1,108.89	74.6686	1,108.89	76.7062	1,108.89	74.787	1,108.89	74.9865	1,108.89	73.2479	1,108.89	73.0621	1,108.89	69.9668	1,108.89	71.589	1,108.89	72.2946	1,108.89	72.216	1,108.89	73.7656	1,108.89	70.8218	1,108.89	72.6534	1,108.89	68.0058	1,108.89	70.3019
1,148.44	91.7912	1,148.44	91.5326	1,148.44	91.8379	1,148.44	91.1234	1,148.44	91.5763	1,148.44	90.4409	1,148.44	91.0934	1,148.44	89.3678	1,148.44	90.4561	1,148.44	88.276	1,148.44	89.3708	1,148.44	87.2761	1,148.44	88.0485	1,148.44	85.9684	1,148.44	86.8699	1,148.44	84.3075	1,148.44	85.1421	1,148.44	81.9642	1,148.44	82.6389	1,148.44	79.267	1,148.44	80.1621	1,148.44	78.1722	1,148.44	78.2682	1,148.44	77.5281	1,148.44	77.4352	1,148.44	76.957	1,148.44	76.5976	1,148.44	76.3854	1,148.44	74.8208	1,148.44	74.4716	1,148.44	73.0002	1,148.44	74.6434	1,148.44	74.4308	1,148.44	76.748	1,148.44	76.6709	1,148.44	77.4468
1,189.45	90.7764	1,189.45	90.4506	1,189.45	90.7975	1,189.45	89.9493	1,189.45	90.4081	1,189.45	89.1742	1,189.45	89.9342	1,189.45	88.234	1,189.45	89.2846	1,189.45	87.1911	1,189.45	88.3469	1,189.45	86.0288	1,189.45	87.3339	1,189.45	84.7453	1,189.45	85.7931	1,189.45	82.8519	1,189.45	83.7975	1,189.45	80.2874	1,189.45	82.2004	1,189.45	79.4001	1,189.45	80.8637	1,189.45	79.7104	1,189.45	80.5978	1,189.45	79.6073	1,189.45	81.0561	1,189.45	78.9212	1,189.45	80.4527	1,189.45	76.26	1,189.45	78.4474	1,189.45	75.2425	1,189.45	74.8487	1,189.45	76.7107	1,189.45	74.8572	1,189.45	77.2397	1,189.45	77.6826	1,189.45	78.2051
1,230.47	92.9078	1,230.47	92.6276	1,230.47	92.8804	1,230.47	92.0848	1,230.47	92.6491	1,230.47	91.2388	1,230.47	92.1284	1,230.47	90.1544	1,230.47	91.2853	1,230.47	89.0661	1,230.47	90.212	1,230.47	87.702	1,230.47	89.0129	1,230.47	85.9334	1,230.47	87.6778	1,230.47	83.632	1,230.47	85.907	1,230.47	81.1524	1,230.47	83.9087	1,230.47	79.9671	1,230.47	82.3142	1,230.47	78.9631	1,230.47	81.453	1,230.47	77.5346	1,230.47	81.0251	1,230.47	75.535	1,230.47	79.1772	1,230.47	74.2243	1,230.47	75.1783	1,230.47	73.3141	1,230.47	72.8229	1,230.47	75.5775	1,230.47	74.4099	1,230.47	77.6234	1,230.47	76.8938	1,230.47	77.7342
1,274.41	92.4471	1,274.41	92.2561	1,274.41	92.3868	1,274.41	91.7423	1,274.41	92.0797	1,274.41	91.0171	1,274.41	91.5798	1,274.41	90.2096	1,274.41	90.877	1,274.41	89.2354	1,274.41	90.1519	1,274.41	88.3957	1,274.41	89.3417	1,274.41	87.0997	1,274.41	88.088	1,274.41	85.0371	1,274.41	86.589	1,274.41	83.6732	1,274.41	84.7035	1,274.41	82.8072	1,274.41	82.7614	1,274.41	82.5419	1,274.41	82.4442	1,274.41	82.4769	1,274.41	82.2059	1,274.41	81.0769	1,274.41	81.5859	1,274.41	77.2647	1,274.41	80.161	1,274.41	71.2852	1,274.41	75.5482	1,274.41	76.1941	1,274.41	76.7619	1,274.41	79.0965	1,274.41	79.5718	1,274.41	80.0751
1,319.82	92.6587	1,319.82	92.581	1,319.82	92.5947	1,319.82	92.2293	1,319.82	92.3688	1,319.82	91.6704	1,319.82	91.8558	1,319.82	90.8701	1,319.82	91.111	1,319.82	89.816	1,319.82	90.3298	1,319.82	89.0364	1,319.82	89.4911	1,319.82	88.4037	1,319.82	88.5273	1,319.82	87.5383	1,319.82	87.0698	1,319.82	85.7762	1,319.82	84.9413	1,319.82	82.7857	1,319.82	83.5683	1,319.82	82.6884	1,319.82	83.2489	1,319.82	83.6878	1,319.82	83.7081	1,319.82	82.3419	1,319.82	83.5139	1,319.82	78.3699	1,319.82	80.5918	1,319.82	73.7069	1,319.82	75.1454	1,319.82	76.7029	1,319.82	73.5409	1,319.82	80.0588	1,319.82	78.6418	1,319.82	80.7316
1,366.7	92.0498	1,366.7	91.9624	1,366.7	91.9373	1,366.7	91.7536	1,366.7	91.5627	1,366.7	91.3922	1,366.7	91.2563	1,366.7	90.968	1,366.7	90.8448	1,366.7	90.432	1,366.7	90.2273	1,366.7	89.5537	1,366.7	89.6962	1,366.7	88.5164	1,366.7	88.8794	1,366.7	87.7378	1,366.7	87.6003	1,366.7	85.7543	1,366.7	86.1749	1,366.7	83.6132	1,366.7	84.4987	1,366.7	84.1589	1,366.7	84.1314	1,366.7	83.9746	1,366.7	84.8827	1,366.7	83.521	1,366.7	84.4726	1,366.7	81.5107	1,366.7	82.2449	1,366.7	76.108	1,366.7	77.7177	1,366.7	74.7418	1,366.7	74.7536	1,366.7	79.3713	1,366.7	79.0041	1,366.7	80.3949
1,413.57	89.8291	1,413.57	89.8563	1,413.57	89.549	1,413.57	89.8273	1,413.57	89.4685	1,413.57	89.8004	1,413.57	89.2403	1,413.57	89.6943	1,413.57	88.7223	1,413.57	89.594	1,413.57	88.417	1,413.57	89.2311	1,413.57	88.1517	1,413.57	88.8969	1,413.57	88.1597	1,413.57	87.841	1,413.57	88.0534	1,413.57	86.2951	1,413.57	86.5638	1,413.57	85.6859	1,413.57	84.79	1,413.57	85.2078	1,413.57	84.2263	1,413.57	86.306	1,413.57	84.7584	1,413.57	86.2438	1,413.57	84.8985	1,413.57	83.6054	1,413.57	83.6799	1,413.57	78.0285	1,413.57	78.8879	1,413.57	77.9049	1,413.57	74.7498	1,413.57	81.3225	1,413.57	81.1041	1,413.57	82.9306
1,463.38	90.2986	1,463.38	90.2808	1,463.38	90.069	1,463.38	90.1005	1,463.38	89.8639	1,463.38	89.8236	1,463.38	89.3225	1,463.38	89.3368	1,463.38	88.4881	1,463.38	88.6687	1,463.38	87.6421	1,463.38	88.2834	1,463.38	86.9581	1,463.38	88.0556	1,463.38	86.7711	1,463.38	87.2404	1,463.38	86.3466	1,463.38	86.7135	1,463.38	85.5279	1,463.38	85.3679	1,463.38	83.3328	1,463.38	84.7843	1,463.38	81.5791	1,463.38	85.3888	1,463.38	83.8463	1,463.38	85.8351	1,463.38	85.1109	1,463.38	83.8835	1,463.38	83.3398	1,463.38	78.8803	1,463.38	78.8395	1,463.38	77.9437	1,463.38	75.3212	1,463.38	80.6527	1,463.38	79.5557	1,463.38	81.6016
1,516.11	91.5007	1,516.11	91.3673	1,516.11	91.4204	1,516.11	90.8221	1,516.11	91.1529	1,516.11	90.2514	1,516.11	90.6648	1,516.11	89.4809	1,516.11	89.8899	1,516.11	88.434	1,516.11	88.8474	1,516.11	87.5423	1,516.11	87.7535	1,516.11	86.8066	1,516.11	86.6532	1,516.11	86.1414	1,516.11	85.6475	1,516.11	85.0454	1,516.11	84.4894	1,516.11	83.3351	1,516.11	83.1315	1,516.11	82.2024	1,516.11	81.5787	1,516.11	82.8407	1,516.11	81.403	1,516.11	82.8705	1,516.11	82.1301	1,516.11	80.2869	1,516.11	81.3742	1,516.11	77.2864	1,516.11	77.3492	1,516.11	75.9919	1,516.11	72.5311	1,516.11	79.5936	1,516.11	76.105	1,516.11	79.8525
1,568.85	91.7507	1,568.85	91.5592	1,568.85	91.7246	1,568.85	91.0682	1,568.85	91.3872	1,568.85	90.2372	1,568.85	90.8823	1,568.85	89.399	1,568.85	90.1764	1,568.85	88.431	1,568.85	89.3938	1,568.85	87.2286	1,568.85	88.1352	1,568.85	85.9294	1,568.85	87.1173	1,568.85	85.0961	1,568.85	86.1493	1,568.85	84.365	1,568.85	85.428	1,568.85	82.558	1,568.85	83.9244	1,568.85	80.5738	1,568.85	82.3388	1,568.85	81.2276	1,568.85	81.9992	1,568.85	81.5908	1,568.85	82.1473	1,568.85	79.6409	1,568.85	81.0606	1,568.85	74.7546	1,568.85	77.9202	1,568.85	71.2842	1,568.85	70.3784	1,568.85	76.7533	1,568.85	74.561	1,568.85	77.1549
1,624.51	92.219	1,624.51	91.8615	1,624.51	92.1897	1,624.51	91.3922	1,624.51	92.0302	1,624.51	90.6423	1,624.51	91.4649	1,624.51	89.78	1,624.51	90.7932	1,624.51	88.6582	1,624.51	89.871	1,624.51	87.4517	1,624.51	88.7676	1,624.51	86.1193	1,624.51	87.6191	1,624.51	85.4322	1,624.51	86.6631	1,624.51	84.6659	1,624.51	86.0582	1,624.51	82.9263	1,624.51	84.5165	1,624.51	80.3076	1,624.51	82.8336	1,624.51	81.1566	1,624.51	82.2718	1,624.51	81.9134	1,624.51	82.3836	1,624.51	79.835	1,624.51	81.8044	1,624.51	74.8635	1,624.51	78.8321	1,624.51	71.0313	1,624.51	71.1994	1,624.51	77.3326	1,624.51	74.9362	1,624.51	78.5151
1,681.64	92.6339	1,681.64	92.282	1,681.64	92.5787	1,681.64	91.7754	1,681.64	92.3197	1,681.64	91.1121	1,681.64	91.8958	1,681.64	90.1596	1,681.64	91.097	1,681.64	89.0684	1,681.64	90.2933	1,681.64	87.9565	1,681.64	89.3593	1,681.64	86.5685	1,681.64	88.1993	1,681.64	85.5836	1,681.64	87.6823	1,681.64	85.1864	1,681.64	86.4405	1,681.64	83.6043	1,681.64	85.1106	1,681.64	80.4926	1,681.64	83.3455	1,681.64	81.2431	1,681.64	82.2825	1,681.64	81.8996	1,681.64	82.5308	1,681.64	81.393	1,681.64	82.6654	1,681.64	75.2714	1,681.64	79.6105	1,681.64	70.2574	1,681.64	71.9828	1,681.64	75.891	1,681.64	74.4519	1,681.64	77.236
1,741.7	92.6476	1,741.7	92.4698	1,741.7	92.3638	1,741.7	91.9892	1,741.7	92.1148	1,741.7	91.5284	1,741.7	91.6302	1,741.7	90.6132	1,741.7	90.785	1,741.7	89.6407	1,741.7	90.0968	1,741.7	88.4238	1,741.7	89.3373	1,741.7	87.4738	1,741.7	88.3467	1,741.7	86.145	1,741.7	86.9126	1,741.7	86.02	1,741.7	85.9102	1,741.7	84.5888	1,741.7	85.0391	1,741.7	81.1215	1,741.7	83.0753	1,741.7	80.8731	1,741.7	81.4141	1,741.7	82.3387	1,741.7	82.5255	1,741.7	81.5884	1,741.7	82.7725	1,741.7	77.4912	1,741.7	78.8594	1,741.7	71.2679	1,741.7	71.7654	1,741.7	76.6321	1,741.7	76.6355	1,741.7	79.2593
1,803.22	91.9326	1,803.22	91.8643	1,803.22	91.7882	1,803.22	91.6473	1,803.22	91.313	1,803.22	91.1191	1,803.22	90.6556	1,803.22	90.5283	1,803.22	90.0133	1,803.22	89.6933	1,803.22	89.1066	1,803.22	88.4456	1,803.22	88.1283	1,803.22	87.71	1,803.22	86.8872	1,803.22	86.6108	1,803.22	85.961	1,803.22	86.4674	1,803.22	85.4163	1,803.22	84.8824	1,803.22	84.2532	1,803.22	82.4183	1,803.22	81.8565	1,803.22	81.4786	1,803.22	79.9514	1,803.22	82.5589	1,803.22	80.9368	1,803.22	82.5219	1,803.22	81.7758	1,803.22	78.3855	1,803.22	79.3452	1,803.22	70.2012	1,803.22	72.084	1,803.22	75.6122	1,803.22	74.4233	1,803.22	76.9706
1,866.21	90.7729	1,866.21	90.7915	1,866.21	90.7082	1,866.21	90.742	1,866.21	90.4026	1,866.21	90.2941	1,866.21	89.7492	1,866.21	90.0231	1,866.21	89.1418	1,866.21	89.3774	1,866.21	88.2571	1,866.21	88.6333	1,866.21	87.2977	1,866.21	87.8129	1,866.21	86.3344	1,866.21	86.4932	1,866.21	85.6888	1,866.21	86.2475	1,866.21	84.7874	1,866.21	84.7898	1,866.21	84.0327	1,866.21	82.8762	1,866.21	82.1474	1,866.21	81.3622	1,866.21	80.6687	1,866.21	82.3012	1,866.21	80.2662	1,866.21	81.9346	1,866.21	81.578	1,866.21	78.0197	1,866.21	79.5378	1,866.21	72.8891	1,866.21	73.6555	1,866.21	76.1651	1,866.21	73.2164	1,866.21	78.5194
1,932.13	90.3318	1,932.13	90.3371	1,932.13	90.4567	1,932.13	90.2638	1,932.13	90.3419	1,932.13	89.8243	1,932.13	90.0895	1,932.13	89.5122	1,932.13	89.4755	1,932.13	88.8859	1,932.13	88.6253	1,932.13	88.3418	1,932.13	87.9688	1,932.13	87.5706	1,932.13	87.446	1,932.13	86.0841	1,932.13	86.2833	1,932.13	85.4724	1,932.13	85.5309	1,932.13	84.736	1,932.13	84.8073	1,932.13	82.5908	1,932.13	83.9582	1,932.13	80.6606	1,932.13	80.9358	1,932.13	81.8087	1,932.13	80.2126	1,932.13	81.2986	1,932.13	81.5095	1,932.13	77.6262	1,932.13	80.562	1,932.13	71.4239	1,932.13	73.4373	1,932.13	75.8674	1,932.13	72.5883	1,932.13	76.3086
1,999.51	91.0673	1,999.51	90.99	1,999.51	91.197	1,999.51	90.6006	1,999.51	91.0672	1,999.51	90.1259	1,999.51	91.0189	1,999.51	89.4723	1,999.51	90.4029	1,999.51	88.5836	1,999.51	89.5864	1,999.51	87.7806	1,999.51	89.1603	1,999.51	87.098	1,999.51	88.3519	1,999.51	85.6478	1,999.51	87.5222	1,999.51	84.6042	1,999.51	86.6621	1,999.51	84.1815	1,999.51	85.571	1,999.51	82.4889	1,999.51	84.3689	1,999.51	79.6936	1,999.51	82.7345	1,999.51	80.2405	1,999.51	81.5682	1,999.51	80.9684	1,999.51	82.4749	1,999.51	77.3013	1,999.51	80.8404	1,999.51	69.2031	1,999.51	74.6985	1,999.51	76.283	1,999.51	74.0062	1,999.51	78.2309
2,069.82	91.7098	2,069.82	91.5203	2,069.82	91.8839	2,069.82	91.1285	2,069.82	91.7997	2,069.82	90.8334	2,069.82	91.6047	2,069.82	90.115	2,069.82	91.0228	2,069.82	89.2383	2,069.82	90.331	2,069.82	88.1351	2,069.82	89.6175	2,069.82	87.4863	2,069.82	88.542	2,069.82	86.2942	2,069.82	88.0528	2,069.82	84.8872	2,069.82	86.5447	2,069.82	83.7877	2,069.82	85.4444	2,069.82	82.964	2,069.82	84.8792	2,069.82	80.644	2,069.82	83.2134	2,069.82	79.2606	2,069.82	81.1487	2,069.82	80.7699	2,069.82	81.3871	2,069.82	78.6055	2,069.82	80.3782	2,069.82	69.6072	2,069.82	74.4787	2,069.82	76.3317	2,069.82	74.8684	2,069.82	77.974
2,143.07	91.272	2,143.07	91.3531	2,143.07	91.2	2,143.07	91.1304	2,143.07	91.1892	2,143.07	91.1194	2,143.07	90.8991	2,143.07	90.752	2,143.07	90.4774	2,143.07	90.0845	2,143.07	90.1014	2,143.07	89.1427	2,143.07	89.1497	2,143.07	88.3486	2,143.07	87.8439	2,143.07	87.2003	2,143.07	87.2312	2,143.07	85.9404	2,143.07	85.8007	2,143.07	84.0263	2,143.07	84.6477	2,143.07	83.3601	2,143.07	83.9157	2,143.07	81.3356	2,143.07	82.0081	2,143.07	80.5912	2,143.07	80.0537	2,143.07	81.0746	2,143.07	80.4183	2,143.07	79.9454	2,143.07	79.9423	2,143.07	71.812	2,143.07	72.5469	2,143.07	74.3793	2,143.07	72.7131	2,143.07	76.4635
2,219.24	90.2006	2,219.24	90.4014	2,219.24	89.8553	2,219.24	90.2846	2,219.24	89.8943	2,219.24	90.5887	2,219.24	89.4436	2,219.24	90.12	2,219.24	89.2788	2,219.24	89.9307	2,219.24	88.7722	2,219.24	88.9076	2,219.24	87.4939	2,219.24	88.2203	2,219.24	86.8343	2,219.24	87.4275	2,219.24	85.9596	2,219.24	86.5286	2,219.24	84.9311	2,219.24	85.6808	2,219.24	83.2109	2,219.24	84.3746	2,219.24	82.8624	2,219.24	82.8642	2,219.24	81.007	2,219.24	80.5077	2,219.24	78.4888	2,219.24	81.8325	2,219.24	80.4341	2,219.24	80.5837	2,219.24	80.151	2,219.24	73.6459	2,219.24	73.907	2,219.24	72.7818	2,219.24	70.4463	2,219.24	76.6152
2,296.88	90.3271	2,296.88	90.1741	2,296.88	90.2334	2,296.88	90.0928	2,296.88	90.0098	2,296.88	89.8876	2,296.88	89.8089	2,296.88	89.677	2,296.88	89.7021	2,296.88	89.4256	2,296.88	89.2332	2,296.88	88.7708	2,296.88	88.5685	2,296.88	87.723	2,296.88	87.5559	2,296.88	87.2514	2,296.88	86.6987	2,296.88	86.4081	2,296.88	86.22	2,296.88	84.7904	2,296.88	84.9809	2,296.88	84.1259	2,296.88	83.9946	2,296.88	82.1586	2,296.88	82.991	2,296.88	80.7907	2,296.88	80.6318	2,296.88	81.0632	2,296.88	80.4023	2,296.88	78.9204	2,296.88	80.6988	2,296.88	71.6031	2,296.88	76.0595	2,296.88	74.4445	2,296.88	69.011	2,296.88	76.0226
2,378.91	91.5616	2,378.91	91.2956	2,378.91	91.8294	2,378.91	90.5181	2,378.91	91.6886	2,378.91	89.8567	2,378.91	91.5463	2,378.91	89.3628	2,378.91	91.3964	2,378.91	88.8007	2,378.91	90.8882	2,378.91	88.1905	2,378.91	90.3773	2,378.91	87.1025	2,378.91	89.483	2,378.91	86.3357	2,378.91	88.4359	2,378.91	85.3406	2,378.91	87.7497	2,378.91	84.0895	2,378.91	86.6474	2,378.91	83.2101	2,378.91	85.3767	2,378.91	81.9983	2,378.91	84.3998	2,378.91	79.0621	2,378.91	82.576	2,378.91	80.3687	2,378.91	81.9332	2,378.91	79.0521	2,378.91	81.8858	2,378.91	69.8132	2,378.91	78.4448	2,378.91	74.483	2,378.91	71.6126	2,378.91	76.4244
2,462.4	93.2797	2,462.4	93.1187	2,462.4	93.2227	2,462.4	92.7306	2,462.4	92.9531	2,462.4	92.0847	2,462.4	92.6452	2,462.4	91.3348	2,462.4	92.1391	2,462.4	90.4408	2,462.4	91.7015	2,462.4	89.6069	2,462.4	91.0653	2,462.4	88.5251	2,462.4	89.9979	2,462.4	86.9803	2,462.4	89.0812	2,462.4	86.4035	2,462.4	88.397	2,462.4	84.8554	2,462.4	87.3489	2,462.4	84.1467	2,462.4	85.8214	2,462.4	83.355	2,462.4	85.2556	2,462.4	81.0814	2,462.4	83.0965	2,462.4	81.5306	2,462.4	82.711	2,462.4	81.7189	2,462.4	83.3751	2,462.4	75.1234	2,462.4	78.9375	2,462.4	74.6016	2,462.4	73.4919	2,462.4	78.5768
2,548.83	92.9916	2,548.83	93.0466	2,548.83	92.6704	2,548.83	92.8338	2,548.83	92.1755	2,548.83	92.4596	2,548.83	91.5811	2,548.83	91.9976	2,548.83	91.1108	2,548.83	91.5457	2,548.83	90.5205	2,548.83	90.8242	2,548.83	90.0341	2,548.83	89.6943	2,548.83	89.2881	2,548.83	88.6699	2,548.83	88.072	2,548.83	87.9708	2,548.83	87.0536	2,548.83	86.7013	2,548.83	86.3305	2,548.83	85.4864	2,548.83	84.854	2,548.83	85.0026	2,548.83	84.8089	2,548.83	82.8902	2,548.83	82.8007	2,548.83	82.4335	2,548.83	81.2303	2,548.83	82.606	2,548.83	82.7829	2,548.83	77.4784	2,548.83	78.7186	2,548.83	76.1531	2,548.83	71.4183	2,548.83	78.9701
2,639.65	92.2225	2,639.65	92.1161	2,639.65	91.9452	2,639.65	91.6476	2,639.65	91.282	2,639.65	91.17	2,639.65	90.4946	2,639.65	90.901	2,639.65	89.7558	2,639.65	90.4609	2,639.65	89.199	2,639.65	89.9268	2,639.65	88.729	2,639.65	89.3917	2,639.65	88.243	2,639.65	88.3956	2,639.65	87.4237	2,639.65	87.4591	2,639.65	86.2727	2,639.65	86.4454	2,639.65	85.6524	2,639.65	84.7511	2,639.65	83.9132	2,639.65	84.5599	2,639.65	83.6012	2,639.65	82.7064	2,639.65	82.896	2,639.65	82.1261	2,639.65	80.2088	2,639.65	82.1512	2,639.65	81.7347	2,639.65	76.2611	2,639.65	79.1131	2,639.65	75.0844	2,639.65	68.9323	2,639.65	77.824
2,731.93	92.3415	2,731.93	91.9719	2,731.93	92.2249	2,731.93	91.099	2,731.93	91.6998	2,731.93	90.2033	2,731.93	90.9896	2,731.93	89.382	2,731.93	90.0214	2,731.93	88.88	2,731.93	89.4166	2,731.93	88.3584	2,731.93	88.7702	2,731.93	87.943	2,731.93	88.1401	2,731.93	86.9077	2,731.93	87.3272	2,731.93	86.2628	2,731.93	86.3326	2,731.93	85.5896	2,731.93	85.8801	2,731.93	83.135	2,731.93	84.0166	2,731.93	82.8082	2,731.93	82.9468	2,731.93	81.327	2,731.93	82.526	2,731.93	80.3291	2,731.93	80.413	2,731.93	80.2495	2,731.93	81.1072	2,731.93	74.6434	2,731.93	78.8185	2,731.93	73.6829	2,731.93	68.6754	2,731.93	76.4217
2,828.61	92.729	2,828.61	92.3573	2,828.61	92.6895	2,828.61	91.6707	2,828.61	92.2766	2,828.61	90.8391	2,828.61	91.6115	2,828.61	90.0415	2,828.61	90.9236	2,828.61	89.2089	2,828.61	90.3553	2,828.61	88.3839	2,828.61	89.2346	2,828.61	87.8843	2,828.61	88.7202	2,828.61	86.6511	2,828.61	87.7528	2,828.61	85.8013	2,828.61	86.5216	2,828.61	85.7105	2,828.61	86.35	2,828.61	83.176	2,828.61	84.5282	2,828.61	82.1578	2,828.61	82.9819	2,828.61	81.1421	2,828.61	82.7703	2,828.61	79.7812	2,828.61	79.9029	2,828.61	80.7664	2,828.61	81.1644	2,828.61	74.4575	2,828.61	79.1907	2,828.61	72.9764	2,828.61	71.9371	2,828.61	75.8637
2,928.22	92.6874	2,928.22	92.5795	2,928.22	92.5676	2,928.22	92.1701	2,928.22	92.3161	2,928.22	91.3268	2,928.22	91.5079	2,928.22	90.4677	2,928.22	90.956	2,928.22	90.0398	2,928.22	90.5259	2,928.22	89.4061	2,928.22	90.0499	2,928.22	88.6509	2,928.22	89.1857	2,928.22	87.9405	2,928.22	88.6864	2,928.22	86.8973	2,928.22	87.5689	2,928.22	86.7025	2,928.22	87.1979	2,928.22	85.2344	2,928.22	86.3385	2,928.22	83.5498	2,928.22	84.2038	2,928.22	83.3867	2,928.22	84.3205	2,928.22	80.6354	2,928.22	81.3315	2,928.22	82.1712	2,928.22	82.2818	2,928.22	77.1129	2,928.22	80.7217	2,928.22	75.3746	2,928.22	72.3593	2,928.22	79.0764
3,030.76	93.5421	3,030.76	93.3382	3,030.76	93.1773	3,030.76	92.7041	3,030.76	92.7692	3,030.76	91.7046	3,030.76	91.5381	3,030.76	90.3736	3,030.76	90.1725	3,030.76	89.5423	3,030.76	89.2944	3,030.76	88.9178	3,030.76	89.0068	3,030.76	88.0437	3,030.76	88.1238	3,030.76	87.8757	3,030.76	88.0266	3,030.76	86.6784	3,030.76	87.3398	3,030.76	86.7596	3,030.76	86.8596	3,030.76	86.0811	3,030.76	86.7992	3,030.76	84.3857	3,030.76	84.5122	3,030.76	84.1674	3,030.76	84.9185	3,030.76	81.9491	3,030.76	82.6708	3,030.76	82.8114	3,030.76	82.737	3,030.76	79.355	3,030.76	81.4534	3,030.76	75.5235	3,030.76	72.7266	3,030.76	79.3014
3,137.7	92.3955	3,137.7	92.3276	3,137.7	92.3642	3,137.7	92.4249	3,137.7	92.3131	3,137.7	92.176	3,137.7	92.0663	3,137.7	91.3521	3,137.7	91.4039	3,137.7	90.2142	3,137.7	90.0075	3,137.7	89.4619	3,137.7	89.1877	3,137.7	88.1071	3,137.7	87.986	3,137.7	87.5129	3,137.7	87.1927	3,137.7	86.6324	3,137.7	86.8102	3,137.7	86.0741	3,137.7	85.7666	3,137.7	86.1474	3,137.7	86.4891	3,137.7	84.2512	3,137.7	84.164	3,137.7	84.5438	3,137.7	84.0686	3,137.7	82.5023	3,137.7	82.9238	3,137.7	83.0868	3,137.7	81.6564	3,137.7	79.7449	3,137.7	81.4369	3,137.7	76.0366	3,137.7	71.0202	3,137.7	79.2735
3,249.02	92.7658	3,249.02	92.4569	3,249.02	92.7486	3,249.02	91.9127	3,249.02	92.5418	3,249.02	91.425	3,249.02	92.0921	3,249.02	90.8359	3,249.02	91.5	3,249.02	89.857	3,249.02	90.5305	3,249.02	89.2746	3,249.02	89.6704	3,249.02	88.0985	3,249.02	88.5989	3,249.02	86.5363	3,249.02	86.9582	3,249.02	85.4978	3,249.02	85.7482	3,249.02	84.5799	3,249.02	84.4921	3,249.02	84.6725	3,249.02	84.6962	3,249.02	82.501	3,249.02	83.1716	3,249.02	82.9022	3,249.02	82.5624	3,249.02	81.1072	3,249.02	81.9603	3,249.02	81.3392	3,249.02	80.0436	3,249.02	77.911	3,249.02	80.0694	3,249.02	74.5196	3,249.02	69.9155	3,249.02	76.8392
3,363.28	92.9469	3,363.28	92.7921	3,363.28	92.7714	3,363.28	92.2195	3,363.28	92.56	3,363.28	91.4841	3,363.28	92.0489	3,363.28	91.0035	3,363.28	91.5556	3,363.28	89.8651	3,363.28	90.5229	3,363.28	88.4505	3,363.28	89.2542	3,363.28	87.3727	3,363.28	88.2369	3,363.28	85.8001	3,363.28	86.5623	3,363.28	84.1149	3,363.28	85.2743	3,363.28	81.9985	3,363.28	83.1433	3,363.28	81.8771	3,363.28	82.4853	3,363.28	79.9898	3,363.28	80.7506	3,363.28	79.6544	3,363.28	79.4334	3,363.28	77.5829	3,363.28	79.4317	3,363.28	77.685	3,363.28	76.9654	3,363.28	74.539	3,363.28	77.4734	3,363.28	71.0748	3,363.28	66.8934	3,363.28	74.7275
3,481.93	92.5507	3,481.93	92.5548	3,481.93	92.3289	3,481.93	92.3754	3,481.93	91.8607	3,481.93	91.9591	3,481.93	91.361	3,481.93	91.4903	3,481.93	90.9189	3,481.93	90.6594	3,481.93	90.2043	3,481.93	89.6882	3,481.93	89.1769	3,481.93	88.8957	3,481.93	88.6953	3,481.93	87.4411	3,481.93	87.4009	3,481.93	86.1583	3,481.93	86.2023	3,481.93	83.5806	3,481.93	84.4821	3,481.93	83.1044	3,481.93	83.4059	3,481.93	81.1724	3,481.93	82.9007	3,481.93	80.8454	3,481.93	79.9631	3,481.93	79.2534	3,481.93	80.6213	3,481.93	78.4802	3,481.93	77.7635	3,481.93	76.7613	3,481.93	78.8533	3,481.93	71.8629	3,481.93	67.8808	3,481.93	76.4115
3,604.98	92.2745	3,604.98	92.3003	3,604.98	92.5188	3,604.98	92.1478	3,604.98	92.8138	3,604.98	91.6305	3,604.98	92.6238	3,604.98	90.9909	3,604.98	92.1201	3,604.98	90.4022	3,604.98	91.3883	3,604.98	89.3509	3,604.98	90.322	3,604.98	88.7956	3,604.98	89.8234	3,604.98	87.8467	3,604.98	89.1529	3,604.98	86.7337	3,604.98	87.9148	3,604.98	84.9209	3,604.98	86.9018	3,604.98	83.8147	3,604.98	84.8563	3,604.98	82.8653	3,604.98	84.4839	3,604.98	81.1116	3,604.98	81.7489	3,604.98	80.7952	3,604.98	82.2085	3,604.98	79.7219	3,604.98	79.5551	3,604.98	77.3758	3,604.98	79.9145	3,604.98	72.9001	3,604.98	70.2638	3,604.98	77.4517
3,732.42	92.6992	3,732.42	92.8003	3,732.42	92.9045	3,732.42	93.1316	3,732.42	93.0912	3,732.42	92.618	3,732.42	92.9017	3,732.42	91.7865	3,732.42	92.2394	3,732.42	91.0088	3,732.42	91.331	3,732.42	89.7158	3,732.42	89.9245	3,732.42	88.7393	3,732.42	88.7391	3,732.42	87.7148	3,732.42	88.2382	3,732.42	86.7724	3,732.42	87.2136	3,732.42	85.4254	3,732.42	86.1137	3,732.42	84.0862	3,732.42	84.3072	3,732.42	83.1142	3,732.42	84.0761	3,732.42	80.8097	3,732.42	81.0414	3,732.42	81.0205	3,732.42	82.2459	3,732.42	79.8673	3,732.42	79.4096	3,732.42	78.5964	3,732.42	80.033	3,732.42	71.8891	3,732.42	69.8943	3,732.42	77.6627
3,864.26	91.1912	3,864.26	91.4731	3,864.26	91.3617	3,864.26	92.1605	3,864.26	91.6413	3,864.26	92.2762	3,864.26	91.5318	3,864.26	91.7121	3,864.26	91.1111	3,864.26	91.0743	3,864.26	90.3608	3,864.26	89.7295	3,864.26	89.3208	3,864.26	88.732	3,864.26	87.7786	3,864.26	87.6942	3,864.26	87.0446	3,864.26	86.5107	3,864.26	85.7512	3,864.26	85.5139	3,864.26	84.7539	3,864.26	84.0493	3,864.26	83.6906	3,864.26	83.5534	3,864.26	83.2125	3,864.26	81.2182	3,864.26	80.0446	3,864.26	80.9686	3,864.26	81.0747	3,864.26	79.4784	3,864.26	77.8941	3,864.26	78.3718	3,864.26	79.0303	3,864.26	73.324	3,864.26	70.2116	3,864.26	77.0239
4,000.49	91.3592	4,000.49	91.4098	4,000.49	91.6471	4,000.49	91.7206	4,000.49	92.135	4,000.49	91.8862	4,000.49	92.3672	4,000.49	91.1806	4,000.49	91.9654	4,000.49	89.9028	4,000.49	91.2469	4,000.49	89.0329	4,000.49	90.118	4,000.49	87.2813	4,000.49	88.6351	4,000.49	86.414	4,000.49	87.7219	4,000.49	85.1661	4,000.49	86.5216	4,000.49	84.1129	4,000.49	85.3341	4,000.49	82.516	4,000.49	84.3109	4,000.49	82.849	4,000.49	83.8701	4,000.49	80.1724	4,000.49	81.5866	4,000.49	80.6171	4,000.49	81.719	4,000.49	78.2754	4,000.49	79.6143	4,000.49	78.0408	4,000.49	80.0351	4,000.49	72.4708	4,000.49	72.6253	4,000.49	77.2547
4,141.11	93.1188	4,141.11	92.8831	4,141.11	92.8868	4,141.11	92.4101	4,141.11	92.5391	4,141.11	92.0843	4,141.11	92.3215	4,141.11	91.8205	4,141.11	91.7829	4,141.11	90.5348	4,141.11	90.6899	4,141.11	89.673	4,141.11	89.7902	4,141.11	87.4303	4,141.11	88.1504	4,141.11	85.9154	4,141.11	86.7285	4,141.11	84.7581	4,141.11	85.6791	4,141.11	83.4944	4,141.11	84.1473	4,141.11	82.3293	4,141.11	83.3812	4,141.11	82.4696	4,141.11	82.7348	4,141.11	79.7542	4,141.11	81.3412	4,141.11	80.7136	4,141.11	80.9425	4,141.11	78.6474	4,141.11	79.5695	4,141.11	79.5411	4,141.11	80.109	4,141.11	71.7289	4,141.11	72.0314	4,141.11	77.942
4,287.6	93.4214	4,287.6	93.1242	4,287.6	93.1894	4,287.6	92.4239	4,287.6	92.5317	4,287.6	91.7361	4,287.6	91.9126	4,287.6	91.2008	4,287.6	91.674	4,287.6	90.3618	4,287.6	90.6918	4,287.6	89.5014	4,287.6	89.8764	4,287.6	88.3469	4,287.6	88.6603	4,287.6	86.5154	4,287.6	87.2309	4,287.6	84.6098	4,287.6	85.6532	4,287.6	83.1997	4,287.6	83.8982	4,287.6	81.8113	4,287.6	82.9008	4,287.6	81.6421	4,287.6	81.602	4,287.6	79.7915	4,287.6	80.9051	4,287.6	80.1217	4,287.6	79.5265	4,287.6	77.4963	4,287.6	78.8805	4,287.6	78.1033	4,287.6	78.0305	4,287.6	71.6815	4,287.6	71.4536	4,287.6	76.7857
4,438.48	93.0514	4,438.48	93.0942	4,438.48	93.0203	4,438.48	92.5903	4,438.48	92.5692	4,438.48	91.9868	4,438.48	91.7386	4,438.48	91.0005	4,438.48	91.3021	4,438.48	89.9258	4,438.48	90.4692	4,438.48	88.9489	4,438.48	89.5093	4,438.48	88.185	4,438.48	88.6618	4,438.48	86.7983	4,438.48	87.4396	4,438.48	85.1201	4,438.48	86.0163	4,438.48	83.1985	4,438.48	84.1073	4,438.48	81.319	4,438.48	82.1367	4,438.48	79.6172	4,438.48	80.9461	4,438.48	78.0787	4,438.48	79.8261	4,438.48	77.8183	4,438.48	77.5432	4,438.48	74.7582	4,438.48	77.1496	4,438.48	75.7127	4,438.48	75.8769	4,438.48	68.4908	4,438.48	70.6556	4,438.48	73.913
4,595.21	92.7215	4,595.21	92.214	4,595.21	92.6741	4,595.21	92.1425	4,595.21	92.5476	4,595.21	91.2038	4,595.21	91.7298	4,595.21	90.7138	4,595.21	90.9244	4,595.21	89.6567	4,595.21	90.3105	4,595.21	88.8897	4,595.21	89.0304	4,595.21	87.7508	4,595.21	88.0272	4,595.21	86.9494	4,595.21	87.1034	4,595.21	85.5528	4,595.21	85.7658	4,595.21	84.1125	4,595.21	84.6636	4,595.21	82.4401	4,595.21	82.8283	4,595.21	80.697	4,595.21	81.398	4,595.21	79.173	4,595.21	80.3233	4,595.21	77.6929	4,595.21	76.9013	4,595.21	75.5914	4,595.21	77.8157	4,595.21	76.2635	4,595.21	76.2547	4,595.21	68.2143	4,595.21	71.1122	4,595.21	73.9011
4,756.35	93.3863	4,756.35	93.0733	4,756.35	93.1295	4,756.35	92.9048	4,756.35	93.0017	4,756.35	92.2508	4,756.35	92.6792	4,756.35	91.2069	4,756.35	91.8641	4,756.35	89.9154	4,756.35	90.7806	4,756.35	88.2432	4,756.35	89.0754	4,756.35	86.7336	4,756.35	88.0144	4,756.35	85.6674	4,756.35	86.7724	4,756.35	85.0193	4,756.35	85.9546	4,756.35	83.8221	4,756.35	84.8766	4,756.35	82.3016	4,756.35	83.4786	4,756.35	80.616	4,756.35	82.8008	4,756.35	79.8667	4,756.35	81.3384	4,756.35	78.1903	4,756.35	78.5945	4,756.35	76.1033	4,756.35	79.0741	4,756.35	76.828	4,756.35	76.813	4,756.35	67.3867	4,756.35	72.8659	4,756.35	73.7487
4,924.8	93.2464	4,924.8	93.2059	4,924.8	93.0233	4,924.8	92.6721	4,924.8	92.5321	4,924.8	92.6784	4,924.8	92.3499	4,924.8	91.6889	4,924.8	92.0118	4,924.8	90.9967	4,924.8	91.2671	4,924.8	89.0659	4,924.8	89.5816	4,924.8	87.5298	4,924.8	87.7338	4,924.8	85.5133	4,924.8	85.8727	4,924.8	84.5387	4,924.8	84.77	4,924.8	83.9064	4,924.8	84.1773	4,924.8	82.0794	4,924.8	83.0606	4,924.8	81.3204	4,924.8	82.7379	4,924.8	80.7942	4,924.8	81.1063	4,924.8	78.2468	4,924.8	78.5483	4,924.8	77.6137	4,924.8	79.134	4,924.8	77.6116	4,924.8	76.4282	4,924.8	67.8015	4,924.8	73.0932	4,924.8	73.9641
5,097.66	93.6212	5,097.66	92.7749	5,097.66	93.0368	5,097.66	91.998	5,097.66	92.4804	5,097.66	91.262	5,097.66	91.9178	5,097.66	90.5025	5,097.66	91.3639	5,097.66	89.4302	5,097.66	90.7161	5,097.66	88.4431	5,097.66	89.7148	5,097.66	87.0617	5,097.66	87.7001	5,097.66	85.9218	5,097.66	86.5969	5,097.66	84.9548	5,097.66	84.6336	5,097.66	83.7971	5,097.66	83.1894	5,097.66	82.6491	5,097.66	82.4314	5,097.66	82.2118	5,097.66	82.196	5,097.66	80.3302	5,097.66	79.8783	5,097.66	78.8423	5,097.66	77.948	5,097.66	77.7862	5,097.66	78.2709	5,097.66	76.5304	5,097.66	75.429	5,097.66	64.8546	5,097.66	72.5103	5,097.66	71.1749
5,277.83	93.2332	5,277.83	92.812	5,277.83	93.1271	5,277.83	92.5079	5,277.83	92.6255	5,277.83	91.845	5,277.83	92.0346	5,277.83	91.8879	5,277.83	91.7483	5,277.83	90.4976	5,277.83	90.7934	5,277.83	88.9753	5,277.83	89.5747	5,277.83	86.3672	5,277.83	87.5454	5,277.83	84.8254	5,277.83	86.3467	5,277.83	83.4926	5,277.83	84.8732	5,277.83	81.8117	5,277.83	83.9916	5,277.83	80.7679	5,277.83	82.696	5,277.83	80.2526	5,277.83	81.0338	5,277.83	78.0981	5,277.83	79.8108	5,277.83	76.9283	5,277.83	78.1032	5,277.83	76.5077	5,277.83	78.0885	5,277.83	75.2247	5,277.83	74.702	5,277.83	61.8841	5,277.83	71.4669	5,277.83	70.1757
5,463.87	93.2682	5,463.87	92.8225	5,463.87	93.1784	5,463.87	92.1774	5,463.87	92.7361	5,463.87	91.6347	5,463.87	92.1458	5,463.87	91.0498	5,463.87	91.4979	5,463.87	90.506	5,463.87	90.7703	5,463.87	88.8674	5,463.87	89.3962	5,463.87	87.07	5,463.87	87.6641	5,463.87	86.0391	5,463.87	86.0359	5,463.87	84.3098	5,463.87	84.2592	5,463.87	83.0126	5,463.87	83.1427	5,463.87	81.973	5,463.87	82.3923	5,463.87	81.2269	5,463.87	80.963	5,463.87	79.3961	5,463.87	79.2692	5,463.87	77.8249	5,463.87	77.2782	5,463.87	77.0182	5,463.87	76.9862	5,463.87	75.1194	5,463.87	73.5668	5,463.87	61.9356	5,463.87	69.8612	5,463.87	69.8735
5,657.23	93.4437	5,657.23	92.722	5,657.23	93.1111	5,657.23	92.5085	5,657.23	92.4466	5,657.23	91.9749	5,657.23	91.845	5,657.23	90.7301	5,657.23	91.3871	5,657.23	90.3155	5,657.23	90.5495	5,657.23	87.9932	5,657.23	89.4703	5,657.23	86.0712	5,657.23	87.5239	5,657.23	84.1202	5,657.23	85.6401	5,657.23	82.8564	5,657.23	84.2544	5,657.23	81.4908	5,657.23	82.825	5,657.23	81.1304	5,657.23	81.3373	5,657.23	79.4729	5,657.23	79.433	5,657.23	77.1787	5,657.23	78.8152	5,657.23	76.6744	5,657.23	76.6278	5,657.23	74.9039	5,657.23	75.2588	5,657.23	72.2879	5,657.23	71.951	5,657.23	59.2362	5,657.23	68.6077	5,657.23	69.7714
5,856.45	93.1386	5,856.45	93.1917	5,856.45	93.2069	5,856.45	92.3406	5,856.45	93.0601	5,856.45	91.0856	5,856.45	92.3682	5,856.45	90.1511	5,856.45	91.0814	5,856.45	89.1535	5,856.45	89.5557	5,856.45	88.0321	5,856.45	88.2739	5,856.45	86.4493	5,856.45	86.8859	5,856.45	84.6418	5,856.45	84.9909	5,856.45	82.9564	5,856.45	83.9366	5,856.45	81.422	5,856.45	81.2741	5,856.45	80.2714	5,856.45	80.4805	5,856.45	78.9484	5,856.45	78.4177	5,856.45	76.5802	5,856.45	77.3714	5,856.45	76.8131	5,856.45	74.6144	5,856.45	73.4518	5,856.45	72.1445	5,856.45	70.2797	5,856.45	68.2566	5,856.45	63.5708	5,856.45	68.6956	5,856.45	70.617
6,062.99	93.2262	6,062.99	93.1076	6,062.99	93.4802	6,062.99	92.9597	6,062.99	93.0551	6,062.99	92.2822	6,062.99	92.633	6,062.99	90.7059	6,062.99	91.3689	6,062.99	89.4919	6,062.99	89.93	6,062.99	87.2966	6,062.99	88.8833	6,062.99	86.0571	6,062.99	87.399	6,062.99	83.0872	6,062.99	85.7416	6,062.99	81.9331	6,062.99	84.4071	6,062.99	79.8703	6,062.99	81.4683	6,062.99	78.8867	6,062.99	80.1427	6,062.99	77.0538	6,062.99	77.8824	6,062.99	74.608	6,062.99	75.8312	6,062.99	74.5667	6,062.99	73.3114	6,062.99	69.9968	6,062.99	68.3086	6,062.99	67.8156	6,062.99	65.6114	6,062.99	64.8162	6,062.99	68.7738	6,062.99	69.9837
6,276.86	93.0618	6,276.86	92.6896	6,276.86	93.1738	6,276.86	91.8849	6,276.86	92.2994	6,276.86	90.8599	6,276.86	91.3562	6,276.86	90.4646	6,276.86	90.6172	6,276.86	88.5129	6,276.86	89.1171	6,276.86	87.7469	6,276.86	88.3416	6,276.86	86.8686	6,276.86	87.2211	6,276.86	84.7991	6,276.86	85.8669	6,276.86	83.6986	6,276.86	84.6082	6,276.86	81.5057	6,276.86	81.8719	6,276.86	79.0263	6,276.86	79.5118	6,276.86	76.7204	6,276.86	76.6749	6,276.86	74.2579	6,276.86	73.8088	6,276.86	73.7492	6,276.86	71.1036	6,276.86	66.3581	6,276.86	61.9618	6,276.86	65.5572	6,276.86	62.9448	6,276.86	67.1577	6,276.86	69.4631	6,276.86	68.9172
6,498.05	92.9424	6,498.05	92.8873	6,498.05	93.0639	6,498.05	92.2875	6,498.05	92.6745	6,498.05	90.9805	6,498.05	92.0685	6,498.05	90.2487	6,498.05	90.7897	6,498.05	88.2667	6,498.05	89.6217	6,498.05	87.2406	6,498.05	88.6077	6,498.05	85.2195	6,498.05	87.3443	6,498.05	83.1542	6,498.05	85.3555	6,498.05	81.907	6,498.05	84.4412	6,498.05	80.566	6,498.05	82.0475	6,498.05	78.609	6,498.05	80.5431	6,498.05	76.6676	6,498.05	77.7245	6,498.05	74.3146	6,498.05	74.5241	6,498.05	72.1659	6,498.05	73.0544	6,498.05	65.1915	6,498.05	67.5407	6,498.05	64.6023	6,498.05	68.0943	6,498.05	65.8963	6,498.05	71.2038	6,498.05	70.2738
6,726.56	92.3668	6,726.56	92.8083	6,726.56	92.679	6,726.56	92.3062	6,726.56	92.5731	6,726.56	91.09	6,726.56	91.8701	6,726.56	90.0363	6,726.56	90.2958	6,726.56	88.2672	6,726.56	88.8677	6,726.56	87.3776	6,726.56	88.354	6,726.56	85.972	6,726.56	87.1511	6,726.56	83.2527	6,726.56	84.9126	6,726.56	82.1	6,726.56	82.7117	6,726.56	79.6404	6,726.56	81.0593	6,726.56	78.3158	6,726.56	79.0316	6,726.56	76.6452	6,726.56	76.6859	6,726.56	72.9002	6,726.56	72.3482	6,726.56	71.2783	6,726.56	71.8317	6,726.56	65.5196	6,726.56	68.5773	6,726.56	63.8819	6,726.56	70.0278	6,726.56	63.6121	6,726.56	69.9494	6,726.56	64.3197
6,963.87	92.8427	6,963.87	92.5591	6,963.87	92.7836	6,963.87	91.9392	6,963.87	92.1297	6,963.87	90.6113	6,963.87	91.5645	6,963.87	89.1237	6,963.87	90.0877	6,963.87	87.4278	6,963.87	88.4496	6,963.87	86.716	6,963.87	87.9342	6,963.87	85.1066	6,963.87	86.5159	6,963.87	83.3882	6,963.87	84.9542	6,963.87	81.7725	6,963.87	82.6175	6,963.87	79.2744	6,963.87	79.305	6,963.87	76.4449	6,963.87	78.2839	6,963.87	74.5704	6,963.87	73.8688	6,963.87	70.9455	6,963.87	70.5111	6,963.87	66.0632	6,963.87	70.3136	6,963.87	64.1473	6,963.87	67.8852	6,963.87	61.5	6,963.87	68.606	6,963.87	58.7382	6,963.87	63.5459	6,963.87	58.6129
7,209.96	93.1772	7,209.96	92.8325	7,209.96	93.082	7,209.96	92.0423	7,209.96	92.5461	7,209.96	90.5315	7,209.96	91.8599	7,209.96	89.0862	7,209.96	90.8692	7,209.96	88.1465	7,209.96	89.3439	7,209.96	87.2629	7,209.96	88.6302	7,209.96	85.4124	7,209.96	87.3878	7,209.96	84.4472	7,209.96	85.8534	7,209.96	82.2635	7,209.96	82.6751	7,209.96	79.9613	7,209.96	80.0259	7,209.96	75.9289	7,209.96	77.4931	7,209.96	74.2482	7,209.96	72.735	7,209.96	68.5704	7,209.96	68.0176	7,209.96	63.0547	7,209.96	67.9662	7,209.96	64.5773	7,209.96	67.2428	7,209.96	62.5146	7,209.96	66.3227	7,209.96	58.6307	7,209.96	57.8096	7,209.96	63.8441
7,464.84	92.3093	7,464.84	92.2708	7,464.84	92.0984	7,464.84	91.7679	7,464.84	91.813	7,464.84	90.13	7,464.84	90.7462	7,464.84	87.8842	7,464.84	89.0102	7,464.84	87.7551	7,464.84	87.3475	7,464.84	86.8735	7,464.84	86.8395	7,464.84	85.1618	7,464.84	86.0913	7,464.84	84.1645	7,464.84	84.8621	7,464.84	81.2332	7,464.84	82.084	7,464.84	79.0051	7,464.84	79.5319	7,464.84	75.0591	7,464.84	76.6964	7,464.84	72.1137	7,464.84	71.5103	7,464.84	66.4462	7,464.84	68.0921	7,464.84	62.4363	7,464.84	64.1376	7,464.84	57.5537	7,464.84	64.1362	7,464.84	59.5052	7,464.84	66.418	7,464.84	62.9335	7,464.84	65.2277	7,464.84	62.389
7,727.05	93.1431	7,727.05	92.358	7,727.05	92.581	7,727.05	91.4307	7,727.05	92.1099	7,727.05	90.284	7,727.05	91.3539	7,727.05	87.5371	7,727.05	90.3835	7,727.05	86.7407	7,727.05	88.1878	7,727.05	86.1638	7,727.05	87.0398	7,727.05	84.8078	7,727.05	85.9392	7,727.05	83.6796	7,727.05	85.0839	7,727.05	81.3997	7,727.05	82.5777	7,727.05	80.2691	7,727.05	80.2216	7,727.05	76.7306	7,727.05	77.5292	7,727.05	73.3495	7,727.05	73.0987	7,727.05	69.0058	7,727.05	67.0842	7,727.05	67.7102	7,727.05	67.6093	7,727.05	59.6874	7,727.05	64.7918	7,727.05	64.8915	7,727.05	69.3117	7,727.05	63.1695	7,727.05	65.4247	7,727.05	45.6825
7,999.51	92.1202	7,999.51	91.1607	7,999.51	91.637	7,999.51	90.0239	7,999.51	91.0643	7,999.51	89.4419	7,999.51	89.8018	7,999.51	87.6461	7,999.51	89.4128	7,999.51	86.7817	7,999.51	88.4677	7,999.51	85.9169	7,999.51	86.5992	7,999.51	84.5718	7,999.51	84.9324	7,999.51	82.5414	7,999.51	83.163	7,999.51	80.8249	7,999.51	81.4513	7,999.51	78.3516	7,999.51	79.1086	7,999.51	76.7462	7,999.51	75.759	7,999.51	71.4318	7,999.51	71.32	7,999.51	66.97	7,999.51	66.6859	7,999.51	67.3244	7,999.51	66.8653	7,999.51	55.4599	7,999.51	58.249	7,999.51	62.7851	7,999.51	63.4101	7,999.51	56.55	7,999.51	62.0441	7,999.51	49.2452
8,282.23	91.2172	8,282.23	90.9643	8,282.23	91.4832	8,282.23	89.4834	8,282.23	91.0302	8,282.23	89.207	8,282.23	89.4794	8,282.23	88.0451	8,282.23	88.4304	8,282.23	84.5986	8,282.23	86.7352	8,282.23	83.9706	8,282.23	85.1203	8,282.23	83.8807	8,282.23	85.0284	8,282.23	82.032	8,282.23	83.0408	8,282.23	80.4048	8,282.23	81.6142	8,282.23	77.3527	8,282.23	78.2842	8,282.23	74.5142	8,282.23	76.0092	8,282.23	68.7828	8,282.23	69.9366	8,282.23	60.9889	8,282.23	66.3654	8,282.23	62.3383	8,282.23	66.7903	8,282.23	62.6518	8,282.23	53.7772	8,282.23	60.2954	8,282.23	64.4019	8,282.23	55.3578	8,282.23	56.1889	8,282.23	62.7
8,573.73	90.6474	8,573.73	90.6933	8,573.73	90.4746	8,573.73	89.6553	8,573.73	90.0983	8,573.73	88.4866	8,573.73	88.6328	8,573.73	88.2109	8,573.73	87.2366	8,573.73	84.5786	8,573.73	85.289	8,573.73	81.1624	8,573.73	82.7057	8,573.73	81.467	8,573.73	82.7341	8,573.73	82.1394	8,573.73	81.5115	8,573.73	81.9879	8,573.73	81.309	8,573.73	78.7978	8,573.73	80.4936	8,573.73	75.6964	8,573.73	77.0732	8,573.73	73.1458	8,573.73	72.7399	8,573.73	66.0329	8,573.73	68.7099	8,573.73	60.2573	8,573.73	65.9193	8,573.73	54.8567	8,573.73	60.2898	8,573.73	63.268	8,573.73	64.7705	8,573.73	54.7101	8,573.73	53.258	8,573.73	63.29
8,876.95	90.3561	8,876.95	90.3917	8,876.95	90.7431	8,876.95	89.2794	8,876.95	90.06	8,876.95	87.5386	8,876.95	88.5929	8,876.95	86.3273	8,876.95	86.8893	8,876.95	84.2522	8,876.95	84.3081	8,876.95	82.2112	8,876.95	82.952	8,876.95	81.2667	8,876.95	82.3758	8,876.95	81.1207	8,876.95	81.0143	8,876.95	79.8644	8,876.95	80.8057	8,876.95	77.0705	8,876.95	78.9833	8,876.95	75.8076	8,876.95	77.2192	8,876.95	72.6627	8,876.95	73.3562	8,876.95	69.9458	8,876.95	72.016	8,876.95	63.6068	8,876.95	69.2749	8,876.95	66.2019	8,876.95	68.2408	8,876.95	65.2724	8,876.95	66.0579	8,876.95	47.0915	8,876.95	54.6353	8,876.95	64.6334
9,188.96	90.3046	9,188.96	90.0336	9,188.96	90.6989	9,188.96	89.4769	9,188.96	89.4828	9,188.96	87.7244	9,188.96	88.292	9,188.96	87.1816	9,188.96	86.6153	9,188.96	85.4765	9,188.96	84.9019	9,188.96	82.1384	9,188.96	83.3577	9,188.96	81.2904	9,188.96	81.3606	9,188.96	80.8072	9,188.96	80.3605	9,188.96	79.3223	9,188.96	79.2995	9,188.96	76.4731	9,188.96	78.1775	9,188.96	74.4101	9,188.96	75.1027	9,188.96	70.7775	9,188.96	71.7332	9,188.96	67.0479	9,188.96	71.1532	9,188.96	63.8954	9,188.96	68.126	9,188.96	67.7555	9,188.96	66.7368	9,188.96	66.9546	9,188.96	64.1491	9,188.96	37.2042	9,188.96	57.6544	9,188.96	67.8772
9,514.16	91.437	9,514.16	90.0072	9,514.16	91.077	9,514.16	90.2212	9,514.16	89.7876	9,514.16	89.4108	9,514.16	89.3328	9,514.16	87.3441	9,514.16	88.0326	9,514.16	86.0665	9,514.16	84.5921	9,514.16	83.5849	9,514.16	83.3736	9,514.16	79.6126	9,514.16	80.2195	9,514.16	79.5693	9,514.16	80.0557	9,514.16	78.0989	9,514.16	78.8565	9,514.16	75.9494	9,514.16	77.2981	9,514.16	72.3349	9,514.16	74.8479	9,514.16	69.6128	9,514.16	71.2852	9,514.16	63.4589	9,514.16	69.3835	9,514.16	66.1127	9,514.16	67.9634	9,514.16	66.4667	9,514.16	67.6089	9,514.16	64.6838	9,514.16	64.5828	9,514.16	58.8669	9,514.16	58.4224	9,514.16	64.061
9,849.61	92.4652	9,849.61	90.7104	9,849.61	91.3003	9,849.61	91.2398	9,849.61	90.151	9,849.61	89.8794	9,849.61	89.1068	9,849.61	86.1566	9,849.61	88.5358	9,849.61	86.0467	9,849.61	85.0957	9,849.61	84.423	9,849.61	83.1455	9,849.61	79.6743	9,849.61	79.6168	9,849.61	79.6081	9,849.61	78.3896	9,849.61	76.0181	9,849.61	77.6726	9,849.61	76.0359	9,849.61	75.6575	9,849.61	71.7913	9,849.61	72.5203	9,849.61	66.7258	9,849.61	68.1796	9,849.61	64.129	9,849.61	68.6974	9,849.61	60.0342	9,849.61	63.9105	9,849.61	66.4435	9,849.61	65.7866	9,849.61	66.6865	9,849.61	63.4512	9,849.61	57.2816	9,849.61	57.3738	9,849.61	65.3589
10,196.8	93.0509	10,196.8	91.6672	10,196.8	92.097	10,196.8	92.0365	10,196.8	91.075	10,196.8	90.1645	10,196.8	89.5427	10,196.8	84.5944	10,196.8	88.2461	10,196.8	85.6648	10,196.8	85.9989	10,196.8	84.2906	10,196.8	83.7716	10,196.8	79.9277	10,196.8	79.2329	10,196.8	77.8035	10,196.8	77.8356	10,196.8	76.7542	10,196.8	77.4807	10,196.8	74.5636	10,196.8	75.0961	10,196.8	71.7543	10,196.8	70.5425	10,196.8	62.1128	10,196.8	67.3625	10,196.8	62.4348	10,196.8	65.3928	10,196.8	54.6156	10,196.8	64.9551	10,196.8	62.9932	10,196.8	63.8502	10,196.8	65.5701	10,196.8	49.9957	10,196.8	53.333	10,196.8	58.6618	10,196.8	57.3386
10,555.7	93.3321	10,555.7	91.9002	10,555.7	92.1662	10,555.7	91.8003	10,555.7	91.3935	10,555.7	90.0285	10,555.7	89.1996	10,555.7	83.8185	10,555.7	87.2567	10,555.7	83.8417	10,555.7	85.8879	10,555.7	82.7942	10,555.7	83.0695	10,555.7	79.5626	10,555.7	79.2514	10,555.7	75.6613	10,555.7	75.1378	10,555.7	76.0853	10,555.7	76.882	10,555.7	74.0546	10,555.7	75.3601	10,555.7	69.7068	10,555.7	74.069	10,555.7	66.7916	10,555.7	69.6909	10,555.7	65.1206	10,555.7	64.3513	10,555.7	64.4955	10,555.7	65.6667	10,555.7	61.9634	10,555.7	54.7701	10,555.7	61.9891	10,555.7	49.0935	10,555.7	61.4732	10,555.7	54.4996	10,555.7	57.5111
10,927.7	92.5949	10,927.7	91.868	10,927.7	91.7273	10,927.7	90.4805	10,927.7	91.0939	10,927.7	89.1763	10,927.7	88.5533	10,927.7	85.3805	10,927.7	86.2148	10,927.7	82.2757	10,927.7	85.4331	10,927.7	80.8053	10,927.7	82.1535	10,927.7	79.7854	10,927.7	79.9357	10,927.7	77.3974	10,927.7	76.8848	10,927.7	76.4699	10,927.7	76.8276	10,927.7	74.8743	10,927.7	76.4358	10,927.7	71.671	10,927.7	74.8909	10,927.7	67.5948	10,927.7	72.0405	10,927.7	66.6433	10,927.7	65.432	10,927.7	66.9784	10,927.7	65.8843	10,927.7	65.8312	10,927.7	52.8118	10,927.7	59.7614	10,927.7	62.7364	10,927.7	67.8095	10,927.7	58.1275	10,927.7	57.1114
11,313	91.0018	11,313	91.3265	11,313	90.8867	11,313	88.0059	11,313	90.6287	11,313	87.4713	11,313	87.9051	11,313	86.6455	11,313	85.9236	11,313	82.9575	11,313	84.3073	11,313	80.6103	11,313	82.0118	11,313	80.7047	11,313	81.1196	11,313	79.9475	11,313	79.8142	11,313	78.3057	11,313	78.9923	11,313	75.6918	11,313	77.4569	11,313	73.3903	11,313	73.8169	11,313	68.2496	11,313	71.4754	11,313	66.8304	11,313	66.8164	11,313	66.8419	11,313	61.6426	11,313	64.4697	11,313	56.6748	11,313	55.8501	11,313	64.3185	11,313	67.9279	11,313	60.4326	11,313	60.8343
11,712.9	89.2678	11,712.9	90.7182	11,712.9	89.5669	11,712.9	86.0242	11,712.9	89.4998	11,712.9	85.825	11,712.9	87.5762	11,712.9	87.9865	11,712.9	86.3106	11,712.9	84.6754	11,712.9	83.2635	11,712.9	81.3345	11,712.9	82.4036	11,712.9	81.5989	11,712.9	81.7147	11,712.9	81.5697	11,712.9	80.9227	11,712.9	79.4074	11,712.9	79.3085	11,712.9	77.7115	11,712.9	77.6964	11,712.9	74.7873	11,712.9	73.031	11,712.9	68.364	11,712.9	71.6951	11,712.9	67.4065	11,712.9	68.6288	11,712.9	66.9431	11,712.9	61.0382	11,712.9	66.1196	11,712.9	59.8797	11,712.9	57.9516	11,712.9	63.4826	11,712.9	68.2389	11,712.9	62.4218	11,712.9	62.9285
12,126	88.5199	12,126	89.9796	12,126	88.7471	12,126	86.349	12,126	88.2607	12,126	86.027	12,126	87.7063	12,126	88.0816	12,126	86.3495	12,126	85.6681	12,126	82.7295	12,126	82.8051	12,126	81.7374	12,126	82.0483	12,126	82.0152	12,126	81.7078	12,126	81.1572	12,126	78.1963	12,126	78.4258	12,126	77.3924	12,126	77.1144	12,126	74.6821	12,126	72.3667	12,126	68.858	12,126	71.7775	12,126	68.5886	12,126	70.1929	12,126	68.8479	12,126	61.3961	12,126	65.5668	12,126	57.7964	12,126	61.709	12,126	64.5729	12,126	66.7709	12,126	62.062	12,126	61.2417
12,553.7	88.1578	12,553.7	89.0918	12,553.7	88.4748	12,553.7	87.3082	12,553.7	87.1155	12,553.7	86.4946	12,553.7	87.5749	12,553.7	87.3446	12,553.7	85.7992	12,553.7	85.5085	12,553.7	82.6732	12,553.7	82.8656	12,553.7	81.4519	12,553.7	82.0021	12,553.7	81.7084	12,553.7	81.1378	12,553.7	80.8933	12,553.7	77.2709	12,553.7	77.6913	12,553.7	75.5986	12,553.7	75.7727	12,553.7	73.7283	12,553.7	71.9755	12,553.7	68.9767	12,553.7	70.9187	12,553.7	67.1771	12,553.7	69.2223	12,553.7	67.2383	12,553.7	62.4632	12,553.7	63.7124	12,553.7	52.5915	12,553.7	61.1228	12,553.7	62.6646	12,553.7	60.5438	12,553.7	59.8743	12,553.7	59.4587
12,996.1	88.7105	12,996.1	88.649	12,996.1	88.769	12,996.1	88.4481	12,996.1	86.9447	12,996.1	86.9496	12,996.1	87.81	12,996.1	86.2055	12,996.1	85.8919	12,996.1	85.5021	12,996.1	83.0375	12,996.1	82.446	12,996.1	82.5868	12,996.1	81.0923	12,996.1	81.3104	12,996.1	79.996	12,996.1	79.9587	12,996.1	76.5054	12,996.1	77.7846	12,996.1	73.9401	12,996.1	74.809	12,996.1	73.2404	12,996.1	71.5778	12,996.1	68.6592	12,996.1	69.4522	12,996.1	64.7561	12,996.1	67.5701	12,996.1	61.8878	12,996.1	63.1006	12,996.1	63.4921	12,996.1	57.6411	12,996.1	55.0961	12,996.1	53.5856	12,996.1	59.7409	12,996.1	59.0477	12,996.1	54.1875
13,454.6	88.9201	13,454.6	88.1049	13,454.6	88.6306	13,454.6	89.0063	13,454.6	87.5118	13,454.6	87.5538	13,454.6	87.9802	13,454.6	85.0776	13,454.6	86.5594	13,454.6	84.9287	13,454.6	84.1618	13,454.6	83.3391	13,454.6	83.9536	13,454.6	80.7446	13,454.6	82.1007	13,454.6	79.3826	13,454.6	79.7288	13,454.6	76.2186	13,454.6	78.3265	13,454.6	72.6404	13,454.6	74.1672	13,454.6	72.4118	13,454.6	72.3355	13,454.6	68.4562	13,454.6	68.2628	13,454.6	62.6842	13,454.6	66.9694	13,454.6	58.4141	13,454.6	62.8119	13,454.6	61.9303	13,454.6	61.1258	13,454.6	53.3549	13,454.6	39.518	13,454.6	60.788	13,454.6	62.399	13,454.6	50.0437
13,929.2	88.6525	13,929.2	87.7716	13,929.2	88.5579	13,929.2	89.4381	13,929.2	88.0895	13,929.2	87.7745	13,929.2	87.7923	13,929.2	84.8772	13,929.2	86.6226	13,929.2	84.4974	13,929.2	84.6823	13,929.2	84.0748	13,929.2	84.5796	13,929.2	80.9459	13,929.2	81.8551	13,929.2	78.797	13,929.2	78.9016	13,929.2	76.9304	13,929.2	78.6361	13,929.2	72.1605	13,929.2	72.9366	13,929.2	70.4601	13,929.2	71.6485	13,929.2	67.2002	13,929.2	65.511	13,929.2	60.52	13,929.2	64.7015	13,929.2	62.1138	13,929.2	62.2287	13,929.2	55.8904	13,929.2	61.1163	13,929.2	56.0993	13,929.2	51.1567	13,929.2	56.9736	13,929.2	60.2483	13,929.2	51.2656
14,419.9	88.6325	14,419.9	87.6635	14,419.9	88.7192	14,419.9	89.4679	14,419.9	88.189	14,419.9	88.395	14,419.9	87.7161	14,419.9	84.7059	14,419.9	86.86	14,419.9	84.265	14,419.9	85.3375	14,419.9	83.7673	14,419.9	84.2568	14,419.9	80.8594	14,419.9	81.1128	14,419.9	78.1305	14,419.9	77.8418	14,419.9	76.1323	14,419.9	78.0181	14,419.9	72.6443	14,419.9	71.4988	14,419.9	69.9831	14,419.9	70.5778	14,419.9	66.3082	14,419.9	65.344	14,419.9	62.4159	14,419.9	60.8468	14,419.9	65.2853	14,419.9	58.1555	14,419.9	49.2948	14,419.9	60.6684	14,419.9	56.9118	14,419.9	57.228	14,419.9	53.229	14,419.9	53.2465	14,419.9	57.9551
14,928.2	88.9659	14,928.2	87.683	14,928.2	88.4612	14,928.2	89.7926	14,928.2	88.517	14,928.2	88.503	14,928.2	87.5358	14,928.2	83.9166	14,928.2	87.055	14,928.2	84.0363	14,928.2	85.0326	14,928.2	82.8611	14,928.2	83.5547	14,928.2	80.2001	14,928.2	79.7992	14,928.2	77.5538	14,928.2	76.7398	14,928.2	74.5737	14,928.2	76.9209	14,928.2	72.1629	14,928.2	69.511	14,928.2	69.3397	14,928.2	68.727	14,928.2	65.7076	14,928.2	66.137	14,928.2	64.3252	14,928.2	56.6761	14,928.2	67.3928	14,928.2	57.5625	14,928.2	54.2136	14,928.2	63.3447	14,928.2	60.3271	14,928.2	61.8904	14,928.2	55.6975	14,928.2	46.9834	14,928.2	64.2385
15,455.6	88.7721	15,455.6	87.4731	15,455.6	88.1341	15,455.6	89.5947	15,455.6	88.5226	15,455.6	88.301	15,455.6	87.0921	15,455.6	83.08	15,455.6	86.7991	15,455.6	82.6701	15,455.6	84.0906	15,455.6	81.5261	15,455.6	83.356	15,455.6	79.0938	15,455.6	77.7781	15,455.6	76.8345	15,455.6	74.6062	15,455.6	71.3303	15,455.6	75.1674	15,455.6	71.1308	15,455.6	68.4516	15,455.6	68.5059	15,455.6	65.2747	15,455.6	66.4945	15,455.6	65.9375	15,455.6	65.845	15,455.6	43.4703	15,455.6	68.2359	15,455.6	53.7534	15,455.6	55.2203	15,455.6	65.3859	15,455.6	64.0195	15,455.6	65.0696	15,455.6	59.7885	15,455.6	56.101	15,455.6	67.2072
16,000.5	88.0624	16,000.5	88.0758	16,000.5	88.3206	16,000.5	88.7406	16,000.5	88.1711	16,000.5	87.4329	16,000.5	86.8032	16,000.5	85.3517	16,000.5	86.364	16,000.5	81.4608	16,000.5	84.556	16,000.5	80.1619	16,000.5	82.8368	16,000.5	78.8653	16,000.5	76.6324	16,000.5	78.0325	16,000.5	74.3928	16,000.5	65.397	16,000.5	74.0973	16,000.5	68.9039	16,000.5	67.6211	16,000.5	64.0966	16,000.5	61.9798	16,000.5	66.8558	16,000.5	65.8783	16,000.5	65.7128	16,000.5	40.9816	16,000.5	68.2487	16,000.5	55.2661	16,000.5	57.9126	16,000.5	63.667	16,000.5	64.6197	16,000.5	67.066	16,000.5	61.9707	16,000.5	58.2053	16,000.5	66.2001
16,564.5	86.401	16,564.5	89.3092	16,564.5	89.3632	16,564.5	87.4183	16,564.5	87.4823	16,564.5	86.119	16,564.5	86.7312	16,564.5	87.1437	16,564.5	84.5816	16,564.5	83.2254	16,564.5	84.6496	16,564.5	79.6736	16,564.5	81.0987	16,564.5	76.0187	16,564.5	74.5071	16,564.5	76.5031	16,564.5	74.071	16,564.5	66.7725	16,564.5	71.1635	16,564.5	70.1313	16,564.5	70.8473	16,564.5	61.2295	16,564.5	63.2693	16,564.5	59.1196	16,564.5	62.8472	16,564.5	62.9948	16,564.5	55.2583	16,564.5	66.1806	16,564.5	32.5334	16,564.5	58.1722	16,564.5	59.1572	16,564.5	60.2454	16,564.5	65.8144	16,564.5	64.3256	16,564.5	58.9543	16,564.5	64.9821
17,148.9	86.1684	17,148.9	89.0237	17,148.9	88.5385	17,148.9	86.0995	17,148.9	86.4614	17,148.9	84.4421	17,148.9	87.0971	17,148.9	87.0413	17,148.9	83.9989	17,148.9	83.2848	17,148.9	84.3092	17,148.9	79.3906	17,148.9	80.0719	17,148.9	74.2221	17,148.9	74.363	17,148.9	75.1185	17,148.9	76.5505	17,148.9	59.178	17,148.9	73.4069	17,148.9	65.1009	17,148.9	68.0284	17,148.9	58.182	17,148.9	67.1853	17,148.9	53.2615	17,148.9	64.5542	17,148.9	62.5138	17,148.9	52.5357	17,148.9	66.4744	17,148.9	52.8253	17,148.9	58.5836	17,148.9	53.7255	17,148.9	60.0109	17,148.9	63.9789	17,148.9	60.6536	17,148.9	59.3756	17,148.9	64.968
17,752.4	85.6244	17,752.4	89.0465	17,752.4	88.398	17,752.4	85.3589	17,752.4	86.9843	17,752.4	83.1966	17,752.4	87.6927	17,752.4	86.5991	17,752.4	84.9937	17,752.4	82.7521	17,752.4	84.0663	17,752.4	77.504	17,752.4	79.0915	17,752.4	70.3338	17,752.4	75.382	17,752.4	72.8027	17,752.4	75.0958	17,752.4	66.5475	17,752.4	72.5475	17,752.4	55.4885	17,752.4	66.4018	17,752.4	64.6176	17,752.4	63.9669	17,752.4	55.6848	17,752.4	61.7421	17,752.4	60.776	17,752.4	56.3696	17,752.4	65.457	17,752.4	48.4909	17,752.4	56.224	17,752.4	52.6446	17,752.4	61.2034	17,752.4	60.1468	17,752.4	52.9871	17,752.4	58.0796	17,752.4	66.1564
18,379.4	86.3025	18,379.4	89.3216	18,379.4	88.881	18,379.4	86.1003	18,379.4	87.4902	18,379.4	82.6461	18,379.4	88.8036	18,379.4	86.2389	18,379.4	83.8633	18,379.4	81.2448	18,379.4	83.119	18,379.4	74.3085	18,379.4	78.0244	18,379.4	68.9983	18,379.4	72.6945	18,379.4	67.3782	18,379.4	71.5372	18,379.4	66.7266	18,379.4	68.9607	18,379.4	60.4057	18,379.4	65.7121	18,379.4	70.0495	18,379.4	61.8245	18,379.4	57.9789	18,379.4	57.1833	18,379.4	56.3777	18,379.4	58.3217	18,379.4	65.1661	18,379.4	49.9713	18,379.4	58.0932	18,379.4	35.1821	18,379.4	58.9349	18,379.4	60.2347	18,379.4	49.6764	18,379.4	56.1886	18,379.4	65.498
19,026.9	87.5229	19,026.9	89.5699	19,026.9	89.7388	19,026.9	86.5445	19,026.9	87.5834	19,026.9	84.2902	19,026.9	88.5737	19,026.9	85.3333	19,026.9	81.4045	19,026.9	78.826	19,026.9	80.8358	19,026.9	68.8393	19,026.9	74.2138	19,026.9	70.4325	19,026.9	72.6984	19,026.9	63.605	19,026.9	68.6792	19,026.9	65.9459	19,026.9	64.0227	19,026.9	60.5104	19,026.9	63.6818	19,026.9	70.702	19,026.9	57.0221	19,026.9	49.6559	19,026.9	53.5205	19,026.9	58.4699	19,026.9	60.7488	19,026.9	65.1906	19,026.9	49.6052	19,026.9	57.4034	19,026.9	53.5407	19,026.9	59.1076	19,026.9	61.2162	19,026.9	54.085	19,026.9	55.1074	19,026.9	64.0138
19,697.8	88.2077	19,697.8	89.0341	19,697.8	89.829	19,697.8	86.5773	19,697.8	86.8201	19,697.8	83.6393	19,697.8	87.3509	19,697.8	83.1202	19,697.8	78.983	19,697.8	74.1275	19,697.8	76.7997	19,697.8	64.9478	19,697.8	68.585	19,697.8	71.7044	19,697.8	73.2744	19,697.8	68.558	19,697.8	67.2753	19,697.8	69.3542	19,697.8	60.0981	19,697.8	65.3913	19,697.8	64.6999	19,697.8	69.2953	19,697.8	52.5035	19,697.8	46.4484	19,697.8	51.8555	19,697.8	59.1576	19,697.8	58.6128	19,697.8	62.4922	19,697.8	37.5328	19,697.8	56.0039	19,697.8	56.9	19,697.8	56.4821	19,697.8	57.8229	19,697.8	50.6923	19,697.8	55.1521	19,697.8	60.0883
19,999.5	88.1906	19,999.5	88.3988	19,999.5	89.5606	19,999.5	86.4224	19,999.5	86.3267	19,999.5	83.2592	19,999.5	86.2813	19,999.5	81.6495	19,999.5	78.244	19,999.5	70.9571	19,999.5	73.5064	19,999.5	66.911	19,999.5	67.6532	19,999.5	70.2375	19,999.5	74.3283	19,999.5	71.948	19,999.5	69.2837	19,999.5	69.5777	19,999.5	55.972	19,999.5	66.1015	19,999.5	65.8159	19,999.5	67.0297	19,999.5	54.4141	19,999.5	55.5803	19,999.5	47.6329	19,999.5	60.5567	19,999.5	61.0503	19,999.5	46.499	19,999.5	47.3174	19,999.5	44.5785	19,999.5	54.3797	19,999.5	57.2045	19,999.5	52.0839	19,999.5	47.3767	19,999.5	55.2136	19,999.5	55.1399
