"SPL Vertical"
"On-Axis"		"10°"		"-10°"		"20°"		"-20°"		"30°"		"-30°"		"40°"		"-40°"		"50°"		"-50°"		"60°"		"-60°"		"70°"		"-70°"		"80°"		"-80°"		"90°"		"-90°"		"100°"		"-100°"		"110°"		"-110°"		"120°"		"-120°"		"130°"		"-130°"		"140°"		"-140°"		"150°"		"-150°"		"160°"		"-160°"		"170°"		"-170°"		"180°"
"Frequency [Hz]"	"Sound Pessure Level [dB]  / [2.83V 1m] "	"Frequency [Hz]"	"Sound Pessure Level [dB]  / [2.83V 1m] "	"Frequency [Hz]"	"Sound Pessure Level [dB]  / [2.83V 1m] "	"Frequency [Hz]"	"Sound Pessure Level [dB]  / [2.83V 1m] "	"Frequency [Hz]"	"Sound Pessure Level [dB]  / [2.83V 1m] "	"Frequency [Hz]"	"Sound Pessure Level [dB]  / [2.83V 1m] "	"Frequency [Hz]"	"Sound Pessure Level [dB]  / [2.83V 1m] "	"Frequency [Hz]"	"Sound Pessure Level [dB]  / [2.83V 1m] "	"Frequency [Hz]"	"Sound Pessure Level [dB]  / [2.83V 1m] "	"Frequency [Hz]"	"Sound Pessure Level [dB]  / [2.83V 1m] "	"Frequency [Hz]"	"Sound Pessure Level [dB]  / [2.83V 1m] "	"Frequency [Hz]"	"Sound Pessure Level [dB]  / [2.83V 1m] "	"Frequency [Hz]"	"Sound Pessure Level [dB]  / [2.83V 1m] "	"Frequency [Hz]"	"Sound Pessure Level [dB]  / [2.83V 1m] "	"Frequency [Hz]"	"Sound Pessure Level [dB]  / [2.83V 1m] "	"Frequency [Hz]"	"Sound Pessure Level [dB]  / [2.83V 1m] "	"Frequency [Hz]"	"Sound Pessure Level [dB]  / [2.83V 1m] "	"Frequency [Hz]"	"Sound Pessure Level [dB]  / [2.83V 1m] "	"Frequency [Hz]"	"Sound Pessure Level [dB]  / [2.83V 1m] "	"Frequency [Hz]"	"Sound Pessure Level [dB]  / [2.83V 1m] "	"Frequency [Hz]"	"Sound Pessure Level [dB]  / [2.83V 1m] "	"Frequency [Hz]"	"Sound Pessure Level [dB]  / [2.83V 1m] "	"Frequency [Hz]"	"Sound Pessure Level [dB]  / [2.83V 1m] "	"Frequency [Hz]"	"Sound Pessure Level [dB]  / [2.83V 1m] "	"Frequency [Hz]"	"Sound Pessure Level [dB]  / [2.83V 1m] "	"Frequency [Hz]"	"Sound Pessure Level [dB]  / [2.83V 1m] "	"Frequency [Hz]"	"Sound Pessure Level [dB]  / [2.83V 1m] "	"Frequency [Hz]"	"Sound Pessure Level [dB]  / [2.83V 1m] "	"Frequency [Hz]"	"Sound Pessure Level [dB]  / [2.83V 1m] "	"Frequency [Hz]"	"Sound Pessure Level [dB]  / [2.83V 1m] "	"Frequency [Hz]"	"Sound Pessure Level [dB]  / [2.83V 1m] "	"Frequency [Hz]"	"Sound Pessure Level [dB]  / [2.83V 1m] "	"Frequency [Hz]"	"Sound Pessure Level [dB]  / [2.83V 1m] "	"Frequency [Hz]"	"Sound Pessure Level [dB]  / [2.83V 1m] "	"Frequency [Hz]"	"Sound Pessure Level [dB]  / [2.83V 1m] "	"Frequency [Hz]"	"Sound Pessure Level [dB]  / [2.83V 1m] "
20.5078	54.4315	20.5078	54.433	20.5078	54.453	20.5078	54.4505	20.5078	54.5035	20.5078	54.4762	20.5078	54.5889	20.5078	54.5026	20.5078	54.715	20.5078	54.5242	20.5078	54.8872	20.5078	54.5391	20.5078	55.1078	20.5078	54.5497	20.5078	55.3735	20.5078	54.5621	20.5078	55.6724	20.5078	54.5853	20.5078	55.9828	20.5078	54.6286	20.5078	56.2741	20.5078	54.7002	20.5078	56.5111	20.5078	54.8047	20.5078	56.6613	20.5078	54.941	20.5078	56.7043	20.5078	55.1024	20.5078	56.6393	20.5078	55.2789	20.5078	56.4869	20.5078	55.462	20.5078	56.2823	20.5078	55.6503	20.5078	56.0616	20.5078	55.8487
21.9727	48.0357	21.9727	47.8977	21.9727	48.1913	21.9727	47.7769	21.9727	48.3656	21.9727	47.6726	21.9727	48.5611	21.9727	47.5832	21.9727	48.7829	21.9727	47.5067	21.9727	49.0368	21.9727	47.4413	21.9727	49.3256	21.9727	47.3865	21.9727	49.6453	21.9727	47.3436	21.9727	49.9817	21.9727	47.3173	21.9727	50.3095	21.9727	47.3178	21.9727	50.5951	21.9727	47.3604	21.9727	50.8006	21.9727	47.4633	21.9727	50.8916	21.9727	47.6406	21.9727	50.8475	21.9727	47.8928	21.9727	50.6698	21.9727	48.2049	21.9727	50.3845	21.9727	48.5525	21.9727	50.034	21.9727	48.9152	21.9727	49.6592	21.9727	49.2842
23.4375	51.9915	23.4375	52.0101	23.4375	51.9616	23.4375	52.0126	23.4375	51.9266	23.4375	51.9952	23.4375	51.8939	23.4375	51.955	23.4375	51.8716	23.4375	51.8897	23.4375	51.8657	23.4375	51.798	23.4375	51.8797	23.4375	51.6807	23.4375	51.9125	23.4375	51.5406	23.4375	51.9588	23.4375	51.3836	23.4375	52.0088	23.4375	51.2194	23.4375	52.049	23.4375	51.0613	23.4375	52.0639	23.4375	50.9258	23.4375	52.0396	23.4375	50.8303	23.4375	51.9678	23.4375	50.7887	23.4375	51.8495	23.4375	50.8073	23.4375	51.6947	23.4375	50.8833	23.4375	51.5184	23.4375	51.0059	23.4375	51.3361	23.4375	51.1612
24.9023	51.2349	24.9023	51.2168	24.9023	51.2324	24.9023	51.1746	24.9023	51.2104	24.9023	51.1023	24.9023	51.1688	24.9023	50.9932	24.9023	51.1082	24.9023	50.8406	24.9023	51.0309	24.9023	50.6404	24.9023	50.9394	24.9023	50.3917	24.9023	50.8352	24.9023	50.0977	24.9023	50.7176	24.9023	49.7659	24.9023	50.5828	24.9023	49.4081	24.9023	50.4241	24.9023	49.0416	24.9023	50.2333	24.9023	48.6906	24.9023	50.0038	24.9023	48.3846	24.9023	49.7348	24.9023	48.1535	24.9023	49.4333	24.9023	48.02	24.9023	49.1138	24.9023	47.9952	24.9023	48.7954	24.9023	48.077	24.9023	48.5002	24.9023	48.2524
26.3672	51.6683	26.3672	51.674	26.3672	51.6384	26.3672	51.6506	26.3672	51.5906	26.3672	51.5944	26.3672	51.5318	26.3672	51.5031	26.3672	51.469	26.3672	51.3748	26.3672	51.4071	26.3672	51.208	26.3672	51.3477	26.3672	51.0017	26.3672	51.2882	26.3672	50.7556	26.3672	51.2216	26.3672	50.4715	26.3672	51.1368	26.3672	50.1548	26.3672	51.0196	26.3672	49.815	26.3672	50.8549	26.3672	49.4668	26.3672	50.6303	26.3672	49.13	26.3672	50.3401	26.3672	48.8292	26.3672	49.9898	26.3672	48.5942	26.3672	49.5991	26.3672	48.4577	26.3672	49.2027	26.3672	48.4495	26.3672	48.8474	26.3672	48.5836
27.832	55.6578	27.832	55.6651	27.832	55.6345	27.832	55.6533	27.832	55.5968	27.832	55.6183	27.832	55.5457	27.832	55.5554	27.832	55.4818	27.832	55.4611	27.832	55.4061	27.832	55.3337	27.832	55.32	27.832	55.174	27.832	55.2256	27.832	54.9856	27.832	55.1242	27.832	54.775	27.832	55.016	27.832	54.5516	27.832	54.8993	27.832	54.3282	27.832	54.7707	27.832	54.12	27.832	54.6267	27.832	53.9427	27.832	54.4665	27.832	53.8084	27.832	54.2949	27.832	53.7229	27.832	54.1231	27.832	53.6861	27.832	53.966	27.832	53.6946	27.832	53.8373	27.832	53.7456
29.2969	55.7741	29.2969	55.6947	29.2969	55.8416	29.2969	55.605	29.2969	55.8946	29.2969	55.5061	29.2969	55.9297	29.2969	55.399	29.2969	55.9431	29.2969	55.2846	29.2969	55.9317	29.2969	55.1638	29.2969	55.8934	29.2969	55.0373	29.2969	55.8279	29.2969	54.9056	29.2969	55.7363	29.2969	54.7694	29.2969	55.6211	29.2969	54.6303	29.2969	55.4843	29.2969	54.491	29.2969	55.3281	29.2969	54.356	29.2969	55.1539	29.2969	54.2312	29.2969	54.9644	29.2969	54.1245	29.2969	54.7644	29.2969	54.0457	29.2969	54.5622	29.2969	54.0064	29.2969	54.3708	29.2969	54.0174	29.2969	54.2063	29.2969	54.0848
30.7617	57.0459	30.7617	57.0152	30.7617	57.0639	30.7617	56.9719	30.7617	57.0691	30.7617	56.9161	30.7617	57.0615	30.7617	56.8479	30.7617	57.0417	30.7617	56.7673	30.7617	57.0107	30.7617	56.6744	30.7617	56.9702	30.7617	56.5692	30.7617	56.9221	30.7617	56.452	30.7617	56.8676	30.7617	56.3238	30.7617	56.8069	30.7617	56.1869	30.7617	56.7378	30.7617	56.0454	30.7617	56.6557	30.7617	55.9057	30.7617	56.5549	30.7617	55.7758	30.7617	56.43	30.7617	55.666	30.7617	56.2798	30.7617	55.588	30.7617	56.11	30.7617	55.5535	30.7617	55.9346	30.7617	55.5723	30.7617	55.7736	30.7617	55.6477
32.2266	58.9725	32.2266	58.9164	32.2266	59.0204	32.2266	58.8552	32.2266	59.0574	32.2266	58.7924	32.2266	59.0814	32.2266	58.7314	32.2266	59.091	32.2266	58.6754	32.2266	59.0857	32.2266	58.6265	32.2266	59.0659	32.2266	58.5861	32.2266	59.0327	32.2266	58.5543	32.2266	58.9882	32.2266	58.5308	32.2266	58.9357	32.2266	58.5143	32.2266	58.8789	32.2266	58.5024	32.2266	58.8218	32.2266	58.4914	32.2266	58.7672	32.2266	58.477	32.2266	58.7154	32.2266	58.4569	32.2266	58.6635	32.2266	58.4341	32.2266	58.6079	32.2266	58.4173	32.2266	58.5479	32.2266	58.4178	32.2266	58.4892	32.2266	58.4425
33.6914	60.7072	33.6914	60.6685	33.6914	60.7332	33.6914	60.6179	33.6914	60.7457	33.6914	60.5561	33.6914	60.7438	33.6914	60.4834	33.6914	60.7269	33.6914	60.4	33.6914	60.6941	33.6914	60.3057	33.6914	60.6452	33.6914	60.2006	33.6914	60.5801	33.6914	60.0851	33.6914	60.4996	33.6914	59.9612	33.6914	60.4056	33.6914	59.8319	33.6914	60.3011	33.6914	59.7024	33.6914	60.1905	33.6914	59.5797	33.6914	60.0784	33.6914	59.4722	33.6914	59.9684	33.6914	59.3896	33.6914	59.8611	33.6914	59.3416	33.6914	59.7548	33.6914	59.3353	33.6914	59.6475	33.6914	59.372	33.6914	59.5413	33.6914	59.4449
35.1562	62.1239	35.1562	62.0704	35.1562	62.1705	35.1562	62.0106	35.1562	62.2088	35.1562	61.9447	35.1562	62.2364	35.1562	61.8727	35.1562	62.2502	35.1562	61.7943	35.1562	62.2469	35.1562	61.7091	35.1562	62.2234	35.1562	61.617	35.1562	62.1778	35.1562	61.5182	35.1562	62.1096	35.1562	61.4136	35.1562	62.0206	35.1562	61.305	35.1562	61.9142	35.1562	61.1955	35.1562	61.7959	35.1562	61.0898	35.1562	61.6715	35.1562	60.9946	35.1562	61.5457	35.1562	60.9186	35.1562	61.4209	35.1562	60.8715	35.1562	61.2974	35.1562	60.8619	35.1562	61.1761	35.1562	60.8937	35.1562	61.0616	35.1562	60.9635
36.6211	63.6784	36.6211	63.6217	36.6211	63.7209	36.6211	63.5511	36.6211	63.7486	36.6211	63.4668	36.6211	63.7602	36.6211	63.3687	36.6211	63.7539	36.6211	63.2571	36.6211	63.7276	36.6211	63.1322	36.6211	63.6794	36.6211	62.9945	36.6211	63.608	36.6211	62.8448	36.6211	63.514	36.6211	62.6853	36.6211	63.3997	36.6211	62.5197	36.6211	63.2692	36.6211	62.3542	36.6211	63.1281	36.6211	62.1978	36.6211	62.982	36.6211	62.063	36.6211	62.8348	36.6211	61.9639	36.6211	62.6877	36.6211	61.9142	36.6211	62.539	36.6211	61.9221	36.6211	62.3875	36.6211	61.9868	36.6211	62.2367	36.6211	62.0974
38.0859	64.9807	38.0859	64.9395	38.0859	65.0039	38.0859	64.881	38.0859	65.008	38.0859	64.8049	38.0859	64.9912	38.0859	64.711	38.0859	64.9516	38.0859	64.598	38.0859	64.8876	38.0859	64.4648	38.0859	64.798	38.0859	64.3102	38.0859	64.6832	38.0859	64.1339	38.0859	64.5453	38.0859	63.9371	38.0859	64.3881	38.0859	63.7235	38.0859	64.2173	38.0859	63.5004	38.0859	64.0394	38.0859	63.2791	38.0859	63.8603	38.0859	63.0752	38.0859	63.6834	38.0859	62.9072	38.0859	63.5086	38.0859	62.7934	38.0859	63.3342	38.0859	62.747	38.0859	63.1614	38.0859	62.7723	38.0859	62.9984	38.0859	62.8619
39.5508	66.0294	39.5508	65.9717	39.5508	66.0615	39.5508	65.8897	39.5508	66.0662	39.5508	65.7844	39.5508	66.042	39.5508	65.6563	39.5508	65.9872	39.5508	65.5053	39.5508	65.9003	39.5508	65.3311	39.5508	65.7805	39.5508	65.1335	39.5508	65.6279	39.5508	64.9133	39.5508	65.4442	39.5508	64.6734	39.5508	65.2333	39.5508	64.4194	39.5508	65.0015	39.5508	64.1603	39.5508	64.7571	39.5508	63.9092	39.5508	64.5088	39.5508	63.6812	39.5508	64.2638	39.5508	63.4923	39.5508	64.028	39.5508	63.3556	39.5508	63.8065	39.5508	63.2802	39.5508	63.6075	39.5508	63.2707	39.5508	63.4431	39.5508	63.327
41.0156	70.3308	41.0156	70.27	41.0156	70.4055	41.0156	70.2217	41.0156	70.4942	41.0156	70.1838	41.0156	70.5963	41.0156	70.1536	41.0156	70.71	41.0156	70.128	41.0156	70.8322	41.0156	70.1036	41.0156	70.9586	41.0156	70.0776	41.0156	71.0836	41.0156	70.0474	41.0156	71.2007	41.0156	70.0111	41.0156	71.3028	41.0156	69.968	41.0156	71.3824	41.0156	69.9196	41.0156	71.4311	41.0156	69.8712	41.0156	71.4402	41.0156	69.8339	41.0156	71.4008	41.0156	69.8254	41.0156	71.3045	41.0156	69.8671	41.0156	71.1464	41.0156	69.9773	41.0156	70.93	41.0156	70.1609	41.0156	70.672	41.0156	70.4031
42.4805	69.0336	42.4805	68.9476	42.4805	69.1139	42.4805	68.8571	42.4805	69.1863	42.4805	68.7633	42.4805	69.2478	42.4805	68.6669	42.4805	69.2951	42.4805	68.5683	42.4805	69.3242	42.4805	68.4681	42.4805	69.3313	42.4805	68.3667	42.4805	69.3128	42.4805	68.2645	42.4805	69.266	42.4805	68.1621	42.4805	69.1886	42.4805	68.0608	42.4805	69.0795	42.4805	67.9627	42.4805	68.9395	42.4805	67.8712	42.4805	68.7716	42.4805	67.7907	42.4805	68.5823	42.4805	67.7265	42.4805	68.3822	42.4805	67.6847	42.4805	68.1855	42.4805	67.6717	42.4805	68.0075	42.4805	67.6938	42.4805	67.8617	42.4805	67.7563
43.9453	70.3932	43.9453	70.3668	43.9453	70.4233	43.9453	70.3443	43.9453	70.4564	43.9453	70.3259	43.9453	70.4915	43.9453	70.3117	43.9453	70.5274	43.9453	70.3017	43.9453	70.5624	43.9453	70.2961	43.9453	70.5947	43.9453	70.2952	43.9453	70.6226	43.9453	70.2991	43.9453	70.6449	43.9453	70.3078	43.9453	70.6606	43.9453	70.3213	43.9453	70.6693	43.9453	70.3393	43.9453	70.6707	43.9453	70.3612	43.9453	70.6649	43.9453	70.386	43.9453	70.652	43.9453	70.4127	43.9453	70.6327	43.9453	70.4403	43.9453	70.6083	43.9453	70.4679	43.9453	70.5807	43.9453	70.4956	43.9453	70.552	43.9453	70.5235
45.4102	71.8463	45.4102	71.8158	45.4102	71.8763	45.4102	71.7856	45.4102	71.905	45.4102	71.7563	45.4102	71.9315	45.4102	71.7288	45.4102	71.9548	45.4102	71.7038	45.4102	71.9737	45.4102	71.6818	45.4102	71.9868	45.4102	71.663	45.4102	71.9933	45.4102	71.6476	45.4102	71.9925	45.4102	71.6356	45.4102	71.9844	45.4102	71.6271	45.4102	71.9694	45.4102	71.6226	45.4102	71.9483	45.4102	71.6225	45.4102	71.9222	45.4102	71.6276	45.4102	71.8924	45.4102	71.6384	45.4102	71.86	45.4102	71.655	45.4102	71.8265	45.4102	71.6766	45.4102	71.7931	45.4102	71.7022	45.4102	71.761	45.4102	71.7306
46.875	73.2354	46.875	73.2209	46.875	73.2451	46.875	73.2012	46.875	73.2501	46.875	73.1755	46.875	73.2505	46.875	73.1436	46.875	73.2459	46.875	73.1052	46.875	73.2359	46.875	73.0604	46.875	73.22	46.875	73.0098	46.875	73.1976	46.875	72.9541	46.875	73.1684	46.875	72.8948	46.875	73.1321	46.875	72.8335	46.875	73.0888	46.875	72.7725	46.875	73.0389	46.875	72.7145	46.875	72.9833	46.875	72.6633	46.875	72.9233	46.875	72.6229	46.875	72.8606	46.875	72.5977	46.875	72.7973	46.875	72.591	46.875	72.7362	46.875	72.604	46.875	72.6807	46.875	72.6352
48.3398	74.2462	48.3398	74.2273	48.3398	74.2623	48.3398	74.2056	48.3398	74.2753	48.3398	74.1809	48.3398	74.2849	48.3398	74.1528	48.3398	74.2907	48.3398	74.1209	48.3398	74.2924	48.3398	74.0849	48.3398	74.2896	48.3398	74.0447	48.3398	74.2819	48.3398	74.001	48.3398	74.2691	48.3398	73.9546	48.3398	74.2511	48.3398	73.9074	48.3398	74.2278	48.3398	73.8617	48.3398	74.1989	48.3398	73.8204	48.3398	74.1641	48.3398	73.7872	48.3398	74.1227	48.3398	73.7656	48.3398	74.0743	48.3398	73.7592	48.3398	74.0192	48.3398	73.7704	48.3398	73.9594	48.3398	73.7994	48.3398	73.8991	48.3398	73.8438
51.2695	76.7451	51.2695	76.7113	51.2695	76.7738	51.2695	76.6732	51.2695	76.7965	51.2695	76.6317	51.2695	76.8123	51.2695	76.5874	51.2695	76.8205	51.2695	76.5411	51.2695	76.8205	51.2695	76.4933	51.2695	76.8117	51.2695	76.4448	51.2695	76.7937	51.2695	76.3962	51.2695	76.7667	51.2695	76.3485	51.2695	76.7308	51.2695	76.3029	51.2695	76.6871	51.2695	76.261	51.2695	76.6367	51.2695	76.2249	51.2695	76.5813	51.2695	76.1968	51.2695	76.5226	51.2695	76.1792	51.2695	76.4623	51.2695	76.1743	51.2695	76.4019	51.2695	76.1834	51.2695	76.3434	51.2695	76.2066	51.2695	76.2893	51.2695	76.2427
52.7344	77.9246	52.7344	77.89	52.7344	77.9534	52.7344	77.8504	52.7344	77.9755	52.7344	77.8068	52.7344	77.9904	52.7344	77.7602	52.7344	77.9973	52.7344	77.7117	52.7344	77.996	52.7344	77.6623	52.7344	77.9861	52.7344	77.613	52.7344	77.9674	52.7344	77.5648	52.7344	77.9398	52.7344	77.519	52.7344	77.9037	52.7344	77.4768	52.7344	77.8599	52.7344	77.4399	52.7344	77.8098	52.7344	77.4099	52.7344	77.7554	52.7344	77.3888	52.7344	77.6987	52.7344	77.378	52.7344	77.6418	52.7344	77.3785	52.7344	77.5864	52.7344	77.3905	52.7344	77.5343	52.7344	77.4135	52.7344	77.487	52.7344	77.4462
54.1992	78.9729	54.1992	78.9413	54.1992	78.9998	54.1992	78.906	54.1992	79.0209	54.1992	78.8681	54.1992	79.0353	54.1992	78.8286	54.1992	79.0424	54.1992	78.7884	54.1992	79.0415	54.1992	78.7484	54.1992	79.0322	54.1992	78.7092	54.1992	79.0143	54.1992	78.6713	54.1992	78.988	54.1992	78.6354	54.1992	78.9538	54.1992	78.6024	54.1992	78.9131	54.1992	78.5735	54.1992	78.8676	54.1992	78.5502	54.1992	78.8195	54.1992	78.5338	54.1992	78.7711	54.1992	78.5256	54.1992	78.7242	54.1992	78.5262	54.1992	78.6804	54.1992	78.5354	54.1992	78.6407	54.1992	78.5524	54.1992	78.6058	54.1992	78.5761
55.6641	79.9306	55.6641	79.896	55.6641	79.9608	55.6641	79.8584	55.6641	79.9854	55.6641	79.8192	55.6641	80.0032	55.6641	79.7797	55.6641	80.0131	55.6641	79.7409	55.6641	80.0142	55.6641	79.7038	55.6641	80.0062	55.6641	79.669	55.6641	79.9887	55.6641	79.637	55.6641	79.9623	55.6641	79.6083	55.6641	79.9281	55.6641	79.5833	55.6641	79.8878	55.6641	79.5629	55.6641	79.8439	55.6641	79.5477	55.6641	79.7989	55.6641	79.5384	55.6641	79.7549	55.6641	79.5358	55.6641	79.7136	55.6641	79.5399	55.6641	79.676	55.6641	79.5504	55.6641	79.6425	55.6641	79.5666	55.6641	79.613	55.6641	79.5877
58.5938	81.8976	58.5938	81.8541	58.5938	81.934	58.5938	81.8051	58.5938	81.962	58.5938	81.7524	58.5938	81.9806	58.5938	81.6977	58.5938	81.9892	58.5938	81.6431	58.5938	81.9872	58.5938	81.5906	58.5938	81.9746	58.5938	81.5421	58.5938	81.9518	58.5938	81.4993	58.5938	81.9194	58.5938	81.4634	58.5938	81.8789	58.5938	81.4349	58.5938	81.8318	58.5938	81.4139	58.5938	81.7803	58.5938	81.3999	58.5938	81.7264	58.5938	81.3925	58.5938	81.6724	58.5938	81.3911	58.5938	81.62	58.5938	81.3961	58.5938	81.5708	58.5938	81.4077	58.5938	81.5258	58.5938	81.4266	58.5938	81.4862	58.5938	81.4529
60.0586	82.8086	60.0586	82.7703	60.0586	82.8393	60.0586	82.7256	60.0586	82.8614	60.0586	82.6755	60.0586	82.8741	60.0586	82.6215	60.0586	82.877	60.0586	82.565	60.0586	82.8697	60.0586	82.5079	60.0586	82.8524	60.0586	82.4519	60.0586	82.8256	60.0586	82.399	60.0586	82.7901	60.0586	82.3511	60.0586	82.7473	60.0586	82.3099	60.0586	82.6988	60.0586	82.2767	60.0586	82.6465	60.0586	82.2525	60.0586	82.5923	60.0586	82.2379	60.0586	82.5377	60.0586	82.2332	60.0586	82.4845	60.0586	82.2383	60.0586	82.4338	60.0586	82.2529	60.0586	82.3866	60.0586	82.2761	60.0586	82.344	60.0586	82.3068
62.9883	84.2659	62.9883	84.2232	62.9883	84.3	62.9883	84.1735	62.9883	84.3243	62.9883	84.1189	62.9883	84.338	62.9883	84.0614	62.9883	84.3407	62.9883	84.0033	62.9883	84.3327	62.9883	83.9468	62.9883	84.3145	62.9883	83.8942	62.9883	84.2872	62.9883	83.8472	62.9883	84.2522	62.9883	83.8074	62.9883	84.2112	62.9883	83.7759	62.9883	84.1659	62.9883	83.7533	62.9883	84.118	62.9883	83.7396	62.9883	84.0691	62.9883	83.7348	62.9883	84.0209	62.9883	83.7384	62.9883	83.9745	62.9883	83.7497	62.9883	83.931	62.9883	83.768	62.9883	83.8909	62.9883	83.7922	62.9883	83.8543	62.9883	83.8213
64.4531	84.8528	64.4531	84.8049	64.4531	84.8917	64.4531	84.75	64.4531	84.9203	64.4531	84.6902	64.4531	84.9379	64.4531	84.6279	64.4531	84.944	64.4531	84.5656	64.4531	84.9388	64.4531	84.5061	64.4531	84.9231	64.4531	84.4516	64.4531	84.8981	64.4531	84.4044	64.4531	84.8651	64.4531	84.3662	64.4531	84.8258	64.4531	84.3381	64.4531	84.782	64.4531	84.3205	64.4531	84.7353	64.4531	84.3131	64.4531	84.6871	64.4531	84.3154	64.4531	84.6389	64.4531	84.3262	64.4531	84.5919	64.4531	84.3444	64.4531	84.5471	64.4531	84.3685	64.4531	84.5051	64.4531	84.3974	64.4531	84.4661	64.4531	84.4302
67.3828	85.7319	67.3828	85.6789	67.3828	85.7753	67.3828	85.6181	67.3828	85.808	67.3828	85.5518	67.3828	85.8292	67.3828	85.4826	67.3828	85.839	67.3828	85.4136	67.3828	85.8377	67.3828	85.3478	67.3828	85.8263	67.3828	85.2886	67.3828	85.8061	67.3828	85.2385	67.3828	85.7789	67.3828	85.2001	67.3828	85.7464	67.3828	85.1749	67.3828	85.7102	67.3828	85.1637	67.3828	85.6715	67.3828	85.1664	67.3828	85.6312	67.3828	85.1818	67.3828	85.5899	67.3828	85.2082	67.3828	85.5477	67.3828	85.243	67.3828	85.5049	67.3828	85.2837	67.3828	85.4616	67.3828	85.3277	67.3828	85.4175	67.3828	85.3727
68.8477	86.128	68.8477	86.0785	68.8477	86.167	68.8477	86.0202	68.8477	86.1944	68.8477	85.9553	68.8477	86.2099	68.8477	85.8865	68.8477	86.2135	68.8477	85.8169	68.8477	86.206	68.8477	85.7499	68.8477	86.1884	68.8477	85.6886	68.8477	86.1624	68.8477	85.6359	68.8477	86.13	68.8477	85.5942	68.8477	86.0932	68.8477	85.5653	68.8477	86.0538	68.8477	85.5498	68.8477	86.0134	68.8477	85.5477	68.8477	85.9727	68.8477	85.5581	68.8477	85.932	68.8477	85.5793	68.8477	85.8914	68.8477	85.6092	68.8477	85.8508	68.8477	85.6454	68.8477	85.8099	68.8477	85.6853	68.8477	85.7686	68.8477	85.7268
71.7773	86.6352	71.7773	86.5838	71.7773	86.6738	71.7773	86.5216	71.7773	86.6984	71.7773	86.4513	71.7773	86.7084	71.7773	86.3763	71.7773	86.7044	71.7773	86.3002	71.7773	86.6873	71.7773	86.227	71.7773	86.6589	71.7773	86.1606	71.7773	86.6217	71.7773	86.1042	71.7773	86.5783	71.7773	86.0604	71.7773	86.5316	71.7773	86.031	71.7773	86.4841	71.7773	86.0163	71.7773	86.4376	71.7773	86.0156	71.7773	86.3932	71.7773	86.0274	71.7773	86.3514	71.7773	86.049	71.7773	86.3124	71.7773	86.0775	71.7773	86.2761	71.7773	86.1098	71.7773	86.242	71.7773	86.1434	71.7773	86.2093	71.7773	86.1766
74.707	86.9968	74.707	86.9454	74.707	87.0333	74.707	86.8812	74.707	87.0536	74.707	86.8073	74.707	87.0572	74.707	86.7272	74.707	87.045	74.707	86.6449	74.707	87.0183	74.707	86.5648	74.707	86.9796	74.707	86.4908	74.707	86.9319	74.707	86.4266	74.707	86.8787	74.707	86.3747	74.707	86.8231	74.707	86.3369	74.707	86.7676	74.707	86.3138	74.707	86.7143	74.707	86.3047	74.707	86.6638	74.707	86.3082	74.707	86.6167	74.707	86.3221	74.707	86.5732	74.707	86.3438	74.707	86.5333	74.707	86.3707	74.707	86.4969	74.707	86.4003	74.707	86.4632	74.707	86.4312
77.6367	87.24	77.6367	87.1829	77.6367	87.2811	77.6367	87.1124	77.6367	87.3047	77.6367	87.0321	77.6367	87.3103	77.6367	86.9467	77.6367	87.2989	77.6367	86.8608	77.6367	87.2728	77.6367	86.7797	77.6367	87.2349	77.6367	86.708	77.6367	87.1892	77.6367	86.6495	77.6367	87.1398	77.6367	86.6068	77.6367	87.0902	77.6367	86.5812	77.6367	87.0434	77.6367	86.5721	77.6367	87.0008	77.6367	86.5778	77.6367	86.9626	77.6367	86.5959	77.6367	86.9281	77.6367	86.6232	77.6367	86.8962	77.6367	86.6568	77.6367	86.8655	77.6367	86.6937	77.6367	86.8347	77.6367	86.7315	77.6367	86.8025	77.6367	86.7681
79.1016	87.3064	79.1016	87.2478	79.1016	87.348	79.1016	87.1752	79.1016	87.371	79.1016	87.0926	79.1016	87.375	79.1016	87.0049	79.1016	87.3612	79.1016	86.9174	79.1016	87.3319	79.1016	86.8358	79.1016	87.2907	79.1016	86.7652	79.1016	87.242	79.1016	86.7095	79.1016	87.1903	79.1016	86.6716	79.1016	87.14	79.1016	86.6522	79.1016	87.0941	79.1016	86.6503	79.1016	87.0545	79.1016	86.6635	79.1016	87.0213	79.1016	86.6884	79.1016	86.9935	79.1016	86.7213	79.1016	86.9692	79.1016	86.7586	79.1016	86.9465	79.1016	86.797	79.1016	86.9232	79.1016	86.8341	79.1016	86.8974	79.1016	86.8678
82.0312	87.4588	82.0312	87.395	82.0312	87.5029	82.0312	87.3148	82.0312	87.5256	82.0312	87.2229	82.0312	87.5266	82.0312	87.1249	82.0312	87.5071	82.0312	87.0271	82.0312	87.4702	82.0312	86.9362	82.0312	87.4199	82.0312	86.8583	82.0312	87.3615	82.0312	86.7983	82.0312	87.3006	82.0312	86.7595	82.0312	87.2424	82.0312	86.7427	82.0312	87.1911	82.0312	86.7465	82.0312	87.1489	82.0312	86.7673	82.0312	87.1163	82.0312	86.8004	82.0312	87.0918	82.0312	86.8405	82.0312	87.0729	82.0312	86.883	82.0312	87.0564	82.0312	86.9241	82.0312	87.0392	82.0312	86.9612	82.0312	87.0186	82.0312	86.9929
84.9609	87.5381	84.9609	87.471	84.9609	87.5842	84.9609	87.3859	84.9609	87.6073	84.9609	87.2876	84.9609	87.6072	84.9609	87.1818	84.9609	87.5854	84.9609	87.0753	84.9609	87.5446	84.9609	86.9749	84.9609	87.4894	84.9609	86.8874	84.9609	87.425	84.9609	86.8185	84.9609	87.3574	84.9609	86.7719	84.9609	87.2922	84.9609	86.7492	84.9609	87.2338	84.9609	86.7493	84.9609	87.1847	84.9609	86.7689	84.9609	87.1456	84.9609	86.8029	84.9609	87.1154	84.9609	86.8455	84.9609	87.092	84.9609	86.8911	84.9609	87.0726	84.9609	86.9352	84.9609	87.0541	84.9609	86.9744	84.9609	87.0331	84.9609	87.0071
87.8906	87.5836	87.8906	87.5297	87.8906	87.6157	87.8906	87.4565	87.8906	87.6251	87.8906	87.3681	87.8906	87.613	87.8906	87.2704	87.8906	87.5825	87.8906	87.1698	87.8906	87.5383	87.8906	87.0737	87.8906	87.4869	87.8906	86.989	87.8906	87.4352	87.8906	86.9217	87.8906	87.3898	87.8906	86.8759	87.8906	87.3556	87.8906	86.8532	87.8906	87.3347	87.8906	86.8533	87.8906	87.3258	87.8906	86.8733	87.8906	87.3246	87.8906	86.9097	87.8906	87.3253	87.8906	86.9583	87.8906	87.3216	87.8906	87.0151	87.8906	87.3085	87.8906	87.0762	87.8906	87.283	87.8906	87.1376	87.8906	87.2447	87.8906	87.1951
90.8203	87.7168	90.8203	87.644	90.8203	87.7646	90.8203	87.5504	90.8203	87.7854	90.8203	87.442	90.8203	87.7798	90.8203	87.3267	90.8203	87.751	90.8203	87.2131	90.8203	87.7042	90.8203	87.1102	90.8203	87.6466	90.8203	87.0262	90.8203	87.5867	90.8203	86.9678	90.8203	87.5326	90.8203	86.9386	90.8203	87.4915	90.8203	86.9394	90.8203	87.4676	90.8203	86.9676	90.8203	87.4615	90.8203	87.0183	90.8203	87.4701	90.8203	87.0849	90.8203	87.487	90.8203	87.1609	90.8203	87.5043	90.8203	87.24	90.8203	87.5136	90.8203	87.3169	90.8203	87.5086	90.8203	87.3865	90.8203	87.4855	90.8203	87.444
95.2148	88.0338	95.2148	87.9544	95.2148	88.0829	95.2148	87.8491	95.2148	88.0998	95.2148	87.7242	95.2148	88.0851	95.2148	87.5875	95.2148	88.0422	95.2148	87.4482	95.2148	87.9767	95.2148	87.3158	95.2148	87.8963	95.2148	87.1998	95.2148	87.8098	95.2148	87.1087	95.2148	87.7262	95.2148	87.0488	95.2148	87.6531	95.2148	87.0239	95.2148	87.5955	95.2148	87.0338	95.2148	87.5552	95.2148	87.0743	95.2148	87.5307	95.2148	87.1378	95.2148	87.5182	95.2148	87.2142	95.2148	87.513	95.2148	87.2931	95.2148	87.5099	95.2148	87.3649	95.2148	87.5042	95.2148	87.4231	95.2148	87.4907	95.2148	87.4648
98.1445	88.1577	98.1445	88.0892	98.1445	88.1947	98.1445	87.9934	98.1445	88.1988	98.1445	87.8765	98.1445	88.1711	98.1445	87.7466	98.1445	88.1154	98.1445	87.6128	98.1445	88.038	98.1445	87.4849	98.1445	87.9474	98.1445	87.3722	98.1445	87.8534	98.1445	87.2826	98.1445	87.7658	98.1445	87.2216	98.1445	87.6931	98.1445	87.1921	98.1445	87.6405	98.1445	87.1933	98.1445	87.6096	98.1445	87.2215	98.1445	87.5973	98.1445	87.2706	98.1445	87.5977	98.1445	87.3328	98.1445	87.6035	98.1445	87.3997	98.1445	87.6078	98.1445	87.464	98.1445	87.6047	98.1445	87.5194	98.1445	87.5903	98.1445	87.562
101.074	88.1167	101.074	88.0351	101.074	88.1651	101.074	87.9246	101.074	88.1783	101.074	87.7924	101.074	88.1571	101.074	87.6475	101.074	88.1052	101.074	87.5006	101.074	88.029	101.074	87.3633	101.074	87.9371	101.074	87.2465	101.074	87.8401	101.074	87.16	101.074	87.7493	101.074	87.1103	101.074	87.6746	101.074	87.1002	101.074	87.6236	101.074	87.128	101.074	87.5993	101.074	87.1882	101.074	87.6001	101.074	87.272	101.074	87.6197	101.074	87.3686	101.074	87.6492	101.074	87.4667	101.074	87.6782	101.074	87.5557	101.074	87.6971	101.074	87.627	101.074	87.6978	101.074	87.675
105.469	88.4665	105.469	88.3771	105.469	88.52	105.469	88.2571	105.469	88.5354	105.469	88.1144	105.469	88.5139	105.469	87.9594	105.469	88.46	105.469	87.804	105.469	88.3816	105.469	87.6609	105.469	88.2891	105.469	87.5419	105.469	88.1946	105.469	87.4568	105.469	88.1104	105.469	87.4119	105.469	88.0469	105.469	87.4092	105.469	88.0107	105.469	87.4461	105.469	88.0033	105.469	87.516	105.469	88.021	105.469	87.61	105.469	88.0554	105.469	87.7181	105.469	88.0954	105.469	87.8298	105.469	88.1285	105.469	87.9353	105.469	88.1437	105.469	88.0256	105.469	88.1331	105.469	88.0933
108.398	88.6908	108.398	88.6077	108.398	88.7319	108.398	88.4873	108.398	88.7297	108.398	88.3374	108.398	88.6864	108.398	88.1686	108.398	88.6077	108.398	87.994	108.398	88.5024	108.398	87.8277	108.398	88.3824	108.398	87.684	108.398	88.2609	108.398	87.5756	108.398	88.1517	108.398	87.5117	108.398	88.0667	108.398	87.4963	108.398	88.0144	108.398	87.5276	108.398	87.9977	108.398	87.5984	108.398	88.0135	108.398	87.6973	108.398	88.0534	108.398	87.8108	108.398	88.1047	108.398	87.9255	108.398	88.1535	108.398	88.0295	108.398	88.1863	108.398	88.1129	108.398	88.1932	108.398	88.1688
112.793	88.9022	112.793	88.8372	112.793	88.9239	112.793	88.7325	112.793	88.9016	112.793	88.595	112.793	88.8379	112.793	88.434	112.793	88.7387	112.793	88.2613	112.793	88.6127	112.793	88.0896	112.793	88.4713	112.793	87.9323	112.793	88.3279	112.793	87.8017	112.793	88.1962	112.793	87.7077	112.793	88.0888	112.793	87.6571	112.793	88.0144	112.793	87.6516	112.793	87.9765	112.793	87.688	112.793	87.9732	112.793	87.7576	112.793	87.9972	112.793	87.8479	112.793	88.0383	112.793	87.9439	112.793	88.0843	112.793	88.0311	112.793	88.1228	112.793	88.0974	112.793	88.1425	112.793	88.1352
117.188	89.0696	117.188	88.9772	117.188	89.1137	117.188	88.8427	117.188	89.1069	117.188	88.6758	117.188	89.0512	117.188	88.4892	117.188	88.9528	117.188	88.2971	117.188	88.8228	117.188	88.1146	117.188	88.676	117.188	87.9564	117.188	88.53	117.188	87.8351	117.188	88.4027	117.188	87.7597	117.188	88.3092	117.188	87.7347	117.188	88.2588	117.188	87.7596	117.188	88.2525	117.188	87.8287	117.188	88.2834	117.188	87.9319	117.188	88.3381	117.188	88.0559	117.188	88.401	117.188	88.1856	117.188	88.4568	117.188	88.3059	117.188	88.4925	117.188	88.4034	117.188	88.4984	117.188	88.4691
120.117	89.2993	120.117	89.1952	120.117	89.3499	120.117	89.0448	120.117	89.3438	120.117	88.8593	120.117	89.2826	120.117	88.653	120.117	89.1724	120.117	88.442	120.117	89.0246	120.117	88.2434	120.117	88.8544	120.117	88.0732	120.117	88.6807	120.117	87.9447	120.117	88.5233	120.117	87.8671	120.117	88.4006	120.117	87.8442	120.117	88.3255	120.117	87.8744	120.117	88.3031	120.117	87.9507	120.117	88.3287	120.117	88.0619	120.117	88.3896	120.117	88.1932	120.117	88.4676	120.117	88.3282	120.117	88.5433	120.117	88.4508	120.117	88.5994	120.117	88.5466	120.117	88.6226	120.117	88.6055
124.512	89.6768	124.512	89.5685	124.512	89.7325	124.512	89.4153	124.512	89.7324	124.512	89.2284	124.512	89.6773	124.512	89.0221	124.512	89.5727	124.512	88.8124	124.512	89.4284	124.512	88.6159	124.512	89.258	124.512	88.4475	124.512	89.0779	124.512	88.3188	124.512	88.9055	124.512	88.2368	124.512	88.7573	124.512	88.2035	124.512	88.6463	124.512	88.2163	124.512	88.5799	124.512	88.2686	124.512	88.5587	124.512	88.351	124.512	88.5765	124.512	88.4513	124.512	88.6217	124.512	88.5557	124.512	88.6784	124.512	88.6496	124.512	88.7294	124.512	88.72	124.512	88.7594	124.512	88.7577
128.906	89.7612	128.906	89.654	128.906	89.8114	128.906	89.4983	128.906	89.8015	128.906	89.3077	128.906	89.7338	128.906	89.0993	128.906	89.6162	128.906	88.8931	128.906	89.4618	128.906	88.709	128.906	89.2882	128.906	88.5648	128.906	89.1156	128.906	88.4729	128.906	88.9648	128.906	88.4392	128.906	88.8528	128.906	88.4617	128.906	88.7905	128.906	88.5317	128.906	88.7796	128.906	88.636	128.906	88.8134	128.906	88.759	128.906	88.8791	128.906	88.885	128.906	88.9611	128.906	88.9996	128.906	89.0438	128.906	89.0908	128.906	89.1137	128.906	89.1501	128.906	89.1594	128.906	89.173
133.301	90.1223	133.301	89.999	133.301	90.185	133.301	89.824	133.301	90.183	133.301	89.6111	133.301	90.1178	133.301	89.3777	133.301	89.9964	133.301	89.1441	133.301	89.8315	133.301	88.9316	133.301	89.6412	133.301	88.76	133.301	89.4473	133.301	88.6451	133.301	89.273	133.301	88.5962	133.301	89.1396	133.301	88.6146	133.301	89.0617	133.301	88.6938	133.301	89.0449	133.301	88.8206	133.301	89.0841	133.301	88.9772	133.301	89.1657	133.301	89.1433	133.301	89.2706	133.301	89.2988	133.301	89.3784	133.301	89.4254	133.301	89.4699	133.301	89.5097	133.301	89.5291	133.301	89.5444
139.16	90.6448	139.16	90.5112	139.16	90.7088	139.16	90.3175	139.16	90.6994	139.16	90.0777	139.16	90.6185	139.16	89.8102	139.16	90.4739	139.16	89.5367	139.16	90.2798	139.16	89.28	139.16	90.0557	139.16	89.0624	139.16	89.8256	139.16	88.9018	139.16	89.6146	139.16	88.8098	139.16	89.4454	139.16	88.7892	139.16	89.3338	139.16	88.8346	139.16	89.2857	139.16	88.9331	139.16	89.2964	139.16	89.0673	139.16	89.3523	139.16	89.2175	139.16	89.4341	139.16	89.3641	139.16	89.5203	139.16	89.4897	139.16	89.5911	139.16	89.5805	139.16	89.6305	139.16	89.6283
143.555	90.9538	143.555	90.8192	143.555	91.0119	143.555	90.6178	143.555	90.99	143.555	90.3651	143.555	90.8914	143.555	90.0816	143.555	90.7262	143.555	89.791	143.555	90.5113	143.555	89.5186	143.555	90.2695	143.555	89.2878	143.555	90.0277	143.555	89.1172	143.555	89.8129	143.555	89.0175	143.555	89.6484	143.555	88.9904	143.555	89.5485	143.555	89.0285	143.555	89.5157	143.555	89.1185	143.555	89.5408	143.555	89.2434	143.555	89.6055	143.555	89.3857	143.555	89.6877	143.555	89.5282	143.555	89.7653	143.555	89.6558	143.555	89.8203	143.555	89.7558	143.555	89.8403	143.555	89.8189
147.949	91.0225	147.949	90.8794	147.949	91.0839	147.949	90.6653	147.949	91.0605	147.949	90.3974	147.949	90.9563	147.949	90.0983	147.949	90.7832	147.949	89.795	147.949	90.56	147.949	89.5161	147.949	90.3119	147.949	89.2887	147.949	90.0679	147.949	89.134	147.949	89.8574	147.949	89.0638	147.949	89.7053	147.949	89.0775	147.949	89.627	147.949	89.1629	147.949	89.625	147.949	89.2997	147.949	89.6876	147.949	89.4643	147.949	89.7927	147.949	89.6352	147.949	89.9122	147.949	89.7952	147.949	90.019	147.949	89.9318	147.949	90.0924	147.949	90.0361	147.949	90.1207	147.949	90.101
153.809	91.0854	153.809	90.9563	153.809	91.1249	153.809	90.7468	153.809	91.0725	153.809	90.4728	153.809	90.9338	153.809	90.1564	153.809	90.7222	153.809	89.8245	153.809	90.4589	153.809	89.5075	153.809	90.1721	153.809	89.2372	153.809	89.8947	153.809	89.0424	153.809	89.66	153.809	88.9452	153.809	89.4971	153.809	88.9552	153.809	89.4247	153.809	89.0669	153.809	89.4485	153.809	89.26	153.809	89.559	153.809	89.5034	153.809	89.7333	153.809	89.7623	153.809	89.9387	153.809	90.0047	153.809	90.1381	153.809	90.2047	153.809	90.2974	153.809	90.3433	153.809	90.3916	153.809	90.4077
159.668	91.4473	159.668	91.3164	159.668	91.4863	159.668	91.1046	159.668	91.4299	159.668	90.8302	159.668	91.2829	159.668	90.5177	159.668	91.0585	159.668	90.1965	159.668	90.7787	159.668	89.8988	159.668	90.474	159.668	89.6556	159.668	90.1803	159.668	89.4924	159.668	89.9352	159.668	89.4255	159.668	89.77	159.668	89.4583	159.668	89.7037	159.668	89.581	159.668	89.7384	159.668	89.7729	159.668	89.8599	159.668	90.006	159.668	90.0422	159.668	90.2495	159.668	90.2536	159.668	90.4734	159.668	90.4614	159.668	90.6514	159.668	90.6361	159.668	90.7638	159.668	90.7539	159.668	90.7988
165.527	91.7612	165.527	91.6428	165.527	91.778	165.527	91.4333	165.527	91.6902	165.527	91.1497	165.527	91.503	165.527	90.8149	165.527	91.2301	165.527	90.4567	165.527	90.8949	165.527	90.1065	165.527	90.5291	165.527	89.7972	165.527	90.1718	165.527	89.5606	165.527	89.8644	165.527	89.423	165.527	89.6447	165.527	89.4003	165.527	89.5392	165.527	89.4933	165.527	89.5577	165.527	89.6852	165.527	89.6902	165.527	89.944	165.527	89.9088	165.527	90.228	165.527	90.173	165.527	90.4946	165.527	90.4377	165.527	90.7072	165.527	90.6619	165.527	90.8393	165.527	90.8146	165.527	90.8762
171.387	91.9892	171.387	91.8522	171.387	92.0198	171.387	91.6208	171.387	91.9402	171.387	91.3147	171.387	91.7552	171.387	90.9602	171.387	91.4791	171.387	90.5894	171.387	91.1359	171.387	90.2367	171.387	90.7589	171.387	89.9351	171.387	90.3884	171.387	89.712	171.387	90.0667	171.387	89.5855	171.387	89.8299	171.387	89.5629	171.387	89.7016	171.387	89.6408	171.387	89.6886	171.387	89.8054	171.387	89.7819	171.387	90.0326	171.387	89.9598	171.387	90.2897	171.387	90.191	171.387	90.5383	171.387	90.4374	171.387	90.7401	171.387	90.6588	171.387	90.8641	171.387	90.819	171.387	90.8916
177.246	91.9802	177.246	91.8495	177.246	91.994	177.246	91.6138	177.246	91.8873	177.246	91.293	177.246	91.6655	177.246	90.9145	177.246	91.3439	177.246	90.5124	177.246	90.948	177.246	90.1245	177.246	90.5142	177.246	89.7894	177.246	90.0876	177.246	89.5403	177.246	89.7176	177.246	89.4001	177.246	89.4489	177.246	89.3768	177.246	89.3112	177.246	89.4625	177.246	89.311	177.246	89.636	177.246	89.4313	177.246	89.8658	177.246	89.638	177.246	90.1153	177.246	89.8904	177.246	90.3464	177.246	90.1482	177.246	90.5248	177.246	90.376	177.246	90.6244	177.246	90.5442	177.246	90.631
183.105	91.8197	183.105	91.6942	183.105	91.8239	183.105	91.4605	183.105	91.7029	183.105	91.1401	183.105	91.4626	183.105	90.763	183.105	91.1185	183.105	90.3658	183.105	90.6966	183.105	89.9886	183.105	90.2327	183.105	89.6706	183.105	89.7714	183.105	89.443	183.105	89.3624	183.105	89.3226	183.105	89.0545	183.105	89.31	183.105	88.8857	183.105	89.3919	183.105	88.8738	183.105	89.5466	183.105	89.008	183.105	89.7488	183.105	89.251	183.105	89.9695	183.105	89.5498	183.105	90.1765	183.105	89.8514	183.105	90.3365	183.105	90.1135	183.105	90.4207	183.105	90.3066	183.105	90.412
188.965	91.7313	188.965	91.6335	188.965	91.6954	188.965	91.4117	188.965	91.5253	188.965	91.0844	188.965	91.2306	188.965	90.6782	188.965	90.8323	188.965	90.2288	188.965	90.3631	188.965	89.7808	188.965	89.8661	188.965	89.386	188.965	89.3899	188.965	89.0971	188.965	88.9821	188.965	88.9535	188.965	88.6814	188.965	88.9668	188.965	88.5139	188.965	89.113	188.965	88.4925	188.965	89.3424	188.965	88.6156	188.965	89.5992	188.965	88.8604	188.965	89.838	188.965	89.1809	188.965	90.029	188.965	89.5174	188.965	90.1546	188.965	89.8147	188.965	90.2033	188.965	90.0361	188.965	90.166
196.289	92.0503	196.289	91.9053	196.289	92.0595	196.289	91.6382	196.289	91.9284	196.289	91.2711	196.289	91.663	196.289	90.8332	196.289	91.2811	196.289	90.36	196.289	90.8138	196.289	89.8922	196.289	90.3059	196.289	89.4742	196.289	89.8124	196.289	89.1516	196.289	89.391	196.289	88.9649	196.289	89.0884	196.289	88.9397	196.289	88.9288	196.289	89.0736	196.289	88.9094	196.289	89.3315	196.289	89.0073	196.289	89.653	196.289	89.1925	196.289	89.9712	196.289	89.4351	196.289	90.2293	196.289	89.7065	196.289	90.3902	196.289	89.9757	196.289	90.4371	196.289	90.2085	196.289	90.3712
203.613	92.4001	203.613	92.2021	203.613	92.4394	203.613	91.8667	203.613	92.3089	203.613	91.4236	203.613	92.0094	203.613	90.9087	203.613	91.5557	203.613	90.3617	203.613	90.9797	203.613	89.8232	203.613	90.3319	203.613	89.3312	203.613	89.6816	203.613	88.9208	203.613	89.1098	203.613	88.6251	203.613	88.6947	203.613	88.475	203.613	88.4897	203.613	88.4934	203.613	88.5065	203.613	88.681	203.613	88.7129	203.613	89.0036	203.613	89.0466	203.613	89.396	203.613	89.4339	203.613	89.7823	203.613	89.8063	203.613	90.0984	203.613	90.1092	203.613	90.3021	203.613	90.3052	203.613	90.3724
210.938	91.8261	210.938	91.6408	210.938	91.8529	210.938	91.315	210.938	91.7126	210.938	90.8752	210.938	91.4068	210.938	90.3554	210.938	90.9491	210.938	89.7953	210.938	90.366	210.938	89.237	210.938	89.6982	210.938	88.7208	210.938	89.0013	210.938	88.2806	210.938	88.3422	210.938	87.9413	210.938	87.7915	210.938	87.7195	210.938	87.4096	210.938	87.6245	210.938	87.2306	210.938	87.6555	210.938	87.2528	210.938	87.7953	210.938	87.4377	210.938	88.0066	210.938	87.7216	210.938	88.2378	210.938	88.0323	210.938	88.4366	210.938	88.3061	210.938	88.5611	210.938	88.4983	210.938	88.5851
218.262	91.6139	218.262	91.4364	218.262	91.6252	218.262	91.1104	218.262	91.4666	218.262	90.6675	218.262	91.1483	218.262	90.153	218.262	90.6948	218.262	89.624	218.262	90.1452	218.262	89.144	218.262	89.5523	218.262	88.7726	218.262	88.9794	218.262	88.5513	218.262	88.4932	218.262	88.4923	218.262	88.1534	218.262	88.5776	218.262	87.9997	218.262	88.7692	218.262	88.0413	218.262	89.0242	218.262	88.2536	218.262	89.3044	218.262	88.5848	218.262	89.5774	218.262	88.9714	218.262	89.8144	218.262	89.3531	218.262	89.9881	218.262	89.6813	218.262	90.0741	218.262	89.9218	218.262	90.0545
225.586	92.0509	225.586	91.7936	225.586	92.1154	225.586	91.3664	225.586	91.9781	225.586	90.8048	225.586	91.6462	225.586	90.1553	225.586	91.1462	225.586	89.474	225.586	90.5259	225.586	88.8233	225.586	89.8547	225.586	88.266	225.586	89.2172	225.586	87.8582	225.586	88.6981	225.586	87.641	225.586	88.3613	225.586	87.6344	225.586	88.2346	225.586	87.8314	225.586	88.3086	225.586	88.1953	225.586	88.546	225.586	88.6632	225.586	88.8925	225.586	89.159	225.586	89.2859	225.586	89.6107	225.586	89.6654	225.586	89.9636	225.586	89.9785	225.586	90.1843	225.586	90.1849	225.586	90.258
232.91	92.021	232.91	91.7974	232.91	92.0341	232.91	91.3841	232.91	91.8291	232.91	90.8143	232.91	91.4139	232.91	90.133	232.91	90.8143	232.91	89.3975	232.91	90.077	232.91	88.6766	232.91	89.2719	232.91	88.0452	232.91	88.4917	232.91	87.5715	232.91	87.8438	232.91	87.3	232.91	87.4296	232.91	87.2426	232.91	87.3126	232.91	87.3846	232.91	87.4922	232.91	87.6965	232.91	87.901	232.91	88.1378	232.91	88.4308	232.91	88.6497	232.91	88.9712	232.91	89.1575	232.91	89.4381	232.91	89.5863	232.91	89.7817	232.91	89.8806	232.91	89.9775	232.91	90.0127
241.699	91.5994	241.699	91.3472	241.699	91.6409	241.699	90.9061	241.699	91.4656	241.699	90.3115	241.699	91.0833	241.699	89.6108	241.699	90.521	241.699	88.8612	241.699	89.8234	241.699	88.1285	241.699	89.053	241.699	87.483	241.699	88.2872	241.699	86.9938	241.699	87.6104	241.699	86.7151	241.699	87.1015	241.699	86.6707	241.699	86.8217	241.699	86.8447	241.699	86.8047	241.699	87.1903	241.699	87.0468	241.699	87.6482	241.699	87.4963	241.699	88.1588	241.699	88.0591	241.699	88.6609	241.699	88.6237	241.699	89.0897	241.699	89.0915	241.699	89.3827	241.699	89.393	241.699	89.4918
250.488	91.3122	250.488	90.9977	250.488	91.4116	250.488	90.4915	250.488	91.2853	250.488	89.8316	250.488	90.9364	250.488	89.0706	250.488	90.3832	250.488	88.2767	250.488	89.664	250.488	87.5298	250.488	88.8411	250.488	86.9135	250.488	88.0023	250.488	86.4984	250.488	87.2524	250.488	86.3228	250.488	86.694	250.488	86.3815	250.488	86.404	250.488	86.6342	250.488	86.4161	250.488	87.0253	250.488	86.7129	250.488	87.5003	250.488	87.223	250.488	88.0078	250.488	87.8328	250.488	88.4941	250.488	88.4204	250.488	88.9017	250.488	88.8893	250.488	89.1766	250.488	89.1826	250.488	89.2777
259.277	91.5694	259.277	91.2344	259.277	91.6648	259.277	90.6885	259.277	91.5069	259.277	89.9728	259.277	91.0986	259.277	89.1403	259.277	90.4621	259.277	88.2543	259.277	89.6416	259.277	87.3884	259.277	88.7072	259.277	86.6272	259.277	87.7558	259.277	86.0614	259.277	86.9041	259.277	85.7723	259.277	86.267	259.277	85.8004	259.277	85.9213	259.277	86.1188	259.277	85.8815	259.277	86.6392	259.277	86.1103	259.277	87.2495	259.277	86.5502	259.277	87.8508	259.277	87.1345	259.277	88.3715	259.277	87.7737	259.277	88.7617	259.277	88.3569	259.277	88.9812	259.277	88.7837	259.277	88.9955
268.066	91.1695	268.066	90.8484	268.066	91.2487	268.066	90.3098	268.066	91.0766	268.066	89.5931	268.066	90.6591	268.066	88.7509	268.066	90.0183	268.066	87.8477	268.066	89.1934	268.066	86.9557	268.066	88.2428	268.066	86.1521	268.066	87.2459	268.066	85.5166	268.066	86.3035	268.066	85.1273	268.066	85.535	268.066	85.0452	268.066	85.0635	268.066	85.2849	268.066	84.9753	268.066	85.7911	268.066	85.264	268.066	86.4498	268.066	85.8184	268.066	87.1304	268.066	86.4841	268.066	87.7217	268.066	87.1352	268.066	88.1455	268.066	87.694	268.066	88.3571	268.066	88.11	268.066	88.3415
276.855	90.7909	276.855	90.4157	276.855	90.9107	276.855	89.8159	276.855	90.7644	276.855	89.0418	276.855	90.3622	276.855	88.1617	276.855	89.7354	276.855	87.2577	276.855	88.9372	276.855	86.4184	276.855	88.0404	276.855	85.7246	276.855	87.1315	276.855	85.2344	276.855	86.2988	276.855	84.9772	276.855	85.6206	276.855	84.9618	276.855	85.161	276.855	85.1883	276.855	84.9742	276.855	85.6398	276.855	85.0977	276.855	86.2586	276.855	85.5192	276.855	86.9385	276.855	86.1475	276.855	87.554	276.855	86.84	276.855	88.0014	276.855	87.4644	276.855	88.2207	276.855	87.9325	276.855	88.1942
287.109	90.6328	287.109	90.278	287.109	90.6932	287.109	89.6575	287.109	90.451	287.109	88.8191	287.109	89.9206	287.109	87.831	287.109	89.141	287.109	86.783	287.109	88.1782	287.109	85.7856	287.109	87.1277	287.109	84.9573	287.109	86.1108	287.109	84.3945	287.109	85.259	287.109	84.1396	287.109	84.6823	287.109	84.1753	287.109	84.4333	287.109	84.4543	287.109	84.4985	287.109	84.9293	287.109	84.8243	287.109	85.5524	287.109	85.3466	287.109	86.2507	287.109	85.9917	287.109	86.9199	287.109	86.663	287.109	87.4534	287.109	87.2511	287.109	87.7745	287.109	87.6643	287.109	87.8464
297.363	90.5422	297.363	90.1172	297.363	90.6421	297.363	89.3954	297.363	90.4079	297.363	88.4238	297.363	89.8513	297.363	87.2688	297.363	89.0074	297.363	86.0155	297.363	87.9427	297.363	84.7714	297.363	86.7662	297.363	83.6718	297.363	85.6353	297.363	82.8807	297.363	84.7357	297.363	82.551	297.363	84.2186	297.363	82.7306	297.363	84.1272	297.363	83.301	297.363	84.3841	297.363	84.0457	297.363	84.8501	297.363	84.7756	297.363	85.3907	297.363	85.3943	297.363	85.9066	297.363	85.8893	297.363	86.334	297.363	86.2818	297.363	86.632	297.363	86.5771	297.363	86.7743	297.363	86.7515
307.617	90.3467	307.617	89.9197	307.617	90.4464	307.617	89.1951	307.617	90.2087	307.617	88.2235	307.617	89.6429	307.617	87.0792	307.617	88.7791	307.617	85.8623	307.617	87.6726	307.617	84.6941	307.617	86.4123	307.617	83.6997	307.617	85.1304	307.617	82.98	307.617	84.0026	307.617	82.595	307.617	83.2165	307.617	82.5723	307.617	82.8963	307.617	82.9152	307.617	83.0313	307.617	83.5781	307.617	83.4964	307.617	84.4406	307.617	84.1495	307.617	85.3382	307.617	84.8939	307.617	86.1248	307.617	85.6554	307.617	86.7057	307.617	86.3382	307.617	87.0309	307.617	86.8363	307.617	87.0761
319.336	90.1112	319.336	89.5182	319.336	90.3437	319.336	88.5945	319.336	90.2027	319.336	87.3895	319.336	89.6898	319.336	85.9751	319.336	88.8197	319.336	84.4522	319.336	87.6263	319.336	82.9648	319.336	86.177	319.336	81.7125	319.336	84.598	319.336	80.9165	319.336	83.1064	319.336	80.7029	319.336	82.0121	319.336	81.0078	319.336	81.6127	319.336	81.6488	319.336	81.9755	319.336	82.4639	319.336	82.8606	319.336	83.356	319.336	83.9098	319.336	84.2545	319.336	84.8522	319.336	85.0778	319.336	85.5663	319.336	85.739	319.336	86.0425	319.336	86.1738	319.336	86.3063	319.336	86.3583
329.59	89.4568	329.59	88.8092	329.59	89.7373	329.59	87.8186	329.59	89.6532	329.59	86.539	329.59	89.229	329.59	85.0579	329.59	88.5051	329.59	83.4963	329.59	87.5312	329.59	82.0003	329.59	86.3618	329.59	80.7226	329.59	85.0595	329.59	79.8163	329.59	83.7128	329.59	79.4382	329.59	82.4719	329.59	79.6991	329.59	81.5782	329.59	80.5411	329.59	81.3058	329.59	81.7168	329.59	81.7522	329.59	82.94	329.59	82.7005	329.59	84.0158	329.59	83.7928	329.59	84.8578	329.59	84.7531	329.59	85.4506	329.59	85.4432	329.59	85.8083	329.59	85.8306	329.59	85.9403
341.309	90.459	341.309	89.8573	341.309	90.6498	341.309	88.8596	341.309	90.4272	341.309	87.4951	341.309	89.8032	341.309	85.8135	341.309	88.8095	341.309	83.8985	341.309	87.5057	341.309	81.8956	341.309	85.9864	341.309	80.0516	341.309	84.385	341.309	78.7246	341.309	82.872	341.309	78.2544	341.309	81.6564	341.309	78.7137	341.309	80.9682	341.309	79.8674	341.309	80.9789	341.309	81.3837	341.309	81.6752	341.309	82.9817	341.309	82.8387	341.309	84.4602	341.309	84.1784	341.309	85.6939	341.309	85.446	341.309	86.6134	341.309	86.4625	341.309	87.1777	341.309	87.115	341.309	87.3535
353.027	90.9769	353.027	90.551	353.027	90.9648	353.027	89.7245	353.027	90.4931	353.027	88.5465	353.027	89.5647	353.027	87.0801	353.027	88.2192	353.027	85.4085	353.027	86.5468	353.027	83.646	353.027	84.6923	353.027	81.9451	353.027	82.8407	353.027	80.498	353.027	81.1921	353.027	79.542	353.027	79.9514	353.027	79.3562	353.027	79.3011	353.027	80.111	353.027	79.3175	353.027	81.6018	353.027	79.9085	353.027	83.35	353.027	80.8668	353.027	84.9504	353.027	82.0288	353.027	86.1782	353.027	83.343	353.027	86.9255	353.027	84.7236	353.027	87.1392	353.027	85.9535	353.027	86.8026
366.211	91.0556	366.211	90.6372	366.211	90.983	366.211	89.7738	366.211	90.3946	366.211	88.5277	366.211	89.2928	366.211	86.9741	366.211	87.7151	366.211	85.2064	366.211	85.7549	366.211	83.3542	366.211	83.6057	366.211	81.6144	366.211	81.6185	366.211	80.2633	366.211	80.2484	366.211	79.5684	366.211	79.77	366.211	79.6068	366.211	80.0937	366.211	80.2368	366.211	80.9677	366.211	81.2804	366.211	82.1563	366.211	82.5951	366.211	83.4248	366.211	83.9923	366.211	84.5563	366.211	85.2384	366.211	85.4374	366.211	86.1497	366.211	86.0782	366.211	86.6453	366.211	86.5214	366.211	86.7412
379.395	91.1016	379.395	90.4658	379.395	91.2327	379.395	89.3546	379.395	90.8485	379.395	87.8156	379.395	89.957	379.395	85.9158	379.395	88.5824	379.395	83.7493	379.395	86.7688	379.395	81.4596	379.395	84.594	379.395	79.2797	379.395	82.2074	379.395	77.5668	379.395	79.9195	379.395	76.735	379.395	78.336	379.395	76.9939	379.395	78.1807	379.395	78.1556	379.395	79.4558	379.395	79.8136	379.395	81.3953	379.395	81.5956	379.395	83.329	379.395	83.2447	379.395	84.9186	379.395	84.6157	379.395	86.0361	379.395	85.6548	379.395	86.6752	379.395	86.368	379.395	86.8978	379.395	86.781
392.578	91.307	392.578	90.6861	392.578	91.4298	392.578	89.5831	392.578	91.0517	392.578	88.0304	392.578	90.1773	392.578	86.0763	392.578	88.8185	392.578	83.7862	392.578	87.0113	392.578	81.2472	392.578	84.8619	392.578	78.5846	392.578	82.6068	392.578	76.0055	392.578	80.617	392.578	73.972	392.578	79.2654	392.578	73.5466	392.578	78.7911	392.578	75.3035	392.578	79.3024	392.578	77.9734	392.578	80.7226	392.578	80.5109	392.578	82.6784	392.578	82.6806	392.578	84.6563	392.578	84.4978	392.578	86.2724	392.578	85.9704	392.578	87.3395	392.578	87.0578	392.578	87.806	392.578	87.6932
405.762	91.3478	405.762	90.6788	405.762	91.4904	405.762	89.5185	405.762	91.0678	405.762	87.9074	405.762	90.0339	405.762	85.9017	405.762	88.3397	405.762	83.5901	405.762	85.9483	405.762	81.1225	405.762	82.8718	405.762	78.7465	405.762	79.2746	405.762	76.7927	405.762	75.7264	405.762	75.5309	405.762	73.4192	405.762	75.0143	405.762	73.2594	405.762	75.3026	405.762	74.8229	405.762	76.8042	405.762	77.2904	405.762	79.4689	405.762	80.0657	405.762	82.3744	405.762	82.7514	405.762	84.8444	405.762	85.078	405.762	86.671	405.762	86.8468	405.762	87.8128	405.762	87.9215	405.762	88.2414
420.41	92.1521	420.41	91.4649	420.41	92.2527	420.41	90.2463	420.41	91.723	420.41	88.5718	420.41	90.5335	420.41	86.5562	420.41	88.6744	420.41	84.3735	420.41	86.1602	420.41	82.2552	420.41	83.0377	420.41	80.4327	420.41	79.4196	420.41	79.0359	420.41	75.6043	420.41	78.0935	420.41	72.3242	420.41	77.7378	420.41	70.8543	420.41	78.2374	420.41	72.145	420.41	79.551	420.41	75.2745	420.41	81.2713	420.41	78.6504	420.41	83.0672	420.41	81.5618	420.41	84.7485	420.41	83.8836	420.41	86.1283	420.41	85.6314	420.41	87.0093	420.41	86.7747	420.41	87.2439
435.059	91.6382	435.059	91.1153	435.059	91.5157	435.059	90.0168	435.059	90.6963	435.059	88.4276	435.059	89.1491	435.059	86.454	435.059	86.8627	435.059	84.2475	435.059	83.8405	435.059	82.0427	435.059	80.1027	435.059	80.1604	435.059	75.7243	435.059	78.879	435.059	70.9974	435.059	78.224	435.059	66.9848	435.059	78.0097	435.059	66.6387	435.059	78.2582	435.059	70.9287	435.059	79.4467	435.059	75.694	435.059	81.6399	435.059	79.405	435.059	84.0378	435.059	82.1439	435.059	86.0052	435.059	84.2557	435.059	87.3379	435.059	85.9722	435.059	87.9967	435.059	87.2611	435.059	87.9671
451.172	90.548	451.172	89.6982	451.172	90.723	451.172	88.1897	451.172	90.2286	451.172	86.0774	451.172	89.0691	451.172	83.4685	451.172	87.2296	451.172	80.5332	451.172	84.6729	451.172	77.5267	451.172	81.3768	451.172	74.8494	451.172	77.4718	451.172	73.0855	451.172	73.5391	451.172	72.7187	451.172	70.4645	451.172	73.6409	451.172	68.0241	451.172	75.3633	451.172	65.4765	451.172	77.5545	451.172	68.7151	451.172	79.9791	451.172	75.2842	451.172	82.2969	451.172	79.9942	451.172	84.212	451.172	83.1147	451.172	85.5926	451.172	85.0894	451.172	86.4031	451.172	86.2059	451.172	86.6202
465.82	90.7603	465.82	89.8455	465.82	90.9466	465.82	88.2039	465.82	90.4163	465.82	85.8512	465.82	89.1952	465.82	82.8163	465.82	87.3188	465.82	79.1475	465.82	84.8253	465.82	74.9382	465.82	81.7573	465.82	70.4372	465.82	78.2107	465.82	66.3974	465.82	74.4774	465.82	64.6698	465.82	71.0508	465.82	66.4406	465.82	67.9316	465.82	69.7049	465.82	65.28	465.82	73.1686	465.82	68.1957	465.82	76.7285	465.82	74.0564	465.82	80.1393	465.82	78.8048	465.82	82.9956	465.82	82.2909	465.82	85.0606	465.82	84.6713	465.82	86.2634	465.82	86.0802	465.82	86.6017
483.398	91.1566	483.398	90.1848	483.398	91.3891	483.398	88.5048	483.398	90.8518	483.398	86.1422	483.398	89.5153	483.398	83.1021	483.398	87.3429	483.398	79.3481	483.398	84.28	483.398	74.8014	483.398	80.2522	483.398	69.5538	483.398	75.2327	483.398	64.8049	483.398	69.6902	483.398	62.4147	483.398	66.0402	483.398	63.6159	483.398	66.4798	483.398	68.3333	483.398	68.681	483.398	72.9708	483.398	70.8623	483.398	76.8124	483.398	73.446	483.398	79.9534	483.398	77.2271	483.398	82.4293	483.398	81.0437	483.398	84.2593	483.398	83.8348	483.398	85.4377	483.398	85.4057	483.398	85.8764
499.512	90.8621	499.512	89.7453	499.512	91.0998	499.512	87.7797	499.512	90.4173	499.512	84.9837	499.512	88.7508	499.512	81.3391	499.512	85.9938	499.512	76.7308	499.512	81.9737	499.512	70.898	499.512	76.4285	499.512	64.4267	499.512	69.2402	499.512	61.9758	499.512	63.779	499.512	60.5831	499.512	63.4729	499.512	59.0268	499.512	61.6797	499.512	66.2736	499.512	62.5359	499.512	72.5405	499.512	70.7766	499.512	77.203	499.512	76.5286	499.512	80.8953	499.512	80.3807	499.512	83.791	499.512	83.148	499.512	85.8805	499.512	85.253	499.512	87.096	499.512	86.7202	499.512	87.3746
517.09	90.503	517.09	89.1992	517.09	90.8599	517.09	86.9716	517.09	90.2642	517.09	83.8258	517.09	88.7313	517.09	79.6625	517.09	86.2856	517.09	74.1795	517.09	82.9433	517.09	67.9264	517.09	78.7794	517.09	67.1941	517.09	74.4917	517.09	68.5822	517.09	72.1222	517.09	67.6355	517.09	71.3879	517.09	62.8449	517.09	69.4675	517.09	58.3057	517.09	62.8377	517.09	70.2602	517.09	63.9863	517.09	76.4294	517.09	73.5185	517.09	80.3665	517.09	78.6042	517.09	83.0048	517.09	82.1962	517.09	84.8402	517.09	84.781	517.09	86.1001	517.09	86.2808	517.09	86.6677
536.133	90.7533	536.133	89.4954	536.133	91.1377	536.133	87.3897	536.133	90.618	536.133	84.4609	536.133	89.1325	536.133	80.7179	536.133	86.554	536.133	76.2863	536.133	82.6486	536.133	72.5129	536.133	77.0019	536.133	72.118	536.133	69.5738	536.133	73.0875	536.133	67.5449	536.133	73.1226	536.133	69.4648	536.133	71.6044	536.133	69.6306	536.133	67.5221	536.133	67.7078	536.133	60.5855	536.133	60.2657	536.133	71.8382	536.133	66.875	536.133	78.5168	536.133	75.8684	536.133	82.5418	536.133	80.6022	536.133	84.9175	536.133	83.4327	536.133	86.018	536.133	85.1688	536.133	86.051
555.176	90.6235	555.176	89.4246	555.176	90.8975	555.176	87.3111	555.176	90.2045	555.176	84.2294	555.176	88.4745	555.176	80.0277	555.176	85.5747	555.176	74.6806	555.176	81.204	555.176	70.6168	555.176	74.6197	555.176	71.2487	555.176	67.2621	555.176	72.2636	555.176	70.7876	555.176	72.2298	555.176	73.078	555.176	71.2889	555.176	72.9669	555.176	69.0029	555.176	71.1279	555.176	61.9319	555.176	68.1825	555.176	67.8792	555.176	64.5189	555.176	76.8758	555.176	70.9237	555.176	81.68	555.176	78.4092	555.176	84.4601	555.176	82.8374	555.176	85.8857	555.176	85.2381	555.176	86.1649
574.219	90.93	574.219	89.5144	574.219	91.2846	574.219	87.0902	574.219	90.4964	574.219	83.6259	574.219	88.4467	574.219	78.9741	574.219	84.9137	574.219	73.6893	574.219	79.4166	574.219	72.026	574.219	71.4716	574.219	73.3223	574.219	70.0814	574.219	74.1245	574.219	73.1506	574.219	74.2843	574.219	74.3342	574.219	73.4895	574.219	74.0043	574.219	70.4919	574.219	71.5025	574.219	60.47	574.219	64.9673	574.219	68.2525	574.219	66.0564	574.219	76.2107	574.219	73.0052	574.219	80.6469	574.219	77.7782	574.219	83.4103	574.219	81.4919	574.219	84.8334	574.219	83.9104	574.219	85.0006
594.727	91.2873	594.727	89.8794	594.727	91.6268	594.727	87.3544	594.727	90.868	594.727	83.5522	594.727	88.895	594.727	78.1943	594.727	85.4741	594.727	72.5624	594.727	80.2325	594.727	72.9486	594.727	73.9047	594.727	74.552	594.727	73.2882	594.727	74.5798	594.727	74.76	594.727	73.5464	594.727	75.2046	594.727	72.0958	594.727	75.2881	594.727	69.7726	594.727	74.5301	594.727	63.4371	594.727	70.4762	594.727	67.5067	594.727	59.2896	594.727	75.9558	594.727	75.8192	594.727	80.6096	594.727	81.1646	594.727	83.6273	594.727	83.9726	594.727	85.4921	594.727	85.6058	594.727	86.1614
615.234	92.3043	615.234	90.6587	615.234	92.7777	615.234	87.8143	615.234	92.02	615.234	83.6003	615.234	89.8984	615.234	77.9615	615.234	86.1281	615.234	74.2639	615.234	80.0181	615.234	75.4893	615.234	71.2263	615.234	76.4823	615.234	72.4803	615.234	76.5902	615.234	74.7672	615.234	76.1338	615.234	74.9541	615.234	75.2854	615.234	74.1979	615.234	73.9439	615.234	72.8995	615.234	70.6655	615.234	70.6834	615.234	63.2211	615.234	62.8351	615.234	75.3558	615.234	69.237	615.234	81.605	615.234	79.5756	615.234	84.9289	615.234	84.4208	615.234	86.6963	615.234	86.7157	615.234	87.3261
637.207	92.8305	637.207	91.3015	637.207	93.2192	637.207	88.6208	637.207	92.3516	637.207	84.5942	637.207	89.9874	637.207	79.1618	637.207	85.6117	637.207	76.3133	637.207	77.6993	637.207	78.2378	637.207	71.3447	637.207	79.2507	637.207	77.6611	637.207	78.9923	637.207	79.6537	637.207	78.1207	637.207	79.617	637.207	77.0341	637.207	78.2159	637.207	75.558	637.207	75.9457	637.207	72.2369	637.207	73.6981	637.207	59.5609	637.207	69.4372	637.207	74.9152	637.207	61.9114	637.207	81.9951	637.207	77.446	637.207	85.671	637.207	83.308	637.207	87.4496	637.207	86.3951	637.207	87.6938
659.18	93.409	659.18	91.7029	659.18	93.7186	659.18	88.5689	659.18	92.5533	659.18	83.8527	659.18	89.7131	659.18	78.0299	659.18	84.6938	659.18	75.9414	659.18	76.0899	659.18	77.1046	659.18	73.0142	659.18	77.8515	659.18	77.7453	659.18	78.5662	659.18	79.5649	659.18	79.2344	659.18	80.1947	659.18	79.1073	659.18	79.9563	659.18	77.6808	659.18	78.4776	659.18	74.7629	659.18	75.0928	659.18	68.5907	659.18	68.3589	659.18	72.5841	659.18	66.782	659.18	80.719	659.18	77.2709	659.18	84.8478	659.18	83.039	659.18	86.8613	659.18	86.1687	659.18	87.3251
682.617	93.4845	682.617	91.6403	682.617	93.9302	682.617	88.3232	682.617	92.8717	682.617	83.2337	682.617	90.03	682.617	77.2968	682.617	84.5885	682.617	77.0927	682.617	73.822	682.617	78.7295	682.617	77.3526	682.617	79.2162	682.617	81.1633	682.617	79.1023	682.617	81.7936	682.617	78.8369	682.617	81.4593	682.617	78.6279	682.617	80.9942	682.617	77.9519	682.617	80.1292	682.617	75.4848	682.617	78.1809	682.617	68.5301	682.617	73.587	682.617	73.5352	682.617	59.7396	682.617	81.1558	682.617	76.3207	682.617	85.0284	682.617	82.1256	682.617	86.6402	682.617	85.0062	682.617	86.4987
707.52	94.0782	707.52	92.1968	707.52	94.3249	707.52	88.6288	707.52	92.8968	707.52	83.3799	707.52	89.4924	707.52	77.9415	707.52	82.8914	707.52	77.4432	707.52	70.527	707.52	79.1987	707.52	78.8945	707.52	80.3374	707.52	81.3198	707.52	80.7173	707.52	80.952	707.52	80.2791	707.52	79.3608	707.52	79.0032	707.52	77.7068	707.52	77.314	707.52	77.4697	707.52	75.6941	707.52	77.9394	707.52	71.6027	707.52	76.2766	707.52	71.7489	707.52	68.5903	707.52	80.938	707.52	74.6646	707.52	84.8158	707.52	81.4917	707.52	86.196	707.52	84.7966	707.52	86.1716
732.422	94.4213	732.422	92.491	732.422	94.6629	732.422	88.8817	732.422	93.0796	732.422	83.5869	732.422	89.1684	732.422	78.3288	732.422	81.1867	732.422	78.7428	732.422	75.8833	732.422	80.2621	732.422	81.1469	732.422	80.5047	732.422	81.8829	732.422	80.097	732.422	81.2577	732.422	79.8842	732.422	80.762	732.422	80.0794	732.422	80.3412	732.422	79.9422	732.422	79.3427	732.422	78.3956	732.422	78.0433	732.422	73.5089	732.422	76.7123	732.422	67.0172	732.422	72.52	732.422	79.4075	732.422	70.0933	732.422	84.8622	732.422	81.5038	732.422	87.5664	732.422	86.4138	732.422	88.1511
757.324	95.1616	757.324	93.4005	757.324	95.1701	757.324	89.9177	757.324	93.2281	757.324	84.6708	757.324	88.6667	757.324	79.2934	757.324	78.9069	757.324	79.1334	757.324	77.9403	757.324	79.8654	757.324	82.2823	757.324	79.337	757.324	82.3921	757.324	78.7904	757.324	81.3933	757.324	79.3728	757.324	81.05	757.324	79.9646	757.324	81.1597	757.324	79.0431	757.324	80.096	757.324	76.546	757.324	77.5547	757.324	72.2005	757.324	75.2319	757.324	71.4593	757.324	71.7974	757.324	80.0843	757.324	72.9846	757.324	84.1901	757.324	79.9279	757.324	85.6505	757.324	83.3878	757.324	85.3304
785.156	94.3601	785.156	92.6498	785.156	94.3427	785.156	89.1885	785.156	92.2277	785.156	83.5277	785.156	87.0849	785.156	74	785.156	76.9625	785.156	59.5805	785.156	78.3903	785.156	72.4515	785.156	81.6996	785.156	74.9288	785.156	82.4017	785.156	73.3492	785.156	81.3919	785.156	69.139	785.156	79.1508	785.156	70.5936	785.156	77.622	785.156	72.9521	785.156	77.762	785.156	71.5953	785.156	78.0557	785.156	64.9881	785.156	76.9289	785.156	71.244	785.156	72.0651	785.156	78.8725	785.156	59.902	785.156	82.4717	785.156	74.3055	785.156	83.0286	785.156	78.5045	785.156	81.3312
811.523	93.9017	811.523	91.1621	811.523	94.2949	811.523	85.6364	811.523	92.1515	811.523	74.3214	811.523	86.7088	811.523	76.7812	811.523	79.7062	811.523	81.0569	811.523	83.5994	811.523	81.5336	811.523	85.2272	811.523	80.8279	811.523	84.1753	811.523	80.0931	811.523	81.3914	811.523	79.5681	811.523	78.0808	811.523	78.4066	811.523	76.6781	811.523	78.0095	811.523	78.2829	811.523	78.408	811.523	79.8542	811.523	76.605	811.523	79.614	811.523	68.0914	811.523	76.8903	811.523	73.4433	811.523	67.371	811.523	82.1822	811.523	75.2232	811.523	85.292	811.523	82.3743	811.523	85.2157
840.82	94.8331	840.82	92.4429	840.82	94.9397	840.82	87.2655	840.82	92.6726	840.82	77.6604	840.82	87.5744	840.82	78.8227	840.82	82.916	840.82	81.6642	840.82	85.0668	840.82	80.9758	840.82	85.1326	840.82	79.0748	840.82	82.8376	840.82	77.9167	840.82	79.7119	840.82	77.9525	840.82	76.7749	840.82	77.8663	840.82	73.2539	840.82	76.92	840.82	72.58	840.82	75.4824	840.82	76.3666	840.82	72.0924	840.82	77.5974	840.82	60.8866	840.82	75.7084	840.82	75.4358	840.82	69.2614	840.82	81.1284	840.82	71.7875	840.82	83.7023	840.82	81.1458	840.82	84.0059
870.117	94.7861	870.117	92.039	870.117	95.1915	870.117	86.4422	870.117	93.2902	870.117	77.0229	870.117	89.297	870.117	78.6239	870.117	85.3181	870.117	79.9963	870.117	84.5155	870.117	78.3365	870.117	84.0714	870.117	76.5707	870.117	81.8392	870.117	75.8698	870.117	77.2596	870.117	74.5006	870.117	72.1799	870.117	72.5615	870.117	71.031	870.117	72.9274	870.117	70.738	870.117	74.0264	870.117	71.6869	870.117	72.5977	870.117	77.818	870.117	70.6173	870.117	80.064	870.117	74.4735	870.117	78.1808	870.117	79.2487	870.117	76.7448	870.117	82.5592	870.117	80.4205	870.117	83.0282
900.879	95.8974	900.879	93.0668	900.879	96.478	900.879	87.7107	900.879	94.6899	900.879	79.6298	900.879	90.3976	900.879	77.9989	900.879	85.2608	900.879	78.0302	900.879	84.0239	900.879	75.4797	900.879	83.1271	900.879	72.3432	900.879	80.5121	900.879	71.3764	900.879	76.6401	900.879	74.0002	900.879	72.4249	900.879	75.8311	900.879	68.0639	900.879	75.4802	900.879	63.8317	900.879	74.1736	900.879	65.6326	900.879	74.4071	900.879	70.7562	900.879	72.787	900.879	73.7263	900.879	63.0176	900.879	75.549	900.879	77.3849	900.879	78.5422	900.879	80.5177	900.879	79.9811	900.879	80.4786
933.105	96.2808	933.105	93.5935	933.105	96.6176	933.105	87.7493	933.105	94.5138	933.105	78.1886	933.105	89.6258	933.105	81.142	933.105	83.3622	933.105	81.1	933.105	81.3231	933.105	78.7997	933.105	79.0385	933.105	76.9282	933.105	73.34	933.105	73.5824	933.105	52.8001	933.105	68.2857	933.105	67.9302	933.105	71.7129	933.105	69.1433	933.105	76.709	933.105	65.0671	933.105	78.8085	933.105	67.3036	933.105	76.652	933.105	70.8006	933.105	69.4822	933.105	70.8593	933.105	66.0387	933.105	64.8619	933.105	74.9333	933.105	69.2341	933.105	77.7484	933.105	77.4799	933.105	78.9253
965.332	95.9597	965.332	93.5382	965.332	96.1157	965.332	88.157	965.332	93.9919	965.332	81.7	965.332	89.2931	965.332	81.854	965.332	83.8864	965.332	80.1589	965.332	81.8142	965.332	77.5584	965.332	77.0582	965.332	75.3988	965.332	64.7114	965.332	72.7002	965.332	60.3965	965.332	71.3416	965.332	67.4085	965.332	72.5861	965.332	70.4247	965.332	75.0806	965.332	69.6927	965.332	76.7288	965.332	66.9695	965.332	76.5375	965.332	66.1483	965.332	73.4807	965.332	57.8588	965.332	56.8541	965.332	65.8582	965.332	72.0404	965.332	69.9214	965.332	76.467	965.332	66.1289	965.332	74.4403
1,000.49	95.3994	1,000.49	92.8297	1,000.49	95.589	1,000.49	87.0884	1,000.49	93.399	1,000.49	81.3852	1,000.49	88.7027	1,000.49	82.5814	1,000.49	83.2738	1,000.49	81.4444	1,000.49	78.5493	1,000.49	78.9906	1,000.49	70.9462	1,000.49	75.4234	1,000.49	60.0535	1,000.49	71.2184	1,000.49	72.975	1,000.49	69.6683	1,000.49	75.6286	1,000.49	68.2821	1,000.49	74.6663	1,000.49	73.2743	1,000.49	73.8703	1,000.49	76.1682	1,000.49	73.3853	1,000.49	75.8862	1,000.49	71.3337	1,000.49	72.7314	1,000.49	72.8285	1,000.49	60.0983	1,000.49	60.4442	1,000.49	72.4952	1,000.49	73.9728	1,000.49	71.0942	1,000.49	71.3033	1,000.49	60.5221
1,035.64	94.8299	1,035.64	92.1693	1,035.64	94.9268	1,035.64	86.244	1,035.64	92.6226	1,035.64	82.5029	1,035.64	87.5728	1,035.64	83.2098	1,035.64	81.1812	1,035.64	82.304	1,035.64	77.682	1,035.64	79.9743	1,035.64	70.6264	1,035.64	74.4335	1,035.64	71.6504	1,035.64	67.9837	1,035.64	73.0353	1,035.64	66.1301	1,035.64	74.3053	1,035.64	70.2598	1,035.64	74.992	1,035.64	65.1838	1,035.64	73.9795	1,035.64	67.8196	1,035.64	68.7252	1,035.64	70.1654	1,035.64	65.9658	1,035.64	65.7776	1,035.64	69.5169	1,035.64	67.2519	1,035.64	55.4412	1,035.64	68.2129	1,035.64	68.872	1,035.64	63.1764	1,035.64	65.0933	1,035.64	63.9081
1,072.27	93.8438	1,072.27	90.8721	1,072.27	93.9273	1,072.27	84.5825	1,072.27	91.4716	1,072.27	81.7648	1,072.27	85.9595	1,072.27	81.4635	1,072.27	78.7174	1,072.27	78.8587	1,072.27	74.6137	1,072.27	74.5525	1,072.27	73.9764	1,072.27	71.1504	1,072.27	74.8638	1,072.27	72.4927	1,072.27	73.6731	1,072.27	67.9955	1,072.27	73.4459	1,072.27	54.5577	1,072.27	74.0519	1,072.27	64.8387	1,072.27	75.2117	1,072.27	68.3095	1,072.27	74.661	1,072.27	68.476	1,072.27	72.8771	1,072.27	67.4407	1,072.27	73.4374	1,072.27	62.6401	1,072.27	67.1584	1,072.27	61.8741	1,072.27	59.5289	1,072.27	57.9988	1,072.27	68.3407	1,072.27	65.8015
1,108.89	92.7202	1,108.89	89.5456	1,108.89	93.0421	1,108.89	84.4304	1,108.89	90.1399	1,108.89	81.7544	1,108.89	83.6277	1,108.89	81.2794	1,108.89	77.8421	1,108.89	78.0556	1,108.89	78.8648	1,108.89	73.1992	1,108.89	79.5942	1,108.89	68.5859	1,108.89	77.9638	1,108.89	61.4275	1,108.89	76.083	1,108.89	55.004	1,108.89	73.9085	1,108.89	65.2401	1,108.89	72.1996	1,108.89	63.0684	1,108.89	71.0011	1,108.89	63.0111	1,108.89	72.7604	1,108.89	55.1084	1,108.89	72.2958	1,108.89	56.4686	1,108.89	62.0991	1,108.89	65.9682	1,108.89	63.5027	1,108.89	70.3456	1,108.89	69.7841	1,108.89	67.5562	1,108.89	59.6725	1,108.89	70.3019
1,148.44	91.7912	1,148.44	88.7811	1,148.44	91.7234	1,148.44	83.2824	1,148.44	88.5295	1,148.44	80.202	1,148.44	83.3596	1,148.44	78.743	1,148.44	82.1704	1,148.44	76.2378	1,148.44	81.744	1,148.44	72.6664	1,148.44	79.6502	1,148.44	66.2053	1,148.44	77.5041	1,148.44	60.1831	1,148.44	74.3387	1,148.44	57.9181	1,148.44	71.5197	1,148.44	66.7762	1,148.44	68.4563	1,148.44	66.8506	1,148.44	68.9897	1,148.44	67.3745	1,148.44	72.6024	1,148.44	65.405	1,148.44	72.9877	1,148.44	64.8945	1,148.44	70.6404	1,148.44	68.8101	1,148.44	63.252	1,148.44	61.8531	1,148.44	65.8994	1,148.44	73.331	1,148.44	75.2508	1,148.44	77.4468
1,189.45	90.7764	1,189.45	85.9895	1,189.45	91.6307	1,189.45	79.7081	1,189.45	89.4284	1,189.45	77.9819	1,189.45	84.8628	1,189.45	76.0142	1,189.45	82.1858	1,189.45	73.9492	1,189.45	81.5777	1,189.45	63.4095	1,189.45	79.215	1,189.45	54.2525	1,189.45	75.2079	1,189.45	63.3699	1,189.45	72.5052	1,189.45	62.2112	1,189.45	67.1351	1,189.45	62.772	1,189.45	65.4134	1,189.45	63.9253	1,189.45	65.1817	1,189.45	65.6457	1,189.45	67.5197	1,189.45	49.2036	1,189.45	68.7815	1,189.45	69.0289	1,189.45	63.3829	1,189.45	74.1327	1,189.45	63.8731	1,189.45	74.8198	1,189.45	58.3845	1,189.45	78.5274	1,189.45	70.5208	1,189.45	78.2051
1,230.47	92.9078	1,230.47	88.9259	1,230.47	93.2117	1,230.47	84.6232	1,230.47	89.4673	1,230.47	82.785	1,230.47	82.6055	1,230.47	79.1126	1,230.47	82.1617	1,230.47	73.1882	1,230.47	81.4061	1,230.47	60.9184	1,230.47	77.1646	1,230.47	63.7406	1,230.47	72.299	1,230.47	70.4937	1,230.47	64.9154	1,230.47	70.5944	1,230.47	63.5769	1,230.47	67.9767	1,230.47	58.2102	1,230.47	62.7824	1,230.47	61.4541	1,230.47	64.6957	1,230.47	65.8512	1,230.47	66.9351	1,230.47	64.9294	1,230.47	66.8121	1,230.47	66.4117	1,230.47	72.449	1,230.47	67.8034	1,230.47	71.3822	1,230.47	74.4029	1,230.47	76.3537	1,230.47	71.5518	1,230.47	77.7342
1,274.41	92.4471	1,274.41	88.8558	1,274.41	92.4539	1,274.41	85.7653	1,274.41	88.5163	1,274.41	82.9747	1,274.41	84.5223	1,274.41	77.1886	1,274.41	84.4742	1,274.41	67.1299	1,274.41	81.077	1,274.41	62.0836	1,274.41	72.6607	1,274.41	70.7708	1,274.41	70.4334	1,274.41	72.2487	1,274.41	69.5528	1,274.41	69.4488	1,274.41	67.0719	1,274.41	62.7802	1,274.41	64.7633	1,274.41	63.4833	1,274.41	65.0981	1,274.41	62.8807	1,274.41	61.5804	1,274.41	68.6306	1,274.41	61.3807	1,274.41	68.4879	1,274.41	61.3175	1,274.41	66.807	1,274.41	62.8081	1,274.41	71.7349	1,274.41	71.4363	1,274.41	78.0937	1,274.41	76.8043	1,274.41	80.0751
1,319.82	92.6587	1,319.82	89.5649	1,319.82	92.7481	1,319.82	87.5239	1,319.82	89.048	1,319.82	84.4271	1,319.82	86.2092	1,319.82	78.2848	1,319.82	84.8473	1,319.82	59.5304	1,319.82	79.2079	1,319.82	71.89	1,319.82	74.5603	1,319.82	70.9121	1,319.82	75.5129	1,319.82	70.778	1,319.82	73.5594	1,319.82	71.134	1,319.82	70.0222	1,319.82	64.2431	1,319.82	63.3859	1,319.82	38.1658	1,319.82	64.0848	1,319.82	57.4225	1,319.82	65.7817	1,319.82	65.1569	1,319.82	65.8022	1,319.82	65.9498	1,319.82	61.1859	1,319.82	65.6304	1,319.82	64.9163	1,319.82	73.1166	1,319.82	71.9812	1,319.82	77.8763	1,319.82	74.2772	1,319.82	80.7316
1,366.7	92.0498	1,366.7	89.2371	1,366.7	92.1237	1,366.7	87.5217	1,366.7	88.4508	1,366.7	83.7004	1,366.7	86.5592	1,366.7	75.7013	1,366.7	85.7899	1,366.7	68.4827	1,366.7	80.8717	1,366.7	74.6833	1,366.7	75.2956	1,366.7	76.6142	1,366.7	75.0395	1,366.7	73.4303	1,366.7	72.801	1,366.7	66.913	1,366.7	66.6887	1,366.7	72.7719	1,366.7	68.3908	1,366.7	68.2725	1,366.7	63.2595	1,366.7	61.2223	1,366.7	65.2315	1,366.7	57.7275	1,366.7	58.6588	1,366.7	68.7004	1,366.7	63.7049	1,366.7	67.855	1,366.7	65.6348	1,366.7	75.1192	1,366.7	73.0104	1,366.7	79.6337	1,366.7	77.869	1,366.7	80.3949
1,413.57	89.8291	1,413.57	88.1975	1,413.57	89.88	1,413.57	87.5771	1,413.57	87.3085	1,413.57	83.681	1,413.57	88.0607	1,413.57	75.92	1,413.57	86.4188	1,413.57	77.4687	1,413.57	79.8854	1,413.57	78.9848	1,413.57	78.4774	1,413.57	73.5513	1,413.57	75.7368	1,413.57	73.2769	1,413.57	73.639	1,413.57	75.6613	1,413.57	74.1923	1,413.57	75.5305	1,413.57	62.8969	1,413.57	69.0568	1,413.57	61.8303	1,413.57	65.4479	1,413.57	65.1378	1,413.57	63.9794	1,413.57	69.1577	1,413.57	69.8611	1,413.57	68.3262	1,413.57	69.2268	1,413.57	60.2616	1,413.57	75.7062	1,413.57	67.2127	1,413.57	80.6889	1,413.57	78.7515	1,413.57	82.9306
1,463.38	90.2986	1,463.38	89.8583	1,463.38	91.0024	1,463.38	87.9448	1,463.38	90.5447	1,463.38	82.766	1,463.38	89.6942	1,463.38	73.2201	1,463.38	86.0005	1,463.38	78.9132	1,463.38	82.2342	1,463.38	75.8864	1,463.38	79.2848	1,463.38	73.5303	1,463.38	75.2376	1,463.38	67.296	1,463.38	67.1828	1,463.38	65.2406	1,463.38	57.9921	1,463.38	64.7089	1,463.38	66.2514	1,463.38	64.9761	1,463.38	50.141	1,463.38	62.5179	1,463.38	66.6836	1,463.38	65.1917	1,463.38	70.8923	1,463.38	61.7899	1,463.38	61.6906	1,463.38	68.4567	1,463.38	68.6199	1,463.38	74.3241	1,463.38	65.5234	1,463.38	80.1595	1,463.38	73.6517	1,463.38	81.6016
1,516.11	91.5007	1,516.11	90.6927	1,516.11	91.6488	1,516.11	87.1066	1,516.11	89.5945	1,516.11	81.7036	1,516.11	87.2236	1,516.11	78.0179	1,516.11	85.4216	1,516.11	79.6383	1,516.11	83.1604	1,516.11	73.1759	1,516.11	77.6046	1,516.11	72.4508	1,516.11	73.5626	1,516.11	68.884	1,516.11	66.9456	1,516.11	65.9569	1,516.11	67.2826	1,516.11	64.8423	1,516.11	42.2998	1,516.11	64.8952	1,516.11	57.894	1,516.11	68.9097	1,516.11	53.1821	1,516.11	52.5045	1,516.11	64.1592	1,516.11	58.7307	1,516.11	69.4256	1,516.11	66.6163	1,516.11	63.1335	1,516.11	72.21	1,516.11	72.979	1,516.11	78.239	1,516.11	72.3958	1,516.11	79.8525
1,568.85	91.7507	1,568.85	90.5134	1,568.85	91.0494	1,568.85	86.0219	1,568.85	88.0006	1,568.85	81.5497	1,568.85	86.5041	1,568.85	80.9797	1,568.85	85.4191	1,568.85	79.1736	1,568.85	81.4749	1,568.85	75.6522	1,568.85	77.6256	1,568.85	73.5986	1,568.85	75.314	1,568.85	70.9702	1,568.85	69.6497	1,568.85	59.0123	1,568.85	62.7681	1,568.85	56.6438	1,568.85	67.5555	1,568.85	69.9703	1,568.85	61.4033	1,568.85	69.6905	1,568.85	52.5433	1,568.85	56.1789	1,568.85	60.6258	1,568.85	58.1369	1,568.85	69.8941	1,568.85	66.2146	1,568.85	59.6462	1,568.85	70.1482	1,568.85	71.6423	1,568.85	77.0911	1,568.85	70.2476	1,568.85	77.1549
1,624.51	92.219	1,624.51	90.5385	1,624.51	91.2206	1,624.51	86.1063	1,624.51	88.1641	1,624.51	82.782	1,624.51	86.7388	1,624.51	80.3579	1,624.51	84.6761	1,624.51	74.2954	1,624.51	81.1615	1,624.51	75.6887	1,624.51	77.5267	1,624.51	73.1295	1,624.51	75.1958	1,624.51	71.3962	1,624.51	73.3462	1,624.51	70.3724	1,624.51	71.6526	1,624.51	70.647	1,624.51	68.3624	1,624.51	60.2116	1,624.51	67.5355	1,624.51	74.9516	1,624.51	60.631	1,624.51	66.3996	1,624.51	63.7645	1,624.51	68.0478	1,624.51	51.4891	1,624.51	58.6392	1,624.51	64.9882	1,624.51	70.2264	1,624.51	69.0546	1,624.51	76.2408	1,624.51	73.8279	1,624.51	78.5151
1,681.64	92.6339	1,681.64	90.8202	1,681.64	91.533	1,681.64	87.4195	1,681.64	88.8192	1,681.64	81.5508	1,681.64	87.1836	1,681.64	77.8891	1,681.64	84.2369	1,681.64	72.8243	1,681.64	80.0979	1,681.64	76.0609	1,681.64	76.7766	1,681.64	71.4103	1,681.64	75.1848	1,681.64	67.5081	1,681.64	72.1402	1,681.64	70.9392	1,681.64	71.3645	1,681.64	70.0523	1,681.64	63.3992	1,681.64	60.3334	1,681.64	68.5492	1,681.64	69.6993	1,681.64	68.6618	1,681.64	68.8996	1,681.64	61.4441	1,681.64	62.0603	1,681.64	58.106	1,681.64	64.6566	1,681.64	67.7859	1,681.64	70.578	1,681.64	67.4329	1,681.64	76.5782	1,681.64	73.8443	1,681.64	77.236
1,741.7	92.6476	1,741.7	90.9985	1,741.7	91.3743	1,741.7	88.0259	1,741.7	89.2068	1,741.7	81.9212	1,741.7	87.8172	1,741.7	73.7187	1,741.7	83.3461	1,741.7	77.993	1,741.7	77.9247	1,741.7	75.2876	1,741.7	77.8341	1,741.7	70.9191	1,741.7	76.8773	1,741.7	69.571	1,741.7	75.5379	1,741.7	66.4429	1,741.7	73.325	1,741.7	63.7621	1,741.7	73.4775	1,741.7	73.1695	1,741.7	72.0168	1,741.7	59.1933	1,741.7	72.0892	1,741.7	69.7212	1,741.7	66.192	1,741.7	54.1264	1,741.7	53.5349	1,741.7	68.8638	1,741.7	68.5687	1,741.7	72.4242	1,741.7	69.0197	1,741.7	77.4992	1,741.7	74.9981	1,741.7	79.2593
1,803.22	91.9326	1,803.22	90.3105	1,803.22	90.5773	1,803.22	88.0797	1,803.22	89.0855	1,803.22	81.9824	1,803.22	88.2414	1,803.22	77.6443	1,803.22	83.4819	1,803.22	77.0836	1,803.22	80.0291	1,803.22	72.6643	1,803.22	80.5212	1,803.22	67.6293	1,803.22	78.1233	1,803.22	66.3641	1,803.22	72.9895	1,803.22	58.7299	1,803.22	72.2103	1,803.22	61.7142	1,803.22	71.4309	1,803.22	74.2118	1,803.22	70.3592	1,803.22	69.0944	1,803.22	73.8669	1,803.22	68.7637	1,803.22	67.2795	1,803.22	61.8087	1,803.22	68.9956	1,803.22	68.0286	1,803.22	65.3653	1,803.22	70.6525	1,803.22	64.452	1,803.22	77.1292	1,803.22	76.7938	1,803.22	76.9706
1,866.21	90.7729	1,866.21	89.4622	1,866.21	89.1316	1,866.21	87.0208	1,866.21	88.4365	1,866.21	82.1988	1,866.21	88.0739	1,866.21	76.6227	1,866.21	84.1296	1,866.21	76.3954	1,866.21	81.967	1,866.21	74.2825	1,866.21	81.313	1,866.21	71.7148	1,866.21	78.419	1,866.21	52.8022	1,866.21	70.3598	1,866.21	69.9265	1,866.21	69.1288	1,866.21	66.4084	1,866.21	71.7289	1,866.21	60.0184	1,866.21	69.4777	1,866.21	69.3996	1,866.21	68.5535	1,866.21	54.724	1,866.21	69.6142	1,866.21	61.3382	1,866.21	66.4584	1,866.21	67.7153	1,866.21	65.999	1,866.21	70.1434	1,866.21	67.2918	1,866.21	76.4382	1,866.21	72.3145	1,866.21	78.5194
1,932.13	90.3318	1,932.13	89.3362	1,932.13	89.1338	1,932.13	85.5075	1,932.13	87.5629	1,932.13	82.0525	1,932.13	86.8145	1,932.13	79.3407	1,932.13	84.27	1,932.13	77.9724	1,932.13	81.999	1,932.13	75.4596	1,932.13	81.2526	1,932.13	66.0573	1,932.13	75.4845	1,932.13	62.2785	1,932.13	52.6171	1,932.13	64.5246	1,932.13	54.693	1,932.13	67.4016	1,932.13	68.8421	1,932.13	60.9536	1,932.13	65.172	1,932.13	69.0399	1,932.13	65.0638	1,932.13	62.3325	1,932.13	66.982	1,932.13	56.3379	1,932.13	69.0517	1,932.13	69.0942	1,932.13	65.2268	1,932.13	69.0168	1,932.13	55.8682	1,932.13	77.3865	1,932.13	73.7548	1,932.13	76.3086
1,999.51	91.0673	1,999.51	89.6981	1,999.51	89.7593	1,999.51	85.1412	1,999.51	87.2527	1,999.51	79.5648	1,999.51	86.5168	1,999.51	80.4979	1,999.51	83.0538	1,999.51	77.2844	1,999.51	82.6894	1,999.51	73.9532	1,999.51	79.9959	1,999.51	59.4919	1,999.51	73.5459	1,999.51	58.5744	1,999.51	67.7337	1,999.51	38.8636	1,999.51	66.6735	1,999.51	58.3732	1,999.51	68.2862	1,999.51	59.634	1,999.51	66.2484	1,999.51	64.6305	1,999.51	57.6455	1,999.51	65.9618	1,999.51	62.4237	1,999.51	67.4919	1,999.51	67.3149	1,999.51	67.6938	1,999.51	64.1462	1,999.51	69.5684	1,999.51	58.0399	1,999.51	76.7353	1,999.51	73.7137	1,999.51	78.2309
2,069.82	91.7098	2,069.82	90.4422	2,069.82	89.9056	2,069.82	85.6716	2,069.82	88.3391	2,069.82	75.2793	2,069.82	85.8584	2,069.82	79.4836	2,069.82	82.8987	2,069.82	77.874	2,069.82	81.8683	2,069.82	73.1774	2,069.82	78.6149	2,069.82	67.0243	2,069.82	74.4934	2,069.82	68.3519	2,069.82	69.9517	2,069.82	67.7735	2,069.82	64.3002	2,069.82	63.3522	2,069.82	69.9573	2,069.82	65.0936	2,069.82	68.0919	2,069.82	52.2912	2,069.82	64.5535	2,069.82	55.7527	2,069.82	64.7866	2,069.82	66.7073	2,069.82	66.1713	2,069.82	62.2486	2,069.82	65.3735	2,069.82	69.2189	2,069.82	67.7287	2,069.82	75.628	2,069.82	73.5103	2,069.82	77.974
2,143.07	91.272	2,143.07	90.966	2,143.07	89.8437	2,143.07	86.5445	2,143.07	89.1735	2,143.07	80.0178	2,143.07	86.02	2,143.07	76.7813	2,143.07	83.8921	2,143.07	74.4854	2,143.07	79.7619	2,143.07	74.9259	2,143.07	79.6012	2,143.07	72.5807	2,143.07	71.2084	2,143.07	73.5486	2,143.07	71.9113	2,143.07	75.6789	2,143.07	67.7705	2,143.07	72.7461	2,143.07	71.6578	2,143.07	64.869	2,143.07	69.6444	2,143.07	61.6319	2,143.07	68.6752	2,143.07	66.0372	2,143.07	63.086	2,143.07	62.3198	2,143.07	68.3019	2,143.07	59.5429	2,143.07	68.4472	2,143.07	65.8931	2,143.07	68.3331	2,143.07	76.6715	2,143.07	74.6581	2,143.07	76.4635
2,219.24	90.2006	2,219.24	89.9695	2,219.24	88.4743	2,219.24	86.1692	2,219.24	88.8232	2,219.24	81.408	2,219.24	86.555	2,219.24	77.2765	2,219.24	84.1059	2,219.24	59.3954	2,219.24	81.0779	2,219.24	73.95	2,219.24	79.4444	2,219.24	76.3809	2,219.24	73.8881	2,219.24	72.1957	2,219.24	76.8745	2,219.24	70.5156	2,219.24	71.7743	2,219.24	73.511	2,219.24	73.1562	2,219.24	72.5828	2,219.24	75.0809	2,219.24	63.6741	2,219.24	69.6389	2,219.24	65.5353	2,219.24	64.9202	2,219.24	68.1661	2,219.24	64.7804	2,219.24	60.424	2,219.24	67.4123	2,219.24	69.98	2,219.24	66.6009	2,219.24	77.6143	2,219.24	74.9078	2,219.24	76.6152
2,296.88	90.3271	2,296.88	89.6103	2,296.88	88.1829	2,296.88	84.9192	2,296.88	87.9724	2,296.88	81.579	2,296.88	86.9818	2,296.88	79.0536	2,296.88	85.3531	2,296.88	70.9547	2,296.88	82.4794	2,296.88	73.886	2,296.88	77.3898	2,296.88	72.9957	2,296.88	73.9816	2,296.88	69.4253	2,296.88	77.5097	2,296.88	66.3985	2,296.88	62.9136	2,296.88	65.1992	2,296.88	71.8066	2,296.88	70.216	2,296.88	76.6059	2,296.88	60.6909	2,296.88	72.4568	2,296.88	54.6217	2,296.88	57.5033	2,296.88	60.2367	2,296.88	62.1108	2,296.88	61.9204	2,296.88	64.8178	2,296.88	70.8734	2,296.88	69.2636	2,296.88	75.7949	2,296.88	71.1666	2,296.88	76.0226
2,378.91	91.5616	2,378.91	90.7281	2,378.91	89.1236	2,378.91	85.2729	2,378.91	87.3407	2,378.91	80.1216	2,378.91	85.1295	2,378.91	78.3355	2,378.91	84.1285	2,378.91	73.2831	2,378.91	83.776	2,378.91	68.7136	2,378.91	72.7409	2,378.91	73.1316	2,378.91	72.7709	2,378.91	65.9871	2,378.91	80.6503	2,378.91	68.8189	2,378.91	72.2357	2,378.91	64.5554	2,378.91	66.6284	2,378.91	66.371	2,378.91	73.8093	2,378.91	63.0462	2,378.91	71.6979	2,378.91	60.6252	2,378.91	64.7233	2,378.91	61.8604	2,378.91	59.9036	2,378.91	63.0761	2,378.91	65.9825	2,378.91	71.6807	2,378.91	68.7733	2,378.91	77.2161	2,378.91	72.3991	2,378.91	76.4244
2,462.4	93.2797	2,462.4	92.3202	2,462.4	91.0445	2,462.4	87.3812	2,462.4	89.5999	2,462.4	82.0951	2,462.4	85.8175	2,462.4	74.4522	2,462.4	81.8221	2,462.4	73.4326	2,462.4	83.71	2,462.4	76.2062	2,462.4	74.0328	2,462.4	75.2808	2,462.4	74.8985	2,462.4	74.7198	2,462.4	79.0789	2,462.4	70.784	2,462.4	76.2335	2,462.4	70.1123	2,462.4	63.1277	2,462.4	64.8621	2,462.4	71.7183	2,462.4	68.9658	2,462.4	67.9524	2,462.4	59.3664	2,462.4	63.4634	2,462.4	64.8957	2,462.4	62.4004	2,462.4	62.63	2,462.4	66.2982	2,462.4	74.4496	2,462.4	69.2232	2,462.4	78.2046	2,462.4	75.2904	2,462.4	78.5768
2,548.83	92.9916	2,548.83	92.6362	2,548.83	90.9949	2,548.83	87.8286	2,548.83	91.1872	2,548.83	84.4236	2,548.83	88.496	2,548.83	78.2102	2,548.83	83.8476	2,548.83	74.2961	2,548.83	83.0757	2,548.83	75.9988	2,548.83	74.8002	2,548.83	74.6229	2,548.83	76.8618	2,548.83	73.6619	2,548.83	79.6375	2,548.83	69.5843	2,548.83	75.2531	2,548.83	70.3954	2,548.83	70.0208	2,548.83	64.8453	2,548.83	73.46	2,548.83	69.0413	2,548.83	63.8569	2,548.83	64.7539	2,548.83	62.1061	2,548.83	63.427	2,548.83	61.9083	2,548.83	66.5026	2,548.83	65.2097	2,548.83	73.8192	2,548.83	67.3537	2,548.83	78.2863	2,548.83	75.3998	2,548.83	78.9701
2,639.65	92.2225	2,639.65	91.975	2,639.65	90.1567	2,639.65	87.0727	2,639.65	90.9439	2,639.65	84.6601	2,639.65	89.9521	2,639.65	78.233	2,639.65	87.1791	2,639.65	76.9333	2,639.65	81.7264	2,639.65	76.5438	2,639.65	75.8982	2,639.65	72.2858	2,639.65	74.8224	2,639.65	71.2791	2,639.65	79.0395	2,639.65	70.3342	2,639.65	75.3824	2,639.65	67.6862	2,639.65	74.0109	2,639.65	68.6315	2,639.65	73.5239	2,639.65	62.0664	2,639.65	68.8302	2,639.65	66.6224	2,639.65	59.3414	2,639.65	64.4708	2,639.65	63.7151	2,639.65	65.3551	2,639.65	68.1433	2,639.65	73.424	2,639.65	67.5576	2,639.65	78.1206	2,639.65	74.9521	2,639.65	77.824
2,731.93	92.3415	2,731.93	91.501	2,731.93	90.1241	2,731.93	86.7937	2,731.93	89.9111	2,731.93	84.4727	2,731.93	89.1481	2,731.93	76.946	2,731.93	88.3851	2,731.93	78.4044	2,731.93	81.5057	2,731.93	76.4931	2,731.93	79.3338	2,731.93	71.5551	2,731.93	74.512	2,731.93	69.6978	2,731.93	79.4241	2,731.93	67.7752	2,731.93	75.5494	2,731.93	66.697	2,731.93	77.484	2,731.93	66.5146	2,731.93	72.8899	2,731.93	64.5732	2,731.93	66.1751	2,731.93	68.5773	2,731.93	64.3004	2,731.93	66.6834	2,731.93	63.0439	2,731.93	61.1716	2,731.93	67.5866	2,731.93	72.5705	2,731.93	67.271	2,731.93	76.4021	2,731.93	73.2835	2,731.93	76.4217
2,828.61	92.729	2,828.61	92.5333	2,828.61	91.1714	2,828.61	86.8271	2,828.61	89.3972	2,828.61	83.4409	2,828.61	87.2916	2,828.61	76.5982	2,828.61	87.4681	2,828.61	77.3292	2,828.61	81.3387	2,828.61	71.5553	2,828.61	79.8401	2,828.61	71.6383	2,828.61	70.7994	2,828.61	69.6269	2,828.61	79.7592	2,828.61	68.4178	2,828.61	77.0674	2,828.61	66.3719	2,828.61	80.1761	2,828.61	65.3897	2,828.61	74.5642	2,828.61	65.7846	2,828.61	65.3675	2,828.61	64.8555	2,828.61	65.8491	2,828.61	43.7462	2,828.61	67.1943	2,828.61	61.4008	2,828.61	70.1725	2,828.61	71.8484	2,828.61	67.5005	2,828.61	77.4168	2,828.61	72.0059	2,828.61	75.8637
2,928.22	92.6874	2,928.22	92.9871	2,928.22	91.743	2,928.22	87.8274	2,928.22	90.9012	2,928.22	84.5528	2,928.22	88.6649	2,928.22	77.178	2,928.22	88.163	2,928.22	75.961	2,928.22	81.049	2,928.22	74.0362	2,928.22	79.2453	2,928.22	74.9551	2,928.22	74.0058	2,928.22	71.0101	2,928.22	80.2072	2,928.22	65.0688	2,928.22	77.3312	2,928.22	58.7144	2,928.22	80.6623	2,928.22	64.7625	2,928.22	72.6942	2,928.22	63.9649	2,928.22	68.5414	2,928.22	59.0413	2,928.22	55.6597	2,928.22	62.376	2,928.22	69.66	2,928.22	63.3869	2,928.22	68.2301	2,928.22	72.8875	2,928.22	64.7534	2,928.22	77.3441	2,928.22	71.8575	2,928.22	79.0764
3,030.76	93.5421	3,030.76	92.5922	3,030.76	91.396	3,030.76	88.3294	3,030.76	91.3589	3,030.76	84.0718	3,030.76	88.5879	3,030.76	79.8518	3,030.76	88.6847	3,030.76	76.3114	3,030.76	80.624	3,030.76	76.3135	3,030.76	80.6124	3,030.76	73.3562	3,030.76	77.4753	3,030.76	62.9834	3,030.76	79.4663	3,030.76	61.6463	3,030.76	79.5077	3,030.76	65.1064	3,030.76	79.7221	3,030.76	60.8609	3,030.76	71.5892	3,030.76	60.501	3,030.76	67.5094	3,030.76	61.1206	3,030.76	60.5248	3,030.76	58.2341	3,030.76	64.9269	3,030.76	64.2757	3,030.76	62.5609	3,030.76	73.6545	3,030.76	63.1792	3,030.76	77.7257	3,030.76	71.0766	3,030.76	79.3014
3,137.7	92.3955	3,137.7	91.7561	3,137.7	90.3673	3,137.7	87.3018	3,137.7	90.8051	3,137.7	81.633	3,137.7	88.3672	3,137.7	78.6852	3,137.7	88.3418	3,137.7	72.1527	3,137.7	81.2989	3,137.7	75.7269	3,137.7	77.0399	3,137.7	64.3816	3,137.7	78.2547	3,137.7	65.838	3,137.7	78.0401	3,137.7	63.967	3,137.7	79.2768	3,137.7	42.5609	3,137.7	77.2503	3,137.7	63.1969	3,137.7	71.3329	3,137.7	65.1156	3,137.7	64.5884	3,137.7	66.3854	3,137.7	52.9448	3,137.7	62.7147	3,137.7	45.7477	3,137.7	60.9108	3,137.7	56.9338	3,137.7	73.4607	3,137.7	63.7175	3,137.7	77.0237	3,137.7	71.2561	3,137.7	79.2735
3,249.02	92.7658	3,249.02	91.7596	3,249.02	89.904	3,249.02	86.6849	3,249.02	90.1385	3,249.02	79.2838	3,249.02	89.039	3,249.02	79.4206	3,249.02	86.6135	3,249.02	77.4275	3,249.02	81.3461	3,249.02	73.0937	3,249.02	77.0751	3,249.02	68.2591	3,249.02	77.6857	3,249.02	64.9958	3,249.02	73.3964	3,249.02	66.1278	3,249.02	80.0187	3,249.02	63.0801	3,249.02	73.6917	3,249.02	57.8362	3,249.02	71.7909	3,249.02	51.5952	3,249.02	65.7694	3,249.02	63.6172	3,249.02	61.4367	3,249.02	56.8343	3,249.02	63.6998	3,249.02	61.3892	3,249.02	59.5507	3,249.02	72.6977	3,249.02	67.5092	3,249.02	74.8849	3,249.02	70.1996	3,249.02	76.8392
3,363.28	92.9469	3,363.28	90.6242	3,363.28	90.268	3,363.28	87.3194	3,363.28	89.6264	3,363.28	78.9334	3,363.28	88.6827	3,363.28	78.7504	3,363.28	85.6717	3,363.28	77.9016	3,363.28	82.7633	3,363.28	71.903	3,363.28	78.7355	3,363.28	72.9544	3,363.28	76.3239	3,363.28	71.9409	3,363.28	70.8006	3,363.28	69.0016	3,363.28	81.304	3,363.28	66.5737	3,363.28	80.127	3,363.28	58.8222	3,363.28	70.9394	3,363.28	61.966	3,363.28	51.6259	3,363.28	62.8656	3,363.28	62.3034	3,363.28	60.3713	3,363.28	67.8679	3,363.28	62.0852	3,363.28	58.7392	3,363.28	69.5168	3,363.28	68.0175	3,363.28	74.8603	3,363.28	67.4077	3,363.28	74.7275
3,481.93	92.5507	3,481.93	91.8645	3,481.93	90.2984	3,481.93	87.5044	3,481.93	89.7255	3,481.93	82.4928	3,481.93	90.1718	3,481.93	71.0744	3,481.93	86.5571	3,481.93	76.0432	3,481.93	80.2619	3,481.93	67.6856	3,481.93	78.3447	3,481.93	64.5755	3,481.93	73.7361	3,481.93	63.637	3,481.93	70.9066	3,481.93	61.9384	3,481.93	81.3513	3,481.93	24.0493	3,481.93	80.3277	3,481.93	62.3377	3,481.93	66.7111	3,481.93	60.8833	3,481.93	54.8358	3,481.93	64.9844	3,481.93	65.2581	3,481.93	63.6854	3,481.93	68.3307	3,481.93	54.8868	3,481.93	57.1756	3,481.93	67.0842	3,481.93	64.1632	3,481.93	71.5444	3,481.93	66.9274	3,481.93	76.4115
3,604.98	92.2745	3,604.98	92.3905	3,604.98	90.7397	3,604.98	86.2257	3,604.98	88.1042	3,604.98	84.2361	3,604.98	88.9822	3,604.98	78.5057	3,604.98	87.4804	3,604.98	74.48	3,604.98	80.4141	3,604.98	70.7154	3,604.98	78.3958	3,604.98	59.5107	3,604.98	76.0936	3,604.98	72.1259	3,604.98	75.5374	3,604.98	71.2578	3,604.98	77.1564	3,604.98	66.5997	3,604.98	75.4041	3,604.98	54.9403	3,604.98	61.0223	3,604.98	51.3336	3,604.98	63.9077	3,604.98	57.7023	3,604.98	65.0508	3,604.98	63.0812	3,604.98	64.4296	3,604.98	63.6182	3,604.98	59.3136	3,604.98	69.0741	3,604.98	59.2547	3,604.98	72.5782	3,604.98	66.6211	3,604.98	77.4517
3,732.42	92.6992	3,732.42	92.1567	3,732.42	91.6663	3,732.42	86.4113	3,732.42	89.2608	3,732.42	84.1729	3,732.42	87.9302	3,732.42	78.7336	3,732.42	86.3472	3,732.42	74.027	3,732.42	83.0117	3,732.42	71.3966	3,732.42	79.9348	3,732.42	70.649	3,732.42	77.1167	3,732.42	70.5977	3,732.42	74.957	3,732.42	69.3218	3,732.42	73.3463	3,732.42	66.8701	3,732.42	73.5618	3,732.42	51.0397	3,732.42	65.8859	3,732.42	57.12	3,732.42	65.2434	3,732.42	57.9407	3,732.42	58.8123	3,732.42	64.1481	3,732.42	51.4359	3,732.42	66.9094	3,732.42	58.2113	3,732.42	69.252	3,732.42	63.9223	3,732.42	73.2951	3,732.42	67.5592	3,732.42	77.6627
3,864.26	91.1912	3,864.26	90.2682	3,864.26	89.4516	3,864.26	84.9451	3,864.26	89.4701	3,864.26	82.3173	3,864.26	88.498	3,864.26	76.4665	3,864.26	86.3337	3,864.26	74.4867	3,864.26	81.922	3,864.26	64.4887	3,864.26	81.397	3,864.26	67.5704	3,864.26	75.839	3,864.26	61.4614	3,864.26	74.4167	3,864.26	60.2415	3,864.26	71.8432	3,864.26	58.3733	3,864.26	56.8692	3,864.26	59.2381	3,864.26	67.5795	3,864.26	59.5849	3,864.26	65.076	3,864.26	53.1379	3,864.26	62.6516	3,864.26	59.7201	3,864.26	56.8752	3,864.26	63.7107	3,864.26	53.1219	3,864.26	67.8066	3,864.26	63.0227	3,864.26	71.5042	3,864.26	66.416	3,864.26	77.0239
4,000.49	91.3592	4,000.49	89.9517	4,000.49	88.997	4,000.49	83.6824	4,000.49	87.4789	4,000.49	78.8135	4,000.49	88.1392	4,000.49	74.6161	4,000.49	87.0331	4,000.49	70.2108	4,000.49	79.4742	4,000.49	69.0839	4,000.49	78.405	4,000.49	61.5876	4,000.49	74.9892	4,000.49	51.6739	4,000.49	74.8324	4,000.49	67.4887	4,000.49	65.1119	4,000.49	63.0463	4,000.49	62.7467	4,000.49	62.5104	4,000.49	71.4079	4,000.49	48.9817	4,000.49	64.5595	4,000.49	42.8972	4,000.49	56.3137	4,000.49	53.7599	4,000.49	53.749	4,000.49	61.3321	4,000.49	57.6931	4,000.49	66.3732	4,000.49	59.5994	4,000.49	70.6195	4,000.49	64.9793	4,000.49	77.2547
4,141.11	93.1188	4,141.11	90.8694	4,141.11	90.5949	4,141.11	85.1978	4,141.11	88.4715	4,141.11	75.5574	4,141.11	88.199	4,141.11	74.2499	4,141.11	85.7595	4,141.11	70.0917	4,141.11	76.2356	4,141.11	63.977	4,141.11	78.2025	4,141.11	62.8092	4,141.11	72.7401	4,141.11	63.6439	4,141.11	69.9326	4,141.11	67.8038	4,141.11	64.985	4,141.11	64.7019	4,141.11	75.5936	4,141.11	59.0604	4,141.11	69.0789	4,141.11	60.5846	4,141.11	63.8959	4,141.11	56.1824	4,141.11	30.678	4,141.11	59.4838	4,141.11	57.5819	4,141.11	60.4212	4,141.11	61.9358	4,141.11	67.3857	4,141.11	51.235	4,141.11	70.843	4,141.11	65.1392	4,141.11	77.942
4,287.6	93.4214	4,287.6	91.6072	4,287.6	91.5971	4,287.6	86.8286	4,287.6	89.4605	4,287.6	79.8538	4,287.6	88.8448	4,287.6	77.2442	4,287.6	83.6684	4,287.6	72.1855	4,287.6	78.9138	4,287.6	67.4616	4,287.6	77.5123	4,287.6	72.9589	4,287.6	71.8448	4,287.6	70.089	4,287.6	71.6242	4,287.6	69.2085	4,287.6	73.3978	4,287.6	67.9174	4,287.6	79.8673	4,287.6	64.8228	4,287.6	60.5804	4,287.6	63.1635	4,287.6	65.5168	4,287.6	59.8511	4,287.6	50.7893	4,287.6	62.4901	4,287.6	60.7653	4,287.6	52.5807	4,287.6	61.1015	4,287.6	68.0763	4,287.6	52.1515	4,287.6	70.7122	4,287.6	65.0081	4,287.6	76.7857
4,438.48	93.0514	4,438.48	91.797	4,438.48	91.5304	4,438.48	87.6555	4,438.48	90.1548	4,438.48	81.2242	4,438.48	89.3324	4,438.48	79.6796	4,438.48	84.3277	4,438.48	71.6791	4,438.48	79.8664	4,438.48	58.5407	4,438.48	74.8161	4,438.48	69.9503	4,438.48	76.6816	4,438.48	68.4428	4,438.48	73.3536	4,438.48	68.8221	4,438.48	73.5879	4,438.48	66.2703	4,438.48	79.6119	4,438.48	66.7945	4,438.48	62.3218	4,438.48	61.5824	4,438.48	69.7014	4,438.48	54.7779	4,438.48	57.9044	4,438.48	55.0659	4,438.48	58.7146	4,438.48	54.8335	4,438.48	64.3863	4,438.48	66.4876	4,438.48	60.045	4,438.48	67.6854	4,438.48	60.4322	4,438.48	73.913
4,595.21	92.7215	4,595.21	92.0147	4,595.21	91.0772	4,595.21	87.4308	4,595.21	88.7997	4,595.21	80.1887	4,595.21	89.6866	4,595.21	77.5134	4,595.21	84.483	4,595.21	70.6579	4,595.21	77.4845	4,595.21	66.9685	4,595.21	76.7906	4,595.21	67.7853	4,595.21	69.0444	4,595.21	62.094	4,595.21	55.9997	4,595.21	63.6035	4,595.21	71.3041	4,595.21	56.8154	4,595.21	75.4464	4,595.21	65.6065	4,595.21	68.4367	4,595.21	61.8187	4,595.21	69.9302	4,595.21	53.7928	4,595.21	57.6961	4,595.21	58.3948	4,595.21	55.961	4,595.21	57.668	4,595.21	60.7451	4,595.21	60.3361	4,595.21	54.9906	4,595.21	67.3838	4,595.21	54.6878	4,595.21	73.9011
4,756.35	93.3863	4,756.35	92.439	4,756.35	91.7604	4,756.35	85.6759	4,756.35	89.069	4,756.35	76.7617	4,756.35	89.2542	4,756.35	73.2457	4,756.35	85.8617	4,756.35	62.6084	4,756.35	80.7733	4,756.35	73.326	4,756.35	79.2902	4,756.35	64.8365	4,756.35	68.1682	4,756.35	58.8014	4,756.35	72.5415	4,756.35	59.4052	4,756.35	75.4085	4,756.35	57.6804	4,756.35	77.3095	4,756.35	58.4772	4,756.35	72.8124	4,756.35	63.3126	4,756.35	70.6506	4,756.35	50.2971	4,756.35	61.975	4,756.35	53.6314	4,756.35	65.2398	4,756.35	57.2834	4,756.35	60.1958	4,756.35	57.5695	4,756.35	58.2531	4,756.35	69.0734	4,756.35	61.7321	4,756.35	73.7487
4,924.8	93.2464	4,924.8	92.8675	4,924.8	92.3505	4,924.8	86.0757	4,924.8	90.5074	4,924.8	79.8588	4,924.8	89.0455	4,924.8	73.3054	4,924.8	83.7855	4,924.8	57.7763	4,924.8	82.3749	4,924.8	74.5562	4,924.8	76.2901	4,924.8	65.6714	4,924.8	73.2735	4,924.8	65.5491	4,924.8	60.7336	4,924.8	58.5466	4,924.8	74.2599	4,924.8	66.4129	4,924.8	78.556	4,924.8	55.3248	4,924.8	70.6653	4,924.8	65.7072	4,924.8	74.7143	4,924.8	57.8098	4,924.8	71.2376	4,924.8	57.1573	4,924.8	67.6967	4,924.8	53.3692	4,924.8	58.2105	4,924.8	56.2558	4,924.8	64.37	4,924.8	68.0698	4,924.8	62.8778	4,924.8	73.9641
5,097.66	93.6212	5,097.66	92.6563	5,097.66	91.7278	5,097.66	85.5542	5,097.66	90.9495	5,097.66	81.8308	5,097.66	89.6459	5,097.66	75.3642	5,097.66	84.2572	5,097.66	68.4321	5,097.66	82.4639	5,097.66	69.2352	5,097.66	79.9921	5,097.66	67.9668	5,097.66	73.5871	5,097.66	62.7967	5,097.66	65.192	5,097.66	67.0222	5,097.66	74.0469	5,097.66	66.2024	5,097.66	77.4224	5,097.66	57.3884	5,097.66	69.3843	5,097.66	65.6337	5,097.66	73.6608	5,097.66	58.3753	5,097.66	72.2697	5,097.66	58.1426	5,097.66	63.2635	5,097.66	59.4113	5,097.66	57.1878	5,097.66	43.6141	5,097.66	63.3208	5,097.66	66.1806	5,097.66	57.0879	5,097.66	71.1749
5,277.83	93.2332	5,277.83	93.0872	5,277.83	91.6641	5,277.83	86.4827	5,277.83	90.7018	5,277.83	82.4372	5,277.83	89.4367	5,277.83	78.4428	5,277.83	86.6625	5,277.83	73.4748	5,277.83	81.7617	5,277.83	63.7828	5,277.83	80.6909	5,277.83	65.7988	5,277.83	64.6402	5,277.83	70.1205	5,277.83	60.1158	5,277.83	68.0008	5,277.83	75.2081	5,277.83	64.3888	5,277.83	76.4263	5,277.83	58.1544	5,277.83	68.0396	5,277.83	59.2027	5,277.83	76.5402	5,277.83	50.6331	5,277.83	72.1378	5,277.83	59.8619	5,277.83	69.4446	5,277.83	58.2278	5,277.83	59.2549	5,277.83	54.2105	5,277.83	68.4707	5,277.83	65.8726	5,277.83	57.5751	5,277.83	70.1757
5,463.87	93.2682	5,463.87	92.471	5,463.87	91.621	5,463.87	86.2332	5,463.87	90.5858	5,463.87	80.9681	5,463.87	88.5563	5,463.87	78.8208	5,463.87	87.0992	5,463.87	65.9497	5,463.87	79.8261	5,463.87	71.3515	5,463.87	80.0319	5,463.87	70.0863	5,463.87	75.4065	5,463.87	71.0624	5,463.87	72.0895	5,463.87	64.673	5,463.87	76.556	5,463.87	67.8216	5,463.87	78.8295	5,463.87	62.6952	5,463.87	73.3519	5,463.87	64.1045	5,463.87	79.379	5,463.87	39.6175	5,463.87	74.1937	5,463.87	60.1954	5,463.87	73.3136	5,463.87	54.7182	5,463.87	58.5762	5,463.87	60.0378	5,463.87	66.8601	5,463.87	62.7369	5,463.87	51.8314	5,463.87	69.8735
5,657.23	93.4437	5,657.23	91.7902	5,657.23	91.8882	5,657.23	87.0103	5,657.23	90.7712	5,657.23	80.252	5,657.23	87.6405	5,657.23	74.797	5,657.23	85.6417	5,657.23	65.6343	5,657.23	79.1102	5,657.23	65.5533	5,657.23	79.4946	5,657.23	73.2549	5,657.23	80.4114	5,657.23	62.8946	5,657.23	77.7839	5,657.23	69.5768	5,657.23	78.2361	5,657.23	68.9075	5,657.23	79.9501	5,657.23	57.7927	5,657.23	74.0453	5,657.23	65.693	5,657.23	77.6206	5,657.23	56.4708	5,657.23	72.3805	5,657.23	54.5022	5,657.23	71.4921	5,657.23	51.7431	5,657.23	62.8071	5,657.23	63.1188	5,657.23	67.6393	5,657.23	60.6934	5,657.23	60.7434	5,657.23	69.7714
5,856.45	93.1386	5,856.45	91.5099	5,856.45	90.6918	5,856.45	86.8642	5,856.45	89.5811	5,856.45	73.8911	5,856.45	86.7676	5,856.45	47.9681	5,856.45	85.6448	5,856.45	72.6465	5,856.45	79.9862	5,856.45	69.2078	5,856.45	80.7155	5,856.45	70.5063	5,856.45	74.6202	5,856.45	68.9159	5,856.45	78.3713	5,856.45	72.3519	5,856.45	78.8067	5,856.45	60.6372	5,856.45	81.2854	5,856.45	64.9479	5,856.45	75.0609	5,856.45	58.5174	5,856.45	76.1066	5,856.45	48.9802	5,856.45	72.4749	5,856.45	61.727	5,856.45	70.3686	5,856.45	58.994	5,856.45	63.7471	5,856.45	67.9415	5,856.45	61.1064	5,856.45	57.0668	5,856.45	63.4549	5,856.45	70.617
6,062.99	93.2262	6,062.99	90.7632	6,062.99	90.4864	6,062.99	85.612	6,062.99	89.5646	6,062.99	76.4357	6,062.99	86.6108	6,062.99	75.303	6,062.99	84.7096	6,062.99	73.9132	6,062.99	79.0958	6,062.99	74.7328	6,062.99	81.1489	6,062.99	69.514	6,062.99	74.5988	6,062.99	77.8654	6,062.99	73.4729	6,062.99	71.1591	6,062.99	79.2271	6,062.99	70.218	6,062.99	84.8107	6,062.99	61.0897	6,062.99	78.0531	6,062.99	63.8348	6,062.99	75.2971	6,062.99	59.8508	6,062.99	73.4106	6,062.99	57.3429	6,062.99	69.8285	6,062.99	56.8889	6,062.99	60.4863	6,062.99	67.3051	6,062.99	63.1431	6,062.99	56.7346	6,062.99	62.3689	6,062.99	69.9837
6,276.86	93.0618	6,276.86	90.1825	6,276.86	91.1207	6,276.86	84.8544	6,276.86	90.2477	6,276.86	80.8498	6,276.86	87.6037	6,276.86	77.1536	6,276.86	83.9729	6,276.86	70.6537	6,276.86	75.1764	6,276.86	74.8777	6,276.86	76.1337	6,276.86	78.6732	6,276.86	81.868	6,276.86	80.1343	6,276.86	75.3735	6,276.86	58.3161	6,276.86	76.937	6,276.86	74.5633	6,276.86	85.9873	6,276.86	60.4192	6,276.86	79.7343	6,276.86	68.5258	6,276.86	78.3903	6,276.86	60.7045	6,276.86	73.5998	6,276.86	66.9492	6,276.86	71.6541	6,276.86	55.5813	6,276.86	63.3766	6,276.86	68.5107	6,276.86	59.8971	6,276.86	62.387	6,276.86	65.1483	6,276.86	68.9172
6,498.05	92.9424	6,498.05	90.4305	6,498.05	91.1859	6,498.05	84.3295	6,498.05	89.4075	6,498.05	79.2483	6,498.05	86.2945	6,498.05	70.4873	6,498.05	79.1849	6,498.05	77.5201	6,498.05	79.9341	6,498.05	71.7437	6,498.05	67.9083	6,498.05	81.4925	6,498.05	79.5489	6,498.05	77.3795	6,498.05	79.0384	6,498.05	73.8644	6,498.05	77.236	6,498.05	70.842	6,498.05	84.5555	6,498.05	55.9099	6,498.05	75.5461	6,498.05	67.0651	6,498.05	78.5824	6,498.05	51.8584	6,498.05	73.5712	6,498.05	69.9202	6,498.05	72.2117	6,498.05	63.6475	6,498.05	63.6961	6,498.05	68.6985	6,498.05	60.3056	6,498.05	62.843	6,498.05	65.0625	6,498.05	70.2738
6,726.56	92.3668	6,726.56	89.7838	6,726.56	91.9499	6,726.56	85.3907	6,726.56	89.5148	6,726.56	79.1435	6,726.56	83.5156	6,726.56	74.6345	6,726.56	69.9522	6,726.56	81.5398	6,726.56	75.919	6,726.56	78.9356	6,726.56	78.051	6,726.56	80.3277	6,726.56	63.8367	6,726.56	75.4068	6,726.56	79.8805	6,726.56	77.8812	6,726.56	83.0311	6,726.56	70.1092	6,726.56	81.4172	6,726.56	68.0477	6,726.56	66.1711	6,726.56	62.0908	6,726.56	72.376	6,726.56	63.1759	6,726.56	73.2363	6,726.56	66.1343	6,726.56	70.179	6,726.56	57.4329	6,726.56	60.2978	6,726.56	67.1696	6,726.56	60.463	6,726.56	61.662	6,726.56	65.5336	6,726.56	64.3197
6,963.87	92.8427	6,963.87	90.8278	6,963.87	91.7138	6,963.87	86.3953	6,963.87	89.4302	6,963.87	77.1985	6,963.87	82.2427	6,963.87	79.2104	6,963.87	79.2447	6,963.87	80.8227	6,963.87	82.2523	6,963.87	80.6615	6,963.87	80.2448	6,963.87	77.5186	6,963.87	81.857	6,963.87	78.9974	6,963.87	78.1081	6,963.87	79.6047	6,963.87	84.0152	6,963.87	74.5232	6,963.87	78.6384	6,963.87	72.4766	6,963.87	71.8204	6,963.87	52.5324	6,963.87	64.0931	6,963.87	62.4626	6,963.87	69.4837	6,963.87	50.7073	6,963.87	66.3765	6,963.87	56.325	6,963.87	63.4377	6,963.87	61.5441	6,963.87	61.7703	6,963.87	58.4233	6,963.87	51.3027	6,963.87	58.6129
7,209.96	93.1772	7,209.96	90.4629	7,209.96	90.9332	7,209.96	85.5916	7,209.96	89.0567	7,209.96	72.9763	7,209.96	80.0553	7,209.96	76.9671	7,209.96	81.9633	7,209.96	78.2745	7,209.96	85.2266	7,209.96	78.3531	7,209.96	78.6396	7,209.96	78.9141	7,209.96	84.2465	7,209.96	80.0167	7,209.96	83.2384	7,209.96	76.3984	7,209.96	78.7399	7,209.96	76.9838	7,209.96	78.615	7,209.96	73.3997	7,209.96	73.5048	7,209.96	63.3579	7,209.96	69.2058	7,209.96	65.7345	7,209.96	56.5602	7,209.96	66.3573	7,209.96	56.36	7,209.96	58.3995	7,209.96	58.1362	7,209.96	55.3118	7,209.96	61.2926	7,209.96	36.5051	7,209.96	60.0072	7,209.96	63.8441
7,464.84	92.3093	7,464.84	89.6658	7,464.84	89.4446	7,464.84	82.2363	7,464.84	86.4502	7,464.84	77.5347	7,464.84	79.1556	7,464.84	74.2935	7,464.84	81.7172	7,464.84	79.0011	7,464.84	84.3317	7,464.84	65.2974	7,464.84	69.415	7,464.84	79.5609	7,464.84	79.5345	7,464.84	78.4407	7,464.84	81.5613	7,464.84	56.4776	7,464.84	76.5386	7,464.84	71.0983	7,464.84	81.804	7,464.84	67.0586	7,464.84	74.9024	7,464.84	68.6146	7,464.84	72.5629	7,464.84	67.06	7,464.84	70.1949	7,464.84	68.0329	7,464.84	63.3216	7,464.84	60.9985	7,464.84	63.6093	7,464.84	60.1169	7,464.84	58.7165	7,464.84	59.9828	7,464.84	43.4419	7,464.84	62.389
7,727.05	93.1431	7,727.05	89.2	7,727.05	89.8361	7,727.05	78.4123	7,727.05	85.385	7,727.05	80.5406	7,727.05	82.1875	7,727.05	72.3319	7,727.05	75.8525	7,727.05	83.2249	7,727.05	72.7651	7,727.05	62.0773	7,727.05	80.3112	7,727.05	76.1989	7,727.05	80.4149	7,727.05	79.7541	7,727.05	72.1118	7,727.05	73.5087	7,727.05	77.7455	7,727.05	69.5017	7,727.05	84.6386	7,727.05	70.5463	7,727.05	78.162	7,727.05	70.5477	7,727.05	74.4358	7,727.05	64.0916	7,727.05	68.663	7,727.05	66.5041	7,727.05	67.3702	7,727.05	59.489	7,727.05	61.0696	7,727.05	65.5936	7,727.05	53.5955	7,727.05	63.254	7,727.05	57.1667	7,727.05	45.6825
7,999.51	92.1202	7,999.51	87.0613	7,999.51	89.9081	7,999.51	81.0466	7,999.51	83.7169	7,999.51	80.5316	7,999.51	79.764	7,999.51	69.5033	7,999.51	77.3793	7,999.51	80.5033	7,999.51	78.4938	7,999.51	71.0656	7,999.51	83.3428	7,999.51	73.7258	7,999.51	80.975	7,999.51	81.0918	7,999.51	69.3051	7,999.51	72.9295	7,999.51	75.6042	7,999.51	72.1239	7,999.51	80.0711	7,999.51	70.6725	7,999.51	72.674	7,999.51	70.6926	7,999.51	75.2817	7,999.51	60.827	7,999.51	66.6924	7,999.51	64.223	7,999.51	68.333	7,999.51	46.6557	7,999.51	62.7279	7,999.51	64.0573	7,999.51	61.9274	7,999.51	62.4632	7,999.51	52.5413	7,999.51	49.2452
8,282.23	91.2172	8,282.23	87.3104	8,282.23	90.0516	8,282.23	82.178	8,282.23	84.8916	8,282.23	78.008	8,282.23	81.3683	8,282.23	72.6504	8,282.23	80.5146	8,282.23	74.9878	8,282.23	82.9401	8,282.23	77.4669	8,282.23	83.3879	8,282.23	78.9475	8,282.23	78.005	8,282.23	79.3764	8,282.23	79.9427	8,282.23	73.645	8,282.23	81.2131	8,282.23	71.039	8,282.23	78.9022	8,282.23	72.065	8,282.23	75.4513	8,282.23	61.6509	8,282.23	68.5505	8,282.23	57.07	8,282.23	64.4446	8,282.23	57.0551	8,282.23	61.581	8,282.23	59.2629	8,282.23	51.0665	8,282.23	60.3001	8,282.23	47.7595	8,282.23	57.7274	8,282.23	51.8224	8,282.23	62.7
8,573.73	90.6474	8,573.73	85.9889	8,573.73	90.2465	8,573.73	80.3268	8,573.73	85.911	8,573.73	62.6631	8,573.73	81.2817	8,573.73	80.0667	8,573.73	75.9542	8,573.73	79.1469	8,573.73	81.7176	8,573.73	83.0204	8,573.73	77.3666	8,573.73	82.41	8,573.73	83.6766	8,573.73	79.817	8,573.73	85.468	8,573.73	75.3696	8,573.73	81.3957	8,573.73	71.8966	8,573.73	78.7769	8,573.73	75.2105	8,573.73	73.1736	8,573.73	60.7175	8,573.73	62.5285	8,573.73	52.993	8,573.73	62.4242	8,573.73	57.0019	8,573.73	57.8964	8,573.73	57.8566	8,573.73	61.1924	8,573.73	62.1089	8,573.73	59.6236	8,573.73	46.7753	8,573.73	60.9016	8,573.73	63.29
8,876.95	90.3561	8,876.95	85.9198	8,876.95	88.5827	8,876.95	79.7359	8,876.95	83.0669	8,876.95	67.8729	8,876.95	77.2217	8,876.95	80.9037	8,876.95	73.8509	8,876.95	79.6435	8,876.95	77.4305	8,876.95	85.0065	8,876.95	82.9841	8,876.95	84.0951	8,876.95	86.0513	8,876.95	78.284	8,876.95	85.9518	8,876.95	74.4158	8,876.95	81.5578	8,876.95	70.9701	8,876.95	70.4136	8,876.95	75.7358	8,876.95	62.8988	8,876.95	67.0772	8,876.95	60.2362	8,876.95	57.384	8,876.95	48.2831	8,876.95	64.0299	8,876.95	59.8147	8,876.95	50.1711	8,876.95	63.4427	8,876.95	65.4967	8,876.95	56.8443	8,876.95	44.7351	8,876.95	61.0995	8,876.95	64.6334
9,188.96	90.3046	9,188.96	85.2195	9,188.96	88.4822	9,188.96	73.7007	9,188.96	82.5222	9,188.96	74.2077	9,188.96	80.6315	9,188.96	81.21	9,188.96	76.3587	9,188.96	81.008	9,188.96	74.2848	9,188.96	85.5356	9,188.96	83.6334	9,188.96	84.6719	9,188.96	84.8733	9,188.96	76.9998	9,188.96	84.0023	9,188.96	69.5205	9,188.96	80.4565	9,188.96	70.7421	9,188.96	77.5321	9,188.96	73.4448	9,188.96	65.9948	9,188.96	66.6893	9,188.96	68.5715	9,188.96	54.8692	9,188.96	70.9009	9,188.96	66.7362	9,188.96	68.2364	9,188.96	50.3703	9,188.96	61.9197	9,188.96	66.0671	9,188.96	50.7336	9,188.96	54.3553	9,188.96	60.7172	9,188.96	67.8772
9,514.16	91.437	9,514.16	84.8682	9,514.16	86.4982	9,514.16	57.1084	9,514.16	78.0729	9,514.16	75.602	9,514.16	79.2935	9,514.16	80.9778	9,514.16	79.3035	9,514.16	82.5476	9,514.16	79.7212	9,514.16	86.0468	9,514.16	86.6426	9,514.16	85.2344	9,514.16	83.3935	9,514.16	80.3297	9,514.16	82.1643	9,514.16	54.5575	9,514.16	78.3922	9,514.16	70.043	9,514.16	81.9943	9,514.16	68.7646	9,514.16	66.17	9,514.16	68.3214	9,514.16	71.6022	9,514.16	52.6886	9,514.16	74.8756	9,514.16	66.9482	9,514.16	69.187	9,514.16	48.2389	9,514.16	59.0237	9,514.16	66.2538	9,514.16	65.2281	9,514.16	61.8832	9,514.16	64.6426	9,514.16	64.061
9,849.61	92.4652	9,849.61	84.0567	9,849.61	86.2371	9,849.61	71.81	9,849.61	75.3966	9,849.61	76.0244	9,849.61	81.0303	9,849.61	81.6292	9,849.61	85.1788	9,849.61	83.0582	9,849.61	82.4587	9,849.61	84.2546	9,849.61	88.491	9,849.61	84.2636	9,849.61	82.0502	9,849.61	78.9172	9,849.61	80.2208	9,849.61	71.8643	9,849.61	71.5266	9,849.61	66.2528	9,849.61	82.9408	9,849.61	42.1982	9,849.61	69.0641	9,849.61	69.5823	9,849.61	64.9932	9,849.61	56.1888	9,849.61	73.3916	9,849.61	65.769	9,849.61	66.6441	9,849.61	45.0218	9,849.61	58.4465	9,849.61	67.3697	9,849.61	64.8107	9,849.61	64.1951	9,849.61	60.1037	9,849.61	65.3589
10,196.8	93.0509	10,196.8	83.0794	10,196.8	86.3618	10,196.8	79.4079	10,196.8	70.9371	10,196.8	77.7593	10,196.8	83.154	10,196.8	81.9989	10,196.8	85.7987	10,196.8	82.3673	10,196.8	82.2527	10,196.8	82.7749	10,196.8	89.2045	10,196.8	80.8571	10,196.8	78.0439	10,196.8	72.5907	10,196.8	78.2066	10,196.8	73.852	10,196.8	74.922	10,196.8	67.7864	10,196.8	80.5984	10,196.8	61.2497	10,196.8	71.5583	10,196.8	67.4021	10,196.8	56.6062	10,196.8	61.0653	10,196.8	72.5727	10,196.8	63.9996	10,196.8	64.5	10,196.8	53.9281	10,196.8	53.2434	10,196.8	65.7894	10,196.8	62.7003	10,196.8	58.0071	10,196.8	59.7531	10,196.8	57.3386
10,555.7	93.3321	10,555.7	82.4351	10,555.7	85.8216	10,555.7	81.1621	10,555.7	66.8862	10,555.7	79.1353	10,555.7	80.6909	10,555.7	83.5006	10,555.7	84.4404	10,555.7	82.6137	10,555.7	81.3795	10,555.7	82.5341	10,555.7	86.5187	10,555.7	77.9963	10,555.7	74.3262	10,555.7	74.9052	10,555.7	80.1625	10,555.7	62.081	10,555.7	76.5296	10,555.7	67.9578	10,555.7	81.4387	10,555.7	61.6107	10,555.7	70.6043	10,555.7	64.9053	10,555.7	61.9494	10,555.7	60.7396	10,555.7	70.7517	10,555.7	46.1057	10,555.7	65.0281	10,555.7	59.4847	10,555.7	51.1568	10,555.7	51.9158	10,555.7	61.3027	10,555.7	57.2972	10,555.7	57.6936	10,555.7	57.5111
10,927.7	92.5949	10,927.7	82.4177	10,927.7	85.2512	10,927.7	82.2536	10,927.7	70.2914	10,927.7	79.8704	10,927.7	75.3651	10,927.7	84.6297	10,927.7	81.2257	10,927.7	83.3146	10,927.7	83.6683	10,927.7	81.5396	10,927.7	84.7708	10,927.7	78.5675	10,927.7	80.9891	10,927.7	75.6974	10,927.7	78.2202	10,927.7	69.6096	10,927.7	73.4136	10,927.7	63.7154	10,927.7	76.1402	10,927.7	61.0443	10,927.7	74.6055	10,927.7	62.9641	10,927.7	66.5922	10,927.7	57.403	10,927.7	71.7451	10,927.7	56.7852	10,927.7	63.4468	10,927.7	61.5365	10,927.7	59.4246	10,927.7	65.4397	10,927.7	43.4193	10,927.7	53.7913	10,927.7	62.8423	10,927.7	57.1114
11,313	91.0018	11,313	82.517	11,313	83.8576	11,313	81.4112	11,313	57.7962	11,313	78.8609	11,313	62.0755	11,313	84.28	11,313	82.5596	11,313	83.2488	11,313	84.6936	11,313	81.4391	11,313	87.1149	11,313	72.5514	11,313	81.7505	11,313	71.1218	11,313	73.6998	11,313	71.8155	11,313	70.2457	11,313	58.87	11,313	66.9555	11,313	66.0013	11,313	72.3445	11,313	65.9511	11,313	70.0389	11,313	58.0036	11,313	72.0935	11,313	62.4077	11,313	62.397	11,313	64.4381	11,313	58.5275	11,313	67.685	11,313	54.6202	11,313	51.5653	11,313	64.1686	11,313	60.8343
11,712.9	89.2678	11,712.9	81.6604	11,712.9	83.666	11,712.9	77.3594	11,712.9	62.9329	11,712.9	75.1775	11,712.9	68.9933	11,712.9	82.5309	11,712.9	83.4936	11,712.9	82.1553	11,712.9	82.8116	11,712.9	77.2452	11,712.9	84.0185	11,712.9	64.7956	11,712.9	75.0637	11,712.9	59.4605	11,712.9	77.8136	11,712.9	69.5046	11,712.9	66.8999	11,712.9	55.4898	11,712.9	76.624	11,712.9	68.1742	11,712.9	68.1191	11,712.9	64.7612	11,712.9	70.627	11,712.9	59.0392	11,712.9	73.3149	11,712.9	63.5177	11,712.9	63.0979	11,712.9	66.1525	11,712.9	64.2473	11,712.9	67.7485	11,712.9	55.5742	11,712.9	54.2384	11,712.9	62.3605	11,712.9	62.9285
12,126	88.5199	12,126	80.4983	12,126	81.482	12,126	72.5619	12,126	60.1096	12,126	68.8672	12,126	74.3024	12,126	81.2492	12,126	84.5665	12,126	81.2077	12,126	81.4719	12,126	76.0788	12,126	75.9596	12,126	73.6135	12,126	72.2412	12,126	66.5102	12,126	70.2903	12,126	69.8746	12,126	70.4093	12,126	60.4718	12,126	75.0802	12,126	65.8248	12,126	53.5931	12,126	60.2329	12,126	67.2865	12,126	56.7913	12,126	71.3396	12,126	60.3007	12,126	56.6187	12,126	64.3038	12,126	64.9447	12,126	66.7077	12,126	56.0831	12,126	56.4052	12,126	59.3637	12,126	61.2417
12,553.7	88.1578	12,553.7	80.7506	12,553.7	79.1432	12,553.7	74.0401	12,553.7	69.251	12,553.7	66.0048	12,553.7	77.0521	12,553.7	80.4826	12,553.7	85.6752	12,553.7	77.2465	12,553.7	80.2225	12,553.7	67.8856	12,553.7	64.4801	12,553.7	71.5465	12,553.7	63.1046	12,553.7	66.2453	12,553.7	68.8523	12,553.7	68.4182	12,553.7	71.9519	12,553.7	63.0644	12,553.7	67.5224	12,553.7	64.9493	12,553.7	57.748	12,553.7	51.1205	12,553.7	62.3701	12,553.7	55.7873	12,553.7	65.8352	12,553.7	55.9467	12,553.7	50.0807	12,553.7	56.1304	12,553.7	62.3873	12,553.7	64.6413	12,553.7	52.8963	12,553.7	54.7118	12,553.7	53.6472	12,553.7	59.4587
12,996.1	88.7105	12,996.1	81.0464	12,996.1	80.3947	12,996.1	76.8395	12,996.1	73.0818	12,996.1	67.5843	12,996.1	80.1481	12,996.1	81.2112	12,996.1	85.3948	12,996.1	70.1849	12,996.1	77.0734	12,996.1	70.5417	12,996.1	70.9789	12,996.1	71.2092	12,996.1	71.6941	12,996.1	56.9871	12,996.1	72.9181	12,996.1	64.9863	12,996.1	68.457	12,996.1	59.2913	12,996.1	71.2524	12,996.1	61.9289	12,996.1	62.4975	12,996.1	52.0787	12,996.1	53.8243	12,996.1	50.2388	12,996.1	56.0163	12,996.1	57.4562	12,996.1	51.561	12,996.1	41.2303	12,996.1	56.6342	12,996.1	64.1289	12,996.1	48.8572	12,996.1	59.0568	12,996.1	52.4264	12,996.1	54.1875
13,454.6	88.9201	13,454.6	79.5911	13,454.6	82.6146	13,454.6	75.3853	13,454.6	75.1701	13,454.6	73.0024	13,454.6	81.1293	13,454.6	81.289	13,454.6	84.4987	13,454.6	67.9975	13,454.6	77.957	13,454.6	70.3551	13,454.6	70.4266	13,454.6	68.0819	13,454.6	73.2884	13,454.6	58.7302	13,454.6	69.327	13,454.6	64.4737	13,454.6	70.964	13,454.6	52.3003	13,454.6	69.4316	13,454.6	57.9162	13,454.6	63.7043	13,454.6	47.58	13,454.6	60.3339	13,454.6	49.4045	13,454.6	62.4006	13,454.6	51.3822	13,454.6	57.8334	13,454.6	45.3929	13,454.6	54.2343	13,454.6	60.4884	13,454.6	55.3276	13,454.6	60.9445	13,454.6	49.7722	13,454.6	50.0437
13,929.2	88.6525	13,929.2	76.6884	13,929.2	82.3387	13,929.2	72.9355	13,929.2	77.0975	13,929.2	76.2187	13,929.2	81.4143	13,929.2	80.7734	13,929.2	83.1164	13,929.2	71.7477	13,929.2	77.2627	13,929.2	56.6538	13,929.2	66.895	13,929.2	59.0417	13,929.2	69.4074	13,929.2	62.7487	13,929.2	56.2809	13,929.2	57.8359	13,929.2	65.9303	13,929.2	49.3157	13,929.2	64.6887	13,929.2	46.9305	13,929.2	51.8687	13,929.2	50.0364	13,929.2	59.5599	13,929.2	38.6646	13,929.2	60.8639	13,929.2	52.9285	13,929.2	59.7206	13,929.2	44.2917	13,929.2	42.9608	13,929.2	52.5191	13,929.2	55.7495	13,929.2	60.2485	13,929.2	52.0242	13,929.2	51.2656
14,419.9	88.6325	14,419.9	75.5571	14,419.9	81.1449	14,419.9	74.8848	14,419.9	77.9805	14,419.9	79.9902	14,419.9	80.2015	14,419.9	79.0281	14,419.9	83.0241	14,419.9	70.7829	14,419.9	70.8695	14,419.9	63.8383	14,419.9	68.4866	14,419.9	70.2373	14,419.9	69.903	14,419.9	56.77	14,419.9	57.761	14,419.9	60.2297	14,419.9	48.9435	14,419.9	52.4437	14,419.9	72.316	14,419.9	51.5449	14,419.9	61.7628	14,419.9	56.9985	14,419.9	61.5826	14,419.9	54.37	14,419.9	65.175	14,419.9	53.4514	14,419.9	60.8043	14,419.9	57.3074	14,419.9	52.9576	14,419.9	60.2797	14,419.9	54.1814	14,419.9	57.5616	14,419.9	56.3323	14,419.9	57.9551
14,928.2	88.9659	14,928.2	77.0514	14,928.2	80.7348	14,928.2	74.7888	14,928.2	79.094	14,928.2	81.9578	14,928.2	79.2253	14,928.2	79.8595	14,928.2	83.4349	14,928.2	68.8469	14,928.2	64.2364	14,928.2	58.8076	14,928.2	75.7629	14,928.2	71.0961	14,928.2	70.914	14,928.2	65.7837	14,928.2	64.7199	14,928.2	66.4133	14,928.2	66.5663	14,928.2	61.4561	14,928.2	74.1531	14,928.2	61.8713	14,928.2	64.816	14,928.2	55.5433	14,928.2	64.456	14,928.2	59.4465	14,928.2	68.7126	14,928.2	57.698	14,928.2	54.6487	14,928.2	59.4181	14,928.2	61.4799	14,928.2	66.5505	14,928.2	52.1397	14,928.2	57.4791	14,928.2	61.7539	14,928.2	64.2385
15,455.6	88.7721	15,455.6	79.4263	15,455.6	82.0754	15,455.6	78.1074	15,455.6	80.5523	15,455.6	82.5751	15,455.6	80.4371	15,455.6	78.9608	15,455.6	81.2191	15,455.6	59.9129	15,455.6	70.0746	15,455.6	73.1714	15,455.6	75.3571	15,455.6	72.1159	15,455.6	75.292	15,455.6	69.7859	15,455.6	65.8293	15,455.6	70.841	15,455.6	70.692	15,455.6	65.459	15,455.6	72.9959	15,455.6	66.5956	15,455.6	62.5927	15,455.6	54.0634	15,455.6	65.8619	15,455.6	63.2956	15,455.6	69.9036	15,455.6	56.2456	15,455.6	54.6632	15,455.6	59.8818	15,455.6	65.1144	15,455.6	69.7772	15,455.6	55.6467	15,455.6	57.6822	15,455.6	63.7723	15,455.6	67.2072
16,000.5	88.0624	16,000.5	80.5066	16,000.5	83.4149	16,000.5	81.4602	16,000.5	81.9785	16,000.5	83.4597	16,000.5	81.9164	16,000.5	79.1644	16,000.5	82.2018	16,000.5	68.0856	16,000.5	66.8774	16,000.5	75.4892	16,000.5	73.7473	16,000.5	72.747	16,000.5	75.2623	16,000.5	70.0217	16,000.5	67.0617	16,000.5	70.772	16,000.5	70.2519	16,000.5	64.1743	16,000.5	74.1514	16,000.5	65.4758	16,000.5	46.2621	16,000.5	53.2776	16,000.5	61.0547	16,000.5	63.9949	16,000.5	68.4492	16,000.5	55.7812	16,000.5	54.0954	16,000.5	60.1001	16,000.5	64.9877	16,000.5	70.1266	16,000.5	53.6035	16,000.5	53.7071	16,000.5	61.5754	16,000.5	66.2001
16,564.5	86.401	16,564.5	80.9621	16,564.5	82.4048	16,564.5	82.7661	16,564.5	80.9312	16,564.5	82.9543	16,564.5	83.7675	16,564.5	77.8112	16,564.5	81.4586	16,564.5	64.0848	16,564.5	69.6802	16,564.5	72.8098	16,564.5	73.7086	16,564.5	70.461	16,564.5	67.5903	16,564.5	68.6823	16,564.5	66.8168	16,564.5	66.7387	16,564.5	71.126	16,564.5	63.3404	16,564.5	72.8483	16,564.5	64.4336	16,564.5	55.4409	16,564.5	40.6268	16,564.5	62.0306	16,564.5	62.443	16,564.5	65.1319	16,564.5	56.8818	16,564.5	60.0473	16,564.5	58.3184	16,564.5	63.8049	16,564.5	69.9378	16,564.5	51.7343	16,564.5	52.635	16,564.5	56.9151	16,564.5	64.9821
17,148.9	86.1684	17,148.9	81.556	17,148.9	79.6278	17,148.9	83.8848	17,148.9	82.2998	17,148.9	83.1623	17,148.9	85.0629	17,148.9	76.5411	17,148.9	74.8801	17,148.9	70.5912	17,148.9	72.9789	17,148.9	71.9377	17,148.9	60.3681	17,148.9	64.9798	17,148.9	66.4913	17,148.9	67.4992	17,148.9	52.2829	17,148.9	66.3488	17,148.9	67.3869	17,148.9	65.2531	17,148.9	70.7225	17,148.9	63.676	17,148.9	43.2831	17,148.9	55.7915	17,148.9	66.7549	17,148.9	60.3812	17,148.9	61.4218	17,148.9	55.467	17,148.9	60.2581	17,148.9	63.2577	17,148.9	57.9489	17,148.9	66.6702	17,148.9	56.055	17,148.9	53.6599	17,148.9	50.3636	17,148.9	64.968
17,752.4	85.6244	17,752.4	81.7952	17,752.4	74.4781	17,752.4	85.934	17,752.4	82.3559	17,752.4	81.9643	17,752.4	84.2242	17,752.4	72.9335	17,752.4	74.6097	17,752.4	70.7304	17,752.4	74.369	17,752.4	69.7638	17,752.4	71.1544	17,752.4	64.0437	17,752.4	70.0196	17,752.4	65.4796	17,752.4	62.751	17,752.4	59.7356	17,752.4	65.7118	17,752.4	65.0958	17,752.4	59.5941	17,752.4	62.711	17,752.4	58.3512	17,752.4	60.9537	17,752.4	66.8181	17,752.4	59.8562	17,752.4	48.2643	17,752.4	59.5408	17,752.4	65.3626	17,752.4	64.2472	17,752.4	57.9892	17,752.4	67.2517	17,752.4	62.0291	17,752.4	56.0643	17,752.4	55.2211	17,752.4	66.1564
18,379.4	86.3025	18,379.4	82.3617	18,379.4	76.0571	18,379.4	86.393	18,379.4	79.2795	18,379.4	78.8803	18,379.4	82.9017	18,379.4	68.6317	18,379.4	79.47	18,379.4	73.0541	18,379.4	71.5146	18,379.4	70.7328	18,379.4	70.027	18,379.4	69.4602	18,379.4	70.266	18,379.4	52.2148	18,379.4	64.2375	18,379.4	53.6528	18,379.4	53.7921	18,379.4	62.3071	18,379.4	63.3491	18,379.4	64.3531	18,379.4	64.2546	18,379.4	59.5112	18,379.4	63.8647	18,379.4	59.5778	18,379.4	55.8535	18,379.4	60.8216	18,379.4	64.9144	18,379.4	61.1958	18,379.4	62.3083	18,379.4	68.3194	18,379.4	63.7592	18,379.4	51.6882	18,379.4	58.6283	18,379.4	65.498
19,026.9	87.5229	19,026.9	81.9149	19,026.9	78.0224	19,026.9	84.1146	19,026.9	70.2643	19,026.9	71.6676	19,026.9	82.9395	19,026.9	61.3282	19,026.9	77.1879	19,026.9	73.0822	19,026.9	73.6004	19,026.9	70.2884	19,026.9	67.1321	19,026.9	71.7437	19,026.9	73.935	19,026.9	58.1828	19,026.9	59.9764	19,026.9	56.7331	19,026.9	62.6305	19,026.9	60.5338	19,026.9	62.06	19,026.9	63.0145	19,026.9	59.3647	19,026.9	52.2288	19,026.9	53.6451	19,026.9	60.812	19,026.9	58.1569	19,026.9	59.222	19,026.9	61.1639	19,026.9	56.8201	19,026.9	61.116	19,026.9	67.381	19,026.9	62.0134	19,026.9	53.9673	19,026.9	55.2662	19,026.9	64.0138
19,697.8	88.2077	19,697.8	79.5361	19,697.8	78.6051	19,697.8	80.1857	19,697.8	69.6719	19,697.8	69.9605	19,697.8	82.9849	19,697.8	61.4843	19,697.8	74.6044	19,697.8	70.1688	19,697.8	75.4773	19,697.8	67.818	19,697.8	68.4598	19,697.8	69.4523	19,697.8	62.5876	19,697.8	55.1718	19,697.8	67.966	19,697.8	61.1576	19,697.8	59.2938	19,697.8	58.2002	19,697.8	53.8285	19,697.8	59.3505	19,697.8	50.2581	19,697.8	50.3263	19,697.8	51.4398	19,697.8	58.1716	19,697.8	47.7713	19,697.8	58.7826	19,697.8	58.4716	19,697.8	51.0664	19,697.8	59.5616	19,697.8	66.1222	19,697.8	60.7859	19,697.8	57.6344	19,697.8	49.8753	19,697.8	60.0883
19,999.5	88.1906	19,999.5	78.3812	19,999.5	78.6501	19,999.5	78.7464	19,999.5	74.3801	19,999.5	72.9974	19,999.5	82.3014	19,999.5	62.0139	19,999.5	73.142	19,999.5	71.3304	19,999.5	75.3252	19,999.5	68.4783	19,999.5	71.8196	19,999.5	64.4937	19,999.5	62.0639	19,999.5	46.3203	19,999.5	69.0872	19,999.5	57.9734	19,999.5	54.8377	19,999.5	49.6942	19,999.5	60.1629	19,999.5	57.0641	19,999.5	50.2289	19,999.5	50.8412	19,999.5	50.9168	19,999.5	57.5402	19,999.5	48.8537	19,999.5	57.6332	19,999.5	57.3713	19,999.5	49.9011	19,999.5	59.0273	19,999.5	61.562	19,999.5	60.8522	19,999.5	57.0681	19,999.5	44.0982	19,999.5	55.1399
