"SPL Vertical"
"On-Axis"		"10°"		"-10°"		"20°"		"-20°"		"30°"		"-30°"		"40°"		"-40°"		"50°"		"-50°"		"60°"		"-60°"		"70°"		"-70°"		"80°"		"-80°"		"90°"		"-90°"		"100°"		"-100°"		"110°"		"-110°"		"120°"		"-120°"		"130°"		"-130°"		"140°"		"-140°"		"150°"		"-150°"		"160°"		"-160°"		"170°"		"-170°"		"180°"
"Frequency / Hz"	"Sound Pressure Level / dB (re 20 µPa/V)  [2.83  V @ 1. m]"	"Frequency / Hz"	"Sound Pressure Level / dB (re 20 µPa/V)  [2.83  V @ 1. m]"	"Frequency / Hz"	"Sound Pressure Level / dB (re 20 µPa/V)  [2.83  V @ 1. m]"	"Frequency / Hz"	"Sound Pressure Level / dB (re 20 µPa/V)  [2.83  V @ 1. m]"	"Frequency / Hz"	"Sound Pressure Level / dB (re 20 µPa/V)  [2.83  V @ 1. m]"	"Frequency / Hz"	"Sound Pressure Level / dB (re 20 µPa/V)  [2.83  V @ 1. m]"	"Frequency / Hz"	"Sound Pressure Level / dB (re 20 µPa/V)  [2.83  V @ 1. m]"	"Frequency / Hz"	"Sound Pressure Level / dB (re 20 µPa/V)  [2.83  V @ 1. m]"	"Frequency / Hz"	"Sound Pressure Level / dB (re 20 µPa/V)  [2.83  V @ 1. m]"	"Frequency / Hz"	"Sound Pressure Level / dB (re 20 µPa/V)  [2.83  V @ 1. m]"	"Frequency / Hz"	"Sound Pressure Level / dB (re 20 µPa/V)  [2.83  V @ 1. m]"	"Frequency / Hz"	"Sound Pressure Level / dB (re 20 µPa/V)  [2.83  V @ 1. m]"	"Frequency / Hz"	"Sound Pressure Level / dB (re 20 µPa/V)  [2.83  V @ 1. m]"	"Frequency / Hz"	"Sound Pressure Level / dB (re 20 µPa/V)  [2.83  V @ 1. m]"	"Frequency / Hz"	"Sound Pressure Level / dB (re 20 µPa/V)  [2.83  V @ 1. m]"	"Frequency / Hz"	"Sound Pressure Level / dB (re 20 µPa/V)  [2.83  V @ 1. m]"	"Frequency / Hz"	"Sound Pressure Level / dB (re 20 µPa/V)  [2.83  V @ 1. m]"	"Frequency / Hz"	"Sound Pressure Level / dB (re 20 µPa/V)  [2.83  V @ 1. m]"	"Frequency / Hz"	"Sound Pressure Level / dB (re 20 µPa/V)  [2.83  V @ 1. m]"	"Frequency / Hz"	"Sound Pressure Level / dB (re 20 µPa/V)  [2.83  V @ 1. m]"	"Frequency / Hz"	"Sound Pressure Level / dB (re 20 µPa/V)  [2.83  V @ 1. m]"	"Frequency / Hz"	"Sound Pressure Level / dB (re 20 µPa/V)  [2.83  V @ 1. m]"	"Frequency / Hz"	"Sound Pressure Level / dB (re 20 µPa/V)  [2.83  V @ 1. m]"	"Frequency / Hz"	"Sound Pressure Level / dB (re 20 µPa/V)  [2.83  V @ 1. m]"	"Frequency / Hz"	"Sound Pressure Level / dB (re 20 µPa/V)  [2.83  V @ 1. m]"	"Frequency / Hz"	"Sound Pressure Level / dB (re 20 µPa/V)  [2.83  V @ 1. m]"	"Frequency / Hz"	"Sound Pressure Level / dB (re 20 µPa/V)  [2.83  V @ 1. m]"	"Frequency / Hz"	"Sound Pressure Level / dB (re 20 µPa/V)  [2.83  V @ 1. m]"	"Frequency / Hz"	"Sound Pressure Level / dB (re 20 µPa/V)  [2.83  V @ 1. m]"	"Frequency / Hz"	"Sound Pressure Level / dB (re 20 µPa/V)  [2.83  V @ 1. m]"	"Frequency / Hz"	"Sound Pressure Level / dB (re 20 µPa/V)  [2.83  V @ 1. m]"	"Frequency / Hz"	"Sound Pressure Level / dB (re 20 µPa/V)  [2.83  V @ 1. m]"	"Frequency / Hz"	"Sound Pressure Level / dB (re 20 µPa/V)  [2.83  V @ 1. m]"	"Frequency / Hz"	"Sound Pressure Level / dB (re 20 µPa/V)  [2.83  V @ 1. m]"	"Frequency / Hz"	"Sound Pressure Level / dB (re 20 µPa/V)  [2.83  V @ 1. m]"	"Frequency / Hz"	"Sound Pressure Level / dB (re 20 µPa/V)  [2.83  V @ 1. m]"
20.5078	56.4286	20.5078	55.9808	20.5078	56.7839	20.5078	55.4876	20.5078	57.0186	20.5078	55.026	20.5078	57.1149	20.5078	54.7106	20.5078	57.0625	20.5078	54.6758	20.5078	56.8619	20.5078	55.0153	20.5078	56.5334	20.5078	55.7203	20.5078	56.1386	20.5078	56.6854	20.5078	55.8083	20.5078	57.7765	20.5078	55.7478	20.5078	58.884	20.5078	56.1486	20.5078	59.9353	20.5078	57.028	20.5078	60.8859	20.5078	58.206	20.5078	61.7074	20.5078	59.4561	20.5078	62.3787	20.5078	60.6173	20.5078	62.8825	20.5078	61.6032	20.5078	63.2025	20.5078	62.3748	20.5078	63.3236	20.5078	62.9182	20.5078	63.2323
21.9727	58.8364	21.9727	58.5156	21.9727	59.1087	21.9727	58.1903	21.9727	59.3018	21.9727	57.9207	21.9727	59.395	21.9727	57.7804	21.9727	59.3763	21.9727	57.8414	21.9727	59.2444	21.9727	58.1477	21.9727	59.016	21.9727	58.6938	21.9727	58.7386	21.9727	59.4277	21.9727	58.5066	21.9727	60.2743	21.9727	58.4617	21.9727	61.1606	21.9727	58.7438	21.9727	62.0274	21.9727	59.3972	21.9727	62.8303	21.9727	60.3285	21.9727	63.5361	21.9727	61.3748	21.9727	64.1187	21.9727	62.3906	21.9727	64.556	21.9727	63.2813	21.9727	64.8288	21.9727	63.9956	21.9727	64.9204	21.9727	64.5099	21.9727	64.8172
23.4375	60.6257	23.4375	60.4476	23.4375	60.7905	23.4375	60.2988	23.4375	60.9113	23.4375	60.2316	23.4375	60.9693	23.4375	60.3006	23.4375	60.9584	23.4375	60.5482	23.4375	60.8892	23.4375	60.9895	23.4375	60.795	23.4375	61.6054	23.4375	60.7388	23.4375	62.3507	23.4375	60.812	23.4375	63.1697	23.4375	61.109	23.4375	64.0088	23.4375	61.6786	23.4375	64.8234	23.4375	62.4883	23.4375	65.5779	23.4375	63.4405	23.4375	66.2433	23.4375	64.4229	23.4375	66.7958	23.4375	65.3433	23.4375	67.2143	23.4375	66.1399	23.4375	67.4807	23.4375	66.7757	23.4375	67.5795	23.4375	67.231	23.4375	67.4987
24.9023	62.7601	24.9023	62.6495	24.9023	62.8744	24.9023	62.5749	24.9023	62.9676	24.9023	62.5742	24.9023	63.0247	24.9023	62.6842	24.9023	63.0415	24.9023	62.9328	24.9023	63.0274	24.9023	63.3297	24.9023	63.0092	24.9023	63.8632	24.9023	63.034	24.9023	64.5034	24.9023	63.1654	24.9023	65.2109	24.9023	63.4663	24.9023	65.9442	24.9023	63.9703	24.9023	66.6655	24.9023	64.6597	24.9023	67.3416	24.9023	65.4706	24.9023	67.944	24.9023	66.3199	24.9023	68.448	24.9023	67.1307	24.9023	68.8317	24.9023	67.8447	24.9023	69.0762	24.9023	68.4225	24.9023	69.1659	24.9023	68.8411	24.9023	69.0894
26.3672	65.3455	26.3672	65.2522	26.3672	65.4408	26.3672	65.1841	26.3672	65.5208	26.3672	65.1679	26.3672	65.5745	26.3672	65.2314	26.3672	65.599	26.3672	65.3979	26.3672	65.6014	26.3672	65.6811	26.3672	65.6012	26.3672	66.0805	26.3672	65.6317	26.3672	66.5808	26.3672	65.7382	26.3672	67.1557	26.3672	65.9672	26.3672	67.7724	26.3672	66.3494	26.3672	68.3967	26.3672	66.8826	26.3672	68.996	26.3672	67.529	26.3672	69.5403	26.3672	68.2275	26.3672	70.003	26.3672	68.913	26.3672	70.3605	26.3672	69.5298	26.3672	70.5926	26.3672	70.0362	26.3672	70.6835	26.3672	70.4052	26.3672	70.6224
27.832	67.0702	27.832	67.0017	27.832	67.1458	27.832	66.9595	27.832	67.2137	27.832	66.9659	27.832	67.2654	27.832	67.0435	27.832	67.2992	27.832	67.2111	27.832	67.3228	27.832	67.4796	27.832	67.3538	27.832	67.8488	27.832	67.4208	27.832	68.3072	27.832	67.5598	27.832	68.8333	27.832	67.8061	27.832	69.3997	27.832	68.1809	27.832	69.9766	27.832	68.6801	27.832	70.5342	27.832	69.2725	27.832	71.0444	27.832	69.9078	27.832	71.4813	27.832	70.5312	27.832	71.8216	27.832	71.0933	27.832	72.0456	27.832	71.5556	27.832	72.1377	27.832	71.892	27.832	72.0877
29.2969	68.6205	29.2969	68.5572	29.2969	68.6933	29.2969	68.5196	29.2969	68.7629	29.2969	68.5266	29.2969	68.8222	29.2969	68.5972	29.2969	68.8699	29.2969	68.7476	29.2969	68.9124	29.2969	68.9877	29.2969	68.9647	29.2969	69.3185	29.2969	69.0496	29.2969	69.7316	29.2969	69.1962	29.2969	70.2094	29.2969	69.4323	29.2969	70.7286	29.2969	69.7751	29.2969	71.2623	29.2969	70.2224	29.2969	71.7829	29.2969	70.75	29.2969	72.2632	29.2969	71.3173	29.2969	72.678	29.2969	71.8768	29.2969	73.0044	29.2969	72.3839	29.2969	73.2228	29.2969	72.8024	29.2969	73.3178	29.2969	73.1061	29.2969	73.2798
30.7617	70.1233	30.7617	70.0836	30.7617	70.1785	30.7617	70.0722	30.7617	70.2393	30.7617	70.1032	30.7617	70.2998	30.7617	70.1905	30.7617	70.3587	30.7617	70.346	30.7617	70.421	30.7617	70.5768	30.7617	70.4982	30.7617	70.8837	30.7617	70.6081	30.7617	71.2605	30.7617	70.7723	30.7617	71.6937	30.7617	71.0109	30.7617	72.1648	30.7617	71.336	30.7617	72.6511	30.7617	71.7453	30.7617	73.1284	30.7617	72.2203	30.7617	73.5715	30.7617	72.729	30.7617	73.9563	30.7617	73.2328	30.7617	74.2604	30.7617	73.693	30.7617	74.4643	30.7617	74.076	30.7617	74.553	30.7617	74.3562	30.7617	74.5176
32.2266	71.6137	32.2266	71.5855	32.2266	71.6589	32.2266	71.5833	32.2266	71.7143	32.2266	71.6178	32.2266	71.776	32.2266	71.6997	32.2266	71.8438	32.2266	71.8383	32.2266	71.9215	32.2266	72.0399	32.2266	72.0173	32.2266	72.3062	32.2266	72.143	32.2266	72.6334	32.2266	72.313	32.2266	73.0119	32.2266	72.5404	32.2266	73.4269	32.2266	72.8336	32.2266	73.8597	32.2266	73.1912	32.2266	74.2888	32.2266	73.6003	32.2266	74.6914	32.2266	74.0372	32.2266	75.0446	32.2266	74.4714	32.2266	75.3268	32.2266	74.8701	32.2266	75.5193	32.2266	75.2032	32.2266	75.6078	32.2266	75.4464	32.2266	75.5838
33.6914	72.8349	33.6914	72.8037	33.6914	72.8828	33.6914	72.797	33.6914	72.9416	33.6914	72.8233	33.6914	73.0075	33.6914	72.8913	33.6914	73.0797	33.6914	73.0087	33.6914	73.1604	33.6914	73.1812	33.6914	73.2556	33.6914	73.4107	33.6914	73.3742	33.6914	73.695	33.6914	73.5275	33.6914	74.0269	33.6914	73.7264	33.6914	74.3945	33.6914	73.9786	33.6914	74.7817	33.6914	74.2846	33.6914	75.1695	33.6914	74.6356	33.6914	75.5366	33.6914	75.0132	33.6914	75.8614	33.6914	75.3917	33.6914	76.1233	33.6914	75.7424	33.6914	76.304	33.6914	76.0371	33.6914	76.3898	33.6914	76.2526	33.6914	76.3728
35.1562	73.8773	35.1562	73.847	35.1562	73.9251	35.1562	73.8404	35.1562	73.9855	35.1562	73.8647	35.1562	74.0553	35.1562	73.927	35.1562	74.1335	35.1562	74.0337	35.1562	74.2217	35.1562	74.1895	35.1562	74.3242	35.1562	74.3965	35.1562	74.4479	35.1562	74.6531	35.1562	74.6013	35.1562	74.9537	35.1562	74.793	35.1562	75.2885	35.1562	75.0286	35.1562	75.6436	35.1562	75.3083	35.1562	76.0019	35.1562	75.625	35.1562	76.3443	35.1562	75.9632	35.1562	76.6504	35.1562	76.3009	35.1562	76.9004	35.1562	76.6126	35.1562	77.0769	35.1562	76.8731	35.1562	77.1664	35.1562	77.0611	35.1562	77.1613
36.6211	74.8208	36.6211	74.7947	36.6211	74.8641	36.6211	74.7908	36.6211	74.9209	36.6211	74.8145	36.6211	74.9885	36.6211	74.8715	36.6211	75.066	36.6211	74.967	36.6211	75.1543	36.6211	75.105	36.6211	75.2565	36.6211	75.2872	36.6211	75.3774	36.6211	75.513	36.6211	75.5231	36.6211	75.7782	36.6211	75.7	36.6211	76.0749	36.6211	75.9124	36.6211	76.3917	36.6211	76.1606	36.6211	76.7137	36.6211	76.4392	36.6211	77.0237	36.6211	76.7357	36.6211	77.3031	36.6211	77.032	36.6211	77.5334	36.6211	77.3059	36.6211	77.6981	36.6211	77.5349	36.6211	77.7843	36.6211	77.6993	36.6211	77.7848
38.0859	75.6138	38.0859	75.5874	38.0859	75.6575	38.0859	75.5821	38.0859	75.7155	38.0859	75.6023	38.0859	75.7856	38.0859	75.6523	38.0859	75.8667	38.0859	75.7362	38.0859	75.9591	38.0859	75.8573	38.0859	76.0645	38.0859	76.0176	38.0859	76.186	38.0859	76.2167	38.0859	76.3279	38.0859	76.4518	38.0859	76.4944	38.0859	76.7166	38.0859	76.6887	38.0859	77.0018	38.0859	76.9109	38.0859	77.2944	38.0859	77.1567	38.0859	77.579	38.0859	77.4161	38.0859	77.8386	38.0859	77.6738	38.0859	78.0557	38.0859	77.911	38.0859	78.2145	38.0859	78.1078	38.0859	78.3028	38.0859	78.2464	38.0859	78.3136
39.5508	76.3461	39.5508	76.3176	39.5508	76.3904	39.5508	76.3077	39.5508	76.4478	39.5508	76.3201	39.5508	76.5166	39.5508	76.3583	39.5508	76.5958	39.5508	76.4261	39.5508	76.6854	39.5508	76.5264	39.5508	76.7862	39.5508	76.6614	39.5508	76.9002	39.5508	76.8315	39.5508	77.0305	39.5508	77.0347	39.5508	77.1801	39.5508	77.2664	39.5508	77.3513	39.5508	77.5187	39.5508	77.5444	39.5508	77.7806	39.5508	77.7561	39.5508	78.0384	39.5508	77.9786	39.5508	78.2763	39.5508	78.1992	39.5508	78.4781	39.5508	78.4018	39.5508	78.6289	39.5508	78.5688	39.5508	78.717	39.5508	78.6841	39.5508	78.7355
41.0156	76.8858	41.0156	76.8599	41.0156	76.9292	41.0156	76.8541	41.0156	76.9882	41.0156	76.8709	41.0156	77.0611	41.0156	76.9131	41.0156	77.1467	41.0156	76.9831	41.0156	77.2447	41.0156	77.0831	41.0156	77.3553	41.0156	77.2145	41.0156	77.4795	41.0156	77.3773	41.0156	77.6189	41.0156	77.5696	41.0156	77.775	41.0156	77.7876	41.0156	77.9484	41.0156	78.0246	41.0156	78.1381	41.0156	78.2709	41.0156	78.3403	41.0156	78.5145	41.0156	78.5475	41.0156	78.7412	41.0156	78.7485	41.0156	78.9362	41.0156	78.9293	41.0156	79.0855	41.0156	79.0745	41.0156	79.1778	41.0156	79.1703	41.0156	79.2065
42.4805	77.4549	42.4805	77.4278	42.4805	77.4985	42.4805	77.4186	42.4805	77.5571	42.4805	77.4289	42.4805	77.6295	42.4805	77.4604	42.4805	77.7144	42.4805	77.5149	42.4805	77.8106	42.4805	77.5939	42.4805	77.917	42.4805	77.6988	42.4805	78.0331	42.4805	77.83	42.4805	78.1583	42.4805	77.9866	42.4805	78.2927	42.4805	78.166	42.4805	78.4363	42.4805	78.3634	42.4805	78.5885	42.4805	78.5712	42.4805	78.747	42.4805	78.7793	42.4805	78.9073	42.4805	78.9756	42.4805	79.0617	42.4805	79.1469	42.4805	79.1999	42.4805	79.2808	42.4805	79.3098	42.4805	79.3673	42.4805	79.3798	42.4805	79.4005
43.9453	77.9113	43.9453	77.8805	43.9453	77.9566	43.9453	77.8655	43.9453	78.0151	43.9453	77.868	43.9453	78.0856	43.9453	77.8894	43.9453	78.1667	43.9453	77.9315	43.9453	78.2572	43.9453	77.9958	43.9453	78.3558	43.9453	78.0837	43.9453	78.4618	43.9453	78.1958	43.9453	78.5744	43.9453	78.3318	43.9453	78.6935	43.9453	78.4897	43.9453	78.8189	43.9453	78.6654	43.9453	78.9502	43.9453	78.8524	43.9453	79.0858	43.9453	79.0417	43.9453	79.2221	43.9453	79.222	43.9453	79.3529	43.9453	79.3813	43.9453	79.4692	43.9453	79.5078	43.9453	79.5607	43.9453	79.592	43.9453	79.6165	43.9453	79.6284
45.4102	78.3523	45.4102	78.3197	45.4102	78.3996	45.4102	78.3029	45.4102	78.4602	45.4102	78.3031	45.4102	78.5327	45.4102	78.3215	45.4102	78.6156	45.4102	78.3594	45.4102	78.7075	45.4102	78.4179	45.4102	78.8067	45.4102	78.4978	45.4102	78.912	45.4102	78.5996	45.4102	79.0221	45.4102	78.7231	45.4102	79.1363	45.4102	78.8666	45.4102	79.254	45.4102	79.0269	45.4102	79.3744	45.4102	79.1984	45.4102	79.4959	45.4102	79.3733	45.4102	79.6156	45.4102	79.5417	45.4102	79.7281	45.4102	79.6927	45.4102	79.826	45.4102	79.8152	45.4102	79.9003	45.4102	79.9005	45.4102	79.9417	45.4102	79.9429
46.875	78.7197	46.875	78.6887	46.875	78.7655	46.875	78.6729	46.875	78.8249	46.875	78.673	46.875	78.8971	46.875	78.6896	46.875	78.9804	46.875	78.7234	46.875	79.0732	46.875	78.7752	46.875	79.1736	46.875	78.8456	46.875	79.2795	46.875	78.9352	46.875	79.389	46.875	79.0441	46.875	79.5005	46.875	79.1714	46.875	79.6127	46.875	79.3147	46.875	79.7244	46.875	79.4697	46.875	79.8338	46.875	79.6299	46.875	79.9384	46.875	79.7866	46.875	80.0338	46.875	79.9299	46.875	80.1138	46.875	80.0497	46.875	80.1708	46.875	80.1372	46.875	80.1971	46.875	80.1868
48.3398	78.9943	48.3398	78.9605	48.3398	79.0426	48.3398	78.9416	48.3398	79.1047	48.3398	78.9379	48.3398	79.1795	48.3398	78.9495	48.3398	79.2651	48.3398	78.9768	48.3398	79.3597	48.3398	79.0203	48.3398	79.4607	48.3398	79.0805	48.3398	79.5655	48.3398	79.1582	48.3398	79.6717	48.3398	79.2536	48.3398	79.7772	48.3398	79.3662	48.3398	79.8801	48.3398	79.4945	48.3398	79.9792	48.3398	79.6348	48.3398	80.0731	48.3398	79.7818	48.3398	80.1596	48.3398	79.9278	48.3398	80.2356	48.3398	80.0637	48.3398	80.2963	48.3398	80.1803	48.3398	80.3354	48.3398	80.2694	48.3398	80.3468	48.3398	80.3255
51.2695	79.5505	51.2695	79.5109	51.2695	79.6039	51.2695	79.4853	51.2695	79.6701	51.2695	79.4739	51.2695	79.7478	51.2695	79.4763	51.2695	79.8351	51.2695	79.4924	51.2695	79.9295	51.2695	79.5218	51.2695	80.0282	51.2695	79.5646	51.2695	80.1278	51.2695	79.6208	51.2695	80.2251	51.2695	79.6906	51.2695	80.3172	51.2695	79.774	51.2695	80.4015	51.2695	79.8702	51.2695	80.4759	51.2695	79.9776	51.2695	80.5392	51.2695	80.0931	51.2695	80.5901	51.2695	80.2117	51.2695	80.6272	51.2695	80.3271	51.2695	80.6483	51.2695	80.4324	51.2695	80.6507	51.2695	80.5211	51.2695	80.6313	51.2695	80.5882
52.7344	79.8768	52.7344	79.841	52.7344	79.9237	52.7344	79.8163	52.7344	79.9813	52.7344	79.8024	52.7344	80.0488	52.7344	79.7991	52.7344	80.125	52.7344	79.8061	52.7344	80.2078	52.7344	79.8235	52.7344	80.2948	52.7344	79.8512	52.7344	80.3826	52.7344	79.8896	52.7344	80.4681	52.7344	79.9395	52.7344	80.5477	52.7344	80.0012	52.7344	80.6187	52.7344	80.0749	52.7344	80.6788	52.7344	80.1599	52.7344	80.7266	52.7344	80.2542	52.7344	80.7612	52.7344	80.3541	52.7344	80.782	52.7344	80.4544	52.7344	80.7877	52.7344	80.5492	52.7344	80.7769	52.7344	80.6324	52.7344	80.7479	52.7344	80.6996
54.1992	80.1218	54.1992	80.0822	54.1992	80.1715	54.1992	80.0526	54.1992	80.2312	54.1992	80.0326	54.1992	80.3	54.1992	80.022	54.1992	80.3767	54.1992	80.0202	54.1992	80.459	54.1992	80.0274	54.1992	80.5443	54.1992	80.0436	54.1992	80.6292	54.1992	80.0695	54.1992	80.7101	54.1992	80.1058	54.1992	80.7831	54.1992	80.1535	54.1992	80.8453	54.1992	80.2133	54.1992	80.8943	54.1992	80.2851	54.1992	80.9285	54.1992	80.3679	54.1992	80.9475	54.1992	80.4587	54.1992	80.9511	54.1992	80.5534	54.1992	80.9392	54.1992	80.6466	54.1992	80.9115	54.1992	80.7329	54.1992	80.8676	54.1992	80.8076
55.6641	80.2589	55.6641	80.2215	55.6641	80.3078	55.6641	80.1951	55.6641	80.3684	55.6641	80.1785	55.6641	80.44	55.6641	80.1706	55.6641	80.5209	55.6641	80.1704	55.6641	80.6085	55.6641	80.1772	55.6641	80.6994	55.6641	80.1908	55.6641	80.7894	55.6641	80.2117	55.6641	80.8744	55.6641	80.241	55.6641	80.9499	55.6641	80.2798	55.6641	81.0123	55.6641	80.3297	55.6641	81.0589	55.6641	80.3915	55.6641	81.0881	55.6641	80.465	55.6641	81.0992	55.6641	80.5487	55.6641	81.0925	55.6641	80.6391	55.6641	81.0687	55.6641	80.7317	55.6641	81.0284	55.6641	80.8212	55.6641	80.9726	55.6641	80.9027
58.5938	80.6367	58.5938	80.5919	58.5938	80.6946	58.5938	80.5599	58.5938	80.7649	58.5938	80.5398	58.5938	80.8462	58.5938	80.5303	58.5938	80.936	58.5938	80.5301	58.5938	81.0307	58.5938	80.5378	58.5938	81.1263	58.5938	80.5525	58.5938	81.2182	58.5938	80.5738	58.5938	81.3016	58.5938	80.6019	58.5938	81.372	58.5938	80.6375	58.5938	81.4258	58.5938	80.6815	58.5938	81.4602	58.5938	80.7349	58.5938	81.4739	58.5938	80.7981	58.5938	81.4673	58.5938	80.8704	58.5938	81.4418	58.5938	80.95	58.5938	81.3998	58.5938	81.0339	58.5938	81.3439	58.5938	81.1188	58.5938	81.2767	58.5938	81.2007
60.0586	80.8124	60.0586	80.7656	60.0586	80.8716	60.0586	80.7307	60.0586	80.9425	60.0586	80.7069	60.0586	81.0236	60.0586	80.6929	60.0586	81.1124	60.0586	80.6871	60.0586	81.2054	60.0586	80.688	60.0586	81.2986	60.0586	80.6947	60.0586	81.3871	60.0586	80.7067	60.0586	81.4662	60.0586	80.7241	60.0586	81.531	60.0586	80.748	60.0586	81.5777	60.0586	80.7795	60.0586	81.6033	60.0586	80.8205	60.0586	81.6066	60.0586	80.8719	60.0586	81.5879	60.0586	80.9344	60.0586	81.5491	60.0586	81.007	60.0586	81.4934	60.0586	81.0877	60.0586	81.4242	60.0586	81.1734	60.0586	81.3453	60.0586	81.2605
62.9883	81.0526	62.9883	81.0019	62.9883	81.1146	62.9883	80.9623	62.9883	81.1873	62.9883	80.9333	62.9883	81.2692	62.9883	80.9134	62.9883	81.3579	62.9883	80.9014	62.9883	81.4504	62.9883	80.8959	62.9883	81.5427	62.9883	80.8958	62.9883	81.6304	62.9883	80.9005	62.9883	81.7088	62.9883	80.9103	62.9883	81.7729	62.9883	80.9261	62.9883	81.8182	62.9883	80.9495	62.9883	81.8413	62.9883	80.9825	62.9883	81.8402	62.9883	81.0271	62.9883	81.8146	62.9883	81.0846	62.9883	81.7662	62.9883	81.1553	62.9883	81.6984	62.9883	81.2377	62.9883	81.6157	62.9883	81.3293	62.9883	81.5232	62.9883	81.426
64.4531	81.0782	64.4531	81.0264	64.4531	81.1411	64.4531	80.9856	64.4531	81.2145	64.4531	80.9551	64.4531	81.2969	64.4531	80.9337	64.4531	81.3859	64.4531	80.9197	64.4531	81.4785	64.4531	80.9117	64.4531	81.5709	64.4531	80.9083	64.4531	81.6586	64.4531	80.9089	64.4531	81.7368	64.4531	80.9134	64.4531	81.8002	64.4531	80.923	64.4531	81.8442	64.4531	80.9393	64.4531	81.8648	64.4531	80.965	64.4531	81.8596	64.4531	81.0025	64.4531	81.8283	64.4531	81.054	64.4531	81.7724	64.4531	81.1207	64.4531	81.6957	64.4531	81.2019	64.4531	81.6034	64.4531	81.2953	64.4531	81.5018	64.4531	81.397
67.3828	81.2497	67.3828	81.198	67.3828	81.3124	67.3828	81.1573	67.3828	81.3858	67.3828	81.1263	67.3828	81.4684	67.3828	81.1037	67.3828	81.558	67.3828	81.0875	67.3828	81.6514	67.3828	81.0759	67.3828	81.7448	67.3828	81.0673	67.3828	81.8332	67.3828	81.0609	67.3828	81.9113	67.3828	81.0566	67.3828	81.9734	67.3828	81.0554	67.3828	82.0141	67.3828	81.0596	67.3828	82.0291	67.3828	81.0723	67.3828	82.0154	67.3828	81.097	67.3828	81.9726	67.3828	81.1372	67.3828	81.9028	67.3828	81.1952	67.3828	81.8108	67.3828	81.2719	67.3828	81.7032	67.3828	81.3658	67.3828	81.5879	67.3828	81.473
68.8477	81.2693	68.8477	81.2162	68.8477	81.3347	68.8477	81.1748	68.8477	81.4117	68.8477	81.1441	68.8477	81.4988	68.8477	81.1223	68.8477	81.5935	68.8477	81.1073	68.8477	81.6924	68.8477	81.0972	68.8477	81.791	68.8477	81.0901	68.8477	81.8843	68.8477	81.085	68.8477	81.9666	68.8477	81.0817	68.8477	82.032	68.8477	81.0811	68.8477	82.0749	68.8477	81.0856	68.8477	82.0906	68.8477	81.0982	68.8477	82.0762	68.8477	81.1227	68.8477	82.0312	68.8477	81.1629	68.8477	81.9578	68.8477	81.2216	68.8477	81.861	68.8477	81.2998	68.8477	81.748	68.8477	81.3964	68.8477	81.6273	68.8477	81.5076
71.7773	81.5503	71.7773	81.4917	71.7773	81.6181	71.7773	81.4426	71.7773	81.6941	71.7773	81.4021	71.7773	81.7766	71.7773	81.3688	71.7773	81.8629	71.7773	81.3408	71.7773	81.9499	71.7773	81.3161	71.7773	82.0335	71.7773	81.2927	71.7773	82.1092	71.7773	81.2694	71.7773	82.1718	71.7773	81.2459	71.7773	82.2159	71.7773	81.2231	71.7773	82.2362	71.7773	81.2035	71.7773	82.2281	71.7773	81.1908	71.7773	82.189	71.7773	81.1899	71.7773	82.1187	71.7773	81.2061	71.7773	82.0204	71.7773	81.244	71.7773	81.9003	71.7773	81.3067	71.7773	81.7676	71.7773	81.3947	71.7773	81.6324	71.7773	81.5052
74.707	81.7852	74.707	81.724	74.707	81.8539	74.707	81.6704	74.707	81.929	74.707	81.6239	74.707	82.0088	74.707	81.5832	74.707	82.091	74.707	81.5464	74.707	82.1725	74.707	81.5114	74.707	82.2496	74.707	81.4764	74.707	82.318	74.707	81.4401	74.707	82.3725	74.707	81.4023	74.707	82.4076	74.707	81.3642	74.707	82.4178	74.707	81.3286	74.707	82.3982	74.707	81.3	74.707	82.3461	74.707	81.2842	74.707	82.2613	74.707	81.2875	74.707	82.1473	74.707	81.3158	74.707	82.0111	74.707	81.3734	74.707	81.8628	74.707	81.4614	74.707	81.7143	74.707	81.5772
77.6367	81.8744	77.6367	81.8155	77.6367	81.939	77.6367	81.7623	77.6367	82.0086	77.6367	81.7141	77.6367	82.0821	77.6367	81.6695	77.6367	82.1575	77.6367	81.6268	77.6367	82.2323	77.6367	81.584	77.6367	82.3032	77.6367	81.5395	77.6367	82.366	77.6367	81.4922	77.6367	82.4157	77.6367	81.4423	77.6367	82.4466	77.6367	81.3913	77.6367	82.4527	77.6367	81.3426	77.6367	82.4288	77.6367	81.3011	77.6367	82.3714	77.6367	81.2735	77.6367	82.2799	77.6367	81.2671	77.6367	82.1577	77.6367	81.2885	77.6367	82.0122	77.6367	81.3428	77.6367	81.8541	77.6367	81.4315	77.6367	81.6963	77.6367	81.5518
79.1016	81.8653	79.1016	81.8038	79.1016	81.9319	79.1016	81.7476	79.1016	82.003	79.1016	81.6959	79.1016	82.0771	79.1016	81.6475	79.1016	82.1524	79.1016	81.6008	79.1016	82.2262	79.1016	81.5537	79.1016	82.2952	79.1016	81.5047	79.1016	82.3552	79.1016	81.4526	79.1016	82.401	79.1016	81.3975	79.1016	82.4269	79.1016	81.341	79.1016	82.4271	79.1016	81.2864	79.1016	82.3963	79.1016	81.239	79.1016	82.3313	79.1016	81.2055	79.1016	82.2317	79.1016	81.1936	79.1016	82.1013	79.1016	81.2106	79.1016	81.9478	79.1016	81.262	79.1016	81.7827	79.1016	81.3497	79.1016	81.6193	79.1016	81.4713
82.0312	81.7994	82.0312	81.7368	82.0312	81.8668	82.0312	81.6791	82.0312	81.9382	82.0312	81.6256	82.0312	82.0124	82.0312	81.5751	82.0312	82.0875	82.0312	81.5259	82.0312	82.1611	82.0312	81.4764	82.0312	82.2301	82.0312	81.4247	82.0312	82.2906	82.0312	81.37	82.0312	82.3376	82.0312	81.3125	82.0312	82.3653	82.0312	81.2537	82.0312	82.3675	82.0312	81.1971	82.0312	82.3384	82.0312	81.1481	82.0312	82.2743	82.0312	81.1137	82.0312	82.1744	82.0312	81.1018	82.0312	82.042	82.0312	81.12	82.0312	81.885	82.0312	81.174	82.0312	81.715	82.0312	81.2657	82.0312	81.546	82.0312	81.3923
84.9609	81.8195	84.9609	81.7615	84.9609	81.8811	84.9609	81.7069	84.9609	81.9461	84.9609	81.6551	84.9609	82.0139	84.9609	81.6049	84.9609	82.0835	84.9609	81.5549	84.9609	82.1537	84.9609	81.5032	84.9609	82.2221	84.9609	81.4484	84.9609	82.2854	84.9609	81.3896	84.9609	82.3388	84.9609	81.3269	84.9609	82.3757	84.9609	81.2622	84.9609	82.3892	84.9609	81.1995	84.9609	82.3718	84.9609	81.1447	84.9609	82.318	84.9609	81.1058	84.9609	82.2252	84.9609	81.0919	84.9609	82.0953	84.9609	81.1115	84.9609	81.9356	84.9609	81.1708	84.9609	81.7578	84.9609	81.2718	84.9609	81.5774	84.9609	81.4106
87.8906	81.8823	87.8906	81.8174	87.8906	81.9514	87.8906	81.7566	87.8906	82.0239	87.8906	81.6991	87.8906	82.0987	87.8906	81.6435	87.8906	82.1741	87.8906	81.5879	87.8906	82.2475	87.8906	81.5303	87.8906	82.3159	87.8906	81.4688	87.8906	82.3755	87.8906	81.4024	87.8906	82.4212	87.8906	81.3312	87.8906	82.4473	87.8906	81.2574	87.8906	82.4472	87.8906	81.1851	87.8906	82.4149	87.8906	81.1209	87.8906	82.3456	87.8906	81.0734	87.8906	82.2378	87.8906	81.0524	87.8906	82.0939	87.8906	81.0672	87.8906	81.9214	87.8906	81.1246	87.8906	81.7326	87.8906	81.2268	87.8906	81.5432	87.8906	81.3696
90.8203	82.0986	90.8203	82.0226	90.8203	82.1719	90.8203	81.9448	90.8203	82.2413	90.8203	81.8654	90.8203	82.3055	90.8203	81.784	90.8203	82.363	90.8203	81.6997	90.8203	82.4123	90.8203	81.6108	90.8203	82.4515	90.8203	81.516	90.8203	82.4777	90.8203	81.4144	90.8203	82.487	90.8203	81.3063	90.8203	82.474	90.8203	81.1939	90.8203	82.4328	90.8203	81.0818	90.8203	82.3575	90.8203	80.9772	90.8203	82.2439	90.8203	80.8899	90.8203	82.0912	90.8203	80.8316	90.8203	81.9039	90.8203	80.8138	90.8203	81.692	90.8203	80.8463	90.8203	81.4706	90.8203	80.9339	90.8203	81.2585	90.8203	81.0744
95.2148	81.7245	95.2148	81.6503	95.2148	81.8023	95.2148	81.5811	95.2148	81.8821	95.2148	81.5172	95.2148	81.9617	95.2148	81.4581	95.2148	82.039	95.2148	81.4023	95.2148	82.1116	95.2148	81.3475	95.2148	82.1769	95.2148	81.2913	95.2148	82.2318	95.2148	81.2317	95.2148	82.2717	95.2148	81.1676	95.2148	82.2912	95.2148	81.0997	95.2148	82.2838	95.2148	81.031	95.2148	82.2432	95.2148	80.967	95.2148	82.1646	95.2148	80.9157	95.2148	82.0467	95.2148	80.887	95.2148	81.8929	95.2148	80.8911	95.2148	81.7124	95.2148	80.9362	95.2148	81.5188	95.2148	81.0265	95.2148	81.3291	95.2148	81.1603
98.1445	81.6901	98.1445	81.6126	98.1445	81.7696	98.1445	81.5377	98.1445	81.8499	98.1445	81.4654	98.1445	81.9294	98.1445	81.395	98.1445	82.0064	98.1445	81.3254	98.1445	82.0787	98.1445	81.255	98.1445	82.1441	98.1445	81.1823	98.1445	82.1994	98.1445	81.1066	98.1445	82.2404	98.1445	81.028	98.1445	82.2612	98.1445	80.9487	98.1445	82.2551	98.1445	80.8726	98.1445	82.2153	98.1445	80.8063	98.1445	82.1364	98.1445	80.7582	98.1445	82.0165	98.1445	80.738	98.1445	81.8583	98.1445	80.7551	98.1445	81.6703	98.1445	80.8167	98.1445	81.466	98.1445	80.9253	98.1445	81.2625	98.1445	81.0772
101.074	81.5778	101.074	81.5014	101.074	81.6544	101.074	81.4269	101.074	81.7293	101.074	81.3549	101.074	81.801	101.074	81.2855	101.074	81.8681	101.074	81.2179	101.074	81.9301	101.074	81.1504	101.074	81.9861	101.074	81.0815	101.074	82.0352	101.074	81.0101	101.074	82.0748	101.074	80.9361	101.074	82.1002	101.074	80.8616	101.074	82.1051	101.074	80.7909	101.074	82.0816	101.074	80.7305	101.074	82.0228	101.074	80.6894	101.074	81.9246	101.074	80.6773	101.074	81.7873	101.074	80.7033	101.074	81.6171	101.074	80.7737	101.074	81.4257	101.074	80.8893	101.074	81.2292	101.074	81.045
105.469	81.8557	105.469	81.7814	105.469	81.9235	105.469	81.703	105.469	81.9821	105.469	81.6219	105.469	82.0293	105.469	81.5387	105.469	82.0635	105.469	81.4527	105.469	82.0842	105.469	81.3625	105.469	82.0916	105.469	81.2663	105.469	82.086	105.469	81.1625	105.469	82.0671	105.469	81.0511	105.469	82.0328	105.469	80.9337	105.469	81.9793	105.469	80.8148	105.469	81.9013	105.469	80.7019	105.469	81.7938	105.469	80.605	105.469	81.6543	105.469	80.5362	105.469	81.4847	105.469	80.5076	105.469	81.2926	105.469	80.5285	105.469	81.0912	105.469	80.6035	105.469	80.8975	105.469	80.7298
108.398	81.9931	108.398	81.9105	108.398	82.0657	108.398	81.8205	108.398	82.1255	108.398	81.7251	108.398	82.1703	108.398	81.6252	108.398	82.1987	108.398	81.5209	108.398	82.2102	108.398	81.4114	108.398	82.2054	108.398	81.2958	108.398	82.1849	108.398	81.1734	108.398	82.1489	108.398	81.0449	108.398	82.0958	108.398	80.9129	108.398	82.0229	108.398	80.7822	108.398	81.9257	108.398	80.6608	108.398	81.8007	108.398	80.5588	108.398	81.6462	108.398	80.4879	108.398	81.4648	108.398	80.4593	108.398	81.264	108.398	80.4819	108.398	81.0566	108.398	80.5592	108.398	80.8589	108.398	80.6881
112.793	82.0534	112.793	81.9714	112.793	82.1237	112.793	81.8798	112.793	82.1801	112.793	81.7805	112.793	82.2206	112.793	81.6744	112.793	82.2446	112.793	81.5616	112.793	82.2521	112.793	81.4414	112.793	82.2444	112.793	81.3134	112.793	82.2225	112.793	81.1777	112.793	82.1868	112.793	81.0357	112.793	82.136	112.793	80.8913	112.793	82.0667	112.793	80.7508	112.793	81.9738	112.793	80.6231	112.793	81.8526	112.793	80.5195	112.793	81.7001	112.793	80.4522	112.793	81.5179	112.793	80.4322	112.793	81.3129	112.793	80.4672	112.793	81.0975	112.793	80.5592	112.793	80.8883	112.793	80.7035
117.188	82.0556	117.188	81.9557	117.188	82.1404	117.188	81.8442	117.188	82.2068	117.188	81.7236	117.188	82.2517	117.188	81.5954	117.188	82.2731	117.188	81.4599	117.188	82.2701	117.188	81.3167	117.188	82.2428	117.188	81.1648	117.188	82.1917	117.188	81.0042	117.188	82.117	117.188	80.8357	117.188	82.0183	117.188	80.6631	117.188	81.894	117.188	80.4924	117.188	81.7421	117.188	80.3332	117.188	81.5617	117.188	80.1973	117.188	81.3545	117.188	80.098	117.188	81.1261	117.188	80.0476	117.188	80.8867	117.188	80.0554	117.188	80.6505	117.188	80.1252	117.188	80.4343	117.188	80.2545
120.117	82.1635	120.117	82.0737	120.117	82.2393	120.117	81.9726	120.117	82.2985	120.117	81.8622	120.117	82.3388	120.117	81.7431	120.117	82.3589	120.117	81.6147	120.117	82.3581	120.117	81.4755	120.117	82.3361	120.117	81.3235	120.117	82.2924	120.117	81.1573	120.117	82.2252	120.117	80.9773	120.117	82.1311	120.117	80.7864	120.117	82.0057	120.117	80.5911	120.117	81.8445	120.117	80.4015	120.117	81.6452	120.117	80.2315	120.117	81.41	120.117	80.0967	120.117	81.1472	120.117	80.0132	120.117	80.8716	120.117	79.994	120.117	80.6029	120.117	80.0472	120.117	80.3632	120.117	80.1729
124.512	81.8542	124.512	81.7675	124.512	81.9277	124.512	81.6702	124.512	81.986	124.512	81.5652	124.512	82.0281	124.512	81.4543	124.512	82.0544	124.512	81.3385	124.512	82.0663	124.512	81.2173	124.512	82.0656	124.512	81.0897	124.512	82.0535	124.512	80.9548	124.512	82.0286	124.512	80.8122	124.512	81.9872	124.512	80.6638	124.512	81.922	124.512	80.5143	124.512	81.8249	124.512	80.3716	124.512	81.6884	124.512	80.2473	124.512	81.5096	124.512	80.1553	124.512	81.292	124.512	80.1104	124.512	81.0473	124.512	80.125	124.512	80.7939	124.512	80.2062	124.512	80.5549	124.512	80.3529
128.906	81.7577	128.906	81.6529	128.906	81.8538	128.906	81.5437	128.906	81.9366	128.906	81.434	128.906	82.0029	128.906	81.326	128.906	82.0507	128.906	81.2208	128.906	82.0801	128.906	81.1177	128.906	82.0925	128.906	81.0152	128.906	82.0898	128.906	80.9116	128.906	82.073	128.906	80.806	128.906	82.0405	128.906	80.6996	128.906	81.9877	128.906	80.5957	128.906	81.908	128.906	80.5007	128.906	81.7952	128.906	80.4237	128.906	81.6458	128.906	80.3754	128.906	81.4621	128.906	80.3664	128.906	81.2531	128.906	80.4054	128.906	81.0338	128.906	80.4969	128.906	80.8229	128.906	80.639
133.301	81.8428	133.301	81.7365	133.301	81.9328	133.301	81.6188	133.301	82.0018	133.301	81.4942	133.301	82.0471	133.301	81.3662	133.301	82.0677	133.301	81.2364	133.301	82.0652	133.301	81.105	133.301	82.043	133.301	80.9718	133.301	82.0048	133.301	80.8361	133.301	81.9536	133.301	80.6987	133.301	81.8899	133.301	80.5623	133.301	81.8109	133.301	80.4324	133.301	81.7111	133.301	80.3168	133.301	81.585	133.301	80.2254	133.301	81.4288	133.301	80.1689	133.301	81.2438	133.301	80.1572	133.301	81.0373	133.301	80.1968	133.301	80.8221	133.301	80.2898	133.301	80.6147	133.301	80.4324
139.16	81.7653	139.16	81.651	139.16	81.8599	139.16	81.5222	139.16	81.9305	139.16	81.3841	139.16	81.9747	139.16	81.2409	139.16	81.9927	139.16	81.0953	139.16	81.9866	139.16	80.9483	139.16	81.9601	139.16	80.8	139.16	81.9172	139.16	80.65	139.16	81.8602	139.16	80.4994	139.16	81.7885	139.16	80.351	139.16	81.6986	139.16	80.2105	139.16	81.5844	139.16	80.0865	139.16	81.4406	139.16	79.9893	139.16	81.2648	139.16	79.9298	139.16	81.0602	139.16	79.9174	139.16	80.8361	139.16	79.9582	139.16	80.6069	139.16	80.0539	139.16	80.3895	139.16	80.2007
143.555	81.7065	143.555	81.587	143.555	81.804	143.555	81.4511	143.555	81.8749	143.555	81.3048	143.555	81.917	143.555	81.1533	143.555	81.9307	143.555	80.9999	143.555	81.9192	143.555	80.8464	143.555	81.8873	143.555	80.6931	143.555	81.84	143.555	80.54	143.555	81.7803	143.555	80.3881	143.555	81.7081	143.555	80.2401	143.555	81.6192	143.555	80.1016	143.555	81.5069	143.555	79.9805	143.555	81.3646	143.555	79.8871	143.555	81.1892	143.555	79.8315	143.555	80.9836	143.555	79.8229	143.555	80.7575	143.555	79.867	143.555	80.5257	143.555	79.9654	143.555	80.3058	143.555	80.1146
147.949	81.6569	147.949	81.5264	147.949	81.7613	147.949	81.3758	147.949	81.8348	147.949	81.2119	147.949	81.8754	147.949	81.0401	147.949	81.8836	147.949	80.865	147.949	81.8634	147.949	80.6891	147.949	81.8205	147.949	80.514	147.949	81.7614	147.949	80.3411	147.949	81.6906	147.949	80.1725	147.949	81.609	147.949	80.0124	147.949	81.513	147.949	79.8676	147.949	81.3959	147.949	79.7469	147.949	81.2505	147.949	79.6604	147.949	81.0729	147.949	79.6176	147.949	80.865	147.949	79.6256	147.949	80.6354	147.949	79.6878	147.949	80.3982	147.949	79.8035	147.949	80.1701	147.949	79.9674
153.809	81.6401	153.809	81.5119	153.809	81.7391	153.809	81.361	153.809	81.8044	153.809	81.1942	153.809	81.834	153.809	81.0174	153.809	81.8291	153.809	80.8353	153.809	81.7941	153.809	80.6506	153.809	81.7356	153.809	80.4647	153.809	81.6608	153.809	80.2784	153.809	81.5752	153.809	80.0937	153.809	81.4801	153.809	79.9147	153.809	81.3717	153.809	79.7485	153.809	81.243	153.809	79.6051	153.809	81.086	153.809	79.4962	153.809	80.8965	153.809	79.4332	153.809	80.6764	153.809	79.4249	153.809	80.4353	153.809	79.4757	153.809	80.1883	153.809	79.5851	153.809	79.9534	153.809	79.7477
159.668	81.7385	159.668	81.5927	159.668	81.8522	159.668	81.4221	159.668	81.9284	159.668	81.2349	159.668	81.9649	159.668	81.0388	159.668	81.9632	159.668	80.8396	159.668	81.9281	159.668	80.6412	159.668	81.8671	159.668	80.4459	159.668	81.7883	159.668	80.2551	159.668	81.6976	159.668	80.0708	159.668	81.597	159.668	79.8969	159.668	81.4833	159.668	79.7399	159.668	81.3494	159.668	79.6091	159.668	81.1878	159.668	79.5149	159.668	80.994	159.668	79.4674	159.668	80.7703	159.668	79.4737	159.668	80.526	159.668	79.5372	159.668	80.2758	159.668	79.6566	159.668	80.0372	159.668	79.8264
165.527	81.877	165.527	81.7424	165.527	81.979	165.527	81.5818	165.527	82.0441	165.527	81.403	165.527	82.0709	165.527	81.2132	165.527	82.062	165.527	81.0189	165.527	82.0233	165.527	80.8245	165.527	81.9632	165.527	80.6331	165.527	81.8907	165.527	80.4471	165.527	81.8126	165.527	80.2693	165.527	81.7309	165.527	80.1046	165.527	81.642	165.527	79.9598	165.527	81.5379	165.527	79.8445	165.527	81.409	165.527	79.7689	165.527	81.249	165.527	79.7423	165.527	81.0573	165.527	79.7705	165.527	80.8401	165.527	79.8545	165.527	80.6095	165.527	79.9902	165.527	80.3807	165.527	80.1695
171.387	81.8929	171.387	81.7592	171.387	81.9896	171.387	81.5965	171.387	82.0434	171.387	81.4139	171.387	82.0519	171.387	81.2198	171.387	82.0173	171.387	81.0212	171.387	81.9462	171.387	80.8231	171.387	81.8489	171.387	80.629	171.387	81.7377	171.387	80.4419	171.387	81.6235	171.387	80.2652	171.387	81.5123	171.387	80.1043	171.387	81.4037	171.387	79.9665	171.387	81.2918	171.387	79.8608	171.387	81.1681	171.387	79.7957	171.387	81.0262	171.387	79.7775	171.387	80.8644	171.387	79.8081	171.387	80.6868	171.387	79.8849	171.387	80.5018	171.387	80.0014	171.387	80.3192	171.387	80.1492
177.246	81.9028	177.246	81.7613	177.246	82.0001	177.246	81.5837	177.246	82.0474	177.246	81.3794	177.246	82.0427	177.246	81.1571	177.246	81.9883	177.246	80.9243	177.246	81.8909	177.246	80.6868	177.246	81.7606	177.246	80.4492	177.246	81.6092	177.246	80.216	177.246	81.4476	177.246	79.9931	177.246	81.2828	177.246	79.7889	177.246	81.1173	177.246	79.6144	177.246	80.9498	177.246	79.4818	177.246	80.7778	177.246	79.4012	177.246	80.6004	177.246	79.3777	177.246	80.4195	177.246	79.4096	177.246	80.2393	177.246	79.4886	177.246	80.0641	177.246	79.603	177.246	79.8972	177.246	79.7419
183.105	81.5938	183.105	81.4509	183.105	81.691	183.105	81.2713	183.105	81.7373	183.105	81.066	183.105	81.7321	183.105	80.8459	183.105	81.6805	183.105	80.6206	183.105	81.5926	183.105	80.397	183.105	81.4815	183.105	80.1793	183.105	81.361	183.105	79.9699	183.105	81.2406	183.105	79.7714	183.105	81.1227	183.105	79.5881	183.105	81.0018	183.105	79.4274	183.105	80.8672	183.105	79.2993	183.105	80.7093	183.105	79.214	183.105	80.5245	183.105	79.1794	183.105	80.318	183.105	79.1978	183.105	80.1018	183.105	79.2656	183.105	79.8897	183.105	79.3756	183.105	79.6933	183.105	79.5202
188.965	81.5803	188.965	81.4245	188.965	81.6867	188.965	81.2285	188.965	81.7376	188.965	81.0031	188.965	81.7308	188.965	80.7587	188.965	81.6697	188.965	80.5049	188.965	81.5626	188.965	80.2489	188.965	81.4229	188.965	79.9964	188.965	81.2671	188.965	79.7529	188.965	81.111	188.965	79.5252	188.965	80.9654	188.965	79.323	188.965	80.8326	188.965	79.1588	188.965	80.707	188.965	79.046	188.965	80.5782	188.965	78.9954	188.965	80.437	188.965	79.0109	188.965	80.2791	188.965	79.0875	188.965	80.1059	188.965	79.2128	188.965	79.9226	188.965	79.3713	188.965	79.7349	188.965	79.5488
196.289	81.8238	196.289	81.672	196.289	81.9228	196.289	81.4761	196.289	81.9637	196.289	81.2468	196.289	81.9455	196.289	80.9954	196.289	81.8726	196.289	80.732	196.289	81.754	196.289	80.4647	196.289	81.603	196.289	80.1992	196.289	81.4344	196.289	79.9394	196.289	81.2604	196.289	79.6894	196.289	81.087	196.289	79.4557	196.289	80.9128	196.289	79.2482	196.289	80.7313	196.289	79.0808	196.289	80.5365	196.289	78.9682	196.289	80.3272	196.289	78.9211	196.289	80.1088	196.289	78.9416	196.289	79.8905	196.289	79.0219	196.289	79.6808	196.289	79.1481	196.289	79.4849	196.289	79.3057
203.613	81.8001	203.613	81.6447	203.613	81.8977	203.613	81.4424	203.613	81.9297	203.613	81.2059	203.613	81.8929	203.613	80.9481	203.613	81.7895	203.613	80.6803	203.613	81.6278	203.613	80.4114	203.613	81.4224	203.613	80.1477	203.613	81.1922	203.613	79.8936	203.613	80.9566	203.613	79.654	203.613	80.7308	203.613	79.4356	203.613	80.5218	203.613	79.2483	203.613	80.3291	203.613	79.1042	203.613	80.1489	203.613	79.0141	203.613	79.9787	203.613	78.9836	203.613	79.8195	203.613	79.0096	203.613	79.6731	203.613	79.0804	203.613	79.5391	203.613	79.1799	203.613	79.4138	203.613	79.2938
210.938	81.9084	210.938	81.734	210.938	82.0268	210.938	81.5131	210.938	82.0821	210.938	81.2563	210.938	82.0707	210.938	80.9741	210.938	81.9941	210.938	80.6762	210.938	81.8594	210.938	80.3703	210.938	81.6793	210.938	80.0626	210.938	81.4703	210.938	79.7593	210.938	81.248	210.938	79.4681	210.938	81.0225	210.938	79.2002	210.938	80.7951	210.938	78.9706	210.938	80.5611	210.938	78.7953	210.938	80.3154	210.938	78.6877	210.938	80.0599	210.938	78.6526	210.938	79.8054	210.938	78.6839	210.938	79.5674	210.938	78.7665	210.938	79.3572	210.938	78.8828	210.938	79.1768	210.938	79.0204
218.262	81.8539	218.262	81.6691	218.262	81.9848	218.262	81.4422	218.262	82.0522	218.262	81.1852	218.262	82.0505	218.262	80.9086	218.262	81.98	218.262	80.6208	218.262	81.848	218.262	80.3277	218.262	81.6686	218.262	80.0329	218.262	81.4603	218.262	79.7404	218.262	81.2413	218.262	79.4565	218.262	81.0241	218.262	79.192	218.262	80.812	218.262	78.963	218.262	80.6004	218.262	78.7887	218.262	80.3827	218.262	78.6855	218.262	80.1564	218.262	78.6611	218.262	79.9268	218.262	78.7105	218.262	79.7036	218.262	78.8171	218.262	79.4949	218.262	78.9606	218.262	79.3028	218.262	79.1249
225.586	81.8912	225.586	81.7035	225.586	82.0132	225.586	81.4628	225.586	82.0604	225.586	81.1835	225.586	82.0289	225.586	80.8802	225.586	81.9217	225.586	80.566	225.586	81.7494	225.586	80.2515	225.586	81.5298	225.586	79.9453	225.586	81.2862	225.586	79.6551	225.586	81.0419	225.586	79.3898	225.586	80.8153	225.586	79.1614	225.586	80.6147	225.586	78.985	225.586	80.4393	225.586	78.8762	225.586	80.2833	225.586	78.846	225.586	80.1413	225.586	78.8945	225.586	80.0106	225.586	79.0086	225.586	79.8882	225.586	79.1639	225.586	79.7678	225.586	79.3334	225.586	79.6398	225.586	79.4955
232.91	82.2102	232.91	82.0321	232.91	82.3158	232.91	81.7931	232.91	82.3397	232.91	81.5057	232.91	82.2774	232.91	81.182	232.91	82.13	232.91	80.8326	232.91	81.906	232.91	80.4666	232.91	81.6211	232.91	80.0928	232.91	81.2967	232.91	79.722	232.91	80.9566	232.91	79.37	232.91	80.6224	232.91	79.0595	232.91	80.311	232.91	78.8184	232.91	80.0356	232.91	78.6733	232.91	79.8086	232.91	78.6393	232.91	79.6416	232.91	78.7103	232.91	79.5387	232.91	78.8578	232.91	79.4883	232.91	79.0392	232.91	79.4617	232.91	79.2113	232.91	79.4228	232.91	79.343
241.699	82.3301	241.699	82.126	241.699	82.4703	241.699	81.8752	241.699	82.5315	241.699	81.594	241.699	82.5039	241.699	81.295	241.699	82.3849	241.699	80.9854	241.699	82.1814	241.699	80.6667	241.699	81.9083	241.699	80.3368	241.699	81.5862	241.699	79.9937	241.699	81.2355	241.699	79.6404	241.699	80.8697	241.699	79.2899	241.699	80.4931	241.699	78.9669	241.699	80.106	241.699	78.7053	241.699	79.7173	241.699	78.5364	241.699	79.3547	241.699	78.4735	241.699	79.0613	241.699	78.5014	241.699	78.8705	241.699	78.5803	241.699	78.7794	241.699	78.6633	241.699	78.7466	241.699	78.719
250.488	82.1328	250.488	81.8704	250.488	82.3191	250.488	81.5538	250.488	82.4129	250.488	81.2071	250.488	82.4055	250.488	80.8531	250.488	82.2978	250.488	80.5097	250.488	82.1003	250.488	80.1867	250.488	81.8322	250.488	79.8858	250.488	81.5167	250.488	79.603	250.488	81.1753	250.488	79.3338	250.488	80.8215	250.488	79.0793	250.488	80.4587	250.488	78.8499	250.488	80.0853	250.488	78.6647	250.488	79.7063	250.488	78.5441	250.488	79.344	250.488	78.4977	250.488	79.0376	250.488	78.5152	250.488	78.824	250.488	78.5672	250.488	78.7111	250.488	78.6193	250.488	78.6693	250.488	78.6509
259.277	82.8377	259.277	82.6254	259.277	82.9567	259.277	82.3333	259.277	82.9762	259.277	81.9797	259.277	82.898	259.277	81.5848	259.277	82.7325	259.277	81.1678	259.277	82.4965	259.277	80.7441	259.277	82.2105	259.277	80.324	259.277	81.8946	259.277	79.9136	259.277	81.5638	259.277	79.5185	259.277	81.2225	259.277	79.1485	259.277	80.8639	259.277	78.8219	259.277	80.4754	259.277	78.5642	259.277	80.0527	259.277	78.4001	259.277	79.6148	259.277	78.3388	259.277	79.2091	259.277	78.3624	259.277	78.893	259.277	78.431	259.277	78.6974	259.277	78.5018	259.277	78.6024	259.277	78.5537
268.066	82.4742	268.066	82.2454	268.066	82.6267	268.066	81.9538	268.066	82.6945	268.066	81.6169	268.066	82.6747	268.066	81.2541	268.066	82.5698	268.066	80.8848	268.066	82.3886	268.066	80.5257	268.066	82.1452	268.066	80.1884	268.066	81.8576	268.066	79.8798	268.066	81.544	268.066	79.603	268.066	81.2172	268.066	79.3609	268.066	80.882	268.066	79.1595	268.066	80.5378	268.066	79.0088	268.066	80.1863	268.066	78.9188	268.066	79.8416	268.066	78.8914	268.066	79.5329	268.066	78.9136	268.066	79.2944	268.066	78.9598	268.066	79.1442	268.066	79.0037	268.066	79.0698	268.066	79.0351
276.855	82.4452	276.855	82.2261	276.855	82.577	276.855	81.9309	276.855	82.6137	276.855	81.5725	276.855	82.5531	276.855	81.1636	276.855	82.4011	276.855	80.7172	276.855	82.1717	276.855	80.2468	276.855	81.8856	276.855	79.7682	276.855	81.5672	276.855	79.3009	276.855	81.2373	276.855	78.8688	276.855	80.9068	276.855	78.4999	276.855	80.5734	276.855	78.2235	276.855	80.2275	276.855	78.0641	276.855	79.8661	276.855	78.0316	276.855	79.5072	276.855	78.1116	276.855	79.1902	276.855	78.2646	276.855	78.9563	276.855	78.4374	276.855	78.8177	276.855	78.5833	276.855	78.7439	276.855	78.6809
287.109	82.3728	287.109	82.1657	287.109	82.4948	287.109	81.8846	287.109	82.5267	287.109	81.5443	287.109	82.4695	287.109	81.1608	287.109	82.3309	287.109	80.7483	287.109	82.1248	287.109	80.317	287.109	81.8707	287.109	79.8736	287.109	81.5898	287.109	79.4247	287.109	81.2986	287.109	78.9825	287.109	81.0021	287.109	78.5704	287.109	80.6931	287.109	78.225	287.109	80.3607	287.109	77.9895	287.109	80.003	287.109	77.8949	287.109	79.6381	287.109	77.9403	287.109	79.3027	287.109	78.0876	287.109	79.0344	287.109	78.2776	287.109	78.8469	287.109	78.4572	287.109	78.7174	287.109	78.6005
297.363	82.6481	297.363	82.4377	297.363	82.7503	297.363	82.1343	297.363	82.734	297.363	81.7562	297.363	82.5965	297.363	81.3233	297.363	82.3466	297.363	80.8539	297.363	82.008	297.363	80.3628	297.363	81.619	297.363	79.8602	297.363	81.2258	297.363	79.354	297.363	80.868	297.363	78.8563	297.363	80.5615	297.363	78.3917	297.363	80.2936	297.363	78.0042	297.363	80.0356	297.363	77.7527	297.363	79.769	297.363	77.6879	297.363	79.5061	297.363	77.8179	297.363	79.2867	297.363	78.0912	297.363	79.1456	297.363	78.4176	297.363	79.0749	297.363	78.7091	297.363	79.0196	297.363	78.9116
307.617	83.0833	307.617	82.9011	307.617	83.1723	307.617	82.6372	307.617	83.1591	307.617	82.3024	307.617	83.0411	307.617	81.9049	307.617	82.8259	307.617	81.4509	307.617	82.5317	307.617	80.9453	307.617	82.1848	307.617	80.394	307.617	81.8107	307.617	79.8064	307.617	81.4246	307.617	79.1981	307.617	81.0242	307.617	78.5963	307.617	80.5954	307.617	78.0459	307.617	80.1294	307.617	77.6115	307.617	79.6436	307.617	77.364	307.617	79.189	307.617	77.3436	307.617	78.8314	307.617	77.522	307.617	78.609	307.617	77.8071	307.617	78.4977	307.617	78.0913	307.617	78.4221	307.617	78.3012
319.336	82.5403	319.336	82.3149	319.336	82.6718	319.336	82.0219	319.336	82.689	319.336	81.6876	319.336	82.5825	319.336	81.3314	319.336	82.3569	319.336	80.9618	319.336	82.0335	319.336	80.5759	319.336	81.6512	319.336	80.1653	319.336	81.2601	319.336	79.7233	319.336	80.9042	319.336	79.2536	319.336	80.5962	319.336	78.7757	319.336	80.3072	319.336	78.3296	319.336	79.9886	319.336	77.9746	319.336	79.6167	319.336	77.776	319.336	79.2289	319.336	77.7735	319.336	78.9145	319.336	77.9476	319.336	78.748	319.336	78.2178	319.336	78.7141	319.336	78.4799	319.336	78.7165	319.336	78.6539
329.59	82.8306	329.59	82.6082	329.59	82.9538	329.59	82.3066	329.59	82.9641	329.59	81.9478	329.59	82.8581	329.59	81.5505	329.59	82.643	329.59	81.1263	329.59	82.337	329.59	80.6786	329.59	81.9649	329.59	80.2075	329.59	81.5526	329.59	79.7163	329.59	81.1189	329.59	79.2202	329.59	80.6669	329.59	78.7509	329.59	80.1815	329.59	78.3558	329.59	79.6439	329.59	78.0892	329.59	79.0656	329.59	77.9918	329.59	78.5254	329.59	78.0656	329.59	78.1641	329.59	78.2597	329.59	78.0873	329.59	78.4816	329.59	78.2499	329.59	78.6313	329.59	78.4854	329.59	78.6366
341.309	82.4489	341.309	82.2305	341.309	82.5688	341.309	81.937	341.309	82.5756	341.309	81.596	341.309	82.4672	341.309	81.2311	341.309	82.2565	341.309	80.8551	341.309	81.9726	341.309	80.4667	341.309	81.6573	341.309	80.0542	341.309	81.3515	341.309	79.6042	341.309	81.0746	341.309	79.113	341.309	80.8083	341.309	78.5972	341.309	80.5014	341.309	78.1039	341.309	80.0966	341.309	77.7107	341.309	79.567	341.309	77.5026	341.309	78.9527	341.309	77.5176	341.309	78.3787	341.309	77.7043	341.309	78.0098	341.309	77.941	341.309	77.9216	341.309	78.1026	341.309	78.0179	341.309	78.1204
353.027	82.613	353.027	82.3309	353.027	82.7638	353.027	81.9508	353.027	82.7611	353.027	81.5117	353.027	82.5978	353.027	81.0499	353.027	82.2854	353.027	80.589	353.027	81.8575	353.027	80.1335	353.027	81.3702	353.027	79.6717	353.027	80.8926	353.027	79.185	353.027	80.4813	353.027	78.6613	353.027	80.1456	353.027	78.1113	353.027	79.8347	353.027	77.5879	353.027	79.4678	353.027	77.1979	353.027	78.9931	353.027	77.0719	353.027	78.4481	353.027	77.2666	353.027	77.9889	353.027	77.6856	353.027	77.8136	353.027	78.1313	353.027	77.9658	353.027	78.4219	353.027	78.2615	353.027	78.4606
366.211	82.5228	366.211	82.2106	366.211	82.6964	366.211	81.8025	366.211	82.7075	366.211	81.3543	366.211	82.5551	366.211	80.9204	366.211	82.2613	366.211	80.5346	366.211	81.8718	366.211	80.194	366.211	81.4495	366.211	79.8618	366.211	81.0585	366.211	79.4858	366.211	80.733	366.211	79.0208	366.211	80.4471	366.211	78.4471	366.211	80.1164	366.211	77.7874	366.211	79.6384	366.211	77.1269	366.211	78.9454	366.211	76.6179	366.211	78.0617	366.211	76.4154	366.211	77.1654	366.211	76.5394	366.211	76.5771	366.211	76.8212	366.211	76.5007	366.211	77.0273	366.211	76.7595	366.211	77.0047
379.395	83.3612	379.395	83.0616	379.395	83.4986	379.395	82.6367	379.395	83.4516	379.395	82.1354	379.395	83.2146	379.395	81.6112	379.395	82.8026	379.395	81.1104	379.395	82.2593	379.395	80.658	379.395	81.6666	379.395	80.2469	379.395	81.1333	379.395	79.8348	379.395	80.7435	379.395	79.3526	379.395	80.4859	379.395	78.7207	379.395	80.2419	379.395	77.8768	379.395	79.8515	379.395	76.8213	379.395	79.189	379.395	75.696	379.395	78.2129	379.395	74.8392	379.395	77.021	379.395	74.5778	379.395	75.912	379.395	74.8087	379.395	75.2713	379.395	75.1134	379.395	75.158	379.395	75.2161
392.578	83.5194	392.578	83.1007	392.578	83.7465	392.578	82.5414	392.578	83.7498	392.578	81.9148	392.578	83.5115	392.578	81.3088	392.578	83.0327	392.578	80.7994	392.578	82.3496	392.578	80.4165	392.578	81.5635	392.578	80.1328	392.578	80.8601	392.578	79.8854	392.578	80.4446	392.578	79.6049	392.578	80.363	392.578	79.2279	392.578	80.4201	392.578	78.6999	392.578	80.3329	392.578	77.9824	392.578	79.8907	392.578	77.0799	392.578	79.0009	392.578	76.0844	392.578	77.7082	392.578	75.2002	392.578	76.2554	392.578	74.6388	392.578	75.0854	392.578	74.4132	392.578	74.5084	392.578	74.3718
405.762	84.5774	405.762	84.1344	405.762	84.7972	405.762	83.4889	405.762	84.7768	405.762	82.6721	405.762	84.5023	405.762	81.7378	405.762	83.9653	405.762	80.777	405.762	83.1719	405.762	79.9208	405.762	82.1615	405.762	79.3045	405.762	81.0497	405.762	78.9881	405.762	80.0792	405.762	78.9048	405.762	79.5543	405.762	78.903	405.762	79.5534	405.762	78.8311	405.762	79.7961	405.762	78.5879	405.762	79.9207	405.762	78.1357	405.762	79.7091	405.762	77.5031	405.762	79.1006	405.762	76.7887	405.762	78.1664	405.762	76.148	405.762	77.1083	405.762	75.7535	405.762	76.2217	405.762	75.7501
420.41	84.5578	420.41	84.2862	420.41	84.6783	420.41	83.8753	420.41	84.6328	420.41	83.3328	420.41	84.4047	420.41	82.6617	420.41	83.977	420.41	81.8607	420.41	83.3363	420.41	80.9312	420.41	82.4814	420.41	79.8943	420.41	81.448	420.41	78.8201	420.41	80.3544	420.41	77.8572	420.41	79.4285	420.41	77.2109	420.41	78.8992	420.41	77.0108	420.41	78.7687	420.41	77.186	420.41	78.8088	420.41	77.539	420.41	78.8052	420.41	77.9064	420.41	78.6979	420.41	78.21	420.41	78.5577	420.41	78.4226	420.41	78.4841	420.41	78.5329	420.41	78.5015	420.41	78.5451
435.059	83.2472	435.059	82.8637	435.059	83.4831	435.059	82.3771	435.059	83.5368	435.059	81.8401	435.059	83.3837	435.059	81.305	435.059	83.0137	435.059	80.8046	435.059	82.4392	435.059	80.3354	435.059	81.705	435.059	79.8609	435.059	80.8968	435.059	79.3383	435.059	80.1417	435.059	78.7522	435.059	79.5727	435.059	78.1352	435.059	79.2465	435.059	77.5653	435.059	79.0899	435.059	77.1381	435.059	78.9582	435.059	76.9265	435.059	78.7437	435.059	76.9501	435.059	78.4368	435.059	77.1586	435.059	78.1215	435.059	77.4403	435.059	77.9082	435.059	77.6712	435.059	77.8265	435.059	77.7867
451.172	84.0908	451.172	83.6795	451.172	84.2916	451.172	83.0797	451.172	84.2682	451.172	82.3321	451.172	84.0105	451.172	81.5009	451.172	83.5164	451.172	80.6593	451.172	82.7995	451.172	79.8596	451.172	81.8903	451.172	79.1177	451.172	80.8396	451.172	78.4363	451.172	79.7518	451.172	77.8449	451.172	78.8473	451.172	77.4112	451.172	78.4119	451.172	77.2007	451.172	78.4995	451.172	77.2216	451.172	78.8161	451.172	77.4212	451.172	79.043	451.172	77.7298	451.172	79.0694	451.172	78.0861	451.172	78.9722	451.172	78.4265	451.172	78.8849	451.172	78.6835	451.172	78.8558	451.172	78.8178
465.82	84.1729	465.82	83.8257	465.82	84.3091	465.82	83.2907	465.82	84.2171	465.82	82.6008	465.82	83.8941	465.82	81.8081	465.82	83.3625	465.82	80.9833	465.82	82.6683	465.82	80.195	465.82	81.8555	465.82	79.4768	465.82	80.9504	465.82	78.8132	465.82	79.9979	465.82	78.1619	465.82	79.1233	465.82	77.4949	465.82	78.4909	465.82	76.8333	465.82	78.1254	465.82	76.2561	465.82	77.8442	465.82	75.8754	465.82	77.4313	465.82	75.7726	465.82	76.8247	465.82	75.9193	465.82	76.2011	465.82	76.1594	465.82	75.8825	465.82	76.2941	465.82	75.973	465.82	76.207
483.398	83.6517	483.398	83.3711	483.398	83.7195	483.398	82.8829	483.398	83.5929	483.398	82.219	483.398	83.3101	483.398	81.439	483.398	82.915	483.398	80.6201	483.398	82.4294	483.398	79.8308	483.398	81.831	483.398	79.1052	483.398	81.065	483.398	78.4431	483.398	80.0955	483.398	77.839	483.398	78.985	483.398	77.3127	483.398	77.9769	483.398	76.9167	483.398	77.4366	483.398	76.7136	483.398	77.4871	483.398	76.7408	483.398	77.8236	483.398	76.9785	483.398	78.0825	483.398	77.3361	483.398	78.1332	483.398	77.6795	483.398	78.0592	483.398	77.8997	483.398	77.9993	483.398	77.9784
499.512	83.4954	499.512	83.1281	499.512	83.6465	499.512	82.5606	499.512	83.5793	499.512	81.8327	499.512	83.304	499.512	81.0163	499.512	82.844	499.512	80.2091	499.512	82.2353	499.512	79.4976	499.512	81.5191	499.512	78.9077	499.512	80.7347	499.512	78.3932	499.512	79.9179	499.512	77.8792	499.512	79.106	499.512	77.319	499.512	78.3561	499.512	76.7217	499.512	77.7684	499.512	76.1608	499.512	77.458	499.512	75.78	499.512	77.4368	499.512	75.7483	499.512	77.5576	499.512	76.1061	499.512	77.6525	499.512	76.6707	499.512	77.6694	499.512	77.182	499.512	77.6285	499.512	77.4955
517.09	83.6255	517.09	83.2178	517.09	83.8047	517.09	82.6161	517.09	83.7419	517.09	81.8734	517.09	83.4499	517.09	81.0553	517.09	82.9729	517.09	80.2236	517.09	82.3754	517.09	79.4146	517.09	81.7101	517.09	78.6298	517.09	80.988	517.09	77.8498	517.09	80.1817	517.09	77.0657	517.09	79.2654	517.09	76.3138	517.09	78.2778	517.09	75.6923	517.09	77.391	517.09	75.3386	517.09	76.8921	517.09	75.3715	517.09	76.934	517.09	75.8144	517.09	77.3387	517.09	76.5458	517.09	77.8187	517.09	77.34	517.09	78.2007	517.09	77.98	517.09	78.3979	517.09	78.3402
536.133	83.2421	536.133	82.897	536.133	83.2519	536.133	82.2136	536.133	82.9595	536.133	81.2477	536.133	82.4131	536.133	80.1538	536.133	81.6691	536.133	79.1944	536.133	80.7988	536.133	78.6193	536.133	79.9084	536.133	78.4507	536.133	79.1409	536.133	78.4648	536.133	78.6125	536.133	78.3995	536.133	78.3194	536.133	78.1022	536.133	78.1402	536.133	77.555	536.133	77.9404	536.133	76.8647	536.133	77.6596	536.133	76.2605	536.133	77.3281	536.133	76.0414	536.133	77.0623	536.133	76.358	536.133	77.0363	536.133	77.0079	536.133	77.3164	536.133	77.6001	536.133	77.6953	536.133	77.8491
555.176	84.0348	555.176	83.7759	555.176	84.0036	555.176	83.2239	555.176	83.6737	555.176	82.3691	555.176	83.0436	555.176	81.2207	555.176	82.1501	555.176	79.8465	555.176	81.0808	555.176	78.4223	555.176	79.9456	555.176	77.241	555.176	78.8563	555.176	76.5554	555.176	77.9594	555.176	76.3228	555.176	77.3756	555.176	76.2655	555.176	77.0356	555.176	76.1633	555.176	76.7638	555.176	75.984	555.176	76.5234	555.176	75.8728	555.176	76.4375	555.176	76.0738	555.176	76.6062	555.176	76.7002	555.176	77.0149	555.176	77.5271	555.176	77.5782	555.176	78.168	555.176	78.1153	555.176	78.3709
574.219	83.5878	574.219	83.3157	574.219	83.65	574.219	82.838	574.219	83.5098	574.219	82.161	574.219	83.1854	574.219	81.2923	574.219	82.6923	574.219	80.2547	574.219	82.0275	574.219	79.11	574.219	81.1654	574.219	77.9724	574.219	80.0894	574.219	76.9842	574.219	78.8678	574.219	76.2463	574.219	77.708	574.219	75.7945	574.219	76.8729	574.219	75.6429	574.219	76.4891	574.219	75.7587	574.219	76.4753	574.219	76.0285	574.219	76.6175	574.219	76.3417	574.219	76.6806	574.219	76.6595	574.219	76.572	574.219	76.9392	574.219	76.4662	574.219	77.0545	574.219	76.607	574.219	76.9042
594.727	82.91	594.727	82.4799	594.727	83.0613	594.727	81.8197	594.727	82.922	594.727	80.9924	594.727	82.5179	594.727	80.0407	594.727	81.9017	594.727	78.9867	594.727	81.1389	594.727	77.8855	594.727	80.2818	594.727	76.8716	594.727	79.3438	594.727	76.0995	594.727	78.3147	594.727	75.6039	594.727	77.2512	594.727	75.2978	594.727	76.4049	594.727	75.1596	594.727	76.1259	594.727	75.2907	594.727	76.437	594.727	75.7372	594.727	77.0297	594.727	76.3974	594.727	77.7003	594.727	77.1331	594.727	78.3499	594.727	77.8415	594.727	78.8191	594.727	78.436	594.727	78.9834	594.727	78.838
615.234	84.2915	615.234	83.8077	615.234	84.4108	615.234	82.9818	615.234	84.1606	615.234	81.8963	615.234	83.5388	615.234	80.7179	615.234	82.568	615.234	79.6437	615.234	81.318	615.234	78.7712	615.234	79.8975	615.234	78.04	615.234	78.4821	615.234	77.3322	615.234	77.376	615.234	76.5865	615.234	76.7809	615.234	75.796	615.234	76.4064	615.234	75.0109	615.234	75.729	615.234	74.4594	615.234	74.5926	615.234	74.5939	615.234	73.8529	615.234	75.6543	615.234	74.8911	615.234	77.2164	615.234	76.942	615.234	78.666	615.234	78.6788	615.234	79.6489	615.234	79.7121	615.234	80.0201
637.207	84.5828	637.207	84.0832	637.207	84.7459	637.207	83.3062	637.207	84.5313	637.207	82.3217	637.207	83.9587	637.207	81.2149	637.207	83.1337	637.207	80.0599	637.207	82.1324	637.207	78.8806	637.207	80.8477	637.207	77.6812	637.207	79.1404	637.207	76.5563	637.207	77.2245	637.207	75.6779	637.207	75.7984	637.207	75.0564	637.207	75.2708	637.207	74.5398	637.207	75.0804	637.207	74.1852	637.207	74.5735	637.207	74.4265	637.207	73.8962	637.207	75.563	637.207	74.3116	637.207	77.1886	637.207	76.2135	637.207	78.681	637.207	78.2075	637.207	79.6674	637.207	79.5017	637.207	79.9724
659.18	85.0857	659.18	84.6809	659.18	85.0456	659.18	83.8144	659.18	84.6508	659.18	82.5464	659.18	84.0373	659.18	81.0315	659.18	83.2733	659.18	79.4992	659.18	82.2669	659.18	78.1275	659.18	80.8961	659.18	76.8821	659.18	79.2537	659.18	75.6198	659.18	77.7764	659.18	74.4246	659.18	76.9844	659.18	73.6622	659.18	76.7374	659.18	73.5175	659.18	76.3074	659.18	73.7846	659.18	75.113	659.18	74.3733	659.18	72.8518	659.18	75.4836	659.18	70.4879	659.18	77.0561	659.18	72.4491	659.18	78.5837	659.18	76.1786	659.18	79.5568	659.18	78.5984	659.18	79.6435
682.617	84.9437	682.617	84.6336	682.617	84.88	682.617	83.9153	682.617	84.4908	682.617	82.8139	682.617	83.8308	682.617	81.4921	682.617	82.9514	682.617	80.2527	682.617	81.8532	682.617	79.2856	682.617	80.4621	682.617	78.4184	682.617	78.7457	682.617	77.3714	682.617	77.0066	682.617	76.1782	682.617	75.9974	682.617	75.2204	682.617	76.0554	682.617	74.6382	682.617	76.495	682.617	74.2154	682.617	76.343	682.617	74.1209	682.617	74.7949	682.617	74.8872	682.617	72.0591	682.617	76.4656	682.617	72.7758	682.617	78.1029	682.617	76.1794	682.617	79.1546	682.617	78.3893	682.617	79.3062
707.52	84.9266	707.52	84.8093	707.52	84.677	707.52	84.2561	707.52	84.2195	707.52	83.2977	707.52	83.6894	707.52	82.0265	707.52	83.0743	707.52	80.6009	707.52	82.2472	707.52	79.3009	707.52	81.0619	707.52	78.3777	707.52	79.3637	707.52	77.6058	707.52	77.022	707.52	76.4231	707.52	74.4252	707.52	74.9172	707.52	74.0204	707.52	74.2487	707.52	76.1076	707.52	74.5091	707.52	77.2396	707.52	74.7484	707.52	76.1679	707.52	75.3322	707.52	73.5305	707.52	76.9515	707.52	73.872	707.52	78.8018	707.52	76.6748	707.52	79.8864	707.52	78.7597	707.52	79.8646
732.422	84.5354	732.422	84.4553	732.422	84.2554	732.422	83.9019	732.422	83.7356	732.422	82.8635	732.422	83.1331	732.422	81.5809	732.422	82.6434	732.422	80.5313	732.422	82.236	732.422	79.9292	732.422	81.4996	732.422	79.3579	732.422	79.9792	732.422	78.3917	732.422	77.5198	732.422	77.13	732.422	74.5919	732.422	75.8198	732.422	73.0519	732.422	74.4513	732.422	74.1835	732.422	73.2994	732.422	75.663	732.422	73.0488	732.422	75.4855	732.422	73.7925	732.422	72.0281	732.422	75.3491	732.422	64.4868	732.422	77.4139	732.422	73.4236	732.422	79.0169	732.422	77.8936	732.422	79.3668
757.324	84.2385	757.324	84.6171	757.324	83.9087	757.324	84.6816	757.324	83.7004	757.324	84.1357	757.324	83.3647	757.324	82.8374	757.324	82.6938	757.324	80.7836	757.324	81.6743	757.324	78.579	757.324	80.4361	757.324	77.5233	757.324	79.0505	757.324	77.0084	757.324	77.2788	757.324	75.7839	757.324	74.8934	757.324	74.3593	757.324	73.2927	757.324	73.9689	757.324	74.919	757.324	74.521	757.324	76.7076	757.324	75.4468	757.324	76.2347	757.324	76.6184	757.324	72.165	757.324	77.6844	757.324	63.0885	757.324	78.4423	757.324	72.2406	757.324	78.8251	757.324	76.7316	757.324	78.4741
785.156	84.6527	785.156	84.167	785.156	84.4648	785.156	83.6872	785.156	83.328	785.156	83.5604	785.156	81.7293	785.156	83.4141	785.156	80.8772	785.156	82.7287	785.156	81.0933	785.156	81.416	785.156	81.3203	785.156	80.1276	785.156	80.6998	785.156	79.2689	785.156	78.8314	785.156	77.9443	785.156	75.4202	785.156	75.4197	785.156	70.2815	785.156	71.8687	785.156	71.076	785.156	70.5717	785.156	75.7618	785.156	72.8666	785.156	77.3643	785.156	75.0988	785.156	75.7837	785.156	77.085	785.156	70.8205	785.156	78.5649	785.156	71.7542	785.156	79.1624	785.156	76.493	785.156	78.6346
811.523	84.0006	811.523	84.815	811.523	82.924	811.523	84.8557	811.523	82.4696	811.523	83.9693	811.523	82.5109	811.523	82.0463	811.523	82.0739	811.523	79.2018	811.523	80.8558	811.523	76.8414	811.523	79.221	811.523	76.7939	811.523	77.5583	811.523	77.326	811.523	76.1124	811.523	76.8749	811.523	74.2206	811.523	75.0775	811.523	68.4274	811.523	71.9167	811.523	65.2432	811.523	68.0595	811.523	74.9231	811.523	67.9913	811.523	77.9857	811.523	71.6295	811.523	77.8011	811.523	74.4139	811.523	73.7236	811.523	76.5894	811.523	53.5418	811.523	77.9675	811.523	73.1654	811.523	77.4186
840.82	84.5576	840.82	84.758	840.82	84.0001	840.82	84.526	840.82	83.1987	840.82	83.8964	840.82	82.3261	840.82	82.9798	840.82	81.5071	840.82	81.7175	840.82	80.7701	840.82	79.9515	840.82	80.2664	840.82	78.2231	840.82	80.0613	840.82	77.7578	840.82	79.7516	840.82	77.8334	840.82	78.5119	840.82	77.389	840.82	75.3783	840.82	76.6041	840.82	70.1281	840.82	75.4968	840.82	71.6778	840.82	73.2041	840.82	75.7801	840.82	70.5082	840.82	77.0106	840.82	72.4167	840.82	74.6628	840.82	75.1555	840.82	65.0531	840.82	76.0109	840.82	68.7025	840.82	74.5517
870.117	84.6074	870.117	84.7701	870.117	84.2737	870.117	84.6717	870.117	83.883	870.117	84.0929	870.117	83.5008	870.117	82.8352	870.117	82.8709	870.117	80.9455	870.117	81.7177	870.117	78.7748	870.117	80.1014	870.117	77.2488	870.117	78.3686	870.117	77.447	870.117	77.0693	870.117	78.2896	870.117	76.473	870.117	78.4797	870.117	75.5028	870.117	78.2937	870.117	71.9252	870.117	77.9132	870.117	67.9763	870.117	76.2582	870.117	74.0499	870.117	73.3551	870.117	76.3167	870.117	73.1105	870.117	74.3101	870.117	74.1677	870.117	65.461	870.117	74.0668	870.117	67.5543	870.117	72.7342
900.879	85.6061	900.879	86.1475	900.879	84.2813	900.879	85.4645	900.879	83.3842	900.879	83.7287	900.879	83.427	900.879	81.8846	900.879	83.3286	900.879	81.0429	900.879	82.3679	900.879	80.4421	900.879	80.582	900.879	78.685	900.879	78.8126	900.879	75.6877	900.879	78.3105	900.879	73.5019	900.879	78.5302	900.879	72.9363	900.879	77.8287	900.879	72.5447	900.879	76.2524	900.879	72.7463	900.879	74.1937	900.879	74.5447	900.879	70.5012	900.879	74.572	900.879	73.0514	900.879	74.3761	900.879	76.7611	900.879	77.0696	900.879	76.2046	900.879	77.7167	900.879	71.3697	900.879	74.1608
933.105	84.6846	933.105	84.5901	933.105	85.5712	933.105	85.0157	933.105	85.7528	933.105	84.728	933.105	84.2971	933.105	83.0955	933.105	81.2393	933.105	79.5786	933.105	77.8701	933.105	74.6103	933.105	76.6688	933.105	74.7243	933.105	76.7513	933.105	77.4905	933.105	75.7232	933.105	79.3311	933.105	73.6852	933.105	80.3213	933.105	72.717	933.105	80.2887	933.105	71.8447	933.105	79.5324	933.105	72.7017	933.105	78.5935	933.105	76.5596	933.105	76.107	933.105	77.6128	933.105	71.7374	933.105	74.9422	933.105	71.2213	933.105	71.865	933.105	72.7951	933.105	74.7302	933.105	74.962
965.332	86.5706	965.332	85.9148	965.332	85.5428	965.332	84.3353	965.332	83.4315	965.332	83.5097	965.332	83.1429	965.332	83.7679	965.332	83.8094	965.332	83.5569	965.332	83.0354	965.332	82.1532	965.332	81.051	965.332	79.725	965.332	78.696	965.332	77.0883	965.332	76.3995	965.332	74.9692	965.332	74.417	965.332	73.9263	965.332	73.9131	965.332	74.2206	965.332	74.5914	965.332	74.0746	965.332	74.0487	965.332	73.9071	965.332	74.2213	965.332	74.2139	965.332	76.4384	965.332	73.7813	965.332	76.1135	965.332	73.9255	965.332	72.039	965.332	75.1241	965.332	70.7976	965.332	74.4594
1,000.49	85.6095	1,000.49	86.0881	1,000.49	84.5074	1,000.49	85.4911	1,000.49	84.0795	1,000.49	83.9927	1,000.49	84.0333	1,000.49	82.0266	1,000.49	82.9008	1,000.49	80.5672	1,000.49	80.7826	1,000.49	79.7999	1,000.49	79.3124	1,000.49	78.3663	1,000.49	78.4452	1,000.49	76.1953	1,000.49	77.082	1,000.49	75.5523	1,000.49	75.6868	1,000.49	76.8464	1,000.49	73.3565	1,000.49	77.796	1,000.49	68.5323	1,000.49	77.0563	1,000.49	66.7091	1,000.49	75.1208	1,000.49	72.2962	1,000.49	74.1355	1,000.49	76.8263	1,000.49	72.7545	1,000.49	76.5865	1,000.49	71.944	1,000.49	71.3394	1,000.49	74.0596	1,000.49	72.9267	1,000.49	75.3917
1,035.64	85.0465	1,035.64	85.4771	1,035.64	84.2278	1,035.64	85.1222	1,035.64	83.7274	1,035.64	84.0814	1,035.64	83.1265	1,035.64	82.5168	1,035.64	82.1625	1,035.64	80.8799	1,035.64	81.5602	1,035.64	79.4864	1,035.64	81.1173	1,035.64	77.295	1,035.64	79.7797	1,035.64	72.8573	1,035.64	77.587	1,035.64	68.3166	1,035.64	76.7034	1,035.64	67.9315	1,035.64	76.9948	1,035.64	70.4814	1,035.64	76.7976	1,035.64	72.8572	1,035.64	75.2785	1,035.64	71.9441	1,035.64	69.7709	1,035.64	70.8603	1,035.64	71.0435	1,035.64	73.2146	1,035.64	73.9524	1,035.64	75.4073	1,035.64	71.6721	1,035.64	75.6114	1,035.64	68.5473	1,035.64	72.9196
1,072.27	84.0478	1,072.27	84.8712	1,072.27	83.578	1,072.27	84.9362	1,072.27	83.7618	1,072.27	83.7135	1,072.27	83.4565	1,072.27	81.376	1,072.27	82.087	1,072.27	79.5418	1,072.27	80.6226	1,072.27	79.7178	1,072.27	79.847	1,072.27	80.0743	1,072.27	78.8179	1,072.27	79.3821	1,072.27	77.3175	1,072.27	78.5604	1,072.27	75.1805	1,072.27	77.4329	1,072.27	72.9352	1,072.27	72.9634	1,072.27	69.8369	1,072.27	69.3944	1,072.27	70.6595	1,072.27	72.669	1,072.27	73.9452	1,072.27	72.3681	1,072.27	75.5054	1,072.27	72.9764	1,072.27	74.4292	1,072.27	74.1366	1,072.27	69.561	1,072.27	73.6885	1,072.27	72.0402	1,072.27	72.9993
1,108.89	84.2656	1,108.89	83.9842	1,108.89	83.2102	1,108.89	83.1312	1,108.89	82.1704	1,108.89	82.6035	1,108.89	82.3665	1,108.89	81.8801	1,108.89	81.9256	1,108.89	80.3225	1,108.89	81.1104	1,108.89	78.4179	1,108.89	80.6992	1,108.89	77.5742	1,108.89	80.1226	1,108.89	75.9164	1,108.89	78.6428	1,108.89	73.4332	1,108.89	75.5021	1,108.89	74.4307	1,108.89	73.8312	1,108.89	73.3702	1,108.89	76.1833	1,108.89	68.9768	1,108.89	75.6756	1,108.89	68.395	1,108.89	71.6315	1,108.89	68.9213	1,108.89	75.392	1,108.89	66.7389	1,108.89	76.5767	1,108.89	70.9932	1,108.89	71.8932	1,108.89	73.806	1,108.89	66.5521	1,108.89	73.026
1,148.44	83.4496	1,148.44	84.0534	1,148.44	83.2987	1,148.44	84.1266	1,148.44	83.1788	1,148.44	83.1371	1,148.44	82.387	1,148.44	81.2326	1,148.44	82.2135	1,148.44	78.8802	1,148.44	82.3658	1,148.44	76.6101	1,148.44	81.3672	1,148.44	76.1038	1,148.44	79.4758	1,148.44	75.5874	1,148.44	77.5908	1,148.44	72.7891	1,148.44	75.2677	1,148.44	70.9781	1,148.44	71.3176	1,148.44	72.0892	1,148.44	70.6365	1,148.44	71.4666	1,148.44	70.5411	1,148.44	70.5872	1,148.44	71.2353	1,148.44	72.6392	1,148.44	76.7266	1,148.44	72.1442	1,148.44	76.4461	1,148.44	71.3816	1,148.44	71.8232	1,148.44	72.7622	1,148.44	70.2797	1,148.44	72.9027
1,189.45	83.3256	1,189.45	84.1044	1,189.45	83.598	1,189.45	83.8396	1,189.45	84.1256	1,189.45	82.1837	1,189.45	83.1676	1,189.45	80.6821	1,189.45	82.3089	1,189.45	80.5292	1,189.45	81.9366	1,189.45	79.3092	1,189.45	80.9755	1,189.45	74.8317	1,189.45	80.0487	1,189.45	69.7927	1,189.45	78.966	1,189.45	68.1859	1,189.45	76.2674	1,189.45	66.46	1,189.45	69.5634	1,189.45	67.8977	1,189.45	68.767	1,189.45	68.4049	1,189.45	75.1891	1,189.45	70.452	1,189.45	73.1871	1,189.45	71.5667	1,189.45	73.4928	1,189.45	71.8778	1,189.45	74.99	1,189.45	73.8193	1,189.45	74.2856	1,189.45	75.5783	1,189.45	71.591	1,189.45	71.4386
1,230.47	83.994	1,230.47	83.9494	1,230.47	83.5911	1,230.47	83.6563	1,230.47	83.2955	1,230.47	83.0405	1,230.47	83.5506	1,230.47	82.0215	1,230.47	83.5247	1,230.47	80.8852	1,230.47	82.6856	1,230.47	79.0751	1,230.47	81.4857	1,230.47	75.4202	1,230.47	80.6833	1,230.47	71.146	1,230.47	79.5882	1,230.47	70.3905	1,230.47	77.044	1,230.47	69.8211	1,230.47	73.4545	1,230.47	69.2999	1,230.47	71.108	1,230.47	73.5278	1,230.47	67.7816	1,230.47	76.2986	1,230.47	67.0058	1,230.47	75.8655	1,230.47	73.3915	1,230.47	73.3464	1,230.47	74.6034	1,230.47	71.1541	1,230.47	71.454	1,230.47	71.8923	1,230.47	70.7409	1,230.47	72.0283
1,274.41	84.6743	1,274.41	84.4759	1,274.41	84.5509	1,274.41	84.4618	1,274.41	83.7863	1,274.41	83.9887	1,274.41	83.7922	1,274.41	82.5389	1,274.41	83.6965	1,274.41	80.0154	1,274.41	82.2195	1,274.41	78.3597	1,274.41	80.5558	1,274.41	77.6287	1,274.41	80.33	1,274.41	74.6067	1,274.41	80.6904	1,274.41	70.1239	1,274.41	79.3359	1,274.41	69.9668	1,274.41	75.7411	1,274.41	68.2486	1,274.41	68.5304	1,274.41	71.0708	1,274.41	71.0694	1,274.41	70.2672	1,274.41	73.4486	1,274.41	72.1379	1,274.41	72.0981	1,274.41	73.0379	1,274.41	73.029	1,274.41	73.5912	1,274.41	75.9987	1,274.41	74.6139	1,274.41	74.0688	1,274.41	69.4384
1,319.82	85.2787	1,319.82	85.1481	1,319.82	84.7509	1,319.82	84.672	1,319.82	84.2658	1,319.82	83.7278	1,319.82	84.1929	1,319.82	81.9157	1,319.82	84.0304	1,319.82	79.921	1,319.82	83.0049	1,319.82	79.5054	1,319.82	80.8651	1,319.82	78.0923	1,319.82	78.7265	1,319.82	74.1519	1,319.82	77.7447	1,319.82	69.6355	1,319.82	77.345	1,319.82	66.6822	1,319.82	76.0253	1,319.82	64.8931	1,319.82	73.0089	1,319.82	67.2493	1,319.82	68.6091	1,319.82	71.4947	1,319.82	68.9945	1,319.82	76.7835	1,319.82	73.09	1,319.82	74.4579	1,319.82	74.9362	1,319.82	69.061	1,319.82	71.4623	1,319.82	68.9624	1,319.82	73.4044	1,319.82	72.5388
1,366.7	85.3919	1,366.7	85.5962	1,366.7	84.9586	1,366.7	85.1434	1,366.7	85.39	1,366.7	84.3861	1,366.7	85.2986	1,366.7	84.0895	1,366.7	84.1015	1,366.7	83.5543	1,366.7	83.3404	1,366.7	81.2703	1,366.7	82.737	1,366.7	78.0128	1,366.7	80.5155	1,366.7	78.172	1,366.7	78.4139	1,366.7	77.0413	1,366.7	77.7661	1,366.7	71.8372	1,366.7	74.7072	1,366.7	68.2056	1,366.7	70.7178	1,366.7	66.5844	1,366.7	69.2276	1,366.7	73.622	1,366.7	69.3858	1,366.7	76.392	1,366.7	73.9852	1,366.7	73.5965	1,366.7	75.6697	1,366.7	69.8604	1,366.7	75.7342	1,366.7	74.2589	1,366.7	72.8476	1,366.7	72.3101
1,413.57	85.6501	1,413.57	86.0613	1,413.57	85.3831	1,413.57	85.2897	1,413.57	85.5306	1,413.57	84.3145	1,413.57	84.7779	1,413.57	84.2187	1,413.57	83.9655	1,413.57	82.7408	1,413.57	82.4561	1,413.57	79.3342	1,413.57	79.8348	1,413.57	79.0516	1,413.57	76.5387	1,413.57	80.3048	1,413.57	73.6679	1,413.57	78.9953	1,413.57	74.357	1,413.57	75.0732	1,413.57	75.0755	1,413.57	71.172	1,413.57	72.8651	1,413.57	67.0791	1,413.57	69.2461	1,413.57	66.0953	1,413.57	71.9415	1,413.57	75.9696	1,413.57	73.3854	1,413.57	76.2758	1,413.57	75.4095	1,413.57	70.9416	1,413.57	74.3425	1,413.57	72.5903	1,413.57	73.2309	1,413.57	73.5121
1,463.38	84.778	1,463.38	85.2023	1,463.38	85.3693	1,463.38	85.1028	1,463.38	85.4357	1,463.38	84.513	1,463.38	85.0544	1,463.38	83.4534	1,463.38	84.1452	1,463.38	80.6332	1,463.38	82.1605	1,463.38	78.1223	1,463.38	80.6076	1,463.38	78.9172	1,463.38	78.6764	1,463.38	78.6104	1,463.38	75.4311	1,463.38	75.5567	1,463.38	72.9546	1,463.38	75.3009	1,463.38	72.3662	1,463.38	76.5706	1,463.38	71.2556	1,463.38	73.3096	1,463.38	70.8899	1,463.38	56.0568	1,463.38	71.1169	1,463.38	71.3532	1,463.38	73.2113	1,463.38	76.4358	1,463.38	74.4569	1,463.38	72.9539	1,463.38	73.2059	1,463.38	72.2172	1,463.38	71.885	1,463.38	70.7242
1,516.11	84.9893	1,516.11	84.661	1,516.11	84.6891	1,516.11	85.0116	1,516.11	84.7253	1,516.11	85.2987	1,516.11	85.5571	1,516.11	83.0694	1,516.11	85.0184	1,516.11	80.216	1,516.11	82.207	1,516.11	80.7824	1,516.11	80.1096	1,516.11	78.8976	1,516.11	79.9588	1,516.11	77.4295	1,516.11	78.3969	1,516.11	77.6653	1,516.11	76.0063	1,516.11	75.672	1,516.11	77.0866	1,516.11	75.6995	1,516.11	77.1563	1,516.11	68.8355	1,516.11	76.3191	1,516.11	67.7372	1,516.11	59.8668	1,516.11	70.3353	1,516.11	74.9627	1,516.11	77.1656	1,516.11	74.2202	1,516.11	71.7789	1,516.11	73.3896	1,516.11	65.3601	1,516.11	70.9931	1,516.11	71.277
1,568.85	84.0549	1,568.85	84.0037	1,568.85	83.867	1,568.85	84.1504	1,568.85	84.8057	1,568.85	85.0906	1,568.85	84.364	1,568.85	83.6854	1,568.85	83.6224	1,568.85	81.048	1,568.85	83.7716	1,568.85	79.7619	1,568.85	81.2234	1,568.85	75.4073	1,568.85	77.8986	1,568.85	68.3947	1,568.85	77.4361	1,568.85	71.2026	1,568.85	74.7621	1,568.85	70.6094	1,568.85	74.4447	1,568.85	67.9351	1,568.85	72.9086	1,568.85	78.0008	1,568.85	68.4197	1,568.85	74.3943	1,568.85	73.4936	1,568.85	69.833	1,568.85	75.4246	1,568.85	75.2684	1,568.85	72.5854	1,568.85	72.4575	1,568.85	72.8488	1,568.85	66.5045	1,568.85	70.2473	1,568.85	67.9904
1,624.51	83.0491	1,624.51	84.0707	1,624.51	83.6207	1,624.51	83.6209	1,624.51	84.2549	1,624.51	83.0068	1,624.51	82.7695	1,624.51	82.9057	1,624.51	84.0345	1,624.51	82.7126	1,624.51	83.0258	1,624.51	81.8739	1,624.51	77.7357	1,624.51	78.0659	1,624.51	75.9238	1,624.51	75.4784	1,624.51	78.4483	1,624.51	69.2974	1,624.51	77.4423	1,624.51	70.9972	1,624.51	73.3697	1,624.51	62.2835	1,624.51	71.276	1,624.51	73.6796	1,624.51	74.0681	1,624.51	73.8249	1,624.51	72.8056	1,624.51	67.1205	1,624.51	72.0366	1,624.51	71.9604	1,624.51	73.3399	1,624.51	70.6985	1,624.51	71.5272	1,624.51	63.3897	1,624.51	69.6619	1,624.51	67.5403
1,681.64	83.3308	1,681.64	84.0322	1,681.64	84.2844	1,681.64	84.0656	1,681.64	83.8695	1,681.64	82.9154	1,681.64	84.2435	1,681.64	80.8354	1,681.64	84.26	1,681.64	81.2517	1,681.64	80.4813	1,681.64	83.0575	1,681.64	79.7383	1,681.64	79.2355	1,681.64	80.2271	1,681.64	73.6963	1,681.64	79.7765	1,681.64	65.4541	1,681.64	76.8578	1,681.64	65.4373	1,681.64	73.7704	1,681.64	72.2128	1,681.64	75.3802	1,681.64	69.9796	1,681.64	73.6398	1,681.64	75.1985	1,681.64	71.5025	1,681.64	69.638	1,681.64	72.7601	1,681.64	70.5132	1,681.64	71.5501	1,681.64	71.2991	1,681.64	71.2756	1,681.64	67.3901	1,681.64	67.3489	1,681.64	62.0823
1,741.7	84.655	1,741.7	84.6749	1,741.7	83.6209	1,741.7	83.1059	1,741.7	83.0774	1,741.7	81.1144	1,741.7	82.7889	1,741.7	81.2162	1,741.7	83.6667	1,741.7	82.6159	1,741.7	84.176	1,741.7	77.3248	1,741.7	82.6737	1,741.7	74.2956	1,741.7	77.4981	1,741.7	75.8486	1,741.7	75.4691	1,741.7	71.2187	1,741.7	77.7869	1,741.7	62.9981	1,741.7	73.0797	1,741.7	63.6611	1,741.7	70.0852	1,741.7	70.3978	1,741.7	72.6197	1,741.7	62.8648	1,741.7	76.1051	1,741.7	62.3352	1,741.7	58.015	1,741.7	69.2162	1,741.7	69.9795	1,741.7	68.0927	1,741.7	72.6527	1,741.7	60.9152	1,741.7	71.0413	1,741.7	69.4949
1,803.22	84.5462	1,803.22	83.8135	1,803.22	83.2928	1,803.22	83.5234	1,803.22	81.8925	1,803.22	82.1063	1,803.22	82.6273	1,803.22	79.5138	1,803.22	81.5642	1,803.22	81.1229	1,803.22	82.8383	1,803.22	77.1688	1,803.22	82.6819	1,803.22	69.096	1,803.22	78.6947	1,803.22	68.4044	1,803.22	74.6754	1,803.22	59.5983	1,803.22	74.7906	1,803.22	59.1195	1,803.22	70.9647	1,803.22	68.9616	1,803.22	72.262	1,803.22	61.8289	1,803.22	69.9454	1,803.22	70.2953	1,803.22	72.548	1,803.22	64.0017	1,803.22	63.5726	1,803.22	68.2484	1,803.22	75.1293	1,803.22	71.1665	1,803.22	63.0089	1,803.22	64.5326	1,803.22	73.2555	1,803.22	69.7495
1,866.21	84.1751	1,866.21	85.0527	1,866.21	80.5491	1,866.21	84.4976	1,866.21	81.0792	1,866.21	83.6532	1,866.21	81.5643	1,866.21	80.5519	1,866.21	83.7648	1,866.21	77.4624	1,866.21	84.2161	1,866.21	76.6269	1,866.21	81.5442	1,866.21	74.4613	1,866.21	75.4993	1,866.21	70.589	1,866.21	68.7376	1,866.21	61.2227	1,866.21	66.6464	1,866.21	63.2556	1,866.21	57.6718	1,866.21	73.0825	1,866.21	63.3584	1,866.21	72.3397	1,866.21	70.9123	1,866.21	70.8957	1,866.21	73.9256	1,866.21	58.9914	1,866.21	67.2193	1,866.21	58.6803	1,866.21	73.9025	1,866.21	72.4658	1,866.21	69.4952	1,866.21	59.7974	1,866.21	70.4949	1,866.21	51.6972
1,932.13	82.9316	1,932.13	83.5682	1,932.13	79.9035	1,932.13	84.4104	1,932.13	76.8516	1,932.13	83.6199	1,932.13	81.1988	1,932.13	78.0092	1,932.13	83.6998	1,932.13	74.3614	1,932.13	83.7528	1,932.13	74.0554	1,932.13	82.6448	1,932.13	66.032	1,932.13	79.1416	1,932.13	64.2917	1,932.13	75.1457	1,932.13	64.6059	1,932.13	72.7413	1,932.13	68.7421	1,932.13	67.4176	1,932.13	55.4682	1,932.13	68.2364	1,932.13	66.802	1,932.13	68.2988	1,932.13	63.8279	1,932.13	71.6442	1,932.13	66.2479	1,932.13	69.8032	1,932.13	67.9659	1,932.13	71.8584	1,932.13	65.2067	1,932.13	62.9534	1,932.13	65.4824	1,932.13	67.2833	1,932.13	68.6144
1,999.51	81.8535	1,999.51	83.4038	1,999.51	79.5993	1,999.51	84.8694	1,999.51	77.334	1,999.51	82.7409	1,999.51	81.5288	1,999.51	78.523	1,999.51	82.889	1,999.51	74.3636	1,999.51	83.9725	1,999.51	68.9142	1,999.51	82.3905	1,999.51	64.6308	1,999.51	79.6596	1,999.51	65.9929	1,999.51	75.6143	1,999.51	58.5645	1,999.51	73.5726	1,999.51	54.4444	1,999.51	69.9188	1,999.51	65.1693	1,999.51	65.2978	1,999.51	65.1358	1,999.51	64.5213	1,999.51	63.5582	1,999.51	67.9156	1,999.51	62.6759	1,999.51	67.5577	1,999.51	65.1012	1,999.51	71.869	1,999.51	67.8451	1,999.51	66.4676	1,999.51	64.8143	1,999.51	64.5892	1,999.51	68.5904
2,069.82	81.4003	2,069.82	83.6608	2,069.82	77.2525	2,069.82	82.8232	2,069.82	72.0503	2,069.82	80.691	2,069.82	79.7782	2,069.82	78.5088	2,069.82	83.0196	2,069.82	69.4289	2,069.82	83.9101	2,069.82	66.3082	2,069.82	82.7274	2,069.82	69.6103	2,069.82	78.9493	2,069.82	70.67	2,069.82	74.866	2,069.82	68.4185	2,069.82	67.8399	2,069.82	69.0025	2,069.82	64.9887	2,069.82	64.1387	2,069.82	67.5475	2,069.82	63.8187	2,069.82	64.4399	2,069.82	66.7434	2,069.82	67.8773	2,069.82	60.3583	2,069.82	67.2138	2,069.82	63.2846	2,069.82	69.4839	2,069.82	65.9077	2,069.82	65.4024	2,069.82	61.6801	2,069.82	63.0126	2,069.82	67.0091
2,143.07	81.8535	2,143.07	83.9271	2,143.07	76.13	2,143.07	81.9087	2,143.07	71.7039	2,143.07	79.4456	2,143.07	80.7315	2,143.07	75.8167	2,143.07	83.0582	2,143.07	62.7858	2,143.07	83.6545	2,143.07	67.0307	2,143.07	82.0341	2,143.07	70.1096	2,143.07	78.7409	2,143.07	62.9238	2,143.07	75.7142	2,143.07	66.7305	2,143.07	72.4038	2,143.07	66.7267	2,143.07	68.6138	2,143.07	67.3619	2,143.07	63.4326	2,143.07	60.8813	2,143.07	63.6713	2,143.07	65.4121	2,143.07	66.329	2,143.07	58.7025	2,143.07	69.3876	2,143.07	59.5362	2,143.07	68.631	2,143.07	63.6667	2,143.07	65.8022	2,143.07	63.3362	2,143.07	63.988	2,143.07	66.7489
2,219.24	81.1306	2,219.24	84.0129	2,219.24	73.2422	2,219.24	83.4905	2,219.24	66.056	2,219.24	78.8737	2,219.24	79.192	2,219.24	71.1082	2,219.24	82.8355	2,219.24	57.4767	2,219.24	83.7871	2,219.24	66.8699	2,219.24	81.4127	2,219.24	68.8987	2,219.24	78.7479	2,219.24	72.4739	2,219.24	73.4225	2,219.24	70.6829	2,219.24	71.1202	2,219.24	67.021	2,219.24	69.1648	2,219.24	66.4764	2,219.24	62.1291	2,219.24	65.3641	2,219.24	60.6219	2,219.24	65.0697	2,219.24	67.3157	2,219.24	64.6198	2,219.24	68.3971	2,219.24	59.1913	2,219.24	67.4516	2,219.24	61.1525	2,219.24	65.3657	2,219.24	63.6912	2,219.24	64.9653	2,219.24	66.1211
2,296.88	79.8193	2,296.88	83.7753	2,296.88	71.2538	2,296.88	83.8469	2,296.88	66.2992	2,296.88	78.8269	2,296.88	77.5668	2,296.88	69.9674	2,296.88	82.2545	2,296.88	60.9915	2,296.88	82.9723	2,296.88	69.1521	2,296.88	81.4067	2,296.88	70.0264	2,296.88	77.6458	2,296.88	69.3358	2,296.88	72.7228	2,296.88	69.1226	2,296.88	68.1385	2,296.88	66.0742	2,296.88	66.0356	2,296.88	67.6758	2,296.88	67.0013	2,296.88	67.4176	2,296.88	63.3865	2,296.88	63.2632	2,296.88	67.3405	2,296.88	65.0252	2,296.88	69.1747	2,296.88	60.9243	2,296.88	66.6379	2,296.88	51.5454	2,296.88	66.2539	2,296.88	66.0032	2,296.88	65.696	2,296.88	64.1968
2,378.91	79.4476	2,378.91	83.4181	2,378.91	67.1081	2,378.91	82.7445	2,378.91	72.1847	2,378.91	79.6174	2,378.91	79.2416	2,378.91	72.3557	2,378.91	82.7317	2,378.91	68.9312	2,378.91	83.1897	2,378.91	71.7657	2,378.91	81.2482	2,378.91	74.5935	2,378.91	77.1989	2,378.91	73.8832	2,378.91	74.5826	2,378.91	70.2178	2,378.91	70.1839	2,378.91	69.6982	2,378.91	65.257	2,378.91	66.9969	2,378.91	64.6287	2,378.91	68.5764	2,378.91	66.7216	2,378.91	66.3002	2,378.91	68.122	2,378.91	66.7483	2,378.91	71.0248	2,378.91	63.2072	2,378.91	66.1244	2,378.91	53.661	2,378.91	67.2627	2,378.91	65.1436	2,378.91	66.4018	2,378.91	65.7273
2,462.4	81.6125	2,462.4	83.9734	2,462.4	66.9359	2,462.4	81.905	2,462.4	73.2786	2,462.4	79.3029	2,462.4	78.5966	2,462.4	71.3926	2,462.4	82.2595	2,462.4	72.747	2,462.4	82.6048	2,462.4	74.1697	2,462.4	81.6913	2,462.4	73.9675	2,462.4	78.05	2,462.4	72.0008	2,462.4	74.7949	2,462.4	74.1081	2,462.4	69.3917	2,462.4	69.2988	2,462.4	67.4964	2,462.4	67.9692	2,462.4	52.8603	2,462.4	67.3378	2,462.4	67.4216	2,462.4	67.4331	2,462.4	66.8876	2,462.4	68.6061	2,462.4	71.765	2,462.4	64.1941	2,462.4	67.3549	2,462.4	44.187	2,462.4	66.3975	2,462.4	62.2057	2,462.4	65.5609	2,462.4	65.0918
2,548.83	83.0529	2,548.83	84.9083	2,548.83	71.9952	2,548.83	83.1736	2,548.83	73.8675	2,548.83	77.1174	2,548.83	79.4467	2,548.83	74.3877	2,548.83	81.6614	2,548.83	73.7493	2,548.83	81.9476	2,548.83	76.2124	2,548.83	80.8067	2,548.83	75.4882	2,548.83	77.0221	2,548.83	75.2506	2,548.83	71.9356	2,548.83	72.885	2,548.83	71.9933	2,548.83	70.7951	2,548.83	69.0667	2,548.83	69.7201	2,548.83	65.7352	2,548.83	69.9769	2,548.83	66.5401	2,548.83	69.5428	2,548.83	66.3249	2,548.83	69.1818	2,548.83	71.1393	2,548.83	66.5884	2,548.83	66.4077	2,548.83	53.8014	2,548.83	67.027	2,548.83	63.8085	2,548.83	67.8869	2,548.83	63.725
2,639.65	82.7887	2,639.65	85.3733	2,639.65	72.8265	2,639.65	83.9239	2,639.65	76.047	2,639.65	77.7577	2,639.65	80.8158	2,639.65	72.4437	2,639.65	81.07	2,639.65	77.0769	2,639.65	81.8036	2,639.65	78.4959	2,639.65	81.2192	2,639.65	78.6014	2,639.65	77.3904	2,639.65	76.8688	2,639.65	74.1357	2,639.65	74.6009	2,639.65	69.6345	2,639.65	72.7186	2,639.65	69.5311	2,639.65	71.4206	2,639.65	67.036	2,639.65	71.064	2,639.65	69.7453	2,639.65	69.6197	2,639.65	66.7133	2,639.65	70.86	2,639.65	71.1872	2,639.65	68.4236	2,639.65	63.715	2,639.65	61.7732	2,639.65	67.6162	2,639.65	62.0668	2,639.65	68.6745	2,639.65	65.8712
2,731.93	81.6894	2,731.93	84.2004	2,731.93	71.7848	2,731.93	82.2593	2,731.93	76.505	2,731.93	78.2077	2,731.93	82.1145	2,731.93	75.0364	2,731.93	82.0985	2,731.93	79.4882	2,731.93	81.8832	2,731.93	79.6904	2,731.93	81.2465	2,731.93	79.2001	2,731.93	77.4884	2,731.93	75.485	2,731.93	76.2914	2,731.93	74.1078	2,731.93	62.573	2,731.93	69.9233	2,731.93	71.65	2,731.93	71.6499	2,731.93	70.2477	2,731.93	69.2723	2,731.93	68.9751	2,731.93	69.7557	2,731.93	65.5231	2,731.93	70.972	2,731.93	69.6143	2,731.93	68.4008	2,731.93	62.5397	2,731.93	61.4172	2,731.93	67.6572	2,731.93	63.1936	2,731.93	68.5102	2,731.93	65.3383
2,828.61	83.5733	2,828.61	84.0349	2,828.61	76.4795	2,828.61	81.773	2,828.61	72.1366	2,828.61	74.4141	2,828.61	82.3066	2,828.61	79.4725	2,828.61	83.1575	2,828.61	81.2668	2,828.61	82.0181	2,828.61	81.8503	2,828.61	80.39	2,828.61	79.3496	2,828.61	78.3094	2,828.61	78.2443	2,828.61	78.2914	2,828.61	73.9858	2,828.61	67.9314	2,828.61	72.5474	2,828.61	72.6861	2,828.61	69.7461	2,828.61	72.2836	2,828.61	70.0844	2,828.61	71.3963	2,828.61	70.4609	2,828.61	67.6445	2,828.61	71.4345	2,828.61	70.0167	2,828.61	71.2956	2,828.61	64.374	2,828.61	63.5633	2,828.61	67.7538	2,828.61	61.7316	2,828.61	68.4986	2,828.61	68.6956
2,928.22	84.4448	2,928.22	83.7934	2,928.22	80.3276	2,928.22	80.0692	2,928.22	69.3939	2,928.22	76.4695	2,928.22	80.8009	2,928.22	81.8822	2,928.22	82.259	2,928.22	83.8982	2,928.22	82.2849	2,928.22	82.7782	2,928.22	81.6323	2,928.22	79.9462	2,928.22	78.1115	2,928.22	78.6441	2,928.22	78.4412	2,928.22	76.2474	2,928.22	66.7918	2,928.22	73.5835	2,928.22	69.563	2,928.22	70.4521	2,928.22	62.1879	2,928.22	70.5268	2,928.22	72.4216	2,928.22	69.7314	2,928.22	64.0533	2,928.22	71.005	2,928.22	70.086	2,928.22	72.2889	2,928.22	62.748	2,928.22	62.662	2,928.22	63.6012	2,928.22	59.2377	2,928.22	69.1749	2,928.22	67.6778
3,030.76	83.3339	3,030.76	83.217	3,030.76	81.4535	3,030.76	80.3236	3,030.76	76.941	3,030.76	79.894	3,030.76	81.7107	3,030.76	82.6529	3,030.76	81.6498	3,030.76	83.3286	3,030.76	81.2742	3,030.76	80.7122	3,030.76	82.5782	3,030.76	79.8698	3,030.76	80.62	3,030.76	76.5474	3,030.76	78.5258	3,030.76	73.8911	3,030.76	71.2276	3,030.76	70.7726	3,030.76	67.9639	3,030.76	67.9746	3,030.76	68.8651	3,030.76	66.2111	3,030.76	68.4878	3,030.76	66.6164	3,030.76	69.7679	3,030.76	69.3811	3,030.76	68.121	3,030.76	69.8877	3,030.76	36.4895	3,030.76	63.418	3,030.76	60.1743	3,030.76	59.6044	3,030.76	69.2488	3,030.76	69.5031
3,137.7	82.0853	3,137.7	83.429	3,137.7	81.3171	3,137.7	80.6881	3,137.7	78.8638	3,137.7	81.5162	3,137.7	82.0485	3,137.7	82.755	3,137.7	81.7651	3,137.7	82.3036	3,137.7	80.3217	3,137.7	81.1714	3,137.7	81.4998	3,137.7	78.0214	3,137.7	81.827	3,137.7	75.4139	3,137.7	78.0033	3,137.7	75.0238	3,137.7	78.0206	3,137.7	72.1045	3,137.7	72.1689	3,137.7	70.5	3,137.7	66.937	3,137.7	68.5707	3,137.7	66.9785	3,137.7	67.9235	3,137.7	71.2276	3,137.7	67.759	3,137.7	68.2628	3,137.7	70.7691	3,137.7	60.1516	3,137.7	61.562	3,137.7	61.6798	3,137.7	57.8157	3,137.7	68.7299	3,137.7	67.9774
3,249.02	83.4041	3,249.02	83.9112	3,249.02	80.2955	3,249.02	79.2092	3,249.02	79.5143	3,249.02	81.568	3,249.02	83.2415	3,249.02	83.5111	3,249.02	82.7744	3,249.02	82.7676	3,249.02	77.4215	3,249.02	81.0823	3,249.02	80.2505	3,249.02	78.1728	3,249.02	82.409	3,249.02	78.4235	3,249.02	81.1663	3,249.02	74.8964	3,249.02	79.6427	3,249.02	70.9009	3,249.02	69.7234	3,249.02	67.7475	3,249.02	72.8092	3,249.02	68.286	3,249.02	60.9731	3,249.02	66.7467	3,249.02	70.603	3,249.02	68.328	3,249.02	64.3689	3,249.02	69.7125	3,249.02	62.9145	3,249.02	59.5763	3,249.02	62.4172	3,249.02	58.7304	3,249.02	69.5346	3,249.02	67.6821
3,363.28	83.5209	3,363.28	82.3373	3,363.28	81.722	3,363.28	79.8108	3,363.28	80.9505	3,363.28	82.4394	3,363.28	83.9385	3,363.28	83.5335	3,363.28	82.3105	3,363.28	81.9458	3,363.28	77.3944	3,363.28	80.5705	3,363.28	81.2951	3,363.28	77.5602	3,363.28	83.8359	3,363.28	74.8009	3,363.28	81.849	3,363.28	69.5428	3,363.28	80.5472	3,363.28	70.3771	3,363.28	68.0674	3,363.28	67.9736	3,363.28	69.6489	3,363.28	68.1521	3,363.28	68.6172	3,363.28	65.9849	3,363.28	72.047	3,363.28	66.3234	3,363.28	64.4654	3,363.28	68.6018	3,363.28	63.2407	3,363.28	64.3583	3,363.28	64.427	3,363.28	58.8459	3,363.28	69.6227	3,363.28	68.132
3,481.93	84.1496	3,481.93	82.8461	3,481.93	82.3037	3,481.93	81.3232	3,481.93	82.4364	3,481.93	82.3266	3,481.93	83.4964	3,481.93	83.1321	3,481.93	81.8497	3,481.93	81.4634	3,481.93	72.1853	3,481.93	79.8423	3,481.93	82.57	3,481.93	76.5219	3,481.93	83.4943	3,481.93	76.1415	3,481.93	82.3932	3,481.93	74.9238	3,481.93	78.4133	3,481.93	70.5123	3,481.93	66.212	3,481.93	68.4173	3,481.93	56.1163	3,481.93	67.971	3,481.93	66.7271	3,481.93	66.0459	3,481.93	70.126	3,481.93	68.0123	3,481.93	65.4535	3,481.93	68.2527	3,481.93	66.2205	3,481.93	59.6893	3,481.93	63.9943	3,481.93	51.1553	3,481.93	67.9464	3,481.93	67.1972
3,604.98	84.2822	3,604.98	82.689	3,604.98	82.1222	3,604.98	82.7581	3,604.98	82.9815	3,604.98	83.0371	3,604.98	83.9832	3,604.98	82.2742	3,604.98	82.495	3,604.98	82.1325	3,604.98	73.9785	3,604.98	79.411	3,604.98	82.9868	3,604.98	78.6189	3,604.98	82.0805	3,604.98	76.921	3,604.98	82.502	3,604.98	70.3387	3,604.98	74.7892	3,604.98	71.2241	3,604.98	50.4166	3,604.98	68.5413	3,604.98	65.2433	3,604.98	67.1645	3,604.98	66.4591	3,604.98	67.2851	3,604.98	68.878	3,604.98	68.9546	3,604.98	65.5296	3,604.98	69.6242	3,604.98	66.2261	3,604.98	62.0446	3,604.98	65.212	3,604.98	35.554	3,604.98	68.6883	3,604.98	66.1912
3,732.42	84.8498	3,732.42	82.1245	3,732.42	82.6535	3,732.42	83.0164	3,732.42	82.1706	3,732.42	82.9973	3,732.42	83.9996	3,732.42	83.011	3,732.42	82.5944	3,732.42	81.1571	3,732.42	75.1995	3,732.42	80.3149	3,732.42	82.7445	3,732.42	76.8968	3,732.42	81.6611	3,732.42	74.7855	3,732.42	80.511	3,732.42	74.0261	3,732.42	69.3488	3,732.42	71.1803	3,732.42	47.3584	3,732.42	66.4313	3,732.42	71.7454	3,732.42	65.8435	3,732.42	63.1225	3,732.42	66.8354	3,732.42	65.5692	3,732.42	68.5361	3,732.42	68.2104	3,732.42	69.1995	3,732.42	67.0204	3,732.42	64.317	3,732.42	62.2952	3,732.42	44.037	3,732.42	69.0076	3,732.42	66.0338
3,864.26	84.2565	3,864.26	83.5951	3,864.26	83.9664	3,864.26	82.5708	3,864.26	83.0871	3,864.26	82.2904	3,864.26	83.4176	3,864.26	83.0104	3,864.26	82.9926	3,864.26	81.9792	3,864.26	77.5283	3,864.26	80.1138	3,864.26	80.8087	3,864.26	78.4099	3,864.26	80.8863	3,864.26	78.0964	3,864.26	77.8993	3,864.26	73.2305	3,864.26	69.3859	3,864.26	70.6544	3,864.26	48.0918	3,864.26	68.269	3,864.26	68.8216	3,864.26	64.5837	3,864.26	63.7901	3,864.26	67.5953	3,864.26	65.8182	3,864.26	68.5916	3,864.26	64.9958	3,864.26	69.0294	3,864.26	65.9491	3,864.26	64.5236	3,864.26	64.3693	3,864.26	56.0379	3,864.26	69.3638	3,864.26	63.2922
4,000.49	83.5696	4,000.49	82.9282	4,000.49	83.2918	4,000.49	82.1682	4,000.49	83.8004	4,000.49	81.4108	4,000.49	84.1839	4,000.49	82.7646	4,000.49	84.155	4,000.49	81.5808	4,000.49	78.8994	4,000.49	80.1329	4,000.49	80.0829	4,000.49	78.6438	4,000.49	81.0272	4,000.49	73.5191	4,000.49	77.0963	4,000.49	73.0632	4,000.49	73.4549	4,000.49	68.2863	4,000.49	61.1579	4,000.49	66.0413	4,000.49	52.154	4,000.49	66.4373	4,000.49	61.0289	4,000.49	67.5291	4,000.49	63.0358	4,000.49	67.4708	4,000.49	65.5429	4,000.49	68.6321	4,000.49	62.2782	4,000.49	66.5448	4,000.49	65.2521	4,000.49	50.3573	4,000.49	67.7442	4,000.49	65.0665
4,141.11	84.421	4,141.11	82.3335	4,141.11	83.1093	4,141.11	81.9519	4,141.11	83.0945	4,141.11	83.7853	4,141.11	83.6507	4,141.11	83.1525	4,141.11	82.718	4,141.11	82.0181	4,141.11	78.3376	4,141.11	80.6361	4,141.11	80.8578	4,141.11	76.7788	4,141.11	78.4336	4,141.11	76.7129	4,141.11	75.3274	4,141.11	74.0925	4,141.11	74.1143	4,141.11	71.9024	4,141.11	69.5341	4,141.11	65.4718	4,141.11	67.6719	4,141.11	63.7108	4,141.11	57.744	4,141.11	65.3798	4,141.11	63.8626	4,141.11	64.1026	4,141.11	62.5748	4,141.11	67.7699	4,141.11	63.6729	4,141.11	65.0129	4,141.11	61.1851	4,141.11	59.3957	4,141.11	67.41	4,141.11	64.1342
4,287.6	83.8421	4,287.6	83.6856	4,287.6	83.6785	4,287.6	82.121	4,287.6	81.755	4,287.6	82.2378	4,287.6	83.8531	4,287.6	81.8737	4,287.6	83.2909	4,287.6	81.8666	4,287.6	77.4372	4,287.6	77.5833	4,287.6	77.1355	4,287.6	77.9015	4,287.6	74.4706	4,287.6	71.8069	4,287.6	76.9186	4,287.6	70.1957	4,287.6	78.3508	4,287.6	66.0327	4,287.6	70.0822	4,287.6	64.464	4,287.6	70.05	4,287.6	63.8275	4,287.6	62.6018	4,287.6	65.5849	4,287.6	54.976	4,287.6	66.0244	4,287.6	47.35	4,287.6	68.9185	4,287.6	66.6905	4,287.6	63.8024	4,287.6	61.0296	4,287.6	59.9392	4,287.6	64.5424	4,287.6	61.6281
4,438.48	83.1857	4,438.48	82.7509	4,438.48	83.5503	4,438.48	81.9209	4,438.48	82.6474	4,438.48	83.4084	4,438.48	82.2337	4,438.48	83.3038	4,438.48	83.6855	4,438.48	81.3864	4,438.48	77.5124	4,438.48	78.9437	4,438.48	69.9184	4,438.48	75.753	4,438.48	78.2342	4,438.48	77.0862	4,438.48	81.3404	4,438.48	72.1929	4,438.48	76.9545	4,438.48	69.8089	4,438.48	67.3924	4,438.48	65.6153	4,438.48	71.2669	4,438.48	64.5428	4,438.48	61.5715	4,438.48	66.3841	4,438.48	64.6801	4,438.48	64.084	4,438.48	53.8521	4,438.48	68.7103	4,438.48	65.1863	4,438.48	68.168	4,438.48	63.4045	4,438.48	53.9996	4,438.48	64.3212	4,438.48	59.2265
4,595.21	83.5033	4,595.21	80.9329	4,595.21	83.1185	4,595.21	81.8527	4,595.21	83.4041	4,595.21	82.6081	4,595.21	83.5621	4,595.21	81.8677	4,595.21	84.1698	4,595.21	80.9425	4,595.21	79.6498	4,595.21	79.2329	4,595.21	70.4205	4,595.21	79.0756	4,595.21	82.4645	4,595.21	72.4682	4,595.21	81.2493	4,595.21	73.5802	4,595.21	77.5471	4,595.21	70.0919	4,595.21	66.33	4,595.21	64.8306	4,595.21	64.6305	4,595.21	65.5865	4,595.21	59.5515	4,595.21	63.541	4,595.21	69.9092	4,595.21	65.8104	4,595.21	59.966	4,595.21	67.8518	4,595.21	64.2604	4,595.21	63.3464	4,595.21	63.6993	4,595.21	61.5185	4,595.21	62.5832	4,595.21	64.8588
4,756.35	83.0206	4,756.35	82.5148	4,756.35	81.7636	4,756.35	82.7597	4,756.35	82.9419	4,756.35	82.0191	4,756.35	81.9303	4,756.35	82.8083	4,756.35	83.2707	4,756.35	80.2312	4,756.35	79.8259	4,756.35	79.8454	4,756.35	75.8466	4,756.35	75.7612	4,756.35	82.6536	4,756.35	76.4059	4,756.35	80.4729	4,756.35	66.9081	4,756.35	76.6657	4,756.35	66.9501	4,756.35	70.2027	4,756.35	64.3358	4,756.35	60.6165	4,756.35	61.7735	4,756.35	51.1922	4,756.35	65.3713	4,756.35	70.7944	4,756.35	67.0154	4,756.35	59.8129	4,756.35	68.272	4,756.35	66.1508	4,756.35	66.9288	4,756.35	58.3512	4,756.35	65.4128	4,756.35	60.9353	4,756.35	62.2533
4,924.8	82.4923	4,924.8	81.2456	4,924.8	82.4938	4,924.8	81.7883	4,924.8	82.3356	4,924.8	83.0172	4,924.8	80.1197	4,924.8	80.6858	4,924.8	82.5302	4,924.8	81.0746	4,924.8	80.9346	4,924.8	77.8814	4,924.8	77.3622	4,924.8	75.6861	4,924.8	82.3051	4,924.8	71.5648	4,924.8	77.9263	4,924.8	72.9193	4,924.8	73.7804	4,924.8	66.2145	4,924.8	70.9361	4,924.8	64.153	4,924.8	57.8637	4,924.8	61.5332	4,924.8	58.7976	4,924.8	64.4743	4,924.8	67.1478	4,924.8	65.7408	4,924.8	45.3229	4,924.8	66.9692	4,924.8	62.344	4,924.8	65.0187	4,924.8	61.3305	4,924.8	59.5255	4,924.8	59.9623	4,924.8	57.875
5,097.66	81.8282	5,097.66	81.5196	5,097.66	82.7275	5,097.66	82.0423	5,097.66	82.5837	5,097.66	81.5726	5,097.66	79.3603	5,097.66	81.986	5,097.66	81.2716	5,097.66	80.5889	5,097.66	80.0842	5,097.66	78.2611	5,097.66	75.5927	5,097.66	77.1131	5,097.66	80.2888	5,097.66	74.3408	5,097.66	75.6303	5,097.66	70.2667	5,097.66	74.7709	5,097.66	67.9798	5,097.66	69.6889	5,097.66	66.1586	5,097.66	59.7217	5,097.66	62.1687	5,097.66	58.025	5,097.66	63.7255	5,097.66	65.1166	5,097.66	64.7047	5,097.66	52.8926	5,097.66	68.9608	5,097.66	61.4599	5,097.66	67.7779	5,097.66	62.0634	5,097.66	62.6491	5,097.66	59.8888	5,097.66	60.9551
5,277.83	81.2353	5,277.83	80.6496	5,277.83	80.814	5,277.83	81.8065	5,277.83	82.2931	5,277.83	80.856	5,277.83	81.5326	5,277.83	81.1566	5,277.83	80.4107	5,277.83	79.9154	5,277.83	80.5819	5,277.83	78.6799	5,277.83	73.2699	5,277.83	75.9877	5,277.83	77.4743	5,277.83	73.1814	5,277.83	76.8544	5,277.83	70.2016	5,277.83	74.2104	5,277.83	65.6913	5,277.83	71.6346	5,277.83	62.6064	5,277.83	64.2993	5,277.83	60.1855	5,277.83	52.3172	5,277.83	63.6605	5,277.83	61.2358	5,277.83	66.5547	5,277.83	60.5311	5,277.83	68.4464	5,277.83	60.0295	5,277.83	66.2058	5,277.83	58.3847	5,277.83	63.6688	5,277.83	61.0362	5,277.83	57.3411
5,463.87	81.7077	5,463.87	81.4651	5,463.87	80.0353	5,463.87	80.7354	5,463.87	81.973	5,463.87	80.4393	5,463.87	83.0384	5,463.87	81.0713	5,463.87	80.1174	5,463.87	80.3264	5,463.87	82.4361	5,463.87	78.2434	5,463.87	72.1306	5,463.87	77.048	5,463.87	73.4389	5,463.87	72.661	5,463.87	75.9894	5,463.87	71.3697	5,463.87	72.5138	5,463.87	66.4135	5,463.87	66.6408	5,463.87	62.7119	5,463.87	63.0684	5,463.87	62.4737	5,463.87	57.5429	5,463.87	60.7624	5,463.87	62.3615	5,463.87	64.7656	5,463.87	63.5793	5,463.87	67.2112	5,463.87	57.2685	5,463.87	68.1874	5,463.87	53.4434	5,463.87	62.9126	5,463.87	56.6227	5,463.87	57.7524
5,657.23	81.3185	5,657.23	81.5581	5,657.23	81.223	5,657.23	80.3842	5,657.23	79.7315	5,657.23	79.358	5,657.23	81.1501	5,657.23	80.6471	5,657.23	80.9373	5,657.23	80.3733	5,657.23	83.1229	5,657.23	78.1224	5,657.23	72.7647	5,657.23	76.285	5,657.23	74.9716	5,657.23	72.5635	5,657.23	72.9958	5,657.23	69.3713	5,657.23	70.2626	5,657.23	64.7115	5,657.23	54.1699	5,657.23	62.787	5,657.23	44.2386	5,657.23	59.0261	5,657.23	54.7142	5,657.23	58.3076	5,657.23	54.3272	5,657.23	64.6389	5,657.23	58.9568	5,657.23	67.8741	5,657.23	56.737	5,657.23	66.4286	5,657.23	59.2971	5,657.23	61.2157	5,657.23	55.8787	5,657.23	57.6654
5,856.45	81.3392	5,856.45	81.24	5,856.45	81.1053	5,856.45	78.5091	5,856.45	78.2342	5,856.45	79.5292	5,856.45	79.1967	5,856.45	80.8503	5,856.45	81.4101	5,856.45	79.4949	5,856.45	83.2541	5,856.45	77.6456	5,856.45	73.6832	5,856.45	75.1512	5,856.45	73.3888	5,856.45	71.533	5,856.45	73.2225	5,856.45	69.877	5,856.45	71.7649	5,856.45	65.8745	5,856.45	33.6073	5,856.45	61.1569	5,856.45	55.5891	5,856.45	58.9197	5,856.45	54.9395	5,856.45	60.1024	5,856.45	54.5392	5,856.45	64.6314	5,856.45	51.2852	5,856.45	66.3833	5,856.45	55.6282	5,856.45	64.9985	5,856.45	56.1288	5,856.45	64.2673	5,856.45	59.8708	5,856.45	56.53
6,062.99	82.6605	6,062.99	80.9754	6,062.99	81.1349	6,062.99	80.0173	6,062.99	81.1322	6,062.99	79.8628	6,062.99	79.5007	6,062.99	80.1863	6,062.99	81.2697	6,062.99	79.7472	6,062.99	82.6775	6,062.99	77.5375	6,062.99	74.6554	6,062.99	75.8125	6,062.99	73.8036	6,062.99	71.5805	6,062.99	75.0165	6,062.99	69.3538	6,062.99	71.6902	6,062.99	63.8594	6,062.99	52.2715	6,062.99	62.357	6,062.99	50.5243	6,062.99	56.7824	6,062.99	50.9879	6,062.99	60.6926	6,062.99	52.743	6,062.99	64.1453	6,062.99	55.4061	6,062.99	65.338	6,062.99	55.57	6,062.99	66.8788	6,062.99	51.7589	6,062.99	63.9438	6,062.99	60.1695	6,062.99	53.7235
6,276.86	82.3853	6,276.86	80.9789	6,276.86	81.5034	6,276.86	80.6225	6,276.86	78.9731	6,276.86	79.3906	6,276.86	80.6987	6,276.86	79.9363	6,276.86	78.8669	6,276.86	79.2127	6,276.86	81.5245	6,276.86	77.9339	6,276.86	73.7735	6,276.86	76.1634	6,276.86	75.9683	6,276.86	71.6296	6,276.86	75.4229	6,276.86	68.7208	6,276.86	70.8932	6,276.86	62.0371	6,276.86	60.6292	6,276.86	61.3469	6,276.86	54.5898	6,276.86	55.9008	6,276.86	46.8307	6,276.86	59.1736	6,276.86	55.3262	6,276.86	62.7165	6,276.86	60.2544	6,276.86	64.9945	6,276.86	55.8581	6,276.86	66.7401	6,276.86	54.3212	6,276.86	64.2277	6,276.86	54.8038	6,276.86	53.442
6,498.05	82.1481	6,498.05	81.5511	6,498.05	80.9511	6,498.05	80.9355	6,498.05	78.4596	6,498.05	78.7444	6,498.05	80.2107	6,498.05	80.0772	6,498.05	75.0816	6,498.05	79.3382	6,498.05	80.8699	6,498.05	77.5877	6,498.05	75.2338	6,498.05	75.075	6,498.05	73.886	6,498.05	70.48	6,498.05	75.1092	6,498.05	68.237	6,498.05	72.2233	6,498.05	62.2655	6,498.05	65.7748	6,498.05	60.5888	6,498.05	54.1675	6,498.05	57.4152	6,498.05	53.5881	6,498.05	60.838	6,498.05	54.1087	6,498.05	62.7929	6,498.05	63.4963	6,498.05	64.368	6,498.05	53.6702	6,498.05	65.4875	6,498.05	58.6321	6,498.05	63.9785	6,498.05	55.4649	6,498.05	55.0824
6,726.56	81.9918	6,726.56	82.5838	6,726.56	82.2707	6,726.56	80.9633	6,726.56	81.3613	6,726.56	79.0809	6,726.56	79.0084	6,726.56	79.4113	6,726.56	76.7435	6,726.56	79.3493	6,726.56	79.9413	6,726.56	76.4698	6,726.56	76.8184	6,726.56	75.3885	6,726.56	75.2439	6,726.56	70.9664	6,726.56	71.054	6,726.56	68.7061	6,726.56	65.6711	6,726.56	63.9589	6,726.56	57.7195	6,726.56	61.3152	6,726.56	50.4503	6,726.56	54.7987	6,726.56	50.1484	6,726.56	58.2944	6,726.56	48.9368	6,726.56	62.8635	6,726.56	60.7457	6,726.56	63.6905	6,726.56	59.6849	6,726.56	64.5348	6,726.56	55.9534	6,726.56	64.8643	6,726.56	53.1927	6,726.56	55.885
6,963.87	81.0697	6,963.87	82.3087	6,963.87	81.803	6,963.87	81.0672	6,963.87	81.8551	6,963.87	79.2402	6,963.87	79.3844	6,963.87	78.9778	6,963.87	79.1912	6,963.87	79.0691	6,963.87	78.5414	6,963.87	76.7202	6,963.87	78.3994	6,963.87	74.8905	6,963.87	71.7644	6,963.87	70.4455	6,963.87	68.6297	6,963.87	65.9969	6,963.87	67.2561	6,963.87	62.0978	6,963.87	57.0246	6,963.87	58.1857	6,963.87	61.4702	6,963.87	54.3117	6,963.87	58.0682	6,963.87	57.6021	6,963.87	51.6392	6,963.87	60.9036	6,963.87	61.1752	6,963.87	62.1717	6,963.87	62.0896	6,963.87	64.0948	6,963.87	52.7617	6,963.87	64.2429	6,963.87	55.6682	6,963.87	55.8515
7,209.96	81.9019	7,209.96	82.5869	7,209.96	81.6698	7,209.96	81.292	7,209.96	81.1071	7,209.96	79.3084	7,209.96	80.8618	7,209.96	79.1897	7,209.96	78.3508	7,209.96	78.7251	7,209.96	78.2144	7,209.96	76.1629	7,209.96	79.0639	7,209.96	73.5162	7,209.96	58.8156	7,209.96	69.6378	7,209.96	73.9846	7,209.96	67.1149	7,209.96	68.6004	7,209.96	60.3878	7,209.96	58.3326	7,209.96	57.6225	7,209.96	59.8661	7,209.96	55.6818	7,209.96	59.0634	7,209.96	58.3225	7,209.96	52.6505	7,209.96	59.6529	7,209.96	59.5419	7,209.96	59.9194	7,209.96	58.51	7,209.96	64.3173	7,209.96	56.4143	7,209.96	62.7059	7,209.96	53.0651	7,209.96	52.7611
7,464.84	81.2964	7,464.84	82.666	7,464.84	82.3396	7,464.84	81.464	7,464.84	81.8762	7,464.84	79.7593	7,464.84	79.6064	7,464.84	78.904	7,464.84	75.2466	7,464.84	77.8713	7,464.84	79.4445	7,464.84	75.9794	7,464.84	77.8106	7,464.84	73.5998	7,464.84	70.5142	7,464.84	69.7843	7,464.84	74.1475	7,464.84	67.1364	7,464.84	66.6944	7,464.84	59.9227	7,464.84	54.964	7,464.84	60.2628	7,464.84	60.1364	7,464.84	53.4255	7,464.84	59.8488	7,464.84	51.2049	7,464.84	38.7008	7,464.84	58.9496	7,464.84	56.6586	7,464.84	59.2611	7,464.84	57.2728	7,464.84	63.4573	7,464.84	53.9506	7,464.84	61.3977	7,464.84	51.9205	7,464.84	53.1275
7,727.05	81.5301	7,727.05	81.7301	7,727.05	80.4015	7,727.05	81.4325	7,727.05	81.576	7,727.05	79.7799	7,727.05	79.4178	7,727.05	78.4372	7,727.05	76.2174	7,727.05	77.7218	7,727.05	78.5396	7,727.05	75.2606	7,727.05	75.1667	7,727.05	73.7072	7,727.05	72.2733	7,727.05	68.2971	7,727.05	71.6284	7,727.05	64.2246	7,727.05	64.7346	7,727.05	60.0005	7,727.05	57.7159	7,727.05	57.7846	7,727.05	36.0954	7,727.05	50.5149	7,727.05	56.3283	7,727.05	53.7364	7,727.05	54.7231	7,727.05	58.2566	7,727.05	55.3001	7,727.05	56.6912	7,727.05	52.0546	7,727.05	62.1509	7,727.05	50.6055	7,727.05	59.3373	7,727.05	53.9485	7,727.05	50.4763
7,999.51	82.1538	7,999.51	82.0162	7,999.51	82.1068	7,999.51	81.6468	7,999.51	80.7262	7,999.51	80.2117	7,999.51	80.9624	7,999.51	78.1979	7,999.51	78.1625	7,999.51	77.1132	7,999.51	78.0718	7,999.51	75.0249	7,999.51	74.4303	7,999.51	72.1339	7,999.51	72.6661	7,999.51	67.9397	7,999.51	67.439	7,999.51	64.2451	7,999.51	67.5033	7,999.51	61.2301	7,999.51	46.2273	7,999.51	56.3495	7,999.51	47.516	7,999.51	54.0606	7,999.51	54.1322	7,999.51	55.4171	7,999.51	50.0539	7,999.51	55.7845	7,999.51	54.0687	7,999.51	54.2197	7,999.51	45.3483	7,999.51	60.8617	7,999.51	51.4867	7,999.51	58.1171	7,999.51	50.3166	7,999.51	51.2061
8,282.23	81.5212	8,282.23	81.1413	8,282.23	81.6608	8,282.23	81.6586	8,282.23	81.3167	8,282.23	79.348	8,282.23	80.698	8,282.23	78.1818	8,282.23	78.1454	8,282.23	76.8078	8,282.23	74.9785	8,282.23	74.5697	8,282.23	76.2159	8,282.23	71.6607	8,282.23	66.4569	8,282.23	67.2656	8,282.23	69.0071	8,282.23	62.9198	8,282.23	62.2469	8,282.23	58.4069	8,282.23	58.7415	8,282.23	48.8598	8,282.23	56.2139	8,282.23	48.4861	8,282.23	47.5972	8,282.23	56.5418	8,282.23	49.214	8,282.23	53.2939	8,282.23	55.5352	8,282.23	52.9044	8,282.23	40.7745	8,282.23	57.7275	8,282.23	52.5833	8,282.23	55.9954	8,282.23	48.6829	8,282.23	52.4976
8,573.73	81.8412	8,573.73	81.5731	8,573.73	82.1263	8,573.73	81.0475	8,573.73	80.7103	8,573.73	79.6226	8,573.73	78.2745	8,573.73	77.6241	8,573.73	75.5566	8,573.73	76.4379	8,573.73	72.1309	8,573.73	73.7357	8,573.73	76.4635	8,573.73	71.0488	8,573.73	61.7139	8,573.73	66.3101	8,573.73	70.5078	8,573.73	63.0357	8,573.73	62.7948	8,573.73	55.5506	8,573.73	57.0561	8,573.73	55.4188	8,573.73	56.2896	8,573.73	50.9293	8,573.73	52.3899	8,573.73	55.1356	8,573.73	36.0144	8,573.73	54.9798	8,573.73	51.9794	8,573.73	52.4087	8,573.73	37.442	8,573.73	56.7149	8,573.73	33.1574	8,573.73	56.6833	8,573.73	50.5059	8,573.73	51.8873
8,876.95	81.7899	8,876.95	81.2881	8,876.95	81.6254	8,876.95	81.0874	8,876.95	81.3919	8,876.95	78.8972	8,876.95	78.5246	8,876.95	77.4725	8,876.95	76.6949	8,876.95	75.917	8,876.95	75.1178	8,876.95	73.5819	8,876.95	74.7111	8,876.95	70.5293	8,876.95	71.0188	8,876.95	66.022	8,876.95	69.6272	8,876.95	60.451	8,876.95	61.9149	8,876.95	56.966	8,876.95	48.9266	8,876.95	52.1007	8,876.95	51.8465	8,876.95	49.2441	8,876.95	53.1719	8,876.95	50.1381	8,876.95	50.3463	8,876.95	54.2285	8,876.95	51.5567	8,876.95	48.5407	8,876.95	46.518	8,876.95	55.0581	8,876.95	39.7541	8,876.95	52.5122	8,876.95	44.5773	8,876.95	47.1803
9,188.96	82.2933	9,188.96	81.3935	9,188.96	81.6155	9,188.96	80.7691	9,188.96	80.6703	9,188.96	78.8824	9,188.96	80.086	9,188.96	77.1029	9,188.96	77.0436	9,188.96	75.3933	9,188.96	76.4456	9,188.96	73.1727	9,188.96	72.4594	9,188.96	68.1418	9,188.96	69.8244	9,188.96	65.4001	9,188.96	67.0267	9,188.96	60.8277	9,188.96	62.5673	9,188.96	56.737	9,188.96	49.6348	9,188.96	51.0066	9,188.96	50.7309	9,188.96	45.1372	9,188.96	43.8114	9,188.96	49.5199	9,188.96	37.2026	9,188.96	51.8566	9,188.96	50.6346	9,188.96	47.9462	9,188.96	46.5985	9,188.96	54.2636	9,188.96	48.7687	9,188.96	54.6024	9,188.96	49.1943	9,188.96	48.064
9,514.16	81.9969	9,514.16	81.6545	9,514.16	81.7352	9,514.16	80.3894	9,514.16	80.5882	9,514.16	78.9532	9,514.16	78.5616	9,514.16	76.4803	9,514.16	77.4083	9,514.16	75.4441	9,514.16	76.0098	9,514.16	72.59	9,514.16	71.624	9,514.16	68.4948	9,514.16	69.5387	9,514.16	65.158	9,514.16	67.8209	9,514.16	57.6813	9,514.16	62.3478	9,514.16	55.6903	9,514.16	52.9728	9,514.16	49.5547	9,514.16	46.8908	9,514.16	49.9256	9,514.16	45.0152	9,514.16	48.5941	9,514.16	45.2672	9,514.16	50.8518	9,514.16	49.0507	9,514.16	47.561	9,514.16	49.0891	9,514.16	51.9443	9,514.16	53.8212	9,514.16	54.3534	9,514.16	50.4741	9,514.16	45.2105
9,849.61	82.1824	9,849.61	81.7179	9,849.61	81.8504	9,849.61	80.429	9,849.61	80.7187	9,849.61	78.7867	9,849.61	79.0849	9,849.61	76.8007	9,849.61	77.2758	9,849.61	74.7574	9,849.61	72.756	9,849.61	72.2818	9,849.61	72.7129	9,849.61	68.6548	9,849.61	66.5549	9,849.61	65.3167	9,849.61	67.3263	9,849.61	60.2825	9,849.61	58.3921	9,849.61	58.0176	9,849.61	52.1916	9,849.61	45.483	9,849.61	51.1137	9,849.61	37.0532	9,849.61	47.7413	9,849.61	49.6095	9,849.61	47.6945	9,849.61	51.3371	9,849.61	47.722	9,849.61	52.2809	9,849.61	49.758	9,849.61	52.847	9,849.61	53.0621	9,849.61	55.4206	9,849.61	53.2959	9,849.61	46.3765
10,196.8	82.6224	10,196.8	81.8811	10,196.8	81.7563	10,196.8	80.4444	10,196.8	81.2191	10,196.8	78.8908	10,196.8	79.0688	10,196.8	76.7016	10,196.8	76.7655	10,196.8	74.2124	10,196.8	73.6164	10,196.8	72.7686	10,196.8	73.4481	10,196.8	69.9531	10,196.8	69.0856	10,196.8	65.4729	10,196.8	64.1154	10,196.8	60.7789	10,196.8	59.2905	10,196.8	53.3097	10,196.8	42.9901	10,196.8	54.8301	10,196.8	54.4036	10,196.8	47.328	10,196.8	52.0009	10,196.8	51.317	10,196.8	48.4028	10,196.8	51.0771	10,196.8	35.4635	10,196.8	51.9138	10,196.8	45.9912	10,196.8	52.6968	10,196.8	52.5066	10,196.8	54.2994	10,196.8	52.6842	10,196.8	43.737
10,555.7	82.5087	10,555.7	81.9838	10,555.7	81.7382	10,555.7	80.271	10,555.7	80.8655	10,555.7	79.2404	10,555.7	79.645	10,555.7	75.8891	10,555.7	76.684	10,555.7	74.5619	10,555.7	75.4265	10,555.7	73.2533	10,555.7	73.1925	10,555.7	69.0829	10,555.7	70.6266	10,555.7	65.4958	10,555.7	65.5854	10,555.7	56.7922	10,555.7	63.98	10,555.7	55.1284	10,555.7	51.5959	10,555.7	46.0478	10,555.7	46.7072	10,555.7	41.8308	10,555.7	31.8475	10,555.7	44.0864	10,555.7	41.3355	10,555.7	48.1905	10,555.7	33.5852	10,555.7	53.7199	10,555.7	35.252	10,555.7	53.6457	10,555.7	48.5982	10,555.7	53.461	10,555.7	47.4553	10,555.7	45.2016
10,927.7	82.5015	10,927.7	81.8756	10,927.7	81.7939	10,927.7	80.267	10,927.7	81.2324	10,927.7	79.1917	10,927.7	78.562	10,927.7	76.1279	10,927.7	77.9933	10,927.7	74.4448	10,927.7	74.6428	10,927.7	73.0976	10,927.7	71.9558	10,927.7	68.7535	10,927.7	70.5033	10,927.7	64.9313	10,927.7	65.5178	10,927.7	59.6995	10,927.7	61.6033	10,927.7	56.0986	10,927.7	46.5846	10,927.7	49.1484	10,927.7	54.0047	10,927.7	36.499	10,927.7	50.3453	10,927.7	50.2349	10,927.7	38.1777	10,927.7	49.4208	10,927.7	46.6398	10,927.7	55.2433	10,927.7	46.6425	10,927.7	56.3862	10,927.7	52.7548	10,927.7	55.0378	10,927.7	53.0203	10,927.7	44.1319
11,313	82.6535	11,313	81.9336	11,313	81.6619	11,313	80.6416	11,313	80.8154	11,313	78.9981	11,313	78.7093	11,313	76.3538	11,313	76.0518	11,313	74.517	11,313	74.2024	11,313	72.2378	11,313	72.7056	11,313	68.0922	11,313	70.9282	11,313	63.6198	11,313	52.8377	11,313	58.929	11,313	54.0743	11,313	56.1419	11,313	47.135	11,313	50.6161	11,313	57.1966	11,313	42.0084	11,313	37.198	11,313	43.5956	11,313	46.7358	11,313	47.3112	11,313	44.9346	11,313	52.0196	11,313	45.2263	11,313	53.3108	11,313	54.4623	11,313	52.1282	11,313	53.3784	11,313	43.0173
11,712.9	82.8473	11,712.9	82.1468	11,712.9	82.0221	11,712.9	80.6745	11,712.9	80.7088	11,712.9	78.6238	11,712.9	77.9727	11,712.9	76.7725	11,712.9	75.9625	11,712.9	73.2402	11,712.9	74.0131	11,712.9	71.2364	11,712.9	73.0824	11,712.9	67.4312	11,712.9	68.7717	11,712.9	63.3631	11,712.9	58.6516	11,712.9	55.3088	11,712.9	61.1288	11,712.9	53.1561	11,712.9	45.2584	11,712.9	35.758	11,712.9	54.9105	11,712.9	43.3841	11,712.9	43.812	11,712.9	39.3855	11,712.9	45.083	11,712.9	42.919	11,712.9	41.1309	11,712.9	49.061	11,712.9	47.376	11,712.9	52.3143	11,712.9	51.7227	11,712.9	50.5544	11,712.9	50.1232	11,712.9	39.2547
12,126	82.7187	12,126	82.427	12,126	82.2056	12,126	80.5171	12,126	80.82	12,126	78.7296	12,126	78.6074	12,126	76.1888	12,126	74.9946	12,126	72.5318	12,126	72.1484	12,126	70.0206	12,126	71.941	12,126	65.2678	12,126	64.7367	12,126	61.5016	12,126	58.8767	12,126	53.8464	12,126	55.9775	12,126	52.0898	12,126	42.346	12,126	45.0662	12,126	56.0615	12,126	31.0862	12,126	45.7821	12,126	35.3079	12,126	41.0993	12,126	41.9352	12,126	41.3865	12,126	44.9881	12,126	42.6782	12,126	50.803	12,126	45.6225	12,126	49.3742	12,126	48.5601	12,126	36.8976
12,553.7	82.6658	12,553.7	82.6062	12,553.7	82.2262	12,553.7	80.4699	12,553.7	80.6198	12,553.7	78.5695	12,553.7	78.3062	12,553.7	75.7672	12,553.7	74.6512	12,553.7	71.3885	12,553.7	71.0263	12,553.7	69.1357	12,553.7	67.7915	12,553.7	63.1451	12,553.7	63.4252	12,553.7	58.526	12,553.7	52.2074	12,553.7	49.998	12,553.7	51.701	12,553.7	50.9464	12,553.7	45.3969	12,553.7	38.1031	12,553.7	54.2136	12,553.7	41.5947	12,553.7	40.7114	12,553.7	35.4844	12,553.7	31.9502	12,553.7	35.2797	12,553.7	40.1407	12,553.7	40.7817	12,553.7	37.414	12,553.7	48.3702	12,553.7	44.5878	12,553.7	45.5171	12,553.7	47.1003	12,553.7	40.4626
12,996.1	82.8944	12,996.1	82.5652	12,996.1	82.1742	12,996.1	80.5565	12,996.1	80.6094	12,996.1	78.3185	12,996.1	78.2089	12,996.1	75.2882	12,996.1	74.6632	12,996.1	70.4914	12,996.1	70.6032	12,996.1	67.5389	12,996.1	66.0618	12,996.1	61.2514	12,996.1	59.7768	12,996.1	57.1277	12,996.1	46.5889	12,996.1	47.1683	12,996.1	50.1269	12,996.1	50.3923	12,996.1	37.2919	12,996.1	42.9159	12,996.1	51.2377	12,996.1	35.1443	12,996.1	39.6388	12,996.1	33.694	12,996.1	32.36	12,996.1	34.3135	12,996.1	33.6316	12,996.1	36.5415	12,996.1	31.2373	12,996.1	45.8946	12,996.1	38.2847	12,996.1	46.3556	12,996.1	45.1918	12,996.1	36.6526
13,454.6	82.949	13,454.6	82.5515	13,454.6	82.1111	13,454.6	80.6083	13,454.6	80.3496	13,454.6	77.966	13,454.6	77.3065	13,454.6	74.7583	13,454.6	73.3593	13,454.6	69.3394	13,454.6	68.9991	13,454.6	65.7581	13,454.6	64.0792	13,454.6	60.1593	13,454.6	57.8445	13,454.6	54.806	13,454.6	49.8119	13,454.6	46.2208	13,454.6	43.3229	13,454.6	45.3195	13,454.6	45.6242	13,454.6	40.6184	13,454.6	49.3631	13,454.6	33.8699	13,454.6	37.3243	13,454.6	33.0225	13,454.6	26.1806	13,454.6	32.9612	13,454.6	29.9713	13,454.6	35.4322	13,454.6	35.3221	13,454.6	44.1433	13,454.6	25.5956	13,454.6	45.2906	13,454.6	41.6778	13,454.6	31.3846
13,929.2	83.0586	13,929.2	82.6482	13,929.2	82.1381	13,929.2	80.4651	13,929.2	80.3164	13,929.2	77.5465	13,929.2	76.9678	13,929.2	74.0249	13,929.2	72.4803	13,929.2	68.1463	13,929.2	67.1726	13,929.2	63.9387	13,929.2	61.2944	13,929.2	56.8879	13,929.2	53.9945	13,929.2	52.7338	13,929.2	48.1201	13,929.2	43.0689	13,929.2	42.2029	13,929.2	42.6196	13,929.2	43.0262	13,929.2	33.2031	13,929.2	46.407	13,929.2	33.9991	13,929.2	30.3794	13,929.2	25.7488	13,929.2	30.9225	13,929.2	13.6153	13,929.2	36.1544	13,929.2	29.578	13,929.2	34.1305	13,929.2	40.6738	13,929.2	38.7689	13,929.2	40.2698	13,929.2	39.6031	13,929.2	33.9246
14,419.9	83.0707	14,419.9	82.6328	14,419.9	82.2172	14,419.9	80.2372	14,419.9	80.1472	14,419.9	77.0291	14,419.9	76.6038	14,419.9	72.9432	14,419.9	71.4988	14,419.9	66.5298	14,419.9	65.9642	14,419.9	60.8754	14,419.9	56.1578	14,419.9	51.4513	14,419.9	54.3337	14,419.9	48.4728	14,419.9	46.7029	14,419.9	36.4532	14,419.9	42.0077	14,419.9	42.1186	14,419.9	47.5568	14,419.9	36.3758	14,419.9	41.2238	14,419.9	33.7601	14,419.9	25.5296	14,419.9	27.7479	14,419.9	35.9808	14,419.9	21.9632	14,419.9	36.8064	14,419.9	29.2839	14,419.9	22.8306	14,419.9	37.3149	14,419.9	24.9198	14,419.9	37.6874	14,419.9	22.2889	14,419.9	31.9228
14,928.2	83.0964	14,928.2	82.4279	14,928.2	82.1964	14,928.2	79.8122	14,928.2	79.8637	14,928.2	76.2292	14,928.2	75.9393	14,928.2	71.5356	14,928.2	70.6339	14,928.2	64.5265	14,928.2	64.0833	14,928.2	55.691	14,928.2	51.08	14,928.2	42.8899	14,928.2	51.4835	14,928.2	43.0082	14,928.2	49.8064	14,928.2	36.076	14,928.2	42.004	14,928.2	36.17	14,928.2	46.1538	14,928.2	28.5539	14,928.2	40.5212	14,928.2	23.4709	14,928.2	31.4536	14,928.2	23.3289	14,928.2	36.5045	14,928.2	25.959	14,928.2	35.0828	14,928.2	29.2312	14,928.2	20.5585	14,928.2	34.6081	14,928.2	31.4917	14,928.2	37.8069	14,928.2	29.3643	14,928.2	27.2685
15,455.6	82.8984	15,455.6	82.1164	15,455.6	81.9799	15,455.6	79.3481	15,455.6	79.4937	15,455.6	75.3249	15,455.6	74.965	15,455.6	70.0542	15,455.6	68.751	15,455.6	61.8126	15,455.6	61.162	15,455.6	48.9436	15,455.6	48.9757	15,455.6	44.9842	15,455.6	55.2065	15,455.6	45.0543	15,455.6	48.8656	15,455.6	38.9315	15,455.6	45.734	15,455.6	34.5096	15,455.6	47.156	15,455.6	30.5985	15,455.6	41.0174	15,455.6	18.5588	15,455.6	21.5174	15,455.6	24.0875	15,455.6	36.385	15,455.6	27.9291	15,455.6	29.5306	15,455.6	26.834	15,455.6	32.6947	15,455.6	33.8175	15,455.6	28.0752	15,455.6	34.2794	15,455.6	32.1388	15,455.6	28.8327
16,000.5	82.6528	16,000.5	81.6465	16,000.5	81.6835	16,000.5	78.6602	16,000.5	79.174	16,000.5	74.4882	16,000.5	74.4515	16,000.5	68.3454	16,000.5	67.4907	16,000.5	58.8692	16,000.5	58.0184	16,000.5	35.5133	16,000.5	44.0607	16,000.5	51.208	16,000.5	54.1155	16,000.5	46.7369	16,000.5	49.4895	16,000.5	40.72	16,000.5	41.6396	16,000.5	35.9857	16,000.5	48.6023	16,000.5	36.4848	16,000.5	43.6637	16,000.5	24.1333	16,000.5	35.2781	16,000.5	28.073	16,000.5	35.6547	16,000.5	29.9505	16,000.5	37.1196	16,000.5	26.0182	16,000.5	32.453	16,000.5	31.3067	16,000.5	29.3095	16,000.5	34.5046	16,000.5	29.8723	16,000.5	20.4452
16,564.5	82.2151	16,564.5	81.1976	16,564.5	81.2523	16,564.5	77.8187	16,564.5	78.499	16,564.5	73.2131	16,564.5	73.825	16,564.5	66.1035	16,564.5	66.3213	16,564.5	55.0212	16,564.5	55.6811	16,564.5	46.2082	16,564.5	35.299	16,564.5	52.5018	16,564.5	53.4969	16,564.5	48.0979	16,564.5	48.2571	16,564.5	42.6341	16,564.5	43.2526	16,564.5	38.8132	16,564.5	49.2273	16,564.5	34.6745	16,564.5	46.3411	16,564.5	20.2447	16,564.5	34.1369	16,564.5	31.3101	16,564.5	25.6889	16,564.5	33.0943	16,564.5	32.409	16,564.5	30.6537	16,564.5	30.1933	16,564.5	16.1976	16,564.5	29.6316	16,564.5	34.8319	16,564.5	34.1697	16,564.5	16.5098
17,148.9	81.8384	17,148.9	80.7086	17,148.9	80.7615	17,148.9	77.0735	17,148.9	77.7608	17,148.9	71.7367	17,148.9	72.6454	17,148.9	62.9834	17,148.9	64.2007	17,148.9	50.0406	17,148.9	53.2441	17,148.9	51.2456	17,148.9	51.0901	17,148.9	53.1982	17,148.9	54.6597	17,148.9	48.6654	17,148.9	47.2939	17,148.9	42.3556	17,148.9	40.6546	17,148.9	39.0965	17,148.9	51.2669	17,148.9	35.4036	17,148.9	47.7658	17,148.9	17.5972	17,148.9	34.3658	17,148.9	33.666	17,148.9	19.313	17,148.9	34.5062	17,148.9	32.1896	17,148.9	32.258	17,148.9	26.6631	17,148.9	30.0782	17,148.9	34.1148	17,148.9	38.7602	17,148.9	36.059	17,148.9	27.0995
17,752.4	81.1773	17,752.4	80.0043	17,752.4	80.0866	17,752.4	76.0234	17,752.4	76.8713	17,752.4	70.1451	17,752.4	71.4128	17,752.4	59.4077	17,752.4	61.6447	17,752.4	46.5483	17,752.4	50.9669	17,752.4	52.8127	17,752.4	51.6893	17,752.4	52.8356	17,752.4	54.5404	17,752.4	49.9065	17,752.4	48.4046	17,752.4	42.7833	17,752.4	43.386	17,752.4	38.311	17,752.4	50.9395	17,752.4	36.895	17,752.4	48.6577	17,752.4	23.8952	17,752.4	35.2673	17,752.4	34.5871	17,752.4	28.6681	17,752.4	33.8929	17,752.4	29.5408	17,752.4	33.2135	17,752.4	20.9897	17,752.4	35.5339	17,752.4	28.7045	17,752.4	39.4773	17,752.4	34.8543	17,752.4	32.7729
18,379.4	80.4137	18,379.4	79.092	18,379.4	79.3392	18,379.4	74.7455	18,379.4	75.9381	18,379.4	68.1474	18,379.4	69.7958	18,379.4	55.3812	18,379.4	59.7356	18,379.4	48.711	18,379.4	51.6913	18,379.4	53.3731	18,379.4	54.3284	18,379.4	52.6182	18,379.4	54.8368	18,379.4	48.9771	18,379.4	49.0918	18,379.4	41.1171	18,379.4	42.73	18,379.4	36.2996	18,379.4	51.07	18,379.4	35.7368	18,379.4	49.9478	18,379.4	23.336	18,379.4	36.1821	18,379.4	34.9016	18,379.4	31.0824	18,379.4	32.3193	18,379.4	27.1665	18,379.4	34.3517	18,379.4	22.1208	18,379.4	37.6842	18,379.4	25.3074	18,379.4	44.0904	18,379.4	38.3356	18,379.4	45.4527
19,026.9	79.4412	19,026.9	77.9155	19,026.9	78.4012	19,026.9	73.132	19,026.9	74.5644	19,026.9	65.6865	19,026.9	67.909	19,026.9	48.7364	19,026.9	56.2066	19,026.9	51.0838	19,026.9	53.7677	19,026.9	53.6828	19,026.9	53.9283	19,026.9	50.8184	19,026.9	53.3799	19,026.9	46.1352	19,026.9	45.6314	19,026.9	36.3844	19,026.9	42.9254	19,026.9	34.0983	19,026.9	48.7908	19,026.9	29.438	19,026.9	49.6594	19,026.9	22.4287	19,026.9	38.2403	19,026.9	32.3045	19,026.9	20.6285	19,026.9	28.8682	19,026.9	15.3878	19,026.9	31.3414	19,026.9	15.442	19,026.9	24.4064	19,026.9	10.1265	19,026.9	42.1044	19,026.9	28.4641	19,026.9	44.2986
19,697.8	78.5087	19,697.8	76.8396	19,697.8	77.3297	19,697.8	71.4642	19,697.8	72.9626	19,697.8	62.2474	19,697.8	65.0788	19,697.8	46.9613	19,697.8	50.191	19,697.8	53.3526	19,697.8	53.9356	19,697.8	52.9025	19,697.8	51.8272	19,697.8	47.727	19,697.8	52.2083	19,697.8	43.1273	19,697.8	44.8438	19,697.8	32.5081	19,697.8	36.7512	19,697.8	28.8411	19,697.8	47.7483	19,697.8	23.0601	19,697.8	50.5272	19,697.8	20.3877	19,697.8	38.9564	19,697.8	32.3205	19,697.8	25.3969	19,697.8	22.6526	19,697.8	25.8716	19,697.8	3.71596	19,697.8	21.0404	19,697.8	30.3244	19,697.8	26.3096	19,697.8	37.2726	19,697.8	32.5452	19,697.8	38.5183
19,999.5	78.0104	19,999.5	76.2877	19,999.5	76.7609	19,999.5	70.9352	19,999.5	72.4955	19,999.5	60.7433	19,999.5	64.3317	19,999.5	48.9385	19,999.5	47.7723	19,999.5	54.2815	19,999.5	54.9152	19,999.5	53.6402	19,999.5	55.0778	19,999.5	46.2405	19,999.5	50.4506	19,999.5	43.9692	19,999.5	48.0253	19,999.5	34.7527	19,999.5	35.5148	19,999.5	23.3974	19,999.5	43.3307	19,999.5	36.3181	19,999.5	48.888	19,999.5	38.3108	19,999.5	40.3469	19,999.5	41.4033	19,999.5	35.02	19,999.5	40.1445	19,999.5	25.5417	19,999.5	40.205	19,999.5	33.4183	19,999.5	40.2377	19,999.5	40.0818	19,999.5	32.6574	19,999.5	33.6429	19,999.5	36.7025
