"SPL Horizontal"
"On-Axis"		"10°"		"-10°"		"20°"		"-20°"		"30°"		"-30°"		"40°"		"-40°"		"50°"		"-50°"		"60°"		"-60°"		"70°"		"-70°"		"80°"		"-80°"		"90°"		"-90°"		"100°"		"-100°"		"110°"		"-110°"		"120°"		"-120°"		"130°"		"-130°"		"140°"		"-140°"		"150°"		"-150°"		"160°"		"-160°"		"170°"		"-170°"		"180°"
"Frequency / Hz"	"Sound Pressure Level / dB (re 20 µPa/V)  [2.83  V @ 1. m]"	"Frequency / Hz"	"Sound Pressure Level / dB (re 20 µPa/V)  [2.83  V @ 1. m]"	"Frequency / Hz"	"Sound Pressure Level / dB (re 20 µPa/V)  [2.83  V @ 1. m]"	"Frequency / Hz"	"Sound Pressure Level / dB (re 20 µPa/V)  [2.83  V @ 1. m]"	"Frequency / Hz"	"Sound Pressure Level / dB (re 20 µPa/V)  [2.83  V @ 1. m]"	"Frequency / Hz"	"Sound Pressure Level / dB (re 20 µPa/V)  [2.83  V @ 1. m]"	"Frequency / Hz"	"Sound Pressure Level / dB (re 20 µPa/V)  [2.83  V @ 1. m]"	"Frequency / Hz"	"Sound Pressure Level / dB (re 20 µPa/V)  [2.83  V @ 1. m]"	"Frequency / Hz"	"Sound Pressure Level / dB (re 20 µPa/V)  [2.83  V @ 1. m]"	"Frequency / Hz"	"Sound Pressure Level / dB (re 20 µPa/V)  [2.83  V @ 1. m]"	"Frequency / Hz"	"Sound Pressure Level / dB (re 20 µPa/V)  [2.83  V @ 1. m]"	"Frequency / Hz"	"Sound Pressure Level / dB (re 20 µPa/V)  [2.83  V @ 1. m]"	"Frequency / Hz"	"Sound Pressure Level / dB (re 20 µPa/V)  [2.83  V @ 1. m]"	"Frequency / Hz"	"Sound Pressure Level / dB (re 20 µPa/V)  [2.83  V @ 1. m]"	"Frequency / Hz"	"Sound Pressure Level / dB (re 20 µPa/V)  [2.83  V @ 1. m]"	"Frequency / Hz"	"Sound Pressure Level / dB (re 20 µPa/V)  [2.83  V @ 1. m]"	"Frequency / Hz"	"Sound Pressure Level / dB (re 20 µPa/V)  [2.83  V @ 1. m]"	"Frequency / Hz"	"Sound Pressure Level / dB (re 20 µPa/V)  [2.83  V @ 1. m]"	"Frequency / Hz"	"Sound Pressure Level / dB (re 20 µPa/V)  [2.83  V @ 1. m]"	"Frequency / Hz"	"Sound Pressure Level / dB (re 20 µPa/V)  [2.83  V @ 1. m]"	"Frequency / Hz"	"Sound Pressure Level / dB (re 20 µPa/V)  [2.83  V @ 1. m]"	"Frequency / Hz"	"Sound Pressure Level / dB (re 20 µPa/V)  [2.83  V @ 1. m]"	"Frequency / Hz"	"Sound Pressure Level / dB (re 20 µPa/V)  [2.83  V @ 1. m]"	"Frequency / Hz"	"Sound Pressure Level / dB (re 20 µPa/V)  [2.83  V @ 1. m]"	"Frequency / Hz"	"Sound Pressure Level / dB (re 20 µPa/V)  [2.83  V @ 1. m]"	"Frequency / Hz"	"Sound Pressure Level / dB (re 20 µPa/V)  [2.83  V @ 1. m]"	"Frequency / Hz"	"Sound Pressure Level / dB (re 20 µPa/V)  [2.83  V @ 1. m]"	"Frequency / Hz"	"Sound Pressure Level / dB (re 20 µPa/V)  [2.83  V @ 1. m]"	"Frequency / Hz"	"Sound Pressure Level / dB (re 20 µPa/V)  [2.83  V @ 1. m]"	"Frequency / Hz"	"Sound Pressure Level / dB (re 20 µPa/V)  [2.83  V @ 1. m]"	"Frequency / Hz"	"Sound Pressure Level / dB (re 20 µPa/V)  [2.83  V @ 1. m]"	"Frequency / Hz"	"Sound Pressure Level / dB (re 20 µPa/V)  [2.83  V @ 1. m]"	"Frequency / Hz"	"Sound Pressure Level / dB (re 20 µPa/V)  [2.83  V @ 1. m]"	"Frequency / Hz"	"Sound Pressure Level / dB (re 20 µPa/V)  [2.83  V @ 1. m]"	"Frequency / Hz"	"Sound Pressure Level / dB (re 20 µPa/V)  [2.83  V @ 1. m]"	"Frequency / Hz"	"Sound Pressure Level / dB (re 20 µPa/V)  [2.83  V @ 1. m]"
20.5078	56.4286	20.5078	56.3448	20.5078	56.3986	20.5078	56.1498	20.5078	56.2623	20.5078	55.8589	20.5078	56.0397	20.5078	55.5081	20.5078	55.7698	20.5078	55.1668	20.5078	55.5206	20.5078	54.948	20.5078	55.3944	20.5078	54.9949	20.5078	55.5087	20.5078	55.4187	20.5078	55.9443	20.5078	56.2204	20.5078	56.6918	20.5078	57.2865	20.5078	57.6571	20.5078	58.4632	20.5078	58.718	20.5078	59.6227	20.5078	59.7714	20.5078	60.6801	20.5078	60.7454	20.5078	61.5843	20.5078	61.5935	20.5078	62.3053	20.5078	62.285	20.5078	62.8255	20.5078	62.7982	20.5078	63.1356	20.5078	63.1177	20.5078	63.2323
21.9727	58.8364	21.9727	58.7486	21.9727	58.8481	21.9727	58.593	21.9727	58.785	21.9727	58.3896	21.9727	58.658	21.9727	58.1748	21.9727	58.4899	21.9727	58.0058	21.9727	58.3199	21.9727	57.9592	21.9727	58.2061	21.9727	58.1156	21.9727	58.2218	21.9727	58.5268	21.9727	58.438	21.9727	59.1865	21.9727	58.8931	21.9727	60.0302	21.9727	59.5707	21.9727	60.9657	21.9727	60.4054	21.9727	61.9045	21.9727	61.3112	21.9727	62.7764	21.9727	62.2075	21.9727	63.531	21.9727	63.0302	21.9727	64.1326	21.9727	63.7318	21.9727	64.5567	21.9727	64.278	21.9727	64.7876	21.9727	64.6449	21.9727	64.8172
23.4375	60.6257	23.4375	60.6063	23.4375	60.6	23.4375	60.5479	23.4375	60.5359	23.4375	60.4702	23.4375	60.4536	23.4375	60.4082	23.4375	60.388	23.4375	60.4118	23.4375	60.3889	23.4375	60.5398	23.4375	60.5145	23.4375	60.8436	23.4375	60.8158	23.4375	61.3474	23.4375	61.3154	23.4375	62.0344	23.4375	61.9948	23.4375	62.8529	23.4375	62.8018	23.4375	63.7347	23.4375	63.6701	23.4375	64.6135	23.4375	64.5365	23.4375	65.4338	23.4375	65.3493	23.4375	66.1525	23.4375	66.0685	23.4375	66.7377	23.4375	66.6635	23.4375	67.1662	23.4375	67.1107	23.4375	67.4226	23.4375	67.3929	23.4375	67.4987
24.9023	62.7601	24.9023	62.7376	24.9023	62.7616	24.9023	62.7017	24.9023	62.745	24.9023	62.6703	24.9023	62.7235	24.9023	62.6723	24.9023	62.7213	24.9023	62.7445	24.9023	62.7719	24.9023	62.9261	24.9023	62.9145	24.9023	63.2483	24.9023	63.1844	24.9023	63.7224	24.9023	63.6013	24.9023	64.3341	24.9023	64.1603	24.9023	65.0465	24.9023	64.832	24.9023	65.8103	24.9023	65.5712	24.9023	66.5743	24.9023	66.3283	24.9023	67.2921	24.9023	67.0564	24.9023	67.9248	24.9023	67.715	24.9023	68.4411	24.9023	68.2709	24.9023	68.8171	24.9023	68.6973	24.9023	69.0363	24.9023	68.9745	24.9023	69.0894
26.3672	65.3455	26.3672	65.338	26.3672	65.3386	26.3672	65.3213	26.3672	65.3197	26.3672	65.3076	26.3672	65.2987	26.3672	65.3167	26.3672	65.2931	26.3672	65.3744	26.3672	65.3271	26.3672	65.509	26.3672	65.4296	26.3672	65.7457	26.3672	65.6288	26.3672	66.099	26.3672	65.9441	26.3672	66.5668	26.3672	66.3792	26.3672	67.1288	26.3672	66.9189	26.3672	67.7507	26.3672	67.5316	26.3672	68.3913	26.3672	68.1765	26.3672	69.0086	26.3672	68.8105	26.3672	69.5643	26.3672	69.3934	26.3672	70.0259	26.3672	69.8905	26.3672	70.3673	26.3672	70.2736	26.3672	70.5698	26.3672	70.522	26.3672	70.6224
27.832	67.0702	27.832	67.0704	27.832	67.0638	27.832	67.0681	27.832	67.0538	27.832	67.0737	27.832	67.0493	27.832	67.1034	27.832	67.0659	27.832	67.1785	27.832	67.1245	27.832	67.3217	27.832	67.2485	27.832	67.5533	27.832	67.4598	27.832	67.8851	27.832	67.7727	27.832	68.3158	27.832	68.188	27.832	68.8297	27.832	68.6918	27.832	69.399	27.832	69.2571	27.832	69.9885	27.832	69.849	27.832	70.5607	27.832	70.4303	27.832	71.0797	27.832	70.9651	27.832	71.514	27.832	71.4215	27.832	71.838	27.832	71.7729	27.832	72.0329	27.832	71.9993	27.832	72.0877
29.2969	68.6205	29.2969	68.6235	29.2969	68.6165	29.2969	68.6287	29.2969	68.6134	29.2969	68.6449	29.2969	68.6186	29.2969	68.6857	29.2969	68.6448	29.2969	68.7683	29.2969	68.7087	29.2969	68.9114	29.2969	68.8297	29.2969	69.1315	29.2969	69.0257	29.2969	69.4385	29.2969	69.3091	29.2969	69.8318	29.2969	69.6821	29.2969	70.2991	29.2969	70.1348	29.2969	70.8171	29.2969	70.6457	29.2969	71.3552	29.2969	71.1853	29.2969	71.8795	29.2969	71.7201	29.2969	72.3568	29.2969	72.2167	29.2969	72.757	29.2969	72.6441	29.2969	73.0553	29.2969	72.976	29.2969	73.2332	29.2969	73.1923	29.2969	73.2798
30.7617	70.1233	30.7617	70.1281	30.7617	70.1252	30.7617	70.1423	30.7617	70.1355	30.7617	70.1725	30.7617	70.1599	30.7617	70.2292	30.7617	70.208	30.7617	70.3256	30.7617	70.2925	30.7617	70.4756	30.7617	70.4273	30.7617	70.6917	30.7617	70.6257	30.7617	70.9811	30.7617	70.8968	30.7617	71.3435	30.7617	71.2425	30.7617	71.7692	30.7617	71.6554	30.7617	72.2396	30.7617	72.1189	30.7617	72.7292	30.7617	72.6083	30.7617	73.209	30.7617	73.095	30.7617	73.6488	30.7617	73.5484	30.7617	74.0206	30.7617	73.9397	30.7617	74.3004	30.7617	74.2437	30.7617	74.4697	30.7617	74.4406	30.7617	74.5176
32.2266	71.6137	32.2266	71.6245	32.2266	71.6144	32.2266	71.6485	32.2266	71.6278	32.2266	71.6905	32.2266	71.6585	32.2266	71.7577	32.2266	71.7136	32.2266	71.8596	32.2266	71.8025	32.2266	72.0061	32.2266	71.9357	32.2266	72.2063	32.2266	72.1228	32.2266	72.4656	32.2266	72.3705	32.2266	72.7841	32.2266	72.6799	32.2266	73.1549	32.2266	73.0455	32.2266	73.5641	32.2266	73.454	32.2266	73.9916	32.2266	73.8856	32.2266	74.4132	32.2266	74.316	32.2266	74.8027	32.2266	74.7188	32.2266	75.1345	32.2266	75.0677	32.2266	75.386	32.2266	75.3396	32.2266	75.5395	32.2266	75.5156	32.2266	75.5838
33.6914	72.8349	33.6914	72.8446	33.6914	72.8368	33.6914	72.8672	33.6914	72.8512	33.6914	72.9067	33.6914	72.8817	33.6914	72.9688	33.6914	72.9339	33.6914	73.061	33.6914	73.0153	33.6914	73.1912	33.6914	73.1341	33.6914	73.3669	33.6914	73.2984	33.6914	73.593	33.6914	73.5138	33.6914	73.8704	33.6914	73.7823	33.6914	74.1945	33.6914	74.1001	33.6914	74.5546	33.6914	74.4572	33.6914	74.9341	33.6914	74.8375	33.6914	75.3116	33.6914	75.2204	33.6914	75.6631	33.6914	75.582	33.6914	75.9644	33.6914	75.8983	33.6914	76.1935	33.6914	76.1467	33.6914	76.3333	33.6914	76.309	33.6914	76.3728
35.1562	73.8773	35.1562	73.8869	35.1562	73.8809	35.1562	73.9108	35.1562	73.8983	35.1562	73.9521	35.1562	73.9324	35.1562	74.0154	35.1562	73.9874	35.1562	74.1067	35.1562	74.0691	35.1562	74.2324	35.1562	74.184	35.1562	74.3986	35.1562	74.3385	35.1562	74.6093	35.1562	74.5375	35.1562	74.8652	35.1562	74.7827	35.1562	75.1624	35.1562	75.0718	35.1562	75.4919	35.1562	75.3964	35.1562	75.8391	35.1562	75.7433	35.1562	76.185	35.1562	76.0938	35.1562	76.508	35.1562	76.4266	35.1562	76.7855	35.1562	76.719	35.1562	76.9968	35.1562	76.9497	35.1562	77.1256	35.1562	77.1011	35.1562	77.1613
36.6211	74.8208	36.6211	74.8295	36.6211	74.8261	36.6211	74.853	36.6211	74.8463	36.6211	74.8935	36.6211	74.8833	36.6211	74.9543	36.6211	74.9407	36.6211	75.04	36.6211	75.0228	36.6211	75.1556	36.6211	75.1343	36.6211	75.3056	36.6211	75.28	36.6211	75.4933	36.6211	75.4631	36.6211	75.7198	36.6211	75.6849	36.6211	75.9821	36.6211	75.9429	36.6211	76.2731	36.6211	76.2308	36.6211	76.5811	36.6211	76.5373	36.6211	76.89	36.6211	76.847	36.6211	77.1806	36.6211	77.1412	36.6211	77.4327	36.6211	77.3997	36.6211	77.6269	36.6211	77.6031	36.6211	77.7477	36.6211	77.7352	36.6211	77.7848
38.0859	75.6138	38.0859	75.6192	38.0859	75.6229	38.0859	75.6401	38.0859	75.647	38.0859	75.6783	38.0859	75.6873	38.0859	75.7366	38.0859	75.746	38.0859	75.8184	38.0859	75.8264	38.0859	75.9274	38.0859	75.9319	38.0859	76.0672	38.0859	76.0661	38.0859	76.2402	38.0859	76.2318	38.0859	76.4468	38.0859	76.4302	38.0859	76.6846	38.0859	76.6599	38.0859	76.9476	38.0859	76.9157	38.0859	77.2256	38.0859	77.1885	38.0859	77.5045	38.0859	77.4651	38.0859	77.7673	38.0859	77.7292	38.0859	77.9956	38.0859	77.9625	38.0859	78.1715	38.0859	78.1471	38.0859	78.2807	38.0859	78.2677	38.0859	78.3136
39.5508	76.3461	39.5508	76.3561	39.5508	76.3499	39.5508	76.3804	39.5508	76.3679	39.5508	76.4201	39.5508	76.401	39.5508	76.4773	39.5508	76.4511	39.5508	76.5543	39.5508	76.5205	39.5508	76.654	39.5508	76.6119	39.5508	76.7791	39.5508	76.7282	39.5508	76.9317	39.5508	76.8716	39.5508	77.1124	39.5508	77.0436	39.5508	77.3196	39.5508	77.2433	39.5508	77.5487	39.5508	77.467	39.5508	77.7912	39.5508	77.7074	39.5508	78.0353	39.5508	77.9536	39.5508	78.2657	39.5508	78.1911	39.5508	78.4657	39.5508	78.4035	39.5508	78.6188	39.5508	78.5741	39.5508	78.7116	39.5508	78.6882	39.5508	78.7355
41.0156	76.8858	41.0156	76.9032	41.0156	76.8834	41.0156	76.9359	41.0156	76.8964	41.0156	76.9847	41.0156	76.9256	41.0156	77.0511	41.0156	76.9724	41.0156	77.1367	41.0156	77.0387	41.0156	77.2436	41.0156	77.127	41.0156	77.3735	41.0156	77.2397	41.0156	77.5276	41.0156	77.379	41.0156	77.7059	41.0156	77.546	41.0156	77.9062	41.0156	77.74	41.0156	78.124	41.0156	77.9574	41.0156	78.3517	41.0156	78.1914	41.0156	78.5783	41.0156	78.4312	41.0156	78.7904	41.0156	78.6631	41.0156	78.9727	41.0156	78.8712	41.0156	79.1103	41.0156	79.0397	41.0156	79.1909	41.0156	79.1547	41.0156	79.2065
42.4805	77.4549	42.4805	77.4694	42.4805	77.4556	42.4805	77.4991	42.4805	77.4717	42.4805	77.5443	42.4805	77.5036	42.4805	77.6056	42.4805	77.5518	42.4805	77.6836	42.4805	77.6173	42.4805	77.7791	42.4805	77.7008	42.4805	77.8928	42.4805	77.8034	42.4805	78.025	42.4805	77.9257	42.4805	78.1749	42.4805	78.0677	42.4805	78.3409	42.4805	78.2284	42.4805	78.5193	42.4805	78.405	42.4805	78.7045	42.4805	78.5924	42.4805	78.8883	42.4805	78.7833	42.4805	79.0602	42.4805	78.9675	42.4805	79.2083	42.4805	79.1331	42.4805	79.3207	42.4805	79.2676	42.4805	79.387	42.4805	79.3595	42.4805	79.4005
43.9453	77.9113	43.9453	77.925	43.9453	77.9113	43.9453	77.9524	43.9453	77.9251	43.9453	77.9937	43.9453	77.9529	43.9453	78.0491	43.9453	77.995	43.9453	78.1188	43.9453	78.0518	43.9453	78.2034	43.9453	78.124	43.9453	78.3032	43.9453	78.2123	43.9453	78.4184	43.9453	78.3173	43.9453	78.5488	43.9453	78.4395	43.9453	78.6932	43.9453	78.5783	43.9453	78.849	43.9453	78.7319	43.9453	79.0116	43.9453	78.8965	43.9453	79.1739	43.9453	79.0658	43.9453	79.3266	43.9453	79.231	43.9453	79.4589	43.9453	79.3811	43.9453	79.5592	43.9453	79.5042	43.9453	79.6179	43.9453	79.5893	43.9453	79.6284
45.4102	78.3523	45.4102	78.3666	45.4102	78.3521	45.4102	78.3948	45.4102	78.3659	45.4102	78.4368	45.4102	78.394	45.4102	78.4921	45.4102	78.4361	45.4102	78.5608	45.4102	78.4925	45.4102	78.6426	45.4102	78.5631	45.4102	78.7375	45.4102	78.6481	45.4102	78.8454	45.4102	78.7478	45.4102	78.9657	45.4102	78.862	45.4102	79.0975	45.4102	78.9903	45.4102	79.2385	45.4102	79.1311	45.4102	79.3849	45.4102	79.2811	45.4102	79.5308	45.4102	79.435	45.4102	79.6683	45.4102	79.5848	45.4102	79.7877	45.4102	79.7207	45.4102	79.8787	45.4102	79.8318	45.4102	79.9325	45.4102	79.9083	45.4102	79.9429
46.875	78.7197	46.875	78.7344	46.875	78.7192	46.875	78.7629	46.875	78.7328	46.875	78.805	46.875	78.7604	46.875	78.86	46.875	78.8017	46.875	78.9276	46.875	78.8565	46.875	79.0071	46.875	78.9244	46.875	79.098	46.875	79.0053	46.875	79.1998	46.875	79.0989	46.875	79.3117	46.875	79.2051	46.875	79.4324	46.875	79.3233	46.875	79.5601	46.875	79.4521	46.875	79.6913	46.875	79.5885	46.875	79.8213	46.875	79.7279	46.875	79.9435	46.875	79.8632	46.875	80.0494	46.875	79.9858	46.875	80.1303	46.875	80.0861	46.875	80.1779	46.875	80.1553	46.875	80.1868
48.3398	78.9943	48.3398	79.0068	48.3398	78.996	48.3398	79.0332	48.3398	79.012	48.3398	79.073	48.3398	79.0418	48.3398	79.1253	48.3398	79.0848	48.3398	79.1892	48.3398	79.1404	48.3398	79.2636	48.3398	79.2077	48.3398	79.3477	48.3398	79.2859	48.3398	79.4403	48.3398	79.3744	48.3398	79.5407	48.3398	79.4726	48.3398	79.6478	48.3398	79.5797	48.3398	79.7602	48.3398	79.6943	48.3398	79.8757	48.3398	79.8142	48.3398	79.9906	48.3398	79.9353	48.3398	80.0994	48.3398	80.0522	48.3398	80.1949	48.3398	80.1574	48.3398	80.2691	48.3398	80.2429	48.3398	80.3143	48.3398	80.3009	48.3398	80.3255
51.2695	79.5505	51.2695	79.5646	51.2695	79.5504	51.2695	79.5924	51.2695	79.5641	51.2695	79.633	51.2695	79.5909	51.2695	79.685	51.2695	79.6296	51.2695	79.7468	51.2695	79.679	51.2695	79.8165	51.2695	79.7375	51.2695	79.8921	51.2695	79.8035	51.2695	79.9719	51.2695	79.8758	51.2695	80.0544	51.2695	79.9533	51.2695	80.1383	51.2695	80.0349	51.2695	80.2225	51.2695	80.1197	51.2695	80.3052	51.2695	80.2064	51.2695	80.3844	51.2695	80.2932	51.2695	80.4568	51.2695	80.3771	51.2695	80.5181	51.2695	80.4538	51.2695	80.5632	51.2695	80.5179	51.2695	80.5876	51.2695	80.5642	51.2695	80.5882
52.7344	79.8768	52.7344	79.8878	52.7344	79.8776	52.7344	79.91	52.7344	79.8899	52.7344	79.9428	52.7344	79.9131	52.7344	79.9846	52.7344	79.9461	52.7344	80.0341	52.7344	79.9877	52.7344	80.0893	52.7344	80.0363	52.7344	80.1487	52.7344	80.0906	52.7344	80.2108	52.7344	80.1492	52.7344	80.2744	52.7344	80.2111	52.7344	80.3387	52.7344	80.2755	52.7344	80.4031	52.7344	80.3417	52.7344	80.4667	52.7344	80.4089	52.7344	80.5283	52.7344	80.4758	52.7344	80.5858	52.7344	80.5404	52.7344	80.6357	52.7344	80.5994	52.7344	80.6739	52.7344	80.6485	52.7344	80.6962	52.7344	80.6831	52.7344	80.6996
54.1992	80.1218	54.1992	80.128	54.1992	80.1259	54.1992	80.1444	54.1992	80.1401	54.1992	80.1703	54.1992	80.1636	54.1992	80.2046	54.1992	80.1952	54.1992	80.2459	54.1992	80.2336	54.1992	80.2926	54.1992	80.2771	54.1992	80.3432	54.1992	80.3244	54.1992	80.3965	54.1992	80.3742	54.1992	80.4511	54.1992	80.4255	54.1992	80.5062	54.1992	80.4777	54.1992	80.5611	54.1992	80.5303	54.1992	80.615	54.1992	80.5831	54.1992	80.6666	54.1992	80.6351	54.1992	80.7142	54.1992	80.6851	54.1992	80.7551	54.1992	80.7306	54.1992	80.7863	54.1992	80.7685	54.1992	80.8045	54.1992	80.7951	54.1992	80.8076
55.6641	80.2589	55.6641	80.2746	55.6641	80.2548	55.6641	80.3015	55.6641	80.2622	55.6641	80.3387	55.6641	80.2802	55.6641	80.3846	55.6641	80.3074	55.6641	80.4372	55.6641	80.3423	55.6641	80.4942	55.6641	80.383	55.6641	80.5534	55.6641	80.4275	55.6641	80.6124	55.6641	80.4743	55.6641	80.6693	55.6641	80.5221	55.6641	80.7226	55.6641	80.57	55.6641	80.7713	55.6641	80.6179	55.6641	80.8146	55.6641	80.6656	55.6641	80.8518	55.6641	80.713	55.6641	80.8819	55.6641	80.7598	55.6641	80.9036	55.6641	80.8045	55.6641	80.9151	55.6641	80.8452	55.6641	80.915	55.6641	80.8788	55.6641	80.9027
58.5938	80.6367	58.5938	80.6398	58.5938	80.6461	58.5938	80.655	58.5938	80.6675	58.5938	80.681	58.5938	80.7	58.5938	80.7164	58.5938	80.7419	58.5938	80.759	58.5938	80.7912	58.5938	80.8062	58.5938	80.8453	58.5938	80.8557	58.5938	80.9015	58.5938	80.9048	58.5938	80.957	58.5938	80.9518	58.5938	81.0094	58.5938	80.9951	58.5938	81.0568	58.5938	81.0341	58.5938	81.0977	58.5938	81.069	58.5938	81.1318	58.5938	81.1001	58.5938	81.1589	58.5938	81.128	58.5938	81.1796	58.5938	81.1527	58.5938	81.1942	58.5938	81.1737	58.5938	81.2028	58.5938	81.1901	58.5938	81.205	58.5938	81.2007
60.0586	80.8124	60.0586	80.8124	60.0586	80.8245	60.0586	80.8242	60.0586	80.8482	60.0586	80.8469	60.0586	80.8822	60.0586	80.8788	60.0586	80.9247	60.0586	80.9176	60.0586	80.9734	60.0586	80.9607	60.0586	81.0254	60.0586	81.0053	60.0586	81.0779	60.0586	81.0486	60.0586	81.1279	60.0586	81.0883	60.0586	81.1728	60.0586	81.123	60.0586	81.2105	60.0586	81.1519	60.0586	81.2398	60.0586	81.1754	60.0586	81.2604	60.0586	81.1946	60.0586	81.273	60.0586	81.2107	60.0586	81.2786	60.0586	81.225	60.0586	81.2791	60.0586	81.238	60.0586	81.2756	60.0586	81.25	60.0586	81.2692	60.0586	81.2605
62.9883	81.0526	62.9883	81.061	62.9883	81.0563	62.9883	81.0809	62.9883	81.0718	62.9883	81.1113	62.9883	81.0978	62.9883	81.15	62.9883	81.1325	62.9883	81.1947	62.9883	81.1733	62.9883	81.2425	62.9883	81.2174	62.9883	81.2902	62.9883	81.2616	62.9883	81.335	62.9883	81.3031	62.9883	81.3741	62.9883	81.3395	62.9883	81.4057	62.9883	81.3689	62.9883	81.4285	62.9883	81.3908	62.9883	81.4426	62.9883	81.4052	62.9883	81.4487	62.9883	81.4133	62.9883	81.4486	62.9883	81.4171	62.9883	81.4444	62.9883	81.4186	62.9883	81.4382	62.9883	81.4198	62.9883	81.4316	62.9883	81.422	62.9883	81.426
64.4531	81.0782	64.4531	81.085	64.4531	81.0837	64.4531	81.1038	64.4531	81.1012	64.4531	81.1331	64.4531	81.1295	64.4531	81.1708	64.4531	81.1664	64.4531	81.2143	64.4531	81.2093	64.4531	81.2604	64.4531	81.255	64.4531	81.3056	64.4531	81.3001	64.4531	81.3468	64.4531	81.3415	64.4531	81.3811	64.4531	81.3765	64.4531	81.4065	64.4531	81.4031	64.4531	81.4222	64.4531	81.4205	64.4531	81.4285	64.4531	81.4289	64.4531	81.427	64.4531	81.4295	64.4531	81.4202	64.4531	81.4244	64.4531	81.4113	64.4531	81.4161	64.4531	81.4032	64.4531	81.4073	64.4531	81.398	64.4531	81.4004	64.4531	81.397
67.3828	81.2497	67.3828	81.2444	67.3828	81.2668	67.3828	81.2511	67.3828	81.2949	67.3828	81.2687	67.3828	81.3323	67.3828	81.2956	67.3828	81.3765	67.3828	81.3291	67.3828	81.4245	67.3828	81.3663	67.3828	81.473	67.3828	81.4036	67.3828	81.5186	67.3828	81.4375	67.3828	81.5579	67.3828	81.465	67.3828	81.5882	67.3828	81.4837	67.3828	81.6076	67.3828	81.4929	67.3828	81.615	67.3828	81.4929	67.3828	81.6105	67.3828	81.486	67.3828	81.5955	67.3828	81.4757	67.3828	81.5725	67.3828	81.4659	67.3828	81.545	67.3828	81.4605	67.3828	81.5168	67.3828	81.4625	67.3828	81.4918	67.3828	81.473
68.8477	81.2693	68.8477	81.2642	68.8477	81.2867	68.8477	81.2709	68.8477	81.3156	68.8477	81.2884	68.8477	81.3549	68.8477	81.3148	68.8477	81.4025	68.8477	81.3476	68.8477	81.4554	68.8477	81.3839	68.8477	81.5102	68.8477	81.4203	68.8477	81.563	68.8477	81.4534	68.8477	81.61	68.8477	81.4803	68.8477	81.6475	68.8477	81.4988	68.8477	81.6727	68.8477	81.508	68.8477	81.6838	68.8477	81.5085	68.8477	81.6803	68.8477	81.5027	68.8477	81.6634	68.8477	81.494	68.8477	81.6358	68.8477	81.4866	68.8477	81.6017	68.8477	81.4847	68.8477	81.5659	68.8477	81.4912	68.8477	81.5332	68.8477	81.5076
71.7773	81.5503	71.7773	81.5485	71.7773	81.5609	71.7773	81.5552	71.7773	81.5802	71.7773	81.5692	71.7773	81.6073	71.7773	81.5888	71.7773	81.6405	71.7773	81.6117	71.7773	81.6775	71.7773	81.635	71.7773	81.7154	71.7773	81.6555	71.7773	81.7506	71.7773	81.6699	71.7773	81.7792	71.7773	81.6756	71.7773	81.7976	71.7773	81.6705	71.7773	81.8027	71.7773	81.6542	71.7773	81.7925	71.7773	81.6278	71.7773	81.7669	71.7773	81.5943	71.7773	81.7275	71.7773	81.5585	71.7773	81.6783	71.7773	81.5262	71.7773	81.6249	71.7773	81.5036	71.7773	81.574	71.7773	81.4956	71.7773	81.5324	71.7773	81.5052
74.707	81.7852	74.707	81.7768	74.707	81.8011	74.707	81.7761	74.707	81.8241	74.707	81.7822	74.707	81.8529	74.707	81.7937	74.707	81.8858	74.707	81.8087	74.707	81.9201	74.707	81.8242	74.707	81.9529	74.707	81.8372	74.707	81.9805	74.707	81.8442	74.707	81.9991	74.707	81.8419	74.707	82.005	74.707	81.8281	74.707	81.9951	74.707	81.8017	74.707	81.9679	74.707	81.7636	74.707	81.9236	74.707	81.7169	74.707	81.8645	74.707	81.6669	74.707	81.7959	74.707	81.6208	74.707	81.7247	74.707	81.5862	74.707	81.6593	74.707	81.5702	74.707	81.608	74.707	81.5772
77.6367	81.8744	77.6367	81.8741	77.6367	81.8813	77.6367	81.8798	77.6367	81.8946	77.6367	81.8905	77.6367	81.9136	77.6367	81.9045	77.6367	81.9366	77.6367	81.9193	77.6367	81.9612	77.6367	81.9324	77.6367	81.9845	77.6367	81.9404	77.6367	82.0027	77.6367	81.9403	77.6367	82.0121	77.6367	81.9289	77.6367	82.0091	77.6367	81.9042	77.6367	81.9907	77.6367	81.8655	77.6367	81.9556	77.6367	81.8139	77.6367	81.9041	77.6367	81.753	77.6367	81.839	77.6367	81.6886	77.6367	81.7656	77.6367	81.6284	77.6367	81.6915	77.6367	81.5808	77.6367	81.6257	77.6367	81.5535	77.6367	81.5768	77.6367	81.5518
79.1016	81.8653	79.1016	81.8667	79.1016	81.8698	79.1016	81.8736	79.1016	81.88	79.1016	81.8847	79.1016	81.8954	79.1016	81.8984	79.1016	81.9143	79.1016	81.9122	79.1016	81.9346	79.1016	81.9232	79.1016	81.9532	79.1016	81.9281	79.1016	81.9667	79.1016	81.9236	79.1016	81.9711	79.1016	81.9065	79.1016	81.963	79.1016	81.875	79.1016	81.9395	79.1016	81.8284	79.1016	81.8991	79.1016	81.7684	79.1016	81.8423	79.1016	81.699	79.1016	81.772	79.1016	81.6266	79.1016	81.6938	79.1016	81.5593	79.1016	81.6156	79.1016	81.5061	79.1016	81.5467	79.1016	81.475	79.1016	81.4963	79.1016	81.4713
82.0312	81.7994	82.0312	81.8046	82.0312	81.8003	82.0312	81.8155	82.0312	81.8072	82.0312	81.8309	82.0312	81.8192	82.0312	81.8489	82.0312	81.8347	82.0312	81.867	82.0312	81.8516	82.0312	81.8818	82.0312	81.8668	82.0312	81.8898	82.0312	81.877	82.0312	81.887	82.0312	81.8784	82.0312	81.8702	82.0312	81.8677	82.0312	81.8372	82.0312	81.8421	82.0312	81.7877	82.0312	81.8004	82.0312	81.7234	82.0312	81.7432	82.0312	81.6488	82.0312	81.6735	82.0312	81.5708	82.0312	81.597	82.0312	81.4978	82.0312	81.5218	82.0312	81.4387	82.0312	81.4571	82.0312	81.4018	82.0312	81.4117	82.0312	81.3923
84.9609	81.8195	84.9609	81.825	84.9609	81.8187	84.9609	81.835	84.9609	81.8224	84.9609	81.8487	84.9609	81.8299	84.9609	81.8648	84.9609	81.8401	84.9609	81.8815	84.9609	81.8513	84.9609	81.8959	84.9609	81.8612	84.9609	81.905	84.9609	81.8667	84.9609	81.9052	84.9609	81.8647	84.9609	81.8932	84.9609	81.8519	84.9609	81.8663	84.9609	81.8256	84.9609	81.8231	84.9609	81.7843	84.9609	81.7643	84.9609	81.7284	84.9609	81.693	84.9609	81.6612	84.9609	81.6151	84.9609	81.5883	84.9609	81.5388	84.9609	81.5179	84.9609	81.4737	84.9609	81.4594	84.9609	81.4288	84.9609	81.4216	84.9609	81.4106
87.8906	81.8823	87.8906	81.8939	87.8906	81.8736	87.8906	81.908	87.8906	81.8678	87.8906	81.9241	87.8906	81.8648	87.8906	81.941	87.8906	81.864	87.8906	81.9572	87.8906	81.8646	87.8906	81.9699	87.8906	81.8648	87.8906	81.9761	87.8906	81.8624	87.8906	81.972	87.8906	81.854	87.8906	81.9538	87.8906	81.8365	87.8906	81.9185	87.8906	81.8068	87.8906	81.8645	87.8906	81.7628	87.8906	81.7924	87.8906	81.7044	87.8906	81.7063	87.8906	81.6342	87.8906	81.6129	87.8906	81.5578	87.8906	81.5221	87.8906	81.4833	87.8906	81.445	87.8906	81.4209	87.8906	81.3919	87.8906	81.3804	87.8906	81.3696
90.8203	82.0986	90.8203	82.0983	90.8203	82.0985	90.8203	82.0974	90.8203	82.0977	90.8203	82.0954	90.8203	82.0953	90.8203	82.0907	90.8203	82.0899	90.8203	82.0814	90.8203	82.0796	90.8203	82.0646	90.8203	82.062	90.8203	82.0369	90.8203	82.0341	90.8203	81.9946	90.8203	81.9928	90.8203	81.9345	90.8203	81.935	90.8203	81.8544	90.8203	81.8586	90.8203	81.7541	90.8203	81.763	90.8203	81.6361	90.8203	81.6501	90.8203	81.5064	90.8203	81.5249	90.8203	81.3746	90.8203	81.3957	90.8203	81.2529	90.8203	81.2737	90.8203	81.1549	90.8203	81.1717	90.8203	81.0927	90.8203	81.1021	90.8203	81.0744
95.2148	81.7245	95.2148	81.7263	95.2148	81.7256	95.2148	81.731	95.2148	81.7297	95.2148	81.7383	95.2148	81.7363	95.2148	81.7474	95.2148	81.7448	95.2148	81.7568	95.2148	81.7539	95.2148	81.7639	95.2148	81.7615	95.2148	81.7656	95.2148	81.7645	95.2148	81.7578	95.2148	81.7594	95.2148	81.7365	95.2148	81.742	95.2148	81.6984	95.2148	81.7088	95.2148	81.6418	95.2148	81.6576	95.2148	81.5674	95.2148	81.5884	95.2148	81.4794	95.2148	81.504	95.2148	81.3852	95.2148	81.4111	95.2148	81.295	95.2148	81.3191	95.2148	81.2208	95.2148	81.2394	95.2148	81.1734	95.2148	81.1836	95.2148	81.1603
98.1445	81.6901	98.1445	81.6872	98.1445	81.6944	98.1445	81.6861	98.1445	81.6994	98.1445	81.687	98.1445	81.7047	98.1445	81.6897	98.1445	81.7093	98.1445	81.6934	98.1445	81.7122	98.1445	81.6961	98.1445	81.7115	98.1445	81.695	98.1445	81.7048	98.1445	81.6862	98.1445	81.6892	98.1445	81.6656	98.1445	81.6616	98.1445	81.6296	98.1445	81.6195	98.1445	81.5758	98.1445	81.5613	98.1445	81.5042	98.1445	81.4873	98.1445	81.418	98.1445	81.4008	98.1445	81.3238	98.1445	81.308	98.1445	81.2313	98.1445	81.2182	98.1445	81.1522	98.1445	81.1429	98.1445	81.098	98.1445	81.0932	98.1445	81.0772
101.074	81.5778	101.074	81.5804	101.074	81.5771	101.074	81.5842	101.074	81.579	101.074	81.5885	101.074	81.5839	101.074	81.5924	101.074	81.5917	101.074	81.5948	101.074	81.6012	101.074	81.5941	101.074	81.6103	101.074	81.5879	101.074	81.6155	101.074	81.5735	101.074	81.6128	101.074	81.5479	101.074	81.598	101.074	81.5086	101.074	81.5678	101.074	81.4546	101.074	81.5202	101.074	81.3867	101.074	81.4553	101.074	81.3087	101.074	81.3763	101.074	81.2268	101.074	81.289	101.074	81.1501	101.074	81.2022	101.074	81.0885	101.074	81.1261	101.074	81.0514	101.074	81.0711	101.074	81.045
105.469	81.8557	105.469	81.8578	105.469	81.846	105.469	81.8521	105.469	81.8295	105.469	81.8389	105.469	81.8076	105.469	81.8185	105.469	81.7818	105.469	81.791	105.469	81.7532	105.469	81.7557	105.469	81.7219	105.469	81.711	105.469	81.6867	105.469	81.6545	105.469	81.6445	105.469	81.5833	105.469	81.5913	105.469	81.4953	105.469	81.523	105.469	81.3899	105.469	81.4363	105.469	81.269	105.469	81.3307	105.469	81.1384	105.469	81.2095	105.469	81.0074	105.469	81.0801	105.469	80.8885	105.469	80.9541	105.469	80.7953	105.469	80.845	105.469	80.7398	105.469	80.7666	105.469	80.7298
108.398	81.9931	108.398	81.9783	108.398	81.9969	108.398	81.9536	108.398	81.9891	108.398	81.9207	108.398	81.9698	108.398	81.8807	108.398	81.9396	108.398	81.8346	108.398	81.8993	108.398	81.7823	108.398	81.8492	108.398	81.7226	108.398	81.7892	108.398	81.6534	108.398	81.7183	108.398	81.5722	108.398	81.6349	108.398	81.4768	108.398	81.5374	108.398	81.3664	108.398	81.4253	108.398	81.2426	108.398	81.2998	108.398	81.1104	108.398	81.1649	108.398	80.9784	108.398	81.0283	108.398	80.858	108.398	80.9004	108.398	80.7623	108.398	80.7935	108.398	80.703	108.398	80.7196	108.398	80.6881
112.793	82.0534	112.793	82.0407	112.793	82.0526	112.793	82.015	112.793	82.0382	112.793	81.9777	112.793	82.0112	112.793	81.9301	112.793	81.9729	112.793	81.8736	112.793	81.9246	112.793	81.8089	112.793	81.8674	112.793	81.7359	112.793	81.8016	112.793	81.6538	112.793	81.7268	112.793	81.5613	112.793	81.6414	112.793	81.4574	112.793	81.5439	112.793	81.3419	112.793	81.4334	112.793	81.2171	112.793	81.3106	112.793	81.0877	112.793	81.1791	112.793	80.9617	112.793	81.0458	112.793	80.8496	112.793	80.9202	112.793	80.7629	112.793	80.8142	112.793	80.7119	112.793	80.739	112.793	80.7035
117.188	82.0556	117.188	82.0549	117.188	82.042	117.188	82.0412	117.188	82.0131	117.188	82.0156	117.188	81.9684	117.188	81.9788	117.188	81.9074	117.188	81.931	117.188	81.83	117.188	81.8711	117.188	81.7363	117.188	81.7972	117.188	81.6263	117.188	81.7063	117.188	81.5	117.188	81.5955	117.188	81.3581	117.188	81.4627	117.188	81.202	117.188	81.3078	117.188	81.0345	117.188	81.1335	117.188	80.8609	117.188	80.9464	117.188	80.6891	117.188	80.7572	117.188	80.5297	117.188	80.5793	117.188	80.3951	117.188	80.4275	117.188	80.2979	117.188	80.3158	117.188	80.2489	117.188	80.2545
120.117	82.1635	120.117	82.1454	120.117	82.1688	120.117	82.1155	120.117	82.1607	120.117	82.0744	120.117	82.1385	120.117	82.0227	120.117	82.1013	120.117	81.9599	120.117	82.048	120.117	81.8848	120.117	81.9769	120.117	81.795	120.117	81.8857	120.117	81.6874	120.117	81.7721	120.117	81.5589	120.117	81.6341	120.117	81.4077	120.117	81.4711	120.117	81.2339	120.117	81.2844	120.117	81.0413	120.117	81.0789	120.117	80.8381	120.117	80.8636	120.117	80.6365	120.117	80.6518	120.117	80.4527	120.117	80.4601	120.117	80.304	120.117	80.3065	120.117	80.2068	120.117	80.2072	120.117	80.1729
124.512	81.8542	124.512	81.8482	124.512	81.8494	124.512	81.8316	124.512	81.8347	124.512	81.8048	124.512	81.8112	124.512	81.7685	124.512	81.7801	124.512	81.7231	124.512	81.7421	124.512	81.6683	124.512	81.6965	124.512	81.6025	124.512	81.6413	124.512	81.5235	124.512	81.5728	124.512	81.4284	124.512	81.4868	124.512	81.315	124.512	81.3795	124.512	81.1827	124.512	81.2494	124.512	81.0337	124.512	81.0984	124.512	80.8741	124.512	80.9329	124.512	80.7142	124.512	80.764	124.512	80.5676	124.512	80.6063	124.512	80.4496	124.512	80.4759	124.512	80.3747	124.512	80.3879	124.512	80.3529
128.906	81.7577	128.906	81.7479	128.906	81.7564	128.906	81.7277	128.906	81.7439	128.906	81.6989	128.906	81.7212	128.906	81.6633	128.906	81.6899	128.906	81.6224	128.906	81.6516	128.906	81.5767	128.906	81.6074	128.906	81.5255	128.906	81.5573	128.906	81.4667	128.906	81.5002	128.906	81.3978	128.906	81.434	128.906	81.3162	128.906	81.3563	128.906	81.2209	128.906	81.2656	128.906	81.1133	128.906	81.1624	128.906	80.9981	128.906	81.0499	128.906	80.8834	128.906	80.9344	128.906	80.7798	128.906	80.8251	128.906	80.6985	128.906	80.7329	128.906	80.6495	128.906	80.6681	128.906	80.639
133.301	81.8428	133.301	81.8419	133.301	81.8274	133.301	81.8241	133.301	81.7972	133.301	81.7903	133.301	81.7548	133.301	81.742	133.301	81.7031	133.301	81.6808	133.301	81.6447	133.301	81.608	133.301	81.5813	133.301	81.5243	133.301	81.5129	133.301	81.4294	133.301	81.4381	133.301	81.3229	133.301	81.3544	133.301	81.2046	133.301	81.2592	133.301	81.0757	133.301	81.151	133.301	80.9396	133.301	81.0306	133.301	80.8026	133.301	80.9017	133.301	80.6735	133.301	80.7712	133.301	80.5628	133.301	80.6488	133.301	80.4808	133.301	80.5451	133.301	80.4359	133.301	80.4702	133.301	80.4324
139.16	81.7653	139.16	81.7705	139.16	81.7404	139.16	81.7568	139.16	81.6963	139.16	81.7264	139.16	81.6348	139.16	81.6818	139.16	81.5589	139.16	81.6252	139.16	81.4721	139.16	81.5579	139.16	81.3773	139.16	81.48	139.16	81.2766	139.16	81.3902	139.16	81.1706	139.16	81.2866	139.16	81.0588	139.16	81.1674	139.16	80.9403	139.16	81.0325	139.16	80.8152	139.16	80.8843	139.16	80.6854	139.16	80.7287	139.16	80.5556	139.16	80.575	139.16	80.4334	139.16	80.4348	139.16	80.328	139.16	80.3198	139.16	80.2488	139.16	80.2397	139.16	80.2045	139.16	80.2007
143.555	81.7065	143.555	81.6983	143.555	81.6928	143.555	81.6691	143.555	81.6577	143.555	81.6215	143.555	81.6033	143.555	81.559	143.555	81.5328	143.555	81.4849	143.555	81.4498	143.555	81.4022	143.555	81.3573	143.555	81.312	143.555	81.257	143.555	81.2143	143.555	81.1495	143.555	81.1077	143.555	81.034	143.555	80.9909	143.555	80.9099	143.555	80.8633	143.555	80.7773	143.555	80.7266	143.555	80.6387	143.555	80.5854	143.555	80.4999	143.555	80.4473	143.555	80.3691	143.555	80.3216	143.555	80.2564	143.555	80.2187	143.555	80.1717	143.555	80.1475	143.555	80.1229	143.555	80.1146
147.949	81.6569	147.949	81.6433	147.949	81.645	147.949	81.605	147.949	81.6087	147.949	81.5444	147.949	81.5511	147.949	81.4654	147.949	81.4764	147.949	81.3719	147.949	81.389	147.949	81.2675	147.949	81.2928	147.949	81.1545	147.949	81.19	147.949	81.0341	147.949	81.0812	147.949	80.9066	147.949	80.9655	147.949	80.7719	147.949	80.8416	147.949	80.6311	147.949	80.7091	147.949	80.4874	147.949	80.5694	147.949	80.3465	147.949	80.4271	147.949	80.2162	147.949	80.2897	147.949	80.1057	147.949	80.1663	147.949	80.0234	147.949	80.0665	147.949	79.976	147.949	79.9984	147.949	79.9674
153.809	81.6401	153.809	81.6282	153.809	81.6235	153.809	81.5884	153.809	81.5795	153.809	81.5233	153.809	81.5114	153.809	81.4367	153.809	81.4235	153.809	81.3329	153.809	81.3206	153.809	81.2157	153.809	81.2072	153.809	81.0883	153.809	81.0863	153.809	80.9521	153.809	80.9591	153.809	80.8076	153.809	80.825	153.809	80.6551	153.809	80.6833	153.809	80.4959	153.809	80.534	153.809	80.3335	153.809	80.3794	153.809	80.1744	153.809	80.2249	153.809	80.0278	153.809	80.0785	153.809	79.9039	153.809	79.9495	153.809	79.8121	153.809	79.8468	153.809	79.759	153.809	79.7779	153.809	79.7477
159.668	81.7385	159.668	81.7283	159.668	81.7165	159.668	81.6871	159.668	81.6634	159.668	81.618	159.668	81.5823	159.668	81.5258	159.668	81.478	159.668	81.4155	159.668	81.3565	159.668	81.2922	159.668	81.2235	159.668	81.1596	159.668	81.084	159.668	81.0198	159.668	80.9414	159.668	80.8736	159.668	80.7974	159.668	80.7214	159.668	80.6524	159.668	80.5642	159.668	80.5068	159.668	80.4054	159.668	80.3621	159.668	80.2513	159.668	80.2223	159.668	80.11	159.668	80.0935	159.668	79.9904	159.668	79.9832	159.668	79.9002	159.668	79.8984	159.668	79.8448	159.668	79.8449	159.668	79.8264
165.527	81.877	165.527	81.8557	165.527	81.8656	165.527	81.8037	165.527	81.8223	165.527	81.7252	165.527	81.7502	165.527	81.6254	165.527	81.6547	165.527	81.5101	165.527	81.5421	165.527	81.3843	165.527	81.4189	165.527	81.2519	165.527	81.2902	165.527	81.1157	165.527	81.1593	165.527	80.9774	165.527	81.0274	165.527	80.8391	165.527	80.8949	165.527	80.7035	165.527	80.7624	165.527	80.5742	165.527	80.6321	165.527	80.456	165.527	80.508	165.527	80.3537	165.527	80.3962	165.527	80.2715	165.527	80.3026	165.527	80.2124	165.527	80.2321	165.527	80.1781	165.527	80.1875	165.527	80.1695
171.387	81.8929	171.387	81.8641	171.387	81.8825	171.387	81.798	171.387	81.8344	171.387	81.699	171.387	81.7527	171.387	81.5738	171.387	81.6444	171.387	81.4305	171.387	81.5174	171.387	81.2773	171.387	81.3799	171.387	81.1212	171.387	81.2382	171.387	80.968	171.387	81.0965	171.387	80.8215	171.387	80.9562	171.387	80.6841	171.387	80.8175	171.387	80.5583	171.387	80.6811	171.387	80.4466	171.387	80.5498	171.387	80.3515	171.387	80.4291	171.387	80.2752	171.387	80.3258	171.387	80.218	171.387	80.2454	171.387	80.1789	171.387	80.1904	171.387	80.1562	171.387	80.1595	171.387	80.1492
177.246	81.9028	177.246	81.894	177.246	81.8698	177.246	81.843	177.246	81.7976	177.246	81.752	177.246	81.6912	177.246	81.6245	177.246	81.5573	177.246	81.4655	177.246	81.4035	177.246	81.2806	177.246	81.2376	177.246	81.0757	177.246	81.0661	177.246	80.8578	177.246	80.8941	177.246	80.6345	177.246	80.7249	177.246	80.4151	177.246	80.5606	177.246	80.2103	177.246	80.4032	177.246	80.0317	177.246	80.2557	177.246	79.8892	177.246	80.1223	177.246	79.789	177.246	80.0071	177.246	79.731	177.246	79.9127	177.246	79.7097	177.246	79.8389	177.246	79.716	177.246	79.7829	177.246	79.7419
183.105	81.5938	183.105	81.6059	183.105	81.5411	183.105	81.5771	183.105	81.4512	183.105	81.5098	183.105	81.3304	183.105	81.4081	183.105	81.1869	183.105	81.2771	183.105	81.0301	183.105	81.1217	183.105	80.8684	183.105	80.9463	183.105	80.7078	183.105	80.755	183.105	80.5514	183.105	80.5525	183.105	80.3991	183.105	80.3452	183.105	80.25	183.105	80.1422	183.105	80.1044	183.105	79.9548	183.105	79.9652	183.105	79.7943	183.105	79.8382	183.105	79.6696	183.105	79.7298	183.105	79.584	183.105	79.6446	183.105	79.5351	183.105	79.583	183.105	79.5163	183.105	79.5425	183.105	79.5202
188.965	81.5803	188.965	81.5938	188.965	81.5194	188.965	81.5608	188.965	81.4127	188.965	81.4849	188.965	81.2653	188.965	81.3717	188.965	81.0846	188.965	81.2276	188.965	80.8809	188.965	81.0596	188.965	80.6654	188.965	80.8738	188.965	80.4494	188.965	80.676	188.965	80.2426	188.965	80.4724	188.965	80.052	188.965	80.2702	188.965	79.8829	188.965	80.0792	188.965	79.7395	188.965	79.9104	188.965	79.6268	188.965	79.7742	188.965	79.5491	188.965	79.6766	188.965	79.5075	188.965	79.6161	188.965	79.4975	188.965	79.5833	188.965	79.509	188.965	79.5649	188.965	79.5293	188.965	79.5488
196.289	81.8238	196.289	81.809	196.289	81.7899	196.289	81.7469	196.289	81.7086	196.289	81.642	196.289	81.5834	196.289	81.5015	196.289	81.4195	196.289	81.3349	196.289	81.223	196.289	81.1516	196.289	81.0012	196.289	80.9599	196.289	80.7615	196.289	80.7653	196.289	80.5113	196.289	80.5709	196.289	80.2579	196.289	80.3784	196.289	80.0087	196.289	80.1903	196.289	79.7729	196.289	80.0108	196.289	79.5628	196.289	79.8458	196.289	79.3928	196.289	79.7002	196.289	79.2755	196.289	79.576	196.289	79.2164	196.289	79.4713	196.289	79.2106	196.289	79.382	196.289	79.2453	196.289	79.3057
203.613	81.8001	203.613	81.7496	203.613	81.7937	203.613	81.6456	203.613	81.7297	203.613	81.4946	203.613	81.6097	203.613	81.306	203.613	81.4374	203.613	81.0918	203.613	81.2187	203.613	80.8643	203.613	80.9616	203.613	80.6346	203.613	80.6763	203.613	80.4119	203.613	80.3744	203.613	80.2029	203.613	80.0694	203.613	80.0135	203.613	79.7764	203.613	79.8496	203.613	79.5124	203.613	79.7166	203.613	79.2959	203.613	79.6167	203.613	79.1435	203.613	79.5456	203.613	79.0656	203.613	79.4921	203.613	79.0607	203.613	79.4403	203.613	79.1137	203.613	79.3761	203.613	79.2001	203.613	79.2938
210.938	81.9084	210.938	81.8347	210.938	81.9295	210.938	81.7073	210.938	81.9005	210.938	81.5278	210.938	81.8245	210.938	81.3017	210.938	81.7048	210.938	81.039	210.938	81.5449	210.938	80.7533	210.938	81.3489	210.938	80.4599	210.938	81.1208	210.938	80.1729	210.938	80.8646	210.938	79.9037	210.938	80.5847	210.938	79.6614	210.938	80.2879	210.938	79.4538	210.938	79.9854	210.938	79.2885	210.938	79.6951	210.938	79.1705	210.938	79.4392	210.938	79.0983	210.938	79.2386	210.938	79.0617	210.938	79.1052	210.938	79.0447	210.938	79.0361	210.938	79.0327	210.938	79.0153	210.938	79.0204
218.262	81.8539	218.262	81.8242	218.262	81.8342	218.262	81.7426	218.262	81.7693	218.262	81.6084	218.262	81.6649	218.262	81.4233	218.262	81.5274	218.262	81.1912	218.262	81.3633	218.262	80.9185	218.262	81.1782	218.262	80.6144	218.262	80.9761	218.262	80.291	218.262	80.7601	218.262	79.9636	218.262	80.5325	218.262	79.6512	218.262	80.2969	218.262	79.3755	218.262	80.0599	218.262	79.159	218.262	79.8326	218.262	79.018	218.262	79.629	218.262	78.9559	218.262	79.4616	218.262	78.9597	218.262	79.336	218.262	79.0045	218.262	79.2475	218.262	79.0649	218.262	79.1824	218.262	79.1249
225.586	81.8912	225.586	81.8871	225.586	81.8357	225.586	81.8234	225.586	81.7229	225.586	81.702	225.586	81.5572	225.586	81.5274	225.586	81.3462	225.586	81.3068	225.586	81.1012	225.586	81.0499	225.586	80.8366	225.586	80.7676	225.586	80.5688	225.586	80.4715	225.586	80.3137	225.586	80.1745	225.586	80.085	225.586	79.8924	225.586	79.8923	225.586	79.6446	225.586	79.7406	225.586	79.4525	225.586	79.6319	225.586	79.3333	225.586	79.5645	225.586	79.2915	225.586	79.5328	225.586	79.3144	225.586	79.5258	225.586	79.3753	225.586	79.528	225.586	79.4433	225.586	79.5224	225.586	79.4955
232.91	82.2102	232.91	82.1784	232.91	82.1752	232.91	82.0852	232.91	82.0692	232.91	81.9369	232.91	81.8904	232.91	81.7403	232.91	81.6407	232.91	81.5024	232.91	81.3252	232.91	81.2309	232.91	80.9526	232.91	80.9329	232.91	80.5365	232.91	80.6151	232.91	80.0978	232.91	80.2868	232.91	79.668	232.91	79.9633	232.91	79.2882	232.91	79.6696	232.91	79.002	232.91	79.4373	232.91	78.84	232.91	79.2931	232.91	78.8061	232.91	79.2433	232.91	78.8758	232.91	79.266	232.91	79.0061	232.91	79.3183	232.91	79.1512	232.91	79.3546	232.91	79.2721	232.91	79.343
241.699	82.3301	241.699	82.2548	241.699	82.3406	241.699	82.1207	241.699	82.2819	241.699	81.9355	241.699	82.1521	241.699	81.7071	241.699	81.9525	241.699	81.4443	241.699	81.6862	241.699	81.1551	241.699	81.3572	241.699	80.8456	241.699	80.9688	241.699	80.519	241.699	80.5252	241.699	80.1775	241.699	80.036	241.699	79.8273	241.699	79.5247	241.699	79.4843	241.699	79.0355	241.699	79.1768	241.699	78.6319	241.699	78.9395	241.699	78.3753	241.699	78.7966	241.699	78.2914	241.699	78.7445	241.699	78.3509	241.699	78.7475	241.699	78.4859	241.699	78.7537	241.699	78.6248	241.699	78.719
250.488	82.1328	250.488	82.0864	250.488	82.1095	250.488	81.9722	250.488	82.0195	250.488	81.7955	250.488	81.8705	250.488	81.5639	250.488	81.674	250.488	81.2864	250.488	81.4414	250.488	80.9724	250.488	81.1809	250.488	80.6317	250.488	80.8941	250.488	80.2735	250.488	80.576	250.488	79.9061	250.488	80.2208	250.488	79.5387	250.488	79.8309	250.488	79.1864	250.488	79.4268	250.488	78.8751	250.488	79.0523	250.488	78.6405	250.488	78.763	250.488	78.5122	250.488	78.5987	250.488	78.4918	250.488	78.5567	250.488	78.544	250.488	78.5906	250.488	78.613	250.488	78.638	250.488	78.6509
259.277	82.8377	259.277	82.7972	259.277	82.795	259.277	82.6784	259.277	82.6667	259.277	82.4861	259.277	82.4553	259.277	82.2244	259.277	82.1691	259.277	81.8975	259.277	81.8222	259.277	81.5111	259.277	81.4322	259.277	81.0753	259.277	81.0166	259.277	80.6072	259.277	80.5892	259.277	80.1317	259.277	80.1583	259.277	79.6791	259.277	79.7308	259.277	79.2776	259.277	79.3212	259.277	78.9469	259.277	78.9603	259.277	78.6982	259.277	78.6903	259.277	78.5379	259.277	78.5412	259.277	78.467	259.277	78.5037	259.277	78.4709	259.277	78.529	259.277	78.5144	259.277	78.5582	259.277	78.5537
268.066	82.4742	268.066	82.468	268.066	82.4054	268.066	82.394	268.066	82.2595	268.066	82.2618	268.066	82.0402	268.066	82.0801	268.066	81.7558	268.066	81.8537	268.066	81.4173	268.066	81.5826	268.066	81.0369	268.066	81.2634	268.066	80.6273	268.066	80.8949	268.066	80.202	268.066	80.4856	268.066	79.7759	268.066	80.0619	268.066	79.3673	268.066	79.6687	268.066	79.0024	268.066	79.3561	268.066	78.718	268.066	79.1555	268.066	78.555	268.066	79.0631	268.066	78.5343	268.066	79.0465	268.066	78.6335	268.066	79.0625	268.066	78.7912	268.066	79.0699	268.066	78.9394	268.066	79.0351
276.855	82.4452	276.855	82.3396	276.855	82.4806	276.855	82.1667	276.855	82.4445	276.855	81.9309	276.855	82.3372	276.855	81.6363	276.855	82.1587	276.855	81.2852	276.855	81.9082	276.855	80.8794	276.855	81.584	276.855	80.4236	276.855	81.1859	276.855	79.9321	276.855	80.7187	276.855	79.4352	276.855	80.197	276.855	78.9804	276.855	79.6486	276.855	78.6259	276.855	79.1159	276.855	78.4196	276.855	78.6547	276.855	78.3728	276.855	78.3265	276.855	78.4484	276.855	78.1776	276.855	78.5775	276.855	78.208	276.855	78.6891	276.855	78.3593	276.855	78.7318	276.855	78.5426	276.855	78.6809
287.109	82.3728	287.109	82.3747	287.109	82.3081	287.109	82.3071	287.109	82.1911	287.109	82.1678	287.109	82.0333	287.109	81.9588	287.109	81.8433	287.109	81.683	287.109	81.6243	287.109	81.3429	287.109	81.371	287.109	80.9381	287.109	81.0698	287.109	80.4675	287.109	80.703	287.109	79.9354	287.109	80.2577	287.109	79.3665	287.109	79.7404	287.109	78.8229	287.109	79.1903	287.109	78.4021	287.109	78.6843	287.109	78.1926	287.109	78.3166	287.109	78.2034	287.109	78.1511	287.109	78.3501	287.109	78.1786	287.109	78.515	287.109	78.3235	287.109	78.611	287.109	78.4899	287.109	78.6005
297.363	82.6481	297.363	82.6553	297.363	82.5473	297.363	82.5731	297.363	82.357	297.363	82.4146	297.363	82.0881	297.363	82.198	297.363	81.7563	297.363	81.9378	297.363	81.3806	297.363	81.6338	297.363	80.9792	297.363	81.2677	297.363	80.5643	297.363	80.8096	297.363	80.1388	297.363	80.2369	297.363	79.7011	297.363	79.5571	297.363	79.2598	297.363	78.8373	297.363	78.8473	297.363	78.2212	297.363	78.5195	297.363	77.8874	297.363	78.334	297.363	77.919	297.363	78.317	297.363	78.2135	297.363	78.444	297.363	78.5701	297.363	78.646	297.363	78.8268	297.363	78.8314	297.363	78.9116
307.617	83.0833	307.617	83.0082	307.617	83.088	307.617	82.8638	307.617	83.0207	307.617	82.6547	307.617	82.8778	307.617	82.3907	307.617	82.6519	307.617	82.0876	307.617	82.3344	307.617	81.7621	307.617	81.9192	307.617	81.4215	307.617	81.4055	307.617	81.055	307.617	80.7975	307.617	80.6362	307.617	80.1045	307.617	80.1395	307.617	79.3504	307.617	79.5677	307.617	78.5957	307.617	78.9771	307.617	77.9562	307.617	78.4777	307.617	77.5714	307.617	78.1815	307.617	77.5065	307.617	78.1154	307.617	77.6868	307.617	78.1944	307.617	77.958	307.617	78.2893	307.617	78.1867	307.617	78.3012
319.336	82.5403	319.336	82.4957	319.336	82.4917	319.336	82.3574	319.336	82.3558	319.336	82.1267	319.336	82.1469	319.336	81.8066	319.336	81.8863	319.336	81.4036	319.336	81.5954	319.336	80.9303	319.336	81.2866	319.336	80.4057	319.336	80.9565	319.336	79.8526	319.336	80.5859	319.336	79.2981	319.336	80.147	319.336	78.7757	319.336	79.6207	319.336	78.3275	319.336	79.0267	319.336	78.0039	319.336	78.4551	319.336	77.8558	319.336	78.0561	319.336	77.9077	319.336	77.9443	319.336	78.1189	319.336	78.0891	319.336	78.3843	319.336	78.3439	319.336	78.5879	319.336	78.5619	319.336	78.6539
329.59	82.8306	329.59	82.7793	329.59	82.8162	329.59	82.6731	329.59	82.7254	329.59	82.5181	329.59	82.5528	329.59	82.3118	329.59	82.2979	329.59	82.0435	329.59	81.9619	329.59	81.6964	329.59	81.5438	329.59	81.2478	329.59	81.0404	329.59	80.6735	329.59	80.4466	329.59	79.9606	329.59	79.7578	329.59	79.1356	329.59	78.9752	329.59	78.3003	329.59	78.1345	329.59	77.6438	329.59	77.3592	329.59	77.3593	329.59	76.8839	329.59	77.4858	329.59	76.9079	329.59	77.8683	329.59	77.3588	329.59	78.2898	329.59	77.9476	329.59	78.5802	329.59	78.4167	329.59	78.6366
341.309	82.4489	341.309	82.3909	341.309	82.4272	341.309	82.2537	341.309	82.3372	341.309	82.0506	341.309	82.1988	341.309	81.8025	341.309	82.0342	341.309	81.5284	341.309	81.8584	341.309	81.2337	341.309	81.6698	341.309	80.9023	341.309	81.4474	341.309	80.4993	341.309	81.1559	341.309	79.9867	341.309	80.7567	341.309	79.3471	341.309	80.2189	341.309	78.6173	341.309	79.5352	341.309	77.921	341.309	78.7511	341.309	77.4547	341.309	78.0001	341.309	77.3604	341.309	77.4938	341.309	77.5778	341.309	77.3849	341.309	77.894	341.309	77.604	341.309	78.1101	341.309	77.9186	341.309	78.1204
353.027	82.613	353.027	82.57	353.027	82.5569	353.027	82.4358	353.027	82.398	353.027	82.2243	353.027	82.1379	353.027	81.9542	353.027	81.7855	353.027	81.6462	353.027	81.3581	353.027	81.3149	353.027	80.8735	353.027	80.9572	353.027	80.3378	353.027	80.5424	353.027	79.7398	353.027	80.0148	353.027	79.0617	353.027	79.3213	353.027	78.3064	353.027	78.4606	353.027	77.5371	353.027	77.5482	353.027	76.9139	353.027	76.8567	353.027	76.6591	353.027	76.6904	353.027	76.8766	353.027	77.0703	353.027	77.4121	353.027	77.6887	353.027	77.9849	353.027	78.2138	353.027	78.3735	353.027	78.4606
366.211	82.5228	366.211	82.39	366.211	82.5481	366.211	82.1546	366.211	82.4777	366.211	81.8445	366.211	82.3309	366.211	81.5087	366.211	82.1261	366.211	81.2019	366.211	81.8774	366.211	80.9559	366.211	81.5934	366.211	80.7525	366.211	81.2674	366.211	80.5185	366.211	80.8595	366.211	80.1492	366.211	80.2935	366.211	79.5498	366.211	79.482	366.211	78.6877	366.211	78.3764	366.211	77.6656	366.211	77.0384	366.211	76.7857	366.211	75.7433	366.211	76.4141	366.211	74.9948	366.211	76.5788	366.211	75.1105	366.211	76.9306	366.211	75.7923	366.211	77.1288	366.211	76.5259	366.211	77.0047
379.395	83.3612	379.395	83.2522	379.395	83.3177	379.395	82.9966	379.395	83.1321	379.395	82.6153	379.395	82.8373	379.395	82.1465	379.395	82.493	379.395	81.6425	379.395	82.1731	379.395	81.1533	379.395	81.929	379.395	80.6977	379.395	81.7531	379.395	80.2458	379.395	81.5765	379.395	79.7264	379.395	81.2949	379.395	79.048	379.395	80.7909	379.395	78.1226	379.395	79.9454	379.395	76.9122	379.395	78.6604	379.395	75.5499	379.395	76.9403	379.395	74.5014	379.395	75.1118	379.395	74.2957	379.395	74.0145	379.395	74.7406	379.395	74.1384	379.395	75.179	379.395	74.7854	379.395	75.2161
392.578	83.5194	392.578	83.4404	392.578	83.4036	392.578	83.1798	392.578	83.0916	392.578	82.7611	392.578	82.606	392.578	82.2326	392.578	82.0123	392.578	81.6832	392.578	81.4322	392.578	81.2307	392.578	81.0233	392.578	80.9592	392.578	80.8892	392.578	80.8449	392.578	80.9789	392.578	80.7515	392.578	81.1046	392.578	80.499	392.578	81.0572	392.578	79.9348	392.578	80.6816	392.578	78.9743	392.578	79.8904	392.578	77.6339	392.578	78.6699	392.578	76.0987	392.578	77.1359	392.578	74.8001	392.578	75.6465	392.578	74.1999	392.578	74.7183	392.578	74.2187	392.578	74.4428	392.578	74.3718
405.762	84.5774	405.762	84.4776	405.762	84.4461	405.762	84.132	405.762	84.0927	405.762	83.5261	405.762	83.5169	405.762	82.6551	405.762	82.7111	405.762	81.5469	405.762	81.6838	405.762	80.3082	405.762	80.5215	405.762	79.1857	405.762	79.4832	405.762	78.5259	405.762	78.9664	405.762	78.4769	405.762	79.1228	405.762	78.7845	405.762	79.6274	405.762	79.067	405.762	80.0532	405.762	79.0832	405.762	80.1531	405.762	78.7489	405.762	79.8406	405.762	78.0944	405.762	79.1315	405.762	77.2505	405.762	78.1326	405.762	76.4293	405.762	77.0519	405.762	75.8652	405.762	76.1741	405.762	75.7501
420.41	84.5578	420.41	84.5202	420.41	84.4654	420.41	84.3504	420.41	84.2361	420.41	84.036	420.41	83.8562	420.41	83.5572	420.41	83.3051	420.41	82.8898	420.41	82.5536	420.41	82.012	420.41	81.5664	420.41	80.9145	420.41	80.3204	420.41	79.6218	420.41	78.8537	420.41	78.2456	420.41	77.3553	420.41	77.0752	420.41	76.2469	420.41	76.5329	420.41	75.9672	420.41	76.7345	420.41	76.441	420.41	77.2895	420.41	77.1783	420.41	77.7958	420.41	77.8141	420.41	78.1259	420.41	78.2349	420.41	78.326	420.41	78.4639	420.41	78.4614	420.41	78.5548	420.41	78.5451
435.059	83.2472	435.059	83.1407	435.059	83.2661	435.059	82.9761	435.059	83.1685	435.059	82.7622	435.059	82.9437	435.059	82.4777	435.059	82.6028	435.059	82.0859	435.059	82.1655	435.059	81.5645	435.059	81.6401	435.059	80.9234	435.059	81.0123	435.059	80.1873	435.059	80.2565	435.059	79.3529	435.059	79.369	435.059	78.3789	435.059	78.4049	435.059	77.2707	435.059	77.4896	435.059	76.2358	435.059	76.7792	435.059	75.705	435.059	76.3945	435.059	75.9125	435.059	76.3849	435.059	76.5652	435.059	76.7008	435.059	77.2319	435.059	77.1766	435.059	77.6674	435.059	77.5952	435.059	77.7867
451.172	84.0908	451.172	84.0361	451.172	84.0155	451.172	83.8406	451.172	83.8154	451.172	83.4974	451.172	83.4856	451.172	83.0133	451.172	83.0122	451.172	82.4052	451.172	82.3755	451.172	81.6813	451.172	81.5587	451.172	80.8288	451.172	80.5698	451.172	79.8372	451.172	79.4747	451.172	78.7599	451.172	78.4048	451.172	77.745	451.172	77.4896	451.172	76.9485	451.172	76.7914	451.172	76.4279	451.172	76.3916	451.172	76.2343	451.172	76.4597	451.172	76.491	451.172	77.0196	451.172	77.161	451.172	77.7834	451.172	77.9401	451.172	78.4221	451.172	78.5332	451.172	78.7786	451.172	78.8178
465.82	84.1729	465.82	84.0632	465.82	84.157	465.82	83.8278	465.82	84.0286	465.82	83.4837	465.82	83.8031	465.82	83.0568	465.82	83.4885	465.82	82.5682	465.82	83.0801	465.82	82.0276	465.82	82.5581	465.82	81.4347	465.82	81.8906	465.82	80.7728	465.82	81.0493	465.82	79.9961	465.82	80.031	465.82	79.043	465.82	78.8708	465.82	77.8863	465.82	77.6338	465.82	76.6058	465.82	76.4266	465.82	75.458	465.82	75.4838	465.82	74.8213	465.82	75.1475	465.82	74.8627	465.82	75.4448	465.82	75.334	465.82	75.9432	465.82	75.8634	465.82	76.2433	465.82	76.207
483.398	83.6517	483.398	83.6312	483.398	83.572	483.398	83.5136	483.398	83.3866	483.398	83.2898	483.398	83.0938	483.398	82.9405	483.398	82.6914	483.398	82.4509	483.398	82.1768	483.398	81.8167	483.398	81.554	483.398	81.0318	483.398	80.838	483.398	80.0817	483.398	80.0474	483.398	78.978	483.398	79.2025	483.398	77.8348	483.398	78.3443	483.398	76.9166	483.398	77.5541	483.398	76.5102	483.398	76.9349	483.398	76.6453	483.398	76.572	483.398	77.0791	483.398	76.521	483.398	77.5516	483.398	76.7791	483.398	77.9047	483.398	77.2277	483.398	78.058	483.398	77.6775	483.398	77.9784
499.512	83.4954	499.512	83.4127	499.512	83.4657	499.512	83.2215	499.512	83.3276	499.512	82.9243	499.512	83.0932	499.512	82.5133	499.512	82.7696	499.512	81.9776	499.512	82.3384	499.512	81.3257	499.512	81.7542	499.512	80.5958	499.512	80.9793	499.512	79.8248	499.512	80.0281	499.512	79.0083	499.512	78.9725	499.512	78.1129	499.512	77.8907	499.512	77.1559	499.512	76.8334	499.512	76.3026	499.512	75.908	499.512	75.8523	499.512	75.3816	499.512	75.9676	499.512	75.4798	499.512	76.4632	499.512	76.0501	499.512	77.0186	499.512	76.7312	499.512	77.4032	499.512	77.2575	499.512	77.4955
517.09	83.6255	517.09	83.5023	517.09	83.6467	517.09	83.2976	517.09	83.5553	517.09	83.035	517.09	83.3529	517.09	82.7211	517.09	83.0542	517.09	82.3181	517.09	82.6774	517.09	81.7526	517.09	82.2181	517.09	80.9736	517.09	81.6222	517.09	79.9975	517.09	80.7961	517.09	78.8733	517.09	79.6595	517.09	77.5988	517.09	78.2153	517.09	76.1683	517.09	76.6272	517.09	74.9129	517.09	75.3111	517.09	74.6294	517.09	74.8733	517.09	75.4649	517.09	75.4848	517.09	76.6323	517.09	76.5637	517.09	77.5834	517.09	77.5224	517.09	78.1599	517.09	78.1277	517.09	78.3402
536.133	83.2421	536.133	83.166	536.133	83.1481	536.133	82.9382	536.133	82.8866	536.133	82.5777	536.133	82.4901	536.133	82.1031	536.133	81.9983	536.133	81.5513	536.133	81.4264	536.133	80.9726	536.133	80.7704	536.133	80.3654	536.133	80.049	536.133	79.6185	536.133	79.3051	536.133	78.5898	536.133	78.5224	536.133	77.3031	536.133	77.5985	536.133	76.0705	536.133	76.5338	536.133	75.295	536.133	75.6669	536.133	75.152	536.133	75.4358	536.133	75.6098	536.133	75.7906	536.133	76.4237	536.133	76.4061	536.133	77.2063	536.133	77.0752	536.133	77.7086	536.133	77.6144	536.133	77.8491
555.176	84.0348	555.176	83.9797	555.176	83.9817	555.176	83.7742	555.176	83.849	555.176	83.4139	555.176	83.6289	555.176	82.9513	555.176	83.3004	555.176	82.4435	555.176	82.8515	555.176	81.8718	555.176	82.2599	555.176	81.1372	555.176	81.4588	555.176	80.1394	555.176	80.3346	555.176	78.8089	555.176	78.7713	555.176	77.0323	555.176	76.7137	555.176	74.6474	555.176	74.2372	555.176	72.0373	555.176	71.9046	555.176	71.5138	555.176	71.5806	555.176	73.5091	555.176	73.6634	555.176	75.5834	555.176	75.9124	555.176	77.0691	555.176	77.4256	555.176	77.989	555.176	78.2041	555.176	78.3709
574.219	83.5878	574.219	83.5405	574.219	83.5316	574.219	83.4282	574.219	83.3669	574.219	83.2771	574.219	83.1436	574.219	83.0779	574.219	82.9308	574.219	82.8037	574.219	82.7438	574.219	82.4238	574.219	82.5045	574.219	81.8709	574.219	82.0857	574.219	81.024	574.219	81.385	574.219	79.7596	574.219	80.3254	574.219	78.0101	574.219	78.7717	574.219	75.8303	574.219	76.4975	574.219	73.7309	574.219	73.4764	574.219	73.0608	574.219	71.2095	574.219	74.0521	574.219	72.0588	574.219	75.3194	574.219	74.0062	574.219	76.2512	574.219	75.5234	574.219	76.7982	574.219	76.4867	574.219	76.9042
594.727	82.91	594.727	82.7409	594.727	82.8855	594.727	82.4143	594.727	82.6656	594.727	82.03	594.727	82.3024	594.727	81.7641	594.727	81.9374	594.727	81.7487	594.727	81.7688	594.727	81.9225	594.727	81.874	594.727	82.084	594.727	82.0473	594.727	81.9947	594.727	81.9332	594.727	81.3791	594.727	81.2561	594.727	79.9419	594.727	79.8669	594.727	77.4468	594.727	77.6956	594.727	73.9531	594.727	74.9474	594.727	71.2541	594.727	73.3326	594.727	72.6146	594.727	74.7402	594.727	75.3272	594.727	76.804	594.727	77.323	594.727	78.1201	594.727	78.434	594.727	78.7307	594.727	78.838
615.234	84.2915	615.234	84.1302	615.234	84.1809	615.234	83.7019	615.234	83.805	615.234	83.0351	615.234	83.2005	615.234	82.2349	615.234	82.4685	615.234	81.5319	615.234	81.7901	615.234	81.1774	615.234	81.3689	615.234	81.1336	615.234	81.2688	615.234	81.0346	615.234	81.2793	615.234	80.5246	615.234	81	615.234	79.3915	615.234	80.0277	615.234	77.4136	615.234	78.041	615.234	74.3059	615.234	74.8163	615.234	71.46	615.234	71.0366	615.234	73.748	615.234	71.5771	615.234	77.0583	615.234	75.2041	615.234	79.0238	615.234	77.8835	615.234	79.913	615.234	79.4007	615.234	80.0201
637.207	84.5828	637.207	84.4505	637.207	84.4324	637.207	84.0573	637.207	83.9798	637.207	83.4133	637.207	83.2479	637.207	82.5652	637.207	82.3356	637.207	81.7009	637.207	81.4487	637.207	81.1661	637.207	80.9075	637.207	81.1601	637.207	80.9008	637.207	81.4344	637.207	81.1567	637.207	81.5026	637.207	81.1844	637.207	80.9011	637.207	80.5819	637.207	79.1771	637.207	78.9517	637.207	75.7798	637.207	75.7284	637.207	70.9468	637.207	70.5223	637.207	71.751	637.207	70.2162	637.207	75.7046	637.207	74.7284	637.207	78.3061	637.207	77.6055	637.207	79.686	637.207	79.2622	637.207	79.9724
659.18	85.0857	659.18	84.9327	659.18	84.9198	659.18	84.4653	659.18	84.4396	659.18	83.7131	659.18	83.6528	659.18	82.7227	659.18	82.6007	659.18	81.5725	659.18	81.3904	659.18	80.4506	659.18	80.2353	659.18	79.6994	659.18	79.4765	659.18	79.5298	659.18	79.3039	659.18	79.6135	659.18	79.3958	659.18	79.373	659.18	79.1937	659.18	78.3236	659.18	78.195	659.18	75.9141	659.18	75.7647	659.18	71.327	659.18	70.8465	659.18	68.9807	659.18	68.2717	659.18	74.0554	659.18	73.9707	659.18	77.3342	659.18	77.442	659.18	79.0335	659.18	79.1696	659.18	79.6435
682.617	84.9437	682.617	84.8592	682.617	84.7963	682.617	84.5365	682.617	84.4142	682.617	83.9082	682.617	83.8015	682.617	82.9312	682.617	82.917	682.617	81.7562	682.617	81.785	682.617	80.7759	682.617	80.7224	682.617	80.3426	682.617	80.1858	682.617	80.3585	682.617	80.2264	682.617	80.3435	682.617	80.423	682.617	79.7845	682.617	80.1589	682.617	78.2166	682.617	78.8286	682.617	74.9918	682.617	75.9194	682.617	68.6236	682.617	70.7004	682.617	67.4416	682.617	66.1556	682.617	74.2908	682.617	72.5829	682.617	77.6055	682.617	76.7437	682.617	79.0117	682.617	78.6852	682.617	79.3062
707.52	84.9266	707.52	84.7738	707.52	84.8117	707.52	84.3209	707.52	84.4447	707.52	83.5883	707.52	83.7979	707.52	82.612	707.52	82.8435	707.52	81.3768	707.52	81.5478	707.52	80.0356	707.52	79.9581	707.52	79.3613	707.52	78.7278	707.52	79.942	707.52	78.8617	707.52	80.7228	707.52	79.6522	707.52	80.5758	707.52	79.8864	707.52	79.1424	707.52	79.0489	707.52	76.1545	707.52	76.5981	707.52	70.5768	707.52	70.9346	707.52	68.8293	707.52	65.1546	707.52	75.0318	707.52	73.5114	707.52	78.3176	707.52	77.2378	707.52	79.7249	707.52	79.0419	707.52	79.8646
732.422	84.5354	732.422	84.4157	732.422	84.4709	732.422	84.1031	732.422	84.1739	732.422	83.5235	732.422	83.5935	732.422	82.5714	732.422	82.709	732.422	81.1614	732.422	81.4976	732.422	79.3931	732.422	79.9792	732.422	77.9505	732.422	78.5251	732.422	77.7295	732.422	78.0127	732.422	78.3107	732.422	78.5419	732.422	78.7383	732.422	78.9669	732.422	78.3479	732.422	78.4395	732.422	76.3569	732.422	76.492	732.422	71.0567	732.422	72.0244	732.422	52.4364	732.422	55.5312	732.422	71.3894	732.422	69.9444	732.422	76.4267	732.422	76.1297	732.422	78.6795	732.422	78.6579	732.422	79.3668
757.324	84.2385	757.324	84.0321	757.324	84.2039	757.324	83.6196	757.324	83.9133	757.324	83.0138	757.324	83.3495	757.324	82.1171	757.324	82.4579	757.324	80.7416	757.324	81.1448	757.324	78.8222	757.324	79.3234	757.324	77.0162	757.324	77.284	757.324	77.0324	757.324	76.6182	757.324	78.4967	757.324	77.943	757.324	79.4592	757.324	79.348	757.324	79.1556	757.324	79.7564	757.324	77.3075	757.324	78.6596	757.324	72.9307	757.324	75.2625	757.324	59.9628	757.324	66.3549	757.324	70.6448	757.324	65.1435	757.324	76.2238	757.324	73.7155	757.324	78.3088	757.324	77.0459	757.324	78.4741
785.156	84.6527	785.156	84.872	785.156	84.5373	785.156	85.073	785.156	84.4818	785.156	84.959	785.156	84.3521	785.156	84.3302	785.156	83.9916	785.156	83.2239	785.156	83.2678	785.156	81.6759	785.156	82.0533	785.156	79.4479	785.156	80.223	785.156	76.6839	785.156	77.9234	785.156	76.0643	785.156	76.8354	785.156	77.6222	785.156	78.117	785.156	78.3838	785.156	78.825	785.156	77.5023	785.156	77.458	785.156	74.248	785.156	73.6313	785.156	66.3426	785.156	64.3327	785.156	68.2073	785.156	66.4368	785.156	74.9591	785.156	74.9129	785.156	77.7935	785.156	77.9155	785.156	78.6346
811.523	84.0006	811.523	83.9082	811.523	83.7827	811.523	83.5751	811.523	83.5162	811.523	83.2351	811.523	83.2778	811.523	82.8242	811.523	82.7202	811.523	81.9761	811.523	81.6564	811.523	80.3985	811.523	80.1109	811.523	78.1738	811.523	77.8896	811.523	76.206	811.523	75.467	811.523	76.731	811.523	75.3742	811.523	78.6754	811.523	77.2702	811.523	79.3377	811.523	78.792	811.523	78.1497	811.523	78.954	811.523	74.9963	811.523	76.8747	811.523	68.3523	811.523	71.1	811.523	63.5463	811.523	66.1617	811.523	73.1172	811.523	72.8951	811.523	76.7013	811.523	76.1925	811.523	77.4186
840.82	84.5576	840.82	84.5137	840.82	84.3117	840.82	84.082	840.82	83.9142	840.82	83.3382	840.82	83.5215	840.82	82.6224	840.82	83.1707	840.82	82.0647	840.82	82.6928	840.82	81.0764	840.82	81.8855	840.82	78.8877	840.82	80.4897	840.82	75.2873	840.82	78.0742	840.82	72.9223	840.82	75.6426	840.82	75.2917	840.82	76.7625	840.82	77.616	840.82	78.7951	840.82	78.283	840.82	79.4058	840.82	77.1042	840.82	78.3085	840.82	73.2198	840.82	74.9833	840.82	63.357	840.82	66.7099	840.82	69.5703	840.82	62.9834	840.82	73.9733	840.82	72.1212	840.82	74.5517
870.117	84.6074	870.117	84.2856	870.117	84.7289	870.117	84.0942	870.117	84.3882	870.117	83.9309	870.117	83.748	870.117	83.44	870.117	83.1409	870.117	82.6998	870.117	82.5379	870.117	82.0465	870.117	81.8532	870.117	81.1016	870.117	81.0256	870.117	79.2575	870.117	79.6928	870.117	76.9978	870.117	78.2164	870.117	76.3658	870.117	77.8918	870.117	77.7906	870.117	78.4505	870.117	78.5296	870.117	78.506	870.117	76.7948	870.117	77.27	870.117	71.7208	870.117	74.7563	870.117	62.865	870.117	70.0928	870.117	66.8888	870.117	56.3181	870.117	71.3776	870.117	69.7882	870.117	72.7342
900.879	85.6061	900.879	85.3024	900.879	85.4938	900.879	84.6297	900.879	85.0845	900.879	83.7028	900.879	84.5304	900.879	82.6021	900.879	83.7789	900.879	81.4582	900.879	82.8324	900.879	80.4192	900.879	81.766	900.879	79.2557	900.879	80.4079	900.879	77.7781	900.879	78.6955	900.879	76.8667	900.879	76.677	900.879	76.5701	900.879	75.3399	900.879	75.1366	900.879	75.3889	900.879	73.3633	900.879	75.4123	900.879	72.1891	900.879	74.7308	900.879	67.6162	900.879	72.0729	900.879	56.6117	900.879	68.1186	900.879	69.5621	900.879	70.2883	900.879	73.1956	900.879	73.0957	900.879	74.1608
933.105	84.6846	933.105	84.6116	933.105	84.5285	933.105	84.3833	933.105	83.9594	933.105	83.8486	933.105	83.0437	933.105	82.7952	933.105	82.0383	933.105	81.3281	933.105	81.0336	933.105	80.0105	933.105	80.0208	933.105	78.8132	933.105	78.6258	933.105	76.3509	933.105	76.5432	933.105	73.045	933.105	76.146	933.105	74.7181	933.105	77.5394	933.105	76.8079	933.105	78.1078	933.105	77.115	933.105	78.0879	933.105	75.6325	933.105	76.8035	933.105	72.1891	933.105	72.5684	933.105	61.1133	933.105	58.337	933.105	67.968	933.105	68.1965	933.105	74.1328	933.105	73.2842	933.105	74.962
965.332	86.5706	965.332	86.4223	965.332	86.0972	965.332	85.684	965.332	85.4783	965.332	84.9112	965.332	84.7634	965.332	84.2504	965.332	83.6164	965.332	83.3374	965.332	82.2239	965.332	82.1365	965.332	80.7873	965.332	80.7724	965.332	78.9954	965.332	78.8278	965.332	76.4638	965.332	75.7668	965.332	72.3944	965.332	72.8958	965.332	72.324	965.332	73.4983	965.332	75.2995	965.332	75.3361	965.332	76.4615	965.332	74.7805	965.332	75.8686	965.332	69.3354	965.332	72.8892	965.332	55.898	965.332	66.5155	965.332	68.6449	965.332	65.7619	965.332	73.4001	965.332	72.4264	965.332	74.4594
1,000.49	85.6095	1,000.49	85.3576	1,000.49	85.3463	1,000.49	84.6326	1,000.49	84.71	1,000.49	83.5314	1,000.49	83.8172	1,000.49	82.0365	1,000.49	82.5795	1,000.49	80.4322	1,000.49	81.0513	1,000.49	79.119	1,000.49	79.7708	1,000.49	78.3742	1,000.49	78.178	1,000.49	77.6894	1,000.49	75.2063	1,000.49	76.6322	1,000.49	73.3752	1,000.49	77.1032	1,000.49	74.6148	1,000.49	78.0253	1,000.49	76.277	1,000.49	77.5577	1,000.49	77.3296	1,000.49	76.1771	1,000.49	76.691	1,000.49	73.5935	1,000.49	71.9853	1,000.49	64.6964	1,000.49	52.1601	1,000.49	67.041	1,000.49	69.2647	1,000.49	73.838	1,000.49	74.2918	1,000.49	75.3917
1,035.64	85.0465	1,035.64	84.7228	1,035.64	85.1095	1,035.64	84.2345	1,035.64	84.6365	1,035.64	83.5016	1,035.64	83.584	1,035.64	82.2973	1,035.64	82.2807	1,035.64	80.7296	1,035.64	80.8127	1,035.64	79.1586	1,035.64	79.0227	1,035.64	77.1477	1,035.64	77.4269	1,035.64	74.766	1,035.64	75.7543	1,035.64	72.2	1,035.64	71.2063	1,035.64	73.0126	1,035.64	63.2902	1,035.64	75.5101	1,035.64	69.4009	1,035.64	75.861	1,035.64	71.8011	1,035.64	75.1984	1,035.64	71.6731	1,035.64	73.0574	1,035.64	68.5116	1,035.64	65.8905	1,035.64	51.553	1,035.64	62.4398	1,035.64	68.473	1,035.64	70.7076	1,035.64	72.56	1,035.64	72.9196
1,072.27	84.0478	1,072.27	83.8435	1,072.27	83.7637	1,072.27	83.2859	1,072.27	83.1868	1,072.27	82.5167	1,072.27	82.2925	1,072.27	81.4751	1,072.27	81.0185	1,072.27	80.2801	1,072.27	79.5048	1,072.27	78.8792	1,072.27	78.009	1,072.27	77.823	1,072.27	76.877	1,072.27	77.1327	1,072.27	75.7702	1,072.27	75.3343	1,072.27	73.0956	1,072.27	74.3256	1,072.27	68.7617	1,072.27	75.3059	1,072.27	71.2932	1,072.27	77.262	1,072.27	74.4292	1,072.27	77.1167	1,072.27	74.9284	1,072.27	73.4796	1,072.27	72.8465	1,072.27	67.6725	1,072.27	65.9414	1,072.27	64.954	1,072.27	63.1894	1,072.27	71.9761	1,072.27	71.4502	1,072.27	72.9993
1,108.89	84.2656	1,108.89	84.074	1,108.89	83.9733	1,108.89	83.3407	1,108.89	83.1909	1,108.89	82.4449	1,108.89	82.0103	1,108.89	81.076	1,108.89	80.6521	1,108.89	78.8784	1,108.89	79.1327	1,108.89	76.951	1,108.89	77.6201	1,108.89	74.9436	1,108.89	76.1864	1,108.89	72.5515	1,108.89	75.0514	1,108.89	70.1447	1,108.89	73.1476	1,108.89	68.4408	1,108.89	68.8472	1,108.89	70.3707	1,108.89	65.2072	1,108.89	71.8387	1,108.89	67.1768	1,108.89	72.7451	1,108.89	70.7161	1,108.89	69.7699	1,108.89	68.6502	1,108.89	58.2545	1,108.89	59.1608	1,108.89	61.9014	1,108.89	58.8172	1,108.89	70.379	1,108.89	69.6883	1,108.89	73.026
1,148.44	83.4496	1,148.44	83.1564	1,148.44	83.4881	1,148.44	82.6161	1,148.44	82.8752	1,148.44	81.721	1,148.44	81.4239	1,148.44	80.3388	1,148.44	79.759	1,148.44	78.2877	1,148.44	78.6066	1,148.44	76.7718	1,148.44	77.663	1,148.44	75.7658	1,148.44	76.7693	1,148.44	73.6307	1,148.44	76.0092	1,148.44	70.7636	1,148.44	74.4776	1,148.44	70.6696	1,148.44	71.042	1,148.44	73.3552	1,148.44	69.5872	1,148.44	74.2942	1,148.44	72.174	1,148.44	74.5994	1,148.44	73.5224	1,148.44	73.2497	1,148.44	71.4766	1,148.44	67.3834	1,148.44	62.6509	1,148.44	65.5356	1,148.44	57.6061	1,148.44	71.0863	1,148.44	69.4354	1,148.44	72.9027
1,189.45	83.3256	1,189.45	83.1332	1,189.45	82.9367	1,189.45	82.5616	1,189.45	82.2818	1,189.45	81.6465	1,189.45	81.6319	1,189.45	80.5015	1,189.45	80.6344	1,189.45	78.9632	1,189.45	79.1931	1,189.45	77.5665	1,189.45	78.0132	1,189.45	76.5875	1,189.45	77.4098	1,189.45	76.0338	1,189.45	76.9361	1,189.45	74.4364	1,189.45	76.0542	1,189.45	70.1054	1,189.45	72.8275	1,189.45	72.1655	1,189.45	67.9391	1,189.45	74.2951	1,189.45	69.665	1,189.45	75.3037	1,189.45	71.2743	1,189.45	73.1141	1,189.45	70.8874	1,189.45	65.6629	1,189.45	64.823	1,189.45	54.223	1,189.45	59.3205	1,189.45	68.4172	1,189.45	68.1765	1,189.45	71.4386
1,230.47	83.994	1,230.47	83.7351	1,230.47	83.6335	1,230.47	83.0841	1,230.47	83.0401	1,230.47	82.173	1,230.47	82.3665	1,230.47	81.1799	1,230.47	81.1781	1,230.47	79.8913	1,230.47	79.6632	1,230.47	78.1668	1,230.47	78.586	1,230.47	76.673	1,230.47	77.2413	1,230.47	74.812	1,230.47	76.3536	1,230.47	72.9232	1,230.47	75.8928	1,230.47	67.2524	1,230.47	74.0093	1,230.47	64.411	1,230.47	69.7878	1,230.47	70.6762	1,230.47	68.1949	1,230.47	72.4605	1,230.47	70.1194	1,230.47	70.9344	1,230.47	69.8177	1,230.47	60.2885	1,230.47	62.6693	1,230.47	65.4336	1,230.47	58.0735	1,230.47	70.9398	1,230.47	67.9393	1,230.47	72.0283
1,274.41	84.6743	1,274.41	84.7166	1,274.41	84.1839	1,274.41	84.15	1,274.41	83.5523	1,274.41	83.1892	1,274.41	83.0128	1,274.41	82.3308	1,274.41	82.1185	1,274.41	81.0781	1,274.41	80.4793	1,274.41	79.4962	1,274.41	78.9136	1,274.41	78.9415	1,274.41	77.7141	1,274.41	77.691	1,274.41	77.4271	1,274.41	75.1016	1,274.41	76.2934	1,274.41	71.3529	1,274.41	75.0592	1,274.41	70.6429	1,274.41	74.9909	1,274.41	73.5653	1,274.41	75.2461	1,274.41	74.5031	1,274.41	75.488	1,274.41	72.0933	1,274.41	74.6925	1,274.41	65.5987	1,274.41	73.0376	1,274.41	60.5618	1,274.41	64.6266	1,274.41	70.0231	1,274.41	56.3599	1,274.41	69.4384
1,319.82	85.2787	1,319.82	84.8882	1,319.82	85.0601	1,319.82	84.0234	1,319.82	84.6526	1,319.82	83.2969	1,319.82	83.6669	1,319.82	81.7112	1,319.82	82.1364	1,319.82	79.7173	1,319.82	80.7971	1,319.82	78.0036	1,319.82	79.1218	1,319.82	76.5513	1,319.82	76.14	1,319.82	74.3755	1,319.82	75.1554	1,319.82	73.8453	1,319.82	75.2982	1,319.82	73.8951	1,319.82	72.7454	1,319.82	71.0377	1,319.82	70.6414	1,319.82	67.6563	1,319.82	69.1752	1,319.82	73.2079	1,319.82	71.3564	1,319.82	71.9687	1,319.82	71.1691	1,319.82	63.9586	1,319.82	67.3787	1,319.82	62.0242	1,319.82	62.3647	1,319.82	71.6769	1,319.82	69.9867	1,319.82	72.5388
1,366.7	85.3919	1,366.7	85.0774	1,366.7	84.8973	1,366.7	84.4367	1,366.7	84.1462	1,366.7	83.317	1,366.7	83.5528	1,366.7	81.6071	1,366.7	82.0932	1,366.7	80.6079	1,366.7	80.0562	1,366.7	80.0111	1,366.7	78.3456	1,366.7	78.9985	1,366.7	77.9658	1,366.7	77.9102	1,366.7	77.9835	1,366.7	76.0169	1,366.7	75.2587	1,366.7	71.9496	1,366.7	74.7923	1,366.7	66.7088	1,366.7	73.4198	1,366.7	69.7227	1,366.7	72.7726	1,366.7	70.8021	1,366.7	73.3657	1,366.7	69.4789	1,366.7	72.4439	1,366.7	66.2794	1,366.7	68.661	1,366.7	65.2882	1,366.7	50.6306	1,366.7	72.3705	1,366.7	68.1458	1,366.7	72.3101
1,413.57	85.6501	1,413.57	85.4174	1,413.57	85.336	1,413.57	84.6244	1,413.57	84.3735	1,413.57	83.7799	1,413.57	83.3018	1,413.57	82.4534	1,413.57	81.7487	1,413.57	80.3823	1,413.57	80.3612	1,413.57	78.6108	1,413.57	79.2327	1,413.57	77.4388	1,413.57	77.3774	1,413.57	77.1657	1,413.57	75.2323	1,413.57	75.5773	1,413.57	74.9992	1,413.57	71.798	1,413.57	72.9096	1,413.57	67.7055	1,413.57	70.3827	1,413.57	67.4907	1,413.57	69.9232	1,413.57	72.9533	1,413.57	72.649	1,413.57	73.7637	1,413.57	73.6821	1,413.57	68.4583	1,413.57	68.4653	1,413.57	59.6018	1,413.57	57.271	1,413.57	69.2596	1,413.57	70.7952	1,413.57	73.5121
1,463.38	84.778	1,463.38	84.9176	1,463.38	84.8252	1,463.38	84.4486	1,463.38	83.9611	1,463.38	83.517	1,463.38	83.0164	1,463.38	82.4816	1,463.38	82.2235	1,463.38	80.7641	1,463.38	80.7563	1,463.38	78.9838	1,463.38	79.3524	1,463.38	77.5434	1,463.38	77.4451	1,463.38	76.6943	1,463.38	75.9747	1,463.38	73.2413	1,463.38	74.2296	1,463.38	70.2239	1,463.38	71.8574	1,463.38	69.3258	1,463.38	70.6127	1,463.38	65.2064	1,463.38	68.0472	1,463.38	69.3701	1,463.38	70.339	1,463.38	72.2196	1,463.38	72.8891	1,463.38	66.1701	1,463.38	70.8826	1,463.38	56.1183	1,463.38	65.0851	1,463.38	68.4547	1,463.38	68.1639	1,463.38	70.7242
1,516.11	84.9893	1,516.11	85.1345	1,516.11	84.7304	1,516.11	84.8291	1,516.11	84.3515	1,516.11	83.9238	1,516.11	83.1197	1,516.11	82.2186	1,516.11	82.2807	1,516.11	80.5888	1,516.11	80.914	1,516.11	79.3473	1,516.11	78.7936	1,516.11	77.5899	1,516.11	77.5111	1,516.11	75.423	1,516.11	76.0631	1,516.11	72.9843	1,516.11	73.9889	1,516.11	72.9717	1,516.11	72.394	1,516.11	70.922	1,516.11	71.5314	1,516.11	70.2374	1,516.11	66.5146	1,516.11	71.3401	1,516.11	66.2524	1,516.11	72.9021	1,516.11	72.5646	1,516.11	69.9246	1,516.11	71.4055	1,516.11	50.756	1,516.11	63.5923	1,516.11	64.5288	1,516.11	65.954	1,516.11	71.277
1,568.85	84.0549	1,568.85	84.101	1,568.85	83.7868	1,568.85	83.6632	1,568.85	82.6972	1,568.85	82.0967	1,568.85	82.0033	1,568.85	80.4674	1,568.85	81.4944	1,568.85	79.771	1,568.85	80.1844	1,568.85	79.2022	1,568.85	79.1209	1,568.85	76.1858	1,568.85	77.5578	1,568.85	75.1295	1,568.85	76.8279	1,568.85	75.2066	1,568.85	76.6857	1,568.85	73.0827	1,568.85	74.5015	1,568.85	70.5576	1,568.85	71.8881	1,568.85	67.0747	1,568.85	67.0514	1,568.85	71.0623	1,568.85	69.1607	1,568.85	71.8602	1,568.85	72.4045	1,568.85	70.3831	1,568.85	71.5452	1,568.85	51.2451	1,568.85	69.2774	1,568.85	66.9474	1,568.85	62.0659	1,568.85	67.9904
1,624.51	83.0491	1,624.51	82.8215	1,624.51	83.2575	1,624.51	82.2448	1,624.51	82.4585	1,624.51	81.3251	1,624.51	81.4928	1,624.51	79.51	1,624.51	81.0298	1,624.51	77.8342	1,624.51	79.9728	1,624.51	75.1513	1,624.51	78.3782	1,624.51	74.3716	1,624.51	77.7515	1,624.51	74.1822	1,624.51	77.1438	1,624.51	72.4062	1,624.51	76.4567	1,624.51	71.0286	1,624.51	74.3784	1,624.51	67.4361	1,624.51	71.6446	1,624.51	67.8114	1,624.51	71.5684	1,624.51	71.8851	1,624.51	72.1373	1,624.51	71.0236	1,624.51	70.5447	1,624.51	68.3395	1,624.51	72.612	1,624.51	61.7034	1,624.51	68.4521	1,624.51	66.6279	1,624.51	60.4794	1,624.51	67.5403
1,681.64	83.3308	1,681.64	83.4947	1,681.64	83.3446	1,681.64	82.8518	1,681.64	83.9879	1,681.64	81.9194	1,681.64	82.9594	1,681.64	80.3716	1,681.64	81.6173	1,681.64	80.1898	1,681.64	80.8152	1,681.64	78.5353	1,681.64	80.0366	1,681.64	76.6687	1,681.64	77.3527	1,681.64	74.9568	1,681.64	75.2379	1,681.64	73.9448	1,681.64	75.1076	1,681.64	71.8869	1,681.64	73.5032	1,681.64	69.7412	1,681.64	71.215	1,681.64	66.4246	1,681.64	73.453	1,681.64	68.1391	1,681.64	70.3196	1,681.64	71.7203	1,681.64	68.5239	1,681.64	68.7095	1,681.64	68.6039	1,681.64	53.5755	1,681.64	51.1192	1,681.64	65.0179	1,681.64	63.4325	1,681.64	62.0823
1,741.7	84.655	1,741.7	84.2484	1,741.7	85.2574	1,741.7	83.5008	1,741.7	83.8705	1,741.7	82.91	1,741.7	83.871	1,741.7	82.2811	1,741.7	83.027	1,741.7	79.458	1,741.7	81.402	1,741.7	78.2223	1,741.7	78.9891	1,741.7	77.2051	1,741.7	75.5707	1,741.7	73.8811	1,741.7	75.8946	1,741.7	74.1579	1,741.7	74.716	1,741.7	68.694	1,741.7	75.5228	1,741.7	65.1683	1,741.7	72.7066	1,741.7	62.455	1,741.7	65.0531	1,741.7	70.2298	1,741.7	69.2777	1,741.7	70.1615	1,741.7	72.0123	1,741.7	67.1748	1,741.7	73.4571	1,741.7	61.153	1,741.7	54.2556	1,741.7	65.904	1,741.7	61.654	1,741.7	69.4949
1,803.22	84.5462	1,803.22	84.6048	1,803.22	84.6351	1,803.22	84.0104	1,803.22	84.5254	1,803.22	83.1443	1,803.22	83.9041	1,803.22	80.8239	1,803.22	82.1365	1,803.22	80.9707	1,803.22	80.3359	1,803.22	78.6244	1,803.22	79.9978	1,803.22	75.6191	1,803.22	78.3055	1,803.22	73.2801	1,803.22	76.8213	1,803.22	72.9296	1,803.22	76.1854	1,803.22	70.6174	1,803.22	75.8087	1,803.22	71.5524	1,803.22	73.1802	1,803.22	66.6808	1,803.22	67.4509	1,803.22	58.7842	1,803.22	69.5376	1,803.22	69.9556	1,803.22	72.9992	1,803.22	72.9636	1,803.22	69.6924	1,803.22	63.0998	1,803.22	63.7512	1,803.22	69.8678	1,803.22	44.2301	1,803.22	69.7495
1,866.21	84.1751	1,866.21	83.8405	1,866.21	85.0267	1,866.21	83.7933	1,866.21	83.707	1,866.21	82.653	1,866.21	82.8664	1,866.21	81.2257	1,866.21	81.8336	1,866.21	80.2826	1,866.21	81.2342	1,866.21	79.3134	1,866.21	79.28	1,866.21	77.3289	1,866.21	77.0891	1,866.21	75.7734	1,866.21	75.451	1,866.21	74.8205	1,866.21	74.5988	1,866.21	74.4123	1,866.21	75.4373	1,866.21	71.6484	1,866.21	74.007	1,866.21	71.2224	1,866.21	72.548	1,866.21	67.4253	1,866.21	69.8584	1,866.21	67.0155	1,866.21	74.7798	1,866.21	68.6507	1,866.21	72.2363	1,866.21	62.4908	1,866.21	68.0926	1,866.21	52.9147	1,866.21	57.5475	1,866.21	51.6972
1,932.13	82.9316	1,932.13	82.3544	1,932.13	82.8581	1,932.13	81.6146	1,932.13	82.8425	1,932.13	81.5146	1,932.13	82.5562	1,932.13	81.4584	1,932.13	81.9886	1,932.13	80.2409	1,932.13	80.4307	1,932.13	78.2678	1,932.13	79.1504	1,932.13	76.8616	1,932.13	77.6701	1,932.13	74.1355	1,932.13	74.9905	1,932.13	72.4199	1,932.13	72.5146	1,932.13	72.4997	1,932.13	71.9129	1,932.13	69.9379	1,932.13	69.987	1,932.13	67.3947	1,932.13	66.2448	1,932.13	65.6826	1,932.13	67.191	1,932.13	66.0865	1,932.13	68.4744	1,932.13	70.1626	1,932.13	69.1873	1,932.13	63.3964	1,932.13	65.9134	1,932.13	64.9328	1,932.13	58.1931	1,932.13	68.6144
1,999.51	81.8535	1,999.51	81.2618	1,999.51	81.8949	1,999.51	81.3298	1,999.51	82.0362	1,999.51	80.715	1,999.51	82.0095	1,999.51	80.2512	1,999.51	81.2928	1,999.51	79.4507	1,999.51	80.5884	1,999.51	77.7508	1,999.51	78.8247	1,999.51	75.7126	1,999.51	77.9774	1,999.51	73.4127	1,999.51	75.465	1,999.51	71.8983	1,999.51	72.8936	1,999.51	71.3356	1,999.51	70.9187	1,999.51	69.9218	1,999.51	70.7878	1,999.51	67.4611	1,999.51	66.9978	1,999.51	67.2749	1,999.51	68.0785	1,999.51	65.7285	1,999.51	67.6664	1,999.51	66.0318	1,999.51	67.8454	1,999.51	61.2465	1,999.51	63.6693	1,999.51	67.6656	1,999.51	63.3317	1,999.51	68.5904
2,069.82	81.4003	2,069.82	81.548	2,069.82	81.8025	2,069.82	81.2388	2,069.82	82.072	2,069.82	80.8399	2,069.82	81.8378	2,069.82	80.0256	2,069.82	81.4936	2,069.82	79.1427	2,069.82	80.9195	2,069.82	77.6079	2,069.82	79.801	2,069.82	74.8834	2,069.82	77.7511	2,069.82	73.1489	2,069.82	75.8651	2,069.82	70.4845	2,069.82	72.7317	2,069.82	68.9073	2,069.82	71.2425	2,069.82	67.3394	2,069.82	70.9299	2,069.82	65.7543	2,069.82	67.2462	2,069.82	65.3669	2,069.82	67.5771	2,069.82	65.4231	2,069.82	67.9728	2,069.82	64.6311	2,069.82	68.0887	2,069.82	53.9073	2,069.82	64.1995	2,069.82	65.6364	2,069.82	64.4997	2,069.82	67.0091
2,143.07	81.8535	2,143.07	81.6214	2,143.07	82.0396	2,143.07	81.7889	2,143.07	82.347	2,143.07	81.6105	2,143.07	82.329	2,143.07	80.8548	2,143.07	81.7277	2,143.07	79.4849	2,143.07	80.7026	2,143.07	77.8014	2,143.07	79.5458	2,143.07	75.7498	2,143.07	77.7415	2,143.07	73.236	2,143.07	75.6189	2,143.07	70.1311	2,143.07	73.0062	2,143.07	69.2789	2,143.07	71.3758	2,143.07	68.3179	2,143.07	69.7973	2,143.07	66.2613	2,143.07	68.8328	2,143.07	65.1677	2,143.07	66.7813	2,143.07	64.8315	2,143.07	67.0358	2,143.07	66.5619	2,143.07	68.1867	2,143.07	61.1125	2,143.07	62.5515	2,143.07	59.1096	2,143.07	59.4123	2,143.07	66.7489
2,219.24	81.1306	2,219.24	81.31	2,219.24	81.5539	2,219.24	81.84	2,219.24	81.8968	2,219.24	81.6946	2,219.24	81.8225	2,219.24	81.3759	2,219.24	80.958	2,219.24	80.3376	2,219.24	79.8431	2,219.24	78.4277	2,219.24	78.3519	2,219.24	76.5371	2,219.24	76.493	2,219.24	74.5356	2,219.24	74.0767	2,219.24	72.8523	2,219.24	72.3952	2,219.24	69.5876	2,219.24	70.3107	2,219.24	67.8766	2,219.24	69.7243	2,219.24	67.4546	2,219.24	67.0897	2,219.24	67.2468	2,219.24	66.5469	2,219.24	65.0888	2,219.24	65.876	2,219.24	67.3567	2,219.24	68.2721	2,219.24	64.7434	2,219.24	63.5545	2,219.24	60.4261	2,219.24	61.8906	2,219.24	66.1211
2,296.88	79.8193	2,296.88	80.8482	2,296.88	80.2196	2,296.88	81.2898	2,296.88	80.8657	2,296.88	81.5532	2,296.88	80.7858	2,296.88	80.6255	2,296.88	80.2896	2,296.88	79.4543	2,296.88	79.099	2,296.88	79.0428	2,296.88	77.6858	2,296.88	76.5622	2,296.88	75.4501	2,296.88	74.9076	2,296.88	73.704	2,296.88	72.8669	2,296.88	71.1952	2,296.88	71.0909	2,296.88	68.1488	2,296.88	69.6711	2,296.88	68.0927	2,296.88	68.2883	2,296.88	66.4026	2,296.88	68.3288	2,296.88	66.2194	2,296.88	65.9634	2,296.88	64.9028	2,296.88	66.8902	2,296.88	66.0477	2,296.88	64.5511	2,296.88	64.7045	2,296.88	60.891	2,296.88	57.194	2,296.88	64.1968
2,378.91	79.4476	2,378.91	80.0826	2,378.91	80.1212	2,378.91	80.9001	2,378.91	80.704	2,378.91	80.8383	2,378.91	81.3844	2,378.91	80.1486	2,378.91	80.8088	2,378.91	79.1678	2,378.91	79.8394	2,378.91	77.3129	2,378.91	78.2856	2,378.91	74.9859	2,378.91	76.3124	2,378.91	73.3435	2,378.91	74.1065	2,378.91	71.8546	2,378.91	70.8642	2,378.91	68.9748	2,378.91	69.3408	2,378.91	68.7366	2,378.91	68.1439	2,378.91	67.5483	2,378.91	68.2784	2,378.91	67.6047	2,378.91	65.655	2,378.91	66.1554	2,378.91	65.0267	2,378.91	68.7059	2,378.91	67.2208	2,378.91	65.5895	2,378.91	66.7665	2,378.91	61.6744	2,378.91	57.6763	2,378.91	65.7273
2,462.4	81.6125	2,462.4	81.6877	2,462.4	82.0456	2,462.4	82.0858	2,462.4	82.6987	2,462.4	82.1702	2,462.4	82.7498	2,462.4	81.3746	2,462.4	82.6204	2,462.4	80.0355	2,462.4	81.4554	2,462.4	78.1972	2,462.4	79.4832	2,462.4	75.6167	2,462.4	77.8646	2,462.4	73.7892	2,462.4	75.1479	2,462.4	70.9639	2,462.4	74.3175	2,462.4	68.0675	2,462.4	71.3648	2,462.4	65.3904	2,462.4	68.6068	2,462.4	66.2237	2,462.4	69.5543	2,462.4	66.9162	2,462.4	68.6719	2,462.4	65.1519	2,462.4	67.5056	2,462.4	68.0231	2,462.4	68.8145	2,462.4	67.1175	2,462.4	68.7413	2,462.4	60.5354	2,462.4	62.2109	2,462.4	65.0918
2,548.83	83.0529	2,548.83	83.3271	2,548.83	83.0525	2,548.83	83.5073	2,548.83	83.7377	2,548.83	84.004	2,548.83	83.9188	2,548.83	83.0879	2,548.83	83.5189	2,548.83	81.6486	2,548.83	82.2868	2,548.83	80.0596	2,548.83	80.4872	2,548.83	78.0457	2,548.83	78.3319	2,548.83	75.2078	2,548.83	75.7106	2,548.83	72.4088	2,548.83	73.8655	2,548.83	70.0064	2,548.83	70.8745	2,548.83	67.967	2,548.83	69.4701	2,548.83	68.3052	2,548.83	68.8692	2,548.83	66.072	2,548.83	68.8471	2,548.83	66.5464	2,548.83	68.1541	2,548.83	67.8181	2,548.83	69.7149	2,548.83	68.1829	2,548.83	68.2031	2,548.83	59.2965	2,548.83	60.5477	2,548.83	63.725
2,639.65	82.7887	2,639.65	82.6115	2,639.65	82.8431	2,639.65	83.8343	2,639.65	83.0692	2,639.65	83.9273	2,639.65	83.6246	2,639.65	83.6669	2,639.65	82.9465	2,639.65	82.1047	2,639.65	81.8309	2,639.65	79.8145	2,639.65	80.2699	2,639.65	78.1237	2,639.65	77.6016	2,639.65	75.7386	2,639.65	75.405	2,639.65	73.6484	2,639.65	72.3819	2,639.65	71.2586	2,639.65	72.0471	2,639.65	70.368	2,639.65	68.9375	2,639.65	68.1599	2,639.65	65.9417	2,639.65	69.8824	2,639.65	67.1188	2,639.65	69.2935	2,639.65	67.0979	2,639.65	70.0568	2,639.65	68.8473	2,639.65	70.2641	2,639.65	69.6375	2,639.65	58.9752	2,639.65	61.0159	2,639.65	65.8712
2,731.93	81.6894	2,731.93	82.0543	2,731.93	82.4093	2,731.93	82.8445	2,731.93	82.4958	2,731.93	82.6166	2,731.93	83.0599	2,731.93	82.6758	2,731.93	82.4542	2,731.93	81.8965	2,731.93	81.4363	2,731.93	79.2298	2,731.93	78.9486	2,731.93	77.0687	2,731.93	76.935	2,731.93	76.2354	2,731.93	75.3696	2,731.93	72.2788	2,731.93	72.937	2,731.93	70.5744	2,731.93	70.9042	2,731.93	69.3626	2,731.93	67.2663	2,731.93	67.7755	2,731.93	67.9193	2,731.93	66.8733	2,731.93	64.8974	2,731.93	69.5177	2,731.93	66.8075	2,731.93	67.9108	2,731.93	65.7083	2,731.93	67.3768	2,731.93	69.4873	2,731.93	63.5912	2,731.93	62.8102	2,731.93	65.3383
2,828.61	83.5733	2,828.61	84.0069	2,828.61	83.6954	2,828.61	84.1631	2,828.61	84.6248	2,828.61	84.4737	2,828.61	84.5785	2,828.61	83.345	2,828.61	84.1712	2,828.61	82.0227	2,828.61	82.7516	2,828.61	80.1814	2,828.61	80.6902	2,828.61	78.5611	2,828.61	78.8324	2,828.61	76.0894	2,828.61	76.577	2,828.61	72.8022	2,828.61	74.2346	2,828.61	70.2233	2,828.61	71.0617	2,828.61	69.4224	2,828.61	70.2833	2,828.61	67.6625	2,828.61	69.4551	2,828.61	66.5419	2,828.61	67.8526	2,828.61	69.4643	2,828.61	70.3065	2,828.61	70.2778	2,828.61	67.4787	2,828.61	69.5384	2,828.61	70.3645	2,828.61	66.0567	2,828.61	65.8227	2,828.61	68.6956
2,928.22	84.4448	2,928.22	84.8658	2,928.22	84.4619	2,928.22	85.4483	2,928.22	85.7802	2,928.22	86.0549	2,928.22	85.8368	2,928.22	84.9698	2,928.22	85.5872	2,928.22	83.1079	2,928.22	84.2087	2,928.22	81.8698	2,928.22	82.597	2,928.22	80.2034	2,928.22	80.5586	2,928.22	76.9171	2,928.22	78.1709	2,928.22	75.503	2,928.22	75.5676	2,928.22	72.5031	2,928.22	72.8664	2,928.22	70.592	2,928.22	72.9176	2,928.22	69.9052	2,928.22	70.6223	2,928.22	66.5386	2,928.22	69.6853	2,928.22	70.0747	2,928.22	71.9721	2,928.22	69.3452	2,928.22	70.2402	2,928.22	71.1412	2,928.22	72.7681	2,928.22	66.1507	2,928.22	68.4136	2,928.22	67.6778
3,030.76	83.3339	3,030.76	83.5312	3,030.76	83.6294	3,030.76	84.9255	3,030.76	84.5751	3,030.76	85.5194	3,030.76	85.1559	3,030.76	84.9914	3,030.76	84.8467	3,030.76	83.4158	3,030.76	84.0654	3,030.76	82.0789	3,030.76	82.7404	3,030.76	79.7617	3,030.76	80.5504	3,030.76	76.6415	3,030.76	78.4193	3,030.76	76.6629	3,030.76	76.3134	3,030.76	73.2357	3,030.76	74.174	3,030.76	71.1545	3,030.76	72.2209	3,030.76	70.4392	3,030.76	69.7122	3,030.76	68.9607	3,030.76	69.8969	3,030.76	71.8158	3,030.76	70.5743	3,030.76	71.8447	3,030.76	70.7769	3,030.76	72.6033	3,030.76	72.2544	3,030.76	68.4521	3,030.76	66.5185	3,030.76	69.5031
3,137.7	82.0853	3,137.7	82.5947	3,137.7	83.2398	3,137.7	83.7552	3,137.7	83.2356	3,137.7	84.5313	3,137.7	84.3895	3,137.7	84.3833	3,137.7	84.053	3,137.7	84.3152	3,137.7	83.244	3,137.7	82.3849	3,137.7	81.6443	3,137.7	79.1996	3,137.7	80.0245	3,137.7	78.3221	3,137.7	78.0617	3,137.7	75.7771	3,137.7	75.3888	3,137.7	74.7288	3,137.7	73.8181	3,137.7	71.8192	3,137.7	70.7831	3,137.7	68.8879	3,137.7	69.1655	3,137.7	69.7799	3,137.7	69.6526	3,137.7	71.0065	3,137.7	68.5576	3,137.7	70.5686	3,137.7	71.2871	3,137.7	72.9038	3,137.7	71.0663	3,137.7	63.2462	3,137.7	66.2731	3,137.7	67.9774
3,249.02	83.4041	3,249.02	83.9542	3,249.02	83.2469	3,249.02	84.3594	3,249.02	84.0768	3,249.02	84.7992	3,249.02	84.2973	3,249.02	84.9554	3,249.02	84.2186	3,249.02	84.3078	3,249.02	83.1267	3,249.02	83.0069	3,249.02	82.2741	3,249.02	81.1305	3,249.02	80.9186	3,249.02	79.4354	3,249.02	78.568	3,249.02	76.961	3,249.02	76.0985	3,249.02	74.6002	3,249.02	74.3902	3,249.02	72.2224	3,249.02	71.7781	3,249.02	69.9432	3,249.02	71.132	3,249.02	68.55	3,249.02	68.4137	3,249.02	71.6569	3,249.02	69.2312	3,249.02	71.3444	3,249.02	71.5663	3,249.02	71.7402	3,249.02	72.231	3,249.02	64.8906	3,249.02	65.6122	3,249.02	67.6821
3,363.28	83.5209	3,363.28	83.5363	3,363.28	83.5561	3,363.28	83.5018	3,363.28	83.7139	3,363.28	83.8079	3,363.28	84.0612	3,363.28	83.6592	3,363.28	84.2526	3,363.28	83.3796	3,363.28	83.7853	3,363.28	81.9549	3,363.28	82.5238	3,363.28	81.0771	3,363.28	81.1374	3,363.28	79.2445	3,363.28	78.9233	3,363.28	76.5817	3,363.28	77.5497	3,363.28	73.8136	3,363.28	75.0592	3,363.28	71.9686	3,363.28	71.7967	3,363.28	71.4633	3,363.28	71.3241	3,363.28	69.9563	3,363.28	69.9897	3,363.28	70.2502	3,363.28	70.2402	3,363.28	70.4519	3,363.28	71.5312	3,363.28	71.1377	3,363.28	71.6932	3,363.28	66.618	3,363.28	65.519	3,363.28	68.132
3,481.93	84.1496	3,481.93	83.6238	3,481.93	83.4865	3,481.93	83.3768	3,481.93	83.2819	3,481.93	83.5049	3,481.93	83.5602	3,481.93	84.0796	3,481.93	83.5483	3,481.93	82.8827	3,481.93	83.0848	3,481.93	82.3495	3,481.93	82.9132	3,481.93	81.0868	3,481.93	81.0578	3,481.93	78.6856	3,481.93	78.2872	3,481.93	76.346	3,481.93	76.6345	3,481.93	73.8046	3,481.93	73.8629	3,481.93	71.464	3,481.93	71.497	3,481.93	70.9015	3,481.93	69.9089	3,481.93	70.1365	3,481.93	69.0305	3,481.93	70.1451	3,481.93	69.7309	3,481.93	70.5845	3,481.93	71.75	3,481.93	72.4136	3,481.93	72.3651	3,481.93	63.935	3,481.93	67.7204	3,481.93	67.1972
3,604.98	84.2822	3,604.98	83.3645	3,604.98	83.795	3,604.98	82.5438	3,604.98	82.3223	3,604.98	83.1833	3,604.98	82.7765	3,604.98	83.5014	3,604.98	83.0924	3,604.98	83.2482	3,604.98	83.7973	3,604.98	82.127	3,604.98	82.8993	3,604.98	80.9757	3,604.98	80.814	3,604.98	79.2268	3,604.98	78.794	3,604.98	76.3673	3,604.98	77.1518	3,604.98	73.7076	3,604.98	74.0107	3,604.98	71.5306	3,604.98	72.6678	3,604.98	69.9315	3,604.98	71.0492	3,604.98	70.5642	3,604.98	69.2039	3,604.98	69.4284	3,604.98	68.3072	3,604.98	72.1002	3,604.98	71.0045	3,604.98	72.9274	3,604.98	71.3844	3,604.98	63.6316	3,604.98	67.5582	3,604.98	66.1912
3,732.42	84.8498	3,732.42	83.156	3,732.42	84.7552	3,732.42	81.7035	3,732.42	81.9794	3,732.42	82.5233	3,732.42	82.3249	3,732.42	82.5121	3,732.42	83.4334	3,732.42	83.1955	3,732.42	84.1279	3,732.42	82.3225	3,732.42	83.4202	3,732.42	80.8796	3,732.42	81.3802	3,732.42	78.2621	3,732.42	79.5437	3,732.42	75.8236	3,732.42	77.5832	3,732.42	73.8969	3,732.42	74.3771	3,732.42	71.9186	3,732.42	72.5447	3,732.42	69.2153	3,732.42	70.8459	3,732.42	68.8152	3,732.42	69.5389	3,732.42	69.2382	3,732.42	69.255	3,732.42	72.2776	3,732.42	72.612	3,732.42	72.1546	3,732.42	71.3117	3,732.42	65.0248	3,732.42	68.6034	3,732.42	66.0338
3,864.26	84.2565	3,864.26	83.524	3,864.26	83.4267	3,864.26	81.7479	3,864.26	82.4001	3,864.26	81.6506	3,864.26	82.1193	3,864.26	83.0365	3,864.26	83.7121	3,864.26	83.9452	3,864.26	83.9025	3,864.26	82.7857	3,864.26	82.5505	3,864.26	80.9381	3,864.26	80.5831	3,864.26	78.2563	3,864.26	78.0629	3,864.26	76.0348	3,864.26	75.426	3,864.26	73.7506	3,864.26	72.7662	3,864.26	71.5219	3,864.26	70.3248	3,864.26	68.9691	3,864.26	69.799	3,864.26	67.1236	3,864.26	69.727	3,864.26	67.9222	3,864.26	67.1524	3,864.26	70.949	3,864.26	70.279	3,864.26	70.3979	3,864.26	69.622	3,864.26	65.2456	3,864.26	67.2771	3,864.26	63.2922
4,000.49	83.5696	4,000.49	82.8525	4,000.49	81.7338	4,000.49	80.7229	4,000.49	80.834	4,000.49	80.9097	4,000.49	80.6024	4,000.49	83.0092	4,000.49	82.0456	4,000.49	82.8299	4,000.49	82.0908	4,000.49	81.5113	4,000.49	81.1772	4,000.49	79.408	4,000.49	79.7517	4,000.49	76.5022	4,000.49	77.2842	4,000.49	75.1567	4,000.49	75.106	4,000.49	71.9102	4,000.49	72.3513	4,000.49	71.7478	4,000.49	70.6645	4,000.49	68.8035	4,000.49	66.8898	4,000.49	67.9101	4,000.49	64.7544	4,000.49	65.9075	4,000.49	65.2242	4,000.49	70.9642	4,000.49	70.384	4,000.49	69.1554	4,000.49	68.0469	4,000.49	66.6933	4,000.49	66.337	4,000.49	65.0665
4,141.11	84.421	4,141.11	82.6718	4,141.11	84.1195	4,141.11	81.1483	4,141.11	80.5372	4,141.11	81.5551	4,141.11	80.9322	4,141.11	83.0923	4,141.11	81.7286	4,141.11	82.4775	4,141.11	81.6139	4,141.11	81.3411	4,141.11	81.4698	4,141.11	78.5781	4,141.11	80.1643	4,141.11	75.8125	4,141.11	75.6211	4,141.11	73.395	4,141.11	73.5497	4,141.11	71.6793	4,141.11	71.0472	4,141.11	69.0984	4,141.11	68.2427	4,141.11	67.6555	4,141.11	67.3825	4,141.11	64.1944	4,141.11	68.1063	4,141.11	66.3197	4,141.11	65.6356	4,141.11	70.9714	4,141.11	69.8301	4,141.11	68.9423	4,141.11	66.5022	4,141.11	64.3889	4,141.11	67.4724	4,141.11	64.1342
4,287.6	83.8421	4,287.6	82.6193	4,287.6	83.2411	4,287.6	81.4302	4,287.6	81.5689	4,287.6	80.921	4,287.6	80.7216	4,287.6	81.6137	4,287.6	82.3229	4,287.6	81.926	4,287.6	82.6771	4,287.6	81.0375	4,287.6	81.1434	4,287.6	79.5002	4,287.6	79.2198	4,287.6	77.0807	4,287.6	76.6018	4,287.6	73.8013	4,287.6	73.9616	4,287.6	70.1036	4,287.6	71.0905	4,287.6	68.5438	4,287.6	68.4823	4,287.6	66.5327	4,287.6	66.1959	4,287.6	67.9291	4,287.6	68.0849	4,287.6	62.1705	4,287.6	65.4682	4,287.6	68.5859	4,287.6	68.6712	4,287.6	68.3578	4,287.6	69.1496	4,287.6	63.2354	4,287.6	67.7236	4,287.6	61.6281
4,438.48	83.1857	4,438.48	82.9054	4,438.48	82.4182	4,438.48	80.0743	4,438.48	81.7826	4,438.48	81.1162	4,438.48	81.1618	4,438.48	82.2996	4,438.48	82.5998	4,438.48	81.8507	4,438.48	82.7541	4,438.48	80.9174	4,438.48	80.5545	4,438.48	78.6856	4,438.48	78.6022	4,438.48	75.918	4,438.48	75.8356	4,438.48	72.2636	4,438.48	73.87	4,438.48	69.6294	4,438.48	70.4444	4,438.48	69.8183	4,438.48	69.5748	4,438.48	67.9058	4,438.48	65.8309	4,438.48	68.0778	4,438.48	67.5908	4,438.48	64.4009	4,438.48	65.063	4,438.48	69.9739	4,438.48	69.8051	4,438.48	66.344	4,438.48	68.3149	4,438.48	66.744	4,438.48	66.3871	4,438.48	59.2265
4,595.21	83.5033	4,595.21	82.6081	4,595.21	83.1276	4,595.21	82.5028	4,595.21	81.4074	4,595.21	81.6513	4,595.21	81.9114	4,595.21	82.5968	4,595.21	81.0087	4,595.21	82.8561	4,595.21	80.0449	4,595.21	80.6103	4,595.21	80.1455	4,595.21	78.011	4,595.21	78.6789	4,595.21	75.385	4,595.21	76.7151	4,595.21	73.2372	4,595.21	73.9648	4,595.21	72.178	4,595.21	71.4407	4,595.21	68.1186	4,595.21	68.4166	4,595.21	63.1672	4,595.21	66.8202	4,595.21	64.5189	4,595.21	66.5415	4,595.21	62.6833	4,595.21	65.2729	4,595.21	68.0283	4,595.21	67.78	4,595.21	65.672	4,595.21	64.8494	4,595.21	65.0924	4,595.21	68.1393	4,595.21	64.8588
4,756.35	83.0206	4,756.35	82.5359	4,756.35	82.2803	4,756.35	81.5538	4,756.35	82.116	4,756.35	81.5361	4,756.35	80.6216	4,756.35	81.6643	4,756.35	81.4672	4,756.35	81.6233	4,756.35	81.6669	4,756.35	81.1286	4,756.35	80.3664	4,756.35	80.0313	4,756.35	78.8433	4,756.35	77.2532	4,756.35	77.1471	4,756.35	73.2744	4,756.35	74.9562	4,756.35	72.3222	4,756.35	71.8391	4,756.35	69.227	4,756.35	68.923	4,756.35	66.8732	4,756.35	66.2313	4,756.35	67.2608	4,756.35	66.9104	4,756.35	64.1696	4,756.35	60.4891	4,756.35	67.7601	4,756.35	66.8378	4,756.35	66.7981	4,756.35	68.7701	4,756.35	62.8385	4,756.35	68.1313	4,756.35	62.2533
4,924.8	82.4923	4,924.8	82.912	4,924.8	82.936	4,924.8	82.3512	4,924.8	82.8235	4,924.8	80.8829	4,924.8	81.285	4,924.8	81.0144	4,924.8	81.7832	4,924.8	81.2951	4,924.8	82.0685	4,924.8	80.872	4,924.8	81.6544	4,924.8	79.8375	4,924.8	79.8087	4,924.8	76.5063	4,924.8	77.8067	4,924.8	75.0732	4,924.8	75.2816	4,924.8	71.1131	4,924.8	71.1533	4,924.8	69.7854	4,924.8	68.6374	4,924.8	68.1298	4,924.8	66.7842	4,924.8	68.1152	4,924.8	66.6172	4,924.8	66.0208	4,924.8	66.4126	4,924.8	69.675	4,924.8	67.3537	4,924.8	67.9039	4,924.8	69.133	4,924.8	64.3039	4,924.8	65.4022	4,924.8	57.875
5,097.66	81.8282	5,097.66	82.3083	5,097.66	82.926	5,097.66	83.1411	5,097.66	82.4239	5,097.66	80.7952	5,097.66	81.2538	5,097.66	82.0184	5,097.66	80.4851	5,097.66	82.2904	5,097.66	80.8106	5,097.66	81.7145	5,097.66	80.739	5,097.66	79.7362	5,097.66	79.4863	5,097.66	77.7202	5,097.66	75.8879	5,097.66	75.4197	5,097.66	74.4657	5,097.66	73.2175	5,097.66	71.3108	5,097.66	69.836	5,097.66	68.9755	5,097.66	66.7029	5,097.66	66.4628	5,097.66	67.9427	5,097.66	65.9503	5,097.66	64.8613	5,097.66	64.3303	5,097.66	66.4701	5,097.66	65.9133	5,097.66	67.008	5,097.66	66.3928	5,097.66	64.1268	5,097.66	67.3811	5,097.66	60.9551
5,277.83	81.2353	5,277.83	82.6027	5,277.83	81.8404	5,277.83	81.6267	5,277.83	82.3902	5,277.83	79.8931	5,277.83	78.7432	5,277.83	78.8844	5,277.83	79.4958	5,277.83	80.3026	5,277.83	81.1985	5,277.83	79.6462	5,277.83	80.0438	5,277.83	78.1123	5,277.83	78.3422	5,277.83	76.6169	5,277.83	76.7227	5,277.83	73.1582	5,277.83	72.9113	5,277.83	72.7954	5,277.83	70.5919	5,277.83	69.1995	5,277.83	66.4876	5,277.83	67.0111	5,277.83	67.0606	5,277.83	65.1849	5,277.83	64.3033	5,277.83	67.1891	5,277.83	62.4175	5,277.83	67.0539	5,277.83	65.4324	5,277.83	66.2421	5,277.83	69.1067	5,277.83	61.172	5,277.83	66.2388	5,277.83	57.3411
5,463.87	81.7077	5,463.87	82.7625	5,463.87	82.9391	5,463.87	82.6105	5,463.87	82.3226	5,463.87	79.7419	5,463.87	80.2368	5,463.87	79.5272	5,463.87	78.8085	5,463.87	80.3255	5,463.87	80.252	5,463.87	80.4219	5,463.87	80.5572	5,463.87	79.7515	5,463.87	79.7293	5,463.87	75.5263	5,463.87	74.5454	5,463.87	73.3595	5,463.87	71.4817	5,463.87	61.7092	5,463.87	69.9514	5,463.87	65.6653	5,463.87	67.2945	5,463.87	64.5203	5,463.87	63.6818	5,463.87	63.541	5,463.87	63.1398	5,463.87	58.6786	5,463.87	60.5899	5,463.87	65.4535	5,463.87	65.4163	5,463.87	66.1665	5,463.87	67.3697	5,463.87	62.3783	5,463.87	67.1779	5,463.87	57.7524
5,657.23	81.3185	5,657.23	82.2354	5,657.23	82.042	5,657.23	81.6968	5,657.23	82.4059	5,657.23	79.8238	5,657.23	79.4255	5,657.23	79.0423	5,657.23	78.7411	5,657.23	79.8948	5,657.23	79.2501	5,657.23	78.8714	5,657.23	79.2877	5,657.23	76.0268	5,657.23	76.9327	5,657.23	74.9	5,657.23	73.917	5,657.23	71.9656	5,657.23	71.7358	5,657.23	70.3775	5,657.23	67.6271	5,657.23	66.5194	5,657.23	64.8001	5,657.23	62.8289	5,657.23	63.6145	5,657.23	61.7437	5,657.23	56.2563	5,657.23	63.8987	5,657.23	60.8287	5,657.23	66.1848	5,657.23	62.8419	5,657.23	64.7974	5,657.23	65.3677	5,657.23	60.2949	5,657.23	63.6951	5,657.23	57.6654
5,856.45	81.3392	5,856.45	81.9901	5,856.45	82.2746	5,856.45	81.5406	5,856.45	81.7266	5,856.45	80.0314	5,856.45	80.2369	5,856.45	79.08	5,856.45	78.9285	5,856.45	79.6265	5,856.45	79.4779	5,856.45	78.952	5,856.45	78.5449	5,856.45	77.6284	5,856.45	77.573	5,856.45	73.449	5,856.45	75.1943	5,856.45	68.9229	5,856.45	72.2577	5,856.45	66.7746	5,856.45	66.7341	5,856.45	62.3708	5,856.45	66.2978	5,856.45	62.1477	5,856.45	61.5264	5,856.45	57.348	5,856.45	63.1175	5,856.45	62.9646	5,856.45	60.7171	5,856.45	63.8428	5,856.45	63.9062	5,856.45	63.5438	5,856.45	65.6334	5,856.45	62.7171	5,856.45	64.2612	5,856.45	56.53
6,062.99	82.6605	6,062.99	82.7439	6,062.99	82.6468	6,062.99	82.0908	6,062.99	82.2486	6,062.99	79.9601	6,062.99	80.7281	6,062.99	79.5283	6,062.99	80.1237	6,062.99	79.2648	6,062.99	78.7434	6,062.99	78.4474	6,062.99	78.9347	6,062.99	78.2064	6,062.99	76.9182	6,062.99	73.7523	6,062.99	74.6735	6,062.99	71.4985	6,062.99	73.0997	6,062.99	68.3632	6,062.99	69.0668	6,062.99	65.2245	6,062.99	65.0894	6,062.99	61.3149	6,062.99	63.7532	6,062.99	63.1879	6,062.99	60.5567	6,062.99	55.5373	6,062.99	59.4269	6,062.99	61.5728	6,062.99	59.0133	6,062.99	65.4274	6,062.99	64.9375	6,062.99	61.0779	6,062.99	63.7885	6,062.99	53.7235
6,276.86	82.3853	6,276.86	81.9786	6,276.86	81.8247	6,276.86	81.8433	6,276.86	81.6813	6,276.86	81.1784	6,276.86	80.9562	6,276.86	80.1333	6,276.86	80.1998	6,276.86	79.7811	6,276.86	80.2103	6,276.86	78.9184	6,276.86	78.6158	6,276.86	75.2598	6,276.86	76.9886	6,276.86	74.0546	6,276.86	75.3103	6,276.86	71.0538	6,276.86	72.2794	6,276.86	68.9734	6,276.86	68.8251	6,276.86	67.4894	6,276.86	65.8444	6,276.86	64.2702	6,276.86	65.1682	6,276.86	57.7196	6,276.86	59.8334	6,276.86	61.9337	6,276.86	60.6468	6,276.86	63.6121	6,276.86	62.1937	6,276.86	64.1334	6,276.86	64.2236	6,276.86	62.2488	6,276.86	62.4788	6,276.86	53.442
6,498.05	82.1481	6,498.05	81.1447	6,498.05	81.6965	6,498.05	81.8053	6,498.05	81.7587	6,498.05	81.4541	6,498.05	81.8276	6,498.05	79.7649	6,498.05	79.6621	6,498.05	79.3616	6,498.05	78.4451	6,498.05	79.1452	6,498.05	79.0354	6,498.05	78.066	6,498.05	77.9069	6,498.05	75.4439	6,498.05	74.1156	6,498.05	72.1246	6,498.05	71.1412	6,498.05	68.4524	6,498.05	68.7045	6,498.05	66.9753	6,498.05	65.3484	6,498.05	61.9609	6,498.05	61.2573	6,498.05	56.4588	6,498.05	58.5694	6,498.05	55.3717	6,498.05	56.8024	6,498.05	62.4044	6,498.05	57.6291	6,498.05	64.6103	6,498.05	63.1436	6,498.05	61.856	6,498.05	60.6904	6,498.05	55.0824
6,726.56	81.9918	6,726.56	81.2104	6,726.56	80.9571	6,726.56	82.1141	6,726.56	82.2842	6,726.56	81.9666	6,726.56	81.7989	6,726.56	80.3969	6,726.56	80.2759	6,726.56	78.9235	6,726.56	79.8916	6,726.56	79.3661	6,726.56	79.3594	6,726.56	77.6143	6,726.56	77.6014	6,726.56	75.0542	6,726.56	74.3645	6,726.56	72.0142	6,726.56	71.2031	6,726.56	67.9715	6,726.56	67.9266	6,726.56	65.4652	6,726.56	64.2494	6,726.56	62.674	6,726.56	62.6894	6,726.56	61.4182	6,726.56	49.5232	6,726.56	56.9415	6,726.56	52.2032	6,726.56	61.2815	6,726.56	60.2692	6,726.56	62.5661	6,726.56	63.8727	6,726.56	60.772	6,726.56	60.2794	6,726.56	55.885
6,963.87	81.0697	6,963.87	80.0042	6,963.87	80.7326	6,963.87	80.9703	6,963.87	80.5752	6,963.87	80.865	6,963.87	81.3206	6,963.87	78.8622	6,963.87	78.9152	6,963.87	79.3839	6,963.87	78.7354	6,963.87	78.8164	6,963.87	79.2933	6,963.87	77.6583	6,963.87	77.3937	6,963.87	74.1259	6,963.87	73.4461	6,963.87	70.5524	6,963.87	70.844	6,963.87	66.4153	6,963.87	67.127	6,963.87	64.3115	6,963.87	65.211	6,963.87	62.5538	6,963.87	61.1183	6,963.87	53.7089	6,963.87	55.051	6,963.87	58.0664	6,963.87	54.2691	6,963.87	62.7846	6,963.87	56.5578	6,963.87	62.7185	6,963.87	63.3856	6,963.87	61.849	6,963.87	58.8578	6,963.87	55.8515
7,209.96	81.9019	7,209.96	80.7207	7,209.96	80.7375	7,209.96	81.1533	7,209.96	81.0322	7,209.96	80.9279	7,209.96	80.7223	7,209.96	79.238	7,209.96	79.1771	7,209.96	79.1129	7,209.96	78.9886	7,209.96	78.5794	7,209.96	78.4869	7,209.96	76.3814	7,209.96	75.6367	7,209.96	73.0988	7,209.96	74.1387	7,209.96	70.1368	7,209.96	70.5001	7,209.96	66.2067	7,209.96	66.43	7,209.96	64.8337	7,209.96	63.8027	7,209.96	60.6017	7,209.96	60.1988	7,209.96	54.6799	7,209.96	58.7954	7,209.96	53.9639	7,209.96	52.51	7,209.96	61.2707	7,209.96	59.6996	7,209.96	60.0299	7,209.96	62.7852	7,209.96	55.4777	7,209.96	60.7172	7,209.96	52.7611
7,464.84	81.2964	7,464.84	80.9711	7,464.84	81.25	7,464.84	80.6547	7,464.84	81.1603	7,464.84	80.2372	7,464.84	80.6757	7,464.84	79.2251	7,464.84	79.3789	7,464.84	78.8296	7,464.84	78.9634	7,464.84	78.0877	7,464.84	78.1792	7,464.84	76.0679	7,464.84	76.7035	7,464.84	73.0965	7,464.84	73.1411	7,464.84	69.1319	7,464.84	70.1947	7,464.84	66.5948	7,464.84	66.5237	7,464.84	64.3765	7,464.84	64.3713	7,464.84	60.1211	7,464.84	62.2521	7,464.84	56.8097	7,464.84	60.0137	7,464.84	51.5231	7,464.84	53.6899	7,464.84	60.1662	7,464.84	57.2021	7,464.84	60.3922	7,464.84	63.6808	7,464.84	59.4456	7,464.84	54.2693	7,464.84	53.1275
7,727.05	81.5301	7,727.05	81.3366	7,727.05	81.3232	7,727.05	80.6747	7,727.05	80.6279	7,727.05	80.2803	7,727.05	79.7183	7,727.05	79.3443	7,727.05	79.4211	7,727.05	78.6201	7,727.05	77.7364	7,727.05	77.6445	7,727.05	77.459	7,727.05	75.8985	7,727.05	75.2826	7,727.05	73.2455	7,727.05	72.4552	7,727.05	69.282	7,727.05	68.812	7,727.05	66.1881	7,727.05	65.9565	7,727.05	63.6298	7,727.05	62.1971	7,727.05	55.8789	7,727.05	59.4517	7,727.05	56.286	7,727.05	58.6061	7,727.05	53.0885	7,727.05	54.9075	7,727.05	56.4571	7,727.05	56.7723	7,727.05	60.4667	7,727.05	61.6964	7,727.05	55.7009	7,727.05	58.1223	7,727.05	50.4763
7,999.51	82.1538	7,999.51	82.1414	7,999.51	82.2732	7,999.51	81.2886	7,999.51	81.3215	7,999.51	80.932	7,999.51	80.5159	7,999.51	79.5706	7,999.51	79.3113	7,999.51	77.833	7,999.51	77.3863	7,999.51	77.3599	7,999.51	77.6008	7,999.51	75.7221	7,999.51	76.9452	7,999.51	72.0233	7,999.51	71.9134	7,999.51	69.4218	7,999.51	69.8111	7,999.51	65.4859	7,999.51	65.8879	7,999.51	62.7083	7,999.51	63.5525	7,999.51	61.605	7,999.51	61.6556	7,999.51	59.3967	7,999.51	58.555	7,999.51	54.3986	7,999.51	54.2578	7,999.51	56.0176	7,999.51	56.8036	7,999.51	60.3679	7,999.51	62.3111	7,999.51	57.3751	7,999.51	52.209	7,999.51	51.2061
8,282.23	81.5212	8,282.23	82.1895	8,282.23	82.2857	8,282.23	80.2133	8,282.23	80.7547	8,282.23	80.3098	8,282.23	80.4199	8,282.23	78.3852	8,282.23	78.8308	8,282.23	77.0558	8,282.23	77.2919	8,282.23	76.5536	8,282.23	76.7362	8,282.23	75.2113	8,282.23	74.6477	8,282.23	72.0439	8,282.23	72.4815	8,282.23	68.0782	8,282.23	69.0559	8,282.23	65.578	8,282.23	64.0036	8,282.23	61.7299	8,282.23	60.9125	8,282.23	60.6395	8,282.23	56.4802	8,282.23	57.3702	8,282.23	58.4051	8,282.23	54.5455	8,282.23	54.2889	8,282.23	53.9184	8,282.23	54.3286	8,282.23	59.2738	8,282.23	60.2941	8,282.23	54.3358	8,282.23	54.6692	8,282.23	52.4976
8,573.73	81.8412	8,573.73	82.0743	8,573.73	82.5186	8,573.73	80.8371	8,573.73	81.3534	8,573.73	80.6515	8,573.73	80.7967	8,573.73	78.7059	8,573.73	78.9499	8,573.73	77.4152	8,573.73	77.4787	8,573.73	76.6814	8,573.73	76.9887	8,573.73	74.6462	8,573.73	74.2898	8,573.73	71.3596	8,573.73	71.6451	8,573.73	67.4598	8,573.73	67.8764	8,573.73	63.8359	8,573.73	63.7676	8,573.73	61.7933	8,573.73	60.9061	8,573.73	58.827	8,573.73	60.0643	8,573.73	58.2146	8,573.73	58.8218	8,573.73	49.4575	8,573.73	54.344	8,573.73	55.7393	8,573.73	54.3035	8,573.73	58.7487	8,573.73	58.4589	8,573.73	56.03	8,573.73	53.3106	8,573.73	51.8873
8,876.95	81.7899	8,876.95	82.142	8,876.95	82.2604	8,876.95	80.8591	8,876.95	81.1306	8,876.95	80.223	8,876.95	80.0913	8,876.95	78.4654	8,876.95	78.216	8,876.95	77.0446	8,876.95	77.311	8,876.95	75.8903	8,876.95	76.6123	8,876.95	73.3559	8,876.95	73.7136	8,876.95	70.4149	8,876.95	70.9097	8,876.95	65.6493	8,876.95	67.055	8,876.95	64.1669	8,876.95	63.9297	8,876.95	60.4548	8,876.95	61.0963	8,876.95	57.0684	8,876.95	57.3181	8,876.95	56.8324	8,876.95	56.4542	8,876.95	50.8689	8,876.95	49.0098	8,876.95	55.8424	8,876.95	52.5023	8,876.95	57.4871	8,876.95	56.7886	8,876.95	54.6075	8,876.95	52.2856	8,876.95	47.1803
9,188.96	82.2933	9,188.96	81.9476	9,188.96	82.2443	9,188.96	80.7535	9,188.96	81.3375	9,188.96	79.5736	9,188.96	80.0475	9,188.96	78.3654	9,188.96	78.6239	9,188.96	76.8746	9,188.96	76.9282	9,188.96	75.7718	9,188.96	76.4807	9,188.96	74.0469	9,188.96	74.9237	9,188.96	70.6931	9,188.96	71.1918	9,188.96	67.7667	9,188.96	68.0101	9,188.96	62.7707	9,188.96	64.6206	9,188.96	60.5875	9,188.96	60.6963	9,188.96	56.9096	9,188.96	58.5915	9,188.96	57.8278	9,188.96	58.7526	9,188.96	52.2629	9,188.96	52.6334	9,188.96	52.5123	9,188.96	52.5217	9,188.96	58.4687	9,188.96	57.7154	9,188.96	53.6633	9,188.96	51.1412	9,188.96	48.064
9,514.16	81.9969	9,514.16	81.4085	9,514.16	81.5845	9,514.16	80.8476	9,514.16	81.1318	9,514.16	79.048	9,514.16	79.2888	9,514.16	78.6087	9,514.16	78.2918	9,514.16	76.2335	9,514.16	75.8892	9,514.16	75.9744	9,514.16	75.5121	9,514.16	74.2945	9,514.16	74.5275	9,514.16	70.0838	9,514.16	69.839	9,514.16	66.9119	9,514.16	67.1673	9,514.16	62.4454	9,514.16	63.0513	9,514.16	61.6579	9,514.16	59.0221	9,514.16	59.4393	9,514.16	58.8642	9,514.16	56.7062	9,514.16	57.7862	9,514.16	53.4632	9,514.16	51.833	9,514.16	52.2313	9,514.16	51.1358	9,514.16	58.492	9,514.16	57.0107	9,514.16	53.4225	9,514.16	50.4793	9,514.16	45.2105
9,849.61	82.1824	9,849.61	81.4434	9,849.61	81.6949	9,849.61	80.7155	9,849.61	80.9516	9,849.61	79.2938	9,849.61	79.0137	9,849.61	77.8713	9,849.61	78.0846	9,849.61	75.5903	9,849.61	75.5208	9,849.61	74.8521	9,849.61	75.397	9,849.61	73.1967	9,849.61	73.1379	9,849.61	69.2358	9,849.61	69.6268	9,849.61	64.9364	9,849.61	65.8865	9,849.61	60.3002	9,849.61	60.8934	9,849.61	57.8901	9,849.61	58.2656	9,849.61	55.4419	9,849.61	57.5247	9,849.61	53.8465	9,849.61	57.6388	9,849.61	49.8273	9,849.61	52.0925	9,849.61	51.0571	9,849.61	50.7255	9,849.61	56.5929	9,849.61	57.2836	9,849.61	50.4909	9,849.61	42.8471	9,849.61	46.3765
10,196.8	82.6224	10,196.8	81.6947	10,196.8	82.0086	10,196.8	80.9145	10,196.8	81.1097	10,196.8	78.902	10,196.8	78.8602	10,196.8	77.5383	10,196.8	77.5303	10,196.8	74.7922	10,196.8	74.7151	10,196.8	74.0718	10,196.8	74.4837	10,196.8	70.8653	10,196.8	71.513	10,196.8	67.657	10,196.8	67.884	10,196.8	62.2816	10,196.8	63.4985	10,196.8	58.9124	10,196.8	59.1201	10,196.8	56.6577	10,196.8	56.4113	10,196.8	55.0746	10,196.8	55.7654	10,196.8	54.1464	10,196.8	54.013	10,196.8	45.8994	10,196.8	52.8908	10,196.8	51.8511	10,196.8	47.2063	10,196.8	55.3878	10,196.8	55.6754	10,196.8	51.6383	10,196.8	46.2964	10,196.8	43.737
10,555.7	82.5087	10,555.7	81.9097	10,555.7	81.9683	10,555.7	80.8997	10,555.7	81.1358	10,555.7	78.8873	10,555.7	78.7409	10,555.7	77.1143	10,555.7	76.9968	10,555.7	73.9039	10,555.7	73.6187	10,555.7	72.6637	10,555.7	72.894	10,555.7	70.4096	10,555.7	70.5706	10,555.7	65.9666	10,555.7	66.5268	10,555.7	62.4652	10,555.7	63.0071	10,555.7	57.2657	10,555.7	56.6501	10,555.7	55.6198	10,555.7	53.7422	10,555.7	53.6335	10,555.7	54.1871	10,555.7	50.152	10,555.7	52.7699	10,555.7	49.4891	10,555.7	50.2079	10,555.7	42.4343	10,555.7	48.8266	10,555.7	52.0672	10,555.7	53.8857	10,555.7	51.0972	10,555.7	48.6202	10,555.7	45.2016
10,927.7	82.5015	10,927.7	81.9459	10,927.7	82.1933	10,927.7	80.6577	10,927.7	81.1364	10,927.7	78.3318	10,927.7	78.8264	10,927.7	76.1885	10,927.7	76.6844	10,927.7	72.998	10,927.7	72.8871	10,927.7	70.5342	10,927.7	71.2501	10,927.7	68.1791	10,927.7	67.6951	10,927.7	64.2024	10,927.7	64.6822	10,927.7	59.0359	10,927.7	59.0107	10,927.7	53.9512	10,927.7	55.562	10,927.7	55.0608	10,927.7	52.9902	10,927.7	51.2921	10,927.7	48.308	10,927.7	50.7428	10,927.7	48.5017	10,927.7	44.7925	10,927.7	49.3154	10,927.7	41.6038	10,927.7	43.5102	10,927.7	51.7075	10,927.7	54.7731	10,927.7	48.6394	10,927.7	49.392	10,927.7	44.1319
11,313	82.6535	11,313	81.9732	11,313	82.4139	11,313	80.7091	11,313	80.9894	11,313	78.5349	11,313	78.8943	11,313	76.1897	11,313	76.5658	11,313	72.5178	11,313	72.7194	11,313	69.8563	11,313	70.6758	11,313	66.8182	11,313	67.8678	11,313	62.5623	11,313	62.5282	11,313	55.4217	11,313	57.6748	11,313	52.8719	11,313	55.5269	11,313	53.6409	11,313	52.3634	11,313	46.5954	11,313	50.0474	11,313	47.4351	11,313	44.8635	11,313	39.4683	11,313	50.8145	11,313	44.9675	11,313	46.0197	11,313	52.1839	11,313	52.1806	11,313	48.9454	11,313	50.4323	11,313	43.0173
11,712.9	82.8473	11,712.9	82.1773	11,712.9	82.3491	11,712.9	80.6734	11,712.9	81.209	11,712.9	78.8262	11,712.9	79.0214	11,712.9	76.4949	11,712.9	76.9353	11,712.9	72.7861	11,712.9	72.8026	11,712.9	70.8605	11,712.9	71.88	11,712.9	67.9339	11,712.9	69.4618	11,712.9	63.2195	11,712.9	65.2742	11,712.9	57.6538	11,712.9	60.8525	11,712.9	57.1371	11,712.9	56.1698	11,712.9	54.2836	11,712.9	54.2194	11,712.9	50.1984	11,712.9	51.4316	11,712.9	42.4031	11,712.9	46.9104	11,712.9	45.9386	11,712.9	49.5613	11,712.9	46.4205	11,712.9	48.089	11,712.9	50.8011	11,712.9	52.3409	11,712.9	47.9852	11,712.9	50.0434	11,712.9	39.2547
12,126	82.7187	12,126	81.9623	12,126	82.2071	12,126	80.7373	12,126	81.1991	12,126	78.8412	12,126	78.9424	12,126	76.6532	12,126	77.1054	12,126	72.9873	12,126	73.2879	12,126	71.0762	12,126	72.0621	12,126	68.9458	12,126	69.7499	12,126	64.9299	12,126	66.1443	12,126	61.1767	12,126	62.3036	12,126	58.2361	12,126	58.2281	12,126	55.6167	12,126	55.3762	12,126	50.0302	12,126	51.6276	12,126	44.5633	12,126	46.1242	12,126	43.7939	12,126	48.9936	12,126	39.4249	12,126	49.7235	12,126	46.9494	12,126	51.6097	12,126	44.4224	12,126	48.1802	12,126	36.8976
12,553.7	82.6658	12,553.7	81.9924	12,553.7	82.1678	12,553.7	80.8438	12,553.7	81.1083	12,553.7	78.6202	12,553.7	78.737	12,553.7	76.673	12,553.7	77.0455	12,553.7	73.3006	12,553.7	73.6808	12,553.7	71.2431	12,553.7	72.0832	12,553.7	69.3476	12,553.7	70.738	12,553.7	65.6303	12,553.7	66.1305	12,553.7	60.6579	12,553.7	62.4508	12,553.7	57.796	12,553.7	58.6725	12,553.7	55.8085	12,553.7	55.4094	12,553.7	50.4938	12,553.7	52.0855	12,553.7	44.1081	12,553.7	40.8157	12,553.7	37.3889	12,553.7	49.4498	12,553.7	42.0227	12,553.7	49.5005	12,553.7	43.3011	12,553.7	51.0111	12,553.7	43.8078	12,553.7	32.1632	12,553.7	40.4626
12,996.1	82.8944	12,996.1	82.1743	12,996.1	82.3608	12,996.1	80.9235	12,996.1	81.2594	12,996.1	78.8035	12,996.1	78.9673	12,996.1	76.764	12,996.1	77.1232	12,996.1	73.3208	12,996.1	73.6583	12,996.1	70.8677	12,996.1	72.0023	12,996.1	69.1097	12,996.1	70.8121	12,996.1	64.8138	12,996.1	66.354	12,996.1	60.1295	12,996.1	62.5079	12,996.1	56.8258	12,996.1	58.9278	12,996.1	55.0488	12,996.1	55.6544	12,996.1	48.5811	12,996.1	51.1399	12,996.1	44.8959	12,996.1	38.6034	12,996.1	40.7624	12,996.1	46.6271	12,996.1	39.2009	12,996.1	46.9726	12,996.1	38.7224	12,996.1	49.8635	12,996.1	37.2647	12,996.1	39.7069	12,996.1	36.6526
13,454.6	82.949	13,454.6	82.2067	13,454.6	82.5764	13,454.6	81.0112	13,454.6	81.3673	13,454.6	78.7052	13,454.6	79.0936	13,454.6	76.8211	13,454.6	77.2629	13,454.6	72.9811	13,454.6	74.0363	13,454.6	70.7953	13,454.6	72.2176	13,454.6	68.1456	13,454.6	70.6967	13,454.6	64.5415	13,454.6	66.6579	13,454.6	58.828	13,454.6	62.7367	13,454.6	56.5534	13,454.6	58.9579	13,454.6	53.727	13,454.6	55.825	13,454.6	46.674	13,454.6	50.3295	13,454.6	40.1754	13,454.6	43.295	13,454.6	36.8522	13,454.6	47.0516	13,454.6	33.281	13,454.6	46.6057	13,454.6	32.2266	13,454.6	46.929	13,454.6	22.7519	13,454.6	41.9675	13,454.6	31.3846
13,929.2	83.0586	13,929.2	82.465	13,929.2	82.738	13,929.2	81.196	13,929.2	81.5187	13,929.2	78.9011	13,929.2	79.4494	13,929.2	76.909	13,929.2	77.3839	13,929.2	73.1962	13,929.2	74.2899	13,929.2	70.4204	13,929.2	71.9743	13,929.2	67.28	13,929.2	70.7589	13,929.2	64.0703	13,929.2	67.0472	13,929.2	58.8815	13,929.2	62.9388	13,929.2	56.2648	13,929.2	59.2366	13,929.2	53.0889	13,929.2	55.486	13,929.2	46.4872	13,929.2	49.3424	13,929.2	43.8115	13,929.2	41.9962	13,929.2	29.9032	13,929.2	47.0018	13,929.2	35.7426	13,929.2	47.2167	13,929.2	35.0082	13,929.2	42.7926	13,929.2	32.6266	13,929.2	41.0907	13,929.2	33.9246
14,419.9	83.0707	14,419.9	82.5428	14,419.9	82.8596	14,419.9	81.1605	14,419.9	81.5874	14,419.9	78.9903	14,419.9	79.56	14,419.9	76.6723	14,419.9	77.2562	14,419.9	72.6784	14,419.9	74.1595	14,419.9	69.0574	14,419.9	71.265	14,419.9	66.5241	14,419.9	70.281	14,419.9	62.4772	14,419.9	65.8422	14,419.9	57.3453	14,419.9	61.9233	14,419.9	53.9313	14,419.9	58.0462	14,419.9	51.586	14,419.9	54.1842	14,419.9	45.1186	14,419.9	47.6377	14,419.9	42.2966	14,419.9	44.7211	14,419.9	37.43	14,419.9	45.0388	14,419.9	38.9951	14,419.9	44.6139	14,419.9	37.8915	14,419.9	37.9569	14,419.9	35.4727	14,419.9	37.6396	14,419.9	31.9228
14,928.2	83.0964	14,928.2	82.441	14,928.2	82.8113	14,928.2	80.828	14,928.2	81.4075	14,928.2	78.4759	14,928.2	79.2308	14,928.2	75.7604	14,928.2	76.5515	14,928.2	71.4798	14,928.2	73.1603	14,928.2	67.2803	14,928.2	69.7996	14,928.2	64.192	14,928.2	68.2175	14,928.2	59.415	14,928.2	64.5402	14,928.2	54.4613	14,928.2	59.9464	14,928.2	51.2137	14,928.2	55.8694	14,928.2	48.4784	14,928.2	51.9801	14,928.2	41.8076	14,928.2	45.2087	14,928.2	38.8699	14,928.2	44.1858	14,928.2	31.4459	14,928.2	42.707	14,928.2	34.9893	14,928.2	41.4958	14,928.2	36.5435	14,928.2	38.7647	14,928.2	26.6615	14,928.2	35.7592	14,928.2	27.2685
15,455.6	82.8984	15,455.6	82.1508	15,455.6	82.5384	15,455.6	80.3678	15,455.6	81.0203	15,455.6	77.6487	15,455.6	78.4912	15,455.6	74.2887	15,455.6	75.5349	15,455.6	69.4386	15,455.6	71.6268	15,455.6	64.6743	15,455.6	67.9031	15,455.6	60.7949	15,455.6	66.0273	15,455.6	56.453	15,455.6	62.3112	15,455.6	51.1527	15,455.6	57.7729	15,455.6	48.7734	15,455.6	53.8427	15,455.6	45.3078	15,455.6	49.8271	15,455.6	39.8374	15,455.6	43.0591	15,455.6	35.7577	15,455.6	43.4882	15,455.6	31.1195	15,455.6	39.6279	15,455.6	29.5903	15,455.6	38.0083	15,455.6	35.5568	15,455.6	37.4234	15,455.6	31.7936	15,455.6	35.3266	15,455.6	28.8327
16,000.5	82.6528	16,000.5	81.7562	16,000.5	82.191	16,000.5	79.7127	16,000.5	80.5379	16,000.5	76.5266	16,000.5	77.5987	16,000.5	72.4748	16,000.5	74.234	16,000.5	67.2095	16,000.5	69.91	16,000.5	60.754	16,000.5	65.5985	16,000.5	56.1801	16,000.5	62.9248	16,000.5	50.105	16,000.5	59.7272	16,000.5	46.0453	16,000.5	54.3581	16,000.5	43.4826	16,000.5	50.4589	16,000.5	40.0979	16,000.5	46.2153	16,000.5	33.6324	16,000.5	38.9988	16,000.5	29.3803	16,000.5	41.756	16,000.5	21.9963	16,000.5	36.0706	16,000.5	20.9553	16,000.5	35.3448	16,000.5	30.8962	16,000.5	32.514	16,000.5	33.7942	16,000.5	36.7569	16,000.5	20.4452
16,564.5	82.2151	16,564.5	81.258	16,564.5	81.7604	16,564.5	79.0292	16,564.5	79.9864	16,564.5	75.5415	16,564.5	76.7495	16,564.5	70.7152	16,564.5	73.0294	16,564.5	64.5004	16,564.5	67.8972	16,564.5	57.0298	16,564.5	63.2461	16,564.5	47.8911	16,564.5	60.2072	16,564.5	45.1938	16,564.5	56.354	16,564.5	42.1464	16,564.5	51.1675	16,564.5	40.4731	16,564.5	47.6697	16,564.5	38.0218	16,564.5	43.1652	16,564.5	33.8871	16,564.5	35.9628	16,564.5	26.9616	16,564.5	40.2622	16,564.5	23.9755	16,564.5	32.8399	16,564.5	29.0245	16,564.5	27.9036	16,564.5	31.6035	16,564.5	28.6206	16,564.5	34.0676	16,564.5	33.9014	16,564.5	16.5098
17,148.9	81.8384	17,148.9	80.6527	17,148.9	81.2985	17,148.9	78.2029	17,148.9	79.2822	17,148.9	74.0606	17,148.9	75.4655	17,148.9	68.7892	17,148.9	71.4385	17,148.9	62.1864	17,148.9	65.6187	17,148.9	52.4327	17,148.9	60.6104	17,148.9	40.7517	17,148.9	57.0532	17,148.9	39.1431	17,148.9	52.6148	17,148.9	38.8376	17,148.9	47.5118	17,148.9	36.9351	17,148.9	42.942	17,148.9	31.4774	17,148.9	38.9357	17,148.9	32.5224	17,148.9	35.571	17,148.9	9.01907	17,148.9	40.1265	17,148.9	19.0259	17,148.9	24.8315	17,148.9	30.2091	17,148.9	22.0846	17,148.9	25.3897	17,148.9	30.1274	17,148.9	32.057	17,148.9	33.0301	17,148.9	27.0995
17,752.4	81.1773	17,752.4	80.0954	17,752.4	80.5599	17,752.4	77.1483	17,752.4	78.2696	17,752.4	72.5946	17,752.4	74.1258	17,752.4	66.4634	17,752.4	69.3564	17,752.4	59.6111	17,752.4	62.5828	17,752.4	49.5837	17,752.4	57.5483	17,752.4	46.4253	17,752.4	53.3249	17,752.4	35.4315	17,752.4	50.0954	17,752.4	35.9673	17,752.4	45.3175	17,752.4	24.7268	17,752.4	38.9384	17,752.4	27.4114	17,752.4	35.673	17,752.4	30.9178	17,752.4	31.9494	17,752.4	18.1505	17,752.4	35.3243	17,752.4	20.4106	17,752.4	18.2848	17,752.4	27.4776	17,752.4	28.9244	17,752.4	33.7214	17,752.4	32.1828	17,752.4	28.2009	17,752.4	32.3428	17,752.4	32.7729
18,379.4	80.4137	18,379.4	78.9609	18,379.4	79.7212	18,379.4	75.7524	18,379.4	77.0443	18,379.4	70.5338	18,379.4	72.2041	18,379.4	63.4748	18,379.4	66.4839	18,379.4	57.0131	18,379.4	59.2594	18,379.4	51.1528	18,379.4	55.3204	18,379.4	51.2277	18,379.4	53.0509	18,379.4	46.3161	18,379.4	49.497	18,379.4	40.7957	18,379.4	45.1461	18,379.4	29.2923	18,379.4	37.8835	18,379.4	24.6868	18,379.4	32.7202	18,379.4	30.9327	18,379.4	30.1566	18,379.4	33.895	18,379.4	33.4486	18,379.4	19.4929	18,379.4	25.1079	18,379.4	28.0024	18,379.4	24.9249	18,379.4	32.9739	18,379.4	24.0303	18,379.4	36.5668	18,379.4	37.2318	18,379.4	45.4527
19,026.9	79.4412	19,026.9	77.9959	19,026.9	78.6008	19,026.9	74.1624	19,026.9	75.5637	19,026.9	67.9131	19,026.9	69.9722	19,026.9	58.8722	19,026.9	63.0292	19,026.9	56.121	19,026.9	56.4138	19,026.9	54.0094	19,026.9	54.8783	19,026.9	53.3588	19,026.9	53.1279	19,026.9	49.4977	19,026.9	49.5114	19,026.9	43.1222	19,026.9	44.6706	19,026.9	34.8318	19,026.9	36.7728	19,026.9	29.3125	19,026.9	31.2043	19,026.9	28.4129	19,026.9	24.7733	19,026.9	26.7747	19,026.9	31.2016	19,026.9	23.1972	19,026.9	27.5184	19,026.9	28.827	19,026.9	26.293	19,026.9	29.9476	19,026.9	27.4999	19,026.9	38.7551	19,026.9	35.129	19,026.9	44.2986
19,697.8	78.5087	19,697.8	76.7943	19,697.8	77.563	19,697.8	72.3798	19,697.8	74.0628	19,697.8	64.7374	19,697.8	67.3199	19,697.8	54.0191	19,697.8	58.9628	19,697.8	56.4826	19,697.8	55.6259	19,697.8	55.0356	19,697.8	55.1835	19,697.8	53.2129	19,697.8	52.8313	19,697.8	48.6635	19,697.8	49.2922	19,697.8	42.068	19,697.8	43.0385	19,697.8	35.3457	19,697.8	35.7432	19,697.8	31.9045	19,697.8	30.2367	19,697.8	30.9465	19,697.8	20.5434	19,697.8	31.2653	19,697.8	23.0866	19,697.8	14.9728	19,697.8	29.5498	19,697.8	28.1585	19,697.8	27.3748	19,697.8	19.7926	19,697.8	25.3441	19,697.8	29.2282	19,697.8	28.1914	19,697.8	38.5183
19,999.5	78.0104	19,999.5	76.6708	19,999.5	77.0142	19,999.5	71.9714	19,999.5	73.3709	19,999.5	62.3223	19,999.5	66.2457	19,999.5	53.1584	19,999.5	57.0852	19,999.5	57.7981	19,999.5	55.6725	19,999.5	54.8591	19,999.5	55.6792	19,999.5	53.0652	19,999.5	54.2095	19,999.5	48.1255	19,999.5	48.4284	19,999.5	39.8487	19,999.5	45.3678	19,999.5	29.5554	19,999.5	25.8438	19,999.5	23.7253	19,999.5	30.9827	19,999.5	37.462	19,999.5	36.7388	19,999.5	40.1606	19,999.5	31.3656	19,999.5	38.4851	19,999.5	43.8089	19,999.5	30.7572	19,999.5	34.2723	19,999.5	33.5429	19,999.5	39.184	19,999.5	30.133	19,999.5	40.5114	19,999.5	36.7025
