"SPL Vertical"
"On-Axis"		"10°"		"-10°"		"20°"		"-20°"		"30°"		"-30°"		"40°"		"-40°"		"50°"		"-50°"		"60°"		"-60°"		"70°"		"-70°"		"80°"		"-80°"		"90°"		"-90°"		"100°"		"-100°"		"110°"		"-110°"		"120°"		"-120°"		"130°"		"-130°"		"140°"		"-140°"		"150°"		"-150°"		"160°"		"-160°"		"170°"		"-170°"		"180°"
"Frequency / Hz"	"Sound Pressure Level / dB (re 20 µPa/V)  [2.83  V @ 1. m]"	"Frequency / Hz"	"Sound Pressure Level / dB (re 20 µPa/V)  [2.83  V @ 1. m]"	"Frequency / Hz"	"Sound Pressure Level / dB (re 20 µPa/V)  [2.83  V @ 1. m]"	"Frequency / Hz"	"Sound Pressure Level / dB (re 20 µPa/V)  [2.83  V @ 1. m]"	"Frequency / Hz"	"Sound Pressure Level / dB (re 20 µPa/V)  [2.83  V @ 1. m]"	"Frequency / Hz"	"Sound Pressure Level / dB (re 20 µPa/V)  [2.83  V @ 1. m]"	"Frequency / Hz"	"Sound Pressure Level / dB (re 20 µPa/V)  [2.83  V @ 1. m]"	"Frequency / Hz"	"Sound Pressure Level / dB (re 20 µPa/V)  [2.83  V @ 1. m]"	"Frequency / Hz"	"Sound Pressure Level / dB (re 20 µPa/V)  [2.83  V @ 1. m]"	"Frequency / Hz"	"Sound Pressure Level / dB (re 20 µPa/V)  [2.83  V @ 1. m]"	"Frequency / Hz"	"Sound Pressure Level / dB (re 20 µPa/V)  [2.83  V @ 1. m]"	"Frequency / Hz"	"Sound Pressure Level / dB (re 20 µPa/V)  [2.83  V @ 1. m]"	"Frequency / Hz"	"Sound Pressure Level / dB (re 20 µPa/V)  [2.83  V @ 1. m]"	"Frequency / Hz"	"Sound Pressure Level / dB (re 20 µPa/V)  [2.83  V @ 1. m]"	"Frequency / Hz"	"Sound Pressure Level / dB (re 20 µPa/V)  [2.83  V @ 1. m]"	"Frequency / Hz"	"Sound Pressure Level / dB (re 20 µPa/V)  [2.83  V @ 1. m]"	"Frequency / Hz"	"Sound Pressure Level / dB (re 20 µPa/V)  [2.83  V @ 1. m]"	"Frequency / Hz"	"Sound Pressure Level / dB (re 20 µPa/V)  [2.83  V @ 1. m]"	"Frequency / Hz"	"Sound Pressure Level / dB (re 20 µPa/V)  [2.83  V @ 1. m]"	"Frequency / Hz"	"Sound Pressure Level / dB (re 20 µPa/V)  [2.83  V @ 1. m]"	"Frequency / Hz"	"Sound Pressure Level / dB (re 20 µPa/V)  [2.83  V @ 1. m]"	"Frequency / Hz"	"Sound Pressure Level / dB (re 20 µPa/V)  [2.83  V @ 1. m]"	"Frequency / Hz"	"Sound Pressure Level / dB (re 20 µPa/V)  [2.83  V @ 1. m]"	"Frequency / Hz"	"Sound Pressure Level / dB (re 20 µPa/V)  [2.83  V @ 1. m]"	"Frequency / Hz"	"Sound Pressure Level / dB (re 20 µPa/V)  [2.83  V @ 1. m]"	"Frequency / Hz"	"Sound Pressure Level / dB (re 20 µPa/V)  [2.83  V @ 1. m]"	"Frequency / Hz"	"Sound Pressure Level / dB (re 20 µPa/V)  [2.83  V @ 1. m]"	"Frequency / Hz"	"Sound Pressure Level / dB (re 20 µPa/V)  [2.83  V @ 1. m]"	"Frequency / Hz"	"Sound Pressure Level / dB (re 20 µPa/V)  [2.83  V @ 1. m]"	"Frequency / Hz"	"Sound Pressure Level / dB (re 20 µPa/V)  [2.83  V @ 1. m]"	"Frequency / Hz"	"Sound Pressure Level / dB (re 20 µPa/V)  [2.83  V @ 1. m]"	"Frequency / Hz"	"Sound Pressure Level / dB (re 20 µPa/V)  [2.83  V @ 1. m]"	"Frequency / Hz"	"Sound Pressure Level / dB (re 20 µPa/V)  [2.83  V @ 1. m]"	"Frequency / Hz"	"Sound Pressure Level / dB (re 20 µPa/V)  [2.83  V @ 1. m]"	"Frequency / Hz"	"Sound Pressure Level / dB (re 20 µPa/V)  [2.83  V @ 1. m]"	"Frequency / Hz"	"Sound Pressure Level / dB (re 20 µPa/V)  [2.83  V @ 1. m]"
20.5078	67.8557	20.5078	67.5828	20.5078	68.1836	20.5078	67.3652	20.5078	68.5588	20.5078	67.1977	20.5078	68.9651	20.5078	67.0729	20.5078	69.3794	20.5078	66.9836	20.5078	69.7746	20.5078	66.9242	20.5078	70.1232	20.5078	66.8907	20.5078	70.4007	20.5078	66.8811	20.5078	70.588	20.5078	66.8947	20.5078	70.6739	20.5078	66.9321	20.5078	70.6551	20.5078	66.9949	20.5078	70.5373	20.5078	67.0859	20.5078	70.3337	20.5078	67.2089	20.5078	70.0627	20.5078	67.3674	20.5078	69.7455	20.5078	67.5642	20.5078	69.4026	20.5078	67.8	20.5078	69.0515	20.5078	68.0725	20.5078	68.706	20.5078	68.3768
21.9727	71.1074	21.9727	70.7751	21.9727	71.4905	21.9727	70.5033	21.9727	71.9083	21.9727	70.2952	21.9727	72.3399	21.9727	70.1481	21.9727	72.7612	21.9727	70.0558	21.9727	73.1482	21.9727	70.0108	21.9727	73.4781	21.9727	70.0055	21.9727	73.7318	21.9727	70.0338	21.9727	73.8953	21.9727	70.0913	21.9727	73.9606	21.9727	70.1754	21.9727	73.9271	21.9727	70.2848	21.9727	73.8014	21.9727	70.4194	21.9727	73.597	21.9727	70.5795	21.9727	73.3321	21.9727	70.7653	21.9727	73.0275	21.9727	70.9767	21.9727	72.7031	21.9727	71.2129	21.9727	72.3757	21.9727	71.4728	21.9727	72.0572	21.9727	71.7549
23.4375	74.9425	23.4375	74.5675	23.4375	75.3442	23.4375	74.2297	23.4375	75.7591	23.4375	73.9359	23.4375	76.171	23.4375	73.6902	23.4375	76.5623	23.4375	73.4938	23.4375	76.9148	23.4375	73.3462	23.4375	77.2113	23.4375	73.2461	23.4375	77.4362	23.4375	73.192	23.4375	77.5776	23.4375	73.1828	23.4375	77.628	23.4375	73.2181	23.4375	77.5853	23.4375	73.2981	23.4375	77.4529	23.4375	73.4233	23.4375	77.2395	23.4375	73.5943	23.4375	76.958	23.4375	73.8111	23.4375	76.624	23.4375	74.0724	23.4375	76.2539	23.4375	74.3751	23.4375	75.8639	23.4375	74.714	23.4375	75.4688	23.4375	75.0817
24.9023	76.8861	24.9023	76.5558	24.9023	77.2379	24.9023	76.2549	24.9023	77.6007	24.9023	75.9885	24.9023	77.9608	24.9023	75.7594	24.9023	78.3027	24.9023	75.5685	24.9023	78.6097	24.9023	75.4158	24.9023	78.8648	24.9023	75.3007	24.9023	79.0528	24.9023	75.2224	24.9023	79.1611	24.9023	75.1808	24.9023	79.1815	24.9023	75.1757	24.9023	79.1115	24.9023	75.208	24.9023	78.954	24.9023	75.2789	24.9023	78.7183	24.9023	75.3898	24.9023	78.4182	24.9023	75.5426	24.9023	78.0712	24.9023	75.7388	24.9023	77.6963	24.9023	75.9787	24.9023	77.3125	24.9023	76.2612	24.9023	76.9367	24.9023	76.5828
26.3672	79.0974	26.3672	78.812	26.3672	79.4039	26.3672	78.5541	26.3672	79.7224	26.3672	78.3274	26.3672	80.0413	26.3672	78.1339	26.3672	80.3469	26.3672	77.9744	26.3672	80.6239	26.3672	77.8484	26.3672	80.8569	26.3672	77.7556	26.3672	81.0316	26.3672	77.6951	26.3672	81.1365	26.3672	77.6669	26.3672	81.1641	26.3672	77.6709	26.3672	81.1118	26.3672	77.7078	26.3672	80.9827	26.3672	77.7784	26.3672	80.785	26.3672	77.884	26.3672	80.5311	26.3672	78.0257	26.3672	80.2361	26.3672	78.2045	26.3672	79.916	26.3672	78.4202	26.3672	79.5867	26.3672	78.6712	26.3672	79.262	26.3672	78.9539
27.832	80.2112	27.832	79.9136	27.832	80.53	27.832	79.6439	27.832	80.8605	27.832	79.4061	27.832	81.1905	27.832	79.2023	27.832	81.5057	27.832	79.0332	27.832	81.7905	27.832	78.8986	27.832	82.0288	27.832	78.7979	27.832	82.2064	27.832	78.7309	27.832	82.3116	27.832	78.6973	27.832	82.3369	27.832	78.6975	27.832	82.2801	27.832	78.7322	27.832	82.1445	27.832	78.8027	27.832	81.9384	27.832	78.9104	27.832	81.6744	27.832	79.0568	27.832	81.3677	27.832	79.2429	27.832	81.0345	27.832	79.4685	27.832	80.6909	27.832	79.7318	27.832	80.3514	27.832	80.0284
29.2969	82.5287	29.2969	82.2127	29.2969	82.8591	29.2969	81.919	29.2969	83.1937	29.2969	81.6536	29.2969	83.5206	29.2969	81.4202	29.2969	83.8262	29.2969	81.2214	29.2969	84.0964	29.2969	81.0583	29.2969	84.3171	29.2969	80.9313	29.2969	84.4757	29.2969	80.8406	29.2969	84.5619	29.2969	80.7864	29.2969	84.5693	29.2969	80.7692	29.2969	84.4957	29.2969	80.7898	29.2969	84.3441	29.2969	80.8496	29.2969	84.122	29.2969	80.9504	29.2969	83.8411	29.2969	81.094	29.2969	83.516	29.2969	81.2816	29.2969	83.163	29.2969	81.5133	29.2969	82.7989	29.2969	81.7872	29.2969	82.4395	29.2969	82.0985
30.7617	84.7902	30.7617	84.544	30.7617	85.0463	30.7617	84.3136	30.7617	85.3047	30.7617	84.1034	30.7617	85.5564	30.7617	83.9166	30.7617	85.7909	30.7617	83.7555	30.7617	85.9971	30.7617	83.6215	30.7617	86.1636	30.7617	83.5157	30.7617	86.2801	30.7617	83.4387	30.7617	86.3384	30.7617	83.3914	30.7617	86.3335	30.7617	83.3742	30.7617	86.2645	30.7617	83.388	30.7617	86.1348	30.7617	83.4337	30.7617	85.9517	30.7617	83.5119	30.7617	85.7258	30.7617	83.6232	30.7617	85.4696	30.7617	83.7678	30.7617	85.1961	30.7617	83.945	30.7617	84.9176	30.7617	84.1528	30.7617	84.6452	30.7617	84.3879
32.2266	85.5545	32.2266	85.3108	32.2266	85.8079	32.2266	85.0825	32.2266	86.0634	32.2266	84.874	32.2266	86.3118	32.2266	84.6884	32.2266	86.5427	32.2266	84.5278	32.2266	86.7447	32.2266	84.3937	32.2266	86.9062	32.2266	84.287	32.2266	87.0169	32.2266	84.2084	32.2266	87.0685	32.2266	84.1583	32.2266	87.0562	32.2266	84.1374	32.2266	86.9794	32.2266	84.1464	32.2266	86.8421	32.2266	84.1859	32.2266	86.6523	32.2266	84.2568	32.2266	86.4212	32.2266	84.3598	32.2266	86.1616	32.2266	84.4954	32.2266	85.887	32.2266	84.6633	32.2266	85.6098	32.2266	84.8623	32.2266	85.3411	32.2266	85.0897
33.6914	87.2256	33.6914	86.9922	33.6914	87.4663	33.6914	86.7718	33.6914	87.7073	33.6914	86.5687	33.6914	87.9399	33.6914	86.3859	33.6914	88.1542	33.6914	86.2258	33.6914	88.3395	33.6914	86.0898	33.6914	88.485	33.6914	85.9792	33.6914	88.581	33.6914	85.8949	33.6914	88.6199	33.6914	85.8375	33.6914	88.5972	33.6914	85.8079	33.6914	88.5125	33.6914	85.8068	33.6914	88.3698	33.6914	85.8351	33.6914	88.1771	33.6914	85.8935	33.6914	87.9456	33.6914	85.9828	33.6914	87.6883	33.6914	86.1038	33.6914	87.4188	33.6914	86.2564	33.6914	87.1496	33.6914	86.4402	33.6914	86.8916	33.6914	86.6531
35.1562	88.6801	35.1562	88.4627	35.1562	88.9042	35.1562	88.2575	35.1562	89.128	35.1562	88.0688	35.1562	89.3435	35.1562	87.8999	35.1562	89.5412	35.1562	87.753	35.1562	89.7112	35.1562	87.6298	35.1562	89.8438	35.1562	87.5315	35.1562	89.9302	35.1562	87.4589	35.1562	89.9638	35.1562	87.4125	35.1562	89.9411	35.1562	87.3927	35.1562	89.8622	35.1562	87.3998	35.1562	89.7316	35.1562	87.4341	35.1562	89.5571	35.1562	87.4955	35.1562	89.3494	35.1562	87.5843	35.1562	89.1201	35.1562	87.7001	35.1562	88.8812	35.1562	87.8424	35.1562	88.6431	35.1562	88.0104	35.1562	88.4145	35.1562	88.2021
36.6211	90.0042	36.6211	89.7935	36.6211	90.219	36.6211	89.5924	36.6211	90.4314	36.6211	89.4052	36.6211	90.6335	36.6211	89.2353	36.6211	90.8165	36.6211	89.0853	36.6211	90.9712	36.6211	88.9569	36.6211	91.0883	36.6211	88.8516	36.6211	91.1598	36.6211	88.7705	36.6211	91.1796	36.6211	88.7142	36.6211	91.1444	36.6211	88.6834	36.6211	91.0549	36.6211	88.6784	36.6211	90.9156	36.6211	88.6997	36.6211	90.7346	36.6211	88.7476	36.6211	90.5224	36.6211	88.8224	36.6211	90.2912	36.6211	88.9244	36.6211	90.0527	36.6211	89.0535	36.6211	89.8176	36.6211	89.2093	36.6211	89.5948	36.6211	89.3906
38.0859	90.9767	38.0859	90.7601	38.0859	91.195	38.0859	90.5508	38.0859	91.4081	38.0859	90.3534	38.0859	91.6084	38.0859	90.1714	38.0859	91.7871	38.0859	90.0077	38.0859	91.9349	38.0859	89.8644	38.0859	92.043	38.0859	89.7433	38.0859	92.1032	38.0859	89.6457	38.0859	92.1095	38.0859	89.5725	38.0859	92.0589	38.0859	89.5246	38.0859	91.952	38.0859	89.5028	38.0859	91.7934	38.0859	89.5079	38.0859	91.5916	38.0859	89.5406	38.0859	91.3579	38.0859	89.6018	38.0859	91.1054	38.0859	89.6927	38.0859	90.8472	38.0859	89.8141	38.0859	90.5956	38.0859	89.9665	38.0859	90.3606	38.0859	90.1494
39.5508	92.5201	39.5508	92.317	39.5508	92.7263	39.5508	92.1223	39.5508	92.9292	39.5508	91.9403	39.5508	93.1214	39.5508	91.7744	39.5508	93.2947	39.5508	91.6272	39.5508	93.4405	39.5508	91.5006	39.5508	93.5503	39.5508	91.3961	39.5508	93.6167	39.5508	91.3147	39.5508	93.6342	39.5508	91.2572	39.5508	93.5999	39.5508	91.2244	39.5508	93.5143	39.5508	91.2166	39.5508	93.3816	39.5508	91.2344	39.5508	93.2089	39.5508	91.2784	39.5508	93.0058	39.5508	91.3491	39.5508	92.7832	39.5508	91.4471	39.5508	92.5521	39.5508	91.5727	39.5508	92.3229	39.5508	91.7253	39.5508	92.1044	39.5508	91.9036
41.0156	93.7114	41.0156	93.5161	41.0156	93.9086	41.0156	93.3282	41.0156	94.1015	41.0156	93.1523	41.0156	94.2828	41.0156	92.9921	41.0156	94.4448	41.0156	92.8506	41.0156	94.5794	41.0156	92.7303	41.0156	94.6789	41.0156	92.6329	41.0156	94.7368	41.0156	92.5594	41.0156	94.7482	41.0156	92.5107	41.0156	94.7112	41.0156	92.4871	41.0156	94.6273	41.0156	92.4885	41.0156	94.5008	41.0156	92.5147	41.0156	94.3394	41.0156	92.5651	41.0156	94.1523	41.0156	92.6393	41.0156	93.9497	41.0156	92.7367	41.0156	93.7414	41.0156	92.8566	41.0156	93.5361	41.0156	92.9982	41.0156	93.3407	41.0156	93.1603
42.4805	94.792	42.4805	94.5999	42.4805	94.9845	42.4805	94.4137	42.4805	95.1712	42.4805	94.2381	42.4805	95.3452	42.4805	94.0768	42.4805	95.4992	42.4805	93.9332	42.4805	95.6253	42.4805	93.8099	42.4805	95.7163	42.4805	93.7091	42.4805	95.7662	42.4805	93.6321	42.4805	95.7705	42.4805	93.58	42.4805	95.7279	42.4805	93.5534	42.4805	95.6399	42.4805	93.5521	42.4805	95.5117	42.4805	93.5762	42.4805	95.3507	42.4805	93.6248	42.4805	95.1664	42.4805	93.6974	42.4805	94.9687	42.4805	93.7929	42.4805	94.7668	42.4805	93.9104	42.4805	94.5687	42.4805	94.0485	42.4805	94.3802	42.4805	94.2058
43.9453	95.9203	43.9453	95.7309	43.9453	96.1077	43.9453	95.5444	43.9453	96.2871	43.9453	95.3657	43.9453	96.4518	43.9453	95.1985	43.9453	96.595	43.9453	95.0462	43.9453	96.7093	43.9453	94.9118	43.9453	96.7879	43.9453	94.7977	43.9453	96.8251	43.9453	94.7058	43.9453	96.817	43.9453	94.6377	43.9453	96.7623	43.9453	94.5944	43.9453	96.6629	43.9453	94.5767	43.9453	96.5237	43.9453	94.585	43.9453	96.3524	43.9453	94.6194	43.9453	96.1584	43.9453	94.6797	43.9453	95.9517	43.9453	94.7655	43.9453	95.7419	43.9453	94.8762	43.9453	95.5371	43.9453	95.0107	43.9453	95.344	43.9453	95.1674
45.4102	96.9596	45.4102	96.7755	45.4102	97.1411	45.4102	96.5938	45.4102	97.3141	45.4102	96.419	45.4102	97.4725	45.4102	96.2546	45.4102	97.6093	45.4102	96.1042	45.4102	97.7175	45.4102	95.9704	45.4102	97.7906	45.4102	95.8555	45.4102	97.823	45.4102	95.7616	45.4102	97.811	45.4102	95.6902	45.4102	97.7533	45.4102	95.6426	45.4102	97.652	45.4102	95.6197	45.4102	97.5118	45.4102	95.622	45.4102	97.3404	45.4102	95.6501	45.4102	97.1472	45.4102	95.7039	45.4102	96.9419	45.4102	95.7835	45.4102	96.7341	45.4102	95.8883	45.4102	96.532	45.4102	96.0174	45.4102	96.3422	45.4102	96.1695
46.875	97.8822	46.875	97.6943	46.875	98.0693	46.875	97.5111	46.875	98.2491	46.875	97.3373	46.875	98.4149	46.875	97.1768	46.875	98.5594	46.875	97.0325	46.875	98.6753	46.875	96.9068	46.875	98.7558	46.875	96.8015	46.875	98.7955	46.875	96.718	46.875	98.7907	46.875	96.6571	46.875	98.7403	46.875	96.6196	46.875	98.646	46.875	96.6059	46.875	98.5127	46.875	96.6165	46.875	98.3477	46.875	96.6515	46.875	98.1599	46.875	96.7112	46.875	97.9589	46.875	96.7954	46.875	97.754	46.875	96.9038	46.875	97.5533	46.875	97.0358	46.875	97.3636	46.875	97.1899
48.3398	98.8009	48.3398	98.6177	48.3398	98.9849	48.3398	98.4409	48.3398	99.1629	48.3398	98.2757	48.3398	99.3281	48.3398	98.1262	48.3398	99.4732	48.3398	97.9958	48.3398	99.5913	48.3398	97.8869	48.3398	99.676	48.3398	97.8012	48.3398	99.7225	48.3398	97.7398	48.3398	99.7279	48.3398	97.7032	48.3398	99.6918	48.3398	97.6913	48.3398	99.6166	48.3398	97.7038	48.3398	99.5072	48.3398	97.7398	48.3398	99.3703	48.3398	97.7984	48.3398	99.2138	48.3398	97.8782	48.3398	99.0455	48.3398	97.9776	48.3398	98.8724	48.3398	98.0949	48.3398	98.7001	48.3398	98.228	48.3398	98.5332	48.3398	98.3749
51.2695	100.559	51.2695	100.389	51.2695	100.722	51.2695	100.217	51.2695	100.871	51.2695	100.047	51.2695	101.002	51.2695	99.8843	51.2695	101.109	51.2695	99.7334	51.2695	101.186	51.2695	99.5979	51.2695	101.23	51.2695	99.4812	51.2695	101.236	51.2695	99.3857	51.2695	101.203	51.2695	99.3135	51.2695	101.132	51.2695	99.2656	51.2695	101.025	51.2695	99.2426	51.2695	100.889	51.2695	99.2445	51.2695	100.731	51.2695	99.2706	51.2695	100.558	51.2695	99.32	51.2695	100.379	51.2695	99.3916	51.2695	100.201	51.2695	99.4838	51.2695	100.03	51.2695	99.5953	51.2695	99.8704	51.2695	99.7248
52.7344	100.989	52.7344	100.82	52.7344	101.15	52.7344	100.648	52.7344	101.296	52.7344	100.477	52.7344	101.423	52.7344	100.313	52.7344	101.526	52.7344	100.159	52.7344	101.6	52.7344	100.02	52.7344	101.639	52.7344	99.8995	52.7344	101.643	52.7344	99.8	52.7344	101.607	52.7344	99.7239	52.7344	101.535	52.7344	99.6724	52.7344	101.427	52.7344	99.6461	52.7344	101.29	52.7344	99.6448	52.7344	101.131	52.7344	99.668	52.7344	100.957	52.7344	99.7145	52.7344	100.776	52.7344	99.7834	52.7344	100.596	52.7344	99.8735	52.7344	100.422	52.7344	99.9839	52.7344	100.26	52.7344	100.113
54.1992	101.333	54.1992	101.166	54.1992	101.492	54.1992	100.994	54.1992	101.637	54.1992	100.825	54.1992	101.763	54.1992	100.661	54.1992	101.864	54.1992	100.508	54.1992	101.935	54.1992	100.369	54.1992	101.972	54.1992	100.248	54.1992	101.971	54.1992	100.148	54.1992	101.932	54.1992	100.07	54.1992	101.854	54.1992	100.016	54.1992	101.742	54.1992	99.9877	54.1992	101.601	54.1992	99.984	54.1992	101.44	54.1992	100.005	54.1992	101.265	54.1992	100.049	54.1992	101.086	54.1992	100.115	54.1992	100.909	54.1992	100.203	54.1992	100.739	54.1992	100.311	54.1992	100.581	54.1992	100.438
55.6641	101.69	55.6641	101.522	55.6641	101.851	55.6641	101.353	55.6641	101.998	55.6641	101.186	55.6641	102.128	55.6641	101.026	55.6641	102.233	55.6641	100.878	55.6641	102.308	55.6641	100.744	55.6641	102.349	55.6641	100.627	55.6641	102.351	55.6641	100.53	55.6641	102.312	55.6641	100.455	55.6641	102.235	55.6641	100.403	55.6641	102.122	55.6641	100.374	55.6641	101.978	55.6641	100.369	55.6641	101.813	55.6641	100.388	55.6641	101.634	55.6641	100.429	55.6641	101.451	55.6641	100.491	55.6641	101.272	55.6641	100.575	55.6641	101.101	55.6641	100.679	55.6641	100.944	55.6641	100.802
58.5938	102.065	58.5938	101.897	58.5938	102.227	58.5938	101.727	58.5938	102.377	58.5938	101.561	58.5938	102.508	58.5938	101.404	58.5938	102.616	58.5938	101.258	58.5938	102.695	58.5938	101.128	58.5938	102.74	58.5938	101.015	58.5938	102.748	58.5938	100.923	58.5938	102.717	58.5938	100.852	58.5938	102.647	58.5938	100.804	58.5938	102.543	58.5938	100.779	58.5938	102.409	58.5938	100.778	58.5938	102.252	58.5938	100.801	58.5938	102.08	58.5938	100.846	58.5938	101.901	58.5938	100.914	58.5938	101.723	58.5938	101.003	58.5938	101.55	58.5938	101.113	58.5938	101.389	58.5938	101.243
60.0586	102.062	60.0586	101.895	60.0586	102.223	60.0586	101.727	60.0586	102.372	60.0586	101.565	60.0586	102.504	60.0586	101.412	60.0586	102.613	60.0586	101.273	60.0586	102.693	60.0586	101.15	60.0586	102.74	60.0586	101.048	60.0586	102.751	60.0586	100.968	60.0586	102.726	60.0586	100.911	60.0586	102.665	60.0586	100.877	60.0586	102.572	60.0586	100.868	60.0586	102.452	60.0586	100.882	60.0586	102.311	60.0586	100.919	60.0586	102.157	60.0586	100.977	60.0586	101.996	60.0586	101.054	60.0586	101.835	60.0586	101.15	60.0586	101.678	60.0586	101.262	60.0586	101.528	60.0586	101.389
62.9883	101.922	62.9883	101.757	62.9883	102.079	62.9883	101.59	62.9883	102.222	62.9883	101.426	62.9883	102.346	62.9883	101.27	62.9883	102.445	62.9883	101.126	62.9883	102.515	62.9883	100.999	62.9883	102.552	62.9883	100.892	62.9883	102.554	62.9883	100.807	62.9883	102.521	62.9883	100.746	62.9883	102.453	62.9883	100.711	62.9883	102.356	62.9883	100.7	62.9883	102.235	62.9883	100.713	62.9883	102.096	62.9883	100.749	62.9883	101.946	62.9883	100.807	62.9883	101.791	62.9883	100.884	62.9883	101.636	62.9883	100.978	62.9883	101.486	62.9883	101.087	62.9883	101.343	62.9883	101.21
64.4531	101.823	64.4531	101.657	64.4531	101.981	64.4531	101.488	64.4531	102.125	64.4531	101.322	64.4531	102.249	64.4531	101.164	64.4531	102.349	64.4531	101.019	64.4531	102.419	64.4531	100.891	64.4531	102.456	64.4531	100.784	64.4531	102.458	64.4531	100.699	64.4531	102.425	64.4531	100.638	64.4531	102.358	64.4531	100.603	64.4531	102.262	64.4531	100.594	64.4531	102.142	64.4531	100.609	64.4531	102.005	64.4531	100.648	64.4531	101.856	64.4531	100.707	64.4531	101.702	64.4531	100.787	64.4531	101.549	64.4531	100.883	64.4531	101.398	64.4531	100.995	64.4531	101.254	64.4531	101.119
67.3828	101.596	67.3828	101.428	67.3828	101.755	67.3828	101.258	67.3828	101.898	67.3828	101.089	67.3828	102.021	67.3828	100.929	67.3828	102.118	67.3828	100.782	67.3828	102.185	67.3828	100.652	67.3828	102.219	67.3828	100.543	67.3828	102.218	67.3828	100.458	67.3828	102.181	67.3828	100.398	67.3828	102.113	67.3828	100.365	67.3828	102.016	67.3828	100.358	67.3828	101.896	67.3828	100.376	67.3828	101.761	67.3828	100.417	67.3828	101.616	67.3828	100.48	67.3828	101.467	67.3828	100.563	67.3828	101.318	67.3828	100.661	67.3828	101.172	67.3828	100.774	67.3828	101.031	67.3828	100.898
68.8477	101.491	68.8477	101.324	68.8477	101.648	68.8477	101.152	68.8477	101.789	68.8477	100.983	68.8477	101.909	68.8477	100.82	68.8477	102.002	68.8477	100.67	68.8477	102.064	68.8477	100.537	68.8477	102.093	68.8477	100.424	68.8477	102.086	68.8477	100.335	68.8477	102.045	68.8477	100.272	68.8477	101.972	68.8477	100.235	68.8477	101.872	68.8477	100.224	68.8477	101.75	68.8477	100.24	68.8477	101.613	68.8477	100.279	68.8477	101.467	68.8477	100.34	68.8477	101.317	68.8477	100.42	68.8477	101.168	68.8477	100.517	68.8477	101.023	68.8477	100.628	68.8477	100.883	68.8477	100.751
71.7773	101.276	71.7773	101.113	71.7773	101.428	71.7773	100.945	71.7773	101.563	71.7773	100.778	71.7773	101.676	71.7773	100.617	71.7773	101.762	71.7773	100.468	71.7773	101.817	71.7773	100.336	71.7773	101.84	71.7773	100.223	71.7773	101.829	71.7773	100.134	71.7773	101.784	71.7773	100.071	71.7773	101.71	71.7773	100.033	71.7773	101.611	71.7773	100.021	71.7773	101.492	71.7773	100.034	71.7773	101.359	71.7773	100.071	71.7773	101.218	71.7773	100.129	71.7773	101.074	71.7773	100.206	71.7773	100.929	71.7773	100.299	71.7773	100.788	71.7773	100.405	71.7773	100.652	71.7773	100.524
74.707	101.021	74.707	100.864	74.707	101.166	74.707	100.701	74.707	101.295	74.707	100.538	74.707	101.4	74.707	100.381	74.707	101.479	74.707	100.235	74.707	101.528	74.707	100.106	74.707	101.544	74.707	99.9959	74.707	101.528	74.707	99.9094	74.707	101.481	74.707	99.8482	74.707	101.406	74.707	99.8132	74.707	101.308	74.707	99.8042	74.707	101.194	74.707	99.82	74.707	101.07	74.707	99.8588	74.707	100.939	74.707	99.918	74.707	100.807	74.707	99.9946	74.707	100.675	74.707	100.086	74.707	100.546	74.707	100.189	74.707	100.421	74.707	100.301
77.6367	100.751	77.6367	100.594	77.6367	100.896	77.6367	100.431	77.6367	101.023	77.6367	100.267	77.6367	101.127	77.6367	100.109	77.6367	101.204	77.6367	99.9628	77.6367	101.249	77.6367	99.8325	77.6367	101.262	77.6367	99.7227	77.6367	101.241	77.6367	99.6368	77.6367	101.191	77.6367	99.5769	77.6367	101.113	77.6367	99.544	77.6367	101.014	77.6367	99.5378	77.6367	100.9	77.6367	99.5571	77.6367	100.777	77.6367	99.5993	77.6367	100.651	77.6367	99.6615	77.6367	100.524	77.6367	99.7404	77.6367	100.399	77.6367	99.8324	77.6367	100.277	77.6367	99.9344	77.6367	100.158	77.6367	100.044
79.1016	100.659	79.1016	100.5	79.1016	100.805	79.1016	100.335	79.1016	100.932	79.1016	100.169	79.1016	101.035	79.1016	100.008	79.1016	101.111	79.1016	99.8591	79.1016	101.154	79.1016	99.7262	79.1016	101.164	79.1016	99.6139	79.1016	101.141	79.1016	99.5257	79.1016	101.087	79.1016	99.4638	79.1016	101.006	79.1016	99.4294	79.1016	100.904	79.1016	99.4221	79.1016	100.787	79.1016	99.4406	79.1016	100.662	79.1016	99.4825	79.1016	100.534	79.1016	99.5446	79.1016	100.407	79.1016	99.6235	79.1016	100.282	79.1016	99.7156	79.1016	100.16	79.1016	99.8175	79.1016	100.041	79.1016	99.9267
82.0312	100.454	82.0312	100.293	82.0312	100.601	82.0312	100.124	82.0312	100.728	82.0312	99.9545	82.0312	100.829	82.0312	99.7894	82.0312	100.901	82.0312	99.6353	82.0312	100.94	82.0312	99.4974	82.0312	100.945	82.0312	99.3802	82.0312	100.916	82.0312	99.2875	82.0312	100.856	82.0312	99.2213	82.0312	100.77	82.0312	99.1829	82.0312	100.662	82.0312	99.1718	82.0312	100.54	82.0312	99.1868	82.0312	100.41	82.0312	99.2253	82.0312	100.277	82.0312	99.2842	82.0312	100.145	82.0312	99.3601	82.0312	100.016	82.0312	99.4495	82.0312	99.8918	82.0312	99.5494	82.0312	99.7719	82.0312	99.6575
84.9609	100.154	84.9609	99.9923	84.9609	100.302	84.9609	99.8235	84.9609	100.43	84.9609	99.6542	84.9609	100.532	84.9609	99.4909	84.9609	100.606	84.9609	99.3401	84.9609	100.648	84.9609	99.2073	84.9609	100.657	84.9609	99.0974	84.9609	100.633	84.9609	99.0139	84.9609	100.581	84.9609	98.9589	84.9609	100.505	84.9609	98.933	84.9609	100.411	84.9609	98.9354	84.9609	100.304	84.9609	98.9637	84.9609	100.19	84.9609	99.015	84.9609	100.073	84.9609	99.0854	84.9609	99.9545	84.9609	99.1713	84.9609	99.8361	84.9609	99.2687	84.9609	99.7182	84.9609	99.3746	84.9609	99.6012	84.9609	99.4861
87.8906	100.076	87.8906	99.9109	87.8906	100.224	87.8906	99.7352	87.8906	100.348	87.8906	99.5558	87.8906	100.444	87.8906	99.3797	87.8906	100.507	87.8906	99.214	87.8906	100.536	87.8906	99.065	87.8906	100.53	87.8906	98.9387	87.8906	100.49	87.8906	98.8397	87.8906	100.422	87.8906	98.7713	87.8906	100.33	87.8906	98.7352	87.8906	100.222	87.8906	98.7312	87.8906	100.106	87.8906	98.7574	87.8906	99.987	87.8906	98.8103	87.8906	99.8694	87.8906	98.8854	87.8906	99.7546	87.8906	98.9773	87.8906	99.642	87.8906	99.0809	87.8906	99.5302	87.8906	99.1913	87.8906	99.4177	87.8906	99.3044
90.8203	99.9319	90.8203	99.7673	90.8203	100.078	90.8203	99.591	90.8203	100.2	90.8203	99.41	90.8203	100.292	90.8203	99.2318	90.8203	100.351	90.8203	99.0635	90.8203	100.375	90.8203	98.912	90.8203	100.364	90.8203	98.7833	90.8203	100.319	90.8203	98.6824	90.8203	100.247	90.8203	98.6126	90.8203	100.151	90.8203	98.5757	90.8203	100.042	90.8203	98.5716	90.8203	99.9253	90.8203	98.5981	90.8203	99.8077	90.8203	98.6516	90.8203	99.6928	90.8203	98.7273	90.8203	99.5816	90.8203	98.8198	90.8203	99.4729	90.8203	98.9233	90.8203	99.3648	90.8203	99.033	90.8203	99.2556	90.8203	99.1446
95.2148	99.7625	95.2148	99.5987	95.2148	99.9043	95.2148	99.4197	95.2148	100.018	95.2148	99.2326	95.2148	100.1	95.2148	99.0449	95.2148	100.145	95.2148	98.8641	95.2148	100.152	95.2148	98.6971	95.2148	100.122	95.2148	98.5505	95.2148	100.058	95.2148	98.4299	95.2148	99.9633	95.2148	98.3393	95.2148	99.8466	95.2148	98.2813	95.2148	99.7157	95.2148	98.2568	95.2148	99.5789	95.2148	98.2644	95.2148	99.4432	95.2148	98.3011	95.2148	99.3132	95.2148	98.3625	95.2148	99.1906	95.2148	98.4431	95.2148	99.0746	95.2148	98.5371	95.2148	98.9631	95.2148	98.6394	95.2148	98.8539	95.2148	98.7458
98.1445	99.5969	98.1445	99.4387	98.1445	99.7331	98.1445	99.2649	98.1445	99.8416	98.1445	99.0827	98.1445	99.9177	98.1445	98.8995	98.1445	99.9586	98.1445	98.7228	98.1445	99.9627	98.1445	98.5598	98.1445	99.9311	98.1445	98.417	98.1445	99.8667	98.1445	98.3	98.1445	99.775	98.1445	98.2129	98.1445	99.6631	98.1445	98.1583	98.1445	99.5391	98.1445	98.1368	98.1445	99.4107	98.1445	98.1469	98.1445	99.2841	98.1445	98.1853	98.1445	99.1629	98.1445	98.2474	98.1445	99.0483	98.1445	98.3278	98.1445	98.9391	98.1445	98.4206	98.1445	98.8332	98.1445	98.5208	98.1445	98.7286	98.1445	98.6242
101.074	99.4209	101.074	99.2633	101.074	99.5551	101.074	99.089	101.074	99.6602	101.074	98.9052	101.074	99.7317	101.074	98.7197	101.074	99.7666	101.074	98.5401	101.074	99.7641	101.074	98.3739	101.074	99.7253	101.074	98.2279	101.074	99.6541	101.074	98.1078	101.074	99.5566	101.074	98.0182	101.074	99.4406	101.074	97.9615	101.074	99.3149	101.074	97.9384	101.074	99.1874	101.074	97.9475	101.074	99.0641	101.074	97.9856	101.074	98.948	101.074	98.0481	101.074	98.839	101.074	98.1292	101.074	98.7349	101.074	98.223	101.074	98.633	101.074	98.3239	101.074	98.5308	101.074	98.4275
105.469	99.2891	105.469	99.1241	105.469	99.4276	105.469	98.9397	105.469	99.5334	105.469	98.7438	105.469	99.602	105.469	98.5445	105.469	99.6302	105.469	98.3503	105.469	99.6173	105.469	98.1695	105.469	99.5648	105.469	98.0096	105.469	99.4771	105.469	97.8772	105.469	99.3612	105.469	97.7772	105.469	99.2264	105.469	97.7126	105.469	99.083	105.469	97.6843	105.469	98.9405	105.469	97.6906	105.469	98.8061	105.469	97.7279	105.469	98.6834	105.469	97.7908	105.469	98.572	105.469	97.8728	105.469	98.4688	105.469	97.9673	105.469	98.3697	105.469	98.068	105.469	98.2708	105.469	98.1701
108.398	99.3177	108.398	99.1539	108.398	99.4547	108.398	98.9704	108.398	99.5589	108.398	98.7749	108.398	99.6258	108.398	98.576	108.398	99.6526	108.398	98.3821	108.398	99.6387	108.398	98.2018	108.398	99.5858	108.398	98.0425	108.398	99.4985	108.398	97.9111	108.398	99.3837	108.398	97.8124	108.398	99.2505	108.398	97.7494	108.398	99.1091	108.398	97.7226	108.398	98.9686	108.398	97.7304	108.398	98.8359	108.398	97.7687	108.398	98.7145	108.398	97.8321	108.398	98.6042	108.398	97.914	108.398	98.5021	108.398	98.0077	108.398	98.4041	108.398	98.107	108.398	98.3066	108.398	98.2075
112.793	99.2537	112.793	99.0885	112.793	99.3908	112.793	98.9025	112.793	99.4938	112.793	98.7041	112.793	99.5578	112.793	98.502	112.793	99.5802	112.793	98.3054	112.793	99.5605	112.793	98.1236	112.793	99.5009	112.793	97.9648	112.793	99.4069	112.793	97.8363	112.793	99.2869	112.793	97.7435	112.793	99.1517	112.793	97.6893	112.793	99.0128	112.793	97.6738	112.793	98.8806	112.793	97.6946	112.793	98.7619	112.793	97.7466	112.793	98.6587	112.793	97.8232	112.793	98.5685	112.793	97.9165	112.793	98.4855	112.793	98.0188	112.793	98.4034	112.793	98.1228	112.793	98.3169	112.793	98.2233
117.188	99.1948	117.188	99.0256	117.188	99.3329	117.188	98.8327	117.188	99.434	117.188	98.6243	117.188	99.4933	117.188	98.4095	117.188	99.508	117.188	98.1979	117.188	99.4777	117.188	97.999	117.188	99.4043	117.188	97.8222	117.188	99.2932	117.188	97.6757	117.188	99.1531	117.188	97.566	117.188	98.9953	117.188	97.4974	117.188	98.8328	117.188	97.4707	117.188	98.6779	117.188	97.4839	117.188	98.54	117.188	97.5315	117.188	98.4231	117.188	97.6061	117.188	98.3258	117.188	97.6983	117.188	98.242	117.188	97.7991	117.188	98.1636	117.188	97.9002	117.188	98.0832	117.188	97.9958
120.117	99.1737	120.117	99.0073	120.117	99.3103	120.117	98.8183	120.117	99.4108	120.117	98.6146	120.117	99.4701	120.117	98.4046	120.117	99.4846	120.117	98.1968	120.117	99.4533	120.117	98	120.117	99.3775	120.117	97.8227	120.117	99.2622	120.117	97.6725	120.117	99.1156	120.117	97.5558	120.117	98.9493	120.117	97.4772	120.117	98.7766	120.117	97.4386	120.117	98.6104	120.117	97.4388	120.117	98.4611	120.117	97.4737	120.117	98.334	120.117	97.5364	120.117	98.2286	120.117	97.6184	120.117	98.1397	120.117	97.7106	120.117	98.0592	120.117	97.8048	120.117	97.9795	120.117	97.8952
124.512	99.1733	124.512	98.9988	124.512	99.3173	124.512	98.8018	124.512	99.4236	124.512	98.5912	124.512	99.4871	124.512	98.3763	124.512	99.5043	124.512	98.1663	124.512	99.4744	124.512	97.9705	124.512	99.3994	124.512	97.7971	124.512	99.2847	124.512	97.6535	124.512	99.1389	124.512	97.5452	124.512	98.9737	124.512	97.4757	124.512	98.8021	124.512	97.4458	124.512	98.637	124.512	97.4536	124.512	98.4883	124.512	97.4944	124.512	98.3612	124.512	97.5613	124.512	98.2557	124.512	97.6457	124.512	98.1666	124.512	97.739	124.512	98.0863	124.512	97.8334	124.512	98.0071	124.512	97.9234
128.906	99.0906	128.906	98.9133	128.906	99.2344	128.906	98.7108	128.906	99.3382	128.906	98.4923	128.906	99.3971	128.906	98.2679	128.906	99.4085	128.906	98.0479	128.906	99.372	128.906	97.8427	128.906	99.2905	128.906	97.6615	128.906	99.1697	128.906	97.5125	128.906	99.0187	128.906	97.4018	128.906	98.8491	128.906	97.333	128.906	98.6744	128.906	97.3065	128.906	98.5073	128.906	97.3198	128.906	98.358	128.906	97.3671	128.906	98.232	128.906	97.4404	128.906	98.1289	128.906	97.5302	128.906	98.0435	128.906	97.627	128.906	97.9675	128.906	97.7226	128.906	97.8923	128.906	97.8116
133.301	98.9773	133.301	98.7968	133.301	99.123	133.301	98.5894	133.301	99.2276	133.301	98.3644	133.301	99.2869	133.301	98.1321	133.301	99.2989	133.301	97.9036	133.301	99.264	133.301	97.6895	133.301	99.1854	133.301	97.5002	133.301	99.069	133.301	97.3441	133.301	98.9237	133.301	97.2279	133.301	98.7606	133.301	97.1552	133.301	98.5916	133.301	97.1268	133.301	98.4281	133.301	97.1399	133.301	98.2789	133.301	97.189	133.301	98.1486	133.301	97.266	133.301	98.0372	133.301	97.3613	133.301	97.9403	133.301	97.4655	133.301	97.8513	133.301	97.5703	133.301	97.763	133.301	97.67
139.16	98.8049	139.16	98.6165	139.16	98.9584	139.16	98.4019	139.16	99.0704	139.16	98.171	139.16	99.1364	139.16	97.9351	139.16	99.1542	139.16	97.7064	139.16	99.1242	139.16	97.4967	139.16	99.0503	139.16	97.3171	139.16	98.9396	139.16	97.1767	139.16	98.8024	139.16	97.0817	139.16	98.6514	139.16	97.0346	139.16	98.4997	139.16	97.0341	139.16	98.3587	139.16	97.0756	139.16	98.2355	139.16	97.1512	139.16	98.1317	139.16	97.2517	139.16	98.044	139.16	97.3667	139.16	97.9653	139.16	97.4863	139.16	97.8876	139.16	97.6023	139.16	97.8036	139.16	97.7089
143.555	98.7415	143.555	98.5418	143.555	98.9036	143.555	98.3134	143.555	99.021	143.555	98.0668	143.555	99.0887	143.555	97.8137	143.555	99.1041	143.555	97.5673	143.555	99.0677	143.555	97.341	143.555	98.9835	143.555	97.148	143.555	98.8596	143.555	96.9998	143.555	98.7082	143.555	96.9044	143.555	98.5445	143.555	96.8655	143.555	98.3848	143.555	96.8814	143.555	98.2428	143.555	96.9458	143.555	98.1271	143.555	97.0482	143.555	98.0387	143.555	97.1758	143.555	97.9712	143.555	97.3152	143.555	97.9139	143.555	97.4542	143.555	97.8547	143.555	97.5825	143.555	97.7832	143.555	97.6931
147.949	98.8365	147.949	98.6251	147.949	99.0046	147.949	98.3794	147.949	99.1223	147.949	98.1097	147.949	99.1845	147.949	97.8276	147.949	99.1882	147.949	97.5461	147.949	99.1336	147.949	97.2791	147.949	99.0246	147.949	97.0407	147.949	98.8693	147.949	96.8445	147.949	98.6801	147.949	96.7018	147.949	98.4734	147.949	96.62	147.949	98.2675	147.949	96.6012	147.949	98.0799	147.949	96.6413	147.949	97.923	147.949	96.7306	147.949	97.8015	147.949	96.8551	147.949	97.7107	147.949	96.9986	147.949	97.6392	147.949	97.1454	147.949	97.572	147.949	97.2821	147.949	97.4954	147.949	97.3998
153.809	98.8299	153.809	98.6216	153.809	98.9903	153.809	98.3737	153.809	99.0963	153.809	98.0966	153.809	99.1441	153.809	97.8027	153.809	99.1324	153.809	97.5056	153.809	99.0628	153.809	97.2202	153.809	98.9406	153.809	96.9621	153.809	98.7745	153.809	96.7459	153.809	98.5772	153.809	96.5843	153.809	98.3643	153.809	96.4854	153.809	98.1532	153.809	96.4522	153.809	97.9599	153.809	96.4807	153.809	97.796	153.809	96.5613	153.809	97.666	153.809	96.6798	153.809	97.5658	153.809	96.82	153.809	97.4849	153.809	96.9658	153.809	97.4092	153.809	97.1038	153.809	97.3256	153.809	97.2248
159.668	98.9809	159.668	98.7766	159.668	99.1376	159.668	98.532	159.668	99.2412	159.668	98.256	159.668	99.2885	159.668	97.9593	159.668	99.2785	159.668	97.6539	159.668	99.2127	159.668	97.3534	159.668	99.096	159.668	97.0723	159.668	98.9362	159.668	96.8256	159.668	98.7447	159.668	96.6276	159.668	98.5354	159.668	96.4902	159.668	98.3238	159.668	96.4209	159.668	98.124	159.668	96.4207	159.668	97.9468	159.668	96.4836	159.668	97.7971	159.668	96.5971	159.668	97.6724	159.668	96.7443	159.668	97.5639	159.668	96.9067	159.668	97.4591	159.668	97.068	159.668	97.346	159.668	97.2162
165.527	98.9801	165.527	98.7912	165.527	99.123	165.527	98.5646	165.527	99.2135	165.527	98.3099	165.527	99.2479	165.527	98.0383	165.527	99.2252	165.527	97.762	165.527	99.1482	165.527	97.4937	165.527	99.0234	165.527	97.2468	165.527	98.8616	165.527	97.0344	165.527	98.6772	165.527	96.8684	165.527	98.4863	165.527	96.7585	165.527	98.3051	165.527	96.7104	165.527	98.1463	165.527	96.7246	165.527	98.0171	165.527	96.7956	165.527	97.9174	165.527	96.912	165.527	97.84	165.527	97.058	165.527	97.7728	165.527	97.2158	165.527	97.7019	165.527	97.3687	165.527	97.6147	165.527	97.5039
171.387	98.8427	171.387	98.6435	171.387	98.9911	171.387	98.4026	171.387	99.0821	171.387	98.1311	171.387	99.1117	171.387	97.8417	171.387	99.079	171.387	97.5489	171.387	98.9865	171.387	97.268	171.387	98.8411	171.387	97.0147	171.387	98.6545	171.387	96.804	171.387	98.4427	171.387	96.6487	171.387	98.2256	171.387	96.5579	171.387	98.0238	171.387	96.5351	171.387	97.8551	171.387	96.5778	171.387	97.7302	171.387	96.6763	171.387	97.6495	171.387	96.8156	171.387	97.6032	171.387	96.9768	171.387	97.5742	171.387	97.1401	171.387	97.5423	171.387	97.2875	171.387	97.4901	171.387	97.4061
177.246	98.7614	177.246	98.5574	177.246	98.9134	177.246	98.3101	177.246	99.0069	177.246	98.0302	177.246	99.0379	177.246	97.7298	177.246	99.0054	177.246	97.4228	177.246	98.9121	177.246	97.1242	177.246	98.7646	177.246	96.8502	177.246	98.5743	177.246	96.6172	177.246	98.3561	177.246	96.4403	177.246	98.1282	177.246	96.3309	177.246	97.9093	177.246	96.2947	177.246	97.7159	177.246	96.3296	177.246	97.5596	177.246	96.4251	177.246	97.4447	177.246	96.5637	177.246	97.3671	177.246	96.7239	177.246	97.3148	177.246	96.8839	177.246	97.2707	177.246	97.0253	177.246	97.2162	177.246	97.1368
183.105	98.7079	183.105	98.5002	183.105	98.8596	183.105	98.2454	183.105	98.9486	183.105	97.9548	183.105	98.9714	183.105	97.6414	183.105	98.9279	183.105	97.3203	183.105	98.8221	183.105	97.0074	183.105	98.663	183.105	96.7199	183.105	98.4647	183.105	96.4746	183.105	98.2461	183.105	96.2872	183.105	98.0279	183.105	96.17	183.105	97.8298	183.105	96.1298	183.105	97.6654	183.105	96.1657	183.105	97.54	183.105	96.2682	183.105	97.4498	183.105	96.4199	183.105	97.3848	183.105	96.5988	183.105	97.3306	183.105	96.7817	183.105	97.2719	183.105	96.9492	183.105	97.1946	183.105	97.0883
188.965	98.7588	188.965	98.5422	188.965	98.9124	188.965	98.2718	188.965	98.9959	188.965	97.9591	188.965	99.0052	188.965	97.6176	188.965	98.9397	188.965	97.2629	188.965	98.8031	188.965	96.9123	188.965	98.6049	188.965	96.585	188.965	98.3611	188.965	96.3006	188.965	98.0946	188.965	96.078	188.965	97.8335	188.965	95.9328	188.965	97.6053	188.965	95.8747	188.965	97.4305	188.965	95.9045	188.965	97.3156	188.965	96.0128	188.965	97.2516	188.965	96.1808	188.965	97.2182	188.965	96.3834	188.965	97.1907	188.965	96.5939	188.965	97.1466	188.965	96.7885	188.965	97.0693	188.965	96.9499
196.289	99.0801	196.289	98.8773	196.289	99.2198	196.289	98.62	196.289	99.2898	196.289	98.3188	196.289	99.286	196.289	97.986	196.289	99.2074	196.289	97.6357	196.289	99.0573	196.289	97.2838	196.289	98.8437	196.289	96.9482	196.289	98.5812	196.289	96.6479	196.289	98.291	196.289	96.402	196.289	97.9998	196.289	96.2271	196.289	97.736	196.289	96.1349	196.289	97.5239	196.289	96.1286	196.289	97.3763	196.289	96.2016	196.289	97.2905	196.289	96.3378	196.289	97.249	196.289	96.5136	196.289	97.2257	196.289	96.7027	196.289	97.1934	196.289	96.8801	196.289	97.1307	196.289	97.0263
203.613	99.0109	203.613	98.8156	203.613	99.1413	203.613	98.564	203.613	99.2001	203.613	98.267	203.613	99.1828	203.613	97.9371	203.613	99.0879	203.613	97.5889	203.613	98.9171	203.613	97.239	203.613	98.6775	203.613	96.9049	203.613	98.383	203.613	96.6053	203.613	98.0555	203.613	96.3583	203.613	97.7254	203.613	96.1799	203.613	97.4273	203.613	96.0811	203.613	97.1925	203.613	96.0656	203.613	97.039	203.613	96.1274	203.613	96.9649	203.613	96.2507	203.613	96.9491	203.613	96.4117	203.613	96.9594	203.613	96.5834	203.613	96.963	203.613	96.7397	203.613	96.9346	203.613	96.8604
210.938	99.0558	210.938	98.8459	210.938	99.199	210.938	98.5765	210.938	99.2694	210.938	98.2565	210.938	99.2627	210.938	97.8968	210.938	99.1763	210.938	97.5105	210.938	99.0108	210.938	97.1136	210.938	98.7709	210.938	96.7255	210.938	98.4677	210.938	96.369	210.938	98.1204	210.938	96.0687	210.938	97.7571	210.938	95.8483	210.938	97.4125	210.938	95.7255	210.938	97.122	210.938	95.7071	210.938	96.9122	210.938	95.7851	210.938	96.7911	210.938	95.9374	210.938	96.7446	210.938	96.1319	210.938	96.7413	210.938	96.3335	210.938	96.7434	210.938	96.5109	210.938	96.7173	210.938	96.6419
218.262	98.9739	218.262	98.7584	218.262	99.1297	218.262	98.4927	218.262	99.2177	218.262	98.1873	218.262	99.2317	218.262	97.8542	218.262	99.1681	218.262	97.5061	218.262	99.0272	218.262	97.1572	218.262	98.8143	218.262	96.8228	218.262	98.5414	218.262	96.5196	218.262	98.2277	218.262	96.2654	218.262	97.9	218.262	96.0777	218.262	97.5898	218.262	95.9714	218.262	97.3282	218.262	95.9544	218.262	97.1378	218.262	96.0237	218.262	97.0251	218.262	96.163	218.262	96.9773	218.262	96.3451	218.262	96.9663	218.262	96.5377	218.262	96.9582	218.262	96.7108	218.262	96.9233	218.262	96.8424
225.586	99.028	225.586	98.7992	225.586	99.1843	225.586	98.5085	225.586	99.2594	225.586	98.1686	225.586	99.2474	225.586	97.7939	225.586	99.1455	225.586	97.4016	225.586	98.956	225.586	97.0113	225.586	98.6879	225.586	96.6453	225.586	98.3586	225.586	96.3269	225.586	97.9957	225.586	96.0782	225.586	97.6362	225.586	95.9175	225.586	97.3226	225.586	95.8552	225.586	97.0924	225.586	95.8922	225.586	96.9659	225.586	96.0175	225.586	96.9373	225.586	96.2088	225.586	96.9763	225.586	96.4356	225.586	97.0395	225.586	96.6638	225.586	97.084	225.586	96.8614	225.586	97.0777	225.586	97.0038
232.91	99.2257	232.91	98.9853	232.91	99.3961	232.91	98.6853	232.91	99.4866	232.91	98.3362	232.91	99.4885	232.91	97.9495	232.91	99.3951	232.91	97.5379	232.91	99.2031	232.91	97.1171	232.91	98.9136	232.91	96.7069	232.91	98.5344	232.91	96.3316	232.91	98.0835	232.91	96.0186	232.91	97.5928	232.91	95.7948	232.91	97.1119	232.91	95.6806	232.91	96.7044	232.91	95.6832	232.91	96.4323	232.91	95.7926	232.91	96.3277	232.91	95.9812	232.91	96.3708	232.91	96.2093	232.91	96.4981	232.91	96.4323	232.91	96.6329	232.91	96.609	232.91	96.714	232.91	96.7081
241.699	99.0352	241.699	98.7434	241.699	99.2569	241.699	98.3954	241.699	99.3978	241.699	98.0071	241.699	99.4509	241.699	97.596	241.699	99.4131	241.699	97.1797	241.699	99.2853	241.699	96.7765	241.699	99.0729	241.699	96.4047	241.699	98.7854	241.699	96.0837	241.699	98.4365	241.699	95.8324	241.699	98.0436	241.699	95.6667	241.699	97.6285	241.699	95.5957	241.699	97.219	241.699	95.6178	241.699	96.8502	241.699	95.7188	241.699	96.5618	241.699	95.8729	241.699	96.3835	241.699	96.0465	241.699	96.3167	241.699	96.2044	241.699	96.3277	241.699	96.317	241.699	96.3616	241.699	96.368
250.488	99.3745	250.488	99.0653	250.488	99.5915	250.488	98.6736	250.488	99.709	250.488	98.211	250.488	99.7227	250.488	97.6913	250.488	99.6318	250.488	97.1311	250.488	99.4403	250.488	96.5515	250.488	99.1581	250.488	95.9806	250.488	98.802	250.488	95.4562	250.488	98.3964	250.488	95.0251	250.488	97.972	250.488	94.736	250.488	97.5626	250.488	94.624	250.488	97.1996	250.488	94.6934	250.488	96.9069	250.488	94.912	250.488	96.6963	250.488	95.2217	250.488	96.5651	250.488	95.5587	250.488	96.4943	250.488	95.8697	250.488	96.451	250.488	96.1193	250.488	96.3958	250.488	96.2929
259.277	99.5822	259.277	99.3553	259.277	99.7319	259.277	99.0578	259.277	99.7997	259.277	98.6974	259.277	99.7822	259.277	98.2828	259.277	99.6784	259.277	97.8237	259.277	99.4902	259.277	97.3311	259.277	99.2232	259.277	96.8187	259.277	98.8884	259.277	96.3054	259.277	98.5032	259.277	95.8193	259.277	98.0927	259.277	95.4005	259.277	97.6887	259.277	95.0981	259.277	97.3262	259.277	94.9574	259.277	97.0365	259.277	94.9985	259.277	96.8379	259.277	95.201	259.277	96.7263	259.277	95.5082	259.277	96.6729	259.277	95.8488	259.277	96.631	259.277	96.1596	259.277	96.5516	259.277	96.3987
268.066	99.2925	268.066	99.0261	268.066	99.4754	268.066	98.6864	268.066	99.5674	268.066	98.2863	268.066	99.5649	268.066	97.8408	268.066	99.4688	268.066	97.3666	268.066	99.2851	268.066	96.8817	268.066	99.0245	268.066	96.4053	268.066	98.7022	268.066	95.9579	268.066	98.3359	268.066	95.5625	268.066	97.9445	268.066	95.2466	268.066	97.5472	268.066	95.0406	268.066	97.1649	268.066	94.9696	268.066	96.8235	268.066	95.0399	268.066	96.5516	268.066	95.229	268.066	96.3706	268.066	95.4874	268.066	96.2784	268.066	95.7551	268.066	96.2422	268.066	95.9799	268.066	96.2099	268.066	96.1319
276.855	99.2897	276.855	99.0437	276.855	99.4521	276.855	98.7221	276.855	99.525	276.855	98.3344	276.855	99.5053	276.855	97.8909	276.855	99.3932	276.855	97.4027	276.855	99.1931	276.855	96.8823	276.855	98.9164	276.855	96.3455	276.855	98.5836	276.855	95.8147	276.855	98.2258	276.855	95.3227	276.855	97.8797	276.855	94.9143	276.855	97.5755	276.855	94.6422	276.855	97.3241	276.855	94.5504	276.855	97.117	276.855	94.6509	276.855	96.939	276.855	94.91	276.855	96.7814	276.855	95.259	276.855	96.642	276.855	95.6221	276.855	96.5132	276.855	95.9418	276.855	96.3732	276.855	96.191
287.109	99.4543	287.109	99.241	287.109	99.586	287.109	98.9539	287.109	99.6301	287.109	98.6016	287.109	99.5822	287.109	98.194	287.109	99.4411	287.109	97.7418	287.109	99.209	287.109	97.2565	287.109	98.8944	287.109	96.7504	287.109	98.5145	287.109	96.2382	287.109	98.0987	287.109	95.7402	287.109	97.6908	287.109	95.2878	287.109	97.3436	287.109	94.9269	287.109	97.1009	287.109	94.7114	287.109	96.9727	287.109	94.6819	287.109	96.9257	287.109	94.8399	287.109	96.9015	287.109	95.1411	287.109	96.8452	287.109	95.5163	287.109	96.723	287.109	95.8993	287.109	96.522	287.109	96.2434
297.363	99.6106	297.363	99.3812	297.363	99.7442	297.363	99.066	297.363	99.7747	297.363	98.6766	297.363	99.6976	297.363	98.226	297.363	99.5126	297.363	97.7295	297.363	99.224	297.363	97.2056	297.363	98.8425	297.363	96.6766	297.363	98.3884	297.363	96.1681	297.363	97.895	297.363	95.708	297.363	97.4111	297.363	95.3283	297.363	96.9994	297.363	95.0671	297.363	96.7241	297.363	94.9664	297.363	96.6254	297.363	95.0558	297.363	96.6915	297.363	95.328	297.363	96.8557	297.363	95.729	297.363	97.0253	297.363	96.1765	297.363	97.1182	297.363	96.5885	297.363	97.0833	297.363	96.9031
307.617	99.6034	307.617	99.3565	307.617	99.7859	307.617	99.0582	307.617	99.8896	307.617	98.7177	307.617	99.8992	307.617	98.3398	307.617	99.8004	307.617	97.9248	307.617	99.5818	307.617	97.4709	307.617	99.2387	307.617	96.9785	307.617	98.7771	307.617	96.4538	307.617	98.2202	307.617	95.9137	307.617	97.6133	307.617	95.3896	307.617	97.0273	307.617	94.9319	307.617	96.5499	307.617	94.6092	307.617	96.2567	307.617	94.4911	307.617	96.1691	307.617	94.6112	307.617	96.2341	307.617	94.9342	307.617	96.3498	307.617	95.3666	307.617	96.4132	307.617	95.7993	307.617	96.3544	307.617	96.1455
319.336	99.2545	319.336	98.9817	319.336	99.4507	319.336	98.6491	319.336	99.5551	319.336	98.2731	319.336	99.5559	319.336	97.8669	319.336	99.445	319.336	97.4387	319.336	99.2191	319.336	96.9933	319.336	98.8799	319.336	96.5379	319.336	98.4363	319.336	96.0876	319.336	97.9076	319.336	95.6693	319.336	97.3294	319.336	95.3201	319.336	96.7592	319.336	95.0792	319.336	96.2769	319.336	94.9785	319.336	95.968	319.336	95.032	319.336	95.8844	319.336	95.229	319.336	96.0016	319.336	95.5312	319.336	96.2201	319.336	95.8777	319.336	96.4158	319.336	96.196	319.336	96.4949	319.336	96.4178
329.59	99.221	329.59	98.9054	329.59	99.4564	329.59	98.5258	329.59	99.5986	329.59	98.101	329.59	99.638	329.59	97.6494	329.59	99.5674	329.59	97.1845	329.59	99.3817	329.59	96.7126	329.59	99.0778	329.59	96.233	329.59	98.6561	329.59	95.7467	329.59	98.1254	329.59	95.2686	329.59	97.5096	329.59	94.8411	329.59	96.8576	329.59	94.5371	329.59	96.252	329.59	94.4378	329.59	95.8031	329.59	94.5841	329.59	95.6084	329.59	94.9394	329.59	95.6839	329.59	95.4035	329.59	95.9362	329.59	95.8601	329.59	96.2163	329.59	96.2135	329.59	96.3954	329.59	96.4006
341.309	99.1926	341.309	98.903	341.309	99.4019	341.309	98.5485	341.309	99.5204	341.309	98.1483	341.309	99.5433	341.309	97.7228	341.309	99.4696	341.309	97.2905	341.309	99.3004	341.309	96.8654	341.309	99.0368	341.309	96.4538	341.309	98.6808	341.309	96.0539	341.309	98.2374	341.309	95.6599	341.309	97.7188	341.309	95.2732	341.309	97.1507	341.309	94.9169	341.309	96.5792	341.309	94.6459	341.309	96.0764	341.309	94.535	341.309	95.7305	341.309	94.6352	341.309	95.6031	341.309	94.9248	341.309	95.672	341.309	95.3068	341.309	95.8253	341.309	95.6572	341.309	95.9256	341.309	95.8779
353.027	99.3112	353.027	98.9106	353.027	99.5871	353.027	98.4049	353.027	99.725	353.027	97.8206	353.027	99.718	353.027	97.1917	353.027	99.5658	353.027	96.5557	353.027	99.2762	353.027	95.9468	353.027	98.8657	353.027	95.3859	353.027	98.3606	353.027	94.878	353.027	97.7987	353.027	94.4218	353.027	97.2296	353.027	94.0325	353.027	96.709	353.027	93.7629	353.027	96.2843	353.027	93.6954	353.027	95.9787	353.027	93.8872	353.027	95.7907	353.027	94.3036	353.027	95.7075	353.027	94.8215	353.027	95.7127	353.027	95.2998	353.027	95.7744	353.027	95.6406	353.027	95.8328	353.027	95.81
366.211	99.6755	366.211	99.3991	366.211	99.86	366.211	99.0393	366.211	99.941	366.211	98.5996	366.211	99.9054	366.211	98.0808	366.211	99.7427	366.211	97.4849	366.211	99.4488	366.211	96.8225	366.211	99.0301	366.211	96.1183	366.211	98.5054	366.211	95.4093	366.211	97.9068	366.211	94.7362	366.211	97.277	366.211	94.1347	366.211	96.6647	366.211	93.6444	366.211	96.1248	366.211	93.3321	366.211	95.7233	366.211	93.2924	366.211	95.5277	366.211	93.5813	366.211	95.5583	366.211	94.1349	366.211	95.7378	366.211	94.7893	366.211	95.9182	366.211	95.3765	366.211	95.9598	366.211	95.7833
379.395	99.5524	379.395	99.2529	379.395	99.7721	379.395	98.8929	379.395	99.895	379.395	98.4905	379.395	99.9085	379.395	98.0586	379.395	99.8054	379.395	97.6028	379.395	99.5822	379.395	97.1236	379.395	99.237	379.395	96.6209	379.395	98.7697	379.395	96.0976	379.395	98.187	379.395	95.5604	379.395	97.5146	379.395	95.0177	379.395	96.8104	379.395	94.4836	379.395	96.1657	379.395	93.9933	379.395	95.6762	379.395	93.6224	379.395	95.392	379.395	93.4759	379.395	95.2868	379.395	93.6169	379.395	95.2765	379.395	93.9933	379.395	95.2574	379.395	94.46	379.395	95.1392	379.395	94.8701
392.578	99.0869	392.578	98.8148	392.578	99.2562	392.578	98.4534	392.578	99.3207	392.578	98.0269	392.578	99.2879	392.578	97.5648	392.578	99.1689	392.578	97.0955	392.578	98.9697	392.578	96.6368	392.578	98.6862	392.578	96.1908	392.578	98.3077	392.578	95.7465	392.578	97.8299	392.578	95.2902	392.578	97.2739	392.578	94.8209	392.578	96.7006	392.578	94.3659	392.578	96.2023	392.578	93.9934	392.578	95.8604	392.578	93.8028	392.578	95.6975	392.578	93.8741	392.578	95.6725	392.578	94.1982	392.578	95.7135	392.578	94.6656	392.578	95.743	392.578	95.132	392.578	95.6864	392.578	95.4876
405.762	99.1017	405.762	98.8556	405.762	99.2173	405.762	98.4964	405.762	99.1973	405.762	98.0504	405.762	99.0499	405.762	97.547	405.762	98.7928	405.762	97.0146	405.762	98.448	405.762	96.4789	405.762	98.0344	405.762	95.9628	405.762	97.5641	405.762	95.4876	405.762	97.0419	405.762	95.0696	405.762	96.477	405.762	94.7158	405.762	95.9076	405.762	94.4278	405.762	95.4252	405.762	94.2192	405.762	95.1561	405.762	94.1321	405.762	95.1703	405.762	94.2225	405.762	95.401	405.762	94.5087	405.762	95.688	405.762	94.9309	405.762	95.8834	405.762	95.3735	405.762	95.9024	405.762	95.7227
420.41	100.093	420.41	99.7949	420.41	100.291	420.41	99.4073	420.41	100.383	420.41	98.9451	420.41	100.358	420.41	98.425	420.41	100.204	420.41	97.8589	420.41	99.9028	420.41	97.2479	420.41	99.4357	420.41	96.5854	420.41	98.7897	420.41	95.8696	420.41	97.9633	420.41	95.1216	420.41	96.9822	420.41	94.4023	420.41	95.9299	420.41	93.8147	420.41	94.9825	420.41	93.4804	420.41	94.3839	420.41	93.4828	420.41	94.287	420.41	93.8098	420.41	94.6014	420.41	94.3486	420.41	95.0815	420.41	94.9376	420.41	95.505	420.41	95.4269	420.41	95.7355	420.41	95.7103
435.059	99.5359	435.059	99.2499	435.059	99.7024	435.059	98.8534	435.059	99.7536	435.059	98.3706	435.059	99.7022	435.059	97.8399	435.059	99.5642	435.059	97.3069	435.059	99.3536	435.059	96.8104	435.059	99.0763	435.059	96.3688	435.059	98.7241	435.059	95.9756	435.059	98.2726	435.059	95.6121	435.059	97.6921	435.059	95.2667	435.059	96.9778	435.059	94.952	435.059	96.2031	435.059	94.714	435.059	95.5653	435.059	94.626	435.059	95.3123	435.059	94.754	435.059	95.5006	435.059	95.0992	435.059	95.9111	435.059	95.571	435.059	96.2735	435.059	96.0278	435.059	96.4321	435.059	96.3417
451.172	100.418	451.172	100.089	451.172	100.594	451.172	99.6263	451.172	100.606	451.172	99.0591	451.172	100.456	451.172	98.418	451.172	100.155	451.172	97.7275	451.172	99.7181	451.172	96.9975	451.172	99.158	451.172	96.2223	451.172	98.4831	451.172	95.392	451.172	97.704	451.172	94.5214	451.172	96.8443	451.172	93.6949	451.172	95.9506	451.172	93.1054	451.172	95.1073	451.172	92.993	451.172	94.4686	451.172	93.4294	451.172	94.2566	451.172	94.2178	451.172	94.585	451.172	95.0775	451.172	95.2624	451.172	95.8111	451.172	95.946	451.172	96.3114	451.172	96.3951	451.172	96.518
465.82	100.421	465.82	100.154	465.82	100.532	465.82	99.7468	465.82	100.489	465.82	99.2333	465.82	100.314	465.82	98.6513	465.82	100.042	465.82	98.0359	465.82	99.6986	465.82	97.4129	465.82	99.29	465.82	96.7947	465.82	98.7915	465.82	96.1728	465.82	98.1594	465.82	95.5132	465.82	97.3556	465.82	94.7718	465.82	96.3833	465.82	93.947	465.82	95.3342	465.82	93.1723	465.82	94.4323	465.82	92.7619	465.82	93.9796	465.82	92.9849	465.82	94.1038	465.82	93.7074	465.82	94.5983	465.82	94.5361	465.82	95.1314	465.82	95.1751	465.82	95.4684	465.82	95.4951
483.398	100.269	483.398	100.003	483.398	100.358	483.398	99.582	483.398	100.276	483.398	99.0566	483.398	100.054	483.398	98.4993	483.398	99.7356	483.398	97.9752	483.398	99.3703	483.398	97.5085	483.398	98.9982	483.398	97.0671	483.398	98.629	483.398	96.5823	483.398	98.2216	483.398	95.9848	483.398	97.6903	483.398	95.2388	483.398	96.9475	483.398	94.3771	483.398	95.9799	483.398	93.5503	483.398	94.9582	483.398	93.0538	483.398	94.2904	483.398	93.1709	483.398	94.3249	483.398	93.8556	483.398	94.8944	483.398	94.7503	483.398	95.5369	483.398	95.5058	483.398	95.9258	483.398	95.9224
499.512	100.419	499.512	100.065	499.512	100.583	499.512	99.5311	499.512	100.567	499.512	98.8585	499.512	100.388	499.512	98.1194	499.512	100.065	499.512	97.4029	499.512	99.6244	499.512	96.7755	499.512	99.1053	499.512	96.2438	499.512	98.5524	499.512	95.7566	499.512	97.9934	499.512	95.2442	499.512	97.4139	499.512	94.6582	499.512	96.7601	499.512	93.995	499.512	95.9926	499.512	93.3294	499.512	95.18	499.512	92.8626	499.512	94.5696	499.512	92.877	499.512	94.4513	499.512	93.4592	499.512	94.8082	499.512	94.3311	499.512	95.3038	499.512	95.1116	499.512	95.6133	499.512	95.5642
517.09	99.9569	517.09	99.5786	517.09	100.166	517.09	99.0613	517.09	100.203	517.09	98.4652	517.09	100.084	517.09	97.8749	517.09	99.8396	517.09	97.3704	517.09	99.5116	517.09	96.9812	517.09	99.1357	517.09	96.6553	517.09	98.7185	517.09	96.2786	517.09	98.2188	517.09	95.7262	517.09	97.5538	517.09	94.9149	517.09	96.641	517.09	93.87	517.09	95.4914	517.09	92.8427	517.09	94.3844	517.09	92.3665	517.09	93.9332	517.09	92.8101	517.09	94.4236	517.09	93.846	517.09	95.3141	517.09	94.925	517.09	96.0223	517.09	95.7532	517.09	96.3342	517.09	96.2346
536.133	100.55	536.133	100.133	536.133	100.66	536.133	99.4125	536.133	100.47	536.133	98.4181	536.133	100.01	536.133	97.2466	536.133	99.3445	536.133	96.1304	536.133	98.591	536.133	95.4113	536.133	97.9178	536.133	95.2614	536.133	97.4994	536.133	95.4587	536.133	97.3922	536.133	95.6207	536.133	97.4324	536.133	95.4758	536.133	97.3126	536.133	94.9057	536.133	96.7539	536.133	93.9537	536.133	95.6491	536.133	92.9417	536.133	94.3091	536.133	92.5561	536.133	93.7308	536.133	93.2234	536.133	94.4524	536.133	94.444	536.133	95.5304	536.133	95.5361	536.133	96.1643	536.133	96.1553
555.176	101.176	555.176	100.805	555.176	101.302	555.176	100.174	555.176	101.193	555.176	99.2771	555.176	100.856	555.176	98.1256	555.176	100.287	555.176	96.7867	555.176	99.4857	555.176	95.4404	555.176	98.4878	555.176	94.4065	555.176	97.4104	555.176	93.9548	555.176	96.4883	555.176	93.9689	555.176	95.9544	555.176	94.0226	555.176	95.7552	555.176	93.7609	555.176	95.5306	555.176	93.0953	555.176	94.9369	555.176	92.3107	555.176	93.9635	555.176	92.0851	555.176	93.2448	555.176	92.8237	555.176	93.6266	555.176	94.037	555.176	94.6803	555.176	95.0731	555.176	95.4599	555.176	95.5939
574.219	101.037	574.219	100.686	574.219	101.18	574.219	100.12	574.219	101.123	574.219	99.3327	574.219	100.869	574.219	98.3327	574.219	100.413	574.219	97.158	574.219	99.7474	574.219	95.9061	574.219	98.8702	574.219	94.755	574.219	97.8254	574.219	93.9052	574.219	96.7455	574.219	93.4026	574.219	95.8455	574.219	93.0566	574.219	95.2529	574.219	92.6136	574.219	94.8327	574.219	91.965	574.219	94.3668	574.219	91.2652	574.219	93.8689	574.219	90.9835	574.219	93.615	574.219	91.5524	574.219	93.7985	574.219	92.7111	574.219	94.2371	574.219	93.8122	574.219	94.5553	574.219	94.4563
594.727	100.778	594.727	100.435	594.727	100.894	594.727	99.8745	594.727	100.785	594.727	99.1196	594.727	100.463	594.727	98.2216	594.727	99.946	594.727	97.2531	594.727	99.2591	594.727	96.282	594.727	98.43	594.727	95.3451	594.727	97.5009	594.727	94.4618	594.727	96.5478	594.727	93.6778	594.727	95.6709	594.727	93.0365	594.727	94.9291	594.727	92.473	594.727	94.2975	594.727	91.8511	594.727	93.7562	594.727	91.2162	594.727	93.4265	594.727	90.9879	594.727	93.504	594.727	91.5818	594.727	93.9521	594.727	92.7193	594.727	94.4492	594.727	93.7971	594.727	94.6801	594.727	94.4785
615.234	100.766	615.234	100.427	615.234	100.881	615.234	99.9145	615.234	100.746	615.234	99.2738	615.234	100.369	615.234	98.5257	615.234	99.7858	615.234	97.6676	615.234	99.0374	615.234	96.7206	615.234	98.1513	615.234	95.7935	615.234	97.1509	615.234	95.0566	615.234	96.1006	615.234	94.5412	615.234	95.1453	615.234	94.0139	615.234	94.3815	615.234	93.1635	615.234	93.6068	615.234	91.8501	615.234	92.4353	615.234	90.2884	615.234	90.9072	615.234	89.2646	615.234	90.2877	615.234	89.6411	615.234	91.4136	615.234	90.9983	615.234	92.7737	615.234	92.3623	615.234	93.4093	615.234	93.233
637.207	101.159	637.207	100.82	637.207	101.258	637.207	100.242	637.207	101.138	637.207	99.4479	637.207	100.836	637.207	98.4855	637.207	100.38	637.207	97.435	637.207	99.7749	637.207	96.4264	637.207	98.9968	637.207	95.6377	637.207	98.0195	637.207	95.1949	637.207	96.8718	637.207	95.0038	637.207	95.6987	637.207	94.7556	637.207	94.7202	637.207	94.1433	637.207	94.0303	637.207	93.045	637.207	93.4903	637.207	91.6799	637.207	92.9763	637.207	90.9179	637.207	92.7721	637.207	91.7624	637.207	93.4074	637.207	93.5349	637.207	94.6126	637.207	95.0186	637.207	95.5442	637.207	95.7196
659.18	101.575	659.18	101.305	659.18	101.487	659.18	100.678	659.18	101.102	659.18	99.76	659.18	100.523	659.18	98.663	659.18	99.8611	659.18	97.509	659.18	99.1895	659.18	96.3858	659.18	98.501	659.18	95.3658	659.18	97.716	659.18	94.5785	659.18	96.7564	659.18	94.1519	659.18	95.6477	659.18	93.9553	659.18	94.5518	659.18	93.6143	659.18	93.6293	659.18	92.8469	659.18	92.8593	659.18	91.6796	659.18	92.1995	659.18	90.703	659.18	91.9629	659.18	91.0049	659.18	92.5112	659.18	92.4252	659.18	93.486	659.18	93.7439	659.18	94.2328	659.18	94.3689
682.617	101.259	682.617	101.064	682.617	101.18	682.617	100.59	682.617	100.853	682.617	99.8562	682.617	100.313	682.617	98.895	682.617	99.5903	682.617	97.7447	682.617	98.7223	682.617	96.4666	682.617	97.7975	682.617	95.1892	682.617	96.9778	682.617	94.1	682.617	96.3966	682.617	93.2733	682.617	95.9671	682.617	92.562	682.617	95.4528	682.617	91.7891	682.617	94.6987	682.617	90.8651	682.617	93.5306	682.617	89.7772	682.617	91.6149	682.617	88.9851	682.617	89.7212	682.617	89.691	682.617	91.0251	682.617	91.721	682.617	93.5315	682.617	93.6396	682.617	94.8036	682.617	94.7569
707.52	101.171	707.52	100.901	707.52	101.172	707.52	100.389	707.52	100.907	707.52	99.6591	707.52	100.418	707.52	98.722	707.52	99.7534	707.52	97.6075	707.52	98.9212	707.52	96.4448	707.52	97.893	707.52	95.5004	707.52	96.6755	707.52	94.9404	707.52	95.408	707.52	94.5883	707.52	94.3821	707.52	94.1675	707.52	93.8273	707.52	93.5199	707.52	93.6672	707.52	92.4532	707.52	93.5712	707.52	90.6866	707.52	93.1082	707.52	88.3906	707.52	92.2348	707.52	87.8872	707.52	92.1677	707.52	90.4991	707.52	93.5479	707.52	93.1468	707.52	94.6871	707.52	94.5975
732.422	100.624	732.422	100.459	732.422	100.455	732.422	99.9725	732.422	99.9946	732.422	99.2399	732.422	99.3185	732.422	98.3398	732.422	98.5316	732.422	97.2802	732.422	97.7515	732.422	96.0036	732.422	97.0196	732.422	94.5408	732.422	96.2116	732.422	93.247	732.422	95.1227	732.422	92.6627	732.422	93.8026	732.422	92.6989	732.422	92.8925	732.422	92.736	732.422	92.8155	732.422	92.4046	732.422	92.8223	732.422	91.526	732.422	92.2404	732.422	89.8544	732.422	91.2944	732.422	87.7308	732.422	90.9691	732.422	88.1021	732.422	91.6933	732.422	90.6931	732.422	92.4844	732.422	92.3112
757.324	100.469	757.324	100.459	757.324	100.285	757.324	100.149	757.324	99.9573	757.324	99.4486	757.324	99.4983	757.324	98.3672	757.324	98.9119	757.324	97.0738	757.324	98.1764	757.324	95.8147	757.324	97.2206	757.324	94.6437	757.324	95.9704	757.324	93.398	757.324	94.4587	757.324	92.2277	757.324	92.9803	757.324	91.6675	757.324	92.0722	757.324	91.5247	757.324	91.8341	757.324	91.1572	757.324	91.6157	757.324	90.3692	757.324	90.7041	757.324	89.4638	757.324	89.1119	757.324	89.3855	757.324	89.0991	757.324	90.5674	757.324	91.2516	757.324	92.0775	757.324	92.7904	757.324	92.9891
785.156	98.9567	785.156	99.0769	785.156	99.2216	785.156	99.403	785.156	99.4849	785.156	99.4277	785.156	99.2655	785.156	98.7476	785.156	98.4042	785.156	97.2484	785.156	97.1404	785.156	95.3607	785.156	95.9483	785.156	93.8753	785.156	95.0437	785.156	92.5297	785.156	94.0138	785.156	90.9089	785.156	92.4623	785.156	90.2692	785.156	91.5099	785.156	90.1961	785.156	92.2476	785.156	89.3199	785.156	92.6601	785.156	88.2652	785.156	91.8815	785.156	87.4752	785.156	90.5193	785.156	86.4348	785.156	89.1683	785.156	87.5892	785.156	90.4961	785.156	91.2877	785.156	92.9272	785.156	93.3423
811.523	100.004	811.523	99.7013	811.523	100.12	811.523	99.4881	811.523	99.6049	811.523	99.2545	811.523	98.2714	811.523	98.7902	811.523	96.396	811.523	97.8552	811.523	94.7335	811.523	96.1345	811.523	93.6983	811.523	93.671	811.523	92.8538	811.523	91.5213	811.523	91.9989	811.523	90.4547	811.523	90.901	811.523	89.7236	811.523	88.655	811.523	89.9092	811.523	85.419	811.523	91.506	811.523	85.395	811.523	92.5826	811.523	86.7066	811.523	92.3108	811.523	87.5527	811.523	91.4515	811.523	88.3499	811.523	90.4445	811.523	88.414	811.523	89.3674	811.523	88.1504	811.523	88.5167
840.82	100.849	840.82	101.143	840.82	99.6604	840.82	100.44	840.82	98.2417	840.82	99.0102	840.82	97.4754	840.82	97.436	840.82	97.2555	840.82	96.2564	840.82	96.9438	840.82	95.3982	840.82	96.2801	840.82	94.5916	840.82	95.2357	840.82	93.9028	840.82	93.7758	840.82	93.2627	840.82	91.903	840.82	92.408	840.82	90.237	840.82	91.9168	840.82	89.7844	840.82	92.3755	840.82	89.8824	840.82	92.4969	840.82	89.3081	840.82	90.8379	840.82	87.5404	840.82	88.0656	840.82	86.0443	840.82	88.2483	840.82	88.3545	840.82	89.9745	840.82	90.5495	840.82	90.9103
870.117	99.7104	870.117	100.155	870.117	99.6688	870.117	100.287	870.117	99.84	870.117	99.6248	870.117	99.3569	870.117	98.0093	870.117	97.9171	870.117	95.3642	870.117	95.9347	870.117	91.937	870.117	94.253	870.117	89.2827	870.117	93.4241	870.117	88.8352	870.117	93.1403	870.117	89.4537	870.117	92.7927	870.117	90.6334	870.117	92.2444	870.117	92.1548	870.117	91.6901	870.117	93.3886	870.117	90.886	870.117	93.5667	870.117	89.3293	870.117	91.9665	870.117	85.9562	870.117	88.6391	870.117	83.3735	870.117	86.5751	870.117	89.3007	870.117	88.6907	870.117	91.9696	870.117	91.3771
900.879	100.488	900.879	100.109	900.879	100.167	900.879	99.1707	900.879	99.212	900.879	98.0709	900.879	97.8975	900.879	97.2686	900.879	96.6526	900.879	96.6949	900.879	95.6176	900.879	95.7925	900.879	94.4081	900.879	94.2054	900.879	92.856	900.879	92.1834	900.879	91.6238	900.879	90.2297	900.879	90.8848	900.879	88.2972	900.879	89.8357	900.879	87.1086	900.879	89.5907	900.879	87.058	900.879	90.6664	900.879	87.2291	900.879	90.5191	900.879	87.5191	900.879	89.2828	900.879	87.5983	900.879	88.4252	900.879	87.8822	900.879	88.5375	900.879	89.723	900.879	90.2181	900.879	90.991
933.105	100.037	933.105	99.9182	933.105	100.368	933.105	99.9045	933.105	100.237	933.105	99.3361	933.105	99.1096	933.105	97.7562	933.105	96.9745	933.105	95.2668	933.105	94.2826	933.105	93.1214	933.105	91.9274	933.105	92.1742	933.105	90.9461	933.105	91.1379	933.105	91.0892	933.105	89.8861	933.105	90.5689	933.105	89.2603	933.105	88.5739	933.105	88.8839	933.105	87.2299	933.105	89.1798	933.105	88.2916	933.105	90.4051	933.105	89.1685	933.105	90.452	933.105	88.4227	933.105	88.318	933.105	86.1636	933.105	86.4113	933.105	88.6274	933.105	88.2738	933.105	91.1948	933.105	90.7853
965.332	100.732	965.332	100.703	965.332	100.185	965.332	100.212	965.332	99.0012	965.332	99.3178	965.332	97.3492	965.332	98.1172	965.332	95.5375	965.332	96.7944	965.332	93.8814	965.332	95.4511	965.332	92.5734	965.332	94.0956	965.332	91.3349	965.332	92.9862	965.332	89.7689	965.332	92.1203	965.332	88.4142	965.332	91.1817	965.332	88.3124	965.332	90.8753	965.332	89.4213	965.332	91.8229	965.332	90.4397	965.332	91.9475	965.332	89.7333	965.332	90.1672	965.332	86.0022	965.332	86.7533	965.332	82.5506	965.332	83.648	965.332	88.4628	965.332	85.1668	965.332	90.6082	965.332	89.0268
1,000.49	100.994	1,000.49	100.339	1,000.49	101.127	1,000.49	99.8604	1,000.49	100.073	1,000.49	99.5865	1,000.49	97.8149	1,000.49	98.9098	1,000.49	95.7411	1,000.49	97.2084	1,000.49	95.0765	1,000.49	94.1927	1,000.49	94.5224	1,000.49	90.3636	1,000.49	93.5115	1,000.49	88.0698	1,000.49	92.7449	1,000.49	88.7359	1,000.49	92.3429	1,000.49	90.1714	1,000.49	90.8915	1,000.49	90.5837	1,000.49	86.3508	1,000.49	89.0762	1,000.49	71.1068	1,000.49	86.4232	1,000.49	85.1069	1,000.49	86.4602	1,000.49	88.8869	1,000.49	88.2823	1,000.49	86.8915	1,000.49	89.7966	1,000.49	86.3929	1,000.49	91.463	1,000.49	91.0329	1,000.49	92.3715
1,035.64	100.616	1,035.64	100.857	1,035.64	100.153	1,035.64	100.717	1,035.64	99.3079	1,035.64	99.9644	1,035.64	97.8691	1,035.64	98.4819	1,035.64	96.0774	1,035.64	96.6207	1,035.64	94.3471	1,035.64	95.2576	1,035.64	92.7034	1,035.64	94.4263	1,035.64	90.9919	1,035.64	92.8602	1,035.64	89.5167	1,035.64	89.7908	1,035.64	88.8169	1,035.64	86.4222	1,035.64	88.2417	1,035.64	85.9183	1,035.64	88.8408	1,035.64	88.6247	1,035.64	90.1035	1,035.64	89.8101	1,035.64	88.9981	1,035.64	88.4142	1,035.64	85.7021	1,035.64	86.7306	1,035.64	81.0307	1,035.64	85.6405	1,035.64	85.3013	1,035.64	86.8137	1,035.64	89.471	1,035.64	89.3065
1,072.27	100.382	1,072.27	99.9639	1,072.27	100.637	1,072.27	100.007	1,072.27	99.8194	1,072.27	99.794	1,072.27	97.9817	1,072.27	98.2982	1,072.27	96.3223	1,072.27	95.4398	1,072.27	95.4619	1,072.27	93.1333	1,072.27	94.5327	1,072.27	93.1147	1,072.27	92.8441	1,072.27	93.059	1,072.27	90.4012	1,072.27	92.1028	1,072.27	88.933	1,072.27	90.8302	1,072.27	88.8489	1,072.27	88.9621	1,072.27	86.4699	1,072.27	87.3713	1,072.27	84.0302	1,072.27	89.2932	1,072.27	88.0542	1,072.27	89.4839	1,072.27	89.3091	1,072.27	87.8832	1,072.27	85.7003	1,072.27	87.5991	1,072.27	80.5529	1,072.27	89.1881	1,072.27	89.1818	1,072.27	90.7193
1,108.89	100.583	1,108.89	100.297	1,108.89	100.035	1,108.89	99.9142	1,108.89	98.416	1,108.89	99.3295	1,108.89	97.0411	1,108.89	98.0216	1,108.89	96.3658	1,108.89	96.194	1,108.89	95.2235	1,108.89	94.4104	1,108.89	93.6991	1,108.89	92.8561	1,108.89	92.0392	1,108.89	90.5783	1,108.89	90.2557	1,108.89	87.7697	1,108.89	88.8565	1,108.89	87.7925	1,108.89	87.863	1,108.89	89.248	1,108.89	87.3705	1,108.89	88.7885	1,108.89	87.0498	1,108.89	86.3275	1,108.89	84.7496	1,108.89	83.0411	1,108.89	84.08	1,108.89	83.2557	1,108.89	86.0666	1,108.89	87.1952	1,108.89	86.1333	1,108.89	89.5649	1,108.89	86.9581	1,108.89	89.1
1,148.44	101.127	1,148.44	100.965	1,148.44	100.123	1,148.44	99.8795	1,148.44	98.8587	1,148.44	98.8638	1,148.44	98.222	1,148.44	98.1096	1,148.44	97.1075	1,148.44	96.9088	1,148.44	95.093	1,148.44	94.8294	1,148.44	93.4183	1,148.44	92.5952	1,148.44	92.8249	1,148.44	91.2393	1,148.44	92.0012	1,148.44	90.4086	1,148.44	89.7997	1,148.44	91.3694	1,148.44	87.4559	1,148.44	91.5088	1,148.44	86.4261	1,148.44	88.6465	1,148.44	84.9959	1,148.44	85.7595	1,148.44	82.9553	1,148.44	85.326	1,148.44	85.6461	1,148.44	85.9884	1,148.44	86.9263	1,148.44	87.8898	1,148.44	83.7432	1,148.44	90.4472	1,148.44	86.3404	1,148.44	90.3227
1,189.45	100.951	1,189.45	100.815	1,189.45	100.359	1,189.45	100.121	1,189.45	99.0204	1,189.45	99.3799	1,189.45	97.552	1,189.45	98.8324	1,189.45	96.5746	1,189.45	97.8014	1,189.45	94.9448	1,189.45	95.3169	1,189.45	93.0221	1,189.45	91.787	1,189.45	92.7591	1,189.45	90.5171	1,189.45	93.1544	1,189.45	90.2446	1,189.45	92.4833	1,189.45	88.7495	1,189.45	90.7045	1,189.45	88.7376	1,189.45	87.5726	1,189.45	88.6073	1,189.45	87.583	1,189.45	86.9346	1,189.45	88.8202	1,189.45	85.685	1,189.45	85.2774	1,189.45	84.1714	1,189.45	85.7503	1,189.45	83.5259	1,189.45	86.1367	1,189.45	87.9069	1,189.45	87.751	1,189.45	89.9616
1,230.47	101.195	1,230.47	101.338	1,230.47	100.22	1,230.47	100.634	1,230.47	99.0559	1,230.47	99.3426	1,230.47	98.1904	1,230.47	98.2476	1,230.47	96.4005	1,230.47	97.7786	1,230.47	93.7877	1,230.47	96.5311	1,230.47	92.7559	1,230.47	93.3173	1,230.47	93.2501	1,230.47	89.4932	1,230.47	93.4557	1,230.47	88.4478	1,230.47	92.4413	1,230.47	88.4147	1,230.47	90.8511	1,230.47	89.5446	1,230.47	88.729	1,230.47	89.5834	1,230.47	87.4507	1,230.47	88.6321	1,230.47	87.0721	1,230.47	88.947	1,230.47	83.7394	1,230.47	89.1848	1,230.47	83.0318	1,230.47	87.4714	1,230.47	86.8107	1,230.47	88.536	1,230.47	88.5705	1,230.47	88.9651
1,274.41	100.726	1,274.41	100.907	1,274.41	100.068	1,274.41	100.55	1,274.41	98.8894	1,274.41	99.2556	1,274.41	97.6246	1,274.41	97.3829	1,274.41	96.2038	1,274.41	96.6726	1,274.41	95.0473	1,274.41	96.4233	1,274.41	94.8266	1,274.41	94.748	1,274.41	94.3129	1,274.41	91.6104	1,274.41	93.3951	1,274.41	89.8228	1,274.41	92.6342	1,274.41	88.638	1,274.41	91.537	1,274.41	85.1809	1,274.41	89.3685	1,274.41	85.545	1,274.41	87.673	1,274.41	87.0882	1,274.41	88.801	1,274.41	87.5125	1,274.41	85.4677	1,274.41	86.4698	1,274.41	83.5436	1,274.41	85.0056	1,274.41	86.949	1,274.41	87.015	1,274.41	88.6045	1,274.41	89.1681
1,319.82	100.787	1,319.82	101.13	1,319.82	99.8715	1,319.82	100.829	1,319.82	98.7791	1,319.82	99.8535	1,319.82	97.7464	1,319.82	98.5156	1,319.82	96.9537	1,319.82	97.2613	1,319.82	96.2563	1,319.82	96.0963	1,319.82	93.8697	1,319.82	94.4941	1,319.82	91.5775	1,319.82	91.8304	1,319.82	91.8074	1,319.82	87.8613	1,319.82	90.6125	1,319.82	86.3887	1,319.82	88.3816	1,319.82	87.1709	1,319.82	88.5631	1,319.82	86.9674	1,319.82	89.1264	1,319.82	88.3027	1,319.82	89.3928	1,319.82	89.9556	1,319.82	84.9509	1,319.82	87.3779	1,319.82	85.3964	1,319.82	82.3475	1,319.82	84.0839	1,319.82	87.1867	1,319.82	88.3096	1,319.82	90.1895
1,366.7	100.502	1,366.7	100.502	1,366.7	98.9438	1,366.7	99.9342	1,366.7	97.4411	1,366.7	99.9921	1,366.7	97.2371	1,366.7	99.4519	1,366.7	96.2613	1,366.7	96.9372	1,366.7	95.4731	1,366.7	94.4576	1,366.7	95.2122	1,366.7	93.7868	1,366.7	94.2084	1,366.7	92.7263	1,366.7	93.5746	1,366.7	91.1742	1,366.7	93.6856	1,366.7	86.7138	1,366.7	91.4342	1,366.7	81.0096	1,366.7	89.3864	1,366.7	85.7719	1,366.7	89.5402	1,366.7	89.4531	1,366.7	81.6789	1,366.7	91.3898	1,366.7	87.2833	1,366.7	88.4943	1,366.7	90.5729	1,366.7	84.9534	1,366.7	84.1677	1,366.7	87.2076	1,366.7	86.6478	1,366.7	90.5768
1,413.57	100.701	1,413.57	100.748	1,413.57	99.7184	1,413.57	100.223	1,413.57	98.3229	1,413.57	99.9951	1,413.57	97.0688	1,413.57	99.5568	1,413.57	96.653	1,413.57	97.3031	1,413.57	96.3034	1,413.57	93.3658	1,413.57	95.5525	1,413.57	91.7986	1,413.57	94.2219	1,413.57	92.9436	1,413.57	93.5725	1,413.57	92.2477	1,413.57	94.0809	1,413.57	88.8247	1,413.57	93.1235	1,413.57	85.4332	1,413.57	90.6975	1,413.57	83.741	1,413.57	84.3898	1,413.57	59.489	1,413.57	84.5703	1,413.57	87.2853	1,413.57	87.4783	1,413.57	90.9551	1,413.57	89.1982	1,413.57	86.1263	1,413.57	86.9075	1,413.57	82.8474	1,413.57	88.4659	1,413.57	88.628
1,463.38	100.516	1,463.38	100.569	1,463.38	99.6835	1,463.38	100.16	1,463.38	98.7014	1,463.38	99.9033	1,463.38	97.7454	1,463.38	99.4667	1,463.38	96.3521	1,463.38	97.5611	1,463.38	95.8086	1,463.38	94.4799	1,463.38	95.5663	1,463.38	92.4967	1,463.38	94.7927	1,463.38	92.2687	1,463.38	94.225	1,463.38	90.3493	1,463.38	94.2368	1,463.38	89.6104	1,463.38	92.044	1,463.38	88.9653	1,463.38	88.113	1,463.38	87.9168	1,463.38	90.9337	1,463.38	86.1296	1,463.38	88.7181	1,463.38	87.6561	1,463.38	82.4311	1,463.38	90.0489	1,463.38	87.0717	1,463.38	87.9717	1,463.38	85.0045	1,463.38	86.8624	1,463.38	88.9558	1,463.38	90.511
1,516.11	100.499	1,516.11	100.709	1,516.11	99.2748	1,516.11	99.9862	1,516.11	98.6203	1,516.11	100.071	1,516.11	96.8768	1,516.11	100.04	1,516.11	95.76	1,516.11	98.4559	1,516.11	96.1043	1,516.11	96.5572	1,516.11	95.0744	1,516.11	93.515	1,516.11	93.5478	1,516.11	88.7082	1,516.11	92.0498	1,516.11	89.9037	1,516.11	91.7452	1,516.11	87.871	1,516.11	91.8952	1,516.11	85.3818	1,516.11	91.257	1,516.11	89.6176	1,516.11	90.5217	1,516.11	88.8227	1,516.11	87.8013	1,516.11	80.2054	1,516.11	79.0822	1,516.11	89.0797	1,516.11	87.2812	1,516.11	88.2873	1,516.11	86.0981	1,516.11	83.4215	1,516.11	87.6882	1,516.11	87.7978
1,568.85	99.6156	1,568.85	100.914	1,568.85	98.9571	1,568.85	101.711	1,568.85	97.8131	1,568.85	100.774	1,568.85	97.0236	1,568.85	98.7951	1,568.85	96.4971	1,568.85	97.2104	1,568.85	93.619	1,568.85	95.5737	1,568.85	92.2773	1,568.85	94.2142	1,568.85	92.448	1,568.85	90.7208	1,568.85	92.2138	1,568.85	86.9847	1,568.85	90.9126	1,568.85	88.4479	1,568.85	92.1834	1,568.85	87.487	1,568.85	90.7459	1,568.85	89.7	1,568.85	90.8298	1,568.85	81.2339	1,568.85	85.3781	1,568.85	72.8853	1,568.85	85.503	1,568.85	88.8646	1,568.85	87.314	1,568.85	87.0353	1,568.85	86.9561	1,568.85	81.5201	1,568.85	87.9388	1,568.85	87.428
1,624.51	100.154	1,624.51	101.372	1,624.51	98.0731	1,624.51	101.407	1,624.51	97.5867	1,624.51	100.711	1,624.51	95.2999	1,624.51	98.8116	1,624.51	94.2521	1,624.51	97.242	1,624.51	94.9829	1,624.51	93.5237	1,624.51	91.5196	1,624.51	85.1741	1,624.51	86.4476	1,624.51	87.8992	1,624.51	86.9711	1,624.51	83.1181	1,624.51	87.4673	1,624.51	84.6945	1,624.51	89.2358	1,624.51	80.2345	1,624.51	88.4881	1,624.51	79.0994	1,624.51	88.8602	1,624.51	89.5839	1,624.51	87.9373	1,624.51	88.4015	1,624.51	88.0657	1,624.51	89.6632	1,624.51	81.3888	1,624.51	86.2116	1,624.51	85.1814	1,624.51	85.1492	1,624.51	82.1233	1,624.51	88.9315
1,681.64	100.022	1,681.64	100.645	1,681.64	99.2444	1,681.64	100.651	1,681.64	96.6435	1,681.64	99.1383	1,681.64	95.1895	1,681.64	96.473	1,681.64	94.2364	1,681.64	93.7718	1,681.64	91.5946	1,681.64	93.5246	1,681.64	92.1989	1,681.64	89.4312	1,681.64	92.5815	1,681.64	73.536	1,681.64	89.5957	1,681.64	62.8477	1,681.64	86.4196	1,681.64	59.9638	1,681.64	89.434	1,681.64	86.4333	1,681.64	90.2159	1,681.64	86.5904	1,681.64	88.5259	1,681.64	88.4487	1,681.64	87.6216	1,681.64	82.7849	1,681.64	84.048	1,681.64	73.1697	1,681.64	80.6141	1,681.64	85.3201	1,681.64	85.7843	1,681.64	82.9988	1,681.64	84.3199	1,681.64	78.1184
1,741.7	101.118	1,741.7	101.199	1,741.7	99.5432	1,741.7	100.272	1,741.7	96.7651	1,741.7	97.9217	1,741.7	95.0998	1,741.7	95.1851	1,741.7	91.8616	1,741.7	93.7598	1,741.7	94.9553	1,741.7	90.5588	1,741.7	95.572	1,741.7	89.4335	1,741.7	92.7195	1,741.7	88.9695	1,741.7	87.2982	1,741.7	85.5351	1,741.7	81.1846	1,741.7	83.1244	1,741.7	85.978	1,741.7	82.5679	1,741.7	87.1328	1,741.7	89.5729	1,741.7	89.6671	1,741.7	82.5016	1,741.7	88.18	1,741.7	47.3261	1,741.7	71.9373	1,741.7	81.5593	1,741.7	84.543	1,741.7	83.5215	1,741.7	74.3989	1,741.7	80.1068	1,741.7	83.5961	1,741.7	82.0122
1,803.22	101.343	1,803.22	100.818	1,803.22	100.484	1,803.22	99.331	1,803.22	97.6556	1,803.22	97.2326	1,803.22	93.4194	1,803.22	95.0192	1,803.22	92.2319	1,803.22	91.4963	1,803.22	93.7206	1,803.22	87.7613	1,803.22	94.4321	1,803.22	85.5296	1,803.22	93.3226	1,803.22	79.4405	1,803.22	90.7508	1,803.22	75.6647	1,803.22	87.6007	1,803.22	69.807	1,803.22	86.679	1,803.22	82.8664	1,803.22	82.1114	1,803.22	78.9586	1,803.22	82.5569	1,803.22	80.3561	1,803.22	83.2542	1,803.22	82.352	1,803.22	84.8128	1,803.22	83.2777	1,803.22	76.2768	1,803.22	85.0246	1,803.22	83.026	1,803.22	82.0882	1,803.22	84.8346	1,803.22	84.6489
1,866.21	100.358	1,866.21	100.551	1,866.21	99.6712	1,866.21	99.6685	1,866.21	97.2233	1,866.21	96.9777	1,866.21	93.0551	1,866.21	93.8549	1,866.21	92.5124	1,866.21	89.1107	1,866.21	94.2132	1,866.21	85.3713	1,866.21	94.71	1,866.21	86.4694	1,866.21	93.7909	1,866.21	81.0494	1,866.21	91.9682	1,866.21	81.9902	1,866.21	89.0063	1,866.21	78.5713	1,866.21	88.895	1,866.21	80.3871	1,866.21	84.4784	1,866.21	82.0472	1,866.21	79.6853	1,866.21	81.0589	1,866.21	83.5476	1,866.21	82.649	1,866.21	85.304	1,866.21	83.7552	1,866.21	82.0237	1,866.21	84.1754	1,866.21	81.0329	1,866.21	81.9111	1,866.21	85.8051	1,866.21	84.1531
1,932.13	99.478	1,932.13	100.036	1,932.13	98.558	1,932.13	99.6096	1,932.13	96.1277	1,932.13	96.67	1,932.13	91.8591	1,932.13	91.241	1,932.13	91.2701	1,932.13	89.1789	1,932.13	94.3405	1,932.13	86.3355	1,932.13	95.7025	1,932.13	81.4361	1,932.13	94.1305	1,932.13	81.6052	1,932.13	92.7266	1,932.13	84.5916	1,932.13	88.9029	1,932.13	82.5896	1,932.13	87.9827	1,932.13	81.1229	1,932.13	85.6184	1,932.13	83.5234	1,932.13	83.4429	1,932.13	82.9845	1,932.13	83.3047	1,932.13	84.0701	1,932.13	85.0189	1,932.13	83.1009	1,932.13	82.1422	1,932.13	82.4941	1,932.13	79.8362	1,932.13	79.7981	1,932.13	84.1999	1,932.13	82.5199
1,999.51	99.7314	1,999.51	100.071	1,999.51	98.1001	1,999.51	98.3262	1,999.51	94.2957	1,999.51	94.9191	1,999.51	86.8254	1,999.51	92.33	1,999.51	90.1891	1,999.51	87.9974	1,999.51	94.9033	1,999.51	83.7024	1,999.51	96.246	1,999.51	84.5128	1,999.51	94.1385	1,999.51	84.9028	1,999.51	92.7756	1,999.51	78.3724	1,999.51	90.464	1,999.51	84.642	1,999.51	86.9881	1,999.51	80.9248	1,999.51	87.793	1,999.51	84.1761	1,999.51	84.9262	1,999.51	83.3941	1,999.51	86.4888	1,999.51	84.1419	1,999.51	86.8312	1,999.51	83.6574	1,999.51	80.5659	1,999.51	79.652	1,999.51	77.5875	1,999.51	78.8838	1,999.51	84.8731	1,999.51	82.8105
2,069.82	101.064	2,069.82	100.696	2,069.82	98.6674	2,069.82	97.556	2,069.82	93.4166	2,069.82	94.6913	2,069.82	85.0265	2,069.82	89.2033	2,069.82	92.7054	2,069.82	81.1856	2,069.82	95.7738	2,069.82	86.0633	2,069.82	96.1756	2,069.82	86.9329	2,069.82	94.3289	2,069.82	87.3696	2,069.82	90.5164	2,069.82	87.7502	2,069.82	88.0406	2,069.82	88.0131	2,069.82	83.5508	2,069.82	85.6045	2,069.82	87.4917	2,069.82	80.9171	2,069.82	86.2505	2,069.82	86.4455	2,069.82	85.6969	2,069.82	83.8054	2,069.82	83.6692	2,069.82	85.6079	2,069.82	83.3318	2,069.82	82.5817	2,069.82	78.6572	2,069.82	72.117	2,069.82	86.5583	2,069.82	81.3414
2,143.07	100.882	2,143.07	100.74	2,143.07	98.5445	2,143.07	98.3399	2,143.07	93.0438	2,143.07	92.9041	2,143.07	84.6431	2,143.07	82.0641	2,143.07	94.1155	2,143.07	76.5848	2,143.07	96.6212	2,143.07	86.3619	2,143.07	96.1193	2,143.07	82.6609	2,143.07	95.1335	2,143.07	82.6195	2,143.07	91.8422	2,143.07	85.1115	2,143.07	89.8619	2,143.07	80.9569	2,143.07	85.1551	2,143.07	86.7929	2,143.07	85.2098	2,143.07	83.2673	2,143.07	84.8091	2,143.07	85.4183	2,143.07	83.3549	2,143.07	84.5279	2,143.07	81.3991	2,143.07	83.8154	2,143.07	78.6864	2,143.07	83.3146	2,143.07	78.403	2,143.07	72.4444	2,143.07	85.6146	2,143.07	76.2863
2,219.24	99.62	2,219.24	99.3905	2,219.24	97.6552	2,219.24	97.7464	2,219.24	91.617	2,219.24	91.0046	2,219.24	79.5871	2,219.24	77.953	2,219.24	94.8478	2,219.24	79.8439	2,219.24	97.6117	2,219.24	81.9558	2,219.24	96.9201	2,219.24	86.797	2,219.24	95.6784	2,219.24	89.1932	2,219.24	91.7114	2,219.24	86.8942	2,219.24	88.015	2,219.24	85.691	2,219.24	85.8481	2,219.24	84.845	2,219.24	84.1455	2,219.24	85.037	2,219.24	85.8254	2,219.24	84.6765	2,219.24	85.7144	2,219.24	85.854	2,219.24	80.9699	2,219.24	84.942	2,219.24	81.1779	2,219.24	83.6676	2,219.24	78.4551	2,219.24	76.3484	2,219.24	84.6615	2,219.24	75.8045
2,296.88	99.7381	2,296.88	99.1301	2,296.88	97.5587	2,296.88	95.8499	2,296.88	88.5943	2,296.88	89.5044	2,296.88	85.8867	2,296.88	83.0496	2,296.88	94.6972	2,296.88	82.1555	2,296.88	98.1388	2,296.88	87.9711	2,296.88	97.5723	2,296.88	87.8753	2,296.88	94.9999	2,296.88	88.6372	2,296.88	92.1225	2,296.88	88.1766	2,296.88	87.3688	2,296.88	86.8574	2,296.88	85.9871	2,296.88	87.1854	2,296.88	87.0804	2,296.88	84.8066	2,296.88	83.6527	2,296.88	84.865	2,296.88	85.6384	2,296.88	86.1854	2,296.88	84.6096	2,296.88	85.0048	2,296.88	84.3286	2,296.88	83.4552	2,296.88	79.9484	2,296.88	63.0844	2,296.88	82.8468	2,296.88	63.5418
2,378.91	99.7665	2,378.91	99.7276	2,378.91	97.8569	2,378.91	95.3467	2,378.91	90.3047	2,378.91	90.385	2,378.91	88.7811	2,378.91	74.6413	2,378.91	96.1145	2,378.91	90.8036	2,378.91	97.8414	2,378.91	89.2995	2,378.91	97.2937	2,378.91	92.2661	2,378.91	95.0441	2,378.91	90.8531	2,378.91	93.6264	2,378.91	88.2086	2,378.91	91.1733	2,378.91	87.8421	2,378.91	87.924	2,378.91	86.0785	2,378.91	85.5333	2,378.91	86.7225	2,378.91	84.2049	2,378.91	83.7664	2,378.91	86.0437	2,378.91	86.5134	2,378.91	83.7382	2,378.91	85.4973	2,378.91	83.028	2,378.91	85.4561	2,378.91	76.2822	2,378.91	74.4323	2,378.91	83.977	2,378.91	68.9314
2,462.4	99.4828	2,462.4	99.2996	2,462.4	96.0491	2,462.4	96.5666	2,462.4	91.033	2,462.4	89.4305	2,462.4	87.4858	2,462.4	87.1843	2,462.4	96.8226	2,462.4	89.6365	2,462.4	97.7474	2,462.4	91.8394	2,462.4	97.9311	2,462.4	90.4619	2,462.4	95.2098	2,462.4	86.8526	2,462.4	92.1592	2,462.4	88.9449	2,462.4	88.6932	2,462.4	86.6078	2,462.4	88.3644	2,462.4	87.5696	2,462.4	83.0557	2,462.4	84.3881	2,462.4	83.8745	2,462.4	84.6318	2,462.4	87.01	2,462.4	85.6305	2,462.4	84.3092	2,462.4	84.5482	2,462.4	83.7048	2,462.4	82.8977	2,462.4	78.1163	2,462.4	76.7967	2,462.4	82.7666	2,462.4	70.6088
2,548.83	99.7108	2,548.83	98.9688	2,548.83	96.1962	2,548.83	96.1778	2,548.83	89.3436	2,548.83	90.2961	2,548.83	89.7074	2,548.83	90.7192	2,548.83	95.8414	2,548.83	88.1916	2,548.83	97.5495	2,548.83	92.2221	2,548.83	97.7863	2,548.83	90.0201	2,548.83	94.8247	2,548.83	92.184	2,548.83	87.8918	2,548.83	90.4835	2,548.83	90.7757	2,548.83	87.1698	2,548.83	88.2346	2,548.83	86.9194	2,548.83	85.075	2,548.83	86.1452	2,548.83	83.2979	2,548.83	86.2726	2,548.83	87.0489	2,548.83	86.3811	2,548.83	84.6906	2,548.83	83.6276	2,548.83	83.8276	2,548.83	83.0894	2,548.83	80.9828	2,548.83	76.9221	2,548.83	82.689	2,548.83	57.5156
2,639.65	99.8663	2,639.65	98.8869	2,639.65	96.8222	2,639.65	95.5748	2,639.65	87.5132	2,639.65	91.1197	2,639.65	91.6749	2,639.65	90.2189	2,639.65	95.3249	2,639.65	93.3131	2,639.65	97.8154	2,639.65	93.1838	2,639.65	97.5604	2,639.65	91.9743	2,639.65	94.8172	2,639.65	92.2205	2,639.65	89.063	2,639.65	89.4696	2,639.65	89.7157	2,639.65	89.9777	2,639.65	86.9053	2,639.65	87.7583	2,639.65	83.4614	2,639.65	87.669	2,639.65	84.2462	2,639.65	84.0512	2,639.65	85.1929	2,639.65	87.0557	2,639.65	84.1539	2,639.65	84.9964	2,639.65	86.6232	2,639.65	84.4634	2,639.65	81.7513	2,639.65	79.1	2,639.65	81.6421	2,639.65	69.7272
2,731.93	98.8409	2,731.93	98.2312	2,731.93	96.8031	2,731.93	94.9187	2,731.93	88.4465	2,731.93	91.8616	2,731.93	88.2686	2,731.93	90.2619	2,731.93	95.3184	2,731.93	94.3634	2,731.93	97.2719	2,731.93	92.6686	2,731.93	97.4722	2,731.93	94.4931	2,731.93	94.4011	2,731.93	88.4302	2,731.93	91.5002	2,731.93	90.1893	2,731.93	86.805	2,731.93	87.0918	2,731.93	87.0233	2,731.93	87.4333	2,731.93	82.9489	2,731.93	85.016	2,731.93	81.7236	2,731.93	84.1277	2,731.93	85.2197	2,731.93	87.0105	2,731.93	83.0451	2,731.93	86.6416	2,731.93	83.445	2,731.93	82.203	2,731.93	81.4729	2,731.93	78.596	2,731.93	80.596	2,731.93	71.1094
2,828.61	99.2767	2,828.61	98.5036	2,828.61	98.2359	2,828.61	96.0141	2,828.61	92.3751	2,828.61	92.0386	2,828.61	90.8272	2,828.61	92.7608	2,828.61	95.9647	2,828.61	92.8739	2,828.61	97.1652	2,828.61	93.4119	2,828.61	96.6747	2,828.61	91.2021	2,828.61	95.0331	2,828.61	90.612	2,828.61	93.4888	2,828.61	87.4407	2,828.61	89.4612	2,828.61	85.977	2,828.61	84.1961	2,828.61	85.9238	2,828.61	80.9681	2,828.61	85.8192	2,828.61	79.3885	2,828.61	85.4398	2,828.61	86.349	2,828.61	86.3074	2,828.61	82.8117	2,828.61	85.455	2,828.61	85.5455	2,828.61	83.0823	2,828.61	80.3715	2,828.61	78.5608	2,828.61	79.3698	2,828.61	64.0456
2,928.22	99.3549	2,928.22	99.1602	2,928.22	98.6786	2,928.22	96.6339	2,928.22	95.1608	2,928.22	93.1099	2,928.22	92.0631	2,928.22	94.099	2,928.22	95.0541	2,928.22	94.5049	2,928.22	97.0123	2,928.22	94.2934	2,928.22	96.2259	2,928.22	92.0694	2,928.22	94.0939	2,928.22	92.031	2,928.22	92.8048	2,928.22	89.7711	2,928.22	87.245	2,928.22	90.2332	2,928.22	64.6445	2,928.22	88.588	2,928.22	75.7007	2,928.22	87.5987	2,928.22	81.8679	2,928.22	86.608	2,928.22	83.9994	2,928.22	87.2155	2,928.22	81.7048	2,928.22	87.1308	2,928.22	86.027	2,928.22	85.4412	2,928.22	81.7814	2,928.22	82.3204	2,928.22	79.2061	2,928.22	72.2959
3,030.76	99.0324	3,030.76	99.2116	3,030.76	97.9849	3,030.76	96.5521	3,030.76	96.515	3,030.76	94.4943	3,030.76	93.2058	3,030.76	95.1987	3,030.76	93.7939	3,030.76	96.1637	3,030.76	96.4131	3,030.76	95.2009	3,030.76	95.3082	3,030.76	94.9238	3,030.76	94.5708	3,030.76	93.5172	3,030.76	92.4529	3,030.76	91.5046	3,030.76	83.1972	3,030.76	91.037	3,030.76	84.6227	3,030.76	88.3123	3,030.76	80.677	3,030.76	87.5394	3,030.76	80.5705	3,030.76	86.0061	3,030.76	86.1367	3,030.76	87.3274	3,030.76	76.2401	3,030.76	88.61	3,030.76	81.8697	3,030.76	86.0736	3,030.76	83.2313	3,030.76	83.5783	3,030.76	75.6289	3,030.76	71.6461
3,137.7	99.6108	3,137.7	100.225	3,137.7	98.6619	3,137.7	97.6259	3,137.7	97.54	3,137.7	95.9161	3,137.7	95.8137	3,137.7	96.0514	3,137.7	94.4685	3,137.7	97.0774	3,137.7	96.1105	3,137.7	96.3693	3,137.7	96.5002	3,137.7	94.9616	3,137.7	95.5006	3,137.7	93.1953	3,137.7	92.3949	3,137.7	91.0431	3,137.7	88.6692	3,137.7	91.0524	3,137.7	89.2737	3,137.7	89.5958	3,137.7	81.7234	3,137.7	89.2835	3,137.7	84.7169	3,137.7	87.0382	3,137.7	84.3431	3,137.7	88.1536	3,137.7	78.2571	3,137.7	89.6401	3,137.7	82.706	3,137.7	87.1026	3,137.7	83.8925	3,137.7	85.4464	3,137.7	75.6571	3,137.7	76.0881
3,249.02	100.133	3,249.02	100.532	3,249.02	98.5669	3,249.02	98.3688	3,249.02	98.9968	3,249.02	97.397	3,249.02	97.9563	3,249.02	98.5147	3,249.02	94.6793	3,249.02	97.5908	3,249.02	95.9491	3,249.02	97.7742	3,249.02	96.6987	3,249.02	95.8192	3,249.02	97.1276	3,249.02	95.4626	3,249.02	95.182	3,249.02	93.6624	3,249.02	93.7347	3,249.02	92.1637	3,249.02	90.7567	3,249.02	89.9586	3,249.02	81.1521	3,249.02	89.0334	3,249.02	83.4453	3,249.02	86.9268	3,249.02	85.4402	3,249.02	88.7867	3,249.02	80.5721	3,249.02	89.8474	3,249.02	80.1945	3,249.02	88.0243	3,249.02	85.7687	3,249.02	84.3663	3,249.02	78.6241	3,249.02	72.5916
3,363.28	100.805	3,363.28	100.674	3,363.28	97.9748	3,363.28	99.435	3,363.28	99.6536	3,363.28	98.0385	3,363.28	99.6992	3,363.28	98.5585	3,363.28	95.0331	3,363.28	98.995	3,363.28	94.8221	3,363.28	98.2886	3,363.28	96.0182	3,363.28	96.838	3,363.28	98.0031	3,363.28	95.7332	3,363.28	93.9482	3,363.28	91.9037	3,363.28	95.646	3,363.28	89.662	3,363.28	92.3416	3,363.28	89.308	3,363.28	80.5628	3,363.28	88.9412	3,363.28	82.3997	3,363.28	85.7477	3,363.28	83.625	3,363.28	87.0443	3,363.28	84.3604	3,363.28	88.5526	3,363.28	81.8466	3,363.28	87.892	3,363.28	86.3057	3,363.28	83.6054	3,363.28	76.1115	3,363.28	73.1419
3,481.93	100.944	3,481.93	101.04	3,481.93	99.2592	3,481.93	99.4901	3,481.93	99.3742	3,481.93	99.2665	3,481.93	99.9889	3,481.93	98.6991	3,481.93	94.9974	3,481.93	99.5893	3,481.93	93.5437	3,481.93	98.018	3,481.93	97.6382	3,481.93	96.89	3,481.93	97.6858	3,481.93	91.365	3,481.93	94.6034	3,481.93	93.0246	3,481.93	95.7764	3,481.93	90.3928	3,481.93	88.2517	3,481.93	89.6156	3,481.93	86.4656	3,481.93	87.1063	3,481.93	70.0684	3,481.93	86.4394	3,481.93	83.2984	3,481.93	87.0664	3,481.93	82.8002	3,481.93	88.2864	3,481.93	80.4646	3,481.93	86.713	3,481.93	86.9428	3,481.93	85.6567	3,481.93	77.4701	3,481.93	75.3671
3,604.98	100.614	3,604.98	101.266	3,604.98	99.4319	3,604.98	100.092	3,604.98	100.241	3,604.98	99.1949	3,604.98	100.898	3,604.98	99.1043	3,604.98	97.6247	3,604.98	99.3106	3,604.98	92.4581	3,604.98	97.5568	3,604.98	98.4711	3,604.98	93.9723	3,604.98	97.601	3,604.98	93.9294	3,604.98	94.5463	3,604.98	90.5704	3,604.98	92.5273	3,604.98	89.3253	3,604.98	85.993	3,604.98	88.1859	3,604.98	84.6149	3,604.98	88.1151	3,604.98	82.9249	3,604.98	85.116	3,604.98	80.1377	3,604.98	85.03	3,604.98	83.6046	3,604.98	88.6819	3,604.98	77.2082	3,604.98	87.3084	3,604.98	87.4237	3,604.98	84.9833	3,604.98	76.4184	3,604.98	80.5994
3,732.42	100.761	3,732.42	100.839	3,732.42	98.8424	3,732.42	101.038	3,732.42	100.899	3,732.42	99.3869	3,732.42	101.269	3,732.42	99.647	3,732.42	98.5837	3,732.42	99.0385	3,732.42	94.1533	3,732.42	96.1997	3,732.42	98.6336	3,732.42	93.4629	3,732.42	97.7193	3,732.42	91.3697	3,732.42	94.7157	3,732.42	91.2398	3,732.42	88.5735	3,732.42	89.9907	3,732.42	81.9748	3,732.42	88.9102	3,732.42	83.1163	3,732.42	88.3375	3,732.42	84.5025	3,732.42	86.6614	3,732.42	83.9056	3,732.42	87.2631	3,732.42	80.4655	3,732.42	88.2749	3,732.42	74.1393	3,732.42	87.5689	3,732.42	85.4548	3,732.42	84.7333	3,732.42	76.7467	3,732.42	80.2972
3,864.26	100.865	3,864.26	102.183	3,864.26	98.5943	3,864.26	101.134	3,864.26	100.972	3,864.26	99.7022	3,864.26	101.639	3,864.26	100.37	3,864.26	100.286	3,864.26	98.5615	3,864.26	94.3795	3,864.26	95.3397	3,864.26	98.9057	3,864.26	93.245	3,864.26	96.6292	3,864.26	93.5821	3,864.26	94.5728	3,864.26	92.5625	3,864.26	85.651	3,864.26	90.3685	3,864.26	83.2107	3,864.26	89.2467	3,864.26	84.6621	3,864.26	88.445	3,864.26	80.7488	3,864.26	86.5447	3,864.26	83.8687	3,864.26	86.3058	3,864.26	79.9639	3,864.26	88.2047	3,864.26	72.1452	3,864.26	87.7688	3,864.26	85.1913	3,864.26	85.5231	3,864.26	79.2424	3,864.26	81.3466
4,000.49	101.181	4,000.49	102.155	4,000.49	97.7751	4,000.49	100.363	4,000.49	101.002	4,000.49	99.7279	4,000.49	101.685	4,000.49	100.228	4,000.49	99.5757	4,000.49	97.2867	4,000.49	95.8241	4,000.49	95.6827	4,000.49	98.3688	4,000.49	95.7248	4,000.49	95.8662	4,000.49	94.4847	4,000.49	92.2587	4,000.49	90.3274	4,000.49	87.3155	4,000.49	89.6802	4,000.49	83.2373	4,000.49	87.4453	4,000.49	68.7568	4,000.49	88.9346	4,000.49	66.3063	4,000.49	86.5905	4,000.49	83.7072	4,000.49	85.6475	4,000.49	82.3513	4,000.49	89.1694	4,000.49	73.9234	4,000.49	88.7014	4,000.49	86.0579	4,000.49	85.6077	4,000.49	80.0525	4,000.49	81.5882
4,141.11	101.023	4,141.11	101.866	4,141.11	98.2718	4,141.11	99.2071	4,141.11	99.3163	4,141.11	100.895	4,141.11	101.651	4,141.11	99.4391	4,141.11	99.0159	4,141.11	97.6625	4,141.11	96.2765	4,141.11	96.5575	4,141.11	98.437	4,141.11	96.2743	4,141.11	94.2815	4,141.11	92.1348	4,141.11	89.3321	4,141.11	92.5785	4,141.11	85.5886	4,141.11	89.2554	4,141.11	84.8692	4,141.11	89.0104	4,141.11	85.4931	4,141.11	85.8326	4,141.11	76.9575	4,141.11	87.4353	4,141.11	82.9987	4,141.11	86.2296	4,141.11	80.932	4,141.11	87.862	4,141.11	57.5638	4,141.11	87.676	4,141.11	84.7583	4,141.11	85.7869	4,141.11	77.8191	4,141.11	82.7722
4,287.6	101.425	4,287.6	101.169	4,287.6	97.8228	4,287.6	100.301	4,287.6	98.7192	4,287.6	101.06	4,287.6	101.182	4,287.6	98.0046	4,287.6	98.7812	4,287.6	98.003	4,287.6	95.7658	4,287.6	97.1966	4,287.6	95.4554	4,287.6	95.4031	4,287.6	92.692	4,287.6	94.1827	4,287.6	91.6376	4,287.6	89.0809	4,287.6	91.1046	4,287.6	87.4965	4,287.6	89.5324	4,287.6	86.0503	4,287.6	89.3964	4,287.6	86.4646	4,287.6	72.6431	4,287.6	86.0279	4,287.6	75.79	4,287.6	85.121	4,287.6	81.4893	4,287.6	86.524	4,287.6	67.1412	4,287.6	87.5009	4,287.6	83.0466	4,287.6	84.2377	4,287.6	79.2768	4,287.6	81.7211
4,438.48	100.537	4,438.48	101.157	4,438.48	98.9601	4,438.48	99.583	4,438.48	98.3632	4,438.48	100.166	4,438.48	101.159	4,438.48	98.4797	4,438.48	98.6162	4,438.48	98.9482	4,438.48	95.538	4,438.48	96.5775	4,438.48	91.2147	4,438.48	93.7913	4,438.48	94.5674	4,438.48	90.0053	4,438.48	94.3885	4,438.48	91.503	4,438.48	91.558	4,438.48	88.1225	4,438.48	90.9252	4,438.48	87.2888	4,438.48	89.4034	4,438.48	84.3439	4,438.48	75.8292	4,438.48	84.6555	4,438.48	78.2876	4,438.48	84.6263	4,438.48	80.6201	4,438.48	86.664	4,438.48	68.5598	4,438.48	86.265	4,438.48	83.5562	4,438.48	84.4394	4,438.48	78.6353	4,438.48	82.3985
4,595.21	101.914	4,595.21	100.116	4,595.21	98.6348	4,595.21	101.658	4,595.21	97.9167	4,595.21	100.627	4,595.21	100.433	4,595.21	99.2984	4,595.21	99.9969	4,595.21	98.8202	4,595.21	92.576	4,595.21	95.5165	4,595.21	92.7265	4,595.21	93.5579	4,595.21	97.1107	4,595.21	92.1423	4,595.21	96.7137	4,595.21	86.8304	4,595.21	92.3038	4,595.21	88.3817	4,595.21	81.0992	4,595.21	84.9977	4,595.21	80.0629	4,595.21	86.5247	4,595.21	70.905	4,595.21	85.41	4,595.21	82.9937	4,595.21	83.7698	4,595.21	73.5192	4,595.21	86.0983	4,595.21	73.9178	4,595.21	86.3421	4,595.21	83.5633	4,595.21	86.3665	4,595.21	76.4293	4,595.21	83.664
4,756.35	101.448	4,756.35	101.091	4,756.35	98.6928	4,756.35	101.856	4,756.35	99.0843	4,756.35	98.9675	4,756.35	99.9806	4,756.35	100.643	4,756.35	100.938	4,756.35	98.1412	4,756.35	92.9223	4,756.35	95.9907	4,756.35	95.2249	4,756.35	94.6913	4,756.35	100.123	4,756.35	92.463	4,756.35	95.4987	4,756.35	92.6298	4,756.35	91.7986	4,756.35	88.242	4,756.35	73.3291	4,756.35	87.2952	4,756.35	84.0501	4,756.35	85.6524	4,756.35	75.9857	4,756.35	85.8876	4,756.35	86.0413	4,756.35	84.0817	4,756.35	76.0695	4,756.35	86.2923	4,756.35	73.7503	4,756.35	86.2019	4,756.35	83.8815	4,756.35	85.9228	4,756.35	74.6488	4,756.35	85.0193
4,924.8	101.767	4,924.8	101.617	4,924.8	100.771	4,924.8	101.312	4,924.8	99.0801	4,924.8	101.101	4,924.8	100.263	4,924.8	100.762	4,924.8	100.343	4,924.8	97.6663	4,924.8	93.0834	4,924.8	96.032	4,924.8	96.3683	4,924.8	94.4689	4,924.8	100.027	4,924.8	91.6896	4,924.8	94.8145	4,924.8	87.6931	4,924.8	88.6994	4,924.8	87.428	4,924.8	83.4384	4,924.8	84.5724	4,924.8	76.1157	4,924.8	85.1834	4,924.8	82.0608	4,924.8	84.3229	4,924.8	84.7457	4,924.8	83.3276	4,924.8	79.9347	4,924.8	86.6682	4,924.8	72.3215	4,924.8	85.6903	4,924.8	81.9837	4,924.8	84.3181	4,924.8	77.4809	4,924.8	85.7109
5,097.66	100.988	5,097.66	101.245	5,097.66	99.8811	5,097.66	101.195	5,097.66	99.6755	5,097.66	100.816	5,097.66	99.6486	5,097.66	98.8702	5,097.66	98.7539	5,097.66	98.3409	5,097.66	95.8977	5,097.66	95.6013	5,097.66	96.4389	5,097.66	92.699	5,097.66	97.1828	5,097.66	91.2848	5,097.66	92.8046	5,097.66	89.5145	5,097.66	87.1118	5,097.66	86.7359	5,097.66	82.6321	5,097.66	86.2486	5,097.66	82.2536	5,097.66	84.6006	5,097.66	83.2911	5,097.66	83.5627	5,097.66	84.3904	5,097.66	81.6647	5,097.66	77.4862	5,097.66	85.0617	5,097.66	69.5957	5,097.66	86.4933	5,097.66	80.1202	5,097.66	84.9894	5,097.66	78.8696	5,097.66	83.6176
5,277.83	100.553	5,277.83	102.185	5,277.83	100.168	5,277.83	100.142	5,277.83	98.8204	5,277.83	101.758	5,277.83	98.8597	5,277.83	98.1538	5,277.83	99.3424	5,277.83	98.1123	5,277.83	97.1906	5,277.83	94.6276	5,277.83	95.7711	5,277.83	93.1098	5,277.83	94.2194	5,277.83	90.1209	5,277.83	91.7424	5,277.83	89.8802	5,277.83	87.7214	5,277.83	87.8956	5,277.83	87.6894	5,277.83	84.9083	5,277.83	80.1526	5,277.83	84.779	5,277.83	81.0532	5,277.83	84.2344	5,277.83	79.811	5,277.83	82.0798	5,277.83	76.4331	5,277.83	83.1021	5,277.83	73.6806	5,277.83	85.0997	5,277.83	81.8403	5,277.83	85.3182	5,277.83	80.0517	5,277.83	84.0343
5,463.87	100.906	5,463.87	100.544	5,463.87	99.1394	5,463.87	100.761	5,463.87	98.9719	5,463.87	100.926	5,463.87	98.666	5,463.87	97.9325	5,463.87	100.464	5,463.87	97.0992	5,463.87	99.0924	5,463.87	95.5118	5,463.87	92.8966	5,463.87	94.4421	5,463.87	92.5954	5,463.87	92.7266	5,463.87	92.3843	5,463.87	90.5721	5,463.87	89.2712	5,463.87	88.2585	5,463.87	87.8141	5,463.87	86.3906	5,463.87	82.5266	5,463.87	84.0062	5,463.87	74.8822	5,463.87	84.4596	5,463.87	76.7876	5,463.87	85.0385	5,463.87	77.0808	5,463.87	80.5103	5,463.87	71.8949	5,463.87	85.1722	5,463.87	82.6438	5,463.87	82.847	5,463.87	82.245	5,463.87	83.9511
5,657.23	100.736	5,657.23	100.431	5,657.23	99.5472	5,657.23	102.001	5,657.23	99.6793	5,657.23	100.485	5,657.23	100.522	5,657.23	99.1924	5,657.23	102.382	5,657.23	96.7686	5,657.23	100.594	5,657.23	96.758	5,657.23	91.4684	5,657.23	95.4362	5,657.23	94.7748	5,657.23	92.693	5,657.23	92.9448	5,657.23	91.4519	5,657.23	88.624	5,657.23	89.5118	5,657.23	80.1263	5,657.23	87.2107	5,657.23	72.0733	5,657.23	86.7316	5,657.23	67.0071	5,657.23	85.2572	5,657.23	75.7264	5,657.23	83.7755	5,657.23	76.8384	5,657.23	81.0915	5,657.23	65.8697	5,657.23	83.3286	5,657.23	82.8768	5,657.23	84.4307	5,657.23	81.3418	5,657.23	84.3905
5,856.45	101.049	5,856.45	100.868	5,856.45	98.9299	5,856.45	102.039	5,856.45	101.263	5,856.45	99.7735	5,856.45	100.93	5,856.45	99.0502	5,856.45	102.986	5,856.45	98.3154	5,856.45	100.634	5,856.45	96.8913	5,856.45	91.7582	5,856.45	95.9586	5,856.45	95.7093	5,856.45	93.6005	5,856.45	93.1561	5,856.45	91.7868	5,856.45	91.4364	5,856.45	90.1327	5,856.45	83.3979	5,856.45	88.5321	5,856.45	74.9545	5,856.45	84.8538	5,856.45	68.8971	5,856.45	86.6109	5,856.45	72.8961	5,856.45	85.7447	5,856.45	80.162	5,856.45	80.15	5,856.45	74.3269	5,856.45	83.2426	5,856.45	80.3457	5,856.45	81.3203	5,856.45	77.7336	5,856.45	83.7008
6,062.99	101.454	6,062.99	100.943	6,062.99	99.806	6,062.99	101.904	6,062.99	101.214	6,062.99	98.9569	6,062.99	99.3411	6,062.99	98.6413	6,062.99	102.654	6,062.99	98.8242	6,062.99	100.817	6,062.99	96.4017	6,062.99	92.5135	6,062.99	96.0823	6,062.99	95.2499	6,062.99	94.0094	6,062.99	95.2405	6,062.99	91.0092	6,062.99	91.5796	6,062.99	89.0819	6,062.99	81.5777	6,062.99	87.4746	6,062.99	79.6597	6,062.99	86.9022	6,062.99	67.9509	6,062.99	84.7761	6,062.99	67.4036	6,062.99	84.9348	6,062.99	79.9959	6,062.99	77.9859	6,062.99	74.5188	6,062.99	79.2803	6,062.99	75.6736	6,062.99	78.3439	6,062.99	79.4437	6,062.99	80.6566
6,276.86	101.82	6,276.86	101.17	6,276.86	99.1184	6,276.86	100.496	6,276.86	100.655	6,276.86	98.7043	6,276.86	96.5043	6,276.86	98.797	6,276.86	100.985	6,276.86	97.7716	6,276.86	99.3264	6,276.86	96.8306	6,276.86	92.6716	6,276.86	94.8946	6,276.86	95.3517	6,276.86	92.7399	6,276.86	96.3343	6,276.86	90.42	6,276.86	90.5819	6,276.86	89.5436	6,276.86	87.7212	6,276.86	86.2207	6,276.86	80.6247	6,276.86	85.804	6,276.86	59.3482	6,276.86	84.8606	6,276.86	74.0533	6,276.86	86.2761	6,276.86	77.8658	6,276.86	78.9482	6,276.86	73.5293	6,276.86	78.5611	6,276.86	80.2971	6,276.86	78.9339	6,276.86	78.7318	6,276.86	80.259
6,498.05	101.611	6,498.05	100.26	6,498.05	100.046	6,498.05	99.6913	6,498.05	101.354	6,498.05	98.8554	6,498.05	98.1318	6,498.05	97.7862	6,498.05	98.2077	6,498.05	97.8986	6,498.05	98.7468	6,498.05	97.3192	6,498.05	92.8816	6,498.05	94.6788	6,498.05	95.415	6,498.05	93.2632	6,498.05	95.0845	6,498.05	91.266	6,498.05	88.5174	6,498.05	88.9986	6,498.05	87.0865	6,498.05	87.2663	6,498.05	78.3171	6,498.05	86.2429	6,498.05	77.3773	6,498.05	85.092	6,498.05	55.6187	6,498.05	86.2695	6,498.05	77.4102	6,498.05	80.1667	6,498.05	58.493	6,498.05	81.3717	6,498.05	80.9185	6,498.05	73.3263	6,498.05	77.4964	6,498.05	77.9143
6,726.56	100.91	6,726.56	100.284	6,726.56	100.834	6,726.56	98.4683	6,726.56	99.5752	6,726.56	98.8228	6,726.56	99.5317	6,726.56	97.6851	6,726.56	95.7938	6,726.56	98.5609	6,726.56	98.7683	6,726.56	97.0321	6,726.56	92.4254	6,726.56	95.3847	6,726.56	96.8449	6,726.56	92.9848	6,726.56	90.1357	6,726.56	90.8081	6,726.56	87.7071	6,726.56	87.9136	6,726.56	81.6212	6,726.56	85.6767	6,726.56	73.1931	6,726.56	85.897	6,726.56	78.2122	6,726.56	85.2197	6,726.56	56.6725	6,726.56	85.0415	6,726.56	75.8274	6,726.56	80.7404	6,726.56	68.3817	6,726.56	81.044	6,726.56	78.7733	6,726.56	73.5132	6,726.56	76.061	6,726.56	76.391
6,963.87	100.971	6,963.87	100.813	6,963.87	101.507	6,963.87	98.2922	6,963.87	98.456	6,963.87	98.1429	6,963.87	100.146	6,963.87	98.5774	6,963.87	96.9429	6,963.87	97.703	6,963.87	98.1945	6,963.87	96.7746	6,963.87	95.527	6,963.87	94.8181	6,963.87	94.7574	6,963.87	91.3651	6,963.87	88.3303	6,963.87	90.6585	6,963.87	91.6178	6,963.87	88.2439	6,963.87	84.1698	6,963.87	86.4069	6,963.87	78.8831	6,963.87	84.4775	6,963.87	74.6339	6,963.87	85.5077	6,963.87	71.8158	6,963.87	84.8468	6,963.87	67.5732	6,963.87	82.7877	6,963.87	76.4685	6,963.87	82.7198	6,963.87	74.173	6,963.87	75.4562	6,963.87	72.2012	6,963.87	74.1509
7,209.96	101.507	7,209.96	100.168	7,209.96	101.392	7,209.96	98.5196	7,209.96	99.511	7,209.96	98.1177	7,209.96	99.3067	7,209.96	99.4184	7,209.96	99.0072	7,209.96	97.1535	7,209.96	98.6797	7,209.96	97.0367	7,209.96	96.2158	7,209.96	94.5909	7,209.96	88.2495	7,209.96	92.104	7,209.96	94.83	7,209.96	90.6589	7,209.96	92.1863	7,209.96	87.4881	7,209.96	85.246	7,209.96	87.4848	7,209.96	82.6872	7,209.96	85.6121	7,209.96	76.7571	7,209.96	84.8778	7,209.96	65.7871	7,209.96	85.1538	7,209.96	76.7723	7,209.96	81.6663	7,209.96	76.4307	7,209.96	82.2717	7,209.96	70.2677	7,209.96	79.2371	7,209.96	76.2588	7,209.96	69.2577
7,464.84	101.942	7,464.84	99.1339	7,464.84	100.737	7,464.84	99.0904	7,464.84	99.809	7,464.84	99.3881	7,464.84	98.5194	7,464.84	98.9143	7,464.84	98.7006	7,464.84	98.1526	7,464.84	99.8721	7,464.84	96.5513	7,464.84	94.8859	7,464.84	95.8345	7,464.84	94.1635	7,464.84	92.1959	7,464.84	97.7637	7,464.84	90.3723	7,464.84	90.913	7,464.84	87.064	7,464.84	84.2974	7,464.84	85.2728	7,464.84	82.0788	7,464.84	84.0892	7,464.84	76.1419	7,464.84	85.2956	7,464.84	62.6183	7,464.84	84.8877	7,464.84	76.7365	7,464.84	81.0139	7,464.84	77.0159	7,464.84	82.9377	7,464.84	74.9791	7,464.84	77.6694	7,464.84	74.0361	7,464.84	65.8794
7,727.05	101.97	7,727.05	99.3989	7,727.05	101.399	7,727.05	100.259	7,727.05	99.1855	7,727.05	100.244	7,727.05	98.5725	7,727.05	99.1134	7,727.05	93.1073	7,727.05	98.823	7,727.05	101.552	7,727.05	96.7468	7,727.05	94.1858	7,727.05	94.9577	7,727.05	98.9988	7,727.05	92.4741	7,727.05	95.7191	7,727.05	89.2534	7,727.05	90.7049	7,727.05	88.4292	7,727.05	87.0414	7,727.05	85.344	7,727.05	85.5543	7,727.05	84.6467	7,727.05	71.877	7,727.05	85.0429	7,727.05	74.9138	7,727.05	85.3839	7,727.05	77.5195	7,727.05	82.428	7,727.05	76.359	7,727.05	82.5038	7,727.05	63.3001	7,727.05	79.4869	7,727.05	74.8016	7,727.05	55.4517
7,999.51	100.352	7,999.51	100.245	7,999.51	101.776	7,999.51	100.856	7,999.51	100.076	7,999.51	100.064	7,999.51	99.0424	7,999.51	100.404	7,999.51	98.1174	7,999.51	98.8773	7,999.51	101.65	7,999.51	97.7429	7,999.51	97.7892	7,999.51	95.8511	7,999.51	98.4302	7,999.51	94.5427	7,999.51	92.0946	7,999.51	90.0055	7,999.51	86.2118	7,999.51	89.1567	7,999.51	86.4864	7,999.51	86.067	7,999.51	83.48	7,999.51	84.4392	7,999.51	77.9419	7,999.51	84.3111	7,999.51	77.1294	7,999.51	85.6816	7,999.51	72.3953	7,999.51	83.4754	7,999.51	65.6521	7,999.51	82.9834	7,999.51	74.2194	7,999.51	81.6649	7,999.51	72.9118	7,999.51	64.3856
8,282.23	99.1903	8,282.23	99.4745	8,282.23	101.309	8,282.23	99.7683	8,282.23	99.7243	8,282.23	100.994	8,282.23	100.934	8,282.23	100.478	8,282.23	100.953	8,282.23	99.3052	8,282.23	100.254	8,282.23	98.7713	8,282.23	99.7821	8,282.23	96.7668	8,282.23	93.9448	8,282.23	93.7164	8,282.23	92.6972	8,282.23	90.5655	8,282.23	88.1332	8,282.23	88.3877	8,282.23	86.1688	8,282.23	85.5199	8,282.23	84.349	8,282.23	83.5452	8,282.23	81.8633	8,282.23	84.4634	8,282.23	77.6824	8,282.23	84.4554	8,282.23	66.7716	8,282.23	83.3505	8,282.23	69.1904	8,282.23	83.6468	8,282.23	76.5147	8,282.23	79.3424	8,282.23	66.0257	8,282.23	61.5932
8,573.73	98.4428	8,573.73	99.1231	8,573.73	100.732	8,573.73	99.7191	8,573.73	100.347	8,573.73	100.989	8,573.73	99.7641	8,573.73	100.145	8,573.73	99.1867	8,573.73	99.9941	8,573.73	96.3527	8,573.73	98.9272	8,573.73	99.3768	8,573.73	96.9459	8,573.73	86.8141	8,573.73	94.22	8,573.73	95.9941	8,573.73	90.7293	8,573.73	87.559	8,573.73	87.6619	8,573.73	88.0294	8,573.73	85.9232	8,573.73	85.9263	8,573.73	83.2757	8,573.73	81.6808	8,573.73	84.7311	8,573.73	74.8752	8,573.73	83.4492	8,573.73	72.6621	8,573.73	82.5702	8,573.73	70.2714	8,573.73	82.9859	8,573.73	71.6618	8,573.73	79.5883	8,573.73	67.768	8,573.73	63.9916
8,876.95	98.6316	8,876.95	98.1678	8,876.95	99.4644	8,876.95	100.613	8,876.95	100.156	8,876.95	99.821	8,876.95	99.1097	8,876.95	100.246	8,876.95	98.4687	8,876.95	99.8638	8,876.95	97.6531	8,876.95	98.2634	8,876.95	98.3736	8,876.95	96.9229	8,876.95	90.5844	8,876.95	91.6323	8,876.95	96.0262	8,876.95	88.1094	8,876.95	87.7019	8,876.95	85.5137	8,876.95	85.1846	8,876.95	82.8621	8,876.95	85.8591	8,876.95	80.7258	8,876.95	77.9254	8,876.95	82.7546	8,876.95	73.2643	8,876.95	81.9633	8,876.95	73.6436	8,876.95	80.3282	8,876.95	70.1124	8,876.95	81.8802	8,876.95	53.4898	8,876.95	77.7095	8,876.95	72.0245	8,876.95	68.7185
9,188.96	98.4405	9,188.96	98.5747	9,188.96	98.7052	9,188.96	100.244	9,188.96	100.113	9,188.96	99.7144	9,188.96	100.589	9,188.96	99.622	9,188.96	98.3221	9,188.96	98.9927	9,188.96	99.353	9,188.96	97.9801	9,188.96	95.7795	9,188.96	93.7678	9,188.96	90.8916	9,188.96	90.9657	9,188.96	91.3014	9,188.96	87.4989	9,188.96	83.7346	9,188.96	85.2889	9,188.96	83.3606	9,188.96	79.2504	9,188.96	85.8117	9,188.96	79.8265	9,188.96	78.1172	9,188.96	80.0473	9,188.96	76.849	9,188.96	79.5469	9,188.96	64.0034	9,188.96	79.3208	9,188.96	64.0585	9,188.96	81.2092	9,188.96	63.4134	9,188.96	74.5975	9,188.96	71.4539	9,188.96	54.4406
9,514.16	98.9988	9,514.16	99.2309	9,514.16	99.73	9,514.16	99.9909	9,514.16	99.5474	9,514.16	99.4205	9,514.16	100.588	9,514.16	98.6862	9,514.16	97.9555	9,514.16	98.6963	9,514.16	98.5206	9,514.16	95.5302	9,514.16	93.9905	9,514.16	93.1578	9,514.16	89.0786	9,514.16	87.5222	9,514.16	87.8983	9,514.16	82.7905	9,514.16	82.4628	9,514.16	81.2288	9,514.16	81.7042	9,514.16	76.0588	9,514.16	83.9768	9,514.16	76.5436	9,514.16	76.7587	9,514.16	75.1839	9,514.16	71.0623	9,514.16	75.6092	9,514.16	71.1267	9,514.16	77.1036	9,514.16	64.6201	9,514.16	76.5317	9,514.16	53.587	9,514.16	74.3807	9,514.16	65.5309	9,514.16	62.8862
9,849.61	98.9984	9,849.61	99.6303	9,849.61	100.044	9,849.61	99.7085	9,849.61	100.413	9,849.61	98.7673	9,849.61	99.1981	9,849.61	98.721	9,849.61	98.1487	9,849.61	97.0855	9,849.61	95.2982	9,849.61	94.2221	9,849.61	93.3804	9,849.61	89.8309	9,849.61	84.9259	9,849.61	85.8656	9,849.61	85.9336	9,849.61	81.9227	9,849.61	79.6172	9,849.61	79.4546	9,849.61	79.8164	9,849.61	76.6445	9,849.61	82.386	9,849.61	75.4034	9,849.61	77.2043	9,849.61	75.5907	9,849.61	71.9754	9,849.61	73.8196	9,849.61	71.6837	9,849.61	74.1508	9,849.61	60.6825	9,849.61	75.7076	9,849.61	57.0631	9,849.61	72.1173	9,849.61	65.4658	9,849.61	65.7639
10,196.8	99.4623	10,196.8	99.8758	10,196.8	99.9294	10,196.8	99.6215	10,196.8	100.564	10,196.8	98.9842	10,196.8	98.9757	10,196.8	97.9147	10,196.8	97.4748	10,196.8	95.7796	10,196.8	93.1736	10,196.8	91.9935	10,196.8	93.0897	10,196.8	88.1091	10,196.8	86.3125	10,196.8	81.7486	10,196.8	86.6773	10,196.8	79.6376	10,196.8	80.616	10,196.8	75.3547	10,196.8	71.9358	10,196.8	73.908	10,196.8	75.5279	10,196.8	72.7496	10,196.8	74.5776	10,196.8	74.2901	10,196.8	69.5145	10,196.8	70.539	10,196.8	65.0427	10,196.8	72.8544	10,196.8	66.6534	10,196.8	72.5408	10,196.8	62.5399	10,196.8	69.2434	10,196.8	66.8539	10,196.8	67.6585
10,555.7	99.6938	10,555.7	100.317	10,555.7	99.416	10,555.7	99.5346	10,555.7	99.9964	10,555.7	98.718	10,555.7	98.2996	10,555.7	96.9294	10,555.7	95.5067	10,555.7	94.4786	10,555.7	94.6562	10,555.7	90.1783	10,555.7	91.5236	10,555.7	86.2391	10,555.7	88.4009	10,555.7	83.2453	10,555.7	84.3068	10,555.7	78.6171	10,555.7	82.5842	10,555.7	75.2504	10,555.7	65.3722	10,555.7	72.0574	10,555.7	71.8319	10,555.7	70.6618	10,555.7	72.0275	10,555.7	73.4315	10,555.7	68.3693	10,555.7	68.4648	10,555.7	68.5419	10,555.7	72.6746	10,555.7	69.3562	10,555.7	71.3145	10,555.7	64.0091	10,555.7	71.4416	10,555.7	63.229	10,555.7	67.4781
10,927.7	99.8808	10,927.7	100.049	10,927.7	99.0162	10,927.7	99.1441	10,927.7	99.4737	10,927.7	98.1978	10,927.7	97.7619	10,927.7	95.941	10,927.7	95.7418	10,927.7	92.7894	10,927.7	94.329	10,927.7	89.0595	10,927.7	89.043	10,927.7	84.8895	10,927.7	87.1916	10,927.7	82.4455	10,927.7	81.666	10,927.7	78.3471	10,927.7	78.4192	10,927.7	74.9987	10,927.7	69.1653	10,927.7	72.1287	10,927.7	65.6304	10,927.7	69.4035	10,927.7	65.6659	10,927.7	72.2422	10,927.7	69.9332	10,927.7	70.5157	10,927.7	68.0623	10,927.7	72.6876	10,927.7	68.5467	10,927.7	71.3764	10,927.7	54.6514	10,927.7	69.6602	10,927.7	59.0466	10,927.7	61.9489
11,313	100.238	11,313	99.9845	11,313	99.0636	11,313	98.9698	11,313	98.9121	11,313	97.3201	11,313	98.0075	11,313	95.0257	11,313	96.2833	11,313	91.2171	11,313	92.5344	11,313	88.1508	11,313	88.5196	11,313	85.3066	11,313	85.1843	11,313	80.7135	11,313	77.1276	11,313	77.1018	11,313	72.6484	11,313	73.2785	11,313	63.7673	11,313	71.2747	11,313	55.9175	11,313	67.4039	11,313	68.6168	11,313	66.7354	11,313	69.0656	11,313	68.9355	11,313	65.3008	11,313	70.3656	11,313	65.0602	11,313	65.9306	11,313	58.8577	11,313	68.7639	11,313	61.6419	11,313	65.7754
11,712.9	100.327	11,712.9	99.8482	11,712.9	99.1636	11,712.9	98.8792	11,712.9	98.5513	11,712.9	96.6808	11,712.9	97.1972	11,712.9	93.8784	11,712.9	95.6109	11,712.9	90.2051	11,712.9	92.4868	11,712.9	87.5852	11,712.9	89.4935	11,712.9	83.7229	11,712.9	81.932	11,712.9	78.5402	11,712.9	74.9152	11,712.9	74.6292	11,712.9	73.9491	11,712.9	70.059	11,712.9	68.7966	11,712.9	70.277	11,712.9	65.266	11,712.9	65.3465	11,712.9	65.9975	11,712.9	68.1979	11,712.9	65.2548	11,712.9	65.277	11,712.9	59.7979	11,712.9	67.3462	11,712.9	61.3937	11,712.9	64.5381	11,712.9	56.6303	11,712.9	68.1233	11,712.9	63.5313	11,712.9	64.8306
12,126	100.162	12,126	99.6051	12,126	99.2059	12,126	98.5686	12,126	98.4423	12,126	96.5177	12,126	97.4598	12,126	92.8976	12,126	94.3458	12,126	90.0762	12,126	91.9834	12,126	86.8549	12,126	89.1827	12,126	82.0779	12,126	81.7219	12,126	77.0512	12,126	75.9757	12,126	73.9807	12,126	73.6988	12,126	68.0652	12,126	66.0133	12,126	70.5187	12,126	58.3015	12,126	63.615	12,126	61.7485	12,126	69.9448	12,126	63.5552	12,126	67.0049	12,126	63.8064	12,126	66.1323	12,126	59.7762	12,126	64.2604	12,126	61.5977	12,126	62.3052	12,126	64.8737	12,126	62.907
12,553.7	100.167	12,553.7	99.5224	12,553.7	99.3343	12,553.7	98.3899	12,553.7	98.3562	12,553.7	95.9803	12,553.7	96.6435	12,553.7	92.7515	12,553.7	93.9152	12,553.7	89.8015	12,553.7	90.6362	12,553.7	86.7542	12,553.7	86.9921	12,553.7	81.2286	12,553.7	83.9442	12,553.7	77.9761	12,553.7	71.2196	12,553.7	74.927	12,553.7	65.3558	12,553.7	71.7713	12,553.7	62.3307	12,553.7	68.5778	12,553.7	59.4586	12,553.7	64.8523	12,553.7	65.363	12,553.7	68.8021	12,553.7	61.0424	12,553.7	67.1226	12,553.7	64.0667	12,553.7	67.0208	12,553.7	59.9053	12,553.7	64.904	12,553.7	60.993	12,553.7	62.0496	12,553.7	65.0293	12,553.7	63.3743
12,996.1	100.071	12,996.1	99.2348	12,996.1	99.1495	12,996.1	98.1828	12,996.1	98.1254	12,996.1	95.4144	12,996.1	96.1377	12,996.1	92.8724	12,996.1	92.9385	12,996.1	89.8623	12,996.1	90.9593	12,996.1	86.8711	12,996.1	86.4238	12,996.1	82.615	12,996.1	82.0479	12,996.1	78.9548	12,996.1	71.3642	12,996.1	75.8129	12,996.1	69.1912	12,996.1	72.0532	12,996.1	63.0713	12,996.1	69.413	12,996.1	57.2584	12,996.1	62.4741	12,996.1	58.9845	12,996.1	69.3257	12,996.1	61.6291	12,996.1	69.3023	12,996.1	63.0601	12,996.1	66.7589	12,996.1	58.8054	12,996.1	62.9484	12,996.1	58.8722	12,996.1	60.644	12,996.1	63.9756	12,996.1	63.3385
13,454.6	99.7084	13,454.6	99.0426	13,454.6	99.2664	13,454.6	98.0263	13,454.6	97.7616	13,454.6	94.979	13,454.6	95.7737	13,454.6	92.9507	13,454.6	93.2332	13,454.6	89.8493	13,454.6	90.6911	13,454.6	87.1662	13,454.6	86.1459	13,454.6	83.6539	13,454.6	82.2363	13,454.6	79.1892	13,454.6	74.5822	13,454.6	76.073	13,454.6	66.7495	13,454.6	70.8993	13,454.6	62.2849	13,454.6	67.9284	13,454.6	65.9721	13,454.6	63.1203	13,454.6	54.9638	13,454.6	69.5653	13,454.6	57.0874	13,454.6	68.7603	13,454.6	59.7948	13,454.6	67.4541	13,454.6	52.3274	13,454.6	63.2607	13,454.6	57.6125	13,454.6	57.1146	13,454.6	62.0272	13,454.6	61.6109
13,929.2	99.5726	13,929.2	99.0519	13,929.2	99.3029	13,929.2	97.7713	13,929.2	97.7435	13,929.2	94.7198	13,929.2	95.0674	13,929.2	92.42	13,929.2	92.9201	13,929.2	89.4178	13,929.2	88.7991	13,929.2	86.6645	13,929.2	85.7627	13,929.2	83.0893	13,929.2	80.0482	13,929.2	78.9902	13,929.2	75.4178	13,929.2	75.3064	13,929.2	64.9998	13,929.2	69.7566	13,929.2	60.5578	13,929.2	66.717	13,929.2	65.5139	13,929.2	61.468	13,929.2	48.4323	13,929.2	68.2528	13,929.2	61.5165	13,929.2	67.134	13,929.2	55.1505	13,929.2	66.5649	13,929.2	46.1619	13,929.2	58.5487	13,929.2	55.136	13,929.2	57.3304	13,929.2	61.9275	13,929.2	59.1933
14,419.9	99.4153	14,419.9	99.0404	14,419.9	99.1297	14,419.9	97.412	14,419.9	97.614	14,419.9	94.6011	14,419.9	94.7939	14,419.9	91.6089	14,419.9	90.7857	14,419.9	88.3246	14,419.9	88.4756	14,419.9	86.0828	14,419.9	84.186	14,419.9	82.3452	14,419.9	81.7873	14,419.9	77.838	14,419.9	70.1272	14,419.9	72.8251	14,419.9	67.1262	14,419.9	68.2712	14,419.9	60.2803	14,419.9	62.1171	14,419.9	66.5502	14,419.9	60.7238	14,419.9	54.1625	14,419.9	66.3287	14,419.9	53.6704	14,419.9	64.996	14,419.9	52.8884	14,419.9	63.9296	14,419.9	54.9814	14,419.9	59.1513	14,419.9	58.7116	14,419.9	58.6485	14,419.9	55.7063	14,419.9	60.094
14,928.2	99.4248	14,928.2	99.0249	14,928.2	98.8768	14,928.2	97.0249	14,928.2	97.1863	14,928.2	94.2504	14,928.2	95.0728	14,928.2	90.8869	14,928.2	90.7544	14,928.2	87.1516	14,928.2	88.2388	14,928.2	85.6675	14,928.2	84.6708	14,928.2	81.3008	14,928.2	79.9438	14,928.2	75.4593	14,928.2	75.5492	14,928.2	70.9543	14,928.2	63.5921	14,928.2	66.4079	14,928.2	59.6787	14,928.2	61.7759	14,928.2	69.3235	14,928.2	58.8163	14,928.2	61.6506	14,928.2	62.2408	14,928.2	56.3505	14,928.2	63.0978	14,928.2	58.0961	14,928.2	61.019	14,928.2	54.6325	14,928.2	59.3691	14,928.2	47.2294	14,928.2	58.168	14,928.2	43.6138	14,928.2	58.3284
15,455.6	99.5853	15,455.6	98.9466	15,455.6	99.0598	15,455.6	96.866	15,455.6	96.7931	15,455.6	93.9564	15,455.6	94.1234	15,455.6	90.1177	15,455.6	90.857	15,455.6	87.1252	15,455.6	87.2728	15,455.6	83.9245	15,455.6	83.3647	15,455.6	79.2036	15,455.6	79.1487	15,455.6	72.9934	15,455.6	73.0626	15,455.6	68.1831	15,455.6	59.9464	15,455.6	59.0145	15,455.6	61.3738	15,455.6	61.265	15,455.6	70.4887	15,455.6	55.8135	15,455.6	60.9123	15,455.6	64.7815	15,455.6	57.3139	15,455.6	58.6969	15,455.6	50.5641	15,455.6	58.6894	15,455.6	50.5844	15,455.6	57.2663	15,455.6	50.8686	15,455.6	59.6847	15,455.6	51.9619	15,455.6	54.646
16,000.5	99.7706	16,000.5	98.7942	16,000.5	98.9593	16,000.5	96.7581	16,000.5	96.8073	16,000.5	93.5475	16,000.5	93.334	16,000.5	89.742	16,000.5	89.4699	16,000.5	86.4754	16,000.5	85.7577	16,000.5	81.8242	16,000.5	83.9837	16,000.5	75.728	16,000.5	77.3961	16,000.5	69.4534	16,000.5	71.5843	16,000.5	66.8405	16,000.5	52.5962	16,000.5	58.5533	16,000.5	56.5383	16,000.5	59.8016	16,000.5	69.7052	16,000.5	47.48	16,000.5	65.756	16,000.5	61.5051	16,000.5	53.231	16,000.5	58.2717	16,000.5	53.1725	16,000.5	58.4407	16,000.5	51.9699	16,000.5	52.4808	16,000.5	45.5196	16,000.5	60.2741	16,000.5	58.5647	16,000.5	53.5853
16,564.5	99.7733	16,564.5	98.5807	16,564.5	98.8236	16,564.5	97.0887	16,564.5	97.1207	16,564.5	93.5287	16,564.5	93.329	16,564.5	90.1883	16,564.5	90.0105	16,564.5	85.5689	16,564.5	85.1496	16,564.5	80.2332	16,564.5	83.523	16,564.5	75.681	16,564.5	77.4234	16,564.5	70.6154	16,564.5	72.4552	16,564.5	66.9762	16,564.5	60.9682	16,564.5	62.0887	16,564.5	58.8085	16,564.5	55.903	16,564.5	71.2459	16,564.5	55.7254	16,564.5	68.9942	16,564.5	61.577	16,564.5	41.1572	16,564.5	59.726	16,564.5	56.4195	16,564.5	59.1054	16,564.5	49.3234	16,564.5	50.3724	16,564.5	52.4576	16,564.5	60.622	16,564.5	62.5016	16,564.5	53.4996
17,148.9	99.6991	17,148.9	98.5562	17,148.9	98.8239	17,148.9	97.28	17,148.9	97.4445	17,148.9	94.3371	17,148.9	94.0641	17,148.9	89.8616	17,148.9	89.8954	17,148.9	84.5455	17,148.9	86.2255	17,148.9	79.5343	17,148.9	84.9386	17,148.9	77.685	17,148.9	79.0482	17,148.9	72.5465	17,148.9	74.3912	17,148.9	69.7076	17,148.9	56.1329	17,148.9	63.5118	17,148.9	47.3514	17,148.9	59.8909	17,148.9	70.0428	17,148.9	58.0374	17,148.9	66.2079	17,148.9	61.4556	17,148.9	47.4256	17,148.9	61.9699	17,148.9	60.1161	17,148.9	59.9515	17,148.9	48.5868	17,148.9	50.1687	17,148.9	46.8026	17,148.9	64.4755	17,148.9	63.1373	17,148.9	54.9607
17,752.4	99.2956	17,752.4	98.6628	17,752.4	98.4771	17,752.4	97.3381	17,752.4	97.0806	17,752.4	94.6236	17,752.4	93.6256	17,752.4	89.5517	17,752.4	89.3913	17,752.4	83.7121	17,752.4	86.2726	17,752.4	81.9701	17,752.4	83.5431	17,752.4	77.3786	17,752.4	79.5686	17,752.4	72.4309	17,752.4	73.9945	17,752.4	69.0241	17,752.4	64.2066	17,752.4	60.6613	17,752.4	45.4263	17,752.4	57.4504	17,752.4	71.7094	17,752.4	56.7084	17,752.4	65.2581	17,752.4	58.0464	17,752.4	58.3031	17,752.4	63.2491	17,752.4	57.0303	17,752.4	57.7378	17,752.4	45.6313	17,752.4	44.2946	17,752.4	49.4484	17,752.4	65.855	17,752.4	59.9101	17,752.4	49.2411
18,379.4	98.7473	18,379.4	98.8155	18,379.4	98.0129	18,379.4	97.0643	18,379.4	96.6601	18,379.4	94.0045	18,379.4	93.2931	18,379.4	88.5618	18,379.4	88.7155	18,379.4	84.7266	18,379.4	86.2208	18,379.4	84.6271	18,379.4	82.1176	18,379.4	79.6645	18,379.4	79.8613	18,379.4	74.2046	18,379.4	74.5386	18,379.4	71.4226	18,379.4	65.6783	18,379.4	65.5308	18,379.4	52.3277	18,379.4	59.1282	18,379.4	69.5244	18,379.4	61.5878	18,379.4	66.4465	18,379.4	62.7103	18,379.4	56.308	18,379.4	66.4648	18,379.4	63.6402	18,379.4	62.1931	18,379.4	56.827	18,379.4	49.4518	18,379.4	51.2459	18,379.4	65.5926	18,379.4	57.4924	18,379.4	41.9972
19,026.9	98.0407	19,026.9	98.3755	19,026.9	97.8877	19,026.9	96.5578	19,026.9	96.6742	19,026.9	92.7822	19,026.9	93.0264	19,026.9	87.5287	19,026.9	88.1	19,026.9	84.6213	19,026.9	85.3696	19,026.9	84.1796	19,026.9	81.7927	19,026.9	79.5167	19,026.9	78.1497	19,026.9	74.9842	19,026.9	72.892	19,026.9	71.3796	19,026.9	66.526	19,026.9	66.4273	19,026.9	47.3831	19,026.9	59.5021	19,026.9	66.6987	19,026.9	61.3913	19,026.9	67.4746	19,026.9	64.8506	19,026.9	54.6482	19,026.9	66.4509	19,026.9	59.1832	19,026.9	62.923	19,026.9	57.1041	19,026.9	48.5645	19,026.9	52.5001	19,026.9	63.9667	19,026.9	58.1953	19,026.9	50.153
19,697.8	97.7102	19,697.8	97.7295	19,697.8	97.911	19,697.8	95.9557	19,697.8	96.6961	19,697.8	91.8057	19,697.8	92.872	19,697.8	87.5731	19,697.8	86.8434	19,697.8	84.645	19,697.8	82.6874	19,697.8	84.666	19,697.8	79.4463	19,697.8	81.4103	19,697.8	72.6479	19,697.8	76.0063	19,697.8	70.3702	19,697.8	72.3332	19,697.8	63.8557	19,697.8	67.3413	19,697.8	43.938	19,697.8	61.5289	19,697.8	46.5613	19,697.8	62.9156	19,697.8	64.3113	19,697.8	65.0194	19,697.8	49.6517	19,697.8	66.6957	19,697.8	59.8708	19,697.8	64.2895	19,697.8	54.8109	19,697.8	56.4054	19,697.8	51.5622	19,697.8	64.0481	19,697.8	59.5158	19,697.8	54.7519
19,999.5	97.7687	19,999.5	97.5259	19,999.5	97.9338	19,999.5	95.8723	19,999.5	96.2778	19,999.5	91.2367	19,999.5	92.1	19,999.5	87.8675	19,999.5	87.4793	19,999.5	83.9485	19,999.5	80.1104	19,999.5	84.1452	19,999.5	81.3447	19,999.5	80.2364	19,999.5	76.4361	19,999.5	73.6221	19,999.5	74.8025	19,999.5	72.9531	19,999.5	67.2134	19,999.5	64.2288	19,999.5	53.9578	19,999.5	63.3152	19,999.5	53.4234	19,999.5	64.8932	19,999.5	64.1792	19,999.5	59.5412	19,999.5	60.9705	19,999.5	62.0965	19,999.5	68.1055	19,999.5	58.2979	19,999.5	60.2838	19,999.5	67.5577	19,999.5	55.265	19,999.5	62.9034	19,999.5	63.1533	19,999.5	61.3755
