"SPL Horizontal"
"On-Axis"		"10°"		"-10°"		"20°"		"-20°"		"30°"		"-30°"		"40°"		"-40°"		"50°"		"-50°"		"60°"		"-60°"		"70°"		"-70°"		"80°"		"-80°"		"90°"		"-90°"		"100°"		"-100°"		"110°"		"-110°"		"120°"		"-120°"		"130°"		"-130°"		"140°"		"-140°"		"150°"		"-150°"		"160°"		"-160°"		"170°"		"-170°"		"180°"
"Frequency / Hz"	"Sound Pressure Level / dB (re 20 µPa/V)  [2.83  V @ 1. m]"	"Frequency / Hz"	"Sound Pressure Level / dB (re 20 µPa/V)  [2.83  V @ 1. m]"	"Frequency / Hz"	"Sound Pressure Level / dB (re 20 µPa/V)  [2.83  V @ 1. m]"	"Frequency / Hz"	"Sound Pressure Level / dB (re 20 µPa/V)  [2.83  V @ 1. m]"	"Frequency / Hz"	"Sound Pressure Level / dB (re 20 µPa/V)  [2.83  V @ 1. m]"	"Frequency / Hz"	"Sound Pressure Level / dB (re 20 µPa/V)  [2.83  V @ 1. m]"	"Frequency / Hz"	"Sound Pressure Level / dB (re 20 µPa/V)  [2.83  V @ 1. m]"	"Frequency / Hz"	"Sound Pressure Level / dB (re 20 µPa/V)  [2.83  V @ 1. m]"	"Frequency / Hz"	"Sound Pressure Level / dB (re 20 µPa/V)  [2.83  V @ 1. m]"	"Frequency / Hz"	"Sound Pressure Level / dB (re 20 µPa/V)  [2.83  V @ 1. m]"	"Frequency / Hz"	"Sound Pressure Level / dB (re 20 µPa/V)  [2.83  V @ 1. m]"	"Frequency / Hz"	"Sound Pressure Level / dB (re 20 µPa/V)  [2.83  V @ 1. m]"	"Frequency / Hz"	"Sound Pressure Level / dB (re 20 µPa/V)  [2.83  V @ 1. m]"	"Frequency / Hz"	"Sound Pressure Level / dB (re 20 µPa/V)  [2.83  V @ 1. m]"	"Frequency / Hz"	"Sound Pressure Level / dB (re 20 µPa/V)  [2.83  V @ 1. m]"	"Frequency / Hz"	"Sound Pressure Level / dB (re 20 µPa/V)  [2.83  V @ 1. m]"	"Frequency / Hz"	"Sound Pressure Level / dB (re 20 µPa/V)  [2.83  V @ 1. m]"	"Frequency / Hz"	"Sound Pressure Level / dB (re 20 µPa/V)  [2.83  V @ 1. m]"	"Frequency / Hz"	"Sound Pressure Level / dB (re 20 µPa/V)  [2.83  V @ 1. m]"	"Frequency / Hz"	"Sound Pressure Level / dB (re 20 µPa/V)  [2.83  V @ 1. m]"	"Frequency / Hz"	"Sound Pressure Level / dB (re 20 µPa/V)  [2.83  V @ 1. m]"	"Frequency / Hz"	"Sound Pressure Level / dB (re 20 µPa/V)  [2.83  V @ 1. m]"	"Frequency / Hz"	"Sound Pressure Level / dB (re 20 µPa/V)  [2.83  V @ 1. m]"	"Frequency / Hz"	"Sound Pressure Level / dB (re 20 µPa/V)  [2.83  V @ 1. m]"	"Frequency / Hz"	"Sound Pressure Level / dB (re 20 µPa/V)  [2.83  V @ 1. m]"	"Frequency / Hz"	"Sound Pressure Level / dB (re 20 µPa/V)  [2.83  V @ 1. m]"	"Frequency / Hz"	"Sound Pressure Level / dB (re 20 µPa/V)  [2.83  V @ 1. m]"	"Frequency / Hz"	"Sound Pressure Level / dB (re 20 µPa/V)  [2.83  V @ 1. m]"	"Frequency / Hz"	"Sound Pressure Level / dB (re 20 µPa/V)  [2.83  V @ 1. m]"	"Frequency / Hz"	"Sound Pressure Level / dB (re 20 µPa/V)  [2.83  V @ 1. m]"	"Frequency / Hz"	"Sound Pressure Level / dB (re 20 µPa/V)  [2.83  V @ 1. m]"	"Frequency / Hz"	"Sound Pressure Level / dB (re 20 µPa/V)  [2.83  V @ 1. m]"	"Frequency / Hz"	"Sound Pressure Level / dB (re 20 µPa/V)  [2.83  V @ 1. m]"	"Frequency / Hz"	"Sound Pressure Level / dB (re 20 µPa/V)  [2.83  V @ 1. m]"	"Frequency / Hz"	"Sound Pressure Level / dB (re 20 µPa/V)  [2.83  V @ 1. m]"	"Frequency / Hz"	"Sound Pressure Level / dB (re 20 µPa/V)  [2.83  V @ 1. m]"
20.5078	67.8557	20.5078	68.0207	20.5078	67.6876	20.5078	68.1837	20.5078	67.5151	20.5078	68.3458	20.5078	67.3377	20.5078	68.5078	20.5078	67.1559	20.5078	68.6702	20.5078	66.9727	20.5078	68.8324	20.5078	66.7936	20.5078	68.9925	20.5078	66.6274	20.5078	69.1461	20.5078	66.4857	20.5078	69.2863	20.5078	66.3823	20.5078	69.4041	20.5078	66.3318	20.5078	69.4888	20.5078	66.3476	20.5078	69.5291	20.5078	66.4399	20.5078	69.5136	20.5078	66.6141	20.5078	69.4318	20.5078	66.8689	20.5078	69.2762	20.5078	67.1952	20.5078	69.0439	20.5078	67.574	20.5078	68.7396	20.5078	67.9784	20.5078	68.3768
21.9727	71.1074	21.9727	71.1713	21.9727	71.0471	21.9727	71.2393	21.9727	70.9899	21.9727	71.3117	21.9727	70.9353	21.9727	71.3888	21.9727	70.8835	21.9727	71.4709	21.9727	70.8347	21.9727	71.558	21.9727	70.79	21.9727	71.65	21.9727	70.7513	21.9727	71.7456	21.9727	70.7212	21.9727	71.8418	21.9727	70.7037	21.9727	71.9339	21.9727	70.7047	21.9727	72.0155	21.9727	70.7312	21.9727	72.0793	21.9727	70.7905	21.9727	72.1179	21.9727	70.888	21.9727	72.1244	21.9727	71.0243	21.9727	72.0932	21.9727	71.1933	21.9727	72.0206	21.9727	71.3826	21.9727	71.9065	21.9727	71.5755	21.9727	71.7549
23.4375	74.9425	23.4375	74.9723	23.4375	74.9118	23.4375	75.0013	23.4375	74.8798	23.4375	75.0299	23.4375	74.8463	23.4375	75.0584	23.4375	74.8114	23.4375	75.0871	23.4375	74.7757	23.4375	75.1164	23.4375	74.7402	23.4375	75.1463	23.4375	74.7066	23.4375	75.1767	23.4375	74.6773	23.4375	75.2069	23.4375	74.655	23.4375	75.2353	23.4375	74.6433	23.4375	75.2598	23.4375	74.6454	23.4375	75.2774	23.4375	74.6645	23.4375	75.2847	23.4375	74.7022	23.4375	75.2782	23.4375	74.7582	23.4375	75.2551	23.4375	74.8298	23.4375	75.214	23.4375	74.9121	23.4375	75.1552	23.4375	74.9985	23.4375	75.0817
24.9023	76.8861	24.9023	76.9011	24.9023	76.8687	24.9023	76.9143	24.9023	76.8485	24.9023	76.9259	24.9023	76.8247	24.9023	76.9358	24.9023	76.797	24.9023	76.9438	24.9023	76.765	24.9023	76.9497	24.9023	76.7288	24.9023	76.9528	24.9023	76.689	24.9023	76.9523	24.9023	76.6467	24.9023	76.947	24.9023	76.6035	24.9023	76.9358	24.9023	76.5618	24.9023	76.9173	24.9023	76.5243	24.9023	76.8904	24.9023	76.4939	24.9023	76.8546	24.9023	76.4737	24.9023	76.8097	24.9023	76.4664	24.9023	76.7571	24.9023	76.4738	24.9023	76.6991	24.9023	76.4966	24.9023	76.6395	24.9023	76.5338	24.9023	76.5828
26.3672	79.0974	26.3672	79.1128	26.3672	79.0815	26.3672	79.1275	26.3672	79.0649	26.3672	79.1417	26.3672	79.0473	26.3672	79.1548	26.3672	79.0287	26.3672	79.1666	26.3672	79.0089	26.3672	79.1765	26.3672	78.988	26.3672	79.1837	26.3672	78.9666	26.3672	79.1874	26.3672	78.9453	26.3672	79.1865	26.3672	78.9252	26.3672	79.1803	26.3672	78.9074	26.3672	79.1678	26.3672	78.8933	26.3672	79.1487	26.3672	78.8839	26.3672	79.1233	26.3672	78.8799	26.3672	79.0925	26.3672	78.8819	26.3672	79.0579	26.3672	78.8903	26.3672	79.0216	26.3672	78.9051	26.3672	78.9862	26.3672	78.9265	26.3672	78.9539
27.832	80.2112	27.832	80.2239	27.832	80.1965	27.832	80.2346	27.832	80.1798	27.832	80.2433	27.832	80.1611	27.832	80.2501	27.832	80.1406	27.832	80.2549	27.832	80.1185	27.832	80.2575	27.832	80.0954	27.832	80.2575	27.832	80.0717	27.832	80.2546	27.832	80.0484	27.832	80.2483	27.832	80.0263	27.832	80.2379	27.832	80.0065	27.832	80.2229	27.832	79.9901	27.832	80.2031	27.832	79.978	27.832	80.1786	27.832	79.9711	27.832	80.1503	27.832	79.9701	27.832	80.1192	27.832	79.9754	27.832	80.0872	27.832	79.9871	27.832	80.0563	27.832	80.005	27.832	80.0284
29.2969	82.5287	29.2969	82.5278	29.2969	82.525	29.2969	82.5223	29.2969	82.5165	29.2969	82.5121	29.2969	82.5034	29.2969	82.4974	29.2969	82.4856	29.2969	82.4783	29.2969	82.4632	29.2969	82.455	29.2969	82.4363	29.2969	82.4279	29.2969	82.4053	29.2969	82.3972	29.2969	82.3706	29.2969	82.3637	29.2969	82.3329	29.2969	82.3279	29.2969	82.2934	29.2969	82.2907	29.2969	82.2533	29.2969	82.2533	29.2969	82.2142	29.2969	82.2168	29.2969	82.178	29.2969	82.1826	29.2969	82.1464	29.2969	82.1523	29.2969	82.1215	29.2969	82.1273	29.2969	82.1047	29.2969	82.109	29.2969	82.0969	29.2969	82.0985
30.7617	84.7902	30.7617	84.7983	30.7617	84.7775	30.7617	84.8016	30.7617	84.7604	30.7617	84.8	30.7617	84.7391	30.7617	84.7934	30.7617	84.7139	30.7617	84.7816	30.7617	84.6854	30.7617	84.7646	30.7617	84.654	30.7617	84.7424	30.7617	84.6207	30.7617	84.7152	30.7617	84.5863	30.7617	84.6832	30.7617	84.5519	30.7617	84.6473	30.7617	84.5184	30.7617	84.6083	30.7617	84.4867	30.7617	84.5676	30.7617	84.4576	30.7617	84.5268	30.7617	84.432	30.7617	84.488	30.7617	84.4106	30.7617	84.453	30.7617	84.3945	30.7617	84.4238	30.7617	84.3848	30.7617	84.4018	30.7617	84.3823	30.7617	84.3879
32.2266	85.5545	32.2266	85.5517	32.2266	85.5522	32.2266	85.5435	32.2266	85.5446	32.2266	85.5301	32.2266	85.5321	32.2266	85.5114	32.2266	85.5146	32.2266	85.4877	32.2266	85.4925	32.2266	85.459	32.2266	85.466	32.2266	85.4257	32.2266	85.4356	32.2266	85.3886	32.2266	85.4017	32.2266	85.3483	32.2266	85.365	32.2266	85.306	32.2266	85.3264	32.2266	85.2631	32.2266	85.2867	32.2266	85.2214	32.2266	85.247	32.2266	85.1825	32.2266	85.2086	32.2266	85.1484	32.2266	85.1729	32.2266	85.1208	32.2266	85.1416	32.2266	85.1011	32.2266	85.1162	32.2266	85.0905	32.2266	85.0985	32.2266	85.0897
33.6914	87.2256	33.6914	87.2209	33.6914	87.223	33.6914	87.2091	33.6914	87.2133	33.6914	87.1903	33.6914	87.1967	33.6914	87.1647	33.6914	87.1735	33.6914	87.1327	33.6914	87.144	33.6914	87.095	33.6914	87.109	33.6914	87.0522	33.6914	87.0693	33.6914	87.0053	33.6914	87.0258	33.6914	86.9555	33.6914	86.9796	33.6914	86.9041	33.6914	86.9318	33.6914	86.8528	33.6914	86.8837	33.6914	86.8033	33.6914	86.8365	33.6914	86.7577	33.6914	86.7915	33.6914	86.7181	33.6914	86.7501	33.6914	86.6864	33.6914	86.714	33.6914	86.6644	33.6914	86.6848	33.6914	86.6531	33.6914	86.664	33.6914	86.6531
35.1562	88.6801	35.1562	88.6749	35.1562	88.6788	35.1562	88.6632	35.1562	88.6714	35.1562	88.6451	35.1562	88.6581	35.1562	88.6208	35.1562	88.6393	35.1562	88.5906	35.1562	88.6156	35.1562	88.5552	35.1562	88.5876	35.1562	88.5153	35.1562	88.5562	35.1562	88.4721	35.1562	88.5221	35.1562	88.4269	35.1562	88.4862	35.1562	88.3811	35.1562	88.4491	35.1562	88.3364	35.1562	88.4116	35.1562	88.2948	35.1562	88.3743	35.1562	88.2582	35.1562	88.3377	35.1562	88.2285	35.1562	88.3027	35.1562	88.2074	35.1562	88.2703	35.1562	88.1958	35.1562	88.2417	35.1562	88.1942	35.1562	88.2184	35.1562	88.2021
36.6211	90.0042	36.6211	89.9976	36.6211	90.003	36.6211	89.9833	36.6211	89.994	36.6211	89.9614	36.6211	89.9776	36.6211	89.9324	36.6211	89.9539	36.6211	89.8965	36.6211	89.9235	36.6211	89.8547	36.6211	89.8871	36.6211	89.8077	36.6211	89.8454	36.6211	89.7566	36.6211	89.7994	36.6211	89.7028	36.6211	89.7502	36.6211	89.6479	36.6211	89.699	36.6211	89.5934	36.6211	89.6471	36.6211	89.5415	36.6211	89.5958	36.6211	89.494	36.6211	89.5465	36.6211	89.4531	36.6211	89.5009	36.6211	89.4209	36.6211	89.4607	36.6211	89.3991	36.6211	89.4278	36.6211	89.3888	36.6211	89.4039	36.6211	89.3906
38.0859	90.9767	38.0859	90.966	38.0859	90.9775	38.0859	90.9455	38.0859	90.9683	38.0859	90.9153	38.0859	90.9494	38.0859	90.8759	38.0859	90.9209	38.0859	90.8277	38.0859	90.8834	38.0859	90.7716	38.0859	90.8374	38.0859	90.7086	38.0859	90.7837	38.0859	90.64	38.0859	90.7233	38.0859	90.5674	38.0859	90.6574	38.0859	90.4928	38.0859	90.5878	38.0859	90.4186	38.0859	90.516	38.0859	90.3476	38.0859	90.4443	38.0859	90.2829	38.0859	90.3749	38.0859	90.2276	38.0859	90.3102	38.0859	90.1846	38.0859	90.2528	38.0859	90.1565	38.0859	90.2053	38.0859	90.1446	38.0859	90.1701	38.0859	90.1494
39.5508	92.5201	39.5508	92.5117	39.5508	92.5206	39.5508	92.4954	39.5508	92.5132	39.5508	92.4713	39.5508	92.4982	39.5508	92.44	39.5508	92.476	39.5508	92.402	39.5508	92.4471	39.5508	92.3582	39.5508	92.4121	39.5508	92.3095	39.5508	92.3719	39.5508	92.2573	39.5508	92.3272	39.5508	92.2029	39.5508	92.2789	39.5508	92.1479	39.5508	92.2278	39.5508	92.0941	39.5508	92.1752	39.5508	92.0434	39.5508	92.1222	39.5508	91.9976	39.5508	92.0707	39.5508	91.9587	39.5508	92.0225	39.5508	91.9285	39.5508	91.9797	39.5508	91.9086	39.5508	91.9445	39.5508	91.9001	39.5508	91.9186	39.5508	91.9036
41.0156	93.7114	41.0156	93.705	41.0156	93.7096	41.0156	93.6908	41.0156	93.7	41.0156	93.6688	41.0156	93.6826	41.0156	93.6398	41.0156	93.6581	41.0156	93.6045	41.0156	93.6271	41.0156	93.5638	41.0156	93.5905	41.0156	93.519	41.0156	93.5494	41.0156	93.4717	41.0156	93.5051	41.0156	93.4233	41.0156	93.4587	41.0156	93.3755	41.0156	93.4116	41.0156	93.3297	41.0156	93.365	41.0156	93.2872	41.0156	93.3201	41.0156	93.2491	41.0156	93.2784	41.0156	93.2165	41.0156	93.241	41.0156	93.1904	41.0156	93.2094	41.0156	93.1717	41.0156	93.1848	41.0156	93.1615	41.0156	93.1681	41.0156	93.1603
42.4805	94.792	42.4805	94.7856	42.4805	94.789	42.4805	94.77	42.4805	94.7769	42.4805	94.7454	42.4805	94.756	42.4805	94.7127	42.4805	94.7271	42.4805	94.6727	42.4805	94.6911	42.4805	94.6266	42.4805	94.6492	42.4805	94.5761	42.4805	94.6027	42.4805	94.5229	42.4805	94.553	42.4805	94.4689	42.4805	94.5018	42.4805	94.4163	42.4805	94.4506	42.4805	94.3671	42.4805	94.4011	42.4805	94.3229	42.4805	94.3549	42.4805	94.285	42.4805	94.3134	42.4805	94.2542	42.4805	94.2777	42.4805	94.2308	42.4805	94.2486	42.4805	94.2149	42.4805	94.2269	42.4805	94.2066	42.4805	94.2125	42.4805	94.2058
43.9453	95.9203	43.9453	95.9147	43.9453	95.9148	43.9453	95.8981	43.9453	95.8982	43.9453	95.8711	43.9453	95.8709	43.9453	95.8344	43.9453	95.8334	43.9453	95.7891	43.9453	95.7867	43.9453	95.7364	43.9453	95.732	43.9453	95.6779	43.9453	95.6711	43.9453	95.6154	43.9453	95.6057	43.9453	95.5508	43.9453	95.5378	43.9453	95.4863	43.9453	95.4699	43.9453	95.4237	43.9453	95.4042	43.9453	95.3651	43.9453	95.343	43.9453	95.3119	43.9453	95.2885	43.9453	95.2654	43.9453	95.2426	43.9453	95.2268	43.9453	95.2068	43.9453	95.1971	43.9453	95.1821	43.9453	95.177	43.9453	95.169	43.9453	95.1674
45.4102	96.9596	45.4102	96.9518	45.4102	96.9561	45.4102	96.9328	45.4102	96.9412	45.4102	96.9033	45.4102	96.9151	45.4102	96.8639	45.4102	96.8784	45.4102	96.8157	45.4102	96.8318	45.4102	96.7601	45.4102	96.7765	45.4102	96.6985	45.4102	96.714	45.4102	96.6329	45.4102	96.6461	45.4102	96.5652	45.4102	96.575	45.4102	96.4975	45.4102	96.503	45.4102	96.4319	45.4102	96.4328	45.4102	96.3703	45.4102	96.367	45.4102	96.3146	45.4102	96.3079	45.4102	96.2662	45.4102	96.2576	45.4102	96.2266	45.4102	96.2179	45.4102	96.1967	45.4102	96.1897	45.4102	96.1774	45.4102	96.1735	45.4102	96.1695
46.875	97.8822	46.875	97.871	46.875	97.8837	46.875	97.8502	46.875	97.8752	46.875	97.8203	46.875	97.8569	46.875	97.7822	46.875	97.8291	46.875	97.7368	46.875	97.7926	46.875	97.6853	46.875	97.748	46.875	97.6291	46.875	97.6967	46.875	97.5698	46.875	97.64	46.875	97.5093	46.875	97.5798	46.875	97.4492	46.875	97.518	46.875	97.3916	46.875	97.4566	46.875	97.3381	46.875	97.3978	46.875	97.2906	46.875	97.3435	46.875	97.2507	46.875	97.2954	46.875	97.2199	46.875	97.255	46.875	97.1991	46.875	97.2234	46.875	97.189	46.875	97.2015	46.875	97.1899
48.3398	98.8009	48.3398	98.7956	48.3398	98.7987	48.3398	98.7829	48.3398	98.789	48.3398	98.7633	48.3398	98.7722	48.3398	98.7376	48.3398	98.7489	48.3398	98.7066	48.3398	98.72	48.3398	98.6716	48.3398	98.6868	48.3398	98.6337	48.3398	98.6506	48.3398	98.5943	48.3398	98.6128	48.3398	98.5549	48.3398	98.575	48.3398	98.5168	48.3398	98.5385	48.3398	98.4815	48.3398	98.5045	48.3398	98.4501	48.3398	98.4738	48.3398	98.4235	48.3398	98.447	48.3398	98.4025	48.3398	98.4242	48.3398	98.3873	48.3398	98.4055	48.3398	98.3778	48.3398	98.391	48.3398	98.3738	48.3398	98.3808	48.3398	98.3749
51.2695	100.559	51.2695	100.562	51.2695	100.542	51.2695	100.551	51.2695	100.511	51.2695	100.527	51.2695	100.467	51.2695	100.489	51.2695	100.411	51.2695	100.441	51.2695	100.345	51.2695	100.383	51.2695	100.272	51.2695	100.318	51.2695	100.194	51.2695	100.248	51.2695	100.113	51.2695	100.177	51.2695	100.034	51.2695	100.105	51.2695	99.9583	51.2695	100.037	51.2695	99.8896	51.2695	99.9722	51.2695	99.8303	51.2695	99.9131	51.2695	99.7822	51.2695	99.8604	51.2695	99.7463	51.2695	99.8147	51.2695	99.7231	51.2695	99.7764	51.2695	99.7122	51.2695	99.7462	51.2695	99.7131	51.2695	99.7248
52.7344	100.989	52.7344	100.984	52.7344	100.98	52.7344	100.966	52.7344	100.956	52.7344	100.933	52.7344	100.918	52.7344	100.89	52.7344	100.867	52.7344	100.835	52.7344	100.805	52.7344	100.773	52.7344	100.733	52.7344	100.704	52.7344	100.653	52.7344	100.633	52.7344	100.569	52.7344	100.56	52.7344	100.483	52.7344	100.489	52.7344	100.4	52.7344	100.421	52.7344	100.322	52.7344	100.358	52.7344	100.253	52.7344	100.3	52.7344	100.195	52.7344	100.248	52.7344	100.151	52.7344	100.203	52.7344	100.121	52.7344	100.164	52.7344	100.105	52.7344	100.134	52.7344	100.103	52.7344	100.113
54.1992	101.333	54.1992	101.315	54.1992	101.337	54.1992	101.283	54.1992	101.325	54.1992	101.237	54.1992	101.299	54.1992	101.18	54.1992	101.258	54.1992	101.113	54.1992	101.205	54.1992	101.038	54.1992	101.14	54.1992	100.959	54.1992	101.067	54.1992	100.877	54.1992	100.986	54.1992	100.796	54.1992	100.903	54.1992	100.719	54.1992	100.819	54.1992	100.648	54.1992	100.739	54.1992	100.585	54.1992	100.666	54.1992	100.533	54.1992	100.602	54.1992	100.491	54.1992	100.548	54.1992	100.461	54.1992	100.505	54.1992	100.443	54.1992	100.472	54.1992	100.435	54.1992	100.45	54.1992	100.438
55.6641	101.69	55.6641	101.677	55.6641	101.689	55.6641	101.65	55.6641	101.675	55.6641	101.611	55.6641	101.647	55.6641	101.56	55.6641	101.606	55.6641	101.5	55.6641	101.553	55.6641	101.431	55.6641	101.491	55.6641	101.356	55.6641	101.42	55.6641	101.278	55.6641	101.343	55.6641	101.199	55.6641	101.263	55.6641	101.122	55.6641	101.183	55.6641	101.048	55.6641	101.105	55.6641	100.981	55.6641	101.033	55.6641	100.923	55.6641	100.968	55.6641	100.876	55.6641	100.913	55.6641	100.84	55.6641	100.869	55.6641	100.815	55.6641	100.835	55.6641	100.803	55.6641	100.813	55.6641	100.802
58.5938	102.065	58.5938	102.053	58.5938	102.064	58.5938	102.029	58.5938	102.05	58.5938	101.993	58.5938	102.023	58.5938	101.946	58.5938	101.986	58.5938	101.89	58.5938	101.938	58.5938	101.825	58.5938	101.881	58.5938	101.755	58.5938	101.818	58.5938	101.68	58.5938	101.75	58.5938	101.605	58.5938	101.68	58.5938	101.531	58.5938	101.609	58.5938	101.461	58.5938	101.54	58.5938	101.398	58.5938	101.475	58.5938	101.343	58.5938	101.415	58.5938	101.299	58.5938	101.363	58.5938	101.267	58.5938	101.318	58.5938	101.247	58.5938	101.283	58.5938	101.239	58.5938	101.258	58.5938	101.243
60.0586	102.062	60.0586	102.05	60.0586	102.062	60.0586	102.026	60.0586	102.05	60.0586	101.991	60.0586	102.026	60.0586	101.947	60.0586	101.991	60.0586	101.895	60.0586	101.948	60.0586	101.837	60.0586	101.896	60.0586	101.776	60.0586	101.839	60.0586	101.713	60.0586	101.778	60.0586	101.652	60.0586	101.716	60.0586	101.594	60.0586	101.655	60.0586	101.542	60.0586	101.598	60.0586	101.497	60.0586	101.547	60.0586	101.459	60.0586	101.502	60.0586	101.43	60.0586	101.464	60.0586	101.408	60.0586	101.434	60.0586	101.394	60.0586	101.411	60.0586	101.388	60.0586	101.396	60.0586	101.389
62.9883	101.922	62.9883	101.915	62.9883	101.916	62.9883	101.894	62.9883	101.896	62.9883	101.861	62.9883	101.864	62.9883	101.817	62.9883	101.82	62.9883	101.764	62.9883	101.766	62.9883	101.705	62.9883	101.704	62.9883	101.641	62.9883	101.637	62.9883	101.576	62.9883	101.568	62.9883	101.512	62.9883	101.5	62.9883	101.452	62.9883	101.434	62.9883	101.398	62.9883	101.375	62.9883	101.35	62.9883	101.324	62.9883	101.31	62.9883	101.282	62.9883	101.277	62.9883	101.25	62.9883	101.251	62.9883	101.227	62.9883	101.231	62.9883	101.214	62.9883	101.218	62.9883	101.208	62.9883	101.21
64.4531	101.823	64.4531	101.814	64.4531	101.817	64.4531	101.793	64.4531	101.798	64.4531	101.759	64.4531	101.767	64.4531	101.714	64.4531	101.723	64.4531	101.66	64.4531	101.669	64.4531	101.599	64.4531	101.608	64.4531	101.535	64.4531	101.542	64.4531	101.469	64.4531	101.473	64.4531	101.405	64.4531	101.405	64.4531	101.345	64.4531	101.341	64.4531	101.292	64.4531	101.283	64.4531	101.245	64.4531	101.232	64.4531	101.207	64.4531	101.191	64.4531	101.177	64.4531	101.16	64.4531	101.154	64.4531	101.138	64.4531	101.137	64.4531	101.125	64.4531	101.125	64.4531	101.119	64.4531	101.119
67.3828	101.596	67.3828	101.583	67.3828	101.595	67.3828	101.557	67.3828	101.579	67.3828	101.517	67.3828	101.55	67.3828	101.467	67.3828	101.51	67.3828	101.407	67.3828	101.459	67.3828	101.341	67.3828	101.4	67.3828	101.271	67.3828	101.336	67.3828	101.201	67.3828	101.27	67.3828	101.134	67.3828	101.205	67.3828	101.073	67.3828	101.142	67.3828	101.019	67.3828	101.086	67.3828	100.975	67.3828	101.037	67.3828	100.941	67.3828	100.996	67.3828	100.917	67.3828	100.963	67.3828	100.902	67.3828	100.938	67.3828	100.895	67.3828	100.919	67.3828	100.894	67.3828	100.906	67.3828	100.898
68.8477	101.491	68.8477	101.477	68.8477	101.49	68.8477	101.448	68.8477	101.474	68.8477	101.406	68.8477	101.444	68.8477	101.352	68.8477	101.401	68.8477	101.288	68.8477	101.347	68.8477	101.217	68.8477	101.285	68.8477	101.143	68.8477	101.218	68.8477	101.069	68.8477	101.148	68.8477	100.997	68.8477	101.079	68.8477	100.932	68.8477	101.013	68.8477	100.875	68.8477	100.954	68.8477	100.828	68.8477	100.902	68.8477	100.792	68.8477	100.858	68.8477	100.767	68.8477	100.823	68.8477	100.752	68.8477	100.796	68.8477	100.745	68.8477	100.776	68.8477	100.745	68.8477	100.761	68.8477	100.751
71.7773	101.276	71.7773	101.259	71.7773	101.278	71.7773	101.226	71.7773	101.264	71.7773	101.18	71.7773	101.236	71.7773	101.122	71.7773	101.195	71.7773	101.054	71.7773	101.143	71.7773	100.979	71.7773	101.082	71.7773	100.901	71.7773	101.017	71.7773	100.824	71.7773	100.949	71.7773	100.75	71.7773	100.881	71.7773	100.683	71.7773	100.817	71.7773	100.626	71.7773	100.758	71.7773	100.58	71.7773	100.705	71.7773	100.546	71.7773	100.66	71.7773	100.523	71.7773	100.621	71.7773	100.511	71.7773	100.589	71.7773	100.508	71.7773	100.562	71.7773	100.513	71.7773	100.541	71.7773	100.524
74.707	101.021	74.707	101.004	74.707	101.021	74.707	100.972	74.707	101.006	74.707	100.926	74.707	100.976	74.707	100.867	74.707	100.933	74.707	100.798	74.707	100.88	74.707	100.723	74.707	100.819	74.707	100.644	74.707	100.754	74.707	100.566	74.707	100.688	74.707	100.493	74.707	100.623	74.707	100.428	74.707	100.564	74.707	100.373	74.707	100.51	74.707	100.33	74.707	100.464	74.707	100.301	74.707	100.424	74.707	100.283	74.707	100.391	74.707	100.276	74.707	100.364	74.707	100.278	74.707	100.34	74.707	100.287	74.707	100.319	74.707	100.301
77.6367	100.751	77.6367	100.735	77.6367	100.751	77.6367	100.702	77.6367	100.734	77.6367	100.654	77.6367	100.702	77.6367	100.592	77.6367	100.656	77.6367	100.52	77.6367	100.601	77.6367	100.441	77.6367	100.538	77.6367	100.359	77.6367	100.471	77.6367	100.278	77.6367	100.405	77.6367	100.203	77.6367	100.341	77.6367	100.137	77.6367	100.284	77.6367	100.083	77.6367	100.234	77.6367	100.043	77.6367	100.193	77.6367	100.018	77.6367	100.158	77.6367	100.005	77.6367	100.13	77.6367	100.005	77.6367	100.106	77.6367	100.012	77.6367	100.084	77.6367	100.026	77.6367	100.063	77.6367	100.044
79.1016	100.659	79.1016	100.646	79.1016	100.654	79.1016	100.615	79.1016	100.633	79.1016	100.569	79.1016	100.595	79.1016	100.508	79.1016	100.545	79.1016	100.436	79.1016	100.484	79.1016	100.356	79.1016	100.416	79.1016	100.272	79.1016	100.346	79.1016	100.189	79.1016	100.275	79.1016	100.111	79.1016	100.21	79.1016	100.041	79.1016	100.151	79.1016	99.984	79.1016	100.101	79.1016	99.9408	79.1016	100.06	79.1016	99.9121	79.1016	100.028	79.1016	99.8971	79.1016	100.002	79.1016	99.8939	79.1016	99.9802	79.1016	99.8996	79.1016	99.9613	79.1016	99.9114	79.1016	99.9436	79.1016	99.9267
82.0312	100.454	82.0312	100.446	82.0312	100.443	82.0312	100.421	82.0312	100.415	82.0312	100.378	82.0312	100.371	82.0312	100.321	82.0312	100.312	82.0312	100.252	82.0312	100.242	82.0312	100.174	82.0312	100.164	82.0312	100.091	82.0312	100.083	82.0312	100.008	82.0312	100.003	82.0312	99.9285	82.0312	99.9268	82.0312	99.8564	82.0312	99.8588	82.0312	99.7946	82.0312	99.8011	82.0312	99.745	82.0312	99.7549	82.0312	99.7078	82.0312	99.7201	82.0312	99.6824	82.0312	99.6954	82.0312	99.6668	82.0312	99.6788	82.0312	99.6589	82.0312	99.6681	82.0312	99.6563	82.0312	99.6614	82.0312	99.6575
84.9609	100.154	84.9609	100.148	84.9609	100.142	84.9609	100.123	84.9609	100.112	84.9609	100.082	84.9609	100.067	84.9609	100.027	84.9609	100.008	84.9609	99.961	84.9609	99.9397	84.9609	99.8876	84.9609	99.8656	84.9609	99.8115	84.9609	99.7903	84.9609	99.737	84.9609	99.718	84.9609	99.6686	84.9609	99.6526	84.9609	99.6098	84.9609	99.5971	84.9609	99.5628	84.9609	99.5531	84.9609	99.5285	84.9609	99.5212	84.9609	99.5061	84.9609	99.5005	84.9609	99.4936	84.9609	99.4891	84.9609	99.4881	84.9609	99.4845	84.9609	99.4865	84.9609	99.4839	84.9609	99.4864	84.9609	99.4851	84.9609	99.4861
87.8906	100.076	87.8906	100.073	87.8906	100.058	87.8906	100.048	87.8906	100.018	87.8906	100.003	87.8906	99.9584	87.8906	99.9414	87.8906	99.8825	87.8906	99.8663	87.8906	99.7941	87.8906	99.7823	87.8906	99.6983	87.8906	99.6943	87.8906	99.6008	87.8906	99.6078	87.8906	99.5077	87.8906	99.5279	87.8906	99.4246	87.8906	99.4589	87.8906	99.3562	87.8906	99.4041	87.8906	99.3054	87.8906	99.3644	87.8906	99.273	87.8906	99.3392	87.8906	99.2579	87.8906	99.3255	87.8906	99.2568	87.8906	99.3193	87.8906	99.2654	87.8906	99.3161	87.8906	99.2789	87.8906	99.3119	87.8906	99.2929	87.8906	99.3044
90.8203	99.9319	90.8203	99.9207	90.8203	99.9205	90.8203	99.8874	90.8203	99.8868	90.8203	99.8338	90.8203	99.8328	90.8203	99.7629	90.8203	99.7613	90.8203	99.6788	90.8203	99.6764	90.8203	99.5862	90.8203	99.5834	90.8203	99.4908	90.8203	99.4879	90.8203	99.3985	90.8203	99.396	90.8203	99.3148	90.8203	99.3133	90.8203	99.2446	90.8203	99.2444	90.8203	99.191	90.8203	99.192	90.8203	99.1549	90.8203	99.1568	90.8203	99.1353	90.8203	99.1374	90.8203	99.1288	90.8203	99.1306	90.8203	99.131	90.8203	99.1322	90.8203	99.137	90.8203	99.1375	90.8203	99.1424	90.8203	99.1426	90.8203	99.1446
95.2148	99.7625	95.2148	99.7514	95.2148	99.7482	95.2148	99.7156	95.2148	99.7089	95.2148	99.6572	95.2148	99.646	95.2148	99.579	95.2148	99.5624	95.2148	99.485	95.2148	99.462	95.2148	99.3802	95.2148	99.3499	95.2148	99.2702	95.2148	99.2324	95.2148	99.1609	95.2148	99.1164	95.2148	99.0584	95.2148	99.0087	95.2148	98.9677	95.2148	98.9153	95.2148	98.8928	95.2148	98.8406	95.2148	98.8356	95.2148	98.7866	95.2148	98.7961	95.2148	98.7527	95.2148	98.7718	95.2148	98.7358	95.2148	98.759	95.2148	98.7315	95.2148	98.7531	95.2148	98.7345	95.2148	98.7497	95.2148	98.7404	95.2148	98.7458
98.1445	99.5969	98.1445	99.581	98.1445	99.5871	98.1445	99.5402	98.1445	99.5519	98.1445	99.4767	98.1445	99.4927	98.1445	99.3938	98.1445	99.4126	98.1445	99.2959	98.1445	99.3154	98.1445	99.1883	98.1445	99.2066	98.1445	99.0771	98.1445	99.0923	98.1445	98.9686	98.1445	98.9796	98.1445	98.8691	98.1445	98.8754	98.1445	98.7835	98.1445	98.7856	98.1445	98.7155	98.1445	98.7146	98.1445	98.6666	98.1445	98.6642	98.1445	98.636	98.1445	98.6334	98.1445	98.6209	98.1445	98.619	98.1445	98.6169	98.1445	98.6159	98.1445	98.6191	98.1445	98.6187	98.1445	98.6226	98.1445	98.6226	98.1445	98.6242
101.074	99.4209	101.074	99.4041	101.074	99.4118	101.074	99.3621	101.074	99.3772	101.074	99.2966	101.074	99.3187	101.074	99.2109	101.074	99.2393	101.074	99.1092	101.074	99.1428	101.074	98.9969	101.074	99.0343	101.074	98.8804	101.074	98.9196	101.074	98.7665	101.074	98.8054	101.074	98.6619	101.074	98.6986	101.074	98.5724	101.074	98.6054	101.074	98.5022	101.074	98.5305	101.074	98.4531	101.074	98.4763	101.074	98.4242	101.074	98.4424	101.074	98.4121	101.074	98.4259	101.074	98.4119	101.074	98.4215	101.074	98.4176	101.074	98.4237	101.074	98.424	101.074	98.4269	101.074	98.4275
105.469	99.2891	105.469	99.2725	105.469	99.2769	105.469	99.2277	105.469	99.2365	105.469	99.1569	105.469	99.1702	105.469	99.0636	105.469	99.0815	105.469	98.9524	105.469	98.9753	105.469	98.8292	105.469	98.8574	105.469	98.7008	105.469	98.7347	105.469	98.5744	105.469	98.614	105.469	98.4572	105.469	98.5018	105.469	98.3555	105.469	98.4036	105.469	98.2738	105.469	98.3231	105.469	98.2145	105.469	98.2621	105.469	98.1772	105.469	98.2203	105.469	98.1587	105.469	98.1951	105.469	98.1541	105.469	98.1823	105.469	98.1578	105.469	98.1768	105.469	98.1643	105.469	98.1738	105.469	98.1701
108.398	99.3177	108.398	99.2997	108.398	99.3061	108.398	99.2528	108.398	99.2655	108.398	99.1793	108.398	99.1978	108.398	99.0827	108.398	99.1066	108.398	98.968	108.398	98.9967	108.398	98.8416	108.398	98.8743	108.398	98.7106	108.398	98.7467	108.398	98.5828	108.398	98.6217	108.398	98.4657	108.398	98.5066	108.398	98.3658	108.398	98.4079	108.398	98.2875	108.398	98.3297	108.398	98.2326	108.398	98.2734	108.398	98.2001	108.398	98.2377	108.398	98.1863	108.398	98.219	108.398	98.1857	108.398	98.212	108.398	98.1924	108.398	98.2108	108.398	98.201	108.398	98.2104	108.398	98.2075
112.793	99.2537	112.793	99.2396	112.793	99.2362	112.793	99.1943	112.793	99.1881	112.793	99.12	112.793	99.1122	112.793	99.0204	112.793	99.0128	112.793	98.9011	112.793	98.8957	112.793	98.769	112.793	98.7684	112.793	98.6324	112.793	98.639	112.793	98.5005	112.793	98.5163	112.793	98.382	112.793	98.4082	112.793	98.2847	112.793	98.3209	112.793	98.2136	112.793	98.2581	112.793	98.1703	112.793	98.2199	112.793	98.1528	112.793	98.2034	112.793	98.1557	112.793	98.2027	112.793	98.1715	112.793	98.2109	112.793	98.1925	112.793	98.2207	112.793	98.2114	112.793	98.2261	112.793	98.2233
117.188	99.1948	117.188	99.1743	117.188	99.1808	117.188	99.1208	117.188	99.1325	117.188	99.0369	117.188	99.0516	117.188	98.9271	117.188	98.9418	117.188	98.7969	117.188	98.8083	117.188	98.6536	117.188	98.6586	117.188	98.5055	117.188	98.5015	117.188	98.362	117.188	98.3473	117.188	98.2323	117.188	98.2065	117.188	98.1245	117.188	98.0884	117.188	98.0443	117.188	98	117.188	97.9935	117.188	97.9442	117.188	97.9698	117.188	97.9195	117.188	97.967	117.188	97.9202	117.188	97.9767	117.188	97.9373	117.188	97.9895	117.188	97.9612	117.188	97.9976	117.188	97.9828	117.188	97.9958
120.117	99.1737	120.117	99.149	120.117	99.1639	120.117	99.0911	120.117	99.1198	120.117	99.0026	120.117	99.0431	120.117	98.8876	120.117	98.9371	120.117	98.7516	120.117	98.8071	120.117	98.6015	120.117	98.6597	120.117	98.4456	120.117	98.5033	120.117	98.293	120.117	98.3476	120.117	98.1534	120.117	98.2025	120.117	98.0352	120.117	98.0772	120.117	97.945	120.117	97.9787	120.117	97.8856	120.117	97.9108	120.117	97.8559	120.117	97.8728	120.117	97.8503	120.117	97.8603	120.117	97.8604	120.117	97.8652	120.117	97.8765	120.117	97.8782	120.117	97.8901	120.117	97.8904	120.117	97.8952
124.512	99.1733	124.512	99.1562	124.512	99.1558	124.512	99.105	124.512	99.1046	124.512	99.0221	124.512	99.022	124.512	98.9111	124.512	98.9122	124.512	98.7777	124.512	98.7807	124.512	98.629	124.512	98.6348	124.512	98.4735	124.512	98.4831	124.512	98.3208	124.512	98.3351	124.512	98.1806	124.512	98.2002	124.512	98.0616	124.512	98.0863	124.512	97.9704	124.512	97.9992	124.512	97.9098	124.512	97.9409	124.512	97.8786	124.512	97.9097	124.512	97.8719	124.512	97.9003	124.512	97.8815	124.512	97.905	124.512	97.8985	124.512	97.9151	124.512	97.9145	124.512	97.9231	124.512	97.9234
128.906	99.0906	128.906	99.0733	128.906	99.0714	128.906	99.0205	128.906	99.0165	128.906	98.9344	128.906	98.9284	128.906	98.8191	128.906	98.8113	128.906	98.6806	128.906	98.6711	128.906	98.5265	128.906	98.5156	128.906	98.3657	128.906	98.3539	128.906	98.2083	128.906	98.1963	128.906	98.0647	128.906	98.0532	128.906	97.9439	128.906	97.9338	128.906	97.8525	128.906	97.8446	128.906	97.7931	128.906	97.7879	128.906	97.7642	128.906	97.7617	128.906	97.7599	128.906	97.7598	128.906	97.7717	128.906	97.7732	128.906	97.7898	128.906	97.7917	128.906	97.8052	128.906	97.8064	128.906	97.8116
133.301	98.9773	133.301	98.9632	133.301	98.9538	133.301	98.9125	133.301	98.8932	133.301	98.8279	133.301	98.798	133.301	98.7137	133.301	98.6725	133.301	98.5759	133.301	98.5229	133.301	98.4222	133.301	98.3574	133.301	98.2616	133.301	98.1859	133.301	98.1044	133.301	98.0193	133.301	97.9607	133.301	97.8688	133.301	97.8398	133.301	97.744	133.301	97.7479	133.301	97.6521	133.301	97.6877	133.301	97.5958	133.301	97.657	133.301	97.5732	133.301	97.6495	133.301	97.5777	133.301	97.6562	133.301	97.5996	133.301	97.6673	133.301	97.6283	133.301	97.6738	133.301	97.654	133.301	97.67
139.16	98.8049	139.16	98.7874	139.16	98.784	139.16	98.733	139.16	98.7251	139.16	98.6451	139.16	98.6308	139.16	98.5289	139.16	98.5055	139.16	98.3912	139.16	98.3563	139.16	98.2405	139.16	98.1922	139.16	98.0869	139.16	98.0245	139.16	97.9409	139.16	97.8655	139.16	97.8133	139.16	97.7273	139.16	97.7128	139.16	97.6203	139.16	97.6451	139.16	97.5512	139.16	97.6116	139.16	97.5214	139.16	97.6085	139.16	97.5271	139.16	97.6278	139.16	97.559	139.16	97.6584	139.16	97.6052	139.16	97.6886	139.16	97.6525	139.16	97.7078	139.16	97.6896	139.16	97.7089
143.555	98.7415	143.555	98.7109	143.555	98.7301	143.555	98.6399	143.555	98.6771	143.555	98.5324	143.555	98.5852	143.555	98.3944	143.555	98.4595	143.555	98.2344	143.555	98.3075	143.555	98.063	143.555	98.139	143.555	97.8927	143.555	97.966	143.555	97.7368	143.555	97.8021	143.555	97.6082	143.555	97.6605	143.555	97.517	143.555	97.5528	143.555	97.4686	143.555	97.4862	143.555	97.462	143.555	97.4625	143.555	97.4901	143.555	97.4771	143.555	97.5406	143.555	97.5198	143.555	97.5991	143.555	97.5765	143.555	97.651	143.555	97.6324	143.555	97.6847	143.555	97.6743	143.555	97.6931
147.949	98.8365	147.949	98.8055	147.949	98.8182	147.949	98.7263	147.949	98.7519	147.949	98.6021	147.949	98.6411	147.949	98.4385	147.949	98.4915	147.949	98.244	147.949	98.3116	147.949	98.0301	147.949	98.1123	147.949	97.8106	147.949	97.907	147.949	97.6018	147.949	97.7108	147.949	97.4201	147.949	97.5388	147.949	97.2799	147.949	97.4038	147.949	97.1906	147.949	97.3138	147.949	97.1542	147.949	97.2701	147.949	97.1644	147.949	97.267	147.949	97.2082	147.949	97.293	147.949	97.2689	147.949	97.3333	147.949	97.3295	147.949	97.3724	147.949	97.3762	147.949	97.3976	147.949	97.3998
153.809	98.8299	153.809	98.8059	153.809	98.8027	153.809	98.7321	153.809	98.725	153.809	98.6117	153.809	98.5995	153.809	98.4502	153.809	98.4316	153.809	98.2551	153.809	98.2294	153.809	98.0366	153.809	98.0041	153.809	97.8076	153.809	97.7698	153.809	97.5834	153.809	97.5434	153.809	97.3808	153.809	97.3428	153.809	97.216	153.809	97.1841	153.809	97.101	153.809	97.0789	153.809	97.0408	153.809	97.0306	153.809	97.0311	153.809	97.0328	153.809	97.0601	153.809	97.0711	153.809	97.1105	153.809	97.1264	153.809	97.1644	153.809	97.1795	153.809	97.2062	153.809	97.2153	153.809	97.2248
159.668	98.9809	159.668	98.9536	159.668	98.9577	159.668	98.8773	159.668	98.8845	159.668	98.7552	159.668	98.7634	159.668	98.5926	159.668	98.5988	159.668	98.3968	159.668	98.3977	159.668	98.1774	159.668	98.1695	159.668	97.9464	159.668	97.927	159.668	97.7177	159.668	97.6855	159.668	97.5066	159.668	97.4621	159.668	97.3281	159.668	97.2739	159.668	97.1947	159.668	97.135	159.668	97.1135	159.668	97.0532	159.668	97.0835	159.668	97.0276	159.668	97.0953	159.668	97.0477	159.668	97.1326	159.668	97.0959	159.668	97.1761	159.668	97.1515	159.668	97.2081	159.668	97.1959	159.668	97.2162
165.527	98.9801	165.527	98.9563	165.527	98.9546	165.527	98.8841	165.527	98.8807	165.527	98.7666	165.527	98.7616	165.527	98.6092	165.527	98.6024	165.527	98.4198	165.527	98.4111	165.527	98.2093	165.527	98.1983	165.527	97.9912	165.527	97.9776	165.527	97.781	165.527	97.7647	165.527	97.5948	165.527	97.576	165.527	97.4469	165.527	97.4262	165.527	97.3473	165.527	97.3258	165.527	97.2994	165.527	97.2786	165.527	97.2992	165.527	97.2805	165.527	97.3353	165.527	97.3199	165.527	97.3912	165.527	97.3797	165.527	97.4483	165.527	97.4409	165.527	97.4898	165.527	97.4862	165.527	97.5039
171.387	98.8427	171.387	98.8081	171.387	98.8243	171.387	98.7221	171.387	98.7538	171.387	98.5877	171.387	98.6336	171.387	98.4105	171.387	98.4686	171.387	98.199	171.387	98.2669	171.387	97.9651	171.387	98.0397	171.387	97.7241	171.387	97.8023	171.387	97.4948	171.387	97.5731	171.387	97.297	171.387	97.3722	171.387	97.149	171.387	97.2179	171.387	97.0625	171.387	97.123	171.387	97.0401	171.387	97.0907	171.387	97.0738	171.387	97.1142	171.387	97.1464	171.387	97.1774	171.387	97.2363	171.387	97.2588	171.387	97.3211	171.387	97.3359	171.387	97.3819	171.387	97.3893	171.387	97.4061
177.246	98.7614	177.246	98.7329	177.246	98.7356	177.246	98.6504	177.246	98.6573	177.246	98.5159	177.246	98.5297	177.246	98.3341	177.246	98.3579	177.246	98.1126	177.246	98.149	177.246	97.8631	177.246	97.9129	177.246	97.6014	177.246	97.6633	177.246	97.347	177.246	97.4174	177.246	97.1215	177.246	97.1955	177.246	96.9455	177.246	97.0181	177.246	96.8337	177.246	96.9014	177.246	96.7909	177.246	96.8518	177.246	96.8102	177.246	96.864	177.246	96.8746	177.246	96.9209	177.246	96.9611	177.246	96.9989	177.246	97.0461	177.246	97.0733	177.246	97.1092	177.246	97.1236	177.246	97.1368
183.105	98.7079	183.105	98.6902	183.105	98.6662	183.105	98.6133	183.105	98.5673	183.105	98.4797	183.105	98.4158	183.105	98.2949	183.105	98.219	183.105	98.0673	183.105	97.9874	183.105	97.8092	183.105	97.7346	183.105	97.5376	183.105	97.4776	183.105	97.2736	183.105	97.2359	183.105	97.0409	183.105	97.0298	183.105	96.8619	183.105	96.8767	183.105	96.7519	183.105	96.7879	183.105	96.7152	183.105	96.7644	183.105	96.7426	183.105	96.7964	183.105	96.8148	183.105	96.8655	183.105	96.9072	183.105	96.9493	183.105	96.9955	183.105	97.0253	183.105	97.0601	183.105	97.0755	183.105	97.0883
188.965	98.7588	188.965	98.7406	188.965	98.7107	188.965	98.6571	188.965	98.5973	188.965	98.5109	188.965	98.4214	188.965	98.3076	188.965	98.1886	188.965	98.0557	188.965	97.9082	188.965	97.7686	188.965	97.5946	188.965	97.4649	188.965	97.2682	188.965	97.1687	188.965	96.9558	188.965	96.9077	188.965	96.6883	188.965	96.7086	188.965	96.4953	188.965	96.5898	188.965	96.396	188.965	96.5556	188.965	96.3923	188.965	96.5934	188.965	96.4664	188.965	96.6781	188.965	96.5875	188.965	96.7799	188.965	96.7212	188.965	96.8716	188.965	96.838	188.965	96.9326	188.965	96.9178	188.965	96.9499
196.289	99.0801	196.289	99.0462	196.289	99.0498	196.289	98.9494	196.289	98.9554	196.289	98.7923	196.289	98.7984	196.289	98.5788	196.289	98.5826	196.289	98.3156	196.289	98.3145	196.289	98.0123	196.289	98.0047	196.289	97.684	196.289	97.6693	196.289	97.3522	196.289	97.3305	196.289	97.0449	196.289	97.0177	196.289	96.794	196.289	96.7632	196.289	96.6278	196.289	96.5958	196.289	96.5608	196.289	96.5302	196.289	96.5867	196.289	96.5599	196.289	96.6795	196.289	96.6581	196.289	96.8021	196.289	96.7871	196.289	96.918	196.289	96.9091	196.289	96.9987	196.289	96.9947	196.289	97.0263
203.613	99.0109	203.613	98.9676	203.613	98.985	203.613	98.8563	203.613	98.8898	203.613	98.6805	203.613	98.7272	203.613	98.4459	203.613	98.5006	203.613	98.1619	203.613	98.2167	203.613	97.842	203.613	97.8858	203.613	97.5048	203.613	97.5239	203.613	97.174	203.613	97.1541	203.613	96.8771	203.613	96.807	203.613	96.6424	203.613	96.5186	203.613	96.4928	203.613	96.3232	203.613	96.4386	203.613	96.2412	203.613	96.4714	203.613	96.2699	203.613	96.5652	203.613	96.3818	203.613	96.6835	203.613	96.5349	203.613	96.7897	203.613	96.6863	203.613	96.8546	203.613	96.8018	203.613	96.8604
210.938	99.0558	210.938	99.0165	210.938	99.0265	210.938	98.9091	210.938	98.9289	210.938	98.7352	210.938	98.765	210.938	98.4974	210.938	98.5384	210.938	98.2005	210.938	98.2546	210.938	97.8535	210.938	97.9216	210.938	97.4715	210.938	97.5519	210.938	97.0789	210.938	97.1642	210.938	96.7093	210.938	96.7867	210.938	96.403	210.938	96.4564	210.938	96.1975	210.938	96.2131	210.938	96.1136	210.938	96.0862	210.938	96.145	210.938	96.0804	210.938	96.2587	210.938	96.1717	210.938	96.4065	210.938	96.3168	210.938	96.541	210.938	96.4679	210.938	96.626	210.938	96.5852	210.938	96.6419
218.262	98.9739	218.262	98.9442	218.262	98.936	218.262	98.85	218.262	98.8297	218.262	98.6958	218.262	98.6575	218.262	98.4867	218.262	98.4262	218.262	98.2288	218.262	98.1465	218.262	97.9293	218.262	97.8329	218.262	97.5992	218.262	97.5018	218.262	97.2554	218.262	97.1714	218.262	96.9233	218.262	96.8624	218.262	96.6361	218.262	96.5991	218.262	96.4297	218.262	96.4085	218.262	96.3308	218.262	96.3127	218.262	96.3435	218.262	96.3182	218.262	96.4438	218.262	96.4077	218.262	96.5874	218.262	96.5451	218.262	96.7252	218.262	96.6868	218.262	96.8177	218.262	96.7948	218.262	96.8424
225.586	99.028	225.586	98.9943	225.586	98.9841	225.586	98.8873	225.586	98.8601	225.586	98.712	225.586	98.6559	225.586	98.4746	225.586	98.3754	225.586	98.1828	225.586	98.0286	225.586	97.8476	225.586	97.6327	225.586	97.4855	225.586	97.2141	225.586	97.1206	225.586	96.8074	225.586	96.7849	225.586	96.4524	225.586	96.5151	225.586	96.189	225.586	96.3443	225.586	96.0481	225.586	96.2913	225.586	96.0413	225.586	96.352	225.586	96.1552	225.586	96.4976	225.586	96.3521	225.586	96.6823	225.586	96.5811	225.586	96.855	225.586	96.7911	225.586	96.9718	225.586	96.9408	225.586	97.0038
232.91	99.2257	232.91	99.1772	232.91	99.1982	232.91	99.0554	232.91	99.0924	232.91	98.8636	232.91	98.9064	232.91	98.6063	232.91	98.6405	232.91	98.2893	232.91	98.2979	232.91	97.9205	232.91	97.8876	232.91	97.5118	232.91	97.4259	232.91	97.0825	232.91	96.9383	232.91	96.6644	232.91	96.4622	232.91	96.3021	232.91	96.0476	232.91	96.0456	232.91	95.7517	232.91	95.933	232.91	95.6219	232.91	95.9707	232.91	95.6717	232.91	96.1269	232.91	95.8674	232.91	96.3415	232.91	96.1395	232.91	96.546	232.91	96.4097	232.91	96.6813	232.91	96.6129	232.91	96.7081
241.699	99.0352	241.699	98.9974	241.699	98.9992	241.699	98.884	241.699	98.8924	241.699	98.6953	241.699	98.7187	241.699	98.4346	241.699	98.4823	241.699	98.1086	241.699	98.1883	241.699	97.7287	241.699	97.8443	241.699	97.3125	241.699	97.4627	241.699	96.8849	241.699	97.0633	241.699	96.4795	241.699	96.674	241.699	96.1362	241.699	96.3301	241.699	95.8925	241.699	96.0686	241.699	95.7718	241.699	95.9188	241.699	95.7734	241.699	95.8898	241.699	95.8721	241.699	95.9634	241.699	96.0265	241.699	96.0975	241.699	96.1884	241.699	96.2391	241.699	96.313	241.699	96.34	241.699	96.368
250.488	99.3745	250.488	99.3421	250.488	99.3196	250.488	99.2221	250.488	99.1781	250.488	99.0157	250.488	98.9505	250.488	98.7257	250.488	98.6382	250.488	98.3579	250.488	98.2454	250.488	97.9213	250.488	97.7829	250.488	97.4297	250.488	97.2719	250.488	96.9051	250.488	96.7471	250.488	96.3835	250.488	96.2566	250.488	95.9191	250.488	95.8555	250.488	95.5772	250.488	95.5928	250.488	95.4096	250.488	95.4949	250.488	95.425	250.488	95.5535	250.488	95.5815	250.488	95.7248	250.488	95.809	250.488	95.9434	250.488	96.0369	250.488	96.1421	250.488	96.2103	250.488	96.2684	250.488	96.2929
259.277	99.5822	259.277	99.5578	259.277	99.5338	259.277	99.459	259.277	99.4143	259.277	99.2841	259.277	99.2246	259.277	99.0322	259.277	98.9655	259.277	98.7044	259.277	98.6367	259.277	98.3057	259.277	98.2392	259.277	97.8466	259.277	97.7778	259.277	97.3458	259.277	97.2679	259.277	96.8329	259.277	96.744	259.277	96.3524	259.277	96.2642	259.277	95.9615	259.277	95.9013	259.277	95.7162	259.277	95.714	259.277	95.6458	259.277	95.714	259.277	95.733	259.277	95.8566	259.277	95.92	259.277	96.0644	259.277	96.1337	259.277	96.2589	259.277	96.3087	259.277	96.3809	259.277	96.3987
268.066	99.2925	268.066	99.259	268.066	99.2383	268.066	99.1338	268.066	99.1024	268.066	98.9182	268.066	98.8916	268.066	98.62	268.066	98.6116	268.066	98.2548	268.066	98.2659	268.066	97.8438	268.066	97.8561	268.066	97.4095	268.066	97.3841	268.066	96.9728	268.066	96.8598	268.066	96.5537	268.066	96.3136	268.066	96.1783	268.066	95.8076	268.066	95.8814	268.066	95.432	268.066	95.6978	268.066	95.2662	268.066	95.6416	268.066	95.3234	268.066	95.694	268.066	95.5336	268.066	95.8122	268.066	95.7886	268.066	95.9498	268.066	95.9979	268.066	96.0674	268.066	96.1147	268.066	96.1319
276.855	99.2897	276.855	99.251	276.855	99.2719	276.855	99.1574	276.855	99.1889	276.855	99.0006	276.855	99.0295	276.855	98.7639	276.855	98.7845	276.855	98.4296	276.855	98.4511	276.855	97.9897	276.855	98.0374	276.855	97.4577	276.855	97.5632	276.855	96.8762	276.855	97.0572	276.855	96.3146	276.855	96.5502	276.855	95.8554	276.855	96.072	276.855	95.5692	276.855	95.6566	276.855	95.4871	276.855	95.3507	276.855	95.5857	276.855	95.2074	276.855	95.7952	276.855	95.2529	276.855	96.0258	276.855	95.456	276.855	96.1976	276.855	95.7363	276.855	96.2591	276.855	96.004	276.855	96.191
287.109	99.4543	287.109	99.42	287.109	99.3918	287.109	99.2865	287.109	99.2403	287.109	99.057	287.109	99.0121	287.109	98.7392	287.109	98.7215	287.109	98.3426	287.109	98.3803	287.109	97.8771	287.109	97.992	287.109	97.3532	287.109	97.5507	287.109	96.7896	287.109	97.0503	287.109	96.2237	287.109	96.5077	287.109	95.7203	287.109	95.9886	287.109	95.3622	287.109	95.6076	287.109	95.2147	287.109	95.4662	287.109	95.2806	287.109	95.5632	287.109	95.4922	287.109	95.7909	287.109	95.7527	287.109	96.0236	287.109	95.9853	287.109	96.186	287.109	96.152	287.109	96.2573	287.109	96.2434
297.363	99.6106	297.363	99.596	297.363	99.532	297.363	99.4936	297.363	99.3535	297.363	99.3078	297.363	99.0686	297.363	99.0427	297.363	98.6733	297.363	98.7029	297.363	98.1719	297.363	98.2926	297.363	97.5832	297.363	97.8146	297.363	96.9445	297.363	97.2728	297.363	96.307	297.363	96.6819	297.363	95.7218	297.363	96.0864	297.363	95.2325	297.363	95.5785	297.363	94.8902	297.363	95.2844	297.363	94.7732	297.363	95.2939	297.363	94.9492	297.363	95.5824	297.363	95.389	297.363	96.0212	297.363	95.9496	297.363	96.4593	297.363	96.4593	297.363	96.7784	297.363	96.7958	297.363	96.9031
307.617	99.6034	307.617	99.5247	307.617	99.6078	307.617	99.375	307.617	99.5348	307.617	99.1573	307.617	99.3798	307.617	98.8738	307.617	99.1371	307.617	98.5241	307.617	98.7996	307.617	98.1063	307.617	98.361	307.617	97.6225	307.617	97.8195	307.617	97.0863	307.617	97.1863	307.617	96.5288	307.617	96.4982	307.617	96.0006	307.617	95.8279	307.617	95.5693	307.617	95.2764	307.617	95.3093	307.617	94.9364	307.617	95.2719	307.617	94.8484	307.617	95.4421	307.617	94.9876	307.617	95.7281	307.617	95.2833	307.617	96.0032	307.617	95.6399	307.617	96.1611	307.617	95.9556	307.617	96.1455
319.336	99.2545	319.336	99.2384	319.336	99.1959	319.336	99.144	319.336	99.0644	319.336	98.9663	319.336	98.859	319.336	98.6986	319.336	98.5745	319.336	98.3332	319.336	98.202	319.336	97.8637	319.336	97.7337	319.336	97.2924	319.336	97.1705	319.336	96.643	319.336	96.5329	319.336	95.9758	319.336	95.8712	319.336	95.3907	319.336	95.2741	319.336	94.9973	319.336	94.8611	319.336	94.8582	319.336	94.7371	319.336	94.9599	319.336	94.9188	319.336	95.237	319.336	95.3102	319.336	95.6064	319.336	95.7623	319.336	95.9802	319.336	96.145	319.336	96.2733	319.336	96.3758	319.336	96.4178
329.59	99.221	329.59	99.1961	329.59	99.1821	329.59	99.1068	329.59	99.0775	329.59	98.9494	329.59	98.904	329.59	98.716	329.59	98.6566	329.59	98.3943	329.59	98.3277	329.59	97.9687	329.59	97.9066	329.59	97.4254	329.59	97.3818	329.59	96.7622	329.59	96.7474	329.59	96.0098	329.59	96.0189	329.59	95.2597	329.59	95.2598	329.59	94.676	329.59	94.6107	329.59	94.4318	329.59	94.27	329.59	94.5774	329.59	94.3674	329.59	94.9943	329.59	94.8286	329.59	95.5018	329.59	95.4297	329.59	95.9582	329.59	95.96	329.59	96.276	329.59	96.2977	329.59	96.4006
341.309	99.1926	341.309	99.1579	341.309	99.125	341.309	99.0262	341.309	98.9583	341.309	98.8118	341.309	98.7032	341.309	98.5334	341.309	98.3766	341.309	98.2052	341.309	97.9952	341.309	97.8232	341.309	97.5689	341.309	97.3602	341.309	97.0963	341.309	96.7786	341.309	96.5707	341.309	96.0622	341.309	95.9981	341.309	95.2604	341.309	95.4193	341.309	94.5261	341.309	94.923	341.309	94.0854	341.309	94.6262	341.309	94.0807	341.309	94.6101	341.309	94.4333	341.309	94.851	341.309	94.9329	341.309	95.2266	341.309	95.3995	341.309	95.5886	341.309	95.7307	341.309	95.8253	341.309	95.8779
353.027	99.3112	353.027	99.2464	353.027	99.289	353.027	99.1026	353.027	99.1668	353.027	98.8788	353.027	98.9326	353.027	98.569	353.027	98.5825	353.027	98.1719	353.027	98.1222	353.027	97.7005	353.027	97.5642	353.027	97.1797	353.027	96.9172	353.027	96.6287	353.027	96.1767	353.027	96.0432	353.027	95.3321	353.027	95.4036	353.027	94.4108	353.027	94.7247	353.027	93.5615	353.027	94.1221	353.027	93.0946	353.027	93.8162	353.027	93.2693	353.027	93.9657	353.027	93.9576	353.027	94.4728	353.027	94.7732	353.027	95.0753	353.027	95.4197	353.027	95.559	353.027	95.7722	353.027	95.81
366.211	99.6755	366.211	99.5789	366.211	99.6759	366.211	99.3809	366.211	99.5867	366.211	99.082	366.211	99.4062	366.211	98.6853	366.211	99.1197	366.211	98.1885	366.211	98.7031	366.211	97.5813	366.211	98.1348	366.211	96.8552	366.211	97.4064	366.211	96.0271	366.211	96.5265	366.211	95.167	366.211	95.5202	366.211	94.4107	366.211	94.4368	366.211	93.9288	366.211	93.3899	366.211	93.8376	366.211	92.622	366.211	94.1147	366.211	92.4546	366.211	94.6151	366.211	92.9714	366.211	95.1599	366.211	93.8651	366.211	95.6004	366.211	94.7559	366.211	95.831	366.211	95.4225	366.211	95.7833
379.395	99.5524	379.395	99.5523	379.395	99.5169	379.395	99.5092	379.395	99.4444	379.395	99.4067	379.395	99.3286	379.395	99.2249	379.395	99.1619	379.395	98.9452	379.395	98.9358	379.395	98.5501	379.395	98.637	379.395	98.0165	379.395	98.2425	379.395	97.3157	379.395	97.7169	379.395	96.4303	379.395	97.0211	379.395	95.3906	379.395	96.1382	379.395	94.3218	379.395	95.1241	379.395	93.459	379.395	94.1681	379.395	93.0511	379.395	93.5772	379.395	93.1694	379.395	93.5466	379.395	93.6466	379.395	93.9357	379.395	94.2193	379.395	94.4275	379.395	94.6695	379.395	94.7789	379.395	94.8701
392.578	99.0869	392.578	99.0106	392.578	99.0395	392.578	98.8237	392.578	98.8752	392.578	98.5561	392.578	98.6159	392.578	98.2428	392.578	98.2883	392.578	97.9091	392.578	97.9127	392.578	97.5622	392.578	97.4969	392.578	97.1909	392.578	97.0387	392.578	96.7713	392.578	96.534	392.578	96.2775	392.578	95.9828	392.578	95.7046	392.578	95.3932	392.578	95.1003	392.578	94.7945	392.578	94.5862	392.578	94.2655	392.578	94.3203	392.578	93.9504	392.578	94.3843	392.578	93.9899	392.578	94.7036	392.578	94.3682	392.578	95.1013	392.578	94.8838	392.578	95.4029	392.578	95.3037	392.578	95.4876
405.762	99.1017	405.762	99.0092	405.762	99.0885	405.762	98.8159	405.762	98.9656	405.762	98.5272	405.762	98.7305	405.762	98.1485	405.762	98.3825	405.762	97.6842	405.762	97.923	405.762	97.139	405.762	97.3578	405.762	96.5214	405.762	96.7055	405.762	95.8522	405.762	96.0058	405.762	95.1758	405.762	95.3159	405.762	94.5796	405.762	94.6929	405.762	94.1956	405.762	94.1934	405.762	94.1349	405.762	93.8975	405.762	94.384	405.762	93.8915	405.762	94.8051	405.762	94.1763	405.762	95.2409	405.762	94.6331	405.762	95.5792	405.762	95.1103	405.762	95.7512	405.762	95.4966	405.762	95.7227
420.41	100.093	420.41	100.037	420.41	100.064	420.41	99.8834	420.41	99.962	420.41	99.6269	420.41	99.7934	420.41	99.2694	420.41	99.5502	420.41	98.8146	420.41	99.2102	420.41	98.2506	420.41	98.7391	420.41	97.5339	420.41	98.0904	420.41	96.5933	420.41	97.2065	420.41	95.3674	420.41	96.0317	420.41	93.8934	420.41	94.557	420.41	92.4904	420.41	92.9372	420.41	91.8666	420.41	91.6907	420.41	92.4119	420.41	91.5344	420.41	93.5491	420.41	92.4268	420.41	94.614	420.41	93.6376	420.41	95.3451	420.41	94.6717	420.41	95.7044	420.41	95.3692	420.41	95.7103
435.059	99.5359	435.059	99.4561	435.059	99.5064	435.059	99.2961	435.059	99.3566	435.059	99.0819	435.059	99.1028	435.059	98.8192	435.059	98.7826	435.059	98.4899	435.059	98.4315	435.059	98.0658	435.059	98.0574	435.059	97.5217	435.059	97.6332	435.059	96.8311	435.059	97.1089	435.059	95.9588	435.059	96.4376	435.059	94.8956	435.059	95.6164	435.059	93.7753	435.059	94.7557	435.059	93.0118	435.059	94.1302	435.059	93.0668	435.059	94.0414	435.059	93.8275	435.059	94.4949	435.059	94.7803	435.059	95.1923	435.059	95.5853	435.059	95.8318	435.059	96.1192	435.059	96.2399	435.059	96.3417
451.172	100.418	451.172	100.365	451.172	100.367	451.172	100.208	451.172	100.217	451.172	99.9518	451.172	99.9766	451.172	99.6095	451.172	99.6536	451.172	99.1927	451.172	99.2458	451.172	98.6969	451.172	98.7378	451.172	98.0838	451.172	98.0992	451.172	97.2792	451.172	97.2846	451.172	96.1918	451.172	96.232	451.172	94.7476	451.172	94.8752	451.172	92.9806	451.172	93.2224	451.172	91.3479	451.172	91.653	451.172	91.044	451.172	91.2555	451.172	92.4107	451.172	92.4801	451.172	94.1709	451.172	94.1708	451.172	95.5124	451.172	95.4894	451.172	96.2809	451.172	96.2615	451.172	96.518
465.82	100.421	465.82	100.371	465.82	100.37	465.82	100.217	465.82	100.228	465.82	99.971	465.82	100.008	465.82	99.6541	465.82	99.7276	465.82	99.2881	465.82	99.3998	465.82	98.8886	465.82	99.0238	465.82	98.4525	465.82	98.5726	465.82	97.9417	465.82	97.9968	465.82	97.2767	465.82	97.2373	465.82	96.3577	465.82	96.233	465.82	95.1255	465.82	94.9396	465.82	93.6968	465.82	93.431	465.82	92.596	465.82	92.1867	465.82	92.5695	465.82	92.0886	465.82	93.4997	465.82	93.1255	465.82	94.5696	465.82	94.3438	465.82	95.2831	465.82	95.1789	465.82	95.4951
483.398	100.269	483.398	100.167	483.398	100.192	483.398	99.9186	483.398	99.9456	483.398	99.5873	483.398	99.5783	483.398	99.2369	483.398	99.1661	483.398	98.8962	483.398	98.7774	483.398	98.5426	483.398	98.4321	483.398	98.1169	483.398	98.0813	483.398	97.5416	483.398	97.6339	483.398	96.7252	483.398	97.0054	483.398	95.5753	483.398	96.1546	483.398	94.081	483.398	95.1088	483.398	92.553	483.398	94.0202	483.398	91.8809	483.398	93.2575	483.398	92.61	483.398	93.2569	483.398	93.9415	483.398	93.9782	483.398	95.0726	483.398	94.9098	483.398	95.7449	483.398	95.6225	483.398	95.9224
499.512	100.419	499.512	100.323	499.512	100.323	499.512	100.041	499.512	100.058	499.512	99.6196	499.512	99.6529	499.512	99.141	499.512	99.1523	499.512	98.6813	499.512	98.6216	499.512	98.2514	499.512	98.1304	499.512	97.7943	499.512	97.6907	499.512	97.2405	499.512	97.21	499.512	96.5464	499.512	96.5272	499.512	95.6767	499.512	95.5076	499.512	94.5926	499.512	94.1575	499.512	93.3537	499.512	92.7802	499.512	92.358	499.512	92.0284	499.512	92.2826	499.512	92.3507	499.512	93.1746	499.512	93.3957	499.512	94.3368	499.512	94.5257	499.512	95.2141	499.512	95.3167	499.512	95.5642
517.09	99.9569	517.09	99.9256	517.09	99.8986	517.09	99.8008	517.09	99.7333	517.09	99.5567	517.09	99.4417	517.09	99.1741	517.09	99.0325	517.09	98.6833	517.09	98.56	517.09	98.1613	517.09	98.0926	517.09	97.6402	517.09	97.6327	517.09	97.0159	517.09	97.0843	517.09	96.1082	517.09	96.3166	517.09	94.8203	517.09	95.243	517.09	93.3044	517.09	93.8856	517.09	92.1237	517.09	92.573	517.09	92.0301	517.09	92.1627	517.09	93.0244	517.09	93.0465	517.09	94.3655	517.09	94.3513	517.09	95.4615	517.09	95.375	517.09	96.0841	517.09	95.9903	517.09	96.2346
536.133	100.55	536.133	100.42	536.133	100.464	536.133	100.068	536.133	100.184	536.133	99.5245	536.133	99.7365	536.133	98.8674	536.133	99.1561	536.133	98.2026	536.133	98.4897	536.133	97.6178	536.133	97.8155	536.133	97.159	536.133	97.2278	536.133	96.8042	536.133	96.7385	536.133	96.3863	536.133	96.1863	536.133	95.5756	536.133	95.3039	536.133	94.023	536.133	93.8795	536.133	91.7422	536.133	91.9715	536.133	90.2128	536.133	90.4148	536.133	91.3202	536.133	90.777	536.133	93.3357	536.133	92.6705	536.133	94.9093	536.133	94.5292	536.133	95.8612	536.133	95.7252	536.133	96.1553
555.176	101.176	555.176	101.097	555.176	101.043	555.176	100.806	555.176	100.719	555.176	100.325	555.176	100.257	555.176	99.6987	555.176	99.7128	555.176	99.012	555.176	99.1268	555.176	98.351	555.176	98.5158	555.176	97.7097	555.176	97.8812	555.176	96.9613	555.176	97.1996	555.176	95.9592	555.176	96.39	555.176	94.6143	555.176	95.2934	555.176	92.8161	555.176	93.679	555.176	90.3632	555.176	91.3409	555.176	87.8523	555.176	88.8581	555.176	88.752	555.176	89.1192	555.176	91.8812	555.176	91.7313	555.176	94.1384	555.176	93.9009	555.176	95.2947	555.176	95.1492	555.176	95.5939
574.219	101.037	574.219	100.926	574.219	100.956	574.219	100.638	574.219	100.672	574.219	100.192	574.219	100.188	574.219	99.6099	574.219	99.5625	574.219	98.9395	574.219	98.9168	574.219	98.289	574.219	98.3629	574.219	97.7763	574.219	97.9118	574.219	97.3755	574.219	97.492	574.219	96.8593	574.219	96.9894	574.219	95.9354	574.219	96.2045	574.219	94.3913	574.219	94.8416	574.219	92.1944	574.219	92.6592	574.219	89.7935	574.219	90.0318	574.219	88.9397	574.219	89.0312	574.219	90.7245	574.219	90.4691	574.219	92.9496	574.219	92.3156	574.219	94.2544	574.219	93.7263	574.219	94.4563
594.727	100.778	594.727	100.599	594.727	100.719	594.727	100.208	594.727	100.439	594.727	99.672	594.727	99.9675	594.727	99.0673	594.727	99.3206	594.727	98.4497	594.727	98.545	594.727	97.8734	594.727	97.7948	594.727	97.4021	594.727	97.2776	594.727	97.0355	594.727	96.9918	594.727	96.6517	594.727	96.6711	594.727	96.0629	594.727	96.0318	594.727	95.0655	594.727	94.8639	594.727	93.4552	594.727	93.0135	594.727	91.236	594.727	90.8201	594.727	89.6058	594.727	90.1258	594.727	90.5067	594.727	91.5822	594.727	92.4553	594.727	93.2339	594.727	93.8753	594.727	94.2486	594.727	94.4785
615.234	100.766	615.234	100.632	615.234	100.684	615.234	100.299	615.234	100.391	615.234	99.7771	615.234	99.9302	615.234	99.0811	615.234	99.3521	615.234	98.2737	615.234	98.6762	615.234	97.4857	615.234	97.9336	615.234	96.8651	615.234	97.2375	615.234	96.4466	615.234	96.7138	615.234	96.0594	615.234	96.2976	615.234	95.3715	615.234	95.7029	615.234	94.0177	615.234	94.615	615.234	91.7519	615.234	92.8349	615.234	88.8884	615.234	90.3766	615.234	87.5925	615.234	88.1223	615.234	89.2644	615.234	88.559	615.234	91.4251	615.234	90.8503	615.234	92.8254	615.234	92.5802	615.234	93.233
637.207	101.159	637.207	101.018	637.207	101.079	637.207	100.622	637.207	100.769	637.207	99.9659	637.207	100.17	637.207	99.1029	637.207	99.277	637.207	98.1496	637.207	98.2611	637.207	97.2766	637.207	97.3994	637.207	96.6388	637.207	96.8501	637.207	96.2674	637.207	96.5938	637.207	96.0566	637.207	96.4783	637.207	95.7712	637.207	96.1948	637.207	95.0316	637.207	95.3832	637.207	93.4306	637.207	93.7391	637.207	91.0443	637.207	91.2129	637.207	89.9953	637.207	89.6061	637.207	91.8351	637.207	91.5141	637.207	93.9533	637.207	93.9304	637.207	95.2664	637.207	95.3124	637.207	95.7196
659.18	101.575	659.18	101.38	659.18	101.481	659.18	100.944	659.18	101.094	659.18	100.297	659.18	100.489	659.18	99.4142	659.18	99.7516	659.18	98.3084	659.18	98.8605	659.18	97.1792	659.18	97.7555	659.18	96.3106	659.18	96.6479	659.18	95.7257	659.18	96.009	659.18	95.2513	659.18	95.7695	659.18	94.7095	659.18	95.2959	659.18	93.8391	659.18	94.206	659.18	92.332	659.18	92.5069	659.18	90.035	659.18	90.2941	659.18	88.0947	659.18	88.402	659.18	89.4579	659.18	89.7553	659.18	92.0672	659.18	92.4375	659.18	93.7431	659.18	93.9955	659.18	94.3689
682.617	101.259	682.617	101.211	682.617	101.116	682.617	100.903	682.617	100.837	682.617	100.321	682.617	100.375	682.617	99.5203	682.617	99.6232	682.617	98.5863	682.617	98.5827	682.617	97.5591	682.617	97.432	682.617	96.5028	682.617	96.4049	682.617	95.6809	682.617	95.7413	682.617	95.2983	682.617	95.5848	682.617	95.0541	682.617	95.5704	682.617	94.3721	682.617	94.9886	682.617	92.7601	682.617	93.2846	682.617	89.9397	682.617	90.3138	682.617	87.2471	682.617	88.0421	682.617	89.2478	682.617	89.9641	682.617	92.4732	682.617	92.596	682.617	94.2739	682.617	94.1863	682.617	94.7569
707.52	101.171	707.52	101.069	707.52	101.033	707.52	100.748	707.52	100.639	707.52	100.215	707.52	100.012	707.52	99.443	707.52	99.1935	707.52	98.3717	707.52	98.1762	707.52	97	707.52	96.929	707.52	95.5968	707.52	95.6406	707.52	94.7672	707.52	94.8613	707.52	94.5692	707.52	94.7624	707.52	94.3017	707.52	94.7065	707.52	93.6263	707.52	94.0971	707.52	92.2753	707.52	92.4632	707.52	89.5844	707.52	89.1693	707.52	86.8497	707.52	85.4755	707.52	88.9219	707.52	88.3107	707.52	92.0331	707.52	91.9192	707.52	93.9655	707.52	93.9292	707.52	94.5975
732.422	100.624	732.422	100.517	732.422	100.434	732.422	100.139	732.422	99.9887	732.422	99.4873	732.422	99.4	732.422	98.5571	732.422	98.6544	732.422	97.4382	732.422	97.5856	732.422	96.3277	732.422	96.1986	732.422	95.3873	732.422	94.9041	732.422	94.6441	732.422	94.0893	732.422	94.2896	732.422	93.7494	732.422	94.3141	732.422	93.6752	732.422	94.0046	732.422	93.3461	732.422	92.739	732.422	92.2841	732.422	90.0787	732.422	90.2391	732.422	85.6745	732.422	86.9401	732.422	84.948	732.422	85.2856	732.422	88.9255	732.422	88.8487	732.422	91.4243	732.422	91.5388	732.422	92.3112
757.324	100.469	757.324	100.364	757.324	100.311	757.324	100.009	757.324	99.9667	757.324	99.5064	757.324	99.467	757.324	98.8659	757.324	98.784	757.324	97.9235	757.324	97.8894	757.324	96.5236	757.324	96.704	757.324	94.7928	757.324	95.2017	757.324	93.3513	757.324	93.9529	757.324	92.7604	757.324	93.5715	757.324	92.567	757.324	93.3309	757.324	92.2473	757.324	92.7208	757.324	91.3511	757.324	91.6564	757.324	88.8965	757.324	89.2848	757.324	85.922	757.324	85.9608	757.324	88.3045	757.324	87.5862	757.324	91.1604	757.324	90.5865	757.324	92.6007	757.324	92.3264	757.324	92.9891
785.156	98.9567	785.156	98.8901	785.156	98.8919	785.156	98.6865	785.156	98.602	785.156	98.161	785.156	98.1192	785.156	97.3627	785.156	97.4642	785.156	96.603	785.156	96.6058	785.156	95.6499	785.156	95.6675	785.156	94.1187	785.156	94.5235	785.156	93.0135	785.156	92.7551	785.156	92.8513	785.156	91.7115	785.156	92.4348	785.156	92.5667	785.156	92.1823	785.156	92.5281	785.156	91.6715	785.156	90.7353	785.156	88.9465	785.156	88.453	785.156	80.6613	785.156	84.4927	785.156	83.459	785.156	83.0173	785.156	90.0869	785.156	90.2113	785.156	92.5993	785.156	92.9168	785.156	93.3423
811.523	100.004	811.523	100.061	811.523	99.5388	811.523	99.755	811.523	98.8588	811.523	99.3158	811.523	98.2029	811.523	98.7678	811.523	97.5694	811.523	97.9441	811.523	96.6876	811.523	96.8946	811.523	95.4402	811.523	95.4236	811.523	94.1559	811.523	93.1624	811.523	93.0877	811.523	91.9306	811.523	91.9056	811.523	92.8695	811.523	91.3022	811.523	93.4351	811.523	92.146	811.523	93.4587	811.523	92.0871	811.523	92.4881	811.523	89.5899	811.523	88.7957	811.523	86.4752	811.523	83.1648	811.523	85.5609	811.523	83.8802	811.523	86.8103	811.523	86.122	811.523	88.9789	811.523	88.5167
840.82	100.849	840.82	100.439	840.82	101	840.82	99.951	840.82	100.726	840.82	99.3112	840.82	100.21	840.82	98.4744	840.82	99.664	840.82	97.4734	840.82	98.8071	840.82	96.2246	840.82	97.257	840.82	94.9074	840.82	95.4001	840.82	93.7092	840.82	94.0698	840.82	92.6402	840.82	92.9913	840.82	92.2198	840.82	92.3196	840.82	91.9566	840.82	92.0503	840.82	90.596	840.82	90.8922	840.82	87.7818	840.82	89.0184	840.82	84.0826	840.82	85.9236	840.82	82.8462	840.82	79.7729	840.82	87.3454	840.82	84.716	840.82	90.4466	840.82	89.1726	840.82	90.9103
870.117	99.7104	870.117	99.695	870.117	99.6419	870.117	99.4283	870.117	99.5183	870.117	98.8974	870.117	99.041	870.117	98.0328	870.117	98.0993	870.117	96.7645	870.117	97.0032	870.117	95.2254	870.117	95.9102	870.117	93.502	870.117	94.6041	870.117	92.151	870.117	93.2022	870.117	91.83	870.117	92.4634	870.117	91.8727	870.117	92.4967	870.117	92.2798	870.117	92.7459	870.117	92.1078	870.117	92.6525	870.117	90.5008	870.117	91.3111	870.117	87.2225	870.117	88.3996	870.117	82.154	870.117	85.3877	870.117	87.471	870.117	87.0597	870.117	91.0071	870.117	89.9446	870.117	91.3771
900.879	100.488	900.879	100.352	900.879	100.218	900.879	99.9644	900.879	99.616	900.879	99.3796	900.879	98.9643	900.879	98.5031	900.879	98.3413	900.879	97.4091	900.879	97.6222	900.879	96.3541	900.879	96.5249	900.879	94.9762	900.879	94.754	900.879	92.4044	900.879	92.7549	900.879	90.0981	900.879	90.6618	900.879	90.6261	900.879	89.7598	900.879	91.6979	900.879	91.5451	900.879	92.4584	900.879	91.6112	900.879	90.9718	900.879	89.743	900.879	86.1486	900.879	87.5343	900.879	82.0734	900.879	84.3182	900.879	86.2361	900.879	86.3148	900.879	90.0636	900.879	89.7098	900.879	90.991
933.105	100.037	933.105	99.8258	933.105	99.9862	933.105	99.4632	933.105	99.619	933.105	98.9157	933.105	99.021	933.105	98.116	933.105	98.1449	933.105	97.1222	933.105	96.9428	933.105	95.9742	933.105	95.81	933.105	94.557	933.105	94.7118	933.105	92.9095	933.105	93.0492	933.105	91.7021	933.105	91.5624	933.105	91.1407	933.105	90.9656	933.105	90.1548	933.105	91.0638	933.105	88.9529	933.105	90.9286	933.105	88.3505	933.105	88.9479	933.105	84.9378	933.105	85.4832	933.105	75.879	933.105	79.4129	933.105	84.9921	933.105	84.3709	933.105	89.471	933.105	89.2507	933.105	90.7853
965.332	100.732	965.332	100.567	965.332	100.522	965.332	100.063	965.332	99.9887	965.332	99.3203	965.332	99.3254	965.332	98.4374	965.332	98.7124	965.332	97.4394	965.332	97.9945	965.332	96.4409	965.332	96.6851	965.332	95.4206	965.332	94.8649	965.332	93.5626	965.332	93.1238	965.332	91.4286	965.332	90.7661	965.332	91.6283	965.332	89.8148	965.332	92.4558	965.332	92.0242	965.332	93.0249	965.332	93.0506	965.332	92.3482	965.332	92.3234	965.332	90.2194	965.332	90.3685	965.332	86.0742	965.332	87.1055	965.332	83.6659	965.332	84.8822	965.332	88.4393	965.332	87.5508	965.332	89.0268
1,000.49	100.994	1,000.49	100.699	1,000.49	100.941	1,000.49	100.165	1,000.49	100.357	1,000.49	99.4675	1,000.49	99.3238	1,000.49	98.709	1,000.49	98.085	1,000.49	97.6975	1,000.49	96.7985	1,000.49	96.4251	1,000.49	95.6223	1,000.49	95.2076	1,000.49	94.2111	1,000.49	93.385	1,000.49	92.3012	1,000.49	90.0123	1,000.49	90.0737	1,000.49	87.319	1,000.49	87.2048	1,000.49	88.1298	1,000.49	86.6828	1,000.49	89.6057	1,000.49	88.6845	1,000.49	89.1085	1,000.49	88.1637	1,000.49	84.5437	1,000.49	83.4874	1,000.49	81.8234	1,000.49	83.8142	1,000.49	85.7537	1,000.49	87.5494	1,000.49	90.75	1,000.49	90.7268	1,000.49	92.3715
1,035.64	100.616	1,035.64	100.438	1,035.64	100.479	1,035.64	100.047	1,035.64	100.008	1,035.64	99.3262	1,035.64	99.2982	1,035.64	98.1754	1,035.64	98.482	1,035.64	97.0282	1,035.64	97.6512	1,035.64	96.1884	1,035.64	96.8158	1,035.64	95.3193	1,035.64	95.6002	1,035.64	93.9534	1,035.64	93.7519	1,035.64	92.7085	1,035.64	91.8555	1,035.64	92.166	1,035.64	89.7656	1,035.64	91.9414	1,035.64	90.1834	1,035.64	92.0957	1,035.64	91.0871	1,035.64	91.8542	1,035.64	90.2049	1,035.64	90.2977	1,035.64	88.4903	1,035.64	85.5168	1,035.64	82.5705	1,035.64	82.3709	1,035.64	79.1488	1,035.64	87.7106	1,035.64	86.453	1,035.64	89.3065
1,072.27	100.382	1,072.27	100.247	1,072.27	100.199	1,072.27	99.8281	1,072.27	99.6001	1,072.27	98.9756	1,072.27	98.6369	1,072.27	97.8795	1,072.27	97.5517	1,072.27	96.8604	1,072.27	96.4783	1,072.27	95.4475	1,072.27	95.0246	1,072.27	94.0064	1,072.27	93.4685	1,072.27	93.2547	1,072.27	92.0793	1,072.27	90.7326	1,072.27	89.6244	1,072.27	88.2739	1,072.27	87.1373	1,072.27	89.2208	1,072.27	86.5899	1,072.27	90.4572	1,072.27	88.907	1,072.27	90.4302	1,072.27	89.59	1,072.27	88.3655	1,072.27	87.1893	1,072.27	86.3085	1,072.27	84.3671	1,072.27	85.2897	1,072.27	84.7955	1,072.27	89.3665	1,072.27	89.1265	1,072.27	90.7193
1,108.89	100.583	1,108.89	100.112	1,108.89	100.596	1,108.89	99.2402	1,108.89	100.255	1,108.89	98.3033	1,108.89	99.483	1,108.89	97.5515	1,108.89	98.3141	1,108.89	96.9386	1,108.89	97.1567	1,108.89	95.6865	1,108.89	95.9852	1,108.89	94.0325	1,108.89	94.7396	1,108.89	92.8511	1,108.89	93.5451	1,108.89	90.6772	1,108.89	91.3635	1,108.89	89.2511	1,108.89	88.3869	1,108.89	88.9352	1,108.89	86.5219	1,108.89	89.0416	1,108.89	87.3795	1,108.89	88.9308	1,108.89	87.4098	1,108.89	86.8478	1,108.89	86.162	1,108.89	80.597	1,108.89	81.0854	1,108.89	83.9034	1,108.89	79.9676	1,108.89	88.9496	1,108.89	86.6355	1,108.89	89.1
1,148.44	101.127	1,148.44	100.824	1,148.44	100.851	1,148.44	99.8558	1,148.44	100.486	1,148.44	98.6159	1,148.44	100.112	1,148.44	97.4279	1,148.44	98.9341	1,148.44	96.111	1,148.44	97.3487	1,148.44	94.7253	1,148.44	96.256	1,148.44	93.1849	1,148.44	94.6924	1,148.44	91.898	1,148.44	93.3497	1,148.44	89.335	1,148.44	92.0789	1,148.44	85.6317	1,148.44	90.2663	1,148.44	84.4184	1,148.44	86.6211	1,148.44	87.2402	1,148.44	87.3173	1,148.44	88.5023	1,148.44	89.0888	1,148.44	86.2885	1,148.44	86.3611	1,148.44	83.9138	1,148.44	82.4608	1,148.44	86.9794	1,148.44	83.9736	1,148.44	90.0224	1,148.44	89.0401	1,148.44	90.3227
1,189.45	100.951	1,189.45	100.65	1,189.45	100.84	1,189.45	100.15	1,189.45	100.139	1,189.45	99.1793	1,189.45	99.4084	1,189.45	97.8264	1,189.45	98.5021	1,189.45	96.8763	1,189.45	97.171	1,189.45	95.6848	1,189.45	96.3958	1,189.45	93.3113	1,189.45	95.0179	1,189.45	92.0634	1,189.45	93.5189	1,189.45	90.6643	1,189.45	91.7031	1,189.45	87.4671	1,189.45	89.966	1,189.45	86.1157	1,189.45	89.1579	1,189.45	87.1245	1,189.45	88.2582	1,189.45	89.6146	1,189.45	89.4319	1,189.45	87.3795	1,189.45	87.9585	1,189.45	82.9101	1,189.45	86.3411	1,189.45	81.8938	1,189.45	84.9578	1,189.45	89.4662	1,189.45	88.2031	1,189.45	89.9616
1,230.47	101.195	1,230.47	101.245	1,230.47	101.182	1,230.47	100.897	1,230.47	100.614	1,230.47	99.821	1,230.47	99.6765	1,230.47	98.3157	1,230.47	98.9408	1,230.47	96.4521	1,230.47	97.2895	1,230.47	95.7478	1,230.47	95.4946	1,230.47	95.163	1,230.47	94.3287	1,230.47	93.9217	1,230.47	92.9263	1,230.47	92.9535	1,230.47	91.8174	1,230.47	89.8378	1,230.47	90.389	1,230.47	88.0307	1,230.47	90.2757	1,230.47	85.932	1,230.47	88.5875	1,230.47	87.1576	1,230.47	89.8231	1,230.47	87.609	1,230.47	88.0211	1,230.47	84.3731	1,230.47	84.096	1,230.47	86.249	1,230.47	81.9936	1,230.47	91.0149	1,230.47	87.2245	1,230.47	88.9651
1,274.41	100.726	1,274.41	100.634	1,274.41	100.413	1,274.41	99.9749	1,274.41	100.079	1,274.41	99.3996	1,274.41	99.4664	1,274.41	98.3068	1,274.41	98.7078	1,274.41	96.3143	1,274.41	97.2928	1,274.41	95.2036	1,274.41	95.364	1,274.41	94.0937	1,274.41	93.9016	1,274.41	92.5496	1,274.41	92.2603	1,274.41	92.6386	1,274.41	90.048	1,274.41	91.3184	1,274.41	87.899	1,274.41	87.0036	1,274.41	88.1548	1,274.41	85.9212	1,274.41	86.6666	1,274.41	88.0463	1,274.41	88.8071	1,274.41	87.954	1,274.41	87.5968	1,274.41	82.9895	1,274.41	83.4667	1,274.41	83.2881	1,274.41	79.7784	1,274.41	89.0938	1,274.41	87.2584	1,274.41	89.1681
1,319.82	100.787	1,319.82	100.402	1,319.82	100.794	1,319.82	100.116	1,319.82	100.468	1,319.82	99.5988	1,319.82	99.5263	1,319.82	98.4532	1,319.82	98.179	1,319.82	97.1127	1,319.82	96.7598	1,319.82	95.268	1,319.82	95.3353	1,319.82	94.1481	1,319.82	93.6723	1,319.82	93.7452	1,319.82	92.4997	1,319.82	92.6168	1,319.82	91.1068	1,319.82	90.1177	1,319.82	89.0225	1,319.82	88.5135	1,319.82	87.4409	1,319.82	86.4155	1,319.82	85.941	1,319.82	86.9609	1,319.82	85.8294	1,319.82	88.4059	1,319.82	86.1312	1,319.82	84.6487	1,319.82	82.1201	1,319.82	82.2739	1,319.82	85.0676	1,319.82	89.6085	1,319.82	89.4305	1,319.82	90.1895
1,366.7	100.502	1,366.7	100.252	1,366.7	100.374	1,366.7	99.795	1,366.7	99.819	1,366.7	98.8114	1,366.7	99.1037	1,366.7	97.799	1,366.7	97.7299	1,366.7	95.8568	1,366.7	96.4875	1,366.7	94.0637	1,366.7	95.0687	1,366.7	93.0242	1,366.7	93.9514	1,366.7	90.0315	1,366.7	93.5826	1,366.7	90.4929	1,366.7	92.5535	1,366.7	90.568	1,366.7	90.064	1,366.7	88.8726	1,366.7	87.8988	1,366.7	87.8066	1,366.7	87.3856	1,366.7	86.3448	1,366.7	87.8049	1,366.7	87.3414	1,366.7	83.1723	1,366.7	80.5351	1,366.7	79.2064	1,366.7	85.1236	1,366.7	83.5667	1,366.7	90.9926	1,366.7	88.5127	1,366.7	90.5768
1,413.57	100.701	1,413.57	100.337	1,413.57	100.6	1,413.57	99.2355	1,413.57	100.172	1,413.57	99.0137	1,413.57	99.1552	1,413.57	97.9957	1,413.57	97.7897	1,413.57	96.5387	1,413.57	96.5505	1,413.57	95.4145	1,413.57	95.1248	1,413.57	92.7727	1,413.57	93.6495	1,413.57	91.753	1,413.57	92.4321	1,413.57	90.0922	1,413.57	91.9331	1,413.57	88.5736	1,413.57	90.6812	1,413.57	88.5603	1,413.57	87.3358	1,413.57	87.607	1,413.57	82.9627	1,413.57	88.4456	1,413.57	84.5706	1,413.57	86.8092	1,413.57	88.1301	1,413.57	78.5183	1,413.57	84.4871	1,413.57	77.7997	1,413.57	75.1222	1,413.57	87.3138	1,413.57	87.2921	1,413.57	88.628
1,463.38	100.516	1,463.38	100.234	1,463.38	100.498	1,463.38	99.7099	1,463.38	100.259	1,463.38	99.0504	1,463.38	99.5933	1,463.38	98.4009	1,463.38	98.5043	1,463.38	97.2065	1,463.38	97.2025	1,463.38	95.4632	1,463.38	96.4281	1,463.38	93.6913	1,463.38	95.1956	1,463.38	91.3151	1,463.38	94.1028	1,463.38	91.4883	1,463.38	92.5079	1,463.38	91.839	1,463.38	89.9063	1,463.38	89.4286	1,463.38	89.7274	1,463.38	85.4724	1,463.38	89.5913	1,463.38	81.3398	1,463.38	90.061	1,463.38	85.3917	1,463.38	89.1064	1,463.38	77.8955	1,463.38	83.8482	1,463.38	78.1987	1,463.38	80.3111	1,463.38	88.3854	1,463.38	88.1729	1,463.38	90.511
1,516.11	100.499	1,516.11	100.192	1,516.11	100.474	1,516.11	99.7015	1,516.11	100.086	1,516.11	98.9935	1,516.11	99.5335	1,516.11	98.4133	1,516.11	98.5664	1,516.11	97.8367	1,516.11	97.9198	1,516.11	95.7992	1,516.11	97.3308	1,516.11	93.7353	1,516.11	95.3227	1,516.11	92.7139	1,516.11	94.0939	1,516.11	91.554	1,516.11	91.096	1,516.11	89.7081	1,516.11	89.0293	1,516.11	86.3517	1,516.11	90.3438	1,516.11	84.7631	1,516.11	87.8064	1,516.11	86.2325	1,516.11	87.5535	1,516.11	88.7418	1,516.11	90.8329	1,516.11	86.0075	1,516.11	87.4569	1,516.11	78.0526	1,516.11	72.9906	1,516.11	82.7756	1,516.11	87.6509	1,516.11	87.7978
1,568.85	99.6156	1,568.85	99.901	1,568.85	100.145	1,568.85	99.5155	1,568.85	99.5185	1,568.85	98.9976	1,568.85	98.4978	1,568.85	98.9347	1,568.85	98.3516	1,568.85	97.9048	1,568.85	96.9221	1,568.85	96.3965	1,568.85	95.6929	1,568.85	94.249	1,568.85	94.0268	1,568.85	93.6234	1,568.85	91.9436	1,568.85	92.5936	1,568.85	91.0756	1,568.85	90.0504	1,568.85	89.1605	1,568.85	89.4656	1,568.85	87.1852	1,568.85	88.9886	1,568.85	86.4444	1,568.85	88.3577	1,568.85	86.8683	1,568.85	89.9729	1,568.85	90.103	1,568.85	88.2903	1,568.85	88.0068	1,568.85	81.7864	1,568.85	78.9965	1,568.85	75.3762	1,568.85	84.2882	1,568.85	87.428
1,624.51	100.154	1,624.51	99.7082	1,624.51	99.9257	1,624.51	99.2462	1,624.51	99.6585	1,624.51	98.4488	1,624.51	98.7619	1,624.51	98.2523	1,624.51	97.7046	1,624.51	97.2106	1,624.51	97.4819	1,624.51	96.0834	1,624.51	95.6583	1,624.51	94.6728	1,624.51	93.5174	1,624.51	92.0542	1,624.51	92.1147	1,624.51	90.9319	1,624.51	91.5015	1,624.51	90.0501	1,624.51	87.948	1,624.51	87.9042	1,624.51	84.4023	1,624.51	85.8308	1,624.51	84.3581	1,624.51	86.2485	1,624.51	80.4811	1,624.51	87.6362	1,624.51	86.3868	1,624.51	85.639	1,624.51	86.6329	1,624.51	78.4497	1,624.51	72.1756	1,624.51	83.0801	1,624.51	84.881	1,624.51	88.9315
1,681.64	100.022	1,681.64	99.6317	1,681.64	99.3367	1,681.64	99.433	1,681.64	98.7645	1,681.64	99.0973	1,681.64	98.6844	1,681.64	98.1219	1,681.64	97.9774	1,681.64	96.7621	1,681.64	97.7581	1,681.64	96.3781	1,681.64	95.8073	1,681.64	94.4228	1,681.64	94.5123	1,681.64	93.0314	1,681.64	93.0377	1,681.64	90.9064	1,681.64	91.555	1,681.64	87.021	1,681.64	89.4459	1,681.64	85.3608	1,681.64	87.5936	1,681.64	85.1551	1,681.64	86.3393	1,681.64	85.9238	1,681.64	86.0411	1,681.64	88.2028	1,681.64	85.0418	1,681.64	86.886	1,681.64	87.3638	1,681.64	74.4407	1,681.64	79.3112	1,681.64	70.9297	1,681.64	76.3686	1,681.64	78.1184
1,741.7	101.118	1,741.7	100.914	1,741.7	100.746	1,741.7	100.257	1,741.7	100.685	1,741.7	99.949	1,741.7	99.9586	1,741.7	98.8569	1,741.7	99.3717	1,741.7	97.858	1,741.7	98.4673	1,741.7	96.4422	1,741.7	97.2622	1,741.7	95.255	1,741.7	95.1145	1,741.7	92.9632	1,741.7	93.5582	1,741.7	92.2523	1,741.7	91.9914	1,741.7	90.4871	1,741.7	91.5474	1,741.7	86.9944	1,741.7	88.6363	1,741.7	82.4582	1,741.7	87.4392	1,741.7	83.8267	1,741.7	87.8667	1,741.7	87.4432	1,741.7	89.6252	1,741.7	89	1,741.7	88.779	1,741.7	82.337	1,741.7	86.709	1,741.7	84.5865	1,741.7	76.4183	1,741.7	82.0122
1,803.22	101.343	1,803.22	101.159	1,803.22	101.169	1,803.22	100.876	1,803.22	101.149	1,803.22	100.244	1,803.22	100.755	1,803.22	99.4476	1,803.22	100.044	1,803.22	98.3946	1,803.22	98.8022	1,803.22	97.1616	1,803.22	97.687	1,803.22	95.7452	1,803.22	95.9019	1,803.22	93.3974	1,803.22	93.7751	1,803.22	92.2548	1,803.22	92.5166	1,803.22	90.936	1,803.22	91.5408	1,803.22	88.1254	1,803.22	90.2118	1,803.22	87.7065	1,803.22	89.5349	1,803.22	85.7335	1,803.22	87.7241	1,803.22	85.9574	1,803.22	88.0886	1,803.22	87.9823	1,803.22	88.6394	1,803.22	82.2107	1,803.22	83.1265	1,803.22	79.0783	1,803.22	78.4748	1,803.22	84.6489
1,866.21	100.358	1,866.21	100.54	1,866.21	100.47	1,866.21	100.373	1,866.21	100.543	1,866.21	100.252	1,866.21	100.322	1,866.21	99.4558	1,866.21	99.69	1,866.21	98.4293	1,866.21	98.6842	1,866.21	97.3457	1,866.21	97.443	1,866.21	95.9198	1,866.21	95.9736	1,866.21	94.3278	1,866.21	93.4038	1,866.21	92.5536	1,866.21	91.6188	1,866.21	91.7524	1,866.21	89.7363	1,866.21	88.7563	1,866.21	87.5108	1,866.21	88.1332	1,866.21	88.6936	1,866.21	88.2607	1,866.21	86.8484	1,866.21	87.1232	1,866.21	86.9917	1,866.21	87.7144	1,866.21	88.433	1,866.21	81.5096	1,866.21	83.2059	1,866.21	76.8515	1,866.21	80.6935	1,866.21	84.1531
1,932.13	99.478	1,932.13	99.3626	1,932.13	99.443	1,932.13	99.5859	1,932.13	99.5645	1,932.13	99.5023	1,932.13	99.4355	1,932.13	99.1628	1,932.13	98.9706	1,932.13	98.0137	1,932.13	97.8081	1,932.13	96.3796	1,932.13	96.368	1,932.13	95.2624	1,932.13	95.228	1,932.13	93.0953	1,932.13	92.8865	1,932.13	91.4564	1,932.13	90.8384	1,932.13	90.6847	1,932.13	89.7833	1,932.13	88.7673	1,932.13	87.6619	1,932.13	88.6623	1,932.13	85.7146	1,932.13	86.9605	1,932.13	86.2553	1,932.13	84.8381	1,932.13	85.7702	1,932.13	87.7703	1,932.13	88.0704	1,932.13	83.9127	1,932.13	83.9997	1,932.13	77.091	1,932.13	74.3704	1,932.13	82.5199
1,999.51	99.7314	1,999.51	99.8707	1,999.51	99.7401	1,999.51	99.7822	1,999.51	99.8114	1,999.51	99.3688	1,999.51	99.6628	1,999.51	98.655	1,999.51	99.2036	1,999.51	97.5601	1,999.51	98.5267	1,999.51	96.0208	1,999.51	96.9224	1,999.51	94.3341	1,999.51	95.9112	1,999.51	92.542	1,999.51	93.6914	1,999.51	90.3194	1,999.51	91.2079	1,999.51	89.3988	1,999.51	89.9523	1,999.51	87.2546	1,999.51	88.8179	1,999.51	86.9295	1,999.51	85.4745	1,999.51	87.5619	1,999.51	87.874	1,999.51	84.5652	1,999.51	85.7049	1,999.51	86.2917	1,999.51	86.5291	1,999.51	82.5025	1,999.51	83.4486	1,999.51	80.9775	1,999.51	70.7039	1,999.51	82.8105
2,069.82	101.064	2,069.82	101.061	2,069.82	101.054	2,069.82	100.721	2,069.82	100.885	2,069.82	100.468	2,069.82	100.655	2,069.82	99.8169	2,069.82	100.066	2,069.82	98.5698	2,069.82	98.9456	2,069.82	96.7412	2,069.82	97.319	2,069.82	95.187	2,069.82	95.5712	2,069.82	92.9285	2,069.82	94.0846	2,069.82	90.2233	2,069.82	91.4176	2,069.82	88.8588	2,069.82	90.6097	2,069.82	87.0334	2,069.82	88.3248	2,069.82	84.3505	2,069.82	87.152	2,069.82	87.2136	2,069.82	87.8489	2,069.82	83.8302	2,069.82	84.7884	2,069.82	85.6503	2,069.82	88.3434	2,069.82	84.1392	2,069.82	83.4832	2,069.82	75.9003	2,069.82	68.1382	2,069.82	81.3414
2,143.07	100.882	2,143.07	101.028	2,143.07	100.925	2,143.07	101.074	2,143.07	100.82	2,143.07	100.78	2,143.07	100.451	2,143.07	100.23	2,143.07	99.7511	2,143.07	98.9502	2,143.07	98.6374	2,143.07	97.3284	2,143.07	96.9262	2,143.07	95.7011	2,143.07	94.8289	2,143.07	94.2439	2,143.07	93.3095	2,143.07	91.6641	2,143.07	91.318	2,143.07	89.834	2,143.07	89.31	2,143.07	89.2664	2,143.07	88.5796	2,143.07	86.5085	2,143.07	85.9156	2,143.07	86.3642	2,143.07	86.4228	2,143.07	85.635	2,143.07	83.7	2,143.07	86.0788	2,143.07	87.0902	2,143.07	85.9837	2,143.07	85.1385	2,143.07	75.3019	2,143.07	62.564	2,143.07	76.2863
2,219.24	99.62	2,219.24	99.9107	2,219.24	99.7039	2,219.24	100.187	2,219.24	99.9514	2,219.24	99.9142	2,219.24	99.7475	2,219.24	99.3117	2,219.24	99.1792	2,219.24	98.5745	2,219.24	98.1637	2,219.24	96.888	2,219.24	96.7831	2,219.24	94.9947	2,219.24	94.5728	2,219.24	93.2193	2,219.24	93.1442	2,219.24	91.6657	2,219.24	90.3457	2,219.24	89.4291	2,219.24	88.525	2,219.24	88.6703	2,219.24	88.359	2,219.24	87.4018	2,219.24	86.6449	2,219.24	87.055	2,219.24	86.2983	2,219.24	85.346	2,219.24	84.398	2,219.24	86.4206	2,219.24	83.3049	2,219.24	83.7857	2,219.24	84.4049	2,219.24	67.7835	2,219.24	74.8016	2,219.24	75.8045
2,296.88	99.7381	2,296.88	99.7734	2,296.88	99.9324	2,296.88	99.8708	2,296.88	100.155	2,296.88	99.8778	2,296.88	100.094	2,296.88	98.9701	2,296.88	99.5224	2,296.88	97.6947	2,296.88	98.5874	2,296.88	96.2257	2,296.88	97.1928	2,296.88	93.5802	2,296.88	95.476	2,296.88	92.2401	2,296.88	93.2874	2,296.88	90.5256	2,296.88	91.6405	2,296.88	88.1249	2,296.88	89.3435	2,296.88	86.9463	2,296.88	87.3217	2,296.88	86.1829	2,296.88	86.9518	2,296.88	86.8793	2,296.88	86.6388	2,296.88	84.4759	2,296.88	84.6849	2,296.88	84.0321	2,296.88	85.9986	2,296.88	83.3353	2,296.88	85.4756	2,296.88	75.5889	2,296.88	67.5743	2,296.88	63.5418
2,378.91	99.7665	2,378.91	100.209	2,378.91	99.9817	2,378.91	100.355	2,378.91	100.084	2,378.91	100.137	2,378.91	100.076	2,378.91	99.4455	2,378.91	99.37	2,378.91	98.7761	2,378.91	98.4327	2,378.91	97.5433	2,378.91	96.9186	2,378.91	95.0791	2,378.91	94.9512	2,378.91	93.8347	2,378.91	93.0424	2,378.91	90.4874	2,378.91	91.2698	2,378.91	88.5183	2,378.91	88.6338	2,378.91	87.6058	2,378.91	88.6091	2,378.91	85.7878	2,378.91	87.3692	2,378.91	86.7247	2,378.91	87.05	2,378.91	85.2001	2,378.91	85.7337	2,378.91	84.6439	2,378.91	84.4682	2,378.91	85.6832	2,378.91	85.7661	2,378.91	79.3062	2,378.91	75.4584	2,378.91	68.9314
2,462.4	99.4828	2,462.4	99.818	2,462.4	99.4094	2,462.4	99.9946	2,462.4	99.6672	2,462.4	100.234	2,462.4	99.6306	2,462.4	99.5735	2,462.4	99.2142	2,462.4	98.4265	2,462.4	98.0093	2,462.4	97.5046	2,462.4	96.4838	2,462.4	95.4436	2,462.4	94.5075	2,462.4	93.4034	2,462.4	92.071	2,462.4	91.3909	2,462.4	90.5419	2,462.4	89.8512	2,462.4	88.2356	2,462.4	88.4552	2,462.4	87.0097	2,462.4	88.291	2,462.4	85.2838	2,462.4	88.1794	2,462.4	87.1961	2,462.4	85.6593	2,462.4	84.5476	2,462.4	86.2605	2,462.4	82.2798	2,462.4	86.076	2,462.4	84.3228	2,462.4	77.0115	2,462.4	76.0618	2,462.4	70.6088
2,548.83	99.7108	2,548.83	99.5501	2,548.83	99.5573	2,548.83	99.9876	2,548.83	100.106	2,548.83	100.189	2,548.83	100.435	2,548.83	99.5002	2,548.83	99.8869	2,548.83	97.4625	2,548.83	98.7868	2,548.83	95.9385	2,548.83	97.0018	2,548.83	93.9954	2,548.83	95.0463	2,548.83	90.4588	2,548.83	92.766	2,548.83	90.4933	2,548.83	90.9883	2,548.83	87.8948	2,548.83	89.5949	2,548.83	86.7348	2,548.83	88.0727	2,548.83	86.6914	2,548.83	86.3043	2,548.83	86.7332	2,548.83	87.2002	2,548.83	86.3455	2,548.83	86.8703	2,548.83	83.9266	2,548.83	83.8577	2,548.83	84.6092	2,548.83	84.8826	2,548.83	76.7388	2,548.83	76.4263	2,548.83	57.5156
2,639.65	99.8663	2,639.65	99.4865	2,639.65	99.8282	2,639.65	100.327	2,639.65	99.9404	2,639.65	100.25	2,639.65	100.224	2,639.65	100.027	2,639.65	99.5339	2,639.65	98.6902	2,639.65	98.3601	2,639.65	95.7819	2,639.65	96.4109	2,639.65	94.2221	2,639.65	94.3764	2,639.65	91.5312	2,639.65	91.7503	2,639.65	88.9418	2,639.65	89.9463	2,639.65	86.8496	2,639.65	89.5132	2,639.65	86.6484	2,639.65	86.3408	2,639.65	85.6772	2,639.65	86.4771	2,639.65	86.7179	2,639.65	85.5438	2,639.65	86.8022	2,639.65	87.4374	2,639.65	83.8333	2,639.65	83.0453	2,639.65	84.073	2,639.65	83.564	2,639.65	65.8803	2,639.65	78.0455	2,639.65	69.7272
2,731.93	98.8409	2,731.93	99.3876	2,731.93	99.0841	2,731.93	99.8166	2,731.93	99.3922	2,731.93	99.5697	2,731.93	99.3246	2,731.93	99.312	2,731.93	98.8451	2,731.93	98.6609	2,731.93	97.2495	2,731.93	96.0865	2,731.93	95.4482	2,731.93	94.1504	2,731.93	93.5134	2,731.93	93.1398	2,731.93	91.7382	2,731.93	88.9388	2,731.93	89.3878	2,731.93	88.4665	2,731.93	86.5465	2,731.93	87.5664	2,731.93	85.9664	2,731.93	85.4819	2,731.93	85.7279	2,731.93	86.1172	2,731.93	83.954	2,731.93	86.9655	2,731.93	87.1611	2,731.93	83.3522	2,731.93	83.0771	2,731.93	84.3652	2,731.93	84.4393	2,731.93	78.7971	2,731.93	80.8544	2,731.93	71.1094
2,828.61	99.2767	2,828.61	99.9303	2,828.61	99.4061	2,828.61	99.9526	2,828.61	99.8729	2,828.61	100.004	2,828.61	99.697	2,828.61	98.4936	2,828.61	99.534	2,828.61	97.277	2,828.61	97.9239	2,828.61	96.1136	2,828.61	96.086	2,828.61	93.689	2,828.61	94.1778	2,828.61	91.0125	2,828.61	91.299	2,828.61	88.8412	2,828.61	89.2028	2,828.61	87.519	2,828.61	87.5151	2,828.61	87.4476	2,828.61	88.1731	2,828.61	85.9889	2,828.61	87.0149	2,828.61	85.9986	2,828.61	87.2012	2,828.61	87.4419	2,828.61	87.3262	2,828.61	82.7414	2,828.61	85.4704	2,828.61	83.3836	2,828.61	83.9392	2,828.61	81.1309	2,828.61	77.7387	2,828.61	64.0456
2,928.22	99.3549	2,928.22	99.67	2,928.22	99.2843	2,928.22	99.6907	2,928.22	99.4444	2,928.22	99.5635	2,928.22	99.1447	2,928.22	98.835	2,928.22	98.8476	2,928.22	97.3699	2,928.22	97.6368	2,928.22	95.5081	2,928.22	95.4118	2,928.22	93.7148	2,928.22	93.7474	2,928.22	90.2175	2,928.22	91.6305	2,928.22	89.5308	2,928.22	89.4955	2,928.22	86.5462	2,928.22	86.997	2,928.22	87.2539	2,928.22	87.8807	2,928.22	86.5281	2,928.22	87.0556	2,928.22	86.2575	2,928.22	86.4667	2,928.22	86.6778	2,928.22	87.6152	2,928.22	84.0714	2,928.22	85.5085	2,928.22	85.5266	2,928.22	85.6512	2,928.22	80.7584	2,928.22	76.9003	2,928.22	72.2959
3,030.76	99.0324	3,030.76	99.0843	3,030.76	99.1643	3,030.76	99.5823	3,030.76	99.0183	3,030.76	98.9032	3,030.76	98.9294	3,030.76	97.798	3,030.76	97.7512	3,030.76	96.3987	3,030.76	97.2214	3,030.76	94.763	3,030.76	95.7143	3,030.76	92.3671	3,030.76	93.4238	3,030.76	90.0334	3,030.76	90.9475	3,030.76	89.3216	3,030.76	88.5655	3,030.76	86.2081	3,030.76	87.5591	3,030.76	85.0805	3,030.76	85.8078	3,030.76	85.5453	3,030.76	85.8589	3,030.76	85.9099	3,030.76	85.7105	3,030.76	86.7876	3,030.76	87.4183	3,030.76	86.9036	3,030.76	86.3097	3,030.76	85.4431	3,030.76	85.3532	3,030.76	80.6081	3,030.76	79.5683	3,030.76	71.6461
3,137.7	99.6108	3,137.7	99.9435	3,137.7	100.026	3,137.7	100.094	3,137.7	100.047	3,137.7	99.6953	3,137.7	100.081	3,137.7	98.8794	3,137.7	99.2481	3,137.7	97.7622	3,137.7	97.6917	3,137.7	95.6253	3,137.7	96.5091	3,137.7	93.2565	3,137.7	94.4556	3,137.7	91.8935	3,137.7	92.6716	3,137.7	89.5611	3,137.7	90.5534	3,137.7	88.31	3,137.7	88.0502	3,137.7	85.8617	3,137.7	86.263	3,137.7	86.2408	3,137.7	86.9927	3,137.7	85.0423	3,137.7	86.4693	3,137.7	87.7886	3,137.7	87.7123	3,137.7	86.2499	3,137.7	87.5076	3,137.7	86.9071	3,137.7	85.495	3,137.7	78.8511	3,137.7	80.5288	3,137.7	76.0881
3,249.02	100.133	3,249.02	99.9171	3,249.02	100.354	3,249.02	99.8617	3,249.02	100.007	3,249.02	99.64	3,249.02	100.325	3,249.02	99.2705	3,249.02	99.794	3,249.02	98.177	3,249.02	98.4434	3,249.02	96.5536	3,249.02	97.025	3,249.02	94.7178	3,249.02	94.9522	3,249.02	93.4805	3,249.02	93.4389	3,249.02	91.0608	3,249.02	91.4296	3,249.02	89.3747	3,249.02	89.8459	3,249.02	86.8285	3,249.02	87.5722	3,249.02	87.1595	3,249.02	87.6914	3,249.02	87.254	3,249.02	85.9625	3,249.02	88.0853	3,249.02	88.0889	3,249.02	87.8789	3,249.02	88.5108	3,249.02	86.3146	3,249.02	85.9791	3,249.02	81.8219	3,249.02	79.3751	3,249.02	72.5916
3,363.28	100.805	3,363.28	100.626	3,363.28	100.247	3,363.28	99.9387	3,363.28	100.674	3,363.28	99.7283	3,363.28	100.174	3,363.28	99.6505	3,363.28	99.9951	3,363.28	98.5783	3,363.28	98.8248	3,363.28	97.2986	3,363.28	97.8692	3,363.28	95.8271	3,363.28	95.491	3,363.28	93.3838	3,363.28	93.529	3,363.28	90.212	3,363.28	92.0944	3,363.28	88.015	3,363.28	89.7329	3,363.28	88.0524	3,363.28	88.344	3,363.28	88.343	3,363.28	87.0734	3,363.28	86.661	3,363.28	87.9107	3,363.28	88.0675	3,363.28	87.7528	3,363.28	86.2988	3,363.28	88.1313	3,363.28	84.9349	3,363.28	84.0247	3,363.28	80.2565	3,363.28	79.0729	3,363.28	73.1419
3,481.93	100.944	3,481.93	100.453	3,481.93	100.732	3,481.93	100.548	3,481.93	100.665	3,481.93	100.644	3,481.93	100.472	3,481.93	99.9875	3,481.93	100.261	3,481.93	98.611	3,481.93	100.074	3,481.93	98.0205	3,481.93	99.0126	3,481.93	96.3555	3,481.93	96.9647	3,481.93	93.8165	3,481.93	95.1421	3,481.93	91.2844	3,481.93	91.761	3,481.93	89.4512	3,481.93	90.8695	3,481.93	88.622	3,481.93	88.7322	3,481.93	86.6891	3,481.93	88.8764	3,481.93	87.3461	3,481.93	88.0122	3,481.93	87.2492	3,481.93	88.2499	3,481.93	87.669	3,481.93	89.5082	3,481.93	85.4916	3,481.93	86.6835	3,481.93	75.4133	3,481.93	80.9125	3,481.93	75.3671
3,604.98	100.614	3,604.98	100.147	3,604.98	100.349	3,604.98	99.9807	3,604.98	99.9702	3,604.98	99.9223	3,604.98	100.213	3,604.98	99.9081	3,604.98	100.006	3,604.98	99.3028	3,604.98	100.241	3,604.98	98.6109	3,604.98	98.9387	3,604.98	96.7766	3,604.98	97.3678	3,604.98	94.9166	3,604.98	95.3961	3,604.98	91.9453	3,604.98	92.362	3,604.98	90.2145	3,604.98	90.4123	3,604.98	88.8111	3,604.98	89.5405	3,604.98	88.2271	3,604.98	88.1191	3,604.98	87.2607	3,604.98	87.1896	3,604.98	86.3019	3,604.98	85.3712	3,604.98	88.6778	3,604.98	88.5141	3,604.98	85.0823	3,604.98	85.542	3,604.98	74.8084	3,604.98	79.916	3,604.98	80.5994
3,732.42	100.761	3,732.42	100.252	3,732.42	101.106	3,732.42	99.6963	3,732.42	99.9043	3,732.42	99.6915	3,732.42	100.159	3,732.42	99.5001	3,732.42	100.57	3,732.42	99.6978	3,732.42	100.308	3,732.42	98.3732	3,732.42	99.2864	3,732.42	97.0646	3,732.42	98.1864	3,732.42	94.0156	3,732.42	95.7058	3,732.42	91.7137	3,732.42	93.446	3,732.42	90.1013	3,732.42	90.7377	3,732.42	87.9394	3,732.42	89.1469	3,732.42	87.1346	3,732.42	88.3073	3,732.42	86.3404	3,732.42	88.543	3,732.42	85.1831	3,732.42	87.5918	3,732.42	87.8575	3,732.42	87.5429	3,732.42	82.3662	3,732.42	85.3355	3,732.42	78.4448	3,732.42	78.2042	3,732.42	80.2972
3,864.26	100.865	3,864.26	100.677	3,864.26	100.91	3,864.26	99.4869	3,864.26	100.272	3,864.26	99.6223	3,864.26	100.166	3,864.26	99.9294	3,864.26	100.661	3,864.26	100.447	3,864.26	100.225	3,864.26	98.5298	3,864.26	99.6032	3,864.26	96.8419	3,864.26	98.1663	3,864.26	94.5173	3,864.26	95.568	3,864.26	92.8623	3,864.26	92.9343	3,864.26	90.6032	3,864.26	90.6182	3,864.26	88.096	3,864.26	89.1498	3,864.26	88.1936	3,864.26	88.8259	3,864.26	87.5037	3,864.26	88.4229	3,864.26	86.3497	3,864.26	87.4348	3,864.26	87.4537	3,864.26	87.5844	3,864.26	82.821	3,864.26	84.8662	3,864.26	75.4736	3,864.26	77.6834	3,864.26	81.3466
4,000.49	101.181	4,000.49	100.916	4,000.49	99.8722	4,000.49	99.8926	4,000.49	100.151	4,000.49	99.6061	4,000.49	100.002	4,000.49	101.018	4,000.49	100.66	4,000.49	100.332	4,000.49	100.056	4,000.49	99.4069	4,000.49	99.7204	4,000.49	96.9322	4,000.49	98.1545	4,000.49	94.0802	4,000.49	95.509	4,000.49	92.1308	4,000.49	93.7497	4,000.49	89.9144	4,000.49	90.9309	4,000.49	88.0172	4,000.49	88.492	4,000.49	87.8373	4,000.49	88.1619	4,000.49	87.6724	4,000.49	85.1513	4,000.49	85.3276	4,000.49	85.6685	4,000.49	85.9893	4,000.49	87.3678	4,000.49	82.4408	4,000.49	80.9894	4,000.49	77.7509	4,000.49	74.5821	4,000.49	81.5882
4,141.11	101.023	4,141.11	99.9045	4,141.11	101.545	4,141.11	99.5522	4,141.11	99.5805	4,141.11	100.211	4,141.11	99.8183	4,141.11	100.659	4,141.11	99.9866	4,141.11	100.109	4,141.11	100.545	4,141.11	99.1286	4,141.11	99.4448	4,141.11	97.0396	4,141.11	97.8239	4,141.11	94.7543	4,141.11	94.8284	4,141.11	92.7527	4,141.11	92.9764	4,141.11	90.3304	4,141.11	89.6673	4,141.11	88.1092	4,141.11	89.008	4,141.11	87.8001	4,141.11	89.1153	4,141.11	86.1922	4,141.11	86.3386	4,141.11	85.5875	4,141.11	85.7303	4,141.11	86.4174	4,141.11	86.4292	4,141.11	81.5139	4,141.11	79.3671	4,141.11	73.0559	4,141.11	69.6811	4,141.11	82.7722
4,287.6	101.425	4,287.6	100.247	4,287.6	101.654	4,287.6	99.6312	4,287.6	100.365	4,287.6	99.4678	4,287.6	99.917	4,287.6	98.5756	4,287.6	100.417	4,287.6	98.8463	4,287.6	100.473	4,287.6	97.1839	4,287.6	98.8343	4,287.6	95.4935	4,287.6	96.4918	4,287.6	93.5963	4,287.6	94.8211	4,287.6	89.8483	4,287.6	91.7625	4,287.6	88.821	4,287.6	89.888	4,287.6	86.0046	4,287.6	88.7654	4,287.6	84.6685	4,287.6	88.8657	4,287.6	85.9672	4,287.6	85.7456	4,287.6	82.9903	4,287.6	83.0559	4,287.6	84.2895	4,287.6	85.8652	4,287.6	77.5863	4,287.6	80.2079	4,287.6	66.843	4,287.6	72.208	4,287.6	81.7211
4,438.48	100.537	4,438.48	100.496	4,438.48	99.13	4,438.48	98.3787	4,438.48	99.5082	4,438.48	98.4115	4,438.48	99.2773	4,438.48	99.5808	4,438.48	99.3563	4,438.48	98.679	4,438.48	98.6653	4,438.48	97.3987	4,438.48	96.9168	4,438.48	95.6243	4,438.48	94.8501	4,438.48	91.9886	4,438.48	93.4003	4,438.48	89.2524	4,438.48	90.1795	4,438.48	86.4375	4,438.48	88.306	4,438.48	86.7061	4,438.48	86.3565	4,438.48	85.8458	4,438.48	87.6668	4,438.48	86.2171	4,438.48	83.9568	4,438.48	83.5471	4,438.48	83.4924	4,438.48	82.6138	4,438.48	85.5247	4,438.48	76.0502	4,438.48	80.348	4,438.48	69.7508	4,438.48	68.9316	4,438.48	82.3985
4,595.21	101.914	4,595.21	101.009	4,595.21	101.943	4,595.21	100.42	4,595.21	99.6758	4,595.21	100.138	4,595.21	99.1072	4,595.21	100.475	4,595.21	98.5278	4,595.21	99.5608	4,595.21	97.8789	4,595.21	97.23	4,595.21	97.5558	4,595.21	94.0153	4,595.21	95.7732	4,595.21	91.1099	4,595.21	94.2444	4,595.21	90.1273	4,595.21	91.865	4,595.21	88.8943	4,595.21	88.8479	4,595.21	87.4038	4,595.21	88.601	4,595.21	86.2157	4,595.21	87.8895	4,595.21	86.8824	4,595.21	88.544	4,595.21	84.3248	4,595.21	83.3592	4,595.21	84.6083	4,595.21	85.1806	4,595.21	77.7967	4,595.21	80.6259	4,595.21	66.6617	4,595.21	68.7495	4,595.21	83.664
4,756.35	101.448	4,756.35	100.174	4,756.35	100.693	4,756.35	99.2113	4,756.35	99.2623	4,756.35	98.6761	4,756.35	97.8395	4,756.35	98.2249	4,756.35	99.042	4,756.35	98.4711	4,756.35	99.3384	4,756.35	98.1825	4,756.35	97.7562	4,756.35	96.3089	4,756.35	96.1185	4,756.35	95.1552	4,756.35	93.9968	4,756.35	91.1613	4,756.35	91.8254	4,756.35	90.4881	4,756.35	88.8085	4,756.35	87.9763	4,756.35	88.0424	4,756.35	87.8103	4,756.35	88.0029	4,756.35	85.9684	4,756.35	86.6002	4,756.35	86.6475	4,756.35	83.8668	4,756.35	85.4875	4,756.35	84.5299	4,756.35	78.3848	4,756.35	80.4921	4,756.35	71.4613	4,756.35	72.8968	4,756.35	85.0193
4,924.8	101.767	4,924.8	101.41	4,924.8	101.406	4,924.8	100.027	4,924.8	100.067	4,924.8	99.9904	4,924.8	99.8995	4,924.8	100.666	4,924.8	99.861	4,924.8	100.117	4,924.8	100.021	4,924.8	99.4791	4,924.8	99.3859	4,924.8	97.5065	4,924.8	96.8842	4,924.8	95.0515	4,924.8	94.814	4,924.8	93.2541	4,924.8	92.3998	4,924.8	88.8914	4,924.8	89.6621	4,924.8	88.7355	4,924.8	87.9009	4,924.8	88.3843	4,924.8	87.3247	4,924.8	87.8216	4,924.8	86.7901	4,924.8	85.7853	4,924.8	87.0323	4,924.8	85.7015	4,924.8	85.9451	4,924.8	81.0594	4,924.8	81.9561	4,924.8	63.9485	4,924.8	73.5761	4,924.8	85.7109
5,097.66	100.988	5,097.66	100.661	5,097.66	100.722	5,097.66	100.667	5,097.66	99.6006	5,097.66	99.5059	5,097.66	99.7708	5,097.66	100.428	5,097.66	99.6077	5,097.66	100.339	5,097.66	99.5949	5,097.66	99.1257	5,097.66	99.284	5,097.66	97.8815	5,097.66	98.1387	5,097.66	96.6482	5,097.66	94.8031	5,097.66	95.2139	5,097.66	92.7576	5,097.66	92.3863	5,097.66	90.5401	5,097.66	90.027	5,097.66	87.2802	5,097.66	88.0025	5,097.66	87.5834	5,097.66	88.9603	5,097.66	88.5754	5,097.66	87.4423	5,097.66	87.7739	5,097.66	87.1834	5,097.66	85.8733	5,097.66	81.7432	5,097.66	75.4237	5,097.66	71.4022	5,097.66	73.3135	5,097.66	83.6176
5,277.83	100.553	5,277.83	101.179	5,277.83	99.9696	5,277.83	100.383	5,277.83	100.514	5,277.83	100.61	5,277.83	99.3365	5,277.83	100.932	5,277.83	100.375	5,277.83	101.696	5,277.83	101.044	5,277.83	101.367	5,277.83	100.315	5,277.83	100.214	5,277.83	99.2047	5,277.83	98.2978	5,277.83	96.976	5,277.83	94.1067	5,277.83	93.1168	5,277.83	92.5572	5,277.83	90.5554	5,277.83	87.5956	5,277.83	88.1317	5,277.83	87.2023	5,277.83	88.1608	5,277.83	85.2622	5,277.83	87.2943	5,277.83	87.2982	5,277.83	87.8301	5,277.83	86.611	5,277.83	84.6871	5,277.83	79.5584	5,277.83	80.3057	5,277.83	69.8595	5,277.83	71.8207	5,277.83	84.0343
5,463.87	100.906	5,463.87	101.35	5,463.87	101.383	5,463.87	101.449	5,463.87	101.13	5,463.87	100.142	5,463.87	101.054	5,463.87	100.563	5,463.87	100.262	5,463.87	100.891	5,463.87	100.926	5,463.87	101.379	5,463.87	101.225	5,463.87	100.095	5,463.87	99.8781	5,463.87	96.8928	5,463.87	96.4207	5,463.87	94.2415	5,463.87	94.5161	5,463.87	89.6956	5,463.87	91.2281	5,463.87	88.6872	5,463.87	88.3676	5,463.87	87.8694	5,463.87	89.0713	5,463.87	88.6333	5,463.87	86.3914	5,463.87	88.6989	5,463.87	86.1754	5,463.87	84.5349	5,463.87	86.0844	5,463.87	79.9059	5,463.87	76.6238	5,463.87	77.7947	5,463.87	82.3338	5,463.87	83.9511
5,657.23	100.736	5,657.23	101.578	5,657.23	100.953	5,657.23	102.211	5,657.23	102.072	5,657.23	101.647	5,657.23	101.109	5,657.23	101.809	5,657.23	101.412	5,657.23	102.968	5,657.23	102.233	5,657.23	102.608	5,657.23	101.714	5,657.23	100.804	5,657.23	99.8497	5,657.23	98.2614	5,657.23	98.0432	5,657.23	95.632	5,657.23	95.6263	5,657.23	93.1716	5,657.23	91.347	5,657.23	90.7865	5,657.23	89.7806	5,657.23	89.188	5,657.23	89.4967	5,657.23	89.5754	5,657.23	88.1284	5,657.23	87.3185	5,657.23	88.4288	5,657.23	87.4593	5,657.23	85.9837	5,657.23	81.6327	5,657.23	78.2205	5,657.23	80.4256	5,657.23	80.2327	5,657.23	84.3905
5,856.45	101.049	5,856.45	102.473	5,856.45	102.321	5,856.45	102.795	5,856.45	102.587	5,856.45	102.405	5,856.45	102.015	5,856.45	102.248	5,856.45	101.88	5,856.45	103.491	5,856.45	102.929	5,856.45	103.083	5,856.45	102.631	5,856.45	100.833	5,856.45	101.418	5,856.45	97.3804	5,856.45	98.3254	5,856.45	93.6708	5,856.45	94.7312	5,856.45	91.7388	5,856.45	92.3721	5,856.45	89.16	5,856.45	89.1304	5,856.45	88.635	5,856.45	88.8267	5,856.45	87.5601	5,856.45	86.5037	5,856.45	89.0092	5,856.45	88.3393	5,856.45	85.1687	5,856.45	86.4565	5,856.45	78.5632	5,856.45	79.1781	5,856.45	81.1857	5,856.45	81.3031	5,856.45	83.7008
6,062.99	101.454	6,062.99	102.701	6,062.99	102.369	6,062.99	103.256	6,062.99	103.149	6,062.99	102.06	6,062.99	101.96	6,062.99	102.36	6,062.99	101.463	6,062.99	102.644	6,062.99	102.279	6,062.99	102.35	6,062.99	102.273	6,062.99	100.064	6,062.99	99.7888	6,062.99	96.6805	6,062.99	96.4835	6,062.99	94.6158	6,062.99	94.3398	6,062.99	90.8669	6,062.99	90.8018	6,062.99	89.7842	6,062.99	88.6983	6,062.99	89.2631	6,062.99	87.547	6,062.99	89.1951	6,062.99	85.3143	6,062.99	89.0282	6,062.99	87.2879	6,062.99	84.864	6,062.99	85.4224	6,062.99	74.7704	6,062.99	75.2028	6,062.99	81.1591	6,062.99	83.3881	6,062.99	80.6566
6,276.86	101.82	6,276.86	102.569	6,276.86	102.69	6,276.86	102.754	6,276.86	102.966	6,276.86	101.583	6,276.86	101.972	6,276.86	102.285	6,276.86	101.833	6,276.86	102.853	6,276.86	102.72	6,276.86	101.085	6,276.86	101.783	6,276.86	99.119	6,276.86	100.082	6,276.86	97.4594	6,276.86	97.002	6,276.86	93.7005	6,276.86	93.7086	6,276.86	91.6276	6,276.86	90.8238	6,276.86	87.2444	6,276.86	88.634	6,276.86	86.5628	6,276.86	87.6022	6,276.86	89.1631	6,276.86	85.1508	6,276.86	88.8891	6,276.86	88.4882	6,276.86	87.5724	6,276.86	85.3975	6,276.86	72.6498	6,276.86	75.6395	6,276.86	80.0047	6,276.86	81.8778	6,276.86	80.259
6,498.05	101.611	6,498.05	102.271	6,498.05	102.124	6,498.05	102.154	6,498.05	101.962	6,498.05	100.85	6,498.05	101.359	6,498.05	101.282	6,498.05	101.092	6,498.05	101.994	6,498.05	101.025	6,498.05	101.543	6,498.05	101.353	6,498.05	99.885	6,498.05	99.733	6,498.05	96.8103	6,498.05	95.8886	6,498.05	93.6985	6,498.05	93.5422	6,498.05	90.1128	6,498.05	90.4774	6,498.05	86.2315	6,498.05	87.7084	6,498.05	85.7829	6,498.05	85.0446	6,498.05	85.7489	6,498.05	86.837	6,498.05	87.5169	6,498.05	87.0015	6,498.05	86.3973	6,498.05	84.2637	6,498.05	70.7367	6,498.05	77.5882	6,498.05	82.2512	6,498.05	81.2796	6,498.05	77.9143
6,726.56	100.91	6,726.56	101.481	6,726.56	101.057	6,726.56	101.249	6,726.56	101.058	6,726.56	101.378	6,726.56	100.187	6,726.56	100.898	6,726.56	100.717	6,726.56	101.256	6,726.56	101.566	6,726.56	101.07	6,726.56	100.086	6,726.56	99.2477	6,726.56	97.9778	6,726.56	96.6786	6,726.56	96.3134	6,726.56	93.6419	6,726.56	93.4088	6,726.56	90.3996	6,726.56	88.7932	6,726.56	87.1229	6,726.56	86.1337	6,726.56	83.7717	6,726.56	85.6452	6,726.56	85.6351	6,726.56	84.3243	6,726.56	86.0413	6,726.56	86.3818	6,726.56	84.3824	6,726.56	83.5911	6,726.56	77.6251	6,726.56	73.8011	6,726.56	81.3381	6,726.56	82.482	6,726.56	76.391
6,963.87	100.971	6,963.87	101.317	6,963.87	101.317	6,963.87	101.792	6,963.87	101.502	6,963.87	102.062	6,963.87	101.777	6,963.87	101.266	6,963.87	100.967	6,963.87	101.364	6,963.87	100.819	6,963.87	100.723	6,963.87	101.008	6,963.87	99.1274	6,963.87	98.971	6,963.87	96.0139	6,963.87	96.0114	6,963.87	92.8497	6,963.87	92.666	6,963.87	89.6419	6,963.87	89.3673	6,963.87	86.6935	6,963.87	86.8069	6,963.87	83.2987	6,963.87	85.4367	6,963.87	86.9128	6,963.87	86.0189	6,963.87	86.8616	6,963.87	85.2066	6,963.87	84.7252	6,963.87	83.6166	6,963.87	74.9329	6,963.87	77.8559	6,963.87	82.2771	6,963.87	80.0847	6,963.87	74.1509
7,209.96	101.507	7,209.96	101.235	7,209.96	101.425	7,209.96	102.259	7,209.96	102.318	7,209.96	102.539	7,209.96	102.519	7,209.96	101.052	7,209.96	101.56	7,209.96	100.42	7,209.96	101.35	7,209.96	100.476	7,209.96	100.128	7,209.96	98.1317	7,209.96	98.7105	7,209.96	95.9954	7,209.96	95.7228	7,209.96	92.6885	7,209.96	92.0976	7,209.96	89.3171	7,209.96	88.1687	7,209.96	85.7579	7,209.96	85.3568	7,209.96	85.1939	7,209.96	83.9609	7,209.96	85.2807	7,209.96	85.8723	7,209.96	85.4745	7,209.96	85.1158	7,209.96	83.7863	7,209.96	81.931	7,209.96	75.2192	7,209.96	78.1025	7,209.96	82.1012	7,209.96	80.8916	7,209.96	69.2577
7,464.84	101.942	7,464.84	101.367	7,464.84	101.758	7,464.84	102.447	7,464.84	102.149	7,464.84	102.46	7,464.84	102.915	7,464.84	101.041	7,464.84	100.922	7,464.84	100.491	7,464.84	100.312	7,464.84	100.686	7,464.84	100.65	7,464.84	98.6059	7,464.84	99.1265	7,464.84	95.3089	7,464.84	94.751	7,464.84	92.1492	7,464.84	91.9207	7,464.84	87.808	7,464.84	86.6982	7,464.84	86.0612	7,464.84	86.0816	7,464.84	84.3164	7,464.84	83.0319	7,464.84	86.1172	7,464.84	85.4028	7,464.84	85.5333	7,464.84	84.8101	7,464.84	82.2323	7,464.84	83.1232	7,464.84	75.5329	7,464.84	76.9778	7,464.84	80.0035	7,464.84	80.1738	7,464.84	65.8794
7,727.05	101.97	7,727.05	100.887	7,727.05	100.743	7,727.05	102.449	7,727.05	102.108	7,727.05	102.22	7,727.05	102.347	7,727.05	100.768	7,727.05	100.64	7,727.05	100.687	7,727.05	100.427	7,727.05	100.497	7,727.05	99.9294	7,727.05	98.3096	7,727.05	98.4027	7,727.05	95.4366	7,727.05	95.2028	7,727.05	91.9359	7,727.05	92.139	7,727.05	87.7905	7,727.05	88.594	7,727.05	84.4712	7,727.05	85.2047	7,727.05	85.5419	7,727.05	81.7709	7,727.05	85.5481	7,727.05	85.0909	7,727.05	85.715	7,727.05	85.0989	7,727.05	80.2947	7,727.05	79.3544	7,727.05	79.4617	7,727.05	77.1819	7,727.05	81.1453	7,727.05	79.5826	7,727.05	55.4517
7,999.51	100.352	7,999.51	99.9477	7,999.51	99.6764	7,999.51	102.124	7,999.51	101.653	7,999.51	102.007	7,999.51	101.981	7,999.51	100.778	7,999.51	100.44	7,999.51	100.646	7,999.51	99.8062	7,999.51	99.9698	7,999.51	99.7176	7,999.51	97.8651	7,999.51	97.308	7,999.51	95.1966	7,999.51	94.7937	7,999.51	91.3051	7,999.51	91.261	7,999.51	88.6897	7,999.51	88.6799	7,999.51	84.1378	7,999.51	85.969	7,999.51	83.6636	7,999.51	82.7652	7,999.51	85.1686	7,999.51	86.1441	7,999.51	86.1701	7,999.51	85.1458	7,999.51	77.2663	7,999.51	81.0538	7,999.51	79.4635	7,999.51	77.1678	7,999.51	79.2061	7,999.51	79.8618	7,999.51	64.3856
8,282.23	99.1903	8,282.23	98.9954	8,282.23	99.0039	8,282.23	101.349	8,282.23	100.565	8,282.23	101.006	8,282.23	100.858	8,282.23	100.046	8,282.23	100.111	8,282.23	100.103	8,282.23	99.9821	8,282.23	99.0803	8,282.23	98.6826	8,282.23	97.4501	8,282.23	97.3787	8,282.23	94.8189	8,282.23	94.9238	8,282.23	91.6104	8,282.23	91.5564	8,282.23	88.3243	8,282.23	87.8714	8,282.23	85.837	8,282.23	84.0778	8,282.23	83.2536	8,282.23	81.4048	8,282.23	82.9118	8,282.23	84.5357	8,282.23	85.3266	8,282.23	85.5614	8,282.23	81.3548	8,282.23	78.299	8,282.23	79.8339	8,282.23	76.5209	8,282.23	80.2704	8,282.23	78.1185	8,282.23	61.5932
8,573.73	98.4428	8,573.73	98.8361	8,573.73	98.8485	8,573.73	100.482	8,573.73	99.808	8,573.73	100.553	8,573.73	100.212	8,573.73	99.676	8,573.73	99.3645	8,573.73	98.8197	8,573.73	98.8997	8,573.73	98.5632	8,573.73	98.6695	8,573.73	96.9881	8,573.73	97.1594	8,573.73	94.5958	8,573.73	94.034	8,573.73	91.38	8,573.73	91.5029	8,573.73	88.4103	8,573.73	86.9775	8,573.73	85.5529	8,573.73	84.2541	8,573.73	82.7308	8,573.73	82.8672	8,573.73	83.7572	8,573.73	85.5453	8,573.73	84.6719	8,573.73	84.8059	8,573.73	79.4689	8,573.73	77.5364	8,573.73	78.0177	8,573.73	76.97	8,573.73	79.3312	8,573.73	79.2847	8,573.73	63.9916
8,876.95	98.6316	8,876.95	99.4984	8,876.95	99.0398	8,876.95	98.9503	8,876.95	99.1087	8,876.95	100.336	8,876.95	99.401	8,876.95	99.4236	8,876.95	98.6786	8,876.95	97.9271	8,876.95	97.3385	8,876.95	98.3995	8,876.95	97.9635	8,876.95	97.3955	8,876.95	97.1426	8,876.95	94.2087	8,876.95	94.3158	8,876.95	91.2639	8,876.95	91.2389	8,876.95	87.2037	8,876.95	86.6403	8,876.95	85.54	8,876.95	84.1113	8,876.95	80.7329	8,876.95	82.1809	8,876.95	83.6636	8,876.95	80.5869	8,876.95	83.2181	8,876.95	83.078	8,876.95	78.902	8,876.95	76.987	8,876.95	77.5127	8,876.95	71.3575	8,876.95	76.361	8,876.95	76.5957	8,876.95	68.7185
9,188.96	98.4405	9,188.96	99.4917	9,188.96	99.4532	9,188.96	98.3998	9,188.96	98.3184	9,188.96	100.16	9,188.96	99.2939	9,188.96	98.4544	9,188.96	97.823	9,188.96	97.9133	9,188.96	97.1581	9,188.96	98.5223	9,188.96	97.6117	9,188.96	97.178	9,188.96	96.57	9,188.96	94.2231	9,188.96	93.8986	9,188.96	90.7429	9,188.96	90.449	9,188.96	86.7747	9,188.96	86.0209	9,188.96	83.9736	9,188.96	84.3037	9,188.96	80.8887	9,188.96	81.0506	9,188.96	82.8468	9,188.96	82.1686	9,188.96	81.9234	9,188.96	81.8799	9,188.96	73.4366	9,188.96	77.6876	9,188.96	76.692	9,188.96	75.3581	9,188.96	75.2275	9,188.96	73.1146	9,188.96	54.4406
9,514.16	98.9988	9,514.16	99.3894	9,514.16	99.8342	9,514.16	98.1823	9,514.16	97.9512	9,514.16	99.1185	9,514.16	98.7074	9,514.16	97.6956	9,514.16	96.9345	9,514.16	97.4982	9,514.16	96.5156	9,514.16	97.9158	9,514.16	97.111	9,514.16	95.8477	9,514.16	95.6905	9,514.16	93.3904	9,514.16	92.7892	9,514.16	90.1628	9,514.16	89.2004	9,514.16	85.7574	9,514.16	86.037	9,514.16	81.3621	9,514.16	81.7092	9,514.16	80.7541	9,514.16	80.7457	9,514.16	81.2642	9,514.16	82.4022	9,514.16	81.4554	9,514.16	81.6285	9,514.16	70.7035	9,514.16	71.1791	9,514.16	75.082	9,514.16	76.2048	9,514.16	74.5228	9,514.16	69.5941	9,514.16	62.8862
9,849.61	98.9984	9,849.61	99.2005	9,849.61	99.3009	9,849.61	97.7567	9,849.61	97.3349	9,849.61	97.8031	9,849.61	97.4263	9,849.61	97.6536	9,849.61	96.6169	9,849.61	96.9006	9,849.61	96.0391	9,849.61	97.1969	9,849.61	96.5253	9,849.61	95.6674	9,849.61	95.7554	9,849.61	93.2841	9,849.61	92.4976	9,849.61	88.9029	9,849.61	89.4285	9,849.61	86.4693	9,849.61	85.1848	9,849.61	81.9535	9,849.61	80.948	9,849.61	79.8767	9,849.61	80.1315	9,849.61	80.8812	9,849.61	80.1207	9,849.61	79.4358	9,849.61	81.4195	9,849.61	68.9297	9,849.61	70.7704	9,849.61	77.3036	9,849.61	78.3242	9,849.61	74.8925	9,849.61	68.5891	9,849.61	65.7639
10,196.8	99.4623	10,196.8	98.4217	10,196.8	98.7555	10,196.8	96.9449	10,196.8	97.0366	10,196.8	96.4296	10,196.8	96.1755	10,196.8	97.4601	10,196.8	96.2207	10,196.8	96.0799	10,196.8	95.15	10,196.8	96.5084	10,196.8	95.8882	10,196.8	95.3123	10,196.8	95.2417	10,196.8	91.3749	10,196.8	92.1769	10,196.8	88.503	10,196.8	88.1674	10,196.8	84.8107	10,196.8	83.5713	10,196.8	81.0468	10,196.8	80.5369	10,196.8	75.3924	10,196.8	78.3406	10,196.8	79.7948	10,196.8	79.0483	10,196.8	79.0038	10,196.8	78.5965	10,196.8	67.106	10,196.8	70.7319	10,196.8	75.7127	10,196.8	75.2546	10,196.8	73.3621	10,196.8	61.0573	10,196.8	67.6585
10,555.7	99.6938	10,555.7	98.4298	10,555.7	98.3638	10,555.7	97.0547	10,555.7	97.1832	10,555.7	95.3875	10,555.7	95.0943	10,555.7	97.1239	10,555.7	96.025	10,555.7	95.3433	10,555.7	94.6533	10,555.7	95.8318	10,555.7	94.7489	10,555.7	94.2976	10,555.7	93.5495	10,555.7	89.9979	10,555.7	90.2996	10,555.7	86.4704	10,555.7	85.9506	10,555.7	82.0786	10,555.7	81.9026	10,555.7	75.4449	10,555.7	78.0264	10,555.7	74.8774	10,555.7	75.5706	10,555.7	78.6936	10,555.7	77.656	10,555.7	78.0092	10,555.7	77.3692	10,555.7	66.3609	10,555.7	67.583	10,555.7	73.8067	10,555.7	75.6446	10,555.7	71.9937	10,555.7	66.136	10,555.7	67.4781
10,927.7	99.8808	10,927.7	98.5581	10,927.7	98.794	10,927.7	97.1784	10,927.7	96.8543	10,927.7	95.7316	10,927.7	94.8461	10,927.7	96.3251	10,927.7	95.6272	10,927.7	95.1049	10,927.7	94.7857	10,927.7	94.4791	10,927.7	93.8477	10,927.7	92.4759	10,927.7	91.9392	10,927.7	89.4058	10,927.7	87.9054	10,927.7	84.2434	10,927.7	83.9824	10,927.7	81.4456	10,927.7	80.3065	10,927.7	74.9284	10,927.7	75.0731	10,927.7	74.7522	10,927.7	74.3012	10,927.7	79.3165	10,927.7	77.7529	10,927.7	75.6225	10,927.7	75.1417	10,927.7	61.2947	10,927.7	62.275	10,927.7	72.9956	10,927.7	74.7159	10,927.7	70.6588	10,927.7	66.9445	10,927.7	61.9489
11,313	100.238	11,313	99.0749	11,313	99.0858	11,313	97.3487	11,313	96.7436	11,313	95.7907	11,313	95.2388	11,313	95.5892	11,313	94.9741	11,313	94.7486	11,313	94.1919	11,313	93.3693	11,313	92.7709	11,313	90.8406	11,313	90.7469	11,313	87.758	11,313	87.2752	11,313	83.7865	11,313	83.287	11,313	79.9973	11,313	77.4848	11,313	74.535	11,313	74.2482	11,313	73.8612	11,313	73.5131	11,313	78.0628	11,313	73.9967	11,313	73.3614	11,313	73.4923	11,313	53.3636	11,313	64.5391	11,313	72.3753	11,313	71.6474	11,313	70.7045	11,313	63.9747	11,313	65.7754
11,712.9	100.327	11,712.9	99.4304	11,712.9	99.275	11,712.9	97.6368	11,712.9	97.2134	11,712.9	96.3015	11,712.9	96.0336	11,712.9	95.6356	11,712.9	95.0212	11,712.9	93.9896	11,712.9	93.675	11,712.9	92.624	11,712.9	91.8385	11,712.9	89.9347	11,712.9	89.6379	11,712.9	86.7171	11,712.9	85.7003	11,712.9	82.779	11,712.9	82.329	11,712.9	79.0924	11,712.9	76.0173	11,712.9	75.5552	11,712.9	74.1999	11,712.9	72.782	11,712.9	71.0792	11,712.9	75.4936	11,712.9	70.8621	11,712.9	72.4461	11,712.9	72.2483	11,712.9	50.325	11,712.9	62.6159	11,712.9	70.1425	11,712.9	71.4234	11,712.9	67.5105	11,712.9	60.472	11,712.9	64.8306
12,126	100.162	12,126	99.5248	12,126	99.2789	12,126	97.9416	12,126	97.8431	12,126	96.5891	12,126	96.3119	12,126	95.6317	12,126	95.1817	12,126	93.2533	12,126	92.9953	12,126	91.6605	12,126	90.8494	12,126	89.4129	12,126	88.8755	12,126	85.3464	12,126	83.9212	12,126	82.2895	12,126	80.9686	12,126	76.4217	12,126	76.3136	12,126	74.2766	12,126	72.8512	12,126	73.5955	12,126	69.3306	12,126	73.796	12,126	70.8845	12,126	71.9445	12,126	70.5587	12,126	58.8043	12,126	60.4719	12,126	66.9405	12,126	71.9939	12,126	65.3499	12,126	54.7897	12,126	62.907
12,553.7	100.167	12,553.7	99.6556	12,553.7	99.3867	12,553.7	98.434	12,553.7	98.1184	12,553.7	96.6617	12,553.7	96.5099	12,553.7	95.4417	12,553.7	95.109	12,553.7	92.4854	12,553.7	92.4495	12,553.7	91.401	12,553.7	90.3646	12,553.7	89.3859	12,553.7	88.7711	12,553.7	85.396	12,553.7	85.5577	12,553.7	82.5182	12,553.7	81.1194	12,553.7	77.0881	12,553.7	77.2176	12,553.7	75.0246	12,553.7	73.2154	12,553.7	72.6554	12,553.7	66.3613	12,553.7	74.2326	12,553.7	69.9078	12,553.7	69.1386	12,553.7	69.0069	12,553.7	56.021	12,553.7	59.4745	12,553.7	66.6804	12,553.7	71.8098	12,553.7	66.4186	12,553.7	56.7751	12,553.7	63.3743
12,996.1	100.071	12,996.1	99.454	12,996.1	99.4928	12,996.1	98.6352	12,996.1	98.5957	12,996.1	96.7075	12,996.1	96.5308	12,996.1	95.0183	12,996.1	94.433	12,996.1	91.8065	12,996.1	91.4638	12,996.1	90.925	12,996.1	89.9472	12,996.1	89.2557	12,996.1	88.8986	12,996.1	85.7225	12,996.1	85.7085	12,996.1	82.2742	12,996.1	81.5743	12,996.1	77.6987	12,996.1	77.901	12,996.1	75.0677	12,996.1	73.9728	12,996.1	69.8723	12,996.1	69.0736	12,996.1	72.6845	12,996.1	67.2146	12,996.1	66.2991	12,996.1	67.2351	12,996.1	61.4538	12,996.1	57.7424	12,996.1	58.6488	12,996.1	68.8296	12,996.1	62.815	12,996.1	47.0769	12,996.1	63.3385
13,454.6	99.7084	13,454.6	99.3196	13,454.6	99.382	13,454.6	98.6185	13,454.6	98.6539	13,454.6	96.4368	13,454.6	96.2153	13,454.6	93.8851	13,454.6	93.6736	13,454.6	91.0014	13,454.6	90.8986	13,454.6	90.036	13,454.6	89.2073	13,454.6	89.015	13,454.6	88.5579	13,454.6	85.2579	13,454.6	85.4902	13,454.6	81.6891	13,454.6	81.1451	13,454.6	76.5877	13,454.6	78.053	13,454.6	74.4637	13,454.6	73.4465	13,454.6	70.0461	13,454.6	68.765	13,454.6	71.2947	13,454.6	65.1057	13,454.6	65.0177	13,454.6	64.6132	13,454.6	60.5042	13,454.6	57.3554	13,454.6	59.3357	13,454.6	67.5958	13,454.6	58.8469	13,454.6	55.76	13,454.6	61.6109
13,929.2	99.5726	13,929.2	99.3148	13,929.2	99.5648	13,929.2	98.5101	13,929.2	98.7043	13,929.2	95.8559	13,929.2	96.1221	13,929.2	93.0775	13,929.2	93.15	13,929.2	90.5089	13,929.2	90.9443	13,929.2	89.4452	13,929.2	88.7586	13,929.2	88.2211	13,929.2	87.9444	13,929.2	84.4828	13,929.2	85.3226	13,929.2	80.7238	13,929.2	80.1194	13,929.2	75.6116	13,929.2	76.3232	13,929.2	72.9357	13,929.2	72.4847	13,929.2	67.4374	13,929.2	66.0947	13,929.2	67.8006	13,929.2	62.2115	13,929.2	62.4452	13,929.2	62.9712	13,929.2	56.9652	13,929.2	56.8219	13,929.2	58.5959	13,929.2	66.6075	13,929.2	53.7974	13,929.2	56.2633	13,929.2	59.1933
14,419.9	99.4153	14,419.9	99.411	14,419.9	99.5055	14,419.9	98.2795	14,419.9	98.3604	14,419.9	95.4403	14,419.9	95.8405	14,419.9	92.7697	14,419.9	92.7151	14,419.9	90.4614	14,419.9	90.602	14,419.9	89.0553	14,419.9	88.4964	14,419.9	87.1861	14,419.9	87.2024	14,419.9	83.3353	14,419.9	84.114	14,419.9	79.8551	14,419.9	79.3059	14,419.9	74.031	14,419.9	75.1948	14,419.9	71.1047	14,419.9	71.2103	14,419.9	66.8317	14,419.9	65.3735	14,419.9	68.0154	14,419.9	56.2623	14,419.9	62.1369	14,419.9	60.4827	14,419.9	48.8113	14,419.9	58.3273	14,419.9	60.9171	14,419.9	59.3994	14,419.9	46.0735	14,419.9	54.3437	14,419.9	60.094
14,928.2	99.4248	14,928.2	99.4143	14,928.2	99.4241	14,928.2	97.8653	14,928.2	98.0562	14,928.2	95.0455	14,928.2	95.3665	14,928.2	92.4017	14,928.2	92.3943	14,928.2	89.8973	14,928.2	89.9013	14,928.2	87.7202	14,928.2	87.5508	14,928.2	85.9752	14,928.2	85.7826	14,928.2	82.1277	14,928.2	83.1631	14,928.2	78.1649	14,928.2	77.772	14,928.2	72.7158	14,928.2	74.019	14,928.2	70.3155	14,928.2	69.7548	14,928.2	64.9812	14,928.2	64.2429	14,928.2	67.1665	14,928.2	59.3272	14,928.2	58.5498	14,928.2	59.366	14,928.2	42.1232	14,928.2	57.9863	14,928.2	62.783	14,928.2	57.0141	14,928.2	55.9438	14,928.2	56.0386	14,928.2	58.3284
15,455.6	99.5853	15,455.6	99.4258	15,455.6	99.5841	15,455.6	97.7817	15,455.6	98.0011	15,455.6	95.0663	15,455.6	95.2849	15,455.6	92.4199	15,455.6	92.4797	15,455.6	89.6593	15,455.6	90.0612	15,455.6	87.1259	15,455.6	87.0605	15,455.6	86.024	15,455.6	85.657	15,455.6	82.4177	15,455.6	82.6768	15,455.6	77.9387	15,455.6	77.5129	15,455.6	72.9571	15,455.6	74.1675	15,455.6	69.3204	15,455.6	68.8429	15,455.6	64.7207	15,455.6	63.6624	15,455.6	65.2773	15,455.6	61.1814	15,455.6	60.5644	15,455.6	58.3752	15,455.6	38.5493	15,455.6	56.5555	15,455.6	63.3049	15,455.6	53.4603	15,455.6	55.0674	15,455.6	55.7196	15,455.6	54.646
16,000.5	99.7706	16,000.5	99.2966	16,000.5	99.5114	16,000.5	97.7462	16,000.5	98.0044	16,000.5	95.4164	16,000.5	95.5753	16,000.5	92.2675	16,000.5	92.567	16,000.5	88.8682	16,000.5	89.2923	16,000.5	86.6553	16,000.5	86.8835	16,000.5	85.7859	16,000.5	86.365	16,000.5	83.0516	16,000.5	83.9583	16,000.5	79.1663	16,000.5	79.1214	16,000.5	73.7838	16,000.5	75.7282	16,000.5	70.8571	16,000.5	70.9641	16,000.5	66.4696	16,000.5	66.3461	16,000.5	66.3332	16,000.5	64.0963	16,000.5	60.5831	16,000.5	61.94	16,000.5	46.8357	16,000.5	61.6429	16,000.5	62.275	16,000.5	33.1118	16,000.5	57.4836	16,000.5	54.8863	16,000.5	53.5853
16,564.5	99.7733	16,564.5	98.7782	16,564.5	98.9335	16,564.5	97.6609	16,564.5	97.4059	16,564.5	95.9455	16,564.5	95.5994	16,564.5	91.8591	16,564.5	92.227	16,564.5	87.0968	16,564.5	87.4739	16,564.5	85.4751	16,564.5	86.6986	16,564.5	84.9667	16,564.5	87.2048	16,564.5	83.0258	16,564.5	85.5958	16,564.5	79.3474	16,564.5	80.8417	16,564.5	73.991	16,564.5	77.7577	16,564.5	70.6099	16,564.5	72.3757	16,564.5	65.409	16,564.5	66.9008	16,564.5	67.9412	16,564.5	64.6788	16,564.5	62.4338	16,564.5	64.0694	16,564.5	53.9747	16,564.5	65.3304	16,564.5	65.0699	16,564.5	56.4502	16,564.5	58.5389	16,564.5	48.7664	16,564.5	53.4996
17,148.9	99.6991	17,148.9	97.7512	17,148.9	98.1993	17,148.9	97.8484	17,148.9	96.89	17,148.9	96.3834	17,148.9	95.8909	17,148.9	91.5288	17,148.9	91.6717	17,148.9	86.3833	17,148.9	86.4473	17,148.9	84.152	17,148.9	87.3053	17,148.9	85.0599	17,148.9	88.763	17,148.9	83.5271	17,148.9	87.7921	17,148.9	79.8008	17,148.9	83.0978	17,148.9	74.598	17,148.9	79.358	17,148.9	71.1033	17,148.9	74.0731	17,148.9	65.5254	17,148.9	68.1262	17,148.9	67.2074	17,148.9	65.7164	17,148.9	63.7228	17,148.9	64.8771	17,148.9	60.2252	17,148.9	67.064	17,148.9	65.5363	17,148.9	57.9663	17,148.9	58.7854	17,148.9	45.2797	17,148.9	54.9607
17,752.4	99.2956	17,752.4	96.9987	17,752.4	97.9395	17,752.4	97.7363	17,752.4	96.2107	17,752.4	95.9731	17,752.4	95.6765	17,752.4	91.9387	17,752.4	90.804	17,752.4	86.6345	17,752.4	85.2986	17,752.4	85.0186	17,752.4	87.886	17,752.4	85.9813	17,752.4	90.1011	17,752.4	83.9285	17,752.4	89.1571	17,752.4	80.1778	17,752.4	84.6278	17,752.4	73.4828	17,752.4	80.7249	17,752.4	72.4579	17,752.4	75.8182	17,752.4	65.8549	17,752.4	67.7837	17,752.4	67.6872	17,752.4	65.7429	17,752.4	67.1936	17,752.4	65.7029	17,752.4	61.8517	17,752.4	68.4315	17,752.4	64.3122	17,752.4	63.9612	17,752.4	49.3218	17,752.4	38.2949	17,752.4	49.2411
18,379.4	98.7473	18,379.4	97.4917	18,379.4	97.9702	18,379.4	96.6536	18,379.4	96.4188	18,379.4	94.8562	18,379.4	95.4307	18,379.4	92.3774	18,379.4	90.2174	18,379.4	87.9923	18,379.4	84.0207	18,379.4	87.2308	18,379.4	86.5499	18,379.4	86.0365	18,379.4	88.8788	18,379.4	82.1654	18,379.4	87.7502	18,379.4	78.8057	18,379.4	83.1891	18,379.4	72.4235	18,379.4	79.3073	18,379.4	71.6955	18,379.4	74.6947	18,379.4	62.6991	18,379.4	66.6748	18,379.4	64.3364	18,379.4	67.298	18,379.4	66.8875	18,379.4	64.0431	18,379.4	59.819	18,379.4	67.7631	18,379.4	61.2074	18,379.4	67.8549	18,379.4	58.042	18,379.4	53.9783	18,379.4	41.9972
19,026.9	98.0407	19,026.9	98.0497	19,026.9	97.7686	19,026.9	95.4822	19,026.9	96.2986	19,026.9	94.1676	19,026.9	94.5413	19,026.9	92.0472	19,026.9	90.3809	19,026.9	88.7553	19,026.9	85.3695	19,026.9	87.3715	19,026.9	86.6917	19,026.9	86.2167	19,026.9	88.0021	19,026.9	82.1934	19,026.9	86.6904	19,026.9	77.2995	19,026.9	82.0133	19,026.9	74.3916	19,026.9	77.9304	19,026.9	71.6702	19,026.9	73.0982	19,026.9	62.376	19,026.9	60.0657	19,026.9	60.4782	19,026.9	63.7296	19,026.9	66.6117	19,026.9	62.1678	19,026.9	59.4621	19,026.9	66.0491	19,026.9	43.9557	19,026.9	68.0182	19,026.9	62.9805	19,026.9	55.7621	19,026.9	50.153
19,697.8	97.7102	19,697.8	98.4486	19,697.8	98.0156	19,697.8	94.3713	19,697.8	96.2681	19,697.8	93.6158	19,697.8	93.801	19,697.8	90.7856	19,697.8	90.1878	19,697.8	88.5099	19,697.8	86.1952	19,697.8	86.7394	19,697.8	87.7908	19,697.8	85.9663	19,697.8	88.3564	19,697.8	83.3404	19,697.8	86.2393	19,697.8	78.351	19,697.8	81.0637	19,697.8	75.8972	19,697.8	77.3804	19,697.8	71.1485	19,697.8	70.7298	19,697.8	63.5993	19,697.8	53.2268	19,697.8	57.0184	19,697.8	59.9348	19,697.8	64.904	19,697.8	59.2905	19,697.8	60.3044	19,697.8	63.9633	19,697.8	48.2686	19,697.8	66.924	19,697.8	65.472	19,697.8	51.4337	19,697.8	54.7519
19,999.5	97.7687	19,999.5	98.6361	19,999.5	98.0332	19,999.5	94.0323	19,999.5	96.375	19,999.5	92.8655	19,999.5	93.2935	19,999.5	90.3118	19,999.5	90.3161	19,999.5	87.7707	19,999.5	86.4183	19,999.5	87.2779	19,999.5	88.1227	19,999.5	85.9103	19,999.5	88.3646	19,999.5	85.772	19,999.5	85.7503	19,999.5	81.1142	19,999.5	79.0889	19,999.5	75.2932	19,999.5	76.6201	19,999.5	69.0788	19,999.5	65.2809	19,999.5	63.6707	19,999.5	59.1872	19,999.5	64.5465	19,999.5	57.7236	19,999.5	59.7961	19,999.5	60.5209	19,999.5	66.7773	19,999.5	68.5962	19,999.5	61.3334	19,999.5	68.0813	19,999.5	64.104	19,999.5	58.2301	19,999.5	61.3755
