"SPL Vertical"
"On-Axis"		"10°"		"-10°"		"20°"		"-20°"		"30°"		"-30°"		"40°"		"-40°"		"50°"		"-50°"		"60°"		"-60°"		"70°"		"-70°"		"80°"		"-80°"		"90°"		"-90°"		"100°"		"-100°"		"110°"		"-110°"		"120°"		"-120°"		"130°"		"-130°"		"140°"		"-140°"		"150°"		"-150°"		"160°"		"-160°"		"170°"		"-170°"		"180°"
"Frequency / Hz"	"Sound Pressure Level / dB (re 20 µPa/V)   /[0.3V at 1m]"	"Frequency / Hz"	"Sound Pressure Level / dB (re 20 µPa/V)   /[0.3V at 1m]"	"Frequency / Hz"	"Sound Pressure Level / dB (re 20 µPa/V)   /[0.3V at 1m]"	"Frequency / Hz"	"Sound Pressure Level / dB (re 20 µPa/V)   /[0.3V at 1m]"	"Frequency / Hz"	"Sound Pressure Level / dB (re 20 µPa/V)   /[0.3V at 1m]"	"Frequency / Hz"	"Sound Pressure Level / dB (re 20 µPa/V)   /[0.3V at 1m]"	"Frequency / Hz"	"Sound Pressure Level / dB (re 20 µPa/V)   /[0.3V at 1m]"	"Frequency / Hz"	"Sound Pressure Level / dB (re 20 µPa/V)   /[0.3V at 1m]"	"Frequency / Hz"	"Sound Pressure Level / dB (re 20 µPa/V)   /[0.3V at 1m]"	"Frequency / Hz"	"Sound Pressure Level / dB (re 20 µPa/V)   /[0.3V at 1m]"	"Frequency / Hz"	"Sound Pressure Level / dB (re 20 µPa/V)   /[0.3V at 1m]"	"Frequency / Hz"	"Sound Pressure Level / dB (re 20 µPa/V)   /[0.3V at 1m]"	"Frequency / Hz"	"Sound Pressure Level / dB (re 20 µPa/V)   /[0.3V at 1m]"	"Frequency / Hz"	"Sound Pressure Level / dB (re 20 µPa/V)   /[0.3V at 1m]"	"Frequency / Hz"	"Sound Pressure Level / dB (re 20 µPa/V)   /[0.3V at 1m]"	"Frequency / Hz"	"Sound Pressure Level / dB (re 20 µPa/V)   /[0.3V at 1m]"	"Frequency / Hz"	"Sound Pressure Level / dB (re 20 µPa/V)   /[0.3V at 1m]"	"Frequency / Hz"	"Sound Pressure Level / dB (re 20 µPa/V)   /[0.3V at 1m]"	"Frequency / Hz"	"Sound Pressure Level / dB (re 20 µPa/V)   /[0.3V at 1m]"	"Frequency / Hz"	"Sound Pressure Level / dB (re 20 µPa/V)   /[0.3V at 1m]"	"Frequency / Hz"	"Sound Pressure Level / dB (re 20 µPa/V)   /[0.3V at 1m]"	"Frequency / Hz"	"Sound Pressure Level / dB (re 20 µPa/V)   /[0.3V at 1m]"	"Frequency / Hz"	"Sound Pressure Level / dB (re 20 µPa/V)   /[0.3V at 1m]"	"Frequency / Hz"	"Sound Pressure Level / dB (re 20 µPa/V)   /[0.3V at 1m]"	"Frequency / Hz"	"Sound Pressure Level / dB (re 20 µPa/V)   /[0.3V at 1m]"	"Frequency / Hz"	"Sound Pressure Level / dB (re 20 µPa/V)   /[0.3V at 1m]"	"Frequency / Hz"	"Sound Pressure Level / dB (re 20 µPa/V)   /[0.3V at 1m]"	"Frequency / Hz"	"Sound Pressure Level / dB (re 20 µPa/V)   /[0.3V at 1m]"	"Frequency / Hz"	"Sound Pressure Level / dB (re 20 µPa/V)   /[0.3V at 1m]"	"Frequency / Hz"	"Sound Pressure Level / dB (re 20 µPa/V)   /[0.3V at 1m]"	"Frequency / Hz"	"Sound Pressure Level / dB (re 20 µPa/V)   /[0.3V at 1m]"	"Frequency / Hz"	"Sound Pressure Level / dB (re 20 µPa/V)   /[0.3V at 1m]"	"Frequency / Hz"	"Sound Pressure Level / dB (re 20 µPa/V)   /[0.3V at 1m]"	"Frequency / Hz"	"Sound Pressure Level / dB (re 20 µPa/V)   /[0.3V at 1m]"	"Frequency / Hz"	"Sound Pressure Level / dB (re 20 µPa/V)   /[0.3V at 1m]"	"Frequency / Hz"	"Sound Pressure Level / dB (re 20 µPa/V)   /[0.3V at 1m]"
20.5078	53.8966	20.5078	53.6459	20.5078	53.8155	20.5078	53.0439	20.5078	53.4063	20.5078	52.0631	20.5078	52.6641	20.5078	50.7211	20.5078	51.6091	20.5078	49.3087	20.5078	50.4066	20.5078	48.8766	20.5078	49.6539	20.5078	50.4328	20.5078	50.3036	20.5078	53.0583	20.5078	52.3175	20.5078	55.6573	20.5078	54.7406	20.5078	57.9126	20.5078	57.013	20.5078	59.8066	20.5078	58.9909	20.5078	61.3769	20.5078	60.668	20.5078	62.659	20.5078	62.0651	20.5078	63.6776	20.5078	63.2018	20.5078	64.4477	20.5078	64.0908	20.5078	64.9773	20.5078	64.7396	20.5078	65.2704	20.5078	65.1516	20.5078	65.3284
21.9727	52.6448	21.9727	52.0369	21.9727	52.7858	21.9727	50.8943	21.9727	52.4911	21.9727	49.1529	21.9727	51.7703	21.9727	47.1212	21.9727	50.6703	21.9727	46.7892	21.9727	49.4887	21.9727	49.5806	21.9727	49.1959	21.9727	53.053	21.9727	50.7415	21.9727	56.0404	21.9727	53.3601	21.9727	58.4949	21.9727	56.0094	21.9727	60.5189	21.9727	58.3493	21.9727	62.196	21.9727	60.3462	21.9727	63.5807	21.9727	62.0315	21.9727	64.7065	21.9727	63.4387	21.9727	65.5928	21.9727	64.5918	21.9727	66.25	21.9727	65.5061	21.9727	66.6831	21.9727	66.19	21.9727	66.8937	21.9727	66.6479	21.9727	66.8822
23.4375	57.6278	23.4375	57.3425	23.4375	57.6489	23.4375	56.7961	23.4375	57.4079	23.4375	56.0211	23.4375	56.9119	23.4375	55.1497	23.4375	56.1918	23.4375	54.549	23.4375	55.3612	23.4375	54.8096	23.4375	54.7311	23.4375	56.1495	23.4375	54.8362	23.4375	58.0916	23.4375	55.9757	23.4375	60.1111	23.4375	57.7954	23.4375	61.9643	23.4375	59.776	23.4375	63.5797	23.4375	61.6362	23.4375	64.9474	23.4375	63.2802	23.4375	66.0733	23.4375	64.6865	23.4375	66.9642	23.4375	65.8561	23.4375	67.6246	23.4375	66.7934	23.4375	68.0563	23.4375	67.5017	23.4375	68.2597	23.4375	67.9822	23.4375	68.235
24.9023	59.848	24.9023	59.6768	24.9023	59.8997	24.9023	59.4252	24.9023	59.829	24.9023	59.184	24.9023	59.666	24.9023	59.1097	24.9023	59.4824	24.9023	59.3941	24.9023	59.404	24.9023	60.1523	24.9023	59.5978	24.9023	61.3254	24.9023	60.1982	24.9023	62.7329	24.9023	61.209	24.9023	64.1974	24.9023	62.5008	24.9023	65.6019	24.9023	63.9063	24.9023	66.883	24.9023	65.2958	24.9023	68.0084	24.9023	66.5902	24.9023	68.9608	24.9023	67.7459	24.9023	69.7297	24.9023	68.7385	24.9023	70.3073	24.9023	69.5532	24.9023	70.6874	24.9023	70.1796	24.9023	70.8657	24.9023	70.6103	24.9023	70.8399
26.3672	62.0196	26.3672	61.7726	26.3672	62.0924	26.3672	61.3709	26.3672	61.9906	26.3672	60.8712	26.3672	61.729	26.3672	60.4042	26.3672	61.3465	26.3672	60.2051	26.3672	60.9301	26.3672	60.5445	26.3672	60.644	26.3672	61.5112	26.3672	60.7208	26.3672	62.9157	26.3672	61.3401	26.3672	64.4799	26.3672	62.4676	26.3672	66.0078	26.3672	63.8888	26.3672	67.4001	26.3672	65.3822	26.3672	68.6135	26.3672	66.8051	26.3672	69.6299	26.3672	68.0843	26.3672	70.4408	26.3672	69.1847	26.3672	71.0411	26.3672	70.089	26.3672	71.4266	26.3672	70.7874	26.3672	71.5946	26.3672	71.2737	26.3672	71.5435
27.832	63.9447	27.832	63.7407	27.832	63.9776	27.832	63.3812	27.832	63.8364	27.832	62.9083	27.832	63.5281	27.832	62.4179	27.832	63.0782	27.832	62.0933	27.832	62.5516	27.832	62.1857	27.832	62.0896	27.832	62.8614	27.832	61.9312	27.832	64.0403	27.832	62.3243	27.832	65.4769	27.832	63.316	27.832	66.9482	27.832	64.7005	27.832	68.3225	27.832	66.2127	27.832	69.5363	27.832	67.6722	27.832	70.5606	27.832	68.9871	27.832	71.3818	27.832	70.1159	27.832	71.9922	27.832	71.0401	27.832	72.3866	27.832	71.7507	27.832	72.561	27.832	72.2428	27.832	72.5133
29.2969	66.017	29.2969	65.902	29.2969	66.0359	29.2969	65.7163	29.2969	65.9549	29.2969	65.5133	29.2969	65.7896	29.2969	65.3839	29.2969	65.5807	29.2969	65.4506	29.2969	65.4019	29.2969	65.8274	29.2969	65.3644	29.2969	66.5532	29.2969	65.5933	29.2969	67.5623	29.2969	66.1679	29.2969	68.7286	29.2969	67.0677	29.2969	69.9296	29.2969	68.1849	29.2969	71.0765	29.2969	69.3892	29.2969	72.1133	29.2969	70.575	29.2969	73.0056	29.2969	71.672	29.2969	73.732	29.2969	72.6366	29.2969	74.2781	29.2969	73.4416	29.2969	74.6337	29.2969	74.0693	29.2969	74.7921	29.2969	74.508	29.2969	74.7502
30.7617	68.5412	30.7617	68.4443	30.7617	68.5552	30.7617	68.2846	30.7617	68.4829	30.7617	68.103	30.7617	68.3357	30.7617	67.9677	30.7617	68.1438	30.7617	67.9725	30.7617	67.9622	30.7617	68.2145	30.7617	67.8748	30.7617	68.749	30.7617	67.984	30.7617	69.5542	30.7617	68.3739	30.7617	70.5429	30.7617	69.0629	30.7617	71.6079	30.7617	69.989	30.7617	72.6579	30.7617	71.0458	30.7617	73.6277	30.7617	72.1288	30.7617	74.4744	30.7617	73.1579	30.7617	75.1696	30.7617	74.0793	30.7617	75.6945	30.7617	74.8576	30.7617	76.0362	30.7617	75.4699	30.7617	76.1865	30.7617	75.9009	30.7617	76.1413
32.2266	70.5355	32.2266	70.4529	32.2266	70.5444	32.2266	70.3135	32.2266	70.4764	32.2266	70.1517	32.2266	70.3416	32.2266	70.024	32.2266	70.1657	32.2266	70.008	32.2266	69.995	32.2266	70.1878	32.2266	69.8995	32.2266	70.6207	32.2266	69.9665	32.2266	71.3047	32.2266	70.274	32.2266	72.1772	32.2266	70.8518	32.2266	73.1465	32.2266	71.6616	32.2266	74.1247	32.2266	72.6168	32.2266	75.0436	32.2266	73.6208	32.2266	75.8555	32.2266	74.5929	32.2266	76.5278	32.2266	75.4745	32.2266	77.0383	32.2266	76.2259	32.2266	77.3718	32.2266	76.8204	32.2266	77.5189	32.2266	77.2404	32.2266	77.475
33.6914	71.8842	33.6914	71.8159	33.6914	71.8981	33.6914	71.7116	33.6914	71.8546	33.6914	71.6073	33.6914	71.7653	33.6914	71.5589	33.6914	71.6579	33.6914	71.6374	33.6914	71.5788	33.6914	71.9112	33.6914	71.5921	33.6914	72.4171	33.6914	71.7691	33.6914	73.1393	33.6914	72.164	33.6914	74.0158	33.6914	72.7872	33.6914	74.9656	33.6914	73.5976	33.6914	75.913	33.6914	74.5211	33.6914	76.7989	33.6914	75.4781	33.6914	77.5808	33.6914	76.4008	33.6914	78.2284	33.6914	77.2379	33.6914	78.7207	33.6914	77.9528	33.6914	79.0429	33.6914	78.5198	33.6914	79.1857	33.6914	78.9209	33.6914	79.1448
35.1562	74.3085	35.1562	74.2659	35.1562	74.3144	35.1562	74.2009	35.1562	74.2806	35.1562	74.1399	35.1562	74.2147	35.1562	74.1215	35.1562	74.136	35.1562	74.1939	35.1562	74.0766	35.1562	74.4049	35.1562	74.081	35.1562	74.7857	35.1562	74.2005	35.1562	75.3372	35.1562	74.4798	35.1562	76.0271	35.1562	74.9398	35.1562	76.8011	35.1562	75.5665	35.1562	77.5986	35.1562	76.3142	35.1562	78.3649	35.1562	77.1215	35.1562	79.0552	35.1562	77.9267	35.1562	79.6352	35.1562	78.6768	35.1562	80.0797	35.1562	79.3306	35.1562	80.3704	35.1562	79.8574	35.1562	80.4958	35.1562	80.2354	35.1562	80.4506
36.6211	76.1114	36.6211	76.0802	36.6211	76.1154	36.6211	76.0343	36.6211	76.0896	36.6211	75.9966	36.6211	76.0409	36.6211	76.0001	36.6211	75.9864	36.6211	76.0849	36.6211	75.9538	36.6211	76.2909	36.6211	75.9805	36.6211	76.6448	36.6211	76.1089	36.6211	77.1493	36.6211	76.3757	36.6211	77.7796	36.6211	76.7993	36.6211	78.4908	36.6211	77.3702	36.6211	79.2298	36.6211	78.0525	36.6211	79.9461	36.6211	78.7944	36.6211	80.5962	36.6211	79.541	36.6211	81.146	36.6211	80.2427	36.6211	81.569	36.6211	80.8588	36.6211	81.8466	36.6211	81.3582	36.6211	81.9666	36.6211	81.718	36.6211	81.9234
38.0859	77.6805	38.0859	77.655	38.0859	77.683	38.0859	77.6172	38.0859	77.6604	38.0859	77.5873	38.0859	77.6189	38.0859	77.5938	38.0859	77.5738	38.0859	77.672	38.0859	77.5496	38.0859	77.8574	38.0859	77.579	38.0859	78.1754	38.0859	77.6988	38.0859	78.6318	38.0859	77.9421	38.0859	79.2082	38.0859	78.3268	38.0859	79.8664	38.0859	78.8477	38.0859	80.5584	38.0859	79.4755	38.0859	81.236	38.0859	80.1653	38.0859	81.8563	38.0859	80.8662	38.0859	82.3842	38.0859	81.5306	38.0859	82.7927	38.0859	82.1179	38.0859	83.0619	38.0859	82.5961	38.0859	83.1793	38.0859	82.9417	38.0859	83.1388
39.5508	79.4365	39.5508	79.4227	39.5508	79.4383	39.5508	79.4067	39.5508	79.4261	39.5508	79.4055	39.5508	79.4047	39.5508	79.443	39.5508	79.3867	39.5508	79.547	39.5508	79.392	39.5508	79.7448	39.5508	79.4467	39.5508	80.0553	39.5508	79.5797	39.5508	80.4821	39.5508	79.8168	39.5508	81.0103	39.5508	80.1728	39.5508	81.6092	39.5508	80.6448	39.5508	82.239	39.5508	81.2112	39.5508	82.8578	39.5508	81.836	39.5508	83.4269	39.5508	82.476	39.5508	83.9131	39.5508	83.0884	39.5508	84.2898	39.5508	83.6347	39.5508	84.5372	39.5508	84.0835	39.5508	84.6426	39.5508	84.4107	39.5508	84.5999
41.0156	81.1002	41.0156	81.0968	41.0156	81.0984	41.0156	81.0968	41.0156	81.089	41.0156	81.1149	41.0156	81.0756	41.0156	81.171	41.0156	81.0682	41.0156	81.2876	41.0156	81.0829	41.0156	81.4865	41.0156	81.1405	41.0156	81.7827	41.0156	81.2646	41.0156	82.179	41.0156	81.4767	41.0156	82.6636	41.0156	81.7905	41.0156	83.2115	41.0156	82.2066	41.0156	83.7885	41.0156	82.7104	41.0156	84.3573	41.0156	83.2742	41.0156	84.8815	41.0156	83.8617	41.0156	85.3288	41.0156	84.4343	41.0156	85.6725	41.0156	84.9551	41.0156	85.8925	41.0156	85.3918	41.0156	85.9756	41.0156	85.7186	41.0156	85.9168
42.4805	82.6137	42.4805	82.619	42.4805	82.6085	42.4805	82.6316	42.4805	82.6014	42.4805	82.6639	42.4805	82.5955	42.4805	82.7321	42.4805	82.5993	42.4805	82.8548	42.4805	82.6261	42.4805	83.0495	42.4805	82.6933	42.4805	83.3286	42.4805	82.8203	42.4805	83.6949	42.4805	83.0246	42.4805	84.1392	42.4805	83.3178	42.4805	84.6409	42.4805	83.701	42.4805	85.1709	42.4805	84.1627	42.4805	85.6957	42.4805	84.6801	42.4805	86.182	42.4805	85.2218	42.4805	86.5988	42.4805	85.7529	42.4805	86.92	42.4805	86.2391	42.4805	87.1257	42.4805	86.6491	42.4805	87.2026	42.4805	86.9575	42.4805	87.1457
43.9453	84.0086	43.9453	84.0173	43.9453	84.004	43.9453	84.0366	43.9453	84.0018	43.9453	84.0767	43.9453	84.0045	43.9453	84.1513	43.9453	84.0192	43.9453	84.2759	43.9453	84.057	43.9453	84.4651	43.9453	84.1322	43.9453	84.7292	43.9453	84.2607	43.9453	85.0708	43.9453	84.4572	43.9453	85.4824	43.9453	84.7315	43.9453	85.9465	43.9453	85.0851	43.9453	86.4378	43.9453	85.5092	43.9453	86.9262	43.9453	85.9848	43.9453	87.3805	43.9453	86.4849	43.9453	87.7716	43.9453	86.9779	43.9453	88.0738	43.9453	87.4318	43.9453	88.2675	43.9453	87.8167	43.9453	88.3399	43.9453	88.1074	43.9453	88.2855
45.4102	85.294	45.4102	85.3101	45.4102	85.2866	45.4102	85.3403	45.4102	85.2863	45.4102	85.3929	45.4102	85.2954	45.4102	85.4792	45.4102	85.3195	45.4102	85.6115	45.4102	85.3678	45.4102	85.8011	45.4102	85.4519	45.4102	86.0562	45.4102	85.5848	45.4102	86.3784	45.4102	85.7783	45.4102	86.7616	45.4102	86.0403	45.4102	87.1909	45.4102	86.3721	45.4102	87.6446	45.4102	86.7663	45.4102	88.0962	45.4102	87.2069	45.4102	88.5174	45.4102	87.6705	45.4102	88.8808	45.4102	88.1289	45.4102	89.1621	45.4102	88.5525	45.4102	89.3423	45.4102	88.9134	45.4102	89.4086	45.4102	89.1872	45.4102	89.3559
46.875	86.4625	46.875	86.4819	46.875	86.4544	46.875	86.517	46.875	86.4563	46.875	86.5748	46.875	86.47	46.875	86.6643	46.875	86.5001	46.875	86.7956	46.875	86.5541	46.875	86.9779	46.875	86.6415	46.875	87.218	46.875	86.7727	46.875	87.5172	46.875	86.9573	46.875	87.8707	46.875	87.2019	46.875	88.2659	46.875	87.5079	46.875	88.684	46.875	87.8696	46.875	89.1013	46.875	88.2736	46.875	89.4919	46.875	88.6999	46.875	89.83	46.875	89.1234	46.875	90.0923	46.875	89.5169	46.875	90.2602	46.875	89.854	46.875	90.3212	46.875	90.1111	46.875	90.2705
48.3398	87.4775	48.3398	87.5014	48.3398	87.4684	48.3398	87.5435	48.3398	87.4729	48.3398	87.6094	48.3398	87.4922	48.3398	87.7065	48.3398	87.5302	48.3398	87.8425	48.3398	87.5928	48.3398	88.0246	48.3398	87.6873	48.3398	88.2579	48.3398	87.8219	48.3398	88.5431	48.3398	88.0043	48.3398	88.8755	48.3398	88.2394	48.3398	89.2446	48.3398	88.5282	48.3398	89.6337	48.3398	88.8659	48.3398	90.0217	48.3398	89.2413	48.3398	90.3851	48.3398	89.637	48.3398	90.6999	48.3398	90.0308	48.3398	90.9442	48.3398	90.3981	48.3398	91.1002	48.3398	90.7139	48.3398	91.156	48.3398	90.9559	48.3398	91.1069
51.2695	89.1267	51.2695	89.1566	51.2695	89.1147	51.2695	89.2066	51.2695	89.1199	51.2695	89.2801	51.2695	89.143	51.2695	89.3815	51.2695	89.1863	51.2695	89.5154	51.2695	89.2533	51.2695	89.686	51.2695	89.3484	51.2695	89.896	51.2695	89.4768	51.2695	90.1456	51.2695	89.6431	51.2695	90.4314	51.2695	89.8505	51.2695	90.7455	51.2695	90.0998	51.2695	91.0755	51.2695	90.3879	51.2695	91.4049	51.2695	90.7068	51.2695	91.7143	51.2695	91.0437	51.2695	91.9831	51.2695	91.3812	51.2695	92.1919	51.2695	91.6985	51.2695	92.3243	51.2695	91.974	51.2695	92.3694	51.2695	92.1875	51.2695	92.3227
52.7344	89.6973	52.7344	89.729	52.7344	89.6855	52.7344	89.7824	52.7344	89.6929	52.7344	89.8599	52.7344	89.7201	52.7344	89.9647	52.7344	89.7687	52.7344	90.1003	52.7344	89.8412	52.7344	90.2695	52.7344	89.9409	52.7344	90.4741	52.7344	90.0715	52.7344	90.7139	52.7344	90.2363	52.7344	90.9853	52.7344	90.4377	52.7344	91.2815	52.7344	90.676	52.7344	91.5913	52.7344	90.9482	52.7344	91.9	52.7344	91.2476	52.7344	92.1898	52.7344	91.5629	52.7344	92.4418	52.7344	91.8783	52.7344	92.6377	52.7344	92.1751	52.7344	92.7621	52.7344	92.4332	52.7344	92.8044	52.7344	92.6335	52.7344	92.7606
54.1992	90.1692	54.1992	90.2047	54.1992	90.1555	54.1992	90.263	54.1992	90.1632	54.1992	90.3458	54.1992	90.1926	54.1992	90.4552	54.1992	90.2446	54.1992	90.5932	54.1992	90.3209	54.1992	90.7615	54.1992	90.4238	54.1992	90.9608	54.1992	90.5555	54.1992	91.1903	54.1992	90.7182	54.1992	91.4467	54.1992	90.9133	54.1992	91.7237	54.1992	91.1405	54.1992	92.0116	54.1992	91.3971	54.1992	92.2974	54.1992	91.6772	54.1992	92.5654	54.1992	91.9708	54.1992	92.7982	54.1992	92.2641	54.1992	92.9789	54.1992	92.5404	54.1992	93.0931	54.1992	92.7812	54.1992	93.1309	54.1992	92.9688	54.1992	93.0885
55.6641	90.5506	55.6641	90.5882	55.6641	90.536	55.6641	90.6494	55.6641	90.5441	55.6641	90.7351	55.6641	90.5752	55.6641	90.8463	55.6641	90.6297	55.6641	90.984	55.6641	90.7086	55.6641	91.149	55.6641	90.813	55.6641	91.3412	55.6641	90.9442	55.6641	91.5593	55.6641	91.1034	55.6641	91.8002	55.6641	91.291	55.6641	92.0583	55.6641	91.5063	55.6641	92.3251	55.6641	91.7469	55.6641	92.5892	55.6641	92.0075	55.6641	92.8364	55.6641	92.2794	55.6641	93.051	55.6641	92.5508	55.6641	93.2176	55.6641	92.8065	55.6641	93.3225	55.6641	93.0298	55.6641	93.3566	55.6641	93.2043	55.6641	93.3162
58.5938	91.1383	58.5938	91.1792	58.5938	91.1222	58.5938	91.2449	58.5938	91.131	58.5938	91.3348	58.5938	91.1646	58.5938	91.4485	58.5938	91.2227	58.5938	91.5852	58.5938	91.3049	58.5938	91.744	58.5938	91.4108	58.5938	91.9233	58.5938	91.5398	58.5938	92.1213	58.5938	91.6913	58.5938	92.3348	58.5938	91.8644	58.5938	92.5593	58.5938	92.0579	58.5938	92.7882	58.5938	92.2694	58.5938	93.0128	58.5938	92.4947	58.5938	93.2217	58.5938	92.7277	58.5938	93.4025	58.5938	92.9592	58.5938	93.542	58.5938	93.1776	58.5938	93.6289	58.5938	93.3691	58.5938	93.6552	58.5938	93.5199	58.5938	93.618
60.0586	91.3842	60.0586	91.4249	60.0586	91.369	60.0586	91.4906	60.0586	91.3795	60.0586	91.5805	60.0586	91.4153	60.0586	91.6934	60.0586	91.4757	60.0586	91.8279	60.0586	91.5599	60.0586	91.9824	60.0586	91.6665	60.0586	92.1548	60.0586	91.7944	60.0586	92.343	60.0586	91.9422	60.0586	92.5437	60.0586	92.1085	60.0586	92.7529	60.0586	92.2916	60.0586	92.9647	60.0586	92.4891	60.0586	93.1715	60.0586	92.6975	60.0586	93.3634	60.0586	92.9115	60.0586	93.5291	60.0586	93.1234	60.0586	93.6569	60.0586	93.3229	60.0586	93.7365	60.0586	93.498	60.0586	93.7604	60.0586	93.636	60.0586	93.726
62.9883	91.7702	62.9883	91.8124	62.9883	91.7544	62.9883	91.8799	62.9883	91.7653	62.9883	91.9711	62.9883	91.8024	62.9883	92.0837	62.9883	91.8644	62.9883	92.2149	62.9883	91.9495	62.9883	92.362	62.9883	92.0555	62.9883	92.522	62.9883	92.1797	62.9883	92.6919	62.9883	92.3196	62.9883	92.8687	62.9883	92.4728	62.9883	93.0488	62.9883	92.6368	62.9883	93.2278	62.9883	92.8094	62.9883	93.4	62.9883	92.9877	62.9883	93.5581	62.9883	93.1678	62.9883	93.6935	62.9883	93.3445	62.9883	93.7971	62.9883	93.5101	62.9883	93.8606	62.9883	93.6556	62.9883	93.878	62.9883	93.7711	62.9883	93.8473
64.4531	91.9706	64.4531	92.0129	64.4531	91.9544	64.4531	92.0799	64.4531	91.9645	64.4531	92.1696	64.4531	92.0006	64.4531	92.2795	64.4531	92.0611	64.4531	92.4063	64.4531	92.1438	64.4531	92.5469	64.4531	92.2462	64.4531	92.698	64.4531	92.3652	64.4531	92.8566	64.4531	92.4978	64.4531	93.0195	64.4531	92.6413	64.4531	93.1836	64.4531	92.793	64.4531	93.3449	64.4531	92.9506	64.4531	93.4988	64.4531	93.1119	64.4531	93.639	64.4531	93.2736	64.4531	93.7582	64.4531	93.4316	64.4531	93.8485	64.4531	93.5799	64.4531	93.9026	64.4531	93.7107	64.4531	93.9155	64.4531	93.8154	64.4531	93.8856
67.3828	92.2663	67.3828	92.3115	67.3828	92.2478	67.3828	92.3815	67.3828	92.2564	67.3828	92.4738	67.3828	92.2915	67.3828	92.5848	67.3828	92.3512	67.3828	92.7105	67.3828	92.4327	67.3828	92.8469	67.3828	92.5325	67.3828	92.9898	67.3828	92.6468	67.3828	93.1355	67.3828	92.7717	67.3828	93.2809	67.3828	92.9038	67.3828	93.4228	67.3828	93.0399	67.3828	93.5582	67.3828	93.1777	67.3828	93.6837	67.3828	93.3153	67.3828	93.7952	67.3828	93.4508	67.3828	93.8876	67.3828	93.5816	67.3828	93.955	67.3828	93.7043	67.3828	93.9923	67.3828	93.8134	67.3828	93.996	67.3828	93.9026	67.3828	93.9652
68.8477	92.3692	68.8477	92.4152	68.8477	92.3503	68.8477	92.4866	68.8477	92.3592	68.8477	92.5802	68.8477	92.3951	68.8477	92.6923	68.8477	92.456	68.8477	92.8184	68.8477	92.5387	68.8477	92.9539	68.8477	92.6395	68.8477	93.0944	68.8477	92.754	68.8477	93.2359	68.8477	92.8779	68.8477	93.3749	68.8477	93.0073	68.8477	93.5084	68.8477	93.1388	68.8477	93.6337	68.8477	93.2699	68.8477	93.748	68.8477	93.3988	68.8477	93.8481	68.8477	93.5238	68.8477	93.9297	68.8477	93.6433	68.8477	93.9883	68.8477	93.7544	68.8477	94.0196	68.8477	93.8531	68.8477	94.0208	68.8477	93.934	68.8477	93.9915
71.7773	92.5005	71.7773	92.5482	71.7773	92.4805	71.7773	92.6212	71.7773	92.4887	71.7773	92.716	71.7773	92.5246	71.7773	92.8281	71.7773	92.5859	71.7773	92.9525	71.7773	92.6689	71.7773	93.0837	71.7773	92.7693	71.7773	93.2169	71.7773	92.882	71.7773	93.3474	71.7773	93.002	71.7773	93.4717	71.7773	93.1245	71.7773	93.587	71.7773	93.2457	71.7773	93.6911	71.7773	93.3626	71.7773	93.7824	71.7773	93.4736	71.7773	93.8592	71.7773	93.5776	71.7773	93.9194	71.7773	93.6742	71.7773	93.9606	71.7773	93.7623	71.7773	93.9803	71.7773	93.84	71.7773	93.9771	71.7773	93.9041	71.7773	93.951
74.707	92.5311	74.707	92.5797	74.707	92.5108	74.707	92.654	74.707	92.5197	74.707	92.7502	74.707	92.5569	74.707	92.8632	74.707	92.6199	74.707	92.9873	74.707	92.7048	74.707	93.1167	74.707	92.8065	74.707	93.2455	74.707	92.9196	74.707	93.3689	74.707	93.0382	74.707	93.4828	74.707	93.1569	74.707	93.5844	74.707	93.2713	74.707	93.6719	74.707	93.378	74.707	93.7447	74.707	93.4753	74.707	93.8025	74.707	93.5625	74.707	93.8448	74.707	93.6399	74.707	93.8714	74.707	93.7081	74.707	93.8815	74.707	93.7672	74.707	93.875	74.707	93.8159	74.707	93.8526
77.6367	92.6371	77.6367	92.686	77.6367	92.6165	77.6367	92.7603	77.6367	92.625	77.6367	92.8558	77.6367	92.6619	77.6367	92.9672	77.6367	92.7244	77.6367	93.0883	77.6367	92.8084	77.6367	93.2127	77.6367	92.9086	77.6367	93.3342	77.6367	93.0188	77.6367	93.4474	77.6367	93.1327	77.6367	93.548	77.6367	93.2444	77.6367	93.6332	77.6367	93.3488	77.6367	93.7017	77.6367	93.4425	77.6367	93.7536	77.6367	93.5233	77.6367	93.7899	77.6367	93.5912	77.6367	93.8123	77.6367	93.6474	77.6367	93.8224	77.6367	93.6939	77.6367	93.8214	77.6367	93.7329	77.6367	93.8108	77.6367	93.7655	77.6367	93.7917
79.1016	92.6927	79.1016	92.7406	79.1016	92.6726	79.1016	92.8137	79.1016	92.6813	79.1016	92.9076	79.1016	92.7181	79.1016	93.0168	79.1016	92.7801	79.1016	93.1351	79.1016	92.8632	79.1016	93.2557	79.1016	92.9618	79.1016	93.3724	79.1016	93.0697	79.1016	93.4797	79.1016	93.1803	79.1016	93.573	79.1016	93.2874	79.1016	93.6496	79.1016	93.386	79.1016	93.7084	79.1016	93.4721	79.1016	93.7499	79.1016	93.5439	79.1016	93.7757	79.1016	93.6015	79.1016	93.7884	79.1016	93.6464	79.1016	93.7905	79.1016	93.6816	79.1016	93.7843	79.1016	93.7101	79.1016	93.7719	79.1016	93.7342	79.1016	93.7548
82.0312	92.6899	82.0312	92.7359	82.0312	92.6716	82.0312	92.8067	82.0312	92.6818	82.0312	92.8979	82.0312	92.7196	82.0312	93.0038	82.0312	92.7823	82.0312	93.1178	82.0312	92.8653	82.0312	93.2331	82.0312	92.9629	82.0312	93.3429	82.0312	93.0684	82.0312	93.4413	82.0312	93.1749	82.0312	93.5237	82.0312	93.2758	82.0312	93.5871	82.0312	93.3655	82.0312	93.6308	82.0312	93.44	82.0312	93.6557	82.0312	93.4974	82.0312	93.6647	82.0312	93.5379	82.0312	93.6617	82.0312	93.564	82.0312	93.6511	82.0312	93.5799	82.0312	93.6368	82.0312	93.5902	82.0312	93.6222	82.0312	93.5991	82.0312	93.6094
84.9609	92.6539	84.9609	92.6994	84.9609	92.6357	84.9609	92.7693	84.9609	92.6459	84.9609	92.859	84.9609	92.6837	84.9609	92.9627	84.9609	92.7461	84.9609	93.0735	84.9609	92.8287	84.9609	93.1842	84.9609	92.9253	84.9609	93.2878	84.9609	93.0289	84.9609	93.378	84.9609	93.1324	84.9609	93.4501	84.9609	93.2285	84.9609	93.5011	84.9609	93.3112	84.9609	93.5303	84.9609	93.3762	84.9609	93.5395	84.9609	93.4212	84.9609	93.5324	84.9609	93.4469	84.9609	93.5145	84.9609	93.4564	84.9609	93.4917	84.9609	93.4547	84.9609	93.4697	84.9609	93.4484	84.9609	93.453	84.9609	93.4433	84.9609	93.4441
87.8906	92.802	87.8906	92.8482	87.8906	92.7825	87.8906	92.9181	87.8906	92.791	87.8906	93.0071	87.8906	92.8267	87.8906	93.1091	87.8906	92.8869	87.8906	93.2173	87.8906	92.9673	87.8906	93.3243	87.8906	93.0616	87.8906	93.4232	87.8906	93.1628	87.8906	93.5074	87.8906	93.2632	87.8906	93.572	87.8906	93.3555	87.8906	93.614	87.8906	93.4333	87.8906	93.6329	87.8906	93.4918	87.8906	93.6308	87.8906	93.5288	87.8906	93.612	87.8906	93.5448	87.8906	93.5828	87.8906	93.5434	87.8906	93.5505	87.8906	93.5304	87.8906	93.5219	87.8906	93.5134	87.8906	93.5023	87.8906	93.4996	87.8906	93.4949
90.8203	92.893	90.8203	92.9393	90.8203	92.8731	90.8203	93.0089	90.8203	92.8811	90.8203	93.0971	90.8203	92.9165	90.8203	93.1976	90.8203	92.9768	90.8203	93.3035	90.8203	93.0576	90.8203	93.4074	90.8203	93.1527	90.8203	93.502	90.8203	93.2549	90.8203	93.5807	90.8203	93.3562	90.8203	93.6384	90.8203	93.4487	90.8203	93.6721	90.8203	93.5252	90.8203	93.6814	90.8203	93.5806	90.8203	93.6686	90.8203	93.6119	90.8203	93.6391	90.8203	93.6195	90.8203	93.6003	90.8203	93.607	90.8203	93.5606	90.8203	93.581	90.8203	93.5283	90.8203	93.5501	90.8203	93.5099	90.8203	93.5234	90.8203	93.5084
95.2148	92.8268	95.2148	92.8734	95.2148	92.8046	95.2148	92.9411	95.2148	92.8082	95.2148	93.0253	95.2148	92.8375	95.2148	93.1197	95.2148	92.8901	95.2148	93.2174	95.2148	92.9618	95.2148	93.3107	95.2148	93.0467	95.2148	93.392	95.2148	93.1375	95.2148	93.4545	95.2148	93.226	95.2148	93.4929	95.2148	93.3039	95.2148	93.5039	95.2148	93.3639	95.2148	93.4875	95.2148	93.4003	95.2148	93.4468	95.2148	93.4101	95.2148	93.3885	95.2148	93.394	95.2148	93.3221	95.2148	93.3562	95.2148	93.2587	95.2148	93.3051	95.2148	93.2092	95.2148	93.2514	95.2148	93.1821	95.2148	93.207	95.2148	93.1817
98.1445	92.8295	98.1445	92.8749	98.1445	92.808	98.1445	92.9411	98.1445	92.8119	98.1445	93.0232	98.1445	92.8409	98.1445	93.1152	98.1445	92.8929	98.1445	93.2099	98.1445	92.9636	98.1445	93.2998	98.1445	93.0472	98.1445	93.377	98.1445	93.1363	98.1445	93.4344	98.1445	93.2225	98.1445	93.4665	98.1445	93.2973	98.1445	93.47	98.1445	93.3529	98.1445	93.4448	98.1445	93.3835	98.1445	93.3943	98.1445	93.3859	98.1445	93.326	98.1445	93.3607	98.1445	93.2501	98.1445	93.3125	98.1445	93.1789	98.1445	93.2502	98.1445	93.1247	98.1445	93.1855	98.1445	93.0967	98.1445	93.1315	98.1445	93.0994
101.074	92.8348	101.074	92.8793	101.074	92.8131	101.074	92.9435	101.074	92.8159	101.074	93.0226	101.074	92.8429	101.074	93.1108	101.074	92.8922	101.074	93.2009	101.074	92.9601	101.074	93.2852	101.074	93.0407	101.074	93.3558	101.074	93.1269	101.074	93.4055	101.074	93.21	101.074	93.4285	101.074	93.2815	101.074	93.4214	101.074	93.3331	101.074	93.3844	101.074	93.3585	101.074	93.3213	101.074	93.3539	101.074	93.2403	101.074	93.3197	101.074	93.1531	101.074	93.2604	101.074	93.0735	101.074	93.1851	101.074	93.015	101.074	93.1066	101.074	92.988	101.074	93.0395	101.074	92.997
105.469	92.7477	105.469	92.7947	105.469	92.7212	105.469	92.8591	105.469	92.7171	105.469	92.9362	105.469	92.7355	105.469	93.0201	105.469	92.7749	105.469	93.1039	105.469	92.8321	105.469	93.1799	105.469	92.9015	105.469	93.2401	105.469	92.9761	105.469	93.277	105.469	93.0474	105.469	93.2849	105.469	93.1064	105.469	93.2603	105.469	93.1448	105.469	93.2034	105.469	93.1558	105.469	93.1186	105.469	93.1358	105.469	93.0148	105.469	93.085	105.469	92.9053	105.469	93.0087	105.469	92.8057	105.469	92.9172	105.469	92.7315	105.469	92.8249	105.469	92.6949	105.469	92.7478	105.469	92.7012
108.398	92.7688	108.398	92.8155	108.398	92.7423	108.398	92.8791	108.398	92.7376	108.398	92.9552	108.398	92.7549	108.398	93.038	108.398	92.7928	108.398	93.1205	108.398	92.8481	108.398	93.1948	108.398	92.9153	108.398	93.2528	108.398	92.9874	108.398	93.2869	108.398	93.0561	108.398	93.291	108.398	93.1122	108.398	93.2615	108.398	93.1472	108.398	93.1986	108.398	93.1543	108.398	93.107	108.398	93.1297	108.398	92.9961	108.398	93.0738	108.398	92.8796	108.398	92.9919	108.398	92.7742	108.398	92.8946	108.398	92.6961	108.398	92.7966	108.398	92.6578	108.398	92.7149	108.398	92.665
112.793	92.6635	112.793	92.708	112.793	92.6387	112.793	92.769	112.793	92.6354	112.793	92.8424	112.793	92.6539	112.793	92.9225	112.793	92.693	112.793	93.0024	112.793	92.7497	112.793	93.0744	112.793	92.8188	112.793	93.1302	112.793	92.8933	112.793	93.1619	112.793	92.9643	112.793	93.1632	112.793	93.0225	112.793	93.1305	112.793	93.0587	112.793	93.0637	112.793	93.0657	112.793	92.9677	112.793	93.0391	112.793	92.8525	112.793	92.9791	112.793	92.7327	112.793	92.8908	112.793	92.6255	112.793	92.7852	112.793	92.5481	112.793	92.6776	112.793	92.5136	112.793	92.5861	112.793	92.5275
117.188	92.487	117.188	92.5291	117.188	92.463	117.188	92.5862	117.188	92.4586	117.188	92.6544	117.188	92.4748	117.188	92.7286	117.188	92.5107	117.188	92.802	117.188	92.5638	117.188	92.8672	117.188	92.6293	117.188	92.9159	117.188	92.7004	117.188	92.9401	117.188	92.7682	117.188	92.9333	117.188	92.8231	117.188	92.8915	117.188	92.8554	117.188	92.815	117.188	92.8574	117.188	92.7089	117.188	92.8242	117.188	92.5837	117.188	92.7556	117.188	92.4551	117.188	92.657	117.188	92.3417	117.188	92.5395	117.188	92.2616	117.188	92.4197	117.188	92.2288	117.188	92.3165	117.188	92.2485
120.117	92.4631	120.117	92.5033	120.117	92.4386	120.117	92.5561	120.117	92.4317	120.117	92.6181	120.117	92.4436	120.117	92.6845	120.117	92.4743	120.117	92.7491	120.117	92.5217	120.117	92.8048	120.117	92.5819	120.117	92.8439	120.117	92.6482	120.117	92.8587	120.117	92.7121	120.117	92.8428	120.117	92.7637	120.117	92.7924	120.117	92.7931	120.117	92.7081	120.117	92.7919	120.117	92.595	120.117	92.755	120.117	92.4644	120.117	92.6816	120.117	92.3321	120.117	92.5769	120.117	92.2174	120.117	92.4522	120.117	92.1389	120.117	92.3241	120.117	92.1102	120.117	92.2124	120.117	92.1364
124.512	92.683	124.512	92.7254	124.512	92.6535	124.512	92.7781	124.512	92.6392	124.512	92.8377	124.512	92.6418	124.512	92.8998	124.512	92.6618	124.512	92.959	124.512	92.6982	124.512	93.0085	124.512	92.7477	124.512	93.041	124.512	92.8045	124.512	93.0492	124.512	92.8604	124.512	93.0269	124.512	92.9057	124.512	92.9704	124.512	92.9304	124.512	92.8802	124.512	92.9259	124.512	92.7615	124.512	92.8868	124.512	92.6254	124.512	92.8121	124.512	92.4879	124.512	92.707	124.512	92.3681	124.512	92.5826	124.512	92.2846	124.512	92.4559	124.512	92.2514	124.512	92.3465	124.512	92.2738
128.906	92.6435	128.906	92.685	128.906	92.6128	128.906	92.735	128.906	92.5953	128.906	92.7906	128.906	92.5927	128.906	92.8477	128.906	92.6063	128.906	92.9015	128.906	92.6359	128.906	92.9455	128.906	92.6789	128.906	92.9725	128.906	92.7305	128.906	92.9753	128.906	92.783	128.906	92.9479	128.906	92.8267	128.906	92.8868	128.906	92.8517	128.906	92.7925	128.906	92.8487	128.906	92.6709	128.906	92.8119	128.906	92.5334	128.906	92.7397	128.906	92.3963	128.906	92.6365	128.906	92.2788	128.906	92.5132	128.906	92.1994	128.906	92.3859	128.906	92.171	128.906	92.2745	128.906	92.198
133.301	92.6171	133.301	92.6556	133.301	92.5856	133.301	92.6991	133.301	92.5635	133.301	92.7448	133.301	92.5526	133.301	92.7891	133.301	92.5544	133.301	92.8274	133.301	92.569	133.301	92.8536	133.301	92.5946	133.301	92.8607	133.301	92.6268	133.301	92.8417	133.301	92.6585	133.301	92.7906	133.301	92.6807	133.301	92.7045	133.301	92.6835	133.301	92.5843	133.301	92.6584	133.301	92.4367	133.301	92.5993	133.301	92.2743	133.301	92.5052	133.301	92.1152	133.301	92.381	133.301	91.9801	133.301	92.2382	133.301	91.889	133.301	92.094	133.301	91.8558	133.301	91.9693	133.301	91.8847
139.16	92.4425	139.16	92.484	139.16	92.41	139.16	92.5322	139.16	92.3886	139.16	92.5844	139.16	92.3799	139.16	92.6364	139.16	92.3851	139.16	92.683	139.16	92.4039	139.16	92.717	139.16	92.4338	139.16	92.7303	139.16	92.4694	139.16	92.7146	139.16	92.5027	139.16	92.6629	139.16	92.5238	139.16	92.5713	139.16	92.5223	139.16	92.4407	139.16	92.489	139.16	92.2779	139.16	92.4184	139.16	92.0969	139.16	92.3101	139.16	91.9174	139.16	92.1703	139.16	91.7627	139.16	92.0122	139.16	91.6551	139.16	91.8552	139.16	91.6107	139.16	91.7221	139.16	91.6351
143.555	92.2894	143.555	92.3306	143.555	92.2546	143.555	92.3761	143.555	92.2287	143.555	92.4237	143.555	92.2144	143.555	92.4704	143.555	92.2142	143.555	92.5118	143.555	92.2295	143.555	92.5419	143.555	92.2589	143.555	92.5528	143.555	92.2977	143.555	92.5367	143.555	92.3379	143.555	92.4863	143.555	92.3687	143.555	92.3976	143.555	92.3783	143.555	92.2713	143.555	92.3564	143.555	92.1142	143.555	92.296	143.555	91.9399	143.555	92.1958	143.555	91.7683	143.555	92.0615	143.555	91.6224	143.555	91.906	143.555	91.5239	143.555	91.7487	143.555	91.4881	143.555	91.6125	143.555	91.52
147.949	92.3526	147.949	92.3916	147.949	92.3147	147.949	92.4302	147.949	92.2803	147.949	92.4673	147.949	92.2527	147.949	92.501	147.949	92.2357	147.949	92.5284	147.949	92.2323	147.949	92.5446	147.949	92.2435	147.949	92.5435	147.949	92.2669	147.949	92.5179	147.949	92.2962	147.949	92.4616	147.949	92.322	147.949	92.3709	147.949	92.3329	147.949	92.2468	147.949	92.318	147.949	92.096	147.949	92.2692	147.949	91.9318	147.949	92.1836	147.949	91.7729	147.949	92.0652	147.949	91.6405	147.949	91.925	147.949	91.5543	147.949	91.7803	147.949	91.5273	147.949	91.6524	147.949	91.5626
153.809	92.5083	153.809	92.5452	153.809	92.468	153.809	92.5769	153.809	92.4267	153.809	92.6023	153.809	92.3879	153.809	92.6197	153.809	92.3556	153.809	92.6261	153.809	92.3333	153.809	92.6173	153.809	92.3228	153.809	92.588	153.809	92.3233	153.809	92.5323	153.809	92.33	153.809	92.4455	153.809	92.3347	153.809	92.326	153.809	92.3274	153.809	92.1769	153.809	92.2979	153.809	92.0071	153.809	92.2384	153.809	91.8317	153.809	92.1459	153.809	91.6703	153.809	92.0234	153.809	91.5436	153.809	91.8806	153.809	91.4686	153.809	91.7332	153.809	91.4548	153.809	91.6003	153.809	91.502
159.668	92.2878	159.668	92.3317	159.668	92.2442	159.668	92.3741	159.668	92.2029	159.668	92.4128	159.668	92.1661	159.668	92.4447	159.668	92.1359	159.668	92.4645	159.668	92.1138	159.668	92.4654	159.668	92.099	159.668	92.439	159.668	92.0882	159.668	92.3767	159.668	92.0748	159.668	92.2718	159.668	92.0499	159.668	92.121	159.668	92.0035	159.668	91.9271	159.668	91.9268	159.668	91.7005	159.668	91.8147	159.668	91.4594	159.668	91.6674	159.668	91.2285	159.668	91.4923	159.668	91.0351	159.668	91.3037	159.668	90.9033	159.668	91.1221	159.668	90.8484	159.668	90.9711	159.668	90.8739
165.527	91.8749	165.527	91.9176	165.527	91.8325	165.527	91.9594	165.527	91.7931	165.527	91.9997	165.527	91.761	165.527	92.0371	165.527	91.741	165.527	92.0685	165.527	91.737	165.527	92.088	165.527	91.75	165.527	92.0875	165.527	91.7764	165.527	92.0575	165.527	91.8075	165.527	91.9897	165.527	91.8309	165.527	91.8793	165.527	91.8325	165.527	91.7271	165.527	91.8	165.527	91.5417	165.527	91.7254	165.527	91.3396	165.527	91.6079	165.527	91.1436	165.527	91.4547	165.527	90.9792	165.527	91.281	165.527	90.8694	165.527	91.1083	165.527	90.8291	165.527	90.961	165.527	90.8622
171.387	91.91	171.387	91.9507	171.387	91.8551	171.387	91.9769	171.387	91.7886	171.387	91.989	171.387	91.7152	171.387	91.9875	171.387	91.6414	171.387	91.9718	171.387	91.5743	171.387	91.939	171.387	91.5199	171.387	91.8844	171.387	91.4806	171.387	91.8019	171.387	91.4538	171.387	91.6859	171.387	91.4315	171.387	91.5337	171.387	91.4022	171.387	91.348	171.387	91.3534	171.387	91.1386	171.387	91.2754	171.387	90.9223	171.387	91.1641	171.387	90.7219	171.387	91.0232	171.387	90.5611	171.387	90.8638	171.387	90.4595	171.387	90.7036	171.387	90.4279	171.387	90.5639	171.387	90.4661
177.246	92.0989	177.246	92.15	177.246	92.037	177.246	92.1897	177.246	91.9669	177.246	92.2182	177.246	91.8929	177.246	92.235	177.246	91.8216	177.246	92.2383	177.246	91.7594	177.246	92.2238	177.246	91.7113	177.246	92.185	177.246	91.6788	177.246	92.1149	177.246	91.6578	177.246	92.0073	177.246	91.6397	177.246	91.8597	177.246	91.6129	177.246	91.6755	177.246	91.5655	177.246	91.4655	177.246	91.4893	177.246	91.2475	177.246	91.382	177.246	91.0444	177.246	91.2485	177.246	90.8795	177.246	91.1008	177.246	90.7712	177.246	90.956	177.246	90.7292	177.246	90.8338	177.246	90.7531
183.105	92.0521	183.105	92.088	183.105	92.001	183.105	92.1094	183.105	91.9363	183.105	92.1176	183.105	91.8621	183.105	92.1139	183.105	91.7844	183.105	92.0975	183.105	91.7101	183.105	92.0653	183.105	91.645	183.105	92.0113	183.105	91.5914	183.105	91.9283	183.105	91.5472	183.105	91.8099	183.105	91.5051	183.105	91.653	183.105	91.4547	183.105	91.4608	183.105	91.3853	183.105	91.2438	183.105	91.2893	183.105	91.02	183.105	91.1649	183.105	90.8122	183.105	91.0178	183.105	90.6433	183.105	90.8604	183.105	90.5315	183.105	90.7102	183.105	90.486	183.105	90.5864	183.105	90.507
188.965	92.0345	188.965	92.0738	188.965	91.9753	188.965	92.0939	188.965	91.8981	188.965	92.0973	188.965	91.8081	188.965	92.0864	188.965	91.7134	188.965	92.0618	188.965	91.6237	188.965	92.0217	188.965	91.5476	188.965	91.9612	188.965	91.4903	188.965	91.8737	188.965	91.4508	188.965	91.7532	188.965	91.4221	188.965	91.5971	188.965	91.392	188.965	91.4092	188.965	91.3475	188.965	91.2009	188.965	91.2782	188.965	90.991	188.965	91.1798	188.965	90.802	188.965	91.0557	188.965	90.6555	188.965	90.9166	188.965	90.5665	188.965	90.7783	188.965	90.5406	188.965	90.6586	188.965	90.5746
196.289	92.1552	196.289	92.1915	196.289	92.0972	196.289	92.2068	196.289	92.0197	196.289	92.2031	196.289	91.9276	196.289	92.1824	196.289	91.8284	196.289	92.145	196.289	91.7313	196.289	92.0888	196.289	91.6444	196.289	92.0091	196.289	91.5726	196.289	91.9001	196.289	91.5152	196.289	91.7573	196.289	91.4662	196.289	91.5802	196.289	91.4153	196.289	91.3752	196.289	91.3516	196.289	91.1561	196.289	91.267	196.289	90.9436	196.289	91.1592	196.289	90.7603	196.289	91.0324	196.289	90.6253	196.289	90.8967	196.289	90.5493	196.289	90.7654	196.289	90.5334	196.289	90.6525	196.289	90.5712
203.613	91.8189	203.613	91.8506	203.613	91.7585	203.613	91.8555	203.613	91.671	203.613	91.8375	203.613	91.5622	203.613	91.8009	203.613	91.4414	203.613	91.7483	203.613	91.3207	203.613	91.6792	203.613	91.2122	203.613	91.5902	203.613	91.1244	203.613	91.4753	203.613	91.0593	203.613	91.3295	203.613	91.0112	203.613	91.1519	203.613	90.9686	203.613	90.9484	203.613	90.9179	203.613	90.7336	203.613	90.8483	203.613	90.529	203.613	90.7555	203.613	90.3576	203.613	90.6428	203.613	90.2371	203.613	90.5197	203.613	90.1755	203.613	90.3987	203.613	90.1703	203.613	90.2927	203.613	90.2129
210.938	91.8924	210.938	91.9232	210.938	91.8227	210.938	91.9172	210.938	91.7153	210.938	91.8785	210.938	91.5756	210.938	91.8118	210.938	91.4134	210.938	91.7204	210.938	91.2421	210.938	91.6052	210.938	91.0766	210.938	91.4643	210.938	90.9297	210.938	91.2943	210.938	90.8091	210.938	91.0926	210.938	90.7141	210.938	90.8611	210.938	90.6367	210.938	90.6097	210.938	90.5644	210.938	90.3569	210.938	90.4856	210.938	90.1281	210.938	90.3935	210.938	89.9487	210.938	90.2879	210.938	89.8356	210.938	90.1741	210.938	89.7916	210.938	90.0601	210.938	89.8071	210.938	89.9544	210.938	89.8663
218.262	92.2659	218.262	92.2873	218.262	92.2081	218.262	92.2759	218.262	92.1128	218.262	92.2362	218.262	91.9826	218.262	92.172	218.262	91.8235	218.262	92.0847	218.262	91.6447	218.262	91.972	218.262	91.4572	218.262	91.8281	218.262	91.2709	218.262	91.6453	218.262	91.092	218.262	91.4174	218.262	90.9211	218.262	91.1435	218.262	90.7535	218.262	90.8316	218.262	90.5825	218.262	90.501	218.262	90.4031	218.262	90.1806	218.262	90.2163	218.262	89.9025	218.262	90.0298	218.262	89.6928	218.262	89.8557	218.262	89.5634	218.262	89.707	218.262	89.5116	218.262	89.5943	218.262	89.5259
225.586	91.9786	225.586	91.9878	225.586	91.9311	225.586	91.9633	225.586	91.8444	225.586	91.912	225.586	91.7226	225.586	91.8412	225.586	91.5742	225.586	91.7561	225.586	91.4118	225.586	91.6578	225.586	91.2497	225.586	91.5427	225.586	91.1006	225.586	91.4044	225.586	90.9718	225.586	91.2363	225.586	90.8631	225.586	91.0364	225.586	90.7668	225.586	90.8105	225.586	90.6718	225.586	90.5744	225.586	90.5687	225.586	90.351	225.586	90.4541	225.586	90.1644	225.586	90.3321	225.586	90.0319	225.586	90.2123	225.586	89.9585	225.586	90.1054	225.586	89.9388	225.586	90.02	225.586	89.9623
232.91	91.9512	232.91	91.9435	232.91	91.9139	232.91	91.8958	232.91	91.8312	232.91	91.8158	232.91	91.7072	232.91	91.7121	232.91	91.5515	232.91	91.5917	232.91	91.3773	232.91	91.4582	232.91	91.2003	232.91	91.3109	232.91	91.0342	232.91	91.1461	232.91	90.8879	232.91	90.9605	232.91	90.7625	232.91	90.7556	232.91	90.6525	232.91	90.5409	232.91	90.5492	232.91	90.3347	232.91	90.4463	232.91	90.1591	232.91	90.3427	232.91	90.0323	232.91	90.2433	232.91	89.9611	232.91	90.155	232.91	89.9385	232.91	90.0824	232.91	89.9499	232.91	90.0254	232.91	89.9812
241.699	92.2257	241.699	92.2174	241.699	92.1789	241.699	92.157	241.699	92.0768	241.699	92.0493	241.699	91.9233	241.699	91.9004	241.699	91.7262	241.699	91.7153	241.699	91.4974	241.699	91.4975	241.699	91.2519	241.699	91.2487	241.699	91.006	241.699	90.97	241.699	90.7744	241.699	90.6655	241.699	90.5665	241.699	90.346	241.699	90.3858	241.699	90.0324	241.699	90.2305	241.699	89.7548	241.699	90.0971	241.699	89.5452	241.699	89.9828	241.699	89.4248	241.699	89.8862	241.699	89.3936	241.699	89.805	241.699	89.4304	241.699	89.7335	241.699	89.5037	241.699	89.663	241.699	89.5861
250.488	91.8325	250.488	91.817	250.488	91.7859	250.488	91.7442	250.488	91.6775	250.488	91.6221	250.488	91.513	250.488	91.4608	250.488	91.3036	250.488	91.2694	250.488	91.0659	250.488	91.0533	250.488	90.8184	250.488	90.8119	250.488	90.5783	250.488	90.54	250.488	90.3555	250.488	90.231	250.488	90.1493	250.488	89.8844	250.488	89.9503	250.488	89.5128	250.488	89.7458	250.488	89.1468	250.488	89.5292	250.488	88.83	250.488	89.305	250.488	88.603	250.488	89.0894	250.488	88.4836	250.488	88.9019	250.488	88.4578	250.488	88.7542	250.488	88.4926	250.488	88.6434	250.488	88.5583
259.277	92.3451	259.277	92.3364	259.277	92.2822	259.277	92.2603	259.277	92.1454	259.277	92.1227	259.277	91.9364	259.277	91.9296	259.277	91.6618	259.277	91.6862	259.277	91.3349	259.277	91.3961	259.277	90.9755	259.277	91.0617	259.277	90.609	259.277	90.6853	259.277	90.2617	259.277	90.2727	259.277	89.9541	259.277	89.8379	259.277	89.6953	259.277	89.4069	259.277	89.4821	259.277	89.0177	259.277	89.3046	259.277	88.7119	259.277	89.1528	259.277	88.5192	259.277	89.0209	259.277	88.4426	259.277	88.9061	259.277	88.4577	259.277	88.8047	259.277	88.5268	259.277	88.7103	259.277	88.6168
268.066	92.8929	268.066	92.8796	268.066	92.852	268.066	92.8167	268.066	92.7544	268.066	92.7096	268.066	92.6002	268.066	92.5627	268.066	92.3932	268.066	92.3778	268.066	92.1412	268.066	92.153	268.066	91.8558	268.066	91.8831	268.066	91.5514	268.066	91.562	268.066	91.2426	268.066	91.1872	268.066	90.9406	268.066	90.7655	268.066	90.6508	268.066	90.3185	268.066	90.3736	268.066	89.8836	268.066	90.1085	268.066	89.5076	268.066	89.8587	268.066	89.2311	268.066	89.6331	268.066	89.071	268.066	89.4421	268.066	89.0142	268.066	89.2906	268.066	89.0298	268.066	89.1751	268.066	89.0883
276.855	92.2536	276.855	92.2382	276.855	92.2076	276.855	92.1666	276.855	92.097	276.855	92.0455	276.855	91.9224	276.855	91.8806	276.855	91.689	276.855	91.6753	276.855	91.408	276.855	91.4295	276.855	91.0964	276.855	91.1404	276.855	90.7765	276.855	90.806	276.855	90.4726	276.855	90.4313	276.855	90.2068	276.855	90.0365	276.855	89.9937	276.855	89.6618	276.855	89.8391	276.855	89.363	276.855	89.7414	276.855	89.1916	276.855	89.6945	276.855	89.1663	276.855	89.6882	276.855	89.2596	276.855	89.7068	276.855	89.4123	276.855	89.7275	276.855	89.5633	276.855	89.7235	276.855	89.6717
287.109	91.9289	287.109	91.9091	287.109	91.8982	287.109	91.8443	287.109	91.8141	287.109	91.7411	287.109	91.6759	287.109	91.6055	287.109	91.4854	287.109	91.4391	287.109	91.2472	287.109	91.237	287.109	90.9689	287.109	90.9877	287.109	90.661	287.109	90.6761	287.109	90.3349	287.109	90.2909	287.109	90.0009	287.109	89.8341	287.109	89.6666	287.109	89.3297	287.109	89.3399	287.109	88.8293	287.109	89.0336	287.109	88.4052	287.109	88.7681	287.109	88.1243	287.109	88.5651	287.109	88.0117	287.109	88.4327	287.109	88.0347	287.109	88.3548	287.109	88.1258	287.109	88.296	287.109	88.2226
297.363	92.5624	297.363	92.5559	297.363	92.4974	297.363	92.4821	297.363	92.3589	297.363	92.3455	297.363	92.1475	297.363	92.1499	297.363	91.8679	297.363	91.8971	297.363	91.5287	297.363	91.5857	297.363	91.1426	297.363	91.2124	297.363	90.7248	297.363	90.774	297.363	90.2921	297.363	90.2732	297.363	89.8608	297.363	89.7264	297.363	89.446	297.363	89.1708	297.363	89.0626	297.363	88.6653	297.363	88.7272	297.363	88.2755	297.363	88.4587	297.363	88.0427	297.363	88.2725	297.363	87.9601	297.363	88.1689	297.363	87.9781	297.363	88.127	297.363	88.0348	297.363	88.1101	297.363	88.0841
307.617	92.6026	307.617	92.5621	307.617	92.5864	307.617	92.4722	307.617	92.5075	307.617	92.34	307.617	92.3619	307.617	92.1706	307.617	92.1478	307.617	91.9641	307.617	91.8663	307.617	91.7141	307.617	91.5227	307.617	91.4082	307.617	91.1278	307.617	91.0328	307.617	90.6991	307.617	90.5815	307.617	90.261	307.617	90.0664	307.617	89.8425	307.617	89.5302	307.617	89.474	307.617	89.0489	307.617	89.1824	307.617	88.7108	307.617	88.9861	307.617	88.569	307.617	88.8889	307.617	88.6016	307.617	88.8747	307.617	88.7269	307.617	88.908	307.617	88.8557	307.617	88.9414	307.617	88.9316
319.336	91.7046	319.336	91.6897	319.336	91.6759	319.336	91.6381	319.336	91.5991	319.336	91.5574	319.336	91.4726	319.336	91.4518	319.336	91.2964	319.336	91.3185	319.336	91.071	319.336	91.1444	319.336	90.7965	319.336	90.9079	319.336	90.4726	319.336	90.5844	319.336	90.1002	319.336	90.1569	319.336	89.6853	319.336	89.6297	319.336	89.2454	319.336	89.0446	319.336	88.8166	319.336	88.4908	319.336	88.4546	319.336	88.0884	319.336	88.221	319.336	87.9263	319.336	88.1505	319.336	87.9944	319.336	88.221	319.336	88.1882	319.336	88.3573	319.336	88.3809	319.336	88.4682	319.336	88.4844
329.59	91.8761	329.59	91.8389	329.59	91.8517	329.59	91.7473	329.59	91.7615	329.59	91.6111	329.59	91.6045	329.59	91.4389	329.59	91.3824	329.59	91.2343	329.59	91.0992	329.59	90.9917	329.59	90.7612	329.59	90.6947	329.59	90.3774	329.59	90.3204	329.59	89.9591	329.59	89.8489	329.59	89.52	329.59	89.2795	329.59	89.0777	329.59	88.6511	329.59	88.6576	329.59	88.0584	329.59	88.2984	329.59	87.6391	329.59	88.0496	329.59	87.4992	329.59	87.9499	329.59	87.6231	329.59	87.9942	329.59	87.8797	329.59	88.1194	329.59	88.1184	329.59	88.2303	329.59	88.2431
341.309	91.7937	341.309	91.7494	341.309	91.7866	341.309	91.6627	341.309	91.7216	341.309	91.5432	341.309	91.5937	341.309	91.3973	341.309	91.3984	341.309	91.2224	341.309	91.1306	341.309	91.0024	341.309	90.7845	341.309	90.7077	341.309	90.3557	341.309	90.3008	341.309	89.844	341.309	89.7482	341.309	89.2584	341.309	89.0381	341.309	88.6241	341.309	88.2067	341.309	87.992	341.309	87.3714	341.309	87.4451	341.309	86.7356	341.309	87.0845	341.309	86.4903	341.309	86.9765	341.309	86.6414	341.309	87.0926	341.309	86.9955	341.309	87.3109	341.309	87.3289	341.309	87.4845	341.309	87.5047
353.027	91.4678	353.027	91.4082	353.027	91.4661	353.027	91.2948	353.027	91.4037	353.027	91.1416	353.027	91.2871	353.027	90.9646	353.027	91.1243	353.027	90.7734	353.027	90.9189	353.027	90.5631	353.027	90.6648	353.027	90.3099	353.027	90.345	353.027	89.9745	353.027	89.935	353.027	89.5129	353.027	89.4126	353.027	88.8942	353.027	88.7725	353.027	88.1263	353.027	88.0476	353.027	87.2933	353.027	87.3314	353.027	86.5835	353.027	86.7797	353.027	86.2283	353.027	86.5396	353.027	86.3065	353.027	86.6239	353.027	86.6467	353.027	86.8813	353.027	86.9901	353.027	87.1091	353.027	87.1624
366.211	92.0857	366.211	92.0509	366.211	92.0681	366.211	91.9709	366.211	91.9951	366.211	91.8559	366.211	91.8666	366.211	91.7144	366.211	91.6826	366.211	91.5465	366.211	91.4403	366.211	91.338	366.211	91.132	366.211	91.0594	366.211	90.7447	366.211	90.6686	366.211	90.2607	366.211	90.1184	366.211	89.6601	366.211	89.3655	366.211	88.9262	366.211	88.3843	366.211	88.0561	366.211	87.1957	366.211	87.0836	366.211	85.9215	366.211	86.1108	366.211	84.8394	366.211	85.3179	366.211	84.2791	366.211	84.8746	366.211	84.2861	366.211	84.7731	366.211	84.5535	366.211	84.8105	366.211	84.7662
379.395	91.2501	379.395	91.2232	379.395	91.234	379.395	91.1609	379.395	91.1813	379.395	91.0811	379.395	91.107	379.395	91.0046	379.395	91.0265	379.395	90.9411	379.395	90.9431	379.395	90.8787	379.395	90.8395	379.395	90.7815	379.395	90.6783	379.395	90.5977	379.395	90.4116	379.395	90.2722	379.395	89.9937	379.395	89.7593	379.395	89.3947	379.395	89.034	379.395	88.6133	379.395	88.1105	379.395	87.6951	379.395	87.0725	379.395	86.754	379.395	86.1024	379.395	85.9687	379.395	85.4365	379.395	85.4966	379.395	85.1855	379.395	85.3378	379.395	85.2171	379.395	85.3309	379.395	85.3059
392.578	91.2107	392.578	91.1676	392.578	91.1537	392.578	91.0361	392.578	91.0026	392.578	90.844	392.578	90.7811	392.578	90.63	392.578	90.529	392.578	90.4313	392.578	90.2923	392.578	90.2658	392.578	90.1041	392.578	90.1168	392.578	89.9624	392.578	89.9325	392.578	89.8213	392.578	89.643	392.578	89.6054	392.578	89.182	392.578	89.2362	392.578	88.5087	392.578	88.6583	392.578	87.6315	392.578	87.8643	392.578	86.6409	392.578	86.9255	392.578	85.7349	392.578	86.0192	392.578	85.1516	392.578	85.3788	392.578	84.971	392.578	85.1133	392.578	85.0278	392.578	85.0921	392.578	85.0974
405.762	90.8487	405.762	90.7898	405.762	90.8221	405.762	90.6647	405.762	90.7082	405.762	90.5059	405.762	90.5237	405.762	90.3512	405.762	90.3026	405.762	90.2278	405.762	90.0883	405.762	90.1382	405.762	89.916	405.762	90.0554	405.762	89.7901	405.762	89.9339	405.762	89.6739	405.762	89.7261	405.762	89.5027	405.762	89.397	405.762	89.2115	405.762	88.9312	405.762	88.7614	405.762	88.3394	405.762	88.1602	405.762	87.6674	405.762	87.4765	405.762	87.0035	405.762	86.8344	405.762	86.4636	405.762	86.3629	405.762	86.132	405.762	86.1089	405.762	85.9992	405.762	86.0109	405.762	85.9809
420.41	91.4282	420.41	91.3417	420.41	91.3785	420.41	91.1318	420.41	91.1942	420.41	90.8281	420.41	90.8903	420.41	90.4778	420.41	90.4976	420.41	90.1367	420.41	90.0659	420.41	89.8472	420.41	89.6577	420.41	89.6121	420.41	89.3255	420.41	89.3869	420.41	89.0758	420.41	89.1012	420.41	88.8524	420.41	88.6929	420.41	88.5612	420.41	88.1369	420.41	88.12	420.41	87.4657	420.41	87.5066	420.41	86.7812	420.41	86.796	420.41	86.2371	420.41	86.1696	420.41	85.9562	420.41	85.8253	420.41	85.9251	420.41	85.7992	420.41	85.999	420.41	85.9283	420.41	86.0208
435.059	91.2322	435.059	91.1257	435.059	91.2054	435.059	90.9061	435.059	91.0404	435.059	90.6105	435.059	90.7491	435.059	90.2908	435.059	90.3641	435.059	90.0011	435.059	89.9424	435.059	89.7744	435.059	89.5585	435.059	89.6004	435.059	89.2731	435.059	89.4271	435.059	89.0909	435.059	89.1853	435.059	88.9451	435.059	88.8208	435.059	88.7324	435.059	88.3184	435.059	88.3662	435.059	87.7173	435.059	87.8193	435.059	87.1148	435.059	87.1542	435.059	86.6399	435.059	86.5313	435.059	86.3811	435.059	86.1429	435.059	86.3139	435.059	86.0596	435.059	86.3199	435.059	86.1641	435.059	86.2809
451.172	91.2577	451.172	91.1553	451.172	91.2408	451.172	90.9461	451.172	91.1113	451.172	90.6619	451.172	90.8928	451.172	90.3499	451.172	90.6212	451.172	90.0593	451.172	90.3356	451.172	89.8213	451.172	90.0656	451.172	89.6303	451.172	89.8169	451.172	89.4426	451.172	89.5651	451.172	89.193	451.172	89.261	451.172	88.8181	451.172	88.8477	451.172	88.2774	451.172	88.2811	451.172	87.5736	451.172	87.5573	451.172	86.7796	451.172	86.7458	451.172	86.0552	451.172	86.0104	451.172	85.5911	451.172	85.5493	451.172	85.4525	451.172	85.4257	451.172	85.5033	451.172	85.4922	451.172	85.5459
465.82	92.0184	465.82	91.8733	465.82	91.9827	465.82	91.5676	465.82	91.7602	465.82	91.1396	465.82	91.3616	465.82	90.6488	465.82	90.8207	465.82	90.1721	465.82	90.2057	465.82	89.7789	465.82	89.6201	465.82	89.4916	465.82	89.171	465.82	89.2609	465.82	88.8997	465.82	88.986	465.82	88.7358	465.82	88.5625	465.82	88.5357	465.82	87.9269	465.82	88.1642	465.82	87.0944	465.82	87.5534	465.82	86.1979	465.82	86.7413	465.82	85.4872	465.82	85.9045	465.82	85.1761	465.82	85.3193	465.82	85.2182	465.82	85.1487	465.82	85.3579	465.82	85.2597	465.82	85.3829
483.398	91.6878	483.398	91.5057	483.398	91.7013	483.398	91.164	483.398	91.5446	483.398	90.6883	483.398	91.22	483.398	90.132	483.398	90.7386	483.398	89.5783	483.398	90.136	483.398	89.1199	483.398	89.4921	483.398	88.8137	483.398	88.9306	483.398	88.6444	483.398	88.5648	483.398	88.5358	483.398	88.4047	483.398	88.397	483.398	88.337	483.398	88.1592	483.398	88.212	483.398	87.792	483.398	87.9388	483.398	87.3167	483.398	87.5246	483.398	86.8189	483.398	87.0678	483.398	86.4325	483.398	86.703	483.398	86.256	483.398	86.4999	483.398	86.2636	483.398	86.4107	483.398	86.3412
499.512	91.9399	499.512	91.8401	499.512	91.8994	499.512	91.6041	499.512	91.7234	499.512	91.2469	499.512	91.4227	499.512	90.7966	499.512	91.0126	499.512	90.2945	499.512	90.5151	499.512	89.7916	499.512	89.9644	499.512	89.3359	499.512	89.4113	499.512	88.95	499.512	88.9134	499.512	88.6116	499.512	88.5057	499.512	88.2576	499.512	88.1696	499.512	87.8158	499.512	87.8376	499.512	87.2518	499.512	87.4402	499.512	86.6106	499.512	86.9616	499.512	86.0349	499.512	86.4709	499.512	85.6983	499.512	86.0955	499.512	85.651	499.512	85.9179	499.512	85.7615	499.512	85.8846	499.512	85.8591
517.09	92.3187	517.09	92.1551	517.09	92.2835	517.09	91.7986	517.09	92.0564	517.09	91.2783	517.09	91.6527	517.09	90.6596	517.09	91.0987	517.09	90.0443	517.09	90.441	517.09	89.5347	517.09	89.7534	517.09	89.1666	517.09	89.1268	517.09	88.8746	517.09	88.6266	517.09	88.54	517.09	88.242	517.09	88.0699	517.09	87.8877	517.09	87.4471	517.09	87.4688	517.09	86.7482	517.09	86.9595	517.09	86.1334	517.09	86.4489	517.09	85.7814	517.09	86.1125	517.09	85.7666	517.09	86.0665	517.09	85.9925	517.09	86.2314	517.09	86.2691	517.09	86.4057	517.09	86.4317
536.133	92.258	536.133	92.0695	536.133	92.2508	536.133	91.695	536.133	92.0466	536.133	91.1578	536.133	91.6535	536.133	90.5019	536.133	91.0958	536.133	89.7972	536.133	90.4277	536.133	89.1307	536.133	89.744	536.133	88.5752	536.133	89.1637	536.133	88.1553	536.133	88.765	536.133	87.8462	536.133	88.5162	536.133	87.6091	536.133	88.2928	536.133	87.4178	536.133	87.9715	536.133	87.2546	536.133	87.5143	536.133	87.1013	536.133	87.0068	536.133	86.9532	536.133	86.6299	536.133	86.8402	536.133	86.5218	536.133	86.8048	536.133	86.6341	536.133	86.8384	536.133	86.7909	536.133	86.8612
555.176	92.0969	555.176	91.9836	555.176	92.0403	555.176	91.691	555.176	91.824	555.176	91.2184	555.176	91.4546	555.176	90.5847	555.176	90.9376	555.176	89.8406	555.176	90.2895	555.176	89.0743	555.176	89.559	555.176	88.3901	555.176	88.8427	555.176	87.8497	555.176	88.2584	555.176	87.427	555.176	87.8625	555.176	87.04	555.176	87.5907	555.176	86.6406	555.176	87.3168	555.176	86.2785	555.176	86.9721	555.176	86.0833	555.176	86.6197	555.176	86.1549	555.176	86.4286	555.176	86.456	555.176	86.5194	555.176	86.8356	555.176	86.8149	555.176	87.1316	555.176	87.109	555.176	87.2346
574.219	92.4381	574.219	92.2373	574.219	92.4012	574.219	91.8138	574.219	92.1235	574.219	91.2039	574.219	91.6123	574.219	90.4767	574.219	90.8942	574.219	89.7324	574.219	90.0375	574.219	89.0673	574.219	89.1728	574.219	88.5114	574.219	88.4682	574.219	88.0047	574.219	88.012	574.219	87.4573	574.219	87.7071	574.219	86.8452	574.219	87.3442	574.219	86.2704	574.219	86.7754	574.219	85.9276	574.219	86.0553	574.219	85.9537	574.219	85.5222	574.219	86.3022	574.219	85.6007	574.219	86.8087	574.219	86.2605	574.219	87.3115	574.219	87.0462	574.219	87.6803	574.219	87.6008	574.219	87.8048
594.727	92.1172	594.727	92.0371	594.727	92.0338	594.727	91.7966	594.727	91.7797	594.727	91.4036	594.727	91.3408	594.727	90.8776	594.727	90.705	594.727	90.2511	594.727	89.886	594.727	89.5597	594.727	88.9584	594.727	88.825	594.727	88.0801	594.727	88.0448	594.727	87.4366	594.727	87.2051	594.727	87.0877	594.727	86.3142	594.727	86.8891	594.727	85.4397	594.727	86.615	594.727	84.7291	594.727	86.1302	594.727	84.3836	594.727	85.5092	594.727	84.542	594.727	85.0962	594.727	85.1287	594.727	85.2556	594.727	85.866	594.727	85.8629	594.727	86.4485	594.727	86.4434	594.727	86.6676
615.234	92.0347	615.234	91.8182	615.234	92.0284	615.234	91.3873	615.234	91.8009	615.234	90.7789	615.234	91.3523	615.234	90.0784	615.234	90.682	615.234	89.4228	615.234	89.8078	615.234	88.9405	615.234	88.8092	615.234	88.638	615.234	87.87	615.234	88.3629	615.234	87.2224	615.234	87.9067	615.234	86.9313	615.234	87.1332	615.234	86.7893	615.234	86.0755	615.234	86.524	615.234	85.0426	615.234	86.0194	615.234	84.5681	615.234	85.4071	615.234	84.8628	615.234	85.0493	615.234	85.5419	615.234	85.2339	615.234	86.1752	615.234	85.798	615.234	86.5607	615.234	86.3456	615.234	86.6239
637.207	92.5136	637.207	92.323	637.207	92.5086	637.207	91.9146	637.207	92.3239	637.207	91.2733	637.207	91.9583	637.207	90.4134	637.207	91.39	637.207	89.4158	637.207	90.5855	637.207	88.4655	637.207	89.5275	637.207	87.7943	637.207	88.2676	637.207	87.4538	637.207	86.9934	637.207	87.1951	637.207	85.9984	637.207	86.6791	637.207	85.408	637.207	85.7247	637.207	85.0007	637.207	84.5026	637.207	84.5384	637.207	83.7683	637.207	84.1916	637.207	84.2867	637.207	84.5071	637.207	85.5885	637.207	85.5807	637.207	86.8322	637.207	86.7993	637.207	87.6507	637.207	87.6452	637.207	87.935
659.18	91.8817	659.18	91.788	659.18	91.7878	659.18	91.4928	659.18	91.5151	659.18	90.9838	659.18	91.0687	659.18	90.2653	659.18	90.4627	659.18	89.3863	659.18	89.7485	659.18	88.4737	659.18	89.0381	659.18	87.7127	659.18	88.4683	659.18	87.2151	659.18	88.0746	659.18	86.8921	659.18	87.7096	659.18	86.5379	659.18	87.1366	659.18	85.9988	659.18	86.1844	659.18	85.2541	659.18	84.8826	659.18	84.4639	659.18	83.6687	659.18	84.0165	659.18	83.377	659.18	84.2812	659.18	84.1784	659.18	85.0779	659.18	85.27	659.18	85.8549	659.18	86.0223	659.18	86.2202
682.617	92.3181	682.617	92.1832	682.617	92.2276	682.617	91.8032	682.617	91.9314	682.617	91.1724	682.617	91.4332	682.617	90.3138	682.617	90.7147	682.617	89.3035	682.617	89.7603	682.617	88.2975	682.617	88.6359	682.617	87.4946	682.617	87.5995	682.617	86.9651	682.617	87.0307	682.617	86.528	682.617	86.9643	682.617	85.9129	682.617	86.9337	682.617	85.0295	682.617	86.4536	682.617	84.1656	682.617	85.3276	682.617	83.9249	682.617	83.8899	682.617	84.5339	682.617	83.4278	682.617	85.5615	682.617	84.6458	682.617	86.5672	682.617	86.2344	682.617	87.3052	682.617	87.2677	682.617	87.5927
707.52	92.8032	707.52	92.7127	707.52	92.7144	707.52	92.4122	707.52	92.4584	707.52	91.8676	707.52	92.0114	707.52	91.0598	707.52	91.3058	707.52	90.0211	707.52	90.2471	707.52	88.8932	707.52	88.7759	707.52	87.9263	707.52	87.0387	707.52	87.2716	707.52	85.6907	707.52	86.734	707.52	85.49	707.52	85.9177	707.52	85.9367	707.52	84.5612	707.52	85.9897	707.52	82.8961	707.52	85.1412	707.52	82.1732	707.52	83.5207	707.52	83.3118	707.52	82.6357	707.52	85.1076	707.52	84.0796	707.52	86.5932	707.52	86.109	707.52	87.5351	707.52	87.4091	707.52	87.8457
732.422	92.1368	732.422	92.0695	732.422	92.0055	732.422	91.7587	732.422	91.7196	732.422	91.1794	732.422	91.2932	732.422	90.3497	732.422	90.6889	732.422	89.3761	732.422	89.8277	732.422	88.4986	732.422	88.6495	732.422	87.9932	732.422	87.247	732.422	87.8667	732.422	86.0656	732.422	87.7779	732.422	85.705	732.422	87.3289	732.422	85.9768	732.422	86.2452	732.422	86.0276	732.422	84.4114	732.422	85.2151	732.422	82.21	732.422	83.2778	732.422	81.4548	732.422	81.0797	732.422	83.0638	732.422	81.7898	732.422	85.0065	732.422	84.2978	732.422	86.2475	732.422	86.007	732.422	86.6126
757.324	92.4883	757.324	92.5304	757.324	92.2663	757.324	92.328	757.324	91.9354	757.324	91.8271	757.324	91.5351	757.324	90.9826	757.324	91.0215	757.324	89.7899	757.324	90.2536	757.324	88.4025	757.324	89.0505	757.324	87.3066	757.324	87.3316	757.324	87.0376	757.324	85.4897	757.324	87.3249	757.324	84.7398	757.324	87.3973	757.324	85.3486	757.324	86.7754	757.324	85.8836	757.324	85.365	757.324	85.4386	757.324	83.6052	757.324	83.8907	757.324	82.8369	757.324	82.2775	757.324	83.7913	757.324	82.9667	757.324	85.291	757.324	84.9923	757.324	86.4131	757.324	86.3982	757.324	86.8377
785.156	92.4155	785.156	92.4848	785.156	92.1713	785.156	92.3236	785.156	91.8318	785.156	91.8969	785.156	91.4616	785.156	91.1675	785.156	91.0397	785.156	90.0828	785.156	90.4194	785.156	88.607	785.156	89.3582	785.156	86.8491	785.156	87.6101	785.156	85.2842	785.156	85.2206	785.156	84.5513	785.156	83.4961	785.156	84.4648	785.156	84.0281	785.156	84.2202	785.156	84.9864	785.156	83.3941	785.156	84.7444	785.156	82.3613	785.156	82.983	785.156	82.5592	785.156	80.9348	785.156	84.3498	785.156	82.3141	785.156	86.2132	785.156	85.1234	785.156	87.3477	785.156	86.9176	785.156	87.6062
811.523	91.8994	811.523	92.1059	811.523	91.4325	811.523	91.9876	811.523	90.8495	811.523	91.5433	811.523	90.3455	811.523	90.8158	811.523	90.0306	811.523	89.8748	811.523	89.7751	811.523	88.814	811.523	89.2553	811.523	87.783	811.523	88.1555	811.523	86.9874	811.523	86.4449	811.523	86.494	811.523	85.0031	811.523	86.0385	811.523	85.2285	811.523	85.2196	811.523	86.1209	811.523	83.7907	811.523	86.0237	811.523	81.8857	811.523	84.1816	811.523	80.6466	811.523	80.347	811.523	81.7608	811.523	79.2017	811.523	84.0312	811.523	83.086	811.523	85.7216	811.523	85.5391	811.523	86.299
840.82	92.485	840.82	92.6372	840.82	92.0631	840.82	92.4648	840.82	91.4842	840.82	91.9495	840.82	90.8994	840.82	91.0861	840.82	90.4107	840.82	89.8883	840.82	89.9671	840.82	88.4483	840.82	89.3493	840.82	87.0465	840.82	88.2276	840.82	86.1434	840.82	86.2334	840.82	85.9482	840.82	83.4049	840.82	86.0581	840.82	82.3471	840.82	85.8338	840.82	84.3701	840.82	84.7755	840.82	85.6179	840.82	82.6984	840.82	84.8305	840.82	80.7912	840.82	82.0616	840.82	82.0286	840.82	80.8619	840.82	84.645	840.82	83.9522	840.82	86.4141	840.82	86.2574	840.82	86.9942
870.117	92.0418	870.117	92.1992	870.117	91.5377	870.117	92.0035	870.117	90.7578	870.117	91.4586	870.117	89.8837	870.117	90.5366	870.117	89.1732	870.117	89.1767	870.117	88.7683	870.117	87.3774	870.117	88.5043	870.117	85.4752	870.117	87.975	870.117	84.3792	870.117	86.7164	870.117	84.5469	870.117	84.4385	870.117	85.1573	870.117	82.2126	870.117	85.3727	870.117	82.8841	870.117	84.7439	870.117	84.1946	870.117	83.1539	870.117	83.6007	870.117	81.5847	870.117	80.613	870.117	82.2455	870.117	79.042	870.117	84.2347	870.117	82.828	870.117	85.7307	870.117	85.4086	870.117	86.2208
900.879	91.8743	900.879	91.9097	900.879	91.5676	900.879	91.7187	900.879	90.9628	900.879	91.3162	900.879	90.1078	900.879	90.6473	900.879	89.1921	900.879	89.5854	900.879	88.5043	900.879	88.0093	900.879	88.1048	900.879	86.0388	900.879	87.6176	900.879	84.3946	900.879	86.5534	900.879	83.8091	900.879	84.6684	900.879	83.7104	900.879	82.5685	900.879	83.3609	900.879	82.373	900.879	82.681	900.879	83.5546	900.879	81.6747	900.879	83.5254	900.879	80.3398	900.879	81.1328	900.879	80.0762	900.879	77.6969	900.879	82.1185	900.879	80.8416	900.879	84.2297	900.879	84.0653	900.879	85.0306
933.105	91.3065	933.105	91.2443	933.105	91.0376	933.105	90.9311	933.105	90.4084	933.105	90.4326	933.105	89.4882	933.105	89.7375	933.105	88.462	933.105	88.7422	933.105	87.5702	933.105	87.3202	933.105	86.9512	933.105	85.51	933.105	86.4989	933.105	83.8365	933.105	85.8686	933.105	83.1004	933.105	84.6838	933.105	83.0516	933.105	83.0706	933.105	82.8167	933.105	82.4214	933.105	82.1681	933.105	83.2295	933.105	81.4011	933.105	83.5181	933.105	80.9536	933.105	82.0811	933.105	81.4559	933.105	79.6656	933.105	82.8606	933.105	80.8359	933.105	84.1534	933.105	83.4604	933.105	84.5264
965.332	90.9371	965.332	90.7774	965.332	90.8321	965.332	90.3991	965.332	90.4399	965.332	89.8504	965.332	89.7501	965.332	89.1287	965.332	88.7738	965.332	88.1662	965.332	87.6048	965.332	86.8956	965.332	86.4757	965.332	85.3746	965.332	85.607	965.332	84.0306	965.332	84.8457	965.332	83.732	965.332	83.7563	965.332	84.4225	965.332	82.4165	965.332	84.7584	965.332	82.0395	965.332	83.8055	965.332	82.734	965.332	81.423	965.332	82.7125	965.332	78.6068	965.332	80.9739	965.332	78.705	965.332	78.961	965.332	81.5555	965.332	81.1899	965.332	83.8606	965.332	83.8612	965.332	84.7147
1000.49	89.9511	1000.49	89.9564	1000.49	89.597	1000.49	89.6514	1000.49	88.9518	1000.49	89.1239	1000.49	88.2008	1000.49	88.4622	1000.49	87.5625	1000.49	87.6675	1000.49	87.0859	1000.49	86.5819	1000.49	86.625	1000.49	84.9662	1000.49	86.051	1000.49	82.8951	1000.49	85.3267	1000.49	81.6193	1000.49	84.2749	1000.49	82.3194	1000.49	82.6943	1000.49	83.4593	1000.49	81.2215	1000.49	83.7377	1000.49	81.0955	1000.49	82.7319	1000.49	81.3462	1000.49	80.319	1000.49	80.2678	1000.49	78.365	1000.49	78.4681	1000.49	80.5197	1000.49	80.2886	1000.49	83.0444	1000.49	83.0179	1000.49	83.9471
1035.64	89.8839	1035.64	89.6758	1035.64	89.6666	1035.64	89.2291	1035.64	89.0158	1035.64	88.8055	1035.64	88.1336	1035.64	88.4816	1035.64	87.3705	1035.64	87.9762	1035.64	86.9287	1035.64	86.8703	1035.64	86.6011	1035.64	84.9872	1035.64	86.0239	1035.64	82.8916	1035.64	85.0813	1035.64	81.8026	1035.64	83.9333	1035.64	81.6509	1035.64	82.8411	1035.64	81.8787	1035.64	82.1271	1035.64	82.1921	1035.64	81.731	1035.64	81.7613	1035.64	80.8939	1035.64	80.0771	1035.64	78.9965	1035.64	77.894	1035.64	77.1851	1035.64	78.0748	1035.64	78.5008	1035.64	80.0758	1035.64	80.5655	1035.64	81.1471
1072.27	89.89	1072.27	89.6554	1072.27	89.696	1072.27	89.1282	1072.27	89.1196	1072.27	88.5714	1072.27	88.3468	1072.27	88.1873	1072.27	87.5806	1072.27	87.8987	1072.27	86.8752	1072.27	87.3829	1072.27	86.0947	1072.27	86.3663	1072.27	85.1151	1072.27	84.8728	1072.27	83.8725	1072.27	83.1477	1072.27	82.2816	1072.27	81.1455	1072.27	80.8722	1072.27	78.4443	1072.27	80.8982	1072.27	76.5792	1072.27	81.5697	1072.27	78.0077	1072.27	81.1649	1072.27	78.5518	1072.27	79.0186	1072.27	77.3603	1072.27	76.0496	1072.27	78.0083	1072.27	77.2369	1072.27	80.1489	1072.27	79.9552	1072.27	80.9534
1108.89	90.6936	1108.89	90.4754	1108.89	90.4341	1108.89	89.8461	1108.89	89.7503	1108.89	88.9979	1108.89	88.7757	1108.89	88.1692	1108.89	87.7041	1108.89	87.4669	1108.89	86.7652	1108.89	86.7122	1108.89	85.9856	1108.89	85.6271	1108.89	85.0855	1108.89	84.3897	1108.89	83.8579	1108.89	83.8597	1108.89	82.2197	1108.89	84.1321	1108.89	80.5324	1108.89	83.8135	1108.89	80.5561	1108.89	81.948	1108.89	81.7485	1108.89	79.8549	1108.89	81.7374	1108.89	79.714	1108.89	80.3653	1108.89	79.7299	1108.89	79.5651	1108.89	80.3494	1108.89	80.5931	1108.89	81.6994	1108.89	81.8542	1108.89	82.3176
1148.44	90.5499	1148.44	90.1813	1148.44	90.4843	1148.44	89.4328	1148.44	90.0154	1148.44	88.4786	1148.44	89.1823	1148.44	87.566	1148.44	88.0824	1148.44	86.9021	1148.44	87.0553	1148.44	86.3281	1148.44	86.3972	1148.44	85.3372	1148.44	85.7232	1148.44	83.9351	1148.44	84.5017	1148.44	83.1605	1148.44	82.7841	1148.44	83.3415	1148.44	81.2525	1148.44	83.2356	1148.44	80.8905	1148.44	82.3806	1148.44	81.6021	1148.44	81.6579	1148.44	81.8329	1148.44	81.2618	1148.44	80.4646	1148.44	80.4524	1148.44	79.0258	1148.44	80.76	1148.44	81.2445	1148.44	82.6119	1148.44	83.4113	1148.44	83.7913
1189.45	90.5548	1189.45	90.2428	1189.45	90.5619	1189.45	89.7103	1189.45	90.2114	1189.45	88.9976	1189.45	89.4518	1189.45	88.2091	1189.45	88.2232	1189.45	87.5645	1189.45	86.8601	1189.45	86.8391	1189.45	86.0947	1189.45	85.358	1189.45	85.5367	1189.45	83.2065	1189.45	84.2196	1189.45	82.2971	1189.45	82.0055	1189.45	82.765	1189.45	79.9292	1189.45	82.689	1189.45	80.7863	1189.45	81.5376	1189.45	82.6324	1189.45	80.0128	1189.45	82.1232	1189.45	79.9764	1189.45	79.2685	1189.45	80.4586	1189.45	79.8226	1189.45	81.0763	1189.45	82.8909	1189.45	82.7242	1189.45	84.3387	1189.45	84.1653
1230.47	89.577	1230.47	89.4402	1230.47	89.7754	1230.47	89.4114	1230.47	89.7958	1230.47	89.1912	1230.47	89.4173	1230.47	88.4362	1230.47	88.4949	1230.47	87.328	1230.47	87.109	1230.47	86.3676	1230.47	85.9708	1230.47	85.0478	1230.47	85.7472	1230.47	82.7213	1230.47	85.4942	1230.47	81.4575	1230.47	83.8953	1230.47	82.2171	1230.47	80.1397	1230.47	81.865	1230.47	79.7497	1230.47	80.6443	1230.47	83.6409	1230.47	79.9664	1230.47	83.6401	1230.47	80.0679	1230.47	78.0411	1230.47	80.5215	1230.47	75.2204	1230.47	80.942	1230.47	81.7627	1230.47	82.0526	1230.47	83.5698	1230.47	83.3156
1274.41	90.5397	1274.41	90.547	1274.41	90.5156	1274.41	90.3354	1274.41	90.5319	1274.41	89.7541	1274.41	90.3995	1274.41	88.8169	1274.41	89.7889	1274.41	87.8363	1274.41	88.4545	1274.41	87.1587	1274.41	86.7341	1274.41	86.086	1274.41	85.9267	1274.41	83.0773	1274.41	86.1859	1274.41	78.9667	1274.41	85.9336	1274.41	80.6818	1274.41	83.6233	1274.41	81.2205	1274.41	77.5313	1274.41	78.0382	1274.41	80.0389	1274.41	76.7376	1274.41	82.8327	1274.41	79.1334	1274.41	78.8744	1274.41	80.7948	1274.41	68.1325	1274.41	82.5011	1274.41	81.4914	1274.41	83.8259	1274.41	84.4342	1274.41	84.6432
1319.82	90.8373	1319.82	90.9159	1319.82	90.6283	1319.82	90.7979	1319.82	90.4804	1319.82	90.4782	1319.82	90.4707	1319.82	89.8288	1319.82	90.3271	1319.82	88.7767	1319.82	89.4786	1319.82	87.793	1319.82	87.4847	1319.82	87.0154	1319.82	85.1218	1319.82	84.7834	1319.82	84.6598	1319.82	79.4346	1319.82	85.1037	1319.82	81.3794	1319.82	84.0275	1319.82	84.5057	1319.82	80.384	1319.82	82.2092	1319.82	81.1747	1319.82	75.9166	1319.82	84.3685	1319.82	79.2092	1319.82	82.8554	1319.82	80.8407	1319.82	71.4971	1319.82	83.1814	1319.82	78.4234	1319.82	85.4898	1319.82	84.4161	1319.82	86.0222
1366.7	90.6498	1366.7	90.748	1366.7	90.5835	1366.7	90.8519	1366.7	90.6475	1366.7	90.8974	1366.7	90.6076	1366.7	90.382	1366.7	90.0959	1366.7	88.8368	1366.7	89.1071	1366.7	87.0621	1366.7	87.7631	1366.7	86.6057	1366.7	86.0963	1366.7	86.4386	1366.7	85.2016	1366.7	84.3096	1366.7	86.1596	1366.7	77.2106	1366.7	85.5951	1366.7	80.601	1366.7	79.7272	1366.7	82.9898	1366.7	79.1563	1366.7	78.5517	1366.7	84.7915	1366.7	76.7413	1366.7	83.8094	1366.7	79.6331	1366.7	73.9365	1366.7	82.4489	1366.7	78.2507	1366.7	85.8725	1366.7	85.3285	1366.7	87.0931
1413.57	91.622	1413.57	91.5563	1413.57	91.4847	1413.57	91.3439	1413.57	91.1364	1413.57	90.8982	1413.57	90.5987	1413.57	90.0415	1413.57	89.89	1413.57	88.8217	1413.57	89.1786	1413.57	87.7111	1413.57	88.5845	1413.57	87.5749	1413.57	87.5836	1413.57	88.0352	1413.57	85.9406	1413.57	87.3404	1413.57	85.8086	1413.57	84.6667	1413.57	86.5305	1413.57	82.2919	1413.57	83.8353	1413.57	81.9074	1413.57	69.7691	1413.57	78.1525	1413.57	81.96	1413.57	74.786	1413.57	84.6575	1413.57	75.9556	1413.57	80.7281	1413.57	77.6363	1413.57	64.2714	1413.57	83.4574	1413.57	82.6584	1413.57	85.5604
1463.38	91.4516	1463.38	91.171	1463.38	91.5642	1463.38	90.8934	1463.38	91.3869	1463.38	90.8164	1463.38	90.8894	1463.38	90.8187	1463.38	90.1467	1463.38	90.1209	1463.38	89.0541	1463.38	88.248	1463.38	87.821	1463.38	87.0614	1463.38	87.2595	1463.38	86.9084	1463.38	86.3743	1463.38	85.299	1463.38	85.009	1463.38	84.4364	1463.38	86.0265	1463.38	85.7513	1463.38	85.8148	1463.38	84.478	1463.38	80.6832	1463.38	80.0666	1463.38	74.9757	1463.38	78.7886	1463.38	81.6478	1463.38	80.5824	1463.38	82.2342	1463.38	79.0277	1463.38	76.0374	1463.38	81.2593	1463.38	80.3739	1463.38	83.9706
1516.11	90.5875	1516.11	90.6231	1516.11	91.008	1516.11	90.9479	1516.11	91.4714	1516.11	91.1512	1516.11	91.2613	1516.11	91.0363	1516.11	90.1392	1516.11	90.2824	1516.11	88.8336	1516.11	88.1364	1516.11	88.0306	1516.11	85.3341	1516.11	87.4639	1516.11	85.9011	1516.11	86.7682	1516.11	86.029	1516.11	86.0354	1516.11	82.4332	1516.11	85.9696	1516.11	84.413	1516.11	84.9013	1516.11	85.9599	1516.11	80.5112	1516.11	81.1031	1516.11	78.1589	1516.11	73.6106	1516.11	82.1282	1516.11	80.304	1516.11	81.8901	1516.11	80.0123	1516.11	79.4329	1516.11	80.6397	1516.11	82.4958	1516.11	83.4799
1568.85	90.4555	1568.85	90.7545	1568.85	90.6463	1568.85	91.2006	1568.85	91.1549	1568.85	91.2824	1568.85	91.222	1568.85	90.7707	1568.85	90.1609	1568.85	89.8225	1568.85	88.5581	1568.85	88.3337	1568.85	87.7289	1568.85	85.622	1568.85	87.1267	1568.85	83.519	1568.85	86.1362	1568.85	84.1646	1568.85	84.4039	1568.85	81.1444	1568.85	83.4894	1568.85	81.9122	1568.85	84.9502	1568.85	85.6691	1568.85	83.3286	1568.85	83.0385	1568.85	77.5511	1568.85	72.2966	1568.85	80.7874	1568.85	75.7754	1568.85	81.146	1568.85	77.7089	1568.85	76.3495	1568.85	78.6525	1568.85	79.8895	1568.85	81.2909
1624.51	90.5262	1624.51	90.3341	1624.51	90.7629	1624.51	90.4854	1624.51	90.5203	1624.51	90.599	1624.51	89.998	1624.51	90.3373	1624.51	89.5387	1624.51	89.5686	1624.51	88.9328	1624.51	88.4374	1624.51	88.1397	1624.51	87.0797	1624.51	87.3943	1624.51	85.4071	1624.51	86.6493	1624.51	85.4355	1624.51	85.6075	1624.51	84.6734	1624.51	83.4354	1624.51	76.0051	1624.51	81.5626	1624.51	80.2658	1624.51	80.7972	1624.51	82.562	1624.51	77.9289	1624.51	78.2852	1624.51	78.4908	1624.51	75.8366	1624.51	80.3663	1624.51	77.6611	1624.51	77.585	1624.51	78.0733	1624.51	78.986	1624.51	80.5857
1681.64	89.833	1681.64	89.7776	1681.64	90.1746	1681.64	90.0514	1681.64	90.2437	1681.64	90.1255	1681.64	90.0009	1681.64	89.7479	1681.64	89.5783	1681.64	89.0437	1681.64	88.614	1681.64	88.111	1681.64	87.6242	1681.64	86.7949	1681.64	87.2298	1681.64	84.2331	1681.64	85.8733	1681.64	80.6499	1681.64	83.3714	1681.64	82.6845	1681.64	81.5881	1681.64	81.7964	1681.64	82.5613	1681.64	73.8704	1681.64	82.3317	1681.64	77.125	1681.64	77.8614	1681.64	76.7783	1681.64	76.8755	1681.64	75.501	1681.64	80.0399	1681.64	78.8848	1681.64	80.3048	1681.64	76.6927	1681.64	81.3954	1681.64	80.4879
1741.7	88.9214	1741.7	89.4723	1741.7	89.2105	1741.7	89.8475	1741.7	90.0026	1741.7	89.6834	1741.7	90.4023	1741.7	89.175	1741.7	90.5443	1741.7	88.5201	1741.7	89.8817	1741.7	87.5836	1741.7	87.4758	1741.7	86.2026	1741.7	85.019	1741.7	84.7493	1741.7	84.211	1741.7	83.4219	1741.7	84.2281	1741.7	80.2398	1741.7	83.4627	1741.7	74.0928	1741.7	80.305	1741.7	75.0326	1741.7	81.7931	1741.7	72.2621	1741.7	81.6333	1741.7	76.7212	1741.7	78.1402	1741.7	78.2609	1741.7	77.4255	1741.7	79.306	1741.7	77.5443	1741.7	78.4459	1741.7	78.9044	1741.7	78.6275
1803.22	88.2166	1803.22	88.9342	1803.22	88.1657	1803.22	89.1988	1803.22	89.21	1803.22	88.994	1803.22	90.1369	1803.22	88.9104	1803.22	90.3952	1803.22	88.8218	1803.22	89.6525	1803.22	87.4118	1803.22	87.0336	1803.22	84.2719	1803.22	83.8726	1803.22	83.2402	1803.22	82.7578	1803.22	84.472	1803.22	82.966	1803.22	83.8796	1803.22	82.9309	1803.22	83.3528	1803.22	81.6447	1803.22	81.1949	1803.22	80.0875	1803.22	73.1395	1803.22	77.6436	1803.22	76.7102	1803.22	76.1012	1803.22	79.4711	1803.22	74.8047	1803.22	81.5189	1803.22	77.2818	1803.22	80.2247	1803.22	80.3193	1803.22	79.6949
1866.21	89.6119	1866.21	89.2118	1866.21	90.04	1866.21	89.3301	1866.21	90.4567	1866.21	89.9118	1866.21	90.3001	1866.21	89.6055	1866.21	89.4004	1866.21	87.9625	1866.21	88.5274	1866.21	85.931	1866.21	86.4567	1866.21	84.7755	1866.21	83.9451	1866.21	85.0409	1866.21	83.989	1866.21	85.2745	1866.21	84.9259	1866.21	83.0765	1866.21	84.1619	1866.21	81.9354	1866.21	78.7452	1866.21	81.0102	1866.21	73.8198	1866.21	75.3979	1866.21	77.0659	1866.21	73.2453	1866.21	79.0734	1866.21	77.9458	1866.21	79.3663	1866.21	79.8544	1866.21	79.7733	1866.21	80.2346	1866.21	81.7744	1866.21	80.974
1932.13	90.378	1932.13	89.8865	1932.13	90.8019	1932.13	90.2566	1932.13	90.5588	1932.13	90.4132	1932.13	90.094	1932.13	89.4417	1932.13	88.8872	1932.13	88.4665	1932.13	87.3557	1932.13	87.9693	1932.13	86.6297	1932.13	86.1107	1932.13	85.1553	1932.13	82.3847	1932.13	82.8198	1932.13	81.8161	1932.13	81.3147	1932.13	80.5507	1932.13	80.4518	1932.13	75.4114	1932.13	79.7537	1932.13	80.4076	1932.13	77.5464	1932.13	80.7227	1932.13	77.7578	1932.13	75.3912	1932.13	79.5376	1932.13	80.5184	1932.13	78.0657	1932.13	81.0214	1932.13	79.3098	1932.13	81.5578	1932.13	80.3521	1932.13	80.3778
1999.51	89.8115	1999.51	89.9142	1999.51	90.4126	1999.51	90.3566	1999.51	90.8535	1999.51	90.3596	1999.51	90.5983	1999.51	89.5535	1999.51	89.2338	1999.51	87.8714	1999.51	87.4164	1999.51	86.9438	1999.51	86.2352	1999.51	86.0708	1999.51	85.1823	1999.51	82.9642	1999.51	83.5339	1999.51	80.4163	1999.51	82.1491	1999.51	79.0393	1999.51	81.3394	1999.51	67.7953	1999.51	76.5253	1999.51	76.0391	1999.51	71.2466	1999.51	79.0283	1999.51	77.548	1999.51	72.8488	1999.51	81.3059	1999.51	78.3	1999.51	79.6777	1999.51	80.0912	1999.51	78.9878	1999.51	80.9489	1999.51	81.9099	1999.51	81.2704
2069.82	89.4416	2069.82	90.1222	2069.82	89.9115	2069.82	90.9056	2069.82	89.9011	2069.82	90.3413	2069.82	89.44	2069.82	89.0424	2069.82	88.7373	2069.82	87.6783	2069.82	86.8208	2069.82	86.6553	2069.82	85.1804	2069.82	85.9423	2069.82	84.6531	2069.82	83.6326	2069.82	83.4546	2069.82	81.229	2069.82	81.0072	2069.82	81.168	2069.82	77.6334	2069.82	79.1707	2069.82	76.9378	2069.82	69.9685	2069.82	78.2937	2069.82	76.6678	2069.82	77.337	2069.82	75.4704	2069.82	81.2548	2069.82	78.0653	2069.82	79.0997	2069.82	79.1496	2069.82	77.9847	2069.82	80.3055	2069.82	80.3237	2069.82	80.7649
2143.07	91.1397	2143.07	91.0396	2143.07	90.7237	2143.07	90.5483	2143.07	89.7512	2143.07	89.8913	2143.07	88.8121	2143.07	89.0719	2143.07	88.3511	2143.07	87.5589	2143.07	86.9213	2143.07	85.4167	2143.07	85.5138	2143.07	84.2906	2143.07	84.4066	2143.07	83.3339	2143.07	82.2592	2143.07	80.9803	2143.07	80.4536	2143.07	79.1748	2143.07	78.7072	2143.07	79.2191	2143.07	78.7398	2143.07	77.969	2143.07	78.063	2143.07	78.9999	2143.07	75.5542	2143.07	77.3481	2143.07	79.1708	2143.07	78.0893	2143.07	78.2447	2143.07	78.5543	2143.07	73.7929	2143.07	78.8855	2143.07	78.6889	2143.07	79.761
2219.24	91.0594	2219.24	91.3374	2219.24	90.7495	2219.24	90.7027	2219.24	89.7747	2219.24	89.1081	2219.24	87.7372	2219.24	88.0593	2219.24	86.6026	2219.24	87.7663	2219.24	85.8577	2219.24	86.6485	2219.24	85.5979	2219.24	85.1502	2219.24	84.8037	2219.24	83.6216	2219.24	80.8801	2219.24	82.1567	2219.24	79.7673	2219.24	79.5499	2219.24	79.5968	2219.24	79.3569	2219.24	76.8381	2219.24	80.804	2219.24	78.9301	2219.24	79.6922	2219.24	76.4874	2219.24	77.1563	2219.24	77.2044	2219.24	77.6319	2219.24	75.9266	2219.24	77.6385	2219.24	70.7967	2219.24	77.9596	2219.24	76.4349	2219.24	78.4292
2296.88	89.4697	2296.88	89.8896	2296.88	88.6552	2296.88	89.0782	2296.88	89.1063	2296.88	88.4542	2296.88	88.143	2296.88	88.1228	2296.88	86.7331	2296.88	87.3038	2296.88	86.8173	2296.88	86.1884	2296.88	85.1054	2296.88	84.8913	2296.88	83.3817	2296.88	83.6673	2296.88	81.2798	2296.88	82.9817	2296.88	76.9523	2296.88	83.2154	2296.88	74.5381	2296.88	74.476	2296.88	77.1407	2296.88	77.0271	2296.88	75.4135	2296.88	79.0182	2296.88	72.3624	2296.88	76.706	2296.88	74.8207	2296.88	66.6354	2296.88	73.3074	2296.88	74.1204	2296.88	69.0359	2296.88	69.3881	2296.88	64.4686	2296.88	74.139
2378.91	90.9885	2378.91	89.3753	2378.91	90.1993	2378.91	87.9772	2378.91	88.5623	2378.91	88.0338	2378.91	88.6018	2378.91	87.9115	2378.91	87.8742	2378.91	87.2445	2378.91	86.9046	2378.91	85.683	2378.91	85.0814	2378.91	83.4075	2378.91	82.9091	2378.91	82.2113	2378.91	82.0061	2378.91	75.6842	2378.91	78.2408	2378.91	75.3166	2378.91	74.382	2378.91	71.4677	2378.91	73.1101	2378.91	67.0382	2378.91	74.5071	2378.91	75.6363	2378.91	74.0956	2378.91	74.7724	2378.91	74.604	2378.91	70.9903	2378.91	77.0295	2378.91	72.9465	2378.91	76.623	2378.91	70.7972	2378.91	73.0578	2378.91	74.1567
2462.4	90.8155	2462.4	90.6269	2462.4	90.7372	2462.4	89.5212	2462.4	89.1157	2462.4	88.0234	2462.4	87.7167	2462.4	87.8852	2462.4	87.5407	2462.4	86.7496	2462.4	86.5947	2462.4	85.1368	2462.4	85.366	2462.4	83.876	2462.4	83.5553	2462.4	83.2734	2462.4	80.6211	2462.4	79.6746	2462.4	78.9068	2462.4	76.8652	2462.4	78.4816	2462.4	77.0665	2462.4	77.0474	2462.4	70.3127	2462.4	74.4784	2462.4	74.9105	2462.4	72.3956	2462.4	75.0779	2462.4	74.2184	2462.4	72.2317	2462.4	73.3879	2462.4	76.2711	2462.4	72.8547	2462.4	74.7084	2462.4	71.2773	2462.4	74.0135
2548.83	90.1331	2548.83	89.9263	2548.83	89.7792	2548.83	88.9828	2548.83	89.239	2548.83	88.3228	2548.83	87.8085	2548.83	87.8917	2548.83	86.7958	2548.83	86.691	2548.83	86.4513	2548.83	85.2806	2548.83	85.3228	2548.83	84.0741	2548.83	83.9068	2548.83	81.6432	2548.83	81.3642	2548.83	81.0138	2548.83	79.2442	2548.83	78.9987	2548.83	80.1001	2548.83	76.2457	2548.83	76.2653	2548.83	71.5005	2548.83	75.1122	2548.83	75.5804	2548.83	73.7619	2548.83	72.802	2548.83	74.1236	2548.83	73.8918	2548.83	72.7492	2548.83	75.0878	2548.83	74.3148	2548.83	75.0513	2548.83	69.5471	2548.83	73.5911
2639.65	90.7497	2639.65	90.155	2639.65	90.2263	2639.65	89.476	2639.65	88.8863	2639.65	88.7229	2639.65	88.0497	2639.65	87.5661	2639.65	87.0426	2639.65	86.0181	2639.65	86.1445	2639.65	84.6545	2639.65	85.0096	2639.65	83.3188	2639.65	82.6826	2639.65	80.2933	2639.65	80.3101	2639.65	78.875	2639.65	77.0929	2639.65	74.4103	2639.65	77.7887	2639.65	76.2734	2639.65	78.4465	2639.65	72.7794	2639.65	72.6489	2639.65	73.8191	2639.65	73.4413	2639.65	75.1675	2639.65	74.1063	2639.65	73.783	2639.65	71.4494	2639.65	74.4146	2639.65	73.7282	2639.65	74.1973	2639.65	70.6651	2639.65	73.8072
2731.93	90.8762	2731.93	90.5147	2731.93	90.8233	2731.93	89.3385	2731.93	89.5592	2731.93	88.3903	2731.93	87.6866	2731.93	86.864	2731.93	86.7401	2731.93	85.4617	2731.93	85.7731	2731.93	85.1561	2731.93	84.9411	2731.93	83.8718	2731.93	83.05	2731.93	82.3551	2731.93	79.2919	2731.93	80.1411	2731.93	75.7161	2731.93	79.3308	2731.93	74.4224	2731.93	75.4068	2731.93	78.8018	2731.93	72.5491	2731.93	76.4992	2731.93	73.9649	2731.93	71.6293	2731.93	72.9579	2731.93	74.7987	2731.93	73.5506	2731.93	73.83	2731.93	73.6592	2731.93	74.421	2731.93	73.9309	2731.93	71.3452	2731.93	71.9676
2828.61	90.4092	2828.61	90.4966	2828.61	89.9681	2828.61	89.485	2828.61	89.2914	2828.61	88.0959	2828.61	87.828	2828.61	86.6199	2828.61	86.5593	2828.61	86.1661	2828.61	85.3848	2828.61	85.1496	2828.61	83.7881	2828.61	82.6877	2828.61	82.3311	2828.61	80.9908	2828.61	80.3885	2828.61	79.9202	2828.61	77.9535	2828.61	77.7075	2828.61	77.6732	2828.61	73.5242	2828.61	78.4816	2828.61	71.759	2828.61	75.2929	2828.61	70.1662	2828.61	72.9484	2828.61	73.2202	2828.61	73.9933	2828.61	73.0562	2828.61	71.9965	2828.61	73.7027	2828.61	75.3054	2828.61	72.5694	2828.61	70.9425	2828.61	70.3367
2928.22	90.3472	2928.22	89.8873	2928.22	90.2001	2928.22	89.2323	2928.22	89.6314	2928.22	87.8805	2928.22	87.5763	2928.22	86.6399	2928.22	86.1719	2928.22	85.673	2928.22	85.1839	2928.22	83.4761	2928.22	83.8185	2928.22	82.6665	2928.22	81.3299	2928.22	80.9412	2928.22	78.2964	2928.22	78.5161	2928.22	76.6148	2928.22	73.7654	2928.22	75.7047	2928.22	73.4978	2928.22	78.8998	2928.22	71.49	2928.22	73.6655	2928.22	71.0684	2928.22	73.9277	2928.22	72.853	2928.22	71.0149	2928.22	72.813	2928.22	74.0218	2928.22	73.3898	2928.22	73.585	2928.22	73.2533	2928.22	71.4114	2928.22	68.1258
3030.76	90.5606	3030.76	90.1821	3030.76	89.8739	3030.76	88.9179	3030.76	89.5672	3030.76	87.7362	3030.76	87.9327	3030.76	86.4592	3030.76	85.9912	3030.76	84.4352	3030.76	84.2995	3030.76	83.1071	3030.76	83.7151	3030.76	82.0094	3030.76	81.8505	3030.76	79.2129	3030.76	80.11	3030.76	75.5699	3030.76	78.9447	3030.76	75.0596	3030.76	77.475	3030.76	74.7211	3030.76	75.1035	3030.76	71.1587	3030.76	73.8887	3030.76	73.0284	3030.76	73.2733	3030.76	71.8032	3030.76	72.0409	3030.76	70.4359	3030.76	70.3729	3030.76	73.7177	3030.76	73.8826	3030.76	71.9241	3030.76	69.1942	3030.76	65.3399
3137.7	90.3363	3137.7	90.2552	3137.7	90.1693	3137.7	89.5462	3137.7	89.523	3137.7	87.9227	3137.7	87.6643	3137.7	86.3682	3137.7	86.2477	3137.7	84.442	3137.7	84.2685	3137.7	83.6513	3137.7	83.3663	3137.7	81.6995	3137.7	82.4137	3137.7	81.0313	3137.7	81.041	3137.7	80.0375	3137.7	79.7795	3137.7	78.438	3137.7	76.4032	3137.7	72.6525	3137.7	71.4364	3137.7	70.2993	3137.7	70.9052	3137.7	70.4278	3137.7	72.9779	3137.7	69.4485	3137.7	71.7056	3137.7	72.9898	3137.7	70.9545	3137.7	72.838	3137.7	71.2155	3137.7	72.7995	3137.7	69.8332	3137.7	66.7988
3249.02	90.7924	3249.02	89.9368	3249.02	90.6019	3249.02	89.2485	3249.02	90.0096	3249.02	88.5539	3249.02	88.2757	3249.02	86.3401	3249.02	85.9449	3249.02	83.8945	3249.02	84.6816	3249.02	82.4182	3249.02	82.2743	3249.02	81.4993	3249.02	81.7937	3249.02	78.7294	3249.02	79.7327	3249.02	77.6795	3249.02	77.9558	3249.02	74.1169	3249.02	74.5409	3249.02	72.4319	3249.02	72.468	3249.02	70.8039	3249.02	73.7938	3249.02	68.8619	3249.02	71.4808	3249.02	71.2615	3249.02	71.6513	3249.02	71.0729	3249.02	71.498	3249.02	72.7746	3249.02	73.6257	3249.02	72.9713	3249.02	70.6825	3249.02	64.5001
3363.28	90.861	3363.28	90.7225	3363.28	90.9433	3363.28	90.1223	3363.28	89.9827	3363.28	88.6504	3363.28	88.6053	3363.28	85.983	3363.28	86.2068	3363.28	83.5168	3363.28	84.6206	3363.28	82.398	3363.28	82.7571	3363.28	79.9221	3363.28	81.0819	3363.28	79.9314	3363.28	78.8401	3363.28	76.4713	3363.28	73.2977	3363.28	74.1695	3363.28	71.1183	3363.28	73.8488	3363.28	71.2342	3363.28	71.636	3363.28	68.6069	3363.28	70.31	3363.28	71.9541	3363.28	70.6575	3363.28	71.7209	3363.28	71.3594	3363.28	73.1926	3363.28	73.2575	3363.28	72.9652	3363.28	72.8467	3363.28	71.6449	3363.28	61.5136
3481.93	91.3045	3481.93	91.0249	3481.93	91.7728	3481.93	90.7563	3481.93	90.4822	3481.93	88.641	3481.93	88.6465	3481.93	86.0739	3481.93	86.2002	3481.93	83.7297	3481.93	83.9043	3481.93	83.2857	3481.93	83.1851	3481.93	82.4185	3481.93	81.5918	3481.93	81.1236	3481.93	78.972	3481.93	79.1452	3481.93	72.061	3481.93	77.7281	3481.93	64.1107	3481.93	72.6386	3481.93	68.5358	3481.93	70.2654	3481.93	69.7478	3481.93	70.5655	3481.93	72.2027	3481.93	70.8433	3481.93	70.6378	3481.93	72.4266	3481.93	73.574	3481.93	73.3021	3481.93	72.9032	3481.93	73.0672	3481.93	68.8456	3481.93	63.9345
3604.98	91.291	3604.98	91.7103	3604.98	91.6426	3604.98	90.6069	3604.98	90.8322	3604.98	88.6851	3604.98	88.6458	3604.98	86.4608	3604.98	86.4639	3604.98	84.1191	3604.98	83.8321	3604.98	82.9636	3604.98	82.5451	3604.98	82.4029	3604.98	81.6676	3604.98	80.6114	3604.98	80.6397	3604.98	78.4906	3604.98	77.3338	3604.98	76.7323	3604.98	74.0352	3604.98	73.7362	3604.98	65.7699	3604.98	71.7299	3604.98	67.8093	3604.98	69.1421	3604.98	71.1558	3604.98	70.4088	3604.98	71.6245	3604.98	70.9918	3604.98	73.4103	3604.98	74.1556	3604.98	71.4951	3604.98	72.0874	3604.98	69.5435	3604.98	62.5122
3732.42	91.9483	3732.42	91.7086	3732.42	91.9261	3732.42	90.7062	3732.42	90.7745	3732.42	89.2037	3732.42	89.1671	3732.42	86.4026	3732.42	86.0425	3732.42	84.3904	3732.42	84.3056	3732.42	83.521	3732.42	83.0992	3732.42	81.5937	3732.42	82.6785	3732.42	80.584	3732.42	81.4968	3732.42	79.1345	3732.42	78.9861	3732.42	77.0584	3732.42	76.9514	3732.42	73.2007	3732.42	71.2738	3732.42	73.7809	3732.42	71.0732	3732.42	69.6895	3732.42	69.7835	3732.42	69.7525	3732.42	69.9194	3732.42	72.2891	3732.42	72.643	3732.42	74.2249	3732.42	72.7181	3732.42	72.8968	3732.42	70.3088	3732.42	64.6053
3864.26	92.1655	3864.26	92.3088	3864.26	92.0817	3864.26	90.7564	3864.26	90.9008	3864.26	89.1134	3864.26	89.0743	3864.26	86.2007	3864.26	86.7472	3864.26	85.0452	3864.26	83.1658	3864.26	82.3028	3864.26	83.1611	3864.26	82.2736	3864.26	82.6826	3864.26	80.9605	3864.26	83.4975	3864.26	79.2515	3864.26	81.1376	3864.26	75.1601	3864.26	77.481	3864.26	74.222	3864.26	77.3399	3864.26	70.5201	3864.26	72.0541	3864.26	68.2714	3864.26	70.2006	3864.26	70.4297	3864.26	70.7373	3864.26	71.5738	3864.26	72.0566	3864.26	73.4534	3864.26	71.1221	3864.26	71.5862	3864.26	69.874	3864.26	61.9725
4000.49	92.5334	4000.49	91.6917	4000.49	91.7488	4000.49	90.3942	4000.49	91.1185	4000.49	89.0733	4000.49	89.0173	4000.49	87.1496	4000.49	86.7074	4000.49	84.228	4000.49	84.0625	4000.49	82.8804	4000.49	82.969	4000.49	81.6488	4000.49	83.0789	4000.49	80.2061	4000.49	81.8233	4000.49	78.2157	4000.49	78.0646	4000.49	75.2756	4000.49	76.5839	4000.49	73.7967	4000.49	77.3119	4000.49	70.8485	4000.49	72.9414	4000.49	67.7987	4000.49	63.7678	4000.49	70.1475	4000.49	68.122	4000.49	70.8069	4000.49	71.055	4000.49	73.1739	4000.49	69.9399	4000.49	72.1086	4000.49	71.464	4000.49	58.8263
4141.11	92.5428	4141.11	91.7276	4141.11	91.6421	4141.11	90.6668	4141.11	90.5006	4141.11	89.4131	4141.11	89.1823	4141.11	86.3175	4141.11	86.227	4141.11	83.8352	4141.11	83.7117	4141.11	81.6892	4141.11	83.2001	4141.11	81.3831	4141.11	82.7318	4141.11	79.0575	4141.11	79.8674	4141.11	77.2739	4141.11	78.9358	4141.11	74.2053	4141.11	77.6692	4141.11	71.6601	4141.11	73.6101	4141.11	71.154	4141.11	60.543	4141.11	68.3154	4141.11	63.013	4141.11	69.026	4141.11	70.8547	4141.11	70.4619	4141.11	71.8913	4141.11	74.0045	4141.11	69.9217	4141.11	72.7496	4141.11	70.3981	4141.11	58.3256
4287.6	92.6482	4287.6	91.5477	4287.6	92.0051	4287.6	90.8325	4287.6	90.5793	4287.6	88.9881	4287.6	89.2482	4287.6	86.6842	4287.6	86.6977	4287.6	84.4745	4287.6	83.1026	4287.6	82.1888	4287.6	81.1806	4287.6	81.6952	4287.6	80.9817	4287.6	81.0742	4287.6	79.082	4287.6	79.2663	4287.6	79.1694	4287.6	76.112	4287.6	74.861	4287.6	73.8202	4287.6	63.0771	4287.6	68.7202	4287.6	60.5688	4287.6	64.7159	4287.6	70.3662	4287.6	67.5051	4287.6	71.1603	4287.6	70.7333	4287.6	69.852	4287.6	73.1517	4287.6	71.8898	4287.6	71.416	4287.6	70.522	4287.6	62.6089
4438.48	92.6641	4438.48	91.9514	4438.48	92.3205	4438.48	90.7487	4438.48	90.4434	4438.48	89.4591	4438.48	89.3244	4438.48	86.5499	4438.48	86.7671	4438.48	84.1525	4438.48	84.7812	4438.48	82.0942	4438.48	80.835	4438.48	81.5665	4438.48	80.9556	4438.48	78.5467	4438.48	78.2633	4438.48	76.4549	4438.48	75.3718	4438.48	71.9251	4438.48	58.4734	4438.48	73.9361	4438.48	72.0998	4438.48	70.9101	4438.48	67.7059	4438.48	67.4952	4438.48	71.3137	4438.48	69.0123	4438.48	69.2363	4438.48	70.406	4438.48	71.0397	4438.48	72.1843	4438.48	71.226	4438.48	70.6629	4438.48	71.3663	4438.48	54.8309
4595.21	92.6179	4595.21	92.2549	4595.21	92.5473	4595.21	91.0403	4595.21	91.0413	4595.21	89.0294	4595.21	89.464	4595.21	87.2849	4595.21	86.6119	4595.21	84.847	4595.21	84.4238	4595.21	82.3588	4595.21	80.8406	4595.21	81.8389	4595.21	81.2573	4595.21	80.7565	4595.21	79.119	4595.21	78.9157	4595.21	74.8634	4595.21	76.9452	4595.21	73.7877	4595.21	72.6309	4595.21	76.5693	4595.21	67.9852	4595.21	66.9549	4595.21	65.1159	4595.21	68.995	4595.21	68.9282	4595.21	67.7916	4595.21	70.2445	4595.21	73.755	4595.21	72.4924	4595.21	69.6287	4595.21	72.5675	4595.21	70.7645	4595.21	57.4681
4756.35	92.522	4756.35	92.261	4756.35	92.3469	4756.35	90.9366	4756.35	91.0484	4756.35	89.4417	4756.35	89.5381	4756.35	87.2099	4756.35	86.8272	4756.35	85.1291	4756.35	84.5305	4756.35	82.6788	4756.35	81.9845	4756.35	81.7108	4756.35	80.0882	4756.35	78.9858	4756.35	80.6358	4756.35	76.5664	4756.35	79.0063	4756.35	72.0037	4756.35	77.1037	4756.35	74.098	4756.35	71.1046	4756.35	69.4222	4756.35	63.2951	4756.35	66.8464	4756.35	66.7915	4756.35	66.912	4756.35	71.2372	4756.35	69.5776	4756.35	71.8872	4756.35	73.3781	4756.35	71.6282	4756.35	71.6753	4756.35	70.9194	4756.35	61.5496
4924.8	92.8162	4924.8	92.2068	4924.8	92.0062	4924.8	91.1144	4924.8	91.1854	4924.8	89.0056	4924.8	89.188	4924.8	87.9208	4924.8	87.6483	4924.8	84.1484	4924.8	84.6772	4924.8	82.8264	4924.8	82.8319	4924.8	80.9865	4924.8	79.7555	4924.8	79.6588	4924.8	81.0176	4924.8	77.3562	4924.8	79.4268	4924.8	76.842	4924.8	76.7497	4924.8	72.5132	4924.8	69.0277	4924.8	67.1004	4924.8	68.317	4924.8	65.8035	4924.8	69.8033	4924.8	64.6238	4924.8	70.4517	4924.8	70.3645	4924.8	70.9393	4924.8	72.5617	4924.8	72.6818	4924.8	69.725	4924.8	68.5551	4924.8	61.4515
5097.66	92.4388	5097.66	92.0544	5097.66	92.2164	5097.66	90.8936	5097.66	90.9384	5097.66	89.5347	5097.66	89.5174	5097.66	87.2456	5097.66	87.0803	5097.66	84.9989	5097.66	85.661	5097.66	82.7992	5097.66	83.1815	5097.66	80.9179	5097.66	80.7125	5097.66	79.5032	5097.66	80.0038	5097.66	76.5921	5097.66	79.6719	5097.66	73.7703	5097.66	73.7987	5097.66	72.8568	5097.66	69.1743	5097.66	68.8992	5097.66	68.8406	5097.66	65.6369	5097.66	70.5523	5097.66	65.139	5097.66	66.8916	5097.66	69.7522	5097.66	69.6644	5097.66	69.6729	5097.66	69.9988	5097.66	71.4482	5097.66	68.0303	5097.66	62.3135
5277.83	92.3867	5277.83	92.0472	5277.83	92.2648	5277.83	91.1018	5277.83	90.8952	5277.83	89.1548	5277.83	89.3853	5277.83	87.8317	5277.83	87.3961	5277.83	84.7364	5277.83	84.626	5277.83	83.2972	5277.83	84.0254	5277.83	80.73	5277.83	81.2171	5277.83	78.5306	5277.83	79.7208	5277.83	76.2536	5277.83	75.9327	5277.83	75.5995	5277.83	72.6641	5277.83	70.5008	5277.83	64.6228	5277.83	66.8472	5277.83	57.3256	5277.83	65.7777	5277.83	66.3779	5277.83	63.6825	5277.83	62.7728	5277.83	68.6136	5277.83	69.0491	5277.83	71.7897	5277.83	64.1097	5277.83	71.5658	5277.83	69.9208	5277.83	60.6469
5463.87	92.501	5463.87	91.7052	5463.87	91.4995	5463.87	91.351	5463.87	90.9114	5463.87	89.3267	5463.87	89.0278	5463.87	87.5881	5463.87	87.8883	5463.87	85.2961	5463.87	84.216	5463.87	82.8089	5463.87	82.0316	5463.87	80.167	5463.87	80.2549	5463.87	78.7807	5463.87	78.9417	5463.87	75.2937	5463.87	76.6371	5463.87	73.869	5463.87	74.2485	5463.87	71.7928	5463.87	56.6096	5463.87	67.8069	5463.87	40.8867	5463.87	65.896	5463.87	64.8088	5463.87	62.5593	5463.87	62.3797	5463.87	66.1631	5463.87	70.0911	5463.87	71.7852	5463.87	70.1607	5463.87	69.7665	5463.87	71.3919	5463.87	61.7029
5657.23	92.1326	5657.23	91.5041	5657.23	91.6899	5657.23	91.4381	5657.23	90.9394	5657.23	89.3259	5657.23	89.5019	5657.23	88.1458	5657.23	87.438	5657.23	84.797	5657.23	84.7992	5657.23	82.8563	5657.23	81.9291	5657.23	80.0839	5657.23	80.0406	5657.23	78.6754	5657.23	77.8914	5657.23	74.4634	5657.23	75.4143	5657.23	73.805	5657.23	78.1255	5657.23	69.614	5657.23	73.2634	5657.23	67.0874	5657.23	66.916	5657.23	64.9019	5657.23	63.2899	5657.23	57.9971	5657.23	60.3115	5657.23	67.3963	5657.23	68.3287	5657.23	70.222	5657.23	70.4524	5657.23	69.687	5657.23	69.3708	5657.23	65.4061
5856.45	91.882	5856.45	92.0391	5856.45	91.9638	5856.45	91.0212	5856.45	90.3901	5856.45	89.7885	5856.45	89.8251	5856.45	87.6708	5856.45	87.3515	5856.45	85.4877	5856.45	85.3217	5856.45	82.6512	5856.45	82.9351	5856.45	80.0844	5856.45	80.0191	5856.45	78.0521	5856.45	76.3725	5856.45	77.1656	5856.45	74.0484	5856.45	74.1128	5856.45	73.4607	5856.45	69.5743	5856.45	64.4224	5856.45	67.2047	5856.45	56.4389	5856.45	61.11	5856.45	62.9989	5856.45	58.9786	5856.45	62.6064	5856.45	66.7095	5856.45	65.3214	5856.45	70.3855	5856.45	67.8504	5856.45	68.9151	5856.45	66.2034	5856.45	62.6635
6062.99	91.751	6062.99	91.5978	6062.99	91.495	6062.99	91.1143	6062.99	90.6511	6062.99	89.8949	6062.99	89.6097	6062.99	87.4625	6062.99	87.6377	6062.99	84.8816	6062.99	84.8715	6062.99	83.1116	6062.99	82.9879	6062.99	80.6308	6062.99	79.7439	6062.99	78.1528	6062.99	76.4657	6062.99	73.3272	6062.99	74.6068	6062.99	73.8954	6062.99	73.429	6062.99	70.1676	6062.99	73.7864	6062.99	67.9455	6062.99	67.3174	6062.99	64.1682	6062.99	49.6641	6062.99	59.3331	6062.99	63.253	6062.99	66.714	6062.99	65.8081	6062.99	70.7231	6062.99	66.5789	6062.99	68.7532	6062.99	69.4763	6062.99	63.4582
6276.86	91.6264	6276.86	91.5623	6276.86	91.469	6276.86	91.1482	6276.86	90.644	6276.86	89.8372	6276.86	89.7051	6276.86	87.4455	6276.86	87.5168	6276.86	85.2897	6276.86	85.0744	6276.86	82.8163	6276.86	83.0303	6276.86	79.629	6276.86	79.9416	6276.86	78.0643	6276.86	76.9284	6276.86	76.3629	6276.86	74.5416	6276.86	72.7355	6276.86	70.4036	6276.86	70.2262	6276.86	69.7925	6276.86	67.4711	6276.86	67.2821	6276.86	62.6455	6276.86	52.5314	6276.86	56.6953	6276.86	63.3596	6276.86	66.5995	6276.86	65.1589	6276.86	69.0854	6276.86	67.5029	6276.86	67.722	6276.86	69.7618	6276.86	63.3504
6498.05	91.6509	6498.05	91.0932	6498.05	91.0279	6498.05	91.3956	6498.05	90.7971	6498.05	89.4704	6498.05	89.2717	6498.05	87.3393	6498.05	87.452	6498.05	85.3001	6498.05	84.5836	6498.05	82.8204	6498.05	82.3978	6498.05	80.3018	6498.05	79.9815	6498.05	77.1133	6498.05	79.1925	6498.05	74.3868	6498.05	75.9578	6498.05	73.0645	6498.05	70.9204	6498.05	69.1662	6498.05	69.999	6498.05	66.2953	6498.05	66.3701	6498.05	62.5689	6498.05	61.2998	6498.05	58.5535	6498.05	60.7843	6498.05	63.9461	6498.05	70.1131	6498.05	69.6232	6498.05	68.3185	6498.05	68.641	6498.05	67.5963	6498.05	60.9491
6726.56	91.1439	6726.56	91.1952	6726.56	91.1788	6726.56	91.3225	6726.56	90.8453	6726.56	89.5909	6726.56	89.4523	6726.56	87.5787	6726.56	87.0522	6726.56	84.8468	6726.56	84.418	6726.56	82.7477	6726.56	81.6703	6726.56	80.2123	6726.56	80.8879	6726.56	78.3269	6726.56	79.4365	6726.56	74.6466	6726.56	77.0341	6726.56	72.1232	6726.56	71.2622	6726.56	70.3837	6726.56	66.5606	6726.56	66.5726	6726.56	62.1948	6726.56	61.7899	6726.56	63.4341	6726.56	57.8829	6726.56	56.9994	6726.56	64.3635	6726.56	68.0131	6726.56	68.3621	6726.56	67.5607	6726.56	69.8044	6726.56	68.6688	6726.56	55.0354
6963.87	91.1015	6963.87	91.4772	6963.87	91.3513	6963.87	91.2361	6963.87	90.9275	6963.87	89.8596	6963.87	89.6781	6963.87	87.1392	6963.87	87.0736	6963.87	85.0571	6963.87	83.6929	6963.87	82.7834	6963.87	82.2837	6963.87	79.9949	6963.87	80.9969	6963.87	77.7027	6963.87	78.6567	6963.87	74.7226	6963.87	76.0392	6963.87	72.2869	6963.87	75.5838	6963.87	68.5019	6963.87	73.3264	6963.87	65.9733	6963.87	54.7352	6963.87	61.4238	6963.87	50.0507	6963.87	60.4314	6963.87	45.8524	6963.87	63.5562	6963.87	66.1715	6963.87	69.3904	6963.87	68.2139	6963.87	67.5167	6963.87	69.8714	6963.87	62.4572
7209.96	91.1208	7209.96	91.5521	7209.96	91.3949	7209.96	91.2429	7209.96	90.7566	7209.96	89.863	7209.96	89.7813	7209.96	87.1682	7209.96	87.2033	7209.96	84.8446	7209.96	84.2655	7209.96	82.6966	7209.96	82.2948	7209.96	80.0475	7209.96	81.8004	7209.96	77.9177	7209.96	74.7841	7209.96	74.6312	7209.96	72.8714	7209.96	72.3393	7209.96	73.9298	7209.96	68.8804	7209.96	68.8668	7209.96	65.5979	7209.96	63.3585	7209.96	63.1814	7209.96	56.9486	7209.96	58.2405	7209.96	51.688	7209.96	62.8117	7209.96	63.9563	7209.96	68.313	7209.96	66.807	7209.96	70.2239	7209.96	67.7044	7209.96	54.1279
7464.84	91.1218	7464.84	91.5271	7464.84	91.5832	7464.84	91.4277	7464.84	91.2147	7464.84	89.8551	7464.84	89.5444	7464.84	87.2377	7464.84	87.4708	7464.84	84.7865	7464.84	84.3854	7464.84	82.1501	7464.84	82.0932	7464.84	79.7707	7464.84	80.5993	7464.84	77.8463	7464.84	75.4787	7464.84	73.5029	7464.84	73.3531	7464.84	72.9088	7464.84	72.8546	7464.84	68.722	7464.84	73.1028	7464.84	65.3094	7464.84	66.9183	7464.84	64.8139	7464.84	52.3077	7464.84	61.5032	7464.84	53.2829	7464.84	62.7415	7464.84	60.8433	7464.84	67.6176	7464.84	66.4872	7464.84	67.918	7464.84	67.4355	7464.84	57.874
7727.05	91.0382	7727.05	91.662	7727.05	91.5514	7727.05	91.4336	7727.05	91.2727	7727.05	90.0589	7727.05	89.8418	7727.05	87.4073	7727.05	87.4379	7727.05	84.6192	7727.05	85.1431	7727.05	82.0805	7727.05	81.2636	7727.05	79.9452	7727.05	80.2666	7727.05	78.1841	7727.05	77.7366	7727.05	73.6393	7727.05	75.3272	7727.05	72.4773	7727.05	65.955	7727.05	68.3616	7727.05	72.4262	7727.05	65.0135	7727.05	67.4019	7727.05	65.4174	7727.05	59.4721	7727.05	62.6323	7727.05	54.7717	7727.05	61.4201	7727.05	63.6288	7727.05	69.2498	7727.05	67.2767	7727.05	68.6049	7727.05	68.198	7727.05	58.8284
7999.51	91.4116	7999.51	91.6333	7999.51	91.7115	7999.51	91.3159	7999.51	91.0266	7999.51	89.7996	7999.51	89.3618	7999.51	87.6567	7999.51	87.2931	7999.51	84.4733	7999.51	84.8127	7999.51	82.3074	7999.51	81.9151	7999.51	79.7714	7999.51	78.7333	7999.51	78.2043	7999.51	78.5538	7999.51	73.8091	7999.51	75.2097	7999.51	71.3988	7999.51	66.4355	7999.51	67.9861	7999.51	69.5283	7999.51	65.5385	7999.51	64.2413	7999.51	65.1059	7999.51	63.0176	7999.51	60.6797	7999.51	43.9526	7999.51	61.8266	7999.51	66.1313	7999.51	65.9805	7999.51	64.8669	7999.51	68.4104	7999.51	67.4366	7999.51	56.3304
8282.23	91.9573	8282.23	91.8717	8282.23	91.7647	8282.23	91.0124	8282.23	90.7401	8282.23	89.5949	8282.23	89.1743	8282.23	87.2109	8282.23	86.7724	8282.23	84.4172	8282.23	83.4086	8282.23	81.7272	8282.23	81.13	8282.23	78.6297	8282.23	79.808	8282.23	77.0772	8282.23	78.2536	8282.23	73.3035	8282.23	73.2472	8282.23	70.5452	8282.23	70.0796	8282.23	66.5455	8282.23	69.96	8282.23	65.3911	8282.23	51.6521	8282.23	63.7133	8282.23	59.692	8282.23	55.9748	8282.23	56.6194	8282.23	56.2673	8282.23	66.2342	8282.23	66.4046	8282.23	66.4443	8282.23	66.2526	8282.23	65.7853	8282.23	56.4812
8573.73	92.3708	8573.73	92.0215	8573.73	91.9867	8573.73	90.9011	8573.73	90.8751	8573.73	89.5836	8573.73	89.4598	8573.73	87.1608	8573.73	87.0121	8573.73	83.6077	8573.73	82.831	8573.73	80.2958	8573.73	79.8478	8573.73	77.306	8573.73	78.1413	8573.73	76.2065	8573.73	76.716	8573.73	71.9979	8573.73	72.1496	8573.73	69.2289	8573.73	66.448	8573.73	66.0949	8573.73	66.758	8573.73	64.1222	8573.73	59.8821	8573.73	63.4464	8573.73	38.385	8573.73	59.0854	8573.73	53.4785	8573.73	57.3184	8573.73	63.8247	8573.73	64.974	8573.73	66.4906	8573.73	66.04	8573.73	65.0081	8573.73	55.2318
8876.95	92.2982	8876.95	91.9793	8876.95	92.0228	8876.95	91.0049	8876.95	91.0316	8876.95	89.5896	8876.95	89.7279	8876.95	86.9778	8876.95	87.4256	8876.95	83.3527	8876.95	82.7952	8876.95	80.5115	8876.95	79.5262	8876.95	77.5185	8876.95	77.9798	8876.95	76.4846	8876.95	73.6168	8876.95	71.6125	8876.95	69.0953	8876.95	70.2909	8876.95	66.7371	8876.95	65.3706	8876.95	67.7214	8876.95	64.1325	8876.95	62.5998	8876.95	63.9412	8876.95	53.1763	8876.95	57.6621	8876.95	56.9934	8876.95	50.8122	8876.95	55.4505	8876.95	65.8872	8876.95	65.8458	8876.95	64.0348	8876.95	62.683	8876.95	59.7058
9188.96	91.9675	9188.96	91.6077	9188.96	91.6791	9188.96	90.8644	9188.96	90.9665	9188.96	89.5097	9188.96	89.4958	9188.96	86.747	9188.96	87.0373	9188.96	83.8473	9188.96	82.7435	9188.96	80.8125	9188.96	79.2805	9188.96	77.2565	9188.96	77.8018	9188.96	76.0656	9188.96	74.5931	9188.96	71.1513	9188.96	74.0829	9188.96	70.0621	9188.96	70.5418	9188.96	63.894	9188.96	66.1498	9188.96	64.0043	9188.96	62.6239	9188.96	63.6064	9188.96	62.4033	9188.96	57.1319	9188.96	56.6664	9188.96	53.8832	9188.96	56.4111	9188.96	64.1168	9188.96	58.826	9188.96	66.2678	9188.96	61.5595	9188.96	55.8102
9514.16	91.3783	9514.16	91.4106	9514.16	91.2311	9514.16	90.8224	9514.16	91.0381	9514.16	89.4519	9514.16	89.4136	9514.16	86.7946	9514.16	86.6357	9514.16	84.1165	9514.16	82.437	9514.16	81.0666	9514.16	80.5272	9514.16	77.0607	9514.16	78.0816	9514.16	75.5768	9514.16	75.185	9514.16	70.8461	9514.16	73.7369	9514.16	69.3511	9514.16	69.0174	9514.16	62.125	9514.16	64.8094	9514.16	64.4422	9514.16	61.0927	9514.16	63.9473	9514.16	56.2919	9514.16	58.6698	9514.16	36.6634	9514.16	51.1347	9514.16	54.9098	9514.16	64.7094	9514.16	59.7682	9514.16	63.0994	9514.16	58.8509	9514.16	57.8371
9849.61	91.1795	9849.61	91.4586	9849.61	91.3372	9849.61	91.1228	9849.61	91.337	9849.61	89.5738	9849.61	89.4212	9849.61	87.0193	9849.61	86.5804	9849.61	84.0459	9849.61	82.9837	9849.61	80.8576	9849.61	79.975	9849.61	76.4631	9849.61	76.4486	9849.61	74.6594	9849.61	72.2783	9849.61	70.8005	9849.61	69.7019	9849.61	68.2965	9849.61	64.6686	9849.61	61.5311	9849.61	67.8993	9849.61	63.668	9849.61	65.9973	9849.61	62.027	9849.61	55.5796	9849.61	58.5525	9849.61	56.012	9849.61	47.126	9849.61	52.5993	9849.61	60.852	9849.61	61.6259	9849.61	66.0413	9849.61	60.5579	9849.61	53.6884
10196.8	91.4196	10196.8	91.7128	10196.8	91.5242	10196.8	91.4771	10196.8	91.6352	10196.8	89.8032	10196.8	89.4458	10196.8	87.1339	10196.8	86.7322	10196.8	83.9812	10196.8	82.6498	10196.8	79.7614	10196.8	78.9762	10196.8	76.2901	10196.8	74.664	10196.8	74.0692	10196.8	73.2708	10196.8	70.1671	10196.8	68.1104	10196.8	68.0729	10196.8	58.3039	10196.8	60.771	10196.8	69.1802	10196.8	63.1634	10196.8	68.1268	10196.8	59.4926	10196.8	55.3644	10196.8	51.99	10196.8	58.8082	10196.8	44.7573	10196.8	56.3083	10196.8	62.4478	10196.8	59.9584	10196.8	63.2808	10196.8	58.5607	10196.8	58.8197
10555.7	89.9713	10555.7	91.0713	10555.7	90.5382	10555.7	90.9575	10555.7	91.2379	10555.7	89.4621	10555.7	89.3838	10555.7	87.0601	10555.7	86.7649	10555.7	83.9762	10555.7	82.3356	10555.7	79.7544	10555.7	78.1283	10555.7	76.4404	10555.7	76.0099	10555.7	73.8535	10555.7	72.9645	10555.7	70.972	10555.7	71.028	10555.7	67.6194	10555.7	61.5801	10555.7	59.8013	10555.7	68.9051	10555.7	63.0199	10555.7	67.9287	10555.7	60.6945	10555.7	56.7177	10555.7	59.084	10555.7	60.7049	10555.7	52.3647	10555.7	56.9595	10555.7	59.5753	10555.7	61.3404	10555.7	60.248	10555.7	54.5232	10555.7	57.0238
10927.7	90.3208	10927.7	91.2689	10927.7	90.4084	10927.7	91.033	10927.7	91.3013	10927.7	89.7168	10927.7	89.8559	10927.7	87.3983	10927.7	87.2804	10927.7	83.9908	10927.7	82.3591	10927.7	79.2394	10927.7	77.8464	10927.7	76.4136	10927.7	76.054	10927.7	72.7997	10927.7	70.5471	10927.7	70.5068	10927.7	69.6145	10927.7	66.67	10927.7	61.9101	10927.7	59.6723	10927.7	68.0103	10927.7	62.0543	10927.7	68.0777	10927.7	60.6021	10927.7	57.0157	10927.7	59.8762	10927.7	58.5889	10927.7	44.0523	10927.7	56.9519	10927.7	61.3215	10927.7	60.1708	10927.7	60.7521	10927.7	56.9932	10927.7	59.2918
11313	91.326	11313	91.7072	11313	91.0062	11313	90.7938	11313	91.2445	11313	89.8409	11313	89.94	11313	87.2478	11313	87.2766	11313	83.3713	11313	81.6241	11313	78.0685	11313	78.5263	11313	75.7697	11313	75.7429	11313	71.4684	11313	67.8315	11313	69.9706	11313	68.3335	11313	64.2104	11313	63.4541	11313	60.0837	11313	64.2894	11313	60.9282	11313	67.3383	11313	58.8357	11313	53.6651	11313	58.9192	11313	51.7223	11313	50.1416	11313	56.7352	11313	59.0927	11313	59.396	11313	57.6062	11313	54.4979	11313	54.5592
11712.9	92.0848	11712.9	92.1504	11712.9	91.5038	11712.9	90.7201	11712.9	91.4181	11712.9	89.6739	11712.9	89.802	11712.9	86.7796	11712.9	86.9928	11712.9	82.4999	11712.9	81.5988	11712.9	76.5499	11712.9	78.4055	11712.9	75.5495	11712.9	74.6816	11712.9	70.7446	11712.9	72.9364	11712.9	70.0483	11712.9	71.7329	11712.9	63.3898	11712.9	62.0859	11712.9	60.3334	11712.9	67.1961	11712.9	60.5784	11712.9	67.0623	11712.9	57.7083	11712.9	60.2194	11712.9	57.1886	11712.9	47.1195	11712.9	50.7936	11712.9	56.6026	11712.9	58.3696	11712.9	60.1302	11712.9	59.2636	11712.9	56.7163	11712.9	59.925
12126	92.7285	12126	92.4478	12126	91.8663	12126	90.75	12126	91.5614	12126	89.6437	12126	89.7011	12126	86.5656	12126	86.8637	12126	82.5983	12126	82.3613	12126	76.8342	12126	78.4368	12126	76.2214	12126	76.9178	12126	70.5874	12126	72.9504	12126	70.2509	12126	70.3663	12126	62.9269	12126	62.5946	12126	61.3124	12126	68.3011	12126	60.8094	12126	67.766	12126	57.1388	12126	59.2571	12126	60.06	12126	52.8193	12126	48.8638	12126	57.8051	12126	54.8323	12126	55.6855	12126	56.7859	12126	56.2796	12126	56.0984
12553.7	92.972	12553.7	92.7231	12553.7	92.2311	12553.7	90.8664	12553.7	91.689	12553.7	89.8795	12553.7	89.9957	12553.7	86.648	12553.7	86.9401	12553.7	83.1693	12553.7	82.2905	12553.7	77.3508	12553.7	78.3014	12553.7	76.6442	12553.7	76.1334	12553.7	70.2734	12553.7	69.7457	12553.7	70.554	12553.7	69.9097	12553.7	61.3591	12553.7	64.5754	12553.7	63.3996	12553.7	64.6429	12553.7	61.8751	12553.7	67.4743	12553.7	59.1394	12553.7	53.894	12553.7	60.6788	12553.7	53.1194	12553.7	50.6788	12553.7	58.7698	12553.7	53.8059	12553.7	55.4611	12553.7	49.4981	12553.7	55.7263	12553.7	59.4457
12996.1	92.9992	12996.1	92.8985	12996.1	92.3938	12996.1	90.9284	12996.1	91.8236	12996.1	89.9069	12996.1	90.1198	12996.1	86.2381	12996.1	87.2887	12996.1	82.9482	12996.1	82.2948	12996.1	76.8725	12996.1	79.6818	12996.1	76.1812	12996.1	76.9732	12996.1	69.7989	12996.1	70.1335	12996.1	70.1878	12996.1	71.5047	12996.1	59.8181	12996.1	63.2418	12996.1	62.4158	12996.1	67.9154	12996.1	61.5989	12996.1	69.6985	12996.1	57.1456	12996.1	57.7557	12996.1	60.2151	12996.1	50.6034	12996.1	52.594	12996.1	55.8801	12996.1	46.501	12996.1	61.0853	12996.1	51.7583	12996.1	53.3023	12996.1	62.4378
13454.6	92.8781	13454.6	92.6301	13454.6	92.1716	13454.6	90.8405	13454.6	91.6449	13454.6	89.9229	13454.6	89.7509	13454.6	85.8031	13454.6	86.4643	13454.6	82.6459	13454.6	82.7117	13454.6	76.521	13454.6	79.247	13454.6	75.4045	13454.6	76.2862	13454.6	69.2693	13454.6	71.1777	13454.6	69.2058	13454.6	70.2103	13454.6	61.168	13454.6	62.9172	13454.6	63.1496	13454.6	68.0835	13454.6	61.1605	13454.6	68.5799	13454.6	57.1449	13454.6	59.1822	13454.6	61.0062	13454.6	43.9808	13454.6	54.6658	13454.6	56.4285	13454.6	37.7138	13454.6	53.0676	13454.6	53.5847	13454.6	57.9998	13454.6	62.4269
13929.2	92.4871	13929.2	92.4072	13929.2	91.9541	13929.2	90.6052	13929.2	91.3072	13929.2	89.8975	13929.2	89.8184	13929.2	85.6679	13929.2	86.5155	13929.2	82.4967	13929.2	82.107	13929.2	76.6246	13929.2	78.1231	13929.2	75.9293	13929.2	75.3231	13929.2	70.1523	13929.2	69.5264	13929.2	70.3615	13929.2	69.6511	13929.2	59.1021	13929.2	63.1025	13929.2	63.5304	13929.2	69.2298	13929.2	60.6453	13929.2	69.5444	13929.2	57.0185	13929.2	55.5102	13929.2	61.3489	13929.2	49.1534	13929.2	55.6107	13929.2	41.6632	13929.2	52.7332	13929.2	52.8769	13929.2	51.4008	13929.2	52.8095	13929.2	63.0226
14419.9	92.4841	14419.9	92.2612	14419.9	91.7075	14419.9	90.5449	14419.9	91.0405	14419.9	89.8186	14419.9	89.5234	14419.9	85.7527	14419.9	86.279	14419.9	82.7636	14419.9	82.6758	14419.9	77.0207	14419.9	78.7038	14419.9	76.1179	14419.9	74.8168	14419.9	69.8278	14419.9	71.4824	14419.9	69.4361	14419.9	71.0858	14419.9	62.5729	14419.9	53.7626	14419.9	65.4114	14419.9	70.8149	14419.9	61.4812	14419.9	71.2588	14419.9	57.6997	14419.9	54.6601	14419.9	59.7677	14419.9	52.1672	14419.9	52.0804	14419.9	47.2636	14419.9	54.9174	14419.9	52.5061	14419.9	49.6483	14419.9	54.6557	14419.9	62.949
14928.2	93.6188	14928.2	92.7719	14928.2	92.1484	14928.2	90.5809	14928.2	91.2787	14928.2	89.4632	14928.2	89.5805	14928.2	85.9236	14928.2	86.0662	14928.2	82.7762	14928.2	82.1447	14928.2	76.6524	14928.2	78.2319	14928.2	76.0989	14928.2	75.4074	14928.2	70.1283	14928.2	68.8934	14928.2	68.6909	14928.2	66.568	14928.2	62.0638	14928.2	63.0818	14928.2	64.1029	14928.2	71.0115	14928.2	59.1446	14928.2	70.0627	14928.2	54.9567	14928.2	54.2525	14928.2	60.2271	14928.2	48.6574	14928.2	51.8929	14928.2	50.0339	14928.2	55.6067	14928.2	50.5443	14928.2	48.6144	14928.2	51.828	14928.2	61.0607
15455.6	94.2747	15455.6	93.0307	15455.6	92.4101	15455.6	90.6559	15455.6	91.4124	15455.6	89.2101	15455.6	89.5095	15455.6	85.8069	15455.6	86.1404	15455.6	82.6908	15455.6	82.0929	15455.6	76.1482	15455.6	77.3065	15455.6	75.2789	15455.6	73.7903	15455.6	69.4157	15455.6	68.7423	15455.6	67.0005	15455.6	66.8709	15455.6	62.4304	15455.6	61.2199	15455.6	63.6225	15455.6	72.5131	15455.6	59.0642	15455.6	71.4577	15455.6	56.1682	15455.6	45.1971	15455.6	60.2081	15455.6	52.4344	15455.6	54.5727	15455.6	51.4611	15455.6	58.0107	15455.6	52.21	15455.6	54.7998	15455.6	37.5524	15455.6	63.0748
16000.5	94.224	16000.5	92.7256	16000.5	92.2357	16000.5	90.3121	16000.5	91.2802	16000.5	89.0726	16000.5	89.2107	16000.5	85.4876	16000.5	85.7721	16000.5	82.2332	16000.5	81.7658	16000.5	75.9779	16000.5	77.4393	16000.5	74.2633	16000.5	72.9328	16000.5	68.4704	16000.5	70.0686	16000.5	65.2367	16000.5	67.1409	16000.5	62.4044	16000.5	64.3654	16000.5	62.9184	16000.5	73.1841	16000.5	57.2728	16000.5	71.3208	16000.5	53.1825	16000.5	52.8095	16000.5	61.4934	16000.5	42.6009	16000.5	55.9694	16000.5	53.3872	16000.5	57.2406	16000.5	51.7822	16000.5	56.014	16000.5	49.9296	16000.5	57.1047
16564.5	93.6329	16564.5	91.8488	16564.5	91.9869	16564.5	89.5031	16564.5	90.9386	16564.5	88.9015	16564.5	89.0867	16564.5	85.1149	16564.5	85.4833	16564.5	82.0935	16564.5	81.1797	16564.5	75.9838	16564.5	76.5896	16564.5	73.8068	16564.5	72.2309	16564.5	69.6369	16564.5	69.6278	16564.5	65.1199	16564.5	65.5633	16564.5	63.6857	16564.5	64.2637	16564.5	62.6691	16564.5	74.2292	16564.5	56.7635	16564.5	71.5282	16564.5	53.0117	16564.5	46.4304	16564.5	62.2043	16564.5	45.927	16564.5	57.3542	16564.5	54.5785	16564.5	55.9384	16564.5	55.2579	16564.5	57.0095	16564.5	54.2771	16564.5	55.3446
17148.9	92.7086	17148.9	90.8428	17148.9	91.5806	17148.9	88.7409	17148.9	90.5978	17148.9	88.7871	17148.9	88.8669	17148.9	85.2018	17148.9	85.3245	17148.9	81.8287	17148.9	81.5032	17148.9	76.679	17148.9	76.6098	17148.9	74.0198	17148.9	70.0514	17148.9	69.3931	17148.9	68.9727	17148.9	63.7348	17148.9	62.2706	17148.9	64.2568	17148.9	65.401	17148.9	62.6171	17148.9	74.9812	17148.9	56.9229	17148.9	71.9039	17148.9	53.8908	17148.9	47.5302	17148.9	64.1659	17148.9	50.6372	17148.9	58.2702	17148.9	54.2358	17148.9	53.6468	17148.9	56.3295	17148.9	55.414	17148.9	51.7788	17148.9	55.0278
17752.4	91.9119	17752.4	90.1971	17752.4	91.2047	17752.4	88.2864	17752.4	90.4914	17752.4	88.4638	17752.4	88.6566	17752.4	85.2866	17752.4	84.7729	17752.4	81.851	17752.4	80.6782	17752.4	77.0209	17752.4	76.4323	17752.4	73.6777	17752.4	70.7707	17752.4	69.1948	17752.4	67.8332	17752.4	62.5747	17752.4	62.5228	17752.4	64.2673	17752.4	66.0292	17752.4	62.055	17752.4	75.3726	17752.4	56.5161	17752.4	72.5579	17752.4	53.8559	17752.4	52.4528	17752.4	64.7982	17752.4	24.5315	17752.4	60.0957	17752.4	54.4297	17752.4	54.8326	17752.4	53.5712	17752.4	54.2653	17752.4	48.7152	17752.4	40.7086
18379.4	91.1401	18379.4	89.3086	18379.4	90.4126	18379.4	87.5861	18379.4	89.625	18379.4	88.1345	18379.4	87.8417	18379.4	84.8809	18379.4	83.9041	18379.4	82.0566	18379.4	79.455	18379.4	76.5181	18379.4	75.8318	18379.4	73.2981	18379.4	67.6324	18379.4	68.8548	18379.4	68.6142	18379.4	62.6453	18379.4	62.5366	18379.4	64.2748	18379.4	65.9891	18379.4	60.6535	18379.4	75.5654	18379.4	55.6287	18379.4	71.9307	18379.4	53.0706	18379.4	50.0985	18379.4	64.3841	18379.4	49.5284	18379.4	60.6404	18379.4	55.5227	18379.4	56.5155	18379.4	54.4426	18379.4	53.6113	18379.4	50.5352	18379.4	43.5114
19026.9	89.8679	19026.9	88.3003	19026.9	88.9115	19026.9	87.0967	19026.9	88.0367	19026.9	88.4025	19026.9	86.9694	19026.9	84.9056	19026.9	83.6453	19026.9	82.1207	19026.9	80.3634	19026.9	76.5111	19026.9	74.9572	19026.9	73.3081	19026.9	69.9506	19026.9	68.5545	19026.9	68.6727	19026.9	61.6951	19026.9	60.5239	19026.9	63.5024	19026.9	65.0581	19026.9	59.8194	19026.9	75.2356	19026.9	54.455	19026.9	71.9722	19026.9	51.4501	19026.9	51.2826	19026.9	63.27	19026.9	47.5825	19026.9	59.6864	19026.9	53.3926	19026.9	57.6709	19026.9	56.7373	19026.9	54.2373	19026.9	51.6382	19026.9	43.2766
19697.8	88.6829	19697.8	88.1985	19697.8	87.8867	19697.8	87.0378	19697.8	87.0639	19697.8	88.7323	19697.8	86.6925	19697.8	85.1186	19697.8	83.5388	19697.8	81.6928	19697.8	79.0685	19697.8	76.6733	19697.8	74.9748	19697.8	72.3293	19697.8	70.007	19697.8	67.564	19697.8	67.4502	19697.8	60.3523	19697.8	61.3539	19697.8	62.8347	19697.8	65.692	19697.8	58.9736	19697.8	75.035	19697.8	52.049	19697.8	71.6679	19697.8	50.0399	19697.8	44.0486	19697.8	63.722	19697.8	37.7174	19697.8	59.4679	19697.8	55.97	19697.8	58.2947	19697.8	59.2558	19697.8	57.1249	19697.8	46.6195	19697.8	46.4188
19999.5	88.2931	19999.5	88.3804	19999.5	87.7292	19999.5	86.9438	19999.5	86.6204	19999.5	88.8916	19999.5	86.5305	19999.5	85.2004	19999.5	84.5159	19999.5	81.4817	19999.5	78.9574	19999.5	76.0955	19999.5	76.3341	19999.5	73.5526	19999.5	70.3909	19999.5	66.3198	19999.5	68.2144	19999.5	52.6932	19999.5	60.2182	19999.5	65.6161	19999.5	63.5488	19999.5	56.3138	19999.5	74.8941	19999.5	59.6891	19999.5	72.0089	19999.5	24.3	19999.5	50.0033	19999.5	68.7076	19999.5	59.4356	19999.5	63.3478	19999.5	42.6749	19999.5	64.6937	19999.5	59.2825	19999.5	57.6381	19999.5	61.9163	19999.5	49.8467
