"SPL Horizontal"
"On-Axis"		"10°"		"-10°"		"20°"		"-20°"		"30°"		"-30°"		"40°"		"-40°"		"50°"		"-50°"		"60°"		"-60°"		"70°"		"-70°"		"80°"		"-80°"		"90°"		"-90°"		"100°"		"-100°"		"110°"		"-110°"		"120°"		"-120°"		"130°"		"-130°"		"140°"		"-140°"		"150°"		"-150°"		"160°"		"-160°"		"170°"		"-170°"		"180°"
"Frequency / Hz"	"Sound Pressure Level / dB (re 20 µPa/V)  [0.3V at 1m]"	"Frequency / Hz"	"Sound Pressure Level / dB (re 20 µPa/V)  [0.3V at 1m]"	"Frequency / Hz"	"Sound Pressure Level / dB (re 20 µPa/V)  [0.3V at 1m]"	"Frequency / Hz"	"Sound Pressure Level / dB (re 20 µPa/V)  [0.3V at 1m]"	"Frequency / Hz"	"Sound Pressure Level / dB (re 20 µPa/V)  [0.3V at 1m]"	"Frequency / Hz"	"Sound Pressure Level / dB (re 20 µPa/V)  [0.3V at 1m]"	"Frequency / Hz"	"Sound Pressure Level / dB (re 20 µPa/V)  [0.3V at 1m]"	"Frequency / Hz"	"Sound Pressure Level / dB (re 20 µPa/V)  [0.3V at 1m]"	"Frequency / Hz"	"Sound Pressure Level / dB (re 20 µPa/V)  [0.3V at 1m]"	"Frequency / Hz"	"Sound Pressure Level / dB (re 20 µPa/V)  [0.3V at 1m]"	"Frequency / Hz"	"Sound Pressure Level / dB (re 20 µPa/V)  [0.3V at 1m]"	"Frequency / Hz"	"Sound Pressure Level / dB (re 20 µPa/V)  [0.3V at 1m]"	"Frequency / Hz"	"Sound Pressure Level / dB (re 20 µPa/V)  [0.3V at 1m]"	"Frequency / Hz"	"Sound Pressure Level / dB (re 20 µPa/V)  [0.3V at 1m]"	"Frequency / Hz"	"Sound Pressure Level / dB (re 20 µPa/V)  [0.3V at 1m]"	"Frequency / Hz"	"Sound Pressure Level / dB (re 20 µPa/V)  [0.3V at 1m]"	"Frequency / Hz"	"Sound Pressure Level / dB (re 20 µPa/V)  [0.3V at 1m]"	"Frequency / Hz"	"Sound Pressure Level / dB (re 20 µPa/V)  [0.3V at 1m]"	"Frequency / Hz"	"Sound Pressure Level / dB (re 20 µPa/V)  [0.3V at 1m]"	"Frequency / Hz"	"Sound Pressure Level / dB (re 20 µPa/V)  [0.3V at 1m]"	"Frequency / Hz"	"Sound Pressure Level / dB (re 20 µPa/V)  [0.3V at 1m]"	"Frequency / Hz"	"Sound Pressure Level / dB (re 20 µPa/V)  [0.3V at 1m]"	"Frequency / Hz"	"Sound Pressure Level / dB (re 20 µPa/V)  [0.3V at 1m]"	"Frequency / Hz"	"Sound Pressure Level / dB (re 20 µPa/V)  [0.3V at 1m]"	"Frequency / Hz"	"Sound Pressure Level / dB (re 20 µPa/V)  [0.3V at 1m]"	"Frequency / Hz"	"Sound Pressure Level / dB (re 20 µPa/V)  [0.3V at 1m]"	"Frequency / Hz"	"Sound Pressure Level / dB (re 20 µPa/V)  [0.3V at 1m]"	"Frequency / Hz"	"Sound Pressure Level / dB (re 20 µPa/V)  [0.3V at 1m]"	"Frequency / Hz"	"Sound Pressure Level / dB (re 20 µPa/V)  [0.3V at 1m]"	"Frequency / Hz"	"Sound Pressure Level / dB (re 20 µPa/V)  [0.3V at 1m]"	"Frequency / Hz"	"Sound Pressure Level / dB (re 20 µPa/V)  [0.3V at 1m]"	"Frequency / Hz"	"Sound Pressure Level / dB (re 20 µPa/V)  [0.3V at 1m]"	"Frequency / Hz"	"Sound Pressure Level / dB (re 20 µPa/V)  [0.3V at 1m]"	"Frequency / Hz"	"Sound Pressure Level / dB (re 20 µPa/V)  [0.3V at 1m]"	"Frequency / Hz"	"Sound Pressure Level / dB (re 20 µPa/V)  [0.3V at 1m]"	"Frequency / Hz"	"Sound Pressure Level / dB (re 20 µPa/V)  [0.3V at 1m]"
20.5078	53.8966	20.5078	53.8989	20.5078	53.6123	20.5078	53.5749	20.5078	53.1032	20.5078	52.8617	20.5078	52.4945	20.5078	51.6501	20.5078	52.0649	20.5078	49.7472	20.5078	52.2465	20.5078	46.8791	20.5078	53.2913	20.5078	43.7442	20.5078	54.9584	20.5078	45.567	20.5078	56.824	20.5078	50.1772	20.5078	58.619	20.5078	53.9093	20.5078	60.2337	20.5078	56.7761	20.5078	61.6351	20.5078	59.0374	20.5078	62.8176	20.5078	60.8515	20.5078	63.7827	20.5078	62.308	20.5078	64.5318	20.5078	63.4588	20.5078	65.0644	20.5078	64.3344	20.5078	65.3777	20.5078	64.9535	20.5078	65.4675	20.5078	65.3284
21.9727	52.6448	21.9727	52.5642	21.9727	52.3035	21.9727	52.0227	21.9727	51.5696	21.9727	50.9396	21.9727	50.5515	21.9727	49.1873	21.9727	49.6851	21.9727	46.7839	21.9727	49.9414	21.9727	45.3423	21.9727	51.7658	21.9727	47.8918	21.9727	54.2943	21.9727	51.786	21.9727	56.769	21.9727	55.1029	21.9727	58.9564	21.9727	57.7787	21.9727	60.8327	21.9727	59.9616	21.9727	62.4218	21.9727	61.7614	21.9727	63.7498	21.9727	63.2458	21.9727	64.8356	21.9727	64.4553	21.9727	65.6911	21.9727	65.4133	21.9727	66.3223	21.9727	66.1328	21.9727	66.7313	21.9727	66.6211	21.9727	66.9183	21.9727	66.8822
23.4375	57.6278	23.4375	57.6207	23.4375	57.3882	23.4375	57.3459	23.4375	56.9356	23.4375	56.783	23.4375	56.3505	23.4375	55.9161	23.4375	55.8248	23.4375	54.7743	23.4375	55.709	23.4375	53.5766	23.4375	56.3458	23.4375	53.0163	23.4375	57.7076	23.4375	53.9448	23.4375	59.4338	23.4375	56.0557	23.4375	61.1973	23.4375	58.4291	23.4375	62.8314	23.4375	60.6134	23.4375	64.2728	23.4375	62.5036	23.4375	65.5019	23.4375	64.1003	23.4375	66.514	23.4375	65.4232	23.4375	67.3071	23.4375	66.4893	23.4375	67.8789	23.4375	67.3096	23.4375	68.2264	23.4375	67.8903	23.4375	68.3462	23.4375	68.235
24.9023	59.848	24.9023	59.8188	24.9023	59.7675	24.9023	59.6601	24.9023	59.6331	24.9023	59.3858	24.9023	59.5475	24.9023	59.0551	24.9023	59.6588	24.9023	58.7964	24.9023	60.1139	24.9023	58.8134	24.9023	60.9686	24.9023	59.308	24.9023	62.1442	24.9023	60.3232	24.9023	63.4893	24.9023	61.7019	24.9023	64.8645	24.9023	63.2252	24.9023	66.1765	24.9023	64.7308	24.9023	67.3709	24.9023	66.1289	24.9023	68.4172	24.9023	67.376	24.9023	69.2967	24.9023	68.4509	24.9023	69.9967	24.9023	69.3418	24.9023	70.5075	24.9023	70.0407	24.9023	70.8214	24.9023	70.5416	24.9023	70.9331	24.9023	70.8399
26.3672	62.0196	26.3672	62.068	26.3672	61.8056	26.3672	61.9415	26.3672	61.456	26.3672	61.6456	26.3672	61.0404	26.3672	61.2082	26.3672	60.6983	26.3672	60.7034	26.3672	60.6497	26.3672	60.2908	26.3672	61.109	26.3672	60.2289	26.3672	62.111	26.3672	60.7585	26.3672	63.4754	26.3672	61.8828	26.3672	64.9675	26.3672	63.3634	26.3672	66.421	26.3672	64.9381	26.3672	67.7468	26.3672	66.4419	26.3672	68.9024	26.3672	67.7947	26.3672	69.8674	26.3672	68.9615	26.3672	70.6306	26.3672	69.9268	26.3672	71.1844	26.3672	70.6821	26.3672	71.5235	26.3672	71.2223	26.3672	71.6439	26.3672	71.5435
27.832	63.9447	27.832	63.9871	27.832	63.738	27.832	63.8543	27.832	63.3931	27.832	63.545	27.832	62.9671	27.832	63.0714	27.832	62.5755	27.832	62.4782	27.832	62.4104	27.832	61.8805	27.832	62.688	27.832	61.5118	27.832	63.4975	27.832	61.685	27.832	64.715	27.832	62.5558	27.832	66.117	27.832	63.9473	27.832	67.5207	27.832	65.5423	27.832	68.8192	27.832	67.1099	27.832	69.9585	27.832	68.5342	27.832	70.9118	27.832	69.7665	27.832	71.6645	27.832	70.7871	27.832	72.2071	27.832	71.5876	27.832	72.5326	27.832	72.1637	27.832	72.6358	27.832	72.5133
29.2969	66.017	29.2969	66.0506	29.2969	65.8902	29.2969	65.9822	29.2969	65.701	29.2969	65.8222	29.2969	65.5103	29.2969	65.6042	29.2969	65.4156	29.2969	65.3947	29.2969	65.5406	29.2969	65.2995	29.2969	65.988	29.2969	65.4496	29.2969	66.7757	29.2969	65.9455	29.2969	67.8224	29.2969	66.7906	29.2969	69.0007	29.2969	67.8873	29.2969	70.1949	29.2969	69.0997	29.2969	71.3235	29.2969	70.3122	29.2969	72.3352	29.2969	71.4463	29.2969	73.1982	29.2969	72.4534	29.2969	73.8919	29.2969	73.3035	29.2969	74.4022	29.2969	73.9776	29.2969	74.7189	29.2969	74.4626	29.2969	74.8359	29.2969	74.7502
30.7617	68.5412	30.7617	68.5818	30.7617	68.4204	30.7617	68.5344	30.7617	68.2447	30.7617	68.4059	30.7617	68.062	30.7617	68.2207	30.7617	67.9482	30.7617	68.0265	30.7617	68.0016	30.7617	67.9006	30.7617	68.3137	30.7617	67.9446	30.7617	68.9221	30.7617	68.2547	30.7617	69.7849	30.7617	68.8714	30.7617	70.8052	30.7617	69.7513	30.7617	71.8773	30.7617	70.7928	30.7617	72.9165	30.7617	71.8854	30.7617	73.8638	30.7617	72.9411	30.7617	74.6803	30.7617	73.8989	30.7617	75.3404	30.7617	74.7195	30.7617	75.8263	30.7617	75.3769	30.7617	76.1261	30.7617	75.8543	30.7617	76.2322	30.7617	76.1413
32.2266	70.5355	32.2266	70.5862	32.2266	70.4134	32.2266	70.5587	32.2266	70.2417	32.2266	70.4591	32.2266	70.0611	32.2266	70.3077	32.2266	69.9362	32.2266	70.1435	32.2266	69.9515	32.2266	70.0286	32.2266	70.1905	32.2266	70.0452	32.2266	70.6978	32.2266	70.277	32.2266	71.4512	32.2266	70.7718	32.2266	72.3733	32.2266	71.5134	32.2266	73.3677	32.2266	72.428	32.2266	74.35	32.2266	73.4197	32.2266	75.2575	32.2266	74.402	32.2266	76.0471	32.2266	75.3092	32.2266	76.6894	32.2266	76.096	32.2266	77.1644	32.2266	76.7316	32.2266	77.4585	32.2266	77.1955	32.2266	77.5631	32.2266	77.475
33.6914	71.8842	33.6914	71.852	33.6914	71.8664	33.6914	71.7605	33.6914	71.8229	33.6914	71.6148	33.6914	71.7938	33.6914	71.4374	33.6914	71.8345	33.6914	71.2722	33.6914	72.0078	33.6914	71.188	33.6914	72.3656	33.6914	71.271	33.6914	72.9266	33.6914	71.5979	33.6914	73.666	33.6914	72.1973	33.6914	74.5252	33.6914	73.0303	33.6914	75.434	33.6914	74.0104	33.6914	76.328	33.6914	75.0417	33.6914	77.1556	33.6914	76.0443	33.6914	77.8781	33.6914	76.9604	33.6914	78.4667	33.6914	77.7507	33.6914	78.9004	33.6914	78.3887	33.6914	79.1639	33.6914	78.857	33.6914	79.2471	33.6914	79.1448
35.1562	74.3085	35.1562	74.3195	35.1562	74.2612	35.1562	74.2908	35.1562	74.1925	35.1562	74.2295	35.1562	74.1293	35.1562	74.1544	35.1562	74.1111	35.1562	74.0968	35.1562	74.187	35.1562	74.1002	35.1562	74.4047	35.1562	74.2149	35.1562	74.7949	35.1562	74.4854	35.1562	75.3572	35.1562	74.9335	35.1562	76.0573	35.1562	75.5472	35.1562	76.8395	35.1562	76.2836	35.1562	77.6425	35.1562	77.0831	35.1562	78.4111	35.1562	77.8851	35.1562	79.1006	35.1562	78.6368	35.1562	79.6767	35.1562	79.2966	35.1562	80.114	35.1562	79.8327	35.1562	80.395	35.1562	80.2225	35.1562	80.5087	35.1562	80.4506
36.6211	76.1114	36.6211	76.1235	36.6211	76.0727	36.6211	76.1057	36.6211	76.0206	36.6211	76.0641	36.6211	75.9788	36.6211	76.015	36.6211	75.9812	36.6211	75.9853	36.6211	76.069	36.6211	76.0113	36.6211	76.2818	36.6211	76.1345	36.6211	76.6458	36.6211	76.3918	36.6211	77.1618	36.6211	76.8026	36.6211	77.8033	36.6211	77.3597	36.6211	78.5236	36.6211	78.0297	36.6211	79.2689	36.6211	78.7628	36.6211	79.9881	36.6211	79.5052	36.6211	80.6379	36.6211	80.2074	36.6211	81.1841	36.6211	80.8284	36.6211	81.6007	36.6211	81.3359	36.6211	81.8693	36.6211	81.7063	36.6211	81.9784	36.6211	81.9234
38.0859	77.6805	38.0859	77.699	38.0859	77.6398	38.0859	77.6917	38.0859	77.5896	38.0859	77.6632	38.0859	77.5517	38.0859	77.627	38.0859	77.5569	38.0859	77.6058	38.0859	77.6419	38.0859	77.6306	38.0859	77.8422	38.0859	77.7374	38.0859	78.1814	38.0859	77.9602	38.0859	78.6613	38.0859	78.32	38.0859	79.2592	38.0859	78.8159	38.0859	79.9338	38.0859	79.4235	38.0859	80.6355	38.0859	80.1005	38.0859	81.316	38.0859	80.7973	38.0859	81.9331	38.0859	81.4657	38.0859	82.4525	38.0859	82.0636	38.0859	82.848	38.0859	82.5573	38.0859	83.1009	38.0859	82.9215	38.0859	83.1994	38.0859	83.1388
39.5508	79.4365	39.5508	79.4426	39.5508	79.4191	39.5508	79.4344	39.5508	79.401	39.5508	79.4162	39.5508	79.4	39.5508	79.3996	39.5508	79.4405	39.5508	79.4039	39.5508	79.5509	39.5508	79.4546	39.5508	79.7579	39.5508	79.5805	39.5508	80.0792	39.5508	79.8077	39.5508	80.517	39.5508	80.1523	39.5508	81.0547	39.5508	80.6132	39.5508	81.6604	39.5508	81.1706	39.5508	82.2938	39.5508	81.7899	39.5508	82.9129	39.5508	82.4288	39.5508	83.479	39.5508	83.0445	39.5508	83.9591	39.5508	83.5982	39.5508	84.3271	39.5508	84.0574	39.5508	84.5635	39.5508	84.3971	39.5508	84.6562	39.5508	84.5999
41.0156	81.1002	41.0156	81.106	41.0156	81.0897	41.0156	81.1044	41.0156	81.0833	41.0156	81.0988	41.0156	81.0958	41.0156	81.0987	41.0156	81.1471	41.0156	81.1196	41.0156	81.2601	41.0156	81.1819	41.0156	81.4566	41.0156	81.3084	41.0156	81.7515	41.0156	81.5205	41.0156	82.1476	41.0156	81.8319	41.0156	82.633	41.0156	82.2437	41.0156	83.1825	41.0156	82.7422	41.0156	83.7617	41.0156	83.3004	41.0156	84.3333	41.0156	83.8826	41.0156	84.8609	41.0156	84.4504	41.0156	85.3121	41.0156	84.9669	41.0156	85.6599	41.0156	85.3996	41.0156	85.8841	41.0156	85.7225	41.0156	85.9715	41.0156	85.9168
42.4805	82.6137	42.4805	82.6171	42.4805	82.6108	42.4805	82.6187	42.4805	82.6161	42.4805	82.6212	42.4805	82.6421	42.4805	82.6326	42.4805	82.7052	42.4805	82.6656	42.4805	82.8244	42.4805	82.7371	42.4805	83.0172	42.4805	82.8659	42.4805	83.2959	42.4805	83.0695	42.4805	83.663	42.4805	83.3598	42.4805	84.109	42.4805	83.7383	42.4805	84.613	42.4805	84.1944	42.4805	85.1456	42.4805	84.7059	42.4805	85.6734	42.4805	85.2422	42.4805	86.1629	42.4805	85.7685	42.4805	86.5833	42.4805	86.2504	42.4805	86.9083	42.4805	86.6566	42.4805	87.1179	42.4805	86.9612	42.4805	87.1988	42.4805	87.1457
43.9453	84.0086	43.9453	84.0074	43.9453	84.0144	43.9453	84.0088	43.9453	84.0312	43.9453	84.0153	43.9453	84.0695	43.9453	84.0336	43.9453	84.1427	43.9453	84.0745	43.9453	84.2662	43.9453	84.1522	43.9453	84.4545	43.9453	84.2823	43.9453	84.7178	43.9453	84.4795	43.9453	85.0583	43.9453	84.7536	43.9453	85.4688	43.9453	85.1063	43.9453	85.9319	43.9453	85.5288	43.9453	86.4225	43.9453	86.0023	43.9453	86.9109	43.9453	86.4999	43.9453	87.3661	43.9453	86.9904	43.9453	87.7588	43.9453	87.4415	43.9453	88.0636	43.9453	87.8233	43.9453	88.2605	43.9453	88.1109	43.9453	88.3363	43.9453	88.2855
45.4102	85.294	45.4102	85.2911	45.4102	85.306	45.4102	85.2958	45.4102	85.3323	45.4102	85.31	45.4102	85.3813	45.4102	85.3394	45.4102	85.4641	45.4102	85.3928	45.4102	85.5929	45.4102	85.4816	45.4102	85.7794	45.4102	85.6183	45.4102	86.0314	45.4102	85.8145	45.4102	86.3511	45.4102	86.0776	45.4102	86.7323	45.4102	86.409	45.4102	87.1605	45.4102	86.8014	45.4102	87.6142	45.4102	87.2389	45.4102	88.067	45.4102	87.6983	45.4102	88.4908	45.4102	88.1519	45.4102	88.8579	45.4102	88.5704	45.4102	89.1441	45.4102	88.9255	45.4102	89.3299	45.4102	89.1934	45.4102	89.4023	45.4102	89.3559
46.875	86.4625	46.875	86.4593	46.875	86.4773	46.875	86.4665	46.875	86.5082	46.875	86.4856	46.875	86.562	46.875	86.5212	46.875	86.6477	46.875	86.5804	46.875	86.7752	46.875	86.6725	46.875	86.954	46.875	86.8077	46.875	87.1907	46.875	86.9951	46.875	87.4869	46.875	87.2413	46.875	87.8379	46.875	87.5475	46.875	88.2316	46.875	87.9078	46.875	88.6494	46.875	88.3092	46.875	89.0678	46.875	88.7315	46.875	89.4611	46.875	89.1501	46.875	89.8034	46.875	89.5379	46.875	90.0712	46.875	89.8684	46.875	90.2455	46.875	90.1185	46.875	90.3138	46.875	90.2705
48.3398	87.4775	48.3398	87.4749	48.3398	87.4951	48.3398	87.4861	48.3398	87.5311	48.3398	87.5122	48.3398	87.5912	48.3398	87.5568	48.3398	87.6826	48.3398	87.6256	48.3398	87.8132	48.3398	87.7258	48.3398	87.9904	48.3398	87.8652	48.3398	88.2193	48.3398	88.0511	48.3398	88.5009	48.3398	88.2884	48.3398	88.8309	48.3398	88.5776	48.3398	89.1988	48.3398	88.9141	48.3398	89.5883	48.3398	89.2864	48.3398	89.9785	48.3398	89.6773	48.3398	90.3458	48.3398	90.065	48.3398	90.6663	48.3398	90.4248	48.3398	90.9177	48.3398	90.7322	48.3398	91.0819	48.3398	90.9652	48.3398	91.1467	48.3398	91.1069
51.2695	89.1267	51.2695	89.1204	51.2695	89.1512	51.2695	89.1314	51.2695	89.1961	51.2695	89.1604	51.2695	89.2648	51.2695	89.2094	51.2695	89.3616	51.2695	89.2818	51.2695	89.4912	51.2695	89.3818	51.2695	89.6579	51.2695	89.5142	51.2695	89.8645	51.2695	89.6835	51.2695	90.1113	51.2695	89.8929	51.2695	90.395	51.2695	90.1427	51.2695	90.7079	51.2695	90.4298	51.2695	91.0379	51.2695	90.7463	51.2695	91.3687	51.2695	91.0792	51.2695	91.6809	51.2695	91.4114	51.2695	91.9542	51.2695	91.7222	51.2695	92.1688	51.2695	91.9903	51.2695	92.3083	51.2695	92.1958	51.2695	92.3611	51.2695	92.3227
52.7344	89.6973	52.7344	89.6907	52.7344	89.724	52.7344	89.7035	52.7344	89.7725	52.7344	89.7362	52.7344	89.8453	52.7344	89.7902	52.7344	89.9457	52.7344	89.8678	52.7344	90.077	52.7344	89.9722	52.7344	90.2423	52.7344	90.1069	52.7344	90.4435	52.7344	90.2751	52.7344	90.6803	52.7344	90.4787	52.7344	90.9495	52.7344	90.718	52.7344	91.2445	52.7344	90.9897	52.7344	91.5543	52.7344	91.287	52.7344	91.8642	52.7344	91.5985	52.7344	92.1569	52.7344	91.9086	52.7344	92.4133	52.7344	92.1989	52.7344	92.615	52.7344	92.4495	52.7344	92.7462	52.7344	92.6418	52.7344	92.7962	52.7344	92.7606
54.1992	90.1692	54.1992	90.1611	54.1992	90.1993	54.1992	90.1745	54.1992	90.2524	54.1992	90.2095	54.1992	90.3305	54.1992	90.267	54.1992	90.4353	54.1992	90.3485	54.1992	90.5693	54.1992	90.4559	54.1992	90.7339	54.1992	90.5915	54.1992	90.9302	54.1992	90.7571	54.1992	91.1572	54.1992	90.9541	54.1992	91.412	54.1992	91.1819	54.1992	91.6882	54.1992	91.4377	54.1992	91.9765	54.1992	91.7153	54.1992	92.2639	54.1992	92.0051	54.1992	92.5346	54.1992	92.2932	54.1992	92.7715	54.1992	92.5631	54.1992	92.9576	54.1992	92.7967	54.1992	93.0782	54.1992	92.9766	54.1992	93.1232	54.1992	93.0885
55.6641	90.5506	55.6641	90.5416	55.6641	90.5827	55.6641	90.5555	55.6641	90.6387	55.6641	90.5922	55.6641	90.7196	55.6641	90.652	55.6641	90.8264	55.6641	90.7357	55.6641	90.9602	55.6641	90.8443	55.6641	91.1219	55.6641	90.9789	55.6641	91.3113	55.6641	91.1405	55.6641	91.5274	55.6641	91.3295	55.6641	91.767	55.6641	91.5451	55.6641	92.0246	55.6641	91.7847	55.6641	92.292	55.6641	92.0428	55.6641	92.5577	55.6641	92.3111	55.6641	92.8077	55.6641	92.5776	55.6641	93.0262	55.6641	92.8274	55.6641	93.1978	55.6641	93.0441	55.6641	93.3087	55.6641	93.2115	55.6641	93.3495	55.6641	93.3162
58.5938	91.1383	58.5938	91.1275	58.5938	91.1741	58.5938	91.1416	58.5938	91.235	58.5938	91.1804	58.5938	91.3207	58.5938	91.2432	58.5938	91.4306	58.5938	91.3296	58.5938	91.5642	58.5938	91.439	58.5938	91.7206	58.5938	91.5706	58.5938	91.8982	58.5938	91.7239	58.5938	92.0952	58.5938	91.8978	58.5938	92.3084	58.5938	92.091	58.5938	92.5333	58.5938	92.301	58.5938	92.7633	58.5938	92.524	58.5938	92.9894	58.5938	92.7535	58.5938	93.2007	58.5938	92.9807	58.5938	93.3844	58.5938	93.1941	58.5938	93.5276	58.5938	93.3802	58.5938	93.6188	58.5938	93.5254	58.5938	93.65	58.5938	93.618
60.0586	91.3842	60.0586	91.3722	60.0586	91.4218	60.0586	91.386	60.0586	91.4848	60.0586	91.4249	60.0586	91.5722	60.0586	91.4883	60.0586	91.6831	60.0586	91.5749	60.0586	91.8161	60.0586	91.6836	60.0586	91.9694	60.0586	91.813	60.0586	92.1412	60.0586	91.9618	60.0586	92.329	60.0586	92.1284	60.0586	92.5298	60.0586	92.3112	60.0586	92.7393	60.0586	92.5078	60.0586	92.9518	60.0586	92.7147	60.0586	93.1594	60.0586	92.9266	60.0586	93.3525	60.0586	93.1358	60.0586	93.5197	60.0586	93.3324	60.0586	93.6493	60.0586	93.5043	60.0586	93.7311	60.0586	93.6391	60.0586	93.7575	60.0586	93.726
62.9883	91.7702	62.9883	91.7539	62.9883	91.8129	62.9883	91.7645	62.9883	91.8812	62.9883	91.8013	62.9883	91.9733	62.9883	91.863	62.9883	92.0868	62.9883	91.9478	62.9883	92.2191	62.9883	92.0533	62.9883	92.3674	62.9883	92.177	62.9883	92.5287	62.9883	92.3163	62.9883	92.6998	62.9883	92.4689	62.9883	92.8777	62.9883	92.6325	62.9883	93.0585	62.9883	92.8047	62.9883	93.2377	62.9883	92.9828	62.9883	93.4095	62.9883	93.163	62.9883	93.5668	62.9883	93.3399	62.9883	93.7009	62.9883	93.5062	62.9883	93.8028	62.9883	93.6527	62.9883	93.8643	62.9883	93.7695	62.9883	93.8798	62.9883	93.8473
64.4531	91.9706	64.4531	91.9532	64.4531	92.0141	64.4531	91.9622	64.4531	92.0825	64.4531	91.9972	64.4531	92.1738	64.4531	92.0565	64.4531	92.2852	64.4531	92.138	64.4531	92.4138	64.4531	92.2391	64.4531	92.5563	64.4531	92.3568	64.4531	92.7094	64.4531	92.4883	64.4531	92.8698	64.4531	92.6308	64.4531	93.0343	64.4531	92.7818	64.4531	93.1994	64.4531	92.9392	64.4531	93.3611	64.4531	93.1006	64.4531	93.5145	64.4531	93.2631	64.4531	93.6533	64.4531	93.4223	64.4531	93.7704	64.4531	93.5723	64.4531	93.858	64.4531	93.7052	64.4531	93.909	64.4531	93.8124	64.4531	93.9187	64.4531	93.8856
67.3828	92.2663	67.3828	92.2481	67.3828	92.3111	67.3828	92.2568	67.3828	92.3807	67.3828	92.2918	67.3828	92.4725	67.3828	92.3513	67.3828	92.5832	67.3828	92.4325	67.3828	92.7089	67.3828	92.5322	67.3828	92.8454	67.3828	92.6465	67.3828	92.9887	67.3828	92.7717	67.3828	93.135	67.3828	92.9043	67.3828	93.2808	67.3828	93.0413	67.3828	93.4229	67.3828	93.18	67.3828	93.5582	67.3828	93.3186	67.3828	93.6833	67.3828	93.4547	67.3828	93.7941	67.3828	93.5859	67.3828	93.8858	67.3828	93.7081	67.3828	93.9528	67.3828	93.8163	67.3828	93.9903	67.3828	93.9041	67.3828	93.9947	67.3828	93.9652
68.8477	92.3692	68.8477	92.3518	68.8477	92.4136	68.8477	92.3619	68.8477	92.4831	68.8477	92.3987	68.8477	92.5749	68.8477	92.4603	68.8477	92.6854	68.8477	92.5435	68.8477	92.8101	68.8477	92.6448	68.8477	92.9447	68.8477	92.7597	68.8477	93.0847	68.8477	92.8841	68.8477	93.226	68.8477	93.0141	68.8477	93.3652	68.8477	93.1462	68.8477	93.4992	68.8477	93.2779	68.8477	93.6249	68.8477	93.4072	68.8477	93.7398	68.8477	93.5323	68.8477	93.8403	68.8477	93.6512	68.8477	93.9226	68.8477	93.7612	68.8477	93.9822	68.8477	93.858	68.8477	94.0151	68.8477	93.9366	68.8477	94.0184	68.8477	93.9915
71.7773	92.5005	71.7773	92.4832	71.7773	92.5453	71.7773	92.4938	71.7773	92.6153	71.7773	92.5316	71.7773	92.7073	71.7773	92.5942	71.7773	92.8171	71.7773	92.6781	71.7773	92.9396	71.7773	92.779	71.7773	93.0699	71.7773	92.892	71.7773	93.2028	71.7773	93.012	71.7773	93.3338	71.7773	93.1344	71.7773	93.4592	71.7773	93.2554	71.7773	93.5758	71.7773	93.3721	71.7773	93.6813	71.7773	93.4827	71.7773	93.774	71.7773	93.5861	71.7773	93.852	71.7773	93.6816	71.7773	93.9133	71.7773	93.7683	71.7773	93.9556	71.7773	93.8442	71.7773	93.9767	71.7773	93.9063	71.7773	93.9751	71.7773	93.951
74.707	92.5311	74.707	92.514	74.707	92.5763	74.707	92.5257	74.707	92.6471	74.707	92.5652	74.707	92.74	74.707	92.6301	74.707	92.85	74.707	92.7164	74.707	92.9718	74.707	92.8192	74.707	93.0995	74.707	92.9329	74.707	93.2277	74.707	93.0518	74.707	93.3512	74.707	93.1705	74.707	93.466	74.707	93.2847	74.707	93.569	74.707	93.3909	74.707	93.6584	74.707	93.4873	74.707	93.7331	74.707	93.5733	74.707	93.7927	74.707	93.6492	74.707	93.8368	74.707	93.7154	74.707	93.8651	74.707	93.7721	74.707	93.8771	74.707	93.8184	74.707	93.8727	74.707	93.8526
77.6367	92.6371	77.6367	92.6179	77.6367	92.6844	77.6367	92.6275	77.6367	92.7571	77.6367	92.6651	77.6367	92.8511	77.6367	92.728	77.6367	92.9613	77.6367	92.8121	77.6367	93.0816	77.6367	92.9121	77.6367	93.2059	77.6367	93.0218	77.6367	93.3279	77.6367	93.135	77.6367	93.4424	77.6367	93.2459	77.6367	93.5448	77.6367	93.3495	77.6367	93.6321	77.6367	93.4422	77.6367	93.7027	77.6367	93.5223	77.6367	93.7562	77.6367	93.5895	77.6367	93.7937	77.6367	93.6453	77.6367	93.8164	77.6367	93.6918	77.6367	93.8259	77.6367	93.7311	77.6367	93.824	77.6367	93.7644	77.6367	93.8121	77.6367	93.7917
79.1016	92.6927	79.1016	92.6721	79.1016	92.741	79.1016	92.6803	79.1016	92.8143	79.1016	92.7162	79.1016	92.9086	79.1016	92.7773	79.1016	93.0183	79.1016	92.8593	79.1016	93.1374	79.1016	92.9566	79.1016	93.2592	79.1016	93.0631	79.1016	93.3776	79.1016	93.1723	79.1016	93.4869	79.1016	93.2781	79.1016	93.5825	79.1016	93.3755	79.1016	93.6614	79.1016	93.4607	79.1016	93.722	79.1016	93.532	79.1016	93.7645	79.1016	93.5896	79.1016	93.7904	79.1016	93.6354	79.1016	93.8018	79.1016	93.6722	79.1016	93.8015	79.1016	93.7032	79.1016	93.7921	79.1016	93.7304	79.1016	93.7758	79.1016	93.7548
82.0312	92.6899	82.0312	92.6666	82.0312	92.7407	82.0312	92.6718	82.0312	92.816	82.0312	92.7048	82.0312	92.9114	82.0312	92.7627	82.0312	93.0212	82.0312	92.8414	82.0312	93.1389	82.0312	92.935	82.0312	93.2577	82.0312	93.0371	82.0312	93.3709	82.0312	93.1409	82.0312	93.4724	82.0312	93.2397	82.0312	93.5575	82.0312	93.3283	82.0312	93.6231	82.0312	93.4027	82.0312	93.6678	82.0312	93.4612	82.0312	93.6925	82.0312	93.5042	82.0312	93.6994	82.0312	93.5344	82.0312	93.6925	82.0312	93.5558	82.0312	93.676	82.0312	93.5731	82.0312	93.6544	82.0312	93.5902	82.0312	93.6313	82.0312	93.6094
84.9609	92.6539	84.9609	92.6281	84.9609	92.7067	84.9609	92.6305	84.9609	92.7834	84.9609	92.6606	84.9609	92.8795	84.9609	92.7157	84.9609	92.989	84.9609	92.7915	84.9609	93.1051	84.9609	92.8822	84.9609	93.2207	84.9609	92.981	84.9609	93.3287	84.9609	93.0807	84.9609	93.4228	84.9609	93.1745	84.9609	93.4981	84.9609	93.2564	84.9609	93.5513	84.9609	93.3221	84.9609	93.5813	84.9609	93.3698	84.9609	93.5894	84.9609	93.3999	84.9609	93.5791	84.9609	93.4156	84.9609	93.5555	84.9609	93.4222	84.9609	93.5248	84.9609	93.4256	84.9609	93.4928	84.9609	93.4315	84.9609	93.4648	84.9609	93.4441
87.8906	92.802	87.8906	92.7763	87.8906	92.8538	87.8906	92.7779	87.8906	92.9286	87.8906	92.8064	87.8906	93.0219	87.8906	92.8592	87.8906	93.1279	87.8906	92.9323	87.8906	93.2398	87.8906	93.0198	87.8906	93.3504	87.8906	93.115	87.8906	93.4528	87.8906	93.2107	87.8906	93.5405	87.8906	93.2998	87.8906	93.6084	87.8906	93.3761	87.8906	93.6533	87.8906	93.4352	87.8906	93.674	87.8906	93.4747	87.8906	93.6722	87.8906	93.4955	87.8906	93.6519	87.8906	93.5009	87.8906	93.6189	87.8906	93.4968	87.8906	93.5805	87.8906	93.4901	87.8906	93.5434	87.8906	93.4878	87.8906	93.5136	87.8906	93.4949
90.8203	92.893	90.8203	92.87	90.8203	92.9416	90.8203	92.8739	90.8203	93.0129	90.8203	92.904	90.8203	93.1024	90.8203	92.958	90.8203	93.2043	90.8203	93.0317	90.8203	93.312	90.8203	93.1193	90.8203	93.4181	90.8203	93.214	90.8203	93.5157	90.8203	93.3083	90.8203	93.598	90.8203	93.395	90.8203	93.6598	90.8203	93.4675	90.8203	93.6977	90.8203	93.5212	90.8203	93.7107	90.8203	93.5536	90.8203	93.7007	90.8203	93.5654	90.8203	93.6722	90.8203	93.56	90.8203	93.6321	90.8203	93.5437	90.8203	93.5884	90.8203	93.5246	90.8203	93.5493	90.8203	93.5107	90.8203	93.5214	90.8203	93.5084
95.2148	92.8268	95.2148	92.8054	95.2148	92.8719	95.2148	92.8091	95.2148	92.9379	95.2148	92.8374	95.2148	93.0201	95.2148	92.8881	95.2148	93.1129	95.2148	92.9568	95.2148	93.2093	95.2148	93.0379	95.2148	93.3021	95.2148	93.1243	95.2148	93.3839	95.2148	93.2081	95.2148	93.4479	95.2148	93.2817	95.2148	93.4887	95.2148	93.338	95.2148	93.503	95.2148	93.372	95.2148	93.4902	95.2148	93.3811	95.2148	93.4531	95.2148	93.3662	95.2148	93.3977	95.2148	93.3317	95.2148	93.3329	95.2148	93.2856	95.2148	93.2696	95.2148	93.2382	95.2148	93.2183	95.2148	93.2005	95.2148	93.1875	95.2148	93.1817
98.1445	92.8295	98.1445	92.8047	98.1445	92.8776	98.1445	92.8045	98.1445	92.9458	98.1445	92.8289	98.1445	93.0295	98.1445	92.8756	98.1445	93.123	98.1445	92.9406	98.1445	93.2192	98.1445	93.0183	98.1445	93.3106	98.1445	93.1016	98.1445	93.3898	98.1445	93.1824	98.1445	93.4497	98.1445	93.2527	98.1445	93.4847	98.1445	93.3052	98.1445	93.4914	98.1445	93.3344	98.1445	93.4692	98.1445	93.3375	98.1445	93.4211	98.1445	93.3155	98.1445	93.3537	98.1445	93.2731	98.1445	93.2769	98.1445	93.2188	98.1445	93.2026	98.1445	93.1639	98.1445	93.1426	98.1445	93.1207	98.1445	93.1065	98.1445	93.0994
101.074	92.8348	101.074	92.809	101.074	92.8827	101.074	92.8067	101.074	92.9495	101.074	92.8278	101.074	93.031	101.074	92.8703	101.074	93.1213	101.074	92.9306	101.074	93.2138	101.074	93.0031	101.074	93.3008	101.074	93.0808	101.074	93.3748	101.074	93.1559	101.074	93.4285	101.074	93.2202	101.074	93.4562	101.074	93.2664	101.074	93.4543	101.074	93.2886	101.074	93.4221	101.074	93.284	101.074	93.3629	101.074	93.2534	101.074	93.2837	101.074	93.2015	101.074	93.1952	101.074	93.1375	101.074	93.1107	101.074	93.0735	101.074	93.0432	101.074	93.0227	101.074	93.0035	101.074	92.997
105.469	92.7477	105.469	92.7218	105.469	92.7933	105.469	92.7172	105.469	92.8557	105.469	92.7337	105.469	92.9307	105.469	92.7698	105.469	93.0129	105.469	92.822	105.469	93.0955	105.469	92.8851	105.469	93.1713	105.469	92.9524	105.469	93.2325	105.469	93.0159	105.469	93.272	105.469	93.0674	105.469	93.2839	105.469	93.0994	105.469	93.2645	105.469	93.1059	105.469	93.2135	105.469	93.0841	105.469	93.1344	105.469	93.0349	105.469	93.0354	105.469	92.9638	105.469	92.9285	105.469	92.8808	105.469	92.8284	105.469	92.7997	105.469	92.7501	105.469	92.7353	105.469	92.7057	105.469	92.7012
108.398	92.7688	108.398	92.7436	108.398	92.8132	108.398	92.7389	108.398	92.8739	108.398	92.7549	108.398	92.9466	108.398	92.79	108.398	93.0261	108.398	92.8411	108.398	93.1059	108.398	92.9028	108.398	93.1784	108.398	92.9686	108.398	93.2361	108.398	93.0303	108.398	93.2716	108.398	93.0796	108.398	93.2789	108.398	93.1088	108.398	93.2543	108.398	93.1117	108.398	93.1976	108.398	93.0853	108.398	93.1125	108.398	93.0305	108.398	93.0075	108.398	92.9529	108.398	92.8953	108.398	92.863	108.398	92.7913	108.398	92.7748	108.398	92.7109	108.398	92.7041	108.398	92.6668	108.398	92.665
112.793	92.6635	112.793	92.6376	112.793	92.7077	112.793	92.6316	112.793	92.7675	112.793	92.6457	112.793	92.8391	112.793	92.6788	112.793	92.9174	112.793	92.7279	112.793	92.9959	112.793	92.7882	112.793	93.0675	112.793	92.8532	112.793	93.1243	112.793	92.9148	112.793	93.1588	112.793	92.9645	112.793	93.1647	112.793	92.994	112.793	93.138	112.793	92.9969	112.793	93.0782	112.793	92.9697	112.793	92.9892	112.793	92.913	112.793	92.8797	112.793	92.8323	112.793	92.7628	112.793	92.7381	112.793	92.6549	112.793	92.6452	112.793	92.5721	112.793	92.57	112.793	92.5275	112.793	92.5275
117.188	92.487	117.188	92.4631	117.188	92.5275	117.188	92.4572	117.188	92.5821	117.188	92.4698	117.188	92.6473	117.188	92.5001	117.188	92.7185	117.188	92.5456	117.188	92.7898	117.188	92.6019	117.188	92.8542	117.188	92.6625	117.188	92.9039	117.188	92.7195	117.188	92.9314	117.188	92.764	117.188	92.9302	117.188	92.7877	117.188	92.8962	117.188	92.7836	117.188	92.8288	117.188	92.7481	117.188	92.7318	117.188	92.6818	117.188	92.6143	117.188	92.5905	117.188	92.4902	117.188	92.4853	117.188	92.3764	117.188	92.3818	117.188	92.2902	117.188	92.2976	117.188	92.2453	117.188	92.2485
120.117	92.4631	120.117	92.4389	120.117	92.5016	120.117	92.4308	120.117	92.5519	120.117	92.4395	120.117	92.6108	120.117	92.4649	120.117	92.6741	120.117	92.5051	120.117	92.7363	120.117	92.5563	120.117	92.7908	120.117	92.6124	120.117	92.8304	120.117	92.6656	120.117	92.8479	120.117	92.707	120.117	92.8371	120.117	92.7277	120.117	92.794	120.117	92.7205	120.117	92.7184	120.117	92.681	120.117	92.6145	120.117	92.6097	120.117	92.4918	120.117	92.512	120.117	92.3646	120.117	92.3992	120.117	92.2502	120.117	92.2871	120.117	92.1662	120.117	92.1939	120.117	92.1262	120.117	92.1364
124.512	92.683	124.512	92.6516	124.512	92.7264	124.512	92.6341	124.512	92.7798	124.512	92.6315	124.512	92.84	124.512	92.6442	124.512	92.9032	124.512	92.671	124.512	92.9641	124.512	92.7089	124.512	93.0164	124.512	92.7527	124.512	93.053	124.512	92.7952	124.512	93.0666	124.512	92.8281	124.512	93.0509	124.512	92.8427	124.512	93.002	124.512	92.8317	124.512	92.9194	124.512	92.7909	124.512	92.8075	124.512	92.7203	124.512	92.6759	124.512	92.6252	124.512	92.5391	124.512	92.5165	124.512	92.415	124.512	92.41	124.512	92.3213	124.512	92.3235	124.512	92.2721	124.512	92.2738
128.906	92.6435	128.906	92.6142	128.906	92.6828	128.906	92.5967	128.906	92.7302	128.906	92.5923	128.906	92.7831	128.906	92.6016	128.906	92.8381	128.906	92.624	128.906	92.8904	128.906	92.6571	128.906	92.9342	128.906	92.6964	128.906	92.9628	128.906	92.7351	128.906	92.9692	128.906	92.7651	128.906	92.9475	128.906	92.7778	128.906	92.8941	128.906	92.7661	128.906	92.8088	128.906	92.7252	128.906	92.6965	128.906	92.6548	128.906	92.5668	128.906	92.5599	128.906	92.4345	128.906	92.4508	128.906	92.3168	128.906	92.3427	128.906	92.2308	128.906	92.2529	128.906	92.1894	128.906	92.198
133.301	92.6171	133.301	92.5838	133.301	92.6566	133.301	92.5584	133.301	92.7007	133.301	92.5422	133.301	92.7469	133.301	92.5361	133.301	92.792	133.301	92.54	133.301	92.8314	133.301	92.5519	133.301	92.8596	133.301	92.5682	133.301	92.8697	133.301	92.5828	133.301	92.8551	133.301	92.5885	133.301	92.8099	133.301	92.5775	133.301	92.7309	133.301	92.543	133.301	92.6187	133.301	92.4809	133.301	92.4791	133.301	92.3914	133.301	92.3231	133.301	92.2798	133.301	92.167	133.301	92.1569	133.301	92.0296	133.301	92.0383	133.301	91.9292	133.301	91.9418	133.301	91.8791	133.301	91.8847
139.16	92.4425	139.16	92.4139	139.16	92.4794	139.16	92.3947	139.16	92.5228	139.16	92.3857	139.16	92.5708	139.16	92.3875	139.16	92.6198	139.16	92.399	139.16	92.6651	139.16	92.4176	139.16	92.7001	139.16	92.4384	139.16	92.717	139.16	92.4546	139.16	92.7076	139.16	92.4578	139.16	92.665	139.16	92.4396	139.16	92.5846	139.16	92.3932	139.16	92.4664	139.16	92.3151	139.16	92.3158	139.16	92.2066	139.16	92.1447	139.16	92.0749	139.16	91.9707	139.16	91.9333	139.16	91.8147	139.16	91.7996	139.16	91.6975	139.16	91.694	139.16	91.6352	139.16	91.6351
143.555	92.2894	143.555	92.2636	143.555	92.321	143.555	92.2448	143.555	92.3572	143.555	92.2346	143.555	92.3967	143.555	92.2342	143.555	92.4375	143.555	92.2439	143.555	92.4759	143.555	92.2621	143.555	92.5063	143.555	92.2845	143.555	92.5218	143.555	92.3044	143.555	92.5142	143.555	92.313	143.555	92.4764	143.555	92.3014	143.555	92.4032	143.555	92.2619	143.555	92.294	143.555	92.1902	143.555	92.1534	143.555	92.0871	143.555	91.9926	143.555	91.9594	143.555	91.8285	143.555	91.8202	143.555	91.6816	143.555	91.6875	143.555	91.5722	143.555	91.5813	143.555	91.5159	143.555	91.52
147.949	92.3526	147.949	92.3297	147.949	92.3756	147.949	92.3085	147.949	92.3981	147.949	92.2909	147.949	92.4198	147.949	92.2795	147.949	92.4397	147.949	92.2759	147.949	92.4559	147.949	92.2803	147.949	92.4649	147.949	92.2903	147.949	92.4614	147.949	92.3007	147.949	92.4393	147.949	92.304	147.949	92.3927	147.949	92.2917	147.949	92.3178	147.949	92.2558	147.949	92.214	147.949	92.1915	147.949	92.0859	147.949	92.0984	147.949	91.9434	147.949	91.9819	147.949	91.8015	147.949	91.8533	147.949	91.6777	147.949	91.7287	147.949	91.5893	147.949	91.6262	147.949	91.5491	147.949	91.5626
153.809	92.5083	153.809	92.4804	153.809	92.5329	153.809	92.4512	153.809	92.5526	153.809	92.4233	153.809	92.5662	153.809	92.3995	153.809	92.572	153.809	92.3819	153.809	92.5675	153.809	92.3709	153.809	92.549	153.809	92.3645	153.809	92.5118	153.809	92.3583	153.809	92.4513	153.809	92.3454	153.809	92.3638	153.809	92.3182	153.809	92.2486	153.809	92.2695	153.809	92.109	153.809	92.1948	153.809	91.9537	153.809	92.0938	153.809	91.7963	153.809	91.9709	153.809	91.6536	153.809	91.8359	153.809	91.5425	153.809	91.7023	153.809	91.4766	153.809	91.5859	153.809	91.4632	153.809	91.502
159.668	92.2878	159.668	92.2497	159.668	92.3255	159.668	92.213	159.668	92.3613	159.668	92.1797	159.668	92.3935	159.668	92.1516	159.668	92.4194	159.668	92.1294	159.668	92.4348	159.668	92.112	159.668	92.4331	159.668	92.0954	159.668	92.4065	159.668	92.0729	159.668	92.3465	159.668	92.0363	159.668	92.246	159.668	91.9769	159.668	92.1015	159.668	91.8877	159.668	91.9152	159.668	91.7658	159.668	91.6968	159.668	91.6137	159.668	91.4639	159.668	91.44	159.668	91.2401	159.668	91.2594	159.668	91.0511	159.668	91.0912	159.668	90.9195	159.668	90.9562	159.668	90.8594	159.668	90.8739
165.527	91.8749	165.527	91.8366	165.527	91.91	165.527	91.7973	165.527	91.9417	165.527	91.7612	165.527	91.9706	165.527	91.7334	165.527	91.9972	165.527	91.7184	165.527	92.0202	165.527	91.7182	165.527	92.0359	165.527	91.7306	165.527	92.0376	165.527	91.7487	165.527	92.0165	165.527	91.7612	165.527	91.9638	165.527	91.7552	165.527	91.8728	165.527	91.7189	165.527	91.7414	165.527	91.6447	165.527	91.5749	165.527	91.5318	165.527	91.3862	165.527	91.3873	165.527	91.1956	165.527	91.2262	165.527	91.0278	165.527	91.0694	165.527	90.9065	165.527	90.9408	165.527	90.849	165.527	90.8622
171.387	91.91	171.387	91.8716	171.387	91.9276	171.387	91.8144	171.387	91.9246	171.387	91.7422	171.387	91.9024	171.387	91.6608	171.387	91.8631	171.387	91.5772	171.387	91.8081	171.387	91.4977	171.387	91.7382	171.387	91.4268	171.387	91.6527	171.387	91.3655	171.387	91.5499	171.387	91.3104	171.387	91.4286	171.387	91.2545	171.387	91.2889	171.387	91.1894	171.387	91.1339	171.387	91.1076	171.387	90.9704	171.387	91.0059	171.387	90.8092	171.387	90.8869	171.387	90.6635	171.387	90.7591	171.387	90.5469	171.387	90.6362	171.387	90.4713	171.387	90.5337	171.387	90.4438	171.387	90.4661
177.246	92.0989	177.246	92.0565	177.246	92.1283	177.246	92.0026	177.246	92.1446	177.246	91.9406	177.246	92.1488	177.246	91.8751	177.246	92.1414	177.246	91.8112	177.246	92.1218	177.246	91.7529	177.246	92.0873	177.246	91.7018	177.246	92.0329	177.246	91.6562	177.246	91.9529	177.246	91.611	177.246	91.8422	177.246	91.5591	177.246	91.699	177.246	91.4934	177.246	91.5268	177.246	91.4087	177.246	91.336	177.246	91.3041	177.246	91.1436	177.246	91.1835	177.246	90.9699	177.246	91.0553	177.246	90.8345	177.246	90.9316	177.246	90.7511	177.246	90.8262	177.246	90.725	177.246	90.7531
183.105	92.0521	183.105	92.0134	183.105	92.0737	183.105	91.9589	183.105	92.0785	183.105	91.8919	183.105	92.068	183.105	91.8171	183.105	92.0436	183.105	91.7399	183.105	92.0058	183.105	91.6646	183.105	91.953	183.105	91.5938	183.105	91.882	183.105	91.5264	183.105	91.7879	183.105	91.4582	183.105	91.6666	183.105	91.3828	183.105	91.5163	183.105	91.2938	183.105	91.3402	183.105	91.1872	183.105	91.1475	183.105	91.0632	183.105	90.9531	183.105	90.9276	183.105	90.7752	183.105	90.7908	183.105	90.6318	183.105	90.6661	183.105	90.5361	183.105	90.5674	183.105	90.4946	183.105	90.507
188.965	92.0345	188.965	91.9953	188.965	92.0519	188.965	91.936	188.965	92.048	188.965	91.8611	188.965	92.025	188.965	91.7771	188.965	91.9855	188.965	91.6919	188.965	91.9314	188.965	91.6123	188.965	91.863	188.965	91.5425	188.965	91.7785	188.965	91.4824	188.965	91.6749	188.965	91.4272	188.965	91.5493	188.965	91.369	188.965	91.4016	188.965	91.2991	188.965	91.2355	188.965	91.2117	188.965	91.0607	188.965	91.1053	188.965	90.8913	188.965	90.9845	188.965	90.7435	188.965	90.8589	188.965	90.6316	188.965	90.7405	188.965	90.565	188.965	90.6421	188.965	90.5468	188.965	90.5746
196.289	92.1552	196.289	92.1173	196.289	92.1692	196.289	92.0563	196.289	92.1608	196.289	91.9754	196.289	92.1328	196.289	91.8801	196.289	92.088	196.289	91.7773	196.289	92.0279	196.289	91.6741	196.289	91.952	196.289	91.5763	196.289	91.8574	196.289	91.4863	196.289	91.7401	196.289	91.403	196.289	91.5968	196.289	91.3221	196.289	91.4279	196.289	91.2379	196.289	91.2397	196.289	91.1457	196.289	91.0454	196.289	91.0439	196.289	90.8631	196.289	90.9351	196.289	90.7114	196.289	90.8253	196.289	90.6044	196.289	90.7225	196.289	90.5478	196.289	90.635	196.289	90.5392	196.289	90.5712
203.613	91.8189	203.613	91.7675	203.613	91.8384	203.613	91.6856	203.613	91.8277	203.613	91.578	203.613	91.7906	203.613	91.4524	203.613	91.7315	203.613	91.3191	203.613	91.6544	203.613	91.1885	203.613	91.5612	203.613	91.0697	203.613	91.4516	203.613	90.9676	203.613	91.3231	203.613	90.8823	203.613	91.1736	203.613	90.8087	203.613	91.0037	203.613	90.7396	203.613	90.8194	203.613	90.668	203.613	90.6332	203.613	90.5903	203.613	90.4622	203.613	90.5067	203.613	90.3239	203.613	90.4212	203.613	90.2303	203.613	90.3397	203.613	90.1847	203.613	90.2681	203.613	90.182	203.613	90.2129
210.938	91.8924	210.938	91.8593	210.938	91.8852	210.938	91.785	210.938	91.8411	210.938	91.6712	210.938	91.7655	210.938	91.5232	210.938	91.664	210.938	91.3487	210.938	91.5422	210.938	91.158	210.938	91.4038	210.938	90.962	210.938	91.2507	210.938	90.7711	210.938	91.0828	210.938	90.5931	210.938	90.9007	210.938	90.4326	210.938	90.7071	210.938	90.2916	210.938	90.5095	210.938	90.1709	210.938	90.3205	210.938	90.0708	210.938	90.1552	210.938	89.9924	210.938	90.0262	210.938	89.9355	210.938	89.9389	210.938	89.898	210.938	89.8898	210.938	89.8761	210.938	89.8689	210.938	89.8663
218.262	92.2659	218.262	92.2449	218.262	92.2503	218.262	92.1883	218.262	92.1988	218.262	92.0989	218.262	92.1133	218.262	91.9812	218.262	91.9964	218.262	91.8402	218.262	91.8501	218.262	91.6809	218.262	91.6749	218.262	91.5075	218.262	91.4705	218.262	91.3221	218.262	91.236	218.262	91.1255	218.262	90.9726	218.262	90.9178	218.262	90.686	218.262	90.7003	218.262	90.3892	218.262	90.4773	218.262	90.1027	218.262	90.2572	218.262	89.8516	218.262	90.0514	218.262	89.6581	218.262	89.8705	218.262	89.5343	218.262	89.7218	218.262	89.4789	218.262	89.6071	218.262	89.4804	218.262	89.5259
225.586	91.9786	225.586	91.9454	225.586	91.9723	225.586	91.8746	225.586	91.9278	225.586	91.7711	225.586	91.8489	225.586	91.6426	225.586	91.7407	225.586	91.4986	225.586	91.6086	225.586	91.3482	225.586	91.4566	225.586	91.1991	225.586	91.2875	225.586	91.0551	225.586	91.1024	225.586	90.9166	225.586	90.9037	225.586	90.7811	225.586	90.6961	225.586	90.6457	225.586	90.4896	225.586	90.5104	225.586	90.2985	225.586	90.3786	225.586	90.1388	225.586	90.2572	225.586	90.0228	225.586	90.153	225.586	89.9546	225.586	90.0699	225.586	89.9286	225.586	90.0072	225.586	89.9345	225.586	89.9623
232.91	91.9512	232.91	91.8961	232.91	91.9595	232.91	91.7962	232.91	91.9224	232.91	91.6571	232.91	91.8435	232.91	91.4885	232.91	91.7275	232.91	91.3031	232.91	91.579	232.91	91.1151	232.91	91.4016	232.91	90.9382	232.91	91.1975	232.91	90.7821	232.91	90.9695	232.91	90.6508	232.91	90.7231	232.91	90.5426	232.91	90.4698	232.91	90.4519	232.91	90.2289	232.91	90.3725	232.91	90.0249	232.91	90.3001	232.91	89.8806	232.91	90.2329	232.91	89.8078	232.91	90.1702	232.91	89.8018	232.91	90.1099	232.91	89.8438	232.91	90.0482	232.91	89.9099	232.91	89.9812
241.699	92.2257	241.699	92.1937	241.699	92.202	241.699	92.1062	241.699	92.1242	241.699	91.9652	241.699	91.9955	241.699	91.7754	241.699	91.8199	241.699	91.5438	241.699	91.6017	241.699	91.2804	241.699	91.3448	241.699	90.9979	241.699	91.0528	241.699	90.7116	241.699	90.7313	241.699	90.4375	241.699	90.3906	241.699	90.1914	241.699	90.0501	241.699	89.986	241.699	89.7398	241.699	89.83	241.699	89.4955	241.699	89.726	241.699	89.3466	241.699	89.6691	241.699	89.301	241.699	89.6468	241.699	89.3395	241.699	89.6394	241.699	89.4244	241.699	89.6251	241.699	89.5158	241.699	89.5861
250.488	91.8325	250.488	91.7758	250.488	91.8295	250.488	91.6629	250.488	91.7662	250.488	91.5004	250.488	91.6445	250.488	91.298	250.488	91.4672	250.488	91.0674	250.488	91.238	250.488	90.8203	250.488	90.9605	250.488	90.566	250.488	90.6383	250.488	90.3098	250.488	90.2768	250.488	90.0521	250.488	89.8856	250.488	89.792	250.488	89.4826	250.488	89.5313	250.488	89.0966	250.488	89.2792	250.488	88.7658	250.488	89.0527	250.488	88.5274	250.488	88.8706	250.488	88.4014	250.488	88.7431	250.488	88.3783	250.488	88.6637	250.488	88.4232	250.488	88.6105	250.488	88.4933	250.488	88.5583
259.277	92.3451	259.277	92.2692	259.277	92.352	259.277	92.1236	259.277	92.2916	259.277	91.9104	259.277	92.1662	259.277	91.6344	259.277	91.9781	259.277	91.305	259.277	91.7286	259.277	90.9361	259.277	91.4189	259.277	90.5465	259.277	91.0508	259.277	90.1586	259.277	90.6293	259.277	89.7952	259.277	90.1667	259.277	89.476	259.277	89.6869	259.277	89.2143	259.277	89.2279	259.277	89.0155	259.277	88.838	259.277	88.8774	259.277	88.5613	259.277	88.7912	259.277	88.4189	259.277	88.7419	259.277	88.3963	259.277	88.7096	259.277	88.452	259.277	88.6732	259.277	88.5377	259.277	88.6168
268.066	92.8929	268.066	92.8525	268.066	92.8844	268.066	92.7609	268.066	92.8306	268.066	92.617	268.066	92.7343	268.066	92.421	268.066	92.597	268.066	92.1753	268.066	92.4173	268.066	91.8839	268.066	92.191	268.066	91.5532	268.066	91.9115	268.066	91.1924	268.066	91.574	268.066	90.8144	268.066	91.1794	268.066	90.4364	268.066	90.7402	268.066	90.079	268.066	90.2847	268.066	89.7642	268.066	89.8558	268.066	89.5108	268.066	89.5005	268.066	89.3286	268.066	89.2521	268.066	89.2139	268.066	89.1153	268.066	89.15	268.066	89.0661	268.066	89.1143	268.066	89.0675	268.066	89.0883
276.855	92.2536	276.855	92.2102	276.855	92.2371	276.855	92.1061	276.855	92.1622	276.855	91.942	276.855	92.0311	276.855	91.7208	276.855	91.8453	276.855	91.4475	276.855	91.6053	276.855	91.1304	276.855	91.3103	276.855	90.782	276.855	90.9601	276.855	90.4209	276.855	90.5596	276.855	90.0715	276.855	90.1258	276.855	89.764	276.855	89.6957	276.855	89.529	276.855	89.3268	276.855	89.3896	276.855	89.0832	276.855	89.3516	276.855	89.0046	276.855	89.399	276.855	89.0797	276.855	89.4967	276.855	89.25	276.855	89.6008	276.855	89.4413	276.855	89.6695	276.855	89.5932	276.855	89.6717
287.109	91.9289	287.109	91.8549	287.109	91.9588	287.109	91.7325	287.109	91.9514	287.109	91.5602	287.109	91.9122	287.109	91.34	287.109	91.8423	287.109	91.076	287.109	91.7348	287.109	90.7727	287.109	91.5731	287.109	90.4347	287.109	91.3336	287.109	90.0676	287.109	90.9906	287.109	89.6811	287.109	90.526	287.109	89.2928	287.109	89.9416	287.109	88.9309	287.109	89.2743	287.109	88.6302	287.109	88.6095	287.109	88.4212	287.109	88.0732	287.109	88.3144	287.109	87.7777	287.109	88.2898	287.109	87.7436	287.109	88.3015	287.109	87.8842	287.109	88.2938	287.109	88.0744	287.109	88.2226
297.363	92.5624	297.363	92.5663	297.363	92.4893	297.363	92.5033	297.363	92.3438	297.363	92.373	297.363	92.1239	297.363	92.1715	297.363	91.8305	297.363	91.892	297.363	91.4705	297.363	91.5262	297.363	91.057	297.363	91.068	297.363	90.6101	297.363	90.5184	297.363	90.1538	297.363	89.8923	297.363	89.7124	297.363	89.2263	297.363	89.3071	297.363	88.5834	297.363	88.9562	297.363	88.0481	297.363	88.6748	297.363	87.6994	297.363	88.4723	297.363	87.569	297.363	88.3459	297.363	87.62	297.363	88.2763	297.363	87.7717	297.363	88.2316	297.363	87.9434	297.363	88.1767	297.363	88.0841
307.617	92.6026	307.617	92.5677	307.617	92.5904	307.617	92.4854	307.617	92.5311	307.617	92.3559	307.617	92.423	307.617	92.1792	307.617	92.2602	307.617	91.9542	307.617	92.0317	307.617	91.6776	307.617	91.7212	307.617	91.3444	307.617	91.3117	307.617	90.951	307.617	90.7933	307.617	90.5012	307.617	90.1752	307.617	90.0134	307.617	89.5024	307.617	89.5278	307.617	88.8666	307.617	89.1053	307.617	88.3931	307.617	88.8104	307.617	88.1807	307.617	88.6796	307.617	88.2294	307.617	88.6963	307.617	88.4392	307.617	88.7959	307.617	88.6813	307.617	88.8971	307.617	88.8602	307.617	88.9316
319.336	91.7046	319.336	91.6799	319.336	91.6887	319.336	91.6168	319.336	91.6321	319.336	91.518	319.336	91.5351	319.336	91.3847	319.336	91.3955	319.336	91.2131	319.336	91.206	319.336	90.9926	319.336	90.9516	319.336	90.7067	319.336	90.6115	319.336	90.3387	319.336	90.1652	319.336	89.8811	319.336	89.6047	319.336	89.3496	319.336	88.9544	319.336	88.7967	319.336	88.2924	319.336	88.315	319.336	87.7567	319.336	88.0093	319.336	87.4921	319.336	87.9356	319.336	87.5443	319.336	88.0553	319.336	87.8142	319.336	88.2591	319.336	88.1379	319.336	88.43	319.336	88.3838	319.336	88.4844
329.59	91.8761	329.59	91.819	329.59	91.8774	329.59	91.7085	329.59	91.8233	329.59	91.5509	329.59	91.7147	329.59	91.3543	329.59	91.5491	329.59	91.1253	329.59	91.3169	329.59	90.8644	329.59	91	329.59	90.5635	329.59	90.5739	329.59	90.2072	329.59	90.0148	329.59	89.7812	329.59	89.3134	329.59	89.2857	329.59	88.4987	329.59	88.7528	329.59	87.671	329.59	88.2589	329.59	87.0172	329.59	87.9102	329.59	86.7393	329.59	87.785	329.59	86.8862	329.59	87.8692	329.59	87.2978	329.59	88.0565	329.59	87.7503	329.59	88.2151	329.59	88.088	329.59	88.2431
341.309	91.7937	341.309	91.6981	341.309	91.8377	341.309	91.5501	341.309	91.8331	341.309	91.3508	341.309	91.7822	341.309	91.1028	341.309	91.6835	341.309	90.8069	341.309	91.5262	341.309	90.459	341.309	91.2875	341.309	90.0481	341.309	90.9331	341.309	89.5582	341.309	90.4229	341.309	88.9763	341.309	89.7235	341.309	88.3114	341.309	88.8294	341.309	87.6196	341.309	87.8007	341.309	87.0224	341.309	86.8135	341.309	86.6763	341.309	86.1579	341.309	86.6648	341.309	86.0493	341.309	86.9114	341.309	86.3944	341.309	87.2356	341.309	86.8951	341.309	87.4683	341.309	87.305	341.309	87.5047
353.027	91.4678	353.027	91.4072	353.027	91.4744	353.027	91.289	353.027	91.4352	353.027	91.1137	353.027	91.3602	353.027	90.8834	353.027	91.2549	353.027	90.5985	353.027	91.1134	353.027	90.2538	353.027	90.9123	353.027	89.8363	353.027	90.6103	353.027	89.3275	353.027	90.1549	353.027	88.7102	353.027	89.4952	353.027	87.9846	353.027	88.6049	353.027	87.1973	353.027	87.523	353.027	86.4749	353.027	86.4236	353.027	86.0168	353.027	85.6523	353.027	85.9723	353.027	85.5182	353.027	86.2826	353.027	85.9339	353.027	86.7198	353.027	86.521	353.027	87.0589	353.027	86.9755	353.027	87.1624
366.211	92.0857	366.211	92.0753	366.211	92.0686	366.211	92.0289	366.211	92.0348	366.211	91.9408	366.211	91.9928	366.211	91.806	366.211	91.9419	366.211	91.6161	366.211	91.8657	366.211	91.354	366.211	91.7289	366.211	90.9905	366.211	91.4807	366.211	90.4841	366.211	91.0623	366.211	89.7854	366.211	90.417	366.211	88.8459	366.211	89.5029	366.211	87.6386	366.211	88.3151	366.211	86.206	366.211	86.9297	366.211	84.7586	366.211	85.5756	366.211	83.7449	366.211	84.6333	366.211	83.545	366.211	84.3472	366.211	83.9584	366.211	84.5206	366.211	84.4735	366.211	84.7516	366.211	84.7662
379.395	91.2501	379.395	91.2833	379.395	91.1846	379.395	91.2901	379.395	91.0967	379.395	91.2864	379.395	91.009	379.395	91.2878	379.395	90.9459	379.395	91.2978	379.395	90.9136	379.395	91.2985	379.395	90.8842	379.395	91.2498	379.395	90.7936	379.395	91.0962	379.395	90.5568	379.395	90.7776	379.395	90.0903	379.395	90.24	379.395	89.3337	379.395	89.4484	379.395	88.2781	379.395	88.4072	379.395	87.0174	379.395	87.1991	379.395	85.8181	379.395	86.0376	379.395	85.0689	379.395	85.2415	379.395	84.931	379.395	84.9929	379.395	85.1359	379.395	85.1238	379.395	85.3201	379.395	85.3059
392.578	91.2107	392.578	91.1107	392.578	91.2223	392.578	90.9337	392.578	91.1499	392.578	90.708	392.578	91.0111	392.578	90.4753	392.578	90.8332	392.578	90.2774	392.578	90.6449	392.578	90.1341	392.578	90.4622	392.578	90.0235	392.578	90.2715	392.578	89.884	392.578	90.0227	392.578	89.6348	392.578	89.6382	392.578	89.2035	392.578	89.0351	392.578	88.5488	392.578	88.1539	392.578	87.6856	392.578	87.0013	392.578	86.7184	392.578	85.7232	392.578	85.858	392.578	84.6737	392.578	85.3307	392.578	84.247	392.578	85.1714	392.578	84.4284	392.578	85.1757	392.578	84.8201	392.578	85.0974
405.762	90.8487	405.762	90.7718	405.762	90.842	405.762	90.6125	405.762	90.7699	405.762	90.3925	405.762	90.6664	405.762	90.1532	405.762	90.5715	405.762	89.9476	405.762	90.5127	405.762	89.8203	405.762	90.4854	405.762	89.7796	405.762	90.4442	405.762	89.7817	405.762	90.3157	405.762	89.744	405.762	90.0217	405.762	89.5774	405.762	89.5023	405.762	89.2179	405.762	88.7381	405.762	88.6502	405.762	87.7797	405.762	87.9276	405.762	86.7847	405.762	87.1814	405.762	86.0081	405.762	86.5824	405.762	85.6503	405.762	86.2323	405.762	85.6661	405.762	86.0796	405.762	85.8342	405.762	85.9809
420.41	91.4282	420.41	91.3492	420.41	91.3812	420.41	91.1346	420.41	91.2299	420.41	90.7895	420.41	91.0069	420.41	90.3392	420.41	90.7526	420.41	89.8333	420.41	90.5059	420.41	89.3404	420.41	90.2872	420.41	88.9222	420.41	90.0814	420.41	88.5937	420.41	89.8349	420.41	88.3051	420.41	89.4704	420.41	87.9719	420.41	88.9142	420.41	87.5307	420.41	88.1278	420.41	86.9886	420.41	87.1484	420.41	86.4455	420.41	86.1435	420.41	86.0592	420.41	85.4156	420.41	85.9281	420.41	85.206	420.41	85.9898	420.41	85.4294	420.41	86.0718	420.41	85.7805	420.41	86.0208
435.059	91.2322	435.059	91.222	435.059	91.1168	435.059	91.0853	435.059	90.8905	435.059	90.8336	435.059	90.5866	435.059	90.4924	435.059	90.2594	435.059	90.1022	435.059	89.9757	435.059	89.7117	435.059	89.7836	435.059	89.3591	435.059	89.6745	435.059	89.0466	435.059	89.5709	435.059	88.7301	435.059	89.3603	435.059	88.3397	435.059	88.9444	435.059	87.8216	435.059	88.281	435.059	87.1842	435.059	87.4229	435.059	86.5325	435.059	86.5548	435.059	86.053	435.059	85.9581	435.059	85.8897	435.059	85.803	435.059	85.9995	435.059	85.9694	435.059	86.1904	435.059	86.1913	435.059	86.2809
451.172	91.2577	451.172	91.2389	451.172	91.1754	451.172	91.1204	451.172	91.0053	451.172	90.9144	451.172	90.7798	451.172	90.6398	451.172	90.5484	451.172	90.3198	451.172	90.3636	451.172	89.9783	451.172	90.2496	451.172	89.6313	451.172	90.1743	451.172	89.2762	451.172	90.0495	451.172	88.8828	451.172	89.7628	451.172	88.399	451.172	89.2176	451.172	87.7749	451.172	88.3665	451.172	87.0023	451.172	87.2565	451.172	86.1637	451.172	86.0971	451.172	85.4591	451.172	85.2663	451.172	85.1145	451.172	85.0326	451.172	85.1639	451.172	85.2301	451.172	85.3939	451.172	85.4806	451.172	85.5459
465.82	92.0184	465.82	91.9631	465.82	91.9105	465.82	91.7536	465.82	91.642	465.82	91.4127	465.82	91.2293	465.82	90.9801	465.82	90.7085	465.82	90.5118	465.82	90.1413	465.82	90.0666	465.82	89.6102	465.82	89.676	465.82	89.186	465.82	89.3157	465.82	88.8741	465.82	88.906	465.82	88.59	465.82	88.3473	465.82	88.1953	465.82	87.5696	465.82	87.5662	465.82	86.5874	465.82	86.6584	465.82	85.5671	465.82	85.5882	465.82	84.842	465.82	84.7064	465.82	84.6801	465.82	84.4236	465.82	84.9544	465.82	84.7181	465.82	85.2847	465.82	85.1564	465.82	85.3829
483.398	91.6878	483.398	91.6006	483.398	91.637	483.398	91.3778	483.398	91.45	483.398	91.0282	483.398	91.1339	483.398	90.5722	483.398	90.7059	483.398	90.0494	483.398	90.2014	483.398	89.5248	483.398	89.6788	483.398	89.0766	483.398	89.2089	483.398	88.7547	483.398	88.8398	483.398	88.5336	483.398	88.5564	483.398	88.316	483.398	88.2811	483.398	87.9952	483.398	87.923	483.398	87.5266	483.398	87.4384	483.398	86.9733	483.398	86.874	483.398	86.4987	483.398	86.3714	483.398	86.2604	483.398	86.0946	483.398	86.2583	483.398	86.0879	483.398	86.3372	483.398	86.2278	483.398	86.3412
499.512	91.9399	499.512	91.8972	499.512	91.8592	499.512	91.718	499.512	91.6747	499.512	91.3946	499.512	91.4142	499.512	90.93	499.512	91.1142	499.512	90.3492	499.512	90.8111	499.512	89.7132	499.512	90.5242	499.512	89.1191	499.512	90.2389	499.512	88.6589	499.512	89.904	499.512	88.3442	499.512	89.4493	499.512	88.0754	499.512	88.813	499.512	87.7064	499.512	87.9748	499.512	87.1429	499.512	86.9969	499.512	86.4189	499.512	86.0687	499.512	85.737	499.512	85.4712	499.512	85.3801	499.512	85.3575	499.512	85.4372	499.512	85.5697	499.512	85.6903	499.512	85.8059	499.512	85.8591
517.09	92.3187	517.09	92.2744	517.09	92.205	517.09	92.0819	517.09	91.927	517.09	91.7517	517.09	91.4874	517.09	91.2971	517.09	90.9068	517.09	90.7369	517.09	90.2348	517.09	90.0999	517.09	89.5534	517.09	89.4222	517.09	88.9537	517.09	88.7364	517.09	88.4806	517.09	88.0555	517.09	88.0888	517.09	87.3695	517.09	87.669	517.09	86.6725	517.09	87.1304	517.09	86.0112	517.09	86.4844	517.09	85.5178	517.09	85.8908	517.09	85.3507	517.09	85.5945	517.09	85.5398	517.09	85.6984	517.09	85.9232	517.09	86.0337	517.09	86.2742	517.09	86.3356	517.09	86.4317
536.133	92.258	536.133	92.2043	536.133	92.1785	536.133	92.0181	536.133	91.9705	536.133	91.7073	536.133	91.6427	536.133	91.2872	536.133	91.2101	536.133	90.7786	536.133	90.6978	536.133	90.2039	536.133	90.1436	536.133	89.5835	536.133	89.5915	536.133	88.9324	536.133	89.0705	536.133	88.2562	536.133	88.5725	536.133	87.554	536.133	88.0534	536.133	86.8396	536.133	87.4696	536.133	86.1854	536.133	86.8362	536.133	85.7482	536.133	86.2724	536.133	85.6861	536.133	85.9714	536.133	85.9811	536.133	86.0401	536.133	86.418	536.133	86.3635	536.133	86.7581	536.133	86.7016	536.133	86.8612
555.176	92.0969	555.176	92.0537	555.176	92.0056	555.176	91.8815	555.176	91.7829	555.176	91.5908	555.176	91.4447	555.176	91.1942	555.176	91.0219	555.176	90.7076	555.176	90.5564	555.176	90.1524	555.176	90.0838	555.176	89.5525	555.176	89.6077	555.176	88.9202	555.176	89.0857	555.176	88.2359	555.176	88.4505	555.176	87.4518	555.176	87.6604	555.176	86.5441	555.176	86.7655	555.176	85.6164	555.176	85.9667	555.176	84.9822	555.176	85.5725	555.176	84.9859	555.176	85.7378	555.176	85.5705	555.176	86.2689	555.176	86.332	555.176	86.8313	555.176	86.9364	555.176	87.1897	555.176	87.2346
574.219	92.4381	574.219	92.283	574.219	92.4267	574.219	91.9799	574.219	92.2379	574.219	91.5541	574.219	91.8707	574.219	91.0362	574.219	91.3381	574.219	90.4544	574.219	90.6718	574.219	89.8208	574.219	89.9219	574.219	89.1201	574.219	89.1398	574.219	88.3166	574.219	88.339	574.219	87.382	574.219	87.4615	574.219	86.3398	574.219	86.4093	574.219	85.3225	574.219	85.1814	574.219	84.6174	574.219	84.1288	574.219	84.5538	574.219	83.9762	574.219	85.1601	574.219	84.8744	574.219	86.0879	574.219	86.0977	574.219	86.9594	574.219	87.0809	574.219	87.5611	574.219	87.6531	574.219	87.8048
594.727	92.1172	594.727	92.0727	594.727	92.0459	594.727	91.9063	594.727	91.877	594.727	91.6292	594.727	91.6366	594.727	91.2685	594.727	91.3554	594.727	90.8547	594.727	91.0605	594.727	90.402	594.727	90.7564	594.727	89.8947	594.727	90.3994	594.727	89.2863	594.727	89.8926	594.727	88.5039	594.727	89.1102	594.727	87.4477	594.727	87.9375	594.727	86.0077	594.727	86.3297	594.727	84.1774	594.727	84.4705	594.727	82.4803	594.727	83.1093	594.727	82.2851	594.727	83.2181	594.727	83.6963	594.727	84.4062	594.727	85.2652	594.727	85.6359	594.727	86.2895	594.727	86.4326	594.727	86.6676
615.234	92.0347	615.234	91.9484	615.234	91.9116	615.234	91.6637	615.234	91.5926	615.234	91.2184	615.234	91.1233	615.234	90.6887	615.234	90.5952	615.234	90.1889	615.234	90.1412	615.234	89.8285	615.234	89.8708	615.234	89.6276	615.234	89.7658	615.234	89.4723	615.234	89.6574	615.234	89.1675	615.234	89.3231	615.234	88.5135	615.234	88.5855	615.234	87.3456	615.234	87.3684	615.234	85.5905	615.234	85.7914	615.234	83.5527	615.234	84.3915	615.234	82.5409	615.234	84.0317	615.234	83.5041	615.234	84.7623	615.234	85.0701	615.234	85.7601	615.234	86.1766	615.234	86.4529	615.234	86.6239
637.207	92.5136	637.207	92.4271	637.207	92.4412	637.207	92.1756	637.207	92.2152	637.207	91.7512	637.207	91.8433	637.207	91.1502	637.207	91.3416	637.207	90.39	637.207	90.7397	637.207	89.5358	637.207	90.0821	637.207	88.709	637.207	89.4131	637.207	88.0171	637.207	88.7333	637.207	87.412	637.207	87.9562	637.207	86.6462	637.207	86.9196	637.207	85.4043	637.207	85.493	637.207	83.5247	637.207	83.8552	637.207	81.6601	637.207	82.9898	637.207	81.9614	637.207	83.8573	637.207	84.1694	637.207	85.5352	637.207	86.1838	637.207	86.944	637.207	87.4319	637.207	87.7613	637.207	87.935
659.18	91.8817	659.18	91.8091	659.18	91.7584	659.18	91.5469	659.18	91.4573	659.18	91.1298	659.18	91.0287	659.18	90.6327	659.18	90.5705	659.18	90.1708	659.18	90.2247	659.18	89.8567	659.18	90.1002	659.18	89.7104	659.18	90.1452	659.18	89.6166	659.18	90.1324	659.18	89.3843	659.18	89.7825	659.18	88.823	659.18	88.8613	659.18	87.7566	659.18	87.2011	659.18	86.0085	659.18	84.7803	659.18	83.5006	659.18	82.2946	659.18	81.0826	659.18	81.9169	659.18	81.4234	659.18	83.6163	659.18	83.6576	659.18	85.2602	659.18	85.4031	659.18	86.1564	659.18	86.2202
682.617	92.3181	682.617	92.279	682.617	92.1333	682.617	92.0179	682.617	91.7202	682.617	91.5304	682.617	91.0854	682.617	90.8136	682.617	90.2797	682.617	89.8937	682.617	89.4528	682.617	88.894	682.617	88.8666	682.617	88.0992	682.617	88.7072	682.617	87.793	682.617	88.8053	682.617	87.8529	682.617	88.7384	682.617	87.7837	682.617	88.1358	682.617	87.1276	682.617	86.7906	682.617	85.638	682.617	84.7536	682.617	83.5239	682.617	82.8723	682.617	82.4272	682.617	82.963	682.617	83.8382	682.617	84.6651	682.617	85.8188	682.617	86.3019	682.617	87.1151	682.617	87.3075	682.617	87.5927
707.52	92.8032	707.52	92.7472	707.52	92.6413	707.52	92.4807	707.52	92.2389	707.52	91.9934	707.52	91.5693	707.52	91.2667	707.52	90.6242	707.52	90.3056	707.52	89.467	707.52	89.2082	707.52	88.3294	707.52	88.2381	707.52	87.628	707.52	87.6997	707.52	87.5556	707.52	87.5341	707.52	87.6808	707.52	87.2643	707.52	87.3532	707.52	86.3742	707.52	86.1	707.52	84.4695	707.52	83.7135	707.52	81.5172	707.52	81.2309	707.52	80.0766	707.52	82.1169	707.52	82.7711	707.52	84.7761	707.52	85.5485	707.52	86.6916	707.52	87.1876	707.52	87.6768	707.52	87.8457
732.422	92.1368	732.422	92.0355	732.422	92.0425	732.422	91.7494	732.422	91.7456	732.422	91.2977	732.422	91.2377	732.422	90.7037	732.422	90.5201	732.422	89.994	732.422	89.6563	732.422	89.2254	732.422	88.846	732.422	88.5394	732.422	88.3722	732.422	88.1355	732.422	88.2754	732.422	88.034	732.422	88.1885	732.422	87.9079	732.422	87.6192	732.422	87.2758	732.422	86.1255	732.422	85.6757	732.422	83.2123	732.422	82.618	732.422	78.623	732.422	78.3706	732.422	78.1385	732.422	79.3411	732.422	82.435	732.422	83.2806	732.422	85.1798	732.422	85.6388	732.422	86.4645	732.422	86.6126
757.324	92.4883	757.324	92.3586	757.324	92.376	757.324	91.9935	757.324	92.0074	757.324	91.3944	757.324	91.3659	757.324	90.5666	757.324	90.4469	757.324	89.5448	757.324	89.2994	757.324	88.4483	757.324	88.1261	757.324	87.5494	757.324	87.3838	757.324	87.1743	757.324	87.4358	757.324	87.3013	757.324	87.8918	757.324	87.4503	757.324	87.9673	757.324	87.0717	757.324	87.065	757.324	85.7283	757.324	84.6999	757.324	83.0721	757.324	80.42	757.324	79.8413	757.324	77.8645	757.324	80.8403	757.324	81.9059	757.324	84.0641	757.324	84.9833	757.324	86.0821	757.324	86.4964	757.324	86.8377
785.156	92.4155	785.156	92.3499	785.156	92.3166	785.156	92.1055	785.156	92.0427	785.156	91.6538	785.156	91.5432	785.156	90.946	785.156	90.7267	785.156	89.9067	785.156	89.4998	785.156	88.4815	785.156	87.903	785.156	86.8435	785.156	86.4472	785.156	85.733	785.156	86.1076	785.156	85.809	785.156	86.7526	785.156	86.2987	785.156	87.1488	785.156	86.1212	785.156	86.456	785.156	84.6818	785.156	84.0955	785.156	81.5227	785.156	79.3314	785.156	77.7696	785.156	77.1066	785.156	80.5395	785.156	82.4285	785.156	84.4831	785.156	85.7561	785.156	86.7227	785.156	87.3179	785.156	87.6062
811.523	91.8994	811.523	91.7185	811.523	91.8748	811.523	91.3513	811.523	91.6152	811.523	90.7969	811.523	91.0879	811.523	90.0324	811.523	90.2636	811.523	89.026	811.523	89.1522	811.523	87.8067	811.523	87.9248	811.523	86.6655	811.523	87.0819	811.523	86.2493	811.523	87.1553	811.523	86.7295	811.523	87.8586	811.523	87.3159	811.523	88.3495	811.523	87.2523	811.523	87.9473	811.523	86.1033	811.523	86.0617	811.523	83.3438	811.523	81.6328	811.523	77.7448	811.523	72.7752	811.523	75.0942	811.523	79.204	811.523	81.7163	811.523	84.0392	811.523	85.0607	811.523	86	811.523	86.299
840.82	92.485	840.82	92.286	840.82	92.5357	840.82	91.9479	840.82	92.4115	840.82	91.4684	840.82	92.0536	840.82	90.8256	840.82	91.3629	840.82	89.9543	840.82	90.2209	840.82	88.7356	840.82	88.5865	840.82	87.1072	840.82	86.7903	840.82	85.5428	840.82	85.8983	840.82	85.3242	840.82	86.4726	840.82	86.235	840.82	87.346	840.82	86.6117	840.82	87.4292	840.82	85.5589	840.82	86.0983	840.82	82.5341	840.82	82.4211	840.82	77.2032	840.82	73.8656	840.82	77.8682	840.82	78.8022	840.82	82.865	840.82	84.4986	840.82	85.7496	840.82	86.714	840.82	86.9942
870.117	92.0418	870.117	91.96	870.117	91.9917	870.117	91.7363	870.117	91.8305	870.117	91.3675	870.117	91.5606	870.117	90.8307	870.117	91.1111	870.117	90.039	870.117	90.3095	870.117	88.8035	870.117	88.9339	870.117	86.8583	870.117	86.8982	870.117	84.2373	870.117	84.8459	870.117	82.8748	870.117	84.6081	870.117	84.374	870.117	85.9609	870.117	85.7065	870.117	86.8312	870.117	85.3573	870.117	86.1688	870.117	82.791	870.117	83.0878	870.117	76.9654	870.117	75.2813	870.117	75.9281	870.117	77.3593	870.117	82.0295	870.117	83.4711	870.117	85.0811	870.117	85.8133	870.117	86.2208
900.879	91.8743	900.879	91.6981	900.879	91.8971	900.879	91.3636	900.879	91.7556	900.879	90.8707	900.879	91.4314	900.879	90.2552	900.879	90.902	900.879	89.5573	900.879	90.1108	900.879	88.7017	900.879	88.9391	900.879	87.4533	900.879	87.314	900.879	85.6587	900.879	85.6676	900.879	84.0349	900.879	85.2693	900.879	84.2721	900.879	86.1513	900.879	85.4073	900.879	86.7692	900.879	85.454	900.879	86.1564	900.879	83.5416	900.879	83.5958	900.879	78.5473	900.879	77.2624	900.879	72.8778	900.879	72.157	900.879	80.1746	900.879	80.9048	900.879	83.8819	900.879	84.2105	900.879	85.0306
933.105	91.3065	933.105	91.234	933.105	91.1786	933.105	90.9593	933.105	90.875	933.105	90.5044	933.105	90.4285	933.105	89.8805	933.105	89.8602	933.105	89.0526	933.105	89.1272	933.105	87.9522	933.105	88.0486	933.105	86.4999	933.105	86.3343	933.105	84.6842	933.105	83.967	933.105	83.2045	933.105	82.6266	933.105	83.7052	933.105	84.0393	933.105	85.1574	933.105	85.5902	933.105	85.4322	933.105	85.6719	933.105	83.6239	933.105	83.7057	933.105	78.8681	933.105	78.5798	933.105	74.7231	933.105	74.0154	933.105	80.3554	933.105	80.5378	933.105	83.5533	933.105	83.6969	933.105	84.5264
965.332	90.9371	965.332	90.9089	965.332	90.7614	965.332	90.6495	965.332	90.4222	965.332	90.1203	965.332	89.9827	965.332	89.304	965.332	89.4739	965.332	88.2518	965.332	88.8254	965.332	87.041	965.332	87.8591	965.332	85.644	965.332	86.3627	965.332	83.982	965.332	84.4066	965.332	82.7723	965.332	83.1672	965.332	83.6999	965.332	83.7503	965.332	85.4458	965.332	84.5619	965.332	85.9137	965.332	84.2237	965.332	84.2284	965.332	82.0829	965.332	78.9714	965.332	76.8101	965.332	70.0047	965.332	71.6434	965.332	80.145	965.332	79.6681	965.332	83.8833	965.332	83.4631	965.332	84.7147
1000.49	89.9511	1000.49	89.9333	1000.49	89.6432	1000.49	89.6678	1000.49	89.063	1000.49	89.2724	1000.49	88.4603	1000.49	88.8261	1000.49	88.1468	1000.49	88.3403	1000.49	88.0987	1000.49	87.7618	1000.49	87.8253	1000.49	86.8649	1000.49	86.7479	1000.49	85.1606	1000.49	84.6409	1000.49	82.4896	1000.49	82.2981	1000.49	81.7555	1000.49	81.5951	1000.49	83.9708	1000.49	82.1981	1000.49	84.7801	1000.49	82.321	1000.49	82.9319	1000.49	80.8575	1000.49	77.6288	1000.49	76.2385	1000.49	71.9391	1000.49	67.8201	1000.49	78.8273	1000.49	78.5487	1000.49	82.6748	1000.49	82.8606	1000.49	83.9471
1035.64	89.8839	1035.64	89.689	1035.64	89.7065	1035.64	89.2184	1035.64	89.1728	1035.64	88.5919	1035.64	88.438	1035.64	87.9116	1035.64	87.6966	1035.64	87.2528	1035.64	87.024	1035.64	86.5635	1035.64	86.3083	1035.64	85.5361	1035.64	85.315	1035.64	83.6249	1035.64	83.8405	1035.64	80.5367	1035.64	82.0031	1035.64	79.8823	1035.64	80.7202	1035.64	83.3206	1035.64	81.0228	1035.64	85.2037	1035.64	81.8395	1035.64	84.4765	1035.64	81.4509	1035.64	80.4627	1035.64	78.4455	1035.64	69.1168	1035.64	69.8128	1035.64	75.1681	1035.64	73.8986	1035.64	80.1599	1035.64	79.5135	1035.64	81.1471
1072.27	89.89	1072.27	89.9265	1072.27	89.6479	1072.27	89.6933	1072.27	89.2569	1072.27	89.1437	1072.27	88.7789	1072.27	88.3124	1072.27	88.2761	1072.27	87.3418	1072.27	87.7841	1072.27	86.4596	1072.27	87.2403	1072.27	85.8759	1072.27	86.3188	1072.27	85.3233	1072.27	84.5551	1072.27	83.8162	1072.27	82.0872	1072.27	80.6833	1072.27	80.193	1072.27	80.2395	1072.27	79.52	1072.27	82.8322	1072.27	79.5132	1072.27	82.8341	1072.27	79.557	1072.27	79.2441	1072.27	78.3607	1072.27	70.0014	1072.27	74.1838	1072.27	75.3495	1072.27	73.2895	1072.27	80.0337	1072.27	78.8836	1072.27	80.9534
1108.89	90.6936	1108.89	90.5598	1108.89	90.5264	1108.89	90.1459	1108.89	90.1203	1108.89	89.5184	1108.89	89.57	1108.89	88.7224	1108.89	88.9109	1108.89	87.8154	1108.89	88.0547	1108.89	86.9016	1108.89	86.8468	1108.89	85.9618	1108.89	85.2437	1108.89	84.6826	1108.89	83.3817	1108.89	82.5602	1108.89	81.5147	1108.89	80.164	1108.89	80.4601	1108.89	81.223	1108.89	81.3753	1108.89	83.2446	1108.89	82.8033	1108.89	83.0878	1108.89	82.7503	1108.89	80.0811	1108.89	80.606	1108.89	73.093	1108.89	78.0105	1108.89	76.1205	1108.89	79.3981	1108.89	80.9233	1108.89	81.6226	1108.89	82.3176
1148.44	90.5499	1148.44	90.533	1148.44	90.3239	1148.44	90.2564	1148.44	89.9285	1148.44	89.7087	1148.44	89.4637	1148.44	88.9317	1148.44	88.9363	1148.44	88.136	1148.44	88.2732	1148.44	87.5444	1148.44	87.4591	1148.44	86.9872	1148.44	86.3694	1148.44	85.9399	1148.44	84.6452	1148.44	83.8776	1148.44	82.4682	1148.44	81.0426	1148.44	81.0352	1148.44	81.0712	1148.44	80.488	1148.44	83.1619	1148.44	80.222	1148.44	83.1088	1148.44	80.386	1148.44	79.8588	1148.44	79.6752	1148.44	73.6909	1148.44	76.5629	1148.44	78.095	1148.44	77.9013	1148.44	82.4886	1148.44	82.327	1148.44	83.7913
1189.45	90.5548	1189.45	90.6556	1189.45	90.2186	1189.45	90.4276	1189.45	89.7531	1189.45	89.812	1189.45	89.2158	1189.45	88.818	1189.45	88.5667	1189.45	87.6333	1189.45	87.6523	1189.45	86.701	1189.45	86.291	1189.45	86.2033	1189.45	84.5651	1189.45	85.4985	1189.45	82.9418	1189.45	83.995	1189.45	81.7109	1189.45	82.2461	1189.45	80.6034	1189.45	82.0875	1189.45	79.6865	1189.45	82.9904	1189.45	79.3061	1189.45	82.4792	1189.45	79.1806	1189.45	79.0878	1189.45	78.785	1189.45	73.43	1189.45	78.3949	1189.45	79.1268	1189.45	80.0838	1189.45	83.1702	1189.45	82.8613	1189.45	84.1653
1230.47	89.577	1230.47	89.955	1230.47	89.0924	1230.47	90.0125	1230.47	88.6993	1230.47	89.5627	1230.47	88.4428	1230.47	88.5422	1230.47	88.2023	1230.47	87.3032	1230.47	87.7042	1230.47	86.6517	1230.47	86.5443	1230.47	86.8139	1230.47	84.5734	1230.47	86.7435	1230.47	82.3516	1230.47	85.2017	1230.47	81.3147	1230.47	81.4304	1230.47	81.8158	1230.47	80.4134	1230.47	82.0852	1230.47	83.6445	1230.47	81.0666	1230.47	83.8221	1230.47	79.054	1230.47	79.7999	1230.47	77.669	1230.47	70.0178	1230.47	78.2583	1230.47	79.3445	1230.47	79.8896	1230.47	82.914	1230.47	81.9148	1230.47	83.3156
1274.41	90.5397	1274.41	90.6677	1274.41	90.145	1274.41	90.4409	1274.41	89.5017	1274.41	89.845	1274.41	88.5447	1274.41	88.9139	1274.41	87.4996	1274.41	87.6964	1274.41	86.9543	1274.41	86.5691	1274.41	86.9264	1274.41	86.2379	1274.41	86.5088	1274.41	85.9054	1274.41	84.6853	1274.41	84.2699	1274.41	81.8673	1274.41	81.4097	1274.41	81.5783	1274.41	80.5319	1274.41	82.6738	1274.41	82.9642	1274.41	82.1403	1274.41	83.7986	1274.41	78.5578	1274.41	80.34	1274.41	70.4585	1274.41	54.7797	1274.41	77.2337	1274.41	80.9989	1274.41	81.6594	1274.41	84.4134	1274.41	83.6319	1274.41	84.6432
1319.82	90.8373	1319.82	90.6402	1319.82	90.7532	1319.82	90.2422	1319.82	90.3112	1319.82	89.8395	1319.82	89.2961	1319.82	89.3988	1319.82	87.6686	1319.82	88.4537	1319.82	86.2531	1319.82	86.7469	1319.82	86.1016	1319.82	85.541	1319.82	86.2409	1319.82	85.7439	1319.82	84.8734	1319.82	85.1333	1319.82	81.4744	1319.82	81.8925	1319.82	81.2344	1319.82	76.4625	1319.82	83.6054	1319.82	81.0994	1319.82	83.6507	1319.82	83.8437	1319.82	80.9071	1319.82	81.4548	1319.82	73.0638	1319.82	62.796	1319.82	75.423	1319.82	80.9138	1319.82	82.5733	1319.82	85.1338	1319.82	85.3037	1319.82	86.0222
1366.7	90.6498	1366.7	90.136	1366.7	91.2304	1366.7	89.8157	1366.7	91.427	1366.7	89.6335	1366.7	90.7499	1366.7	89.4925	1366.7	88.9849	1366.7	89.0179	1366.7	86.619	1366.7	87.5541	1366.7	85.8241	1366.7	84.9837	1366.7	87.0727	1366.7	84.2752	1366.7	86.8523	1366.7	84.5997	1366.7	83.4716	1366.7	81.4918	1366.7	79.4475	1366.7	75.0202	1366.7	82.209	1366.7	80.6433	1366.7	83.6292	1366.7	84.7053	1366.7	82.0598	1366.7	84.3908	1366.7	75.0832	1366.7	77.2204	1366.7	73.3413	1366.7	79.6043	1366.7	83.5193	1366.7	85.4691	1366.7	86.6256	1366.7	87.0931
1413.57	91.622	1413.57	91.4619	1413.57	91.5843	1413.57	90.9825	1413.57	91.3262	1413.57	90.2374	1413.57	90.7773	1413.57	89.6632	1413.57	89.9742	1413.57	89.3349	1413.57	88.7521	1413.57	88.5461	1413.57	87.068	1413.57	86.6727	1413.57	86.7529	1413.57	84.8997	1413.57	86.7565	1413.57	85.1454	1413.57	83.6177	1413.57	84.4272	1413.57	75.4509	1413.57	80.2943	1413.57	78.5562	1413.57	76.6538	1413.57	83.2925	1413.57	83.2955	1413.57	84.0392	1413.57	84.684	1413.57	80.5917	1413.57	80.6789	1413.57	65.5398	1413.57	76.0554	1413.57	80.5502	1413.57	82.9592	1413.57	84.9801	1413.57	85.5604
1463.38	91.4516	1463.38	91.5831	1463.38	90.9413	1463.38	91.3497	1463.38	90.3939	1463.38	90.9338	1463.38	90.0531	1463.38	90.3312	1463.38	89.8675	1463.38	89.6496	1463.38	89.4708	1463.38	88.9861	1463.38	88.0817	1463.38	87.7863	1463.38	85.948	1463.38	85.7581	1463.38	85.2054	1463.38	84.2117	1463.38	84.445	1463.38	83.5631	1463.38	81.7635	1463.38	81.4982	1463.38	78.2921	1463.38	80.2373	1463.38	81.8374	1463.38	82.8713	1463.38	84.159	1463.38	83.8495	1463.38	82.6376	1463.38	81.1457	1463.38	74.0509	1463.38	67.2738	1463.38	75.5579	1463.38	80.0551	1463.38	82.9528	1463.38	83.9706
1516.11	90.5875	1516.11	90.6497	1516.11	90.2619	1516.11	90.3356	1516.11	89.9164	1516.11	89.7446	1516.11	89.7123	1516.11	89.2288	1516.11	89.2463	1516.11	89.0139	1516.11	88.2076	1516.11	88.6564	1516.11	86.9186	1516.11	87.3201	1516.11	85.8358	1516.11	85.0428	1516.11	84.9174	1516.11	83.3181	1516.11	83.5311	1516.11	82.7694	1516.11	80.8421	1516.11	81.5279	1516.11	78.574	1516.11	79.0908	1516.11	80.1964	1516.11	82.0322	1516.11	82.1455	1516.11	83.503	1516.11	81.2833	1516.11	79.5751	1516.11	72.5268	1516.11	70.2626	1516.11	76.5031	1516.11	80.1877	1516.11	82.902	1516.11	83.4799
1568.85	90.4555	1568.85	90.2415	1568.85	90.2689	1568.85	89.7161	1568.85	89.4541	1568.85	88.8134	1568.85	88.5639	1568.85	88.1792	1568.85	88.2117	1568.85	88.1626	1568.85	87.8576	1568.85	87.8737	1568.85	86.9311	1568.85	86.7163	1568.85	85.4121	1568.85	85.001	1568.85	83.9459	1568.85	83.3082	1568.85	83.0624	1568.85	82.163	1568.85	80.4269	1568.85	80.692	1568.85	76.8787	1568.85	78.6577	1568.85	78.7761	1568.85	82.4356	1568.85	81.3157	1568.85	83.2589	1568.85	81.8806	1568.85	77.2767	1568.85	76.085	1568.85	67.1008	1568.85	71.982	1568.85	78.4319	1568.85	80.5521	1568.85	81.2909
1624.51	90.5262	1624.51	89.8097	1624.51	90.6381	1624.51	89.2199	1624.51	89.7796	1624.51	88.8528	1624.51	88.7231	1624.51	88.4598	1624.51	88.4082	1624.51	87.7728	1624.51	88.166	1624.51	86.6344	1624.51	86.5961	1624.51	85.3212	1624.51	84.2682	1624.51	83.5274	1624.51	83.1125	1624.51	81.971	1624.51	83.2083	1624.51	81.9794	1624.51	82.4538	1624.51	80.9483	1624.51	79.2976	1624.51	79.8701	1624.51	78.9814	1624.51	81.4579	1624.51	80.8711	1624.51	81.2543	1624.51	80.8093	1624.51	76.1053	1624.51	75.2291	1624.51	66.7226	1624.51	66.9917	1624.51	78.4717	1624.51	78.3287	1624.51	80.5857
1681.64	89.833	1681.64	89.6092	1681.64	89.845	1681.64	89.4524	1681.64	89.5972	1681.64	89.1772	1681.64	89.3857	1681.64	88.6165	1681.64	89.1273	1681.64	87.9195	1681.64	88.3232	1681.64	86.806	1681.64	86.3386	1681.64	84.9743	1681.64	84.5727	1681.64	82.5178	1681.64	84.0581	1681.64	80.8723	1681.64	83.0533	1681.64	80.9748	1681.64	81.7603	1681.64	79.6064	1681.64	79.3866	1681.64	76.8413	1681.64	78.3208	1681.64	79.6691	1681.64	79.6569	1681.64	80.2447	1681.64	80.5186	1681.64	75.7994	1681.64	75.8627	1681.64	56.7854	1681.64	68.7031	1681.64	77.5034	1681.64	78.8412	1681.64	80.4879
1741.7	88.9214	1741.7	89.572	1741.7	88.4215	1741.7	89.4745	1741.7	88.8555	1741.7	88.8055	1741.7	89.0777	1741.7	88.0615	1741.7	88.3076	1741.7	87.3699	1741.7	87.1044	1741.7	86.1731	1741.7	85.6	1741.7	84.2084	1741.7	84.4265	1741.7	82.7354	1741.7	84.7039	1741.7	82.4426	1741.7	83.6709	1741.7	83.2314	1741.7	80.5862	1741.7	80.6329	1741.7	77.4214	1741.7	73.096	1741.7	74.8673	1741.7	76.9071	1741.7	77.2037	1741.7	80.8623	1741.7	78.0492	1741.7	80.0489	1741.7	74.1511	1741.7	67.2791	1741.7	63.4466	1741.7	76.1049	1741.7	75.9219	1741.7	78.6275
1803.22	88.2166	1803.22	88.3029	1803.22	88.5085	1803.22	87.8478	1803.22	89.3242	1803.22	87.9153	1803.22	89.3573	1803.22	87.9491	1803.22	88.0246	1803.22	86.3907	1803.22	86.5208	1803.22	84.5062	1803.22	85.8144	1803.22	82.933	1803.22	84.1584	1803.22	84.008	1803.22	82.7337	1803.22	84.69	1803.22	81.6	1803.22	83.1665	1803.22	78.5721	1803.22	80.3512	1803.22	77.1765	1803.22	70.2342	1803.22	76.0201	1803.22	76.4656	1803.22	73.0374	1803.22	80.8774	1803.22	74.7684	1803.22	77.7084	1803.22	70.9643	1803.22	72.1681	1803.22	47.7864	1803.22	78.626	1803.22	74.9556	1803.22	79.6949
1866.21	89.6119	1866.21	88.7357	1866.21	90.5079	1866.21	88.7628	1866.21	90.3722	1866.21	88.9055	1866.21	89.2025	1866.21	88.303	1866.21	87.7785	1866.21	85.8299	1866.21	87.301	1866.21	83.2158	1866.21	86.8701	1866.21	84.3473	1866.21	83.6884	1866.21	85.0356	1866.21	79.6719	1866.21	82.4511	1866.21	80.9121	1866.21	77.6884	1866.21	81.5464	1866.21	75.5046	1866.21	79.8979	1866.21	74.3296	1866.21	78.6248	1866.21	72.6986	1866.21	74.4108	1866.21	80.7843	1866.21	77.1634	1866.21	75.2477	1866.21	79.125	1866.21	70.4944	1866.21	74.5502	1866.21	78.4848	1866.21	79.1898	1866.21	80.974
1932.13	90.378	1932.13	90.5374	1932.13	90.3254	1932.13	90.1827	1932.13	90.2132	1932.13	89.4036	1932.13	89.434	1932.13	88.4064	1932.13	88.4109	1932.13	87.4218	1932.13	87.4467	1932.13	86.2799	1932.13	86.0225	1932.13	84.2346	1932.13	84.1192	1932.13	82.5525	1932.13	82.2275	1932.13	79.2253	1932.13	81.5789	1932.13	77.5837	1932.13	80.3417	1932.13	79.3373	1932.13	77.4102	1932.13	76.9621	1932.13	77.0186	1932.13	74.0979	1932.13	75.8534	1932.13	80.1038	1932.13	77.7181	1932.13	78.9992	1932.13	79.1415	1932.13	60.5805	1932.13	75.4931	1932.13	77.6183	1932.13	79.1123	1932.13	80.3778
1999.51	89.8115	1999.51	90.0846	1999.51	90.3973	1999.51	90.0285	1999.51	90.6331	1999.51	89.1424	1999.51	89.3649	1999.51	88.4656	1999.51	87.2651	1999.51	87.1671	1999.51	85.7828	1999.51	85.7682	1999.51	85.5696	1999.51	85.0859	1999.51	83.9524	1999.51	83.8787	1999.51	78.4508	1999.51	81.7263	1999.51	79.4613	1999.51	78.191	1999.51	80.5405	1999.51	78.9794	1999.51	76.1449	1999.51	79.1183	1999.51	77.0876	1999.51	72.915	1999.51	76.239	1999.51	80.5082	1999.51	75.8246	1999.51	78.6265	1999.51	77.144	1999.51	66.0709	1999.51	74.1551	1999.51	78.6539	1999.51	80.2399	1999.51	81.2704
2069.82	89.4416	2069.82	89.9342	2069.82	89.4497	2069.82	89.9485	2069.82	89.193	2069.82	88.5906	2069.82	87.6549	2069.82	86.5603	2069.82	86.3766	2069.82	85.3451	2069.82	85.9344	2069.82	85.9446	2069.82	84.779	2069.82	85.324	2069.82	83.5927	2069.82	81.9477	2069.82	81.1102	2069.82	79.1286	2069.82	79.2883	2069.82	78.6272	2069.82	81.7025	2069.82	80.4812	2069.82	76.9953	2069.82	81.0087	2069.82	74.4438	2069.82	74.0531	2069.82	74.4926	2069.82	80.3451	2069.82	71.3888	2069.82	79.8668	2069.82	72.7986	2069.82	70.0999	2069.82	70.0037	2069.82	77.502	2069.82	79.243	2069.82	80.7649
2143.07	91.1397	2143.07	90.9031	2143.07	91.0936	2143.07	90.342	2143.07	90.2107	2143.07	88.9069	2143.07	88.9664	2143.07	87.3229	2143.07	88.4506	2143.07	86.5557	2143.07	87.3505	2143.07	86.1102	2143.07	84.5104	2143.07	84.6371	2143.07	83.6233	2143.07	81.0497	2143.07	83.9006	2143.07	79.6826	2143.07	81.2127	2143.07	79.4656	2143.07	81.3013	2143.07	79.2262	2143.07	77.0453	2143.07	78.454	2143.07	73.4954	2143.07	66.4096	2143.07	73.5609	2143.07	75.6305	2143.07	72.8844	2143.07	78.5467	2143.07	71.3048	2143.07	73.1729	2143.07	69.6309	2143.07	76.5025	2143.07	77.88	2143.07	79.761
2219.24	91.0594	2219.24	91.1109	2219.24	90.5377	2219.24	90.6525	2219.24	89.4754	2219.24	89.6248	2219.24	88.6677	2219.24	88.8235	2219.24	87.9879	2219.24	87.896	2219.24	86.3061	2219.24	86.1629	2219.24	83.5747	2219.24	83.9503	2219.24	83.5128	2219.24	81.9227	2219.24	84.1094	2219.24	81.0171	2219.24	79.1893	2219.24	79.9195	2219.24	75.7952	2219.24	76.6176	2219.24	75.0134	2219.24	76.2732	2219.24	75.8356	2219.24	73.7506	2219.24	76.3188	2219.24	70.5591	2219.24	71.7592	2219.24	79.8355	2219.24	68.5334	2219.24	74.1896	2219.24	72.1609	2219.24	74.8777	2219.24	76.2031	2219.24	78.4292
2296.88	89.4697	2296.88	89.5371	2296.88	89.0752	2296.88	89.6928	2296.88	88.6227	2296.88	88.9651	2296.88	88.4152	2296.88	88.4403	2296.88	87.2369	2296.88	87.4067	2296.88	85.9225	2296.88	84.9594	2296.88	84.2828	2296.88	83.0781	2296.88	82.3916	2296.88	82.0258	2296.88	81.5905	2296.88	80.3668	2296.88	76.291	2296.88	78.0496	2296.88	73.5355	2296.88	76.6705	2296.88	75.9443	2296.88	74.2478	2296.88	75.2392	2296.88	75.2661	2296.88	75.4595	2296.88	69.3955	2296.88	71.0773	2296.88	75.7882	2296.88	75.0905	2296.88	70.8162	2296.88	73.2093	2296.88	74.8605	2296.88	61.7193	2296.88	74.139
2378.91	90.9885	2378.91	90.2368	2378.91	90.9357	2378.91	89.5029	2378.91	90.7693	2378.91	88.9464	2378.91	90.0402	2378.91	87.1695	2378.91	88.7698	2378.91	85.955	2378.91	87.1994	2378.91	83.985	2378.91	85.1435	2378.91	80.5427	2378.91	82.543	2378.91	80.6439	2378.91	81.794	2378.91	79.8357	2378.91	78.2508	2378.91	77.3442	2378.91	76.2144	2378.91	76.1578	2378.91	77.0467	2378.91	76.0855	2378.91	73.9537	2378.91	74.279	2378.91	74.1541	2378.91	70.5611	2378.91	71.1172	2378.91	77.5483	2378.91	73.43	2378.91	75.3702	2378.91	71.5946	2378.91	72.6791	2378.91	69.3628	2378.91	74.1567
2462.4	90.8155	2462.4	90.6533	2462.4	90.561	2462.4	90.1643	2462.4	90.0859	2462.4	89.4861	2462.4	89.3383	2462.4	88.3923	2462.4	88.0284	2462.4	86.9321	2462.4	86.5913	2462.4	85.1427	2462.4	85.2969	2462.4	82.4964	2462.4	83.0336	2462.4	81.0599	2462.4	81.197	2462.4	79.7064	2462.4	79.0749	2462.4	77.2434	2462.4	76.4791	2462.4	75.7741	2462.4	77.3211	2462.4	73.7615	2462.4	74.0279	2462.4	74.2703	2462.4	75.2704	2462.4	68.5635	2462.4	70.5058	2462.4	76.0478	2462.4	73.7426	2462.4	72.5459	2462.4	71.2065	2462.4	66.2694	2462.4	67.4316	2462.4	74.0135
2548.83	90.1331	2548.83	89.9657	2548.83	89.8847	2548.83	89.6021	2548.83	89.4279	2548.83	88.9154	2548.83	88.5822	2548.83	87.9358	2548.83	87.2697	2548.83	86.403	2548.83	85.7038	2548.83	84.9655	2548.83	84.077	2548.83	82.8963	2548.83	81.8215	2548.83	80.753	2548.83	79.6461	2548.83	79.1035	2548.83	78.6905	2548.83	76.5659	2548.83	75.3035	2548.83	75.993	2548.83	76.2091	2548.83	73.8064	2548.83	73.2977	2548.83	74.4556	2548.83	72.502	2548.83	68.9183	2548.83	73.1994	2548.83	74.7304	2548.83	72.3011	2548.83	73.3579	2548.83	71.9015	2548.83	62.2294	2548.83	65.6432	2548.83	73.5911
2639.65	90.7497	2639.65	90.3875	2639.65	90.5581	2639.65	89.6855	2639.65	89.9695	2639.65	88.9809	2639.65	89.0397	2639.65	87.6307	2639.65	87.8127	2639.65	85.6169	2639.65	86.054	2639.65	83.6901	2639.65	84.223	2639.65	81.777	2639.65	82.373	2639.65	80.2291	2639.65	80.0984	2639.65	78.7282	2639.65	78.5068	2639.65	76.0244	2639.65	75.9236	2639.65	74.9508	2639.65	75.8047	2639.65	71.7163	2639.65	74.4609	2639.65	73.7081	2639.65	73.3361	2639.65	69.7618	2639.65	72.143	2639.65	72.5163	2639.65	73.2412	2639.65	72.6003	2639.65	69.5695	2639.65	60.737	2639.65	65.7271	2639.65	73.8072
2731.93	90.8762	2731.93	90.6159	2731.93	90.8479	2731.93	90.1671	2731.93	90.2306	2731.93	89.2443	2731.93	89.2326	2731.93	88.1534	2731.93	88.0708	2731.93	86.2146	2731.93	86.1599	2731.93	84.0172	2731.93	83.8404	2731.93	82.3865	2731.93	81.741	2731.93	80.022	2731.93	79.2717	2731.93	78.4593	2731.93	78.4421	2731.93	75.5948	2731.93	76.5887	2731.93	74.9579	2731.93	74.2299	2731.93	73.0942	2731.93	74.0595	2731.93	72.2899	2731.93	72.4978	2731.93	71.4989	2731.93	72.1811	2731.93	70.7378	2731.93	72.2529	2731.93	71.6982	2731.93	70.4689	2731.93	64.5331	2731.93	63.2828	2731.93	71.9676
2828.61	90.4092	2828.61	90.3842	2828.61	90.3141	2828.61	89.7279	2828.61	89.8112	2828.61	88.8691	2828.61	88.7559	2828.61	87.7434	2828.61	87.5311	2828.61	86.1195	2828.61	85.8914	2828.61	83.8615	2828.61	84.0592	2828.61	81.7987	2828.61	81.4859	2828.61	79.6022	2828.61	79.1176	2828.61	78.3436	2828.61	77.9465	2828.61	76.1277	2828.61	75.8631	2828.61	73.4999	2828.61	73.5581	2828.61	72.7136	2828.61	73.1721	2828.61	71.6944	2828.61	71.6824	2828.61	72.0679	2828.61	71.2387	2828.61	69.2857	2828.61	71.6275	2828.61	72.1877	2828.61	70.4628	2828.61	54.5683	2828.61	59.6658	2828.61	70.3367
2928.22	90.3472	2928.22	90.2495	2928.22	90.2112	2928.22	89.6098	2928.22	89.7099	2928.22	88.5396	2928.22	88.5678	2928.22	87.1326	2928.22	87.2818	2928.22	85.3919	2928.22	85.6978	2928.22	83.2737	2928.22	83.7551	2928.22	80.9895	2928.22	80.9682	2928.22	78.67	2928.22	78.6473	2928.22	76.9391	2928.22	77.5691	2928.22	76.3781	2928.22	75.748	2928.22	74.4527	2928.22	72.8991	2928.22	72.625	2928.22	71.0834	2928.22	70.8374	2928.22	71.947	2928.22	71.9406	2928.22	69.1593	2928.22	69.9905	2928.22	69.2766	2928.22	70.655	2928.22	70.5779	2928.22	58.1597	2928.22	50.1421	2928.22	68.1258
3030.76	90.5606	3030.76	90.537	3030.76	90.4146	3030.76	89.9695	3030.76	89.9896	3030.76	88.9562	3030.76	88.7247	3030.76	87.2772	3030.76	87.1071	3030.76	85.4774	3030.76	85.2018	3030.76	83.4335	3030.76	83.3707	3030.76	80.9496	3030.76	81.2738	3030.76	78.3004	3030.76	78.3898	3030.76	76.4514	3030.76	76.4749	3030.76	74.9586	3030.76	75.5016	3030.76	73.6644	3030.76	72.667	3030.76	71.2694	3030.76	72.3041	3030.76	67.194	3030.76	69.8589	3030.76	71.5348	3030.76	71.6163	3030.76	69.133	3030.76	68.7467	3030.76	69.9954	3030.76	71.0668	3030.76	59.8734	3030.76	50.2866	3030.76	65.3399
3137.7	90.3363	3137.7	90.2412	3137.7	90.1734	3137.7	89.6213	3137.7	89.6917	3137.7	88.7816	3137.7	88.759	3137.7	87.3593	3137.7	87.1489	3137.7	85.3924	3137.7	84.978	3137.7	83.5857	3137.7	83.143	3137.7	81.5469	3137.7	81.3501	3137.7	79.74	3137.7	78.8775	3137.7	77.6693	3137.7	76.3792	3137.7	75.1883	3137.7	74.696	3137.7	73.5399	3137.7	72.7181	3137.7	72.67	3137.7	71.9839	3137.7	68.3547	3137.7	66.8257	3137.7	71.5886	3137.7	70.3792	3137.7	67.9226	3137.7	63.6587	3137.7	69.4845	3137.7	71.0902	3137.7	56.4183	3137.7	40.3565	3137.7	66.7988
3249.02	90.7924	3249.02	90.7111	3249.02	90.5787	3249.02	90.0393	3249.02	89.9502	3249.02	88.8695	3249.02	89.0173	3249.02	87.3176	3249.02	87.4463	3249.02	85.3329	3249.02	85.5444	3249.02	83.2049	3249.02	83.2708	3249.02	80.6429	3249.02	80.9594	3249.02	78.549	3249.02	79.1469	3249.02	76.6329	3249.02	77.2948	3249.02	74.8464	3249.02	75.0051	3249.02	73.2581	3249.02	72.8388	3249.02	72.8266	3249.02	73.607	3249.02	69.9953	3249.02	69.1176	3249.02	71.7733	3249.02	72.9982	3249.02	68.8534	3249.02	66.602	3249.02	71.6172	3249.02	71.1222	3249.02	61.4352	3249.02	58.5722	3249.02	64.5001
3363.28	90.861	3363.28	90.8161	3363.28	90.5324	3363.28	90.2438	3363.28	89.7522	3363.28	89.2529	3363.28	88.6963	3363.28	88.0553	3363.28	87.1265	3363.28	86.1755	3363.28	85.4668	3363.28	84.182	3363.28	83.1044	3363.28	81.9368	3363.28	80.5287	3363.28	79.7518	3363.28	78.4045	3363.28	77.3125	3363.28	75.7778	3363.28	75.0765	3363.28	74.1143	3363.28	72.8676	3363.28	71.4461	3363.28	71.402	3363.28	71.2848	3363.28	69.1232	3363.28	69.3356	3363.28	69.119	3363.28	70.76	3363.28	69.4006	3363.28	66.7528	3363.28	70.2774	3363.28	69.3039	3363.28	57.731	3363.28	59.3496	3363.28	61.5136
3481.93	91.3045	3481.93	91.177	3481.93	91.1466	3481.93	90.4662	3481.93	90.481	3481.93	89.2511	3481.93	89.4324	3481.93	87.8479	3481.93	88.0962	3481.93	86.1021	3481.93	86.4891	3481.93	83.685	3481.93	84.0898	3481.93	81.2998	3481.93	81.7695	3481.93	78.8212	3481.93	79.8859	3481.93	77.6519	3481.93	77.4389	3481.93	75.9815	3481.93	75.6674	3481.93	74.7939	3481.93	74.4854	3481.93	72.4392	3481.93	71.9767	3481.93	71.848	3481.93	70.4477	3481.93	70.7498	3481.93	72.6389	3481.93	70.5106	3481.93	71.1769	3481.93	69.6026	3481.93	69.3935	3481.93	59.3255	3481.93	62.1909	3481.93	63.9345
3604.98	91.291	3604.98	91.345	3604.98	91.0383	3604.98	90.6783	3604.98	90.0599	3604.98	89.5387	3604.98	88.6182	3604.98	88.1523	3604.98	87.1651	3604.98	86.4412	3604.98	85.7149	3604.98	84.6138	3604.98	83.3188	3604.98	82.3771	3604.98	80.8793	3604.98	79.5653	3604.98	79.433	3604.98	77.9423	3604.98	77.0469	3604.98	75.607	3604.98	74.4359	3604.98	74.8569	3604.98	73.8695	3604.98	71.4525	3604.98	72.3061	3604.98	71.1279	3604.98	70.1972	3604.98	69.5927	3604.98	70.2972	3604.98	70.1386	3604.98	69.9792	3604.98	68.6067	3604.98	69.197	3604.98	60.1075	3604.98	56.1688	3604.98	62.5122
3732.42	91.9483	3732.42	91.6886	3732.42	91.6072	3732.42	90.7931	3732.42	90.8246	3732.42	89.2343	3732.42	89.4685	3732.42	87.6659	3732.42	87.7197	3732.42	85.651	3732.42	86.0686	3732.42	83.9465	3732.42	84.0439	3732.42	81.9817	3732.42	82.1688	3732.42	79.5947	3732.42	80.1611	3732.42	78.4465	3732.42	77.6936	3732.42	75.9264	3732.42	75.3454	3732.42	74.8747	3732.42	73.0164	3732.42	73.1068	3732.42	73.9151	3732.42	70.4778	3732.42	73.597	3732.42	69.1762	3732.42	69.7545	3732.42	70.4103	3732.42	70.0061	3732.42	69.4562	3732.42	66.8873	3732.42	59.4412	3732.42	64.2266	3732.42	64.6053
3864.26	92.1655	3864.26	91.8476	3864.26	91.5011	3864.26	90.9663	3864.26	90.2408	3864.26	89.4788	3864.26	88.9219	3864.26	87.8289	3864.26	87.1564	3864.26	86.1964	3864.26	85.5899	3864.26	84.5075	3864.26	83.2771	3864.26	82.8283	3864.26	81.4342	3864.26	79.8485	3864.26	79.6358	3864.26	77.9573	3864.26	77.6003	3864.26	76.279	3864.26	74.5649	3864.26	72.4477	3864.26	72.1377	3864.26	73.0943	3864.26	71.0865	3864.26	71.9807	3864.26	71.3799	3864.26	68.657	3864.26	70.1986	3864.26	72.0369	3864.26	71.9169	3864.26	70.7069	3864.26	67.2881	3864.26	64.8202	3864.26	62.4188	3864.26	61.9725
4000.49	92.5334	4000.49	92.0193	4000.49	91.9318	4000.49	90.7821	4000.49	90.6619	4000.49	88.7537	4000.49	89.0813	4000.49	87.0628	4000.49	87.2945	4000.49	85.3637	4000.49	85.8112	4000.49	83.4233	4000.49	83.9802	4000.49	82.0066	4000.49	82.259	4000.49	79.9225	4000.49	79.957	4000.49	77.8337	4000.49	77.7182	4000.49	75.6246	4000.49	76.5028	4000.49	73.0611	4000.49	73.6105	4000.49	70.9956	4000.49	71.0441	4000.49	72.4303	4000.49	71.0604	4000.49	68.4756	4000.49	68.2311	4000.49	71.986	4000.49	71.4563	4000.49	66.8111	4000.49	70.849	4000.49	62.8561	4000.49	64.3789	4000.49	58.8263
4141.11	92.5428	4141.11	92.042	4141.11	91.8944	4141.11	90.9415	4141.11	90.3282	4141.11	89.244	4141.11	88.6978	4141.11	87.8256	4141.11	87.1002	4141.11	86.0526	4141.11	85.5949	4141.11	84.1324	4141.11	83.8468	4141.11	82.1413	4141.11	81.6225	4141.11	80.0321	4141.11	79.0566	4141.11	76.9823	4141.11	76.5923	4141.11	74.4881	4141.11	74.3803	4141.11	74.1323	4141.11	73.9123	4141.11	72.274	4141.11	71.8901	4141.11	72.4451	4141.11	71.2949	4141.11	69.6693	4141.11	67.9802	4141.11	71.9094	4141.11	71.1146	4141.11	67.7237	4141.11	67.3402	4141.11	64.4862	4141.11	66.8243	4141.11	58.3256
4287.6	92.6482	4287.6	92.0234	4287.6	91.9592	4287.6	90.8644	4287.6	90.743	4287.6	89.1106	4287.6	88.7263	4287.6	87.3768	4287.6	86.9947	4287.6	85.3928	4287.6	85.6048	4287.6	84.2679	4287.6	84.1503	4287.6	82.0576	4287.6	82.5659	4287.6	80.062	4287.6	79.2453	4287.6	78.5477	4287.6	76.9058	4287.6	75.789	4287.6	74.6257	4287.6	73.8112	4287.6	72.3995	4287.6	71.3178	4287.6	71.1139	4287.6	70.6875	4287.6	71.2129	4287.6	69.9316	4287.6	67.3004	4287.6	71.0847	4287.6	71.178	4287.6	67.5217	4287.6	66.144	4287.6	68.4449	4287.6	67.1234	4287.6	62.6089
4438.48	92.6641	4438.48	92.014	4438.48	91.8217	4438.48	91.1242	4438.48	90.7204	4438.48	89.4835	4438.48	88.9211	4438.48	88.2835	4438.48	87.2688	4438.48	86.307	4438.48	85.5808	4438.48	84.1672	4438.48	83.5898	4438.48	82.0246	4438.48	82.2438	4438.48	79.4773	4438.48	80.166	4438.48	77.672	4438.48	77.9043	4438.48	75.3373	4438.48	74.0312	4438.48	74.1423	4438.48	72.7737	4438.48	69.8607	4438.48	71.2104	4438.48	70.1201	4438.48	70.8515	4438.48	68.0928	4438.48	70.7653	4438.48	70.8767	4438.48	72.2374	4438.48	67.8341	4438.48	69.791	4438.48	67.2805	4438.48	63.0229	4438.48	54.8309
4595.21	92.6179	4595.21	92.0352	4595.21	91.9815	4595.21	90.9707	4595.21	90.6552	4595.21	89.4753	4595.21	89.2866	4595.21	87.8025	4595.21	87.8548	4595.21	86.0126	4595.21	86.1983	4595.21	84.6233	4595.21	84.2894	4595.21	82.1495	4595.21	81.536	4595.21	80.4203	4595.21	79.6997	4595.21	78.6567	4595.21	77.9406	4595.21	75.8657	4595.21	75.1971	4595.21	73.8156	4595.21	73.0023	4595.21	71.1686	4595.21	70.9033	4595.21	70.2347	4595.21	69.1391	4595.21	68.8856	4595.21	66.3596	4595.21	72.1053	4595.21	70.181	4595.21	69.1532	4595.21	65.8675	4595.21	62.5865	4595.21	67.4028	4595.21	57.4681
4756.35	92.522	4756.35	92.0418	4756.35	91.7943	4756.35	90.9726	4756.35	90.3974	4756.35	89.6328	4756.35	89.0164	4756.35	88.0927	4756.35	87.949	4756.35	86.3852	4756.35	85.9602	4756.35	84.8733	4756.35	84.3877	4756.35	81.6233	4756.35	82.1132	4756.35	80.0396	4756.35	79.0331	4756.35	75.6679	4756.35	76.5998	4756.35	72.9797	4756.35	73.7125	4756.35	71.6376	4756.35	73.4785	4756.35	70.5728	4756.35	68.5632	4756.35	69.6247	4756.35	71.1733	4756.35	67.0807	4756.35	69.5031	4756.35	71.0019	4756.35	65.7103	4756.35	65.0606	4756.35	68.5296	4756.35	67.094	4756.35	69.0308	4756.35	61.5496
4924.8	92.8162	4924.8	91.9536	4924.8	91.9846	4924.8	90.841	4924.8	90.6035	4924.8	89.1126	4924.8	88.9856	4924.8	88.2886	4924.8	87.5653	4924.8	86.2471	4924.8	86.0715	4924.8	84.2382	4924.8	83.7886	4924.8	81.5559	4924.8	82.4315	4924.8	80.4434	4924.8	80.3543	4924.8	77.8694	4924.8	77.0999	4924.8	77.163	4924.8	74.8839	4924.8	74.3205	4924.8	72.8247	4924.8	70.4831	4924.8	71.6561	4924.8	68.8365	4924.8	69.4335	4924.8	70.7741	4924.8	70.07	4924.8	69.5643	4924.8	70.9444	4924.8	67.2312	4924.8	68.1118	4924.8	70.7332	4924.8	64.724	4924.8	61.4515
5097.66	92.4388	5097.66	92.0194	5097.66	91.9028	5097.66	90.9594	5097.66	90.4391	5097.66	89.6764	5097.66	89.3317	5097.66	88.1139	5097.66	87.6645	5097.66	86.4179	5097.66	86.0509	5097.66	84.5158	5097.66	84.0212	5097.66	80.9528	5097.66	81.2913	5097.66	79.5645	5097.66	79.0489	5097.66	76.5475	5097.66	76.7246	5097.66	74.4728	5097.66	74.3094	5097.66	71.9705	5097.66	73.3022	5097.66	71.1458	5097.66	70.7168	5097.66	69.3576	5097.66	66.7009	5097.66	70.8784	5097.66	65.1945	5097.66	67.289	5097.66	69.9734	5097.66	67.4702	5097.66	64.3999	5097.66	68.2136	5097.66	61.4491	5097.66	62.3135
5277.83	92.3867	5277.83	91.9526	5277.83	91.8433	5277.83	90.9885	5277.83	90.2789	5277.83	89.5341	5277.83	89.5829	5277.83	88.0951	5277.83	87.8641	5277.83	86.0206	5277.83	86.2402	5277.83	84.269	5277.83	84.2458	5277.83	81.3204	5277.83	81.6755	5277.83	79.3926	5277.83	78.2392	5277.83	75.0553	5277.83	76.0483	5277.83	75.1855	5277.83	73.3203	5277.83	73.8443	5277.83	70.9062	5277.83	71.1891	5277.83	69.6758	5277.83	69.0179	5277.83	71.6541	5277.83	68.7546	5277.83	70.2376	5277.83	68.6759	5277.83	65.7699	5277.83	66.0424	5277.83	69.0823	5277.83	63.1137	5277.83	66.0391	5277.83	60.6469
5463.87	92.501	5463.87	92.0721	5463.87	91.9544	5463.87	91.0188	5463.87	90.3824	5463.87	89.4702	5463.87	89.511	5463.87	88.3014	5463.87	87.9568	5463.87	86.1291	5463.87	85.9331	5463.87	84.0889	5463.87	84.0596	5463.87	81.6644	5463.87	81.3536	5463.87	79.7537	5463.87	78.854	5463.87	76.6782	5463.87	75.6171	5463.87	75.2222	5463.87	72.7394	5463.87	71.307	5463.87	70.8274	5463.87	71.11	5463.87	70.689	5463.87	69.6867	5463.87	68.4588	5463.87	68.141	5463.87	68.3465	5463.87	68.2889	5463.87	67.7527	5463.87	65.8481	5463.87	68.5427	5463.87	67.6583	5463.87	64.0998	5463.87	61.7029
5657.23	92.1326	5657.23	91.8408	5657.23	91.7476	5657.23	90.8138	5657.23	90.1665	5657.23	89.2315	5657.23	89.4825	5657.23	87.8597	5657.23	87.8131	5657.23	86.3942	5657.23	86.0272	5657.23	84.1812	5657.23	83.856	5657.23	82.2514	5657.23	81.3849	5657.23	79.2847	5657.23	78.317	5657.23	76.59	5657.23	76.8118	5657.23	74.2483	5657.23	73.7444	5657.23	71.3216	5657.23	71.1885	5657.23	68.5799	5657.23	68.5507	5657.23	68.6615	5657.23	69.3958	5657.23	69.6152	5657.23	66.2078	5657.23	66.3696	5657.23	66.2975	5657.23	68.2637	5657.23	69.0753	5657.23	68.3291	5657.23	61.9494	5657.23	65.4061
5856.45	91.882	5856.45	91.9451	5856.45	91.5985	5856.45	91.0111	5856.45	90.5697	5856.45	89.9068	5856.45	89.7843	5856.45	88.3752	5856.45	87.8557	5856.45	86.6185	5856.45	86.0273	5856.45	83.8623	5856.45	84.1713	5856.45	81.5576	5856.45	81.0508	5856.45	78.1571	5856.45	77.9958	5856.45	74.9265	5856.45	75.3545	5856.45	73.1168	5856.45	73.6631	5856.45	71.099	5856.45	70.4518	5856.45	70.1327	5856.45	70.1614	5856.45	69.6124	5856.45	68.0753	5856.45	68.4982	5856.45	68.4549	5856.45	64.7293	5856.45	67.9231	5856.45	68.5265	5856.45	67.2068	5856.45	63.3589	5856.45	51.8716	5856.45	62.6635
6062.99	91.751	6062.99	91.7637	6062.99	91.5978	6062.99	91.0553	6062.99	90.7215	6062.99	89.7344	6062.99	89.5005	6062.99	87.6817	6062.99	87.6961	6062.99	85.9675	6062.99	85.5773	6062.99	83.081	6062.99	83.9411	6062.99	81.9294	6062.99	80.7561	6062.99	77.5944	6062.99	78.0492	6062.99	76.7139	6062.99	76.6138	6062.99	74.496	6062.99	72.7698	6062.99	71.3524	6062.99	71.6203	6062.99	70.0063	6062.99	67.1292	6062.99	69.3762	6062.99	70.0656	6062.99	68.8392	6062.99	66.8872	6062.99	65.7131	6062.99	66.2312	6062.99	67.947	6062.99	67.6486	6062.99	64.4434	6062.99	64.5471	6062.99	63.4582
6276.86	91.6264	6276.86	91.8723	6276.86	91.6692	6276.86	91.1396	6276.86	90.915	6276.86	89.8517	6276.86	89.7838	6276.86	87.6658	6276.86	87.8524	6276.86	86.2002	6276.86	85.7675	6276.86	83.2663	6276.86	84.0458	6276.86	82.0658	6276.86	81.3286	6276.86	77.8237	6276.86	78.1873	6276.86	75.8487	6276.86	75.9595	6276.86	73.8468	6276.86	72.5447	6276.86	71.3135	6276.86	71.7057	6276.86	67.3038	6276.86	68.9592	6276.86	68.1304	6276.86	67.0042	6276.86	67.3531	6276.86	66.2628	6276.86	62.7972	6276.86	64.2545	6276.86	68.2532	6276.86	67.0216	6276.86	65.1328	6276.86	64.8355	6276.86	63.3504
6498.05	91.6509	6498.05	91.9714	6498.05	91.8176	6498.05	91.2967	6498.05	91.2529	6498.05	89.8438	6498.05	89.7171	6498.05	87.5695	6498.05	87.7685	6498.05	86.1281	6498.05	85.5474	6498.05	83.3279	6498.05	84.0044	6498.05	81.9805	6498.05	80.8352	6498.05	77.5756	6498.05	78.1461	6498.05	76.3717	6498.05	75.5679	6498.05	72.9288	6498.05	72.5076	6498.05	71.3183	6498.05	70.9196	6498.05	68.7362	6498.05	69.0846	6498.05	68.2475	6498.05	65.1395	6498.05	64.7311	6498.05	69.4782	6498.05	60.1308	6498.05	65.6952	6498.05	67.8516	6498.05	68.6656	6498.05	66.4454	6498.05	58.089	6498.05	60.9491
6726.56	91.1439	6726.56	91.7109	6726.56	91.5262	6726.56	91.1063	6726.56	91.178	6726.56	89.9199	6726.56	89.5314	6726.56	87.5981	6726.56	87.4877	6726.56	86.0635	6726.56	85.5204	6726.56	83.2794	6726.56	83.7776	6726.56	82.3748	6726.56	80.7984	6726.56	77.9162	6726.56	78.1504	6726.56	75.2335	6726.56	75.533	6726.56	72.2443	6726.56	73.4457	6726.56	69.8911	6726.56	71.0646	6726.56	68.3766	6726.56	67.5688	6726.56	69.4482	6726.56	69.9413	6726.56	67.444	6726.56	65.935	6726.56	62.2859	6726.56	62.3846	6726.56	67.6379	6726.56	67.2976	6726.56	66.3237	6726.56	65.5121	6726.56	55.0354
6963.87	91.1015	6963.87	91.7308	6963.87	91.6721	6963.87	91.3651	6963.87	91.4665	6963.87	90.2377	6963.87	89.8637	6963.87	88.0131	6963.87	88.006	6963.87	86.3534	6963.87	85.853	6963.87	83.5812	6963.87	84.339	6963.87	82.1449	6963.87	81.2282	6963.87	78.2477	6963.87	78.6104	6963.87	76.3782	6963.87	76.0019	6963.87	73.2605	6963.87	73.0584	6963.87	71.4708	6963.87	70.72	6963.87	68.9898	6963.87	68.5728	6963.87	67.0953	6963.87	66.434	6963.87	65.3695	6963.87	67.3928	6963.87	61.4289	6963.87	63.8332	6963.87	70.1219	6963.87	68.3387	6963.87	66.3866	6963.87	66.4551	6963.87	62.4572
7209.96	91.1208	7209.96	91.7318	7209.96	91.8136	7209.96	91.4202	7209.96	91.581	7209.96	90.5126	7209.96	90.0664	7209.96	88.0907	7209.96	88.1504	7209.96	86.3563	7209.96	85.9292	7209.96	83.6606	7209.96	84.2484	7209.96	82.2663	7209.96	81.0746	7209.96	77.7361	7209.96	78.5027	7209.96	75.419	7209.96	75.392	7209.96	72.2211	7209.96	73.6539	7209.96	69.9007	7209.96	70.6068	7209.96	68.4483	7209.96	69.1563	7209.96	68.7448	7209.96	67.7316	7209.96	66.0451	7209.96	69.0917	7209.96	60.9542	7209.96	61.6941	7209.96	68.5797	7209.96	67.6255	7209.96	67.0787	7209.96	59.9819	7209.96	54.1279
7464.84	91.1218	7464.84	91.667	7464.84	91.8612	7464.84	91.3868	7464.84	91.6478	7464.84	90.3499	7464.84	89.9754	7464.84	88.1588	7464.84	88.1651	7464.84	86.2366	7464.84	86.2987	7464.84	83.6407	7464.84	84.578	7464.84	82.1207	7464.84	81.5193	7464.84	78.547	7464.84	78.5305	7464.84	76.5943	7464.84	75.3605	7464.84	73.6811	7464.84	73.7783	7464.84	71.6413	7464.84	71.0773	7464.84	69.1297	7464.84	68.6186	7464.84	66.7297	7464.84	66.874	7464.84	63.9527	7464.84	64.6596	7464.84	63.5485	7464.84	64.7837	7464.84	68.8025	7464.84	67.8491	7464.84	66.2725	7464.84	65.8488	7464.84	57.874
7727.05	91.0382	7727.05	91.524	7727.05	91.795	7727.05	91.1876	7727.05	91.5946	7727.05	90.3015	7727.05	89.9979	7727.05	88.0073	7727.05	88.3296	7727.05	86.1414	7727.05	86.2743	7727.05	83.975	7727.05	84.5723	7727.05	82.2029	7727.05	81.5585	7727.05	78.2979	7727.05	79.1217	7727.05	75.6073	7727.05	76.473	7727.05	72.737	7727.05	74.1395	7727.05	70.3299	7727.05	70.9155	7727.05	68.9947	7727.05	66.4713	7727.05	67.9233	7727.05	68.3842	7727.05	65.6471	7727.05	66.043	7727.05	62.5082	7727.05	60.9039	7727.05	69.9596	7727.05	66.9997	7727.05	65.8503	7727.05	62.8356	7727.05	58.8284
7999.51	91.4116	7999.51	91.4001	7999.51	91.864	7999.51	90.8571	7999.51	91.3874	7999.51	89.8011	7999.51	89.8857	7999.51	87.4755	7999.51	88.0929	7999.51	85.9018	7999.51	86.37	7999.51	84.3483	7999.51	84.601	7999.51	81.792	7999.51	81.4213	7999.51	79.0417	7999.51	78.7753	7999.51	76.2675	7999.51	75.0638	7999.51	73.2451	7999.51	73.7102	7999.51	69.4786	7999.51	70.5183	7999.51	65.6951	7999.51	69.4952	7999.51	66.3015	7999.51	67.8363	7999.51	65.028	7999.51	64.5513	7999.51	63.0993	7999.51	63.4755	7999.51	67.737	7999.51	67.736	7999.51	66.2455	7999.51	63.4882	7999.51	56.3304
8282.23	91.9573	8282.23	91.6363	8282.23	92.0105	8282.23	90.5397	8282.23	91.0774	8282.23	89.4098	8282.23	89.4923	8282.23	87.2819	8282.23	87.745	8282.23	85.4759	8282.23	85.744	8282.23	83.9082	8282.23	83.7751	8282.23	81.2557	8282.23	80.5726	8282.23	77.6702	8282.23	78.4018	8282.23	74.0272	8282.23	74.2196	8282.23	71.7859	8282.23	73.1787	8282.23	68.7802	8282.23	68.9871	8282.23	66.5564	8282.23	66.4857	8282.23	64.2151	8282.23	66.6241	8282.23	63.3187	8282.23	65.9286	8282.23	58.7121	8282.23	60.8088	8282.23	65.409	8282.23	64.988	8282.23	63.0414	8282.23	62.9462	8282.23	56.4812
8573.73	92.3708	8573.73	91.8996	8573.73	92.1625	8573.73	90.7547	8573.73	90.9169	8573.73	89.537	8573.73	89.3698	8573.73	87.3779	8573.73	87.4043	8573.73	84.7621	8573.73	84.9544	8573.73	82.6352	8573.73	82.5166	8573.73	79.4245	8573.73	79.4619	8573.73	77.1421	8573.73	76.6794	8573.73	73.487	8573.73	73.2621	8573.73	70.6941	8573.73	72.2104	8573.73	67.738	8573.73	68.1191	8573.73	65.6861	8573.73	65.2835	8573.73	64.0358	8573.73	64.982	8573.73	63.8822	8573.73	62.5941	8573.73	62.0528	8573.73	57.8191	8573.73	67.4225	8573.73	65.1812	8573.73	63.8125	8573.73	59.7889	8573.73	55.2318
8876.95	92.2982	8876.95	91.7932	8876.95	92.0639	8876.95	90.7353	8876.95	90.8257	8876.95	89.7006	8876.95	89.4619	8876.95	87.4173	8876.95	87.1351	8876.95	84.1867	8876.95	84.638	8876.95	82.7908	8876.95	82.3549	8876.95	79.5004	8876.95	79.7978	8876.95	77.076	8876.95	77.4614	8876.95	73.4493	8876.95	73.1537	8876.95	71.654	8876.95	72.3985	8876.95	68.2891	8876.95	68.2318	8876.95	67.2191	8876.95	66.6196	8876.95	64.2367	8876.95	66.8202	8876.95	62.526	8876.95	63.609	8876.95	63.3284	8876.95	58.0451	8876.95	67.4887	8876.95	64.5574	8876.95	61.3436	8876.95	62.8901	8876.95	59.7058
9188.96	91.9675	9188.96	91.3532	9188.96	91.7997	9188.96	90.5029	9188.96	90.8775	9188.96	89.4082	9188.96	89.5909	9188.96	87.0476	9188.96	87.1607	9188.96	84.1707	9188.96	84.7719	9188.96	83.4804	9188.96	82.9418	9188.96	80.3724	9188.96	80.413	9188.96	77.7882	9188.96	77.929	9188.96	73.4914	9188.96	74.0178	9188.96	71.5567	9188.96	72.4702	9188.96	67.9831	9188.96	68.4507	9188.96	65.9264	9188.96	66.8991	9188.96	64.7396	9188.96	64.9487	9188.96	64.8162	9188.96	63.7109	9188.96	63.3856	9188.96	60.6458	9188.96	67.6544	9188.96	64.9504	9188.96	64.3339	9188.96	59.4588	9188.96	55.8102
9514.16	91.3783	9514.16	91.1092	9514.16	91.5502	9514.16	90.67	9514.16	90.9781	9514.16	89.4674	9514.16	89.5745	9514.16	86.8546	9514.16	87.1258	9514.16	84.2482	9514.16	85.0665	9514.16	83.6832	9514.16	83.0978	9514.16	79.8746	9514.16	80.0345	9514.16	76.6367	9514.16	77.019	9514.16	72.8415	9514.16	73.1113	9514.16	70.3813	9514.16	71.1316	9514.16	65.8686	9514.16	66.4532	9514.16	64.7189	9514.16	66.5223	9514.16	64.6315	9514.16	65.4108	9514.16	62.6683	9514.16	63.2616	9514.16	60.6037	9514.16	61.1798	9514.16	67.4132	9514.16	62.0976	9514.16	63.9135	9514.16	58.4489	9514.16	57.8371
9849.61	91.1795	9849.61	91.177	9849.61	91.6112	9849.61	91.0273	9849.61	91.3214	9849.61	89.6906	9849.61	90.0612	9849.61	87.289	9849.61	87.6773	9849.61	84.799	9849.61	85.6926	9849.61	83.7185	9849.61	83.2319	9849.61	78.6511	9849.61	79.9476	9849.61	76.6739	9849.61	76.7074	9849.61	72.0163	9849.61	72.7693	9849.61	69.9697	9849.61	71.1722	9849.61	65.5969	9849.61	67.3893	9849.61	64.7982	9849.61	65.3287	9849.61	63.9643	9849.61	64.8963	9849.61	63.908	9849.61	61.0685	9849.61	61.2647	9849.61	58.0909	9849.61	66.625	9849.61	63.6435	9849.61	63.3126	9849.61	56.5812	9849.61	53.6884
10196.8	91.4196	10196.8	91.6421	10196.8	91.9908	10196.8	91.4742	10196.8	91.7568	10196.8	89.7029	10196.8	90.4064	10196.8	87.4181	10196.8	87.8525	10196.8	84.7887	10196.8	85.507	10196.8	83.5194	10196.8	82.8788	10196.8	78.2595	10196.8	79.4118	10196.8	75.7445	10196.8	76.5271	10196.8	71.3016	10196.8	73.1654	10196.8	69.775	10196.8	70.3679	10196.8	64.8238	10196.8	65.1569	10196.8	66.6006	10196.8	65.5488	10196.8	63.898	10196.8	68.5495	10196.8	63.5952	10196.8	63.1406	10196.8	60.1857	10196.8	54.7148	10196.8	65.8226	10196.8	61.6326	10196.8	63.1842	10196.8	51.428	10196.8	58.8197
10555.7	89.9713	10555.7	90.9479	10555.7	91.3703	10555.7	91.3351	10555.7	91.6085	10555.7	89.8128	10555.7	90.2144	10555.7	87.8104	10555.7	88.1093	10555.7	85.0571	10555.7	85.8683	10555.7	83.2375	10555.7	82.5363	10555.7	77.6581	10555.7	79.3595	10555.7	76.5831	10555.7	76.5978	10555.7	72.1575	10555.7	73.4552	10555.7	70.2071	10555.7	70.8248	10555.7	64.8424	10555.7	67.5752	10555.7	66.5576	10555.7	67.2735	10555.7	60.9114	10555.7	56.2894	10555.7	63.5167	10555.7	58.7118	10555.7	63.2678	10555.7	58.7289	10555.7	67.1528	10555.7	61.9472	10555.7	61.047	10555.7	58.9963	10555.7	57.0238
10927.7	90.3208	10927.7	90.9039	10927.7	91.2042	10927.7	91.1024	10927.7	91.4766	10927.7	89.8746	10927.7	90.2419	10927.7	88.0869	10927.7	88.308	10927.7	84.4467	10927.7	85.6341	10927.7	83.0941	10927.7	82.136	10927.7	77.6685	10927.7	79.4434	10927.7	76.9847	10927.7	76.7626	10927.7	71.609	10927.7	73.4733	10927.7	70.1276	10927.7	69.961	10927.7	65.202	10927.7	67.817	10927.7	65.7803	10927.7	65.7953	10927.7	65.3721	10927.7	63.0029	10927.7	62.4133	10927.7	58.3378	10927.7	62.5136	10927.7	57.5857	10927.7	67.7185	10927.7	61.8914	10927.7	60.254	10927.7	58.0159	10927.7	59.2918
11313	91.326	11313	91.4253	11313	91.5809	11313	90.8743	11313	91.4091	11313	89.5727	11313	90.2016	11313	87.8663	11313	88.1341	11313	83.8072	11313	84.918	11313	83.0919	11313	81.3399	11313	77.6098	11313	78.8076	11313	76.4893	11313	75.9013	11313	71.576	11313	72.2712	11313	69.5919	11313	69.141	11313	65.9205	11313	65.6761	11313	65.2391	11313	64.146	11313	63.8812	11313	61.431	11313	63.1957	11313	57.5592	11313	62.3462	11313	56.2307	11313	66.9954	11313	59.5104	11313	63.0067	11313	58.53	11313	54.5592
11712.9	92.0848	11712.9	91.8604	11712.9	91.7462	11712.9	91.2357	11712.9	91.4045	11712.9	89.7454	11712.9	90.0684	11712.9	87.5713	11712.9	87.7274	11712.9	83.4466	11712.9	84.1681	11712.9	82.7387	11712.9	80.9977	11712.9	77.4205	11712.9	78.5179	11712.9	76.1238	11712.9	75.2778	11712.9	71.6883	11712.9	72.3434	11712.9	69.2034	11712.9	68.494	11712.9	64.6232	11712.9	66.1867	11712.9	65.5984	11712.9	63.762	11712.9	64.7854	11712.9	61.5786	11712.9	61.8418	11712.9	58.1956	11712.9	63.0301	11712.9	55.6934	11712.9	66.4009	11712.9	59.8493	11712.9	59.6803	11712.9	59.4874	11712.9	59.925
12126	92.7285	12126	92.206	12126	92.2166	12126	91.3389	12126	91.7919	12126	89.7719	12126	90.3567	12126	87.5929	12126	87.9916	12126	84.2113	12126	84.8372	12126	83.683	12126	81.6071	12126	78.1497	12126	79.1471	12126	76.9633	12126	75.674	12126	72.5377	12126	72.6468	12126	70.1031	12126	68.8364	12126	65.6579	12126	67.4285	12126	65.0694	12126	63.6599	12126	65.4392	12126	62.0975	12126	63.1924	12126	56.1834	12126	64.4641	12126	58.8282	12126	68.0276	12126	55.4485	12126	61.8897	12126	55.4167	12126	56.0984
12553.7	92.972	12553.7	92.5256	12553.7	92.4291	12553.7	91.5959	12553.7	92.1003	12553.7	90.3336	12553.7	90.7395	12553.7	88.1192	12553.7	88.5811	12553.7	85.1063	12553.7	85.6553	12553.7	84.1021	12553.7	81.9612	12553.7	78.7721	12553.7	79.818	12553.7	77.3746	12553.7	76.3097	12553.7	72.4472	12553.7	73.2027	12553.7	70.6235	12553.7	68.5473	12553.7	66.8318	12553.7	67.1099	12553.7	65.9864	12553.7	63.4287	12553.7	65.1848	12553.7	59.8328	12553.7	63.62	12553.7	56.042	12553.7	63.8884	12553.7	58.385	12553.7	68.0011	12553.7	53.4632	12553.7	60.0594	12553.7	59.3888	12553.7	59.4457
12996.1	92.9992	12996.1	92.6426	12996.1	92.49	12996.1	91.7585	12996.1	92.1881	12996.1	90.5511	12996.1	90.9186	12996.1	88.2546	12996.1	88.6314	12996.1	85.3036	12996.1	85.7491	12996.1	84.2508	12996.1	82.0584	12996.1	78.6001	12996.1	79.9687	12996.1	77.1184	12996.1	76.5477	12996.1	72.4869	12996.1	73.4632	12996.1	69.2338	12996.1	68.7007	12996.1	66.0957	12996.1	67.4887	12996.1	66.8307	12996.1	60.7273	12996.1	65.2287	12996.1	61.2123	12996.1	64.6648	12996.1	54.188	12996.1	63.7048	12996.1	56.9366	12996.1	67.401	12996.1	54.8813	12996.1	58.0311	12996.1	57.3751	12996.1	62.4378
13454.6	92.8781	13454.6	92.5113	13454.6	92.4676	13454.6	91.5111	13454.6	92.1523	13454.6	90.4344	13454.6	90.8278	13454.6	87.9558	13454.6	88.431	13454.6	85.1258	13454.6	85.5347	13454.6	84.0209	13454.6	81.9904	13454.6	78.7651	13454.6	80.1114	13454.6	77.4033	13454.6	76.0241	13454.6	73.3401	13454.6	73.53	13454.6	69.5004	13454.6	69.44	13454.6	66.5841	13454.6	67.17	13454.6	66.9171	13454.6	60.4754	13454.6	65.3436	13454.6	59.5531	13454.6	63.8684	13454.6	51.6096	13454.6	64.4008	13454.6	59.5799	13454.6	67.2715	13454.6	49.1597	13454.6	59.9339	13454.6	59.0384	13454.6	62.4269
13929.2	92.4871	13929.2	92.1116	13929.2	92.2286	13929.2	91.452	13929.2	92.1328	13929.2	90.5742	13929.2	90.8132	13929.2	87.858	13929.2	88.3232	13929.2	85.4159	13929.2	85.8098	13929.2	84.2389	13929.2	82.3063	13929.2	78.9665	13929.2	80.3539	13929.2	77.4005	13929.2	76.1617	13929.2	73.9479	13929.2	73.6952	13929.2	69.9837	13929.2	69.1942	13929.2	67.6756	13929.2	67.5727	13929.2	66.9376	13929.2	62.2147	13929.2	66.2271	13929.2	59.2944	13929.2	62.3025	13929.2	49.8974	13929.2	63.7484	13929.2	59.2241	13929.2	66.6583	13929.2	46.0704	13929.2	53.925	13929.2	59.0531	13929.2	63.0226
14419.9	92.4841	14419.9	91.8668	14419.9	92.0166	14419.9	91.419	14419.9	91.9376	14419.9	90.2867	14419.9	90.4407	14419.9	87.5925	14419.9	88.2055	14419.9	85.5477	14419.9	86.2495	14419.9	84.0488	14419.9	82.4748	14419.9	79.5867	14419.9	80.5808	14419.9	77.4079	14419.9	76.1163	14419.9	74.1895	14419.9	73.7152	14419.9	69.2814	14419.9	69.7659	14419.9	67.3593	14419.9	67.6106	14419.9	66.9144	14419.9	60.5766	14419.9	64.65	14419.9	60.8092	14419.9	61.2037	14419.9	46.1986	14419.9	64.4289	14419.9	61.8474	14419.9	66.7915	14419.9	43.1974	14419.9	55.9539	14419.9	62.2527	14419.9	62.949
14928.2	93.6188	14928.2	92.505	14928.2	92.4421	14928.2	91.8569	14928.2	92.151	14928.2	90.2081	14928.2	90.3376	14928.2	87.5028	14928.2	88.4886	14928.2	85.5031	14928.2	86.5372	14928.2	83.7434	14928.2	82.1711	14928.2	79.0459	14928.2	80.1251	14928.2	76.8292	14928.2	75.5635	14928.2	73.8022	14928.2	73.2865	14928.2	68.6972	14928.2	69.7187	14928.2	66.7146	14928.2	67.1039	14928.2	65.6519	14928.2	56.4756	14928.2	63.7492	14928.2	58.5826	14928.2	61.7762	14928.2	46.2443	14928.2	64.6673	14928.2	60.6598	14928.2	64.6809	14928.2	41.2011	14928.2	58.4125	14928.2	60.0957	14928.2	61.0607
15455.6	94.2747	15455.6	92.542	15455.6	92.5456	15455.6	91.8286	15455.6	92.2728	15455.6	89.6535	15455.6	90.0499	15455.6	87.2483	15455.6	88.6563	15455.6	85.1614	15455.6	86.529	15455.6	83.6828	15455.6	81.856	15455.6	79.1201	15455.6	80.055	15455.6	76.3598	15455.6	75.1705	15455.6	73.9217	15455.6	72.8298	15455.6	67.7472	15455.6	69.626	15455.6	66.3982	15455.6	65.6326	15455.6	65.2163	15455.6	48.6173	15455.6	62.1159	15455.6	51.342	15455.6	61.952	15455.6	54.5569	15455.6	64.6391	15455.6	62.364	15455.6	64.7466	15455.6	39.4256	15455.6	56.7867	15455.6	59.8415	15455.6	63.0748
16000.5	94.224	16000.5	92.2188	16000.5	92.3219	16000.5	91.4264	16000.5	92.4906	16000.5	89.4165	16000.5	90.0892	16000.5	87.1798	16000.5	88.7958	16000.5	85.105	16000.5	86.4691	16000.5	83.386	16000.5	81.3499	16000.5	79.1779	16000.5	79.7501	16000.5	75.5904	16000.5	74.2371	16000.5	73.8392	16000.5	72.3078	16000.5	67.2619	16000.5	69.2566	16000.5	66.7565	16000.5	64.4058	16000.5	65.0705	16000.5	43.1317	16000.5	62.5916	16000.5	53.5262	16000.5	60.7203	16000.5	57.8629	16000.5	64.5319	16000.5	60.9294	16000.5	64.4872	16000.5	53.4674	16000.5	59.2947	16000.5	61.7858	16000.5	57.1047
16564.5	93.6329	16564.5	91.5485	16564.5	91.8015	16564.5	90.6157	16564.5	92.3803	16564.5	89.0728	16564.5	89.9951	16564.5	86.9312	16564.5	88.7339	16564.5	85.2769	16564.5	86.5699	16564.5	83.1747	16564.5	81.2169	16564.5	79.4979	16564.5	79.4155	16564.5	74.967	16564.5	73.6128	16564.5	74.1325	16564.5	72.3039	16564.5	65.5848	16564.5	68.989	16564.5	66.5714	16564.5	62.5947	16564.5	64.9545	16564.5	51.9674	16564.5	62.6824	16564.5	51.2157	16564.5	59.8371	16564.5	59.5524	16564.5	64.5728	16564.5	61.3207	16564.5	61.9538	16564.5	52.4534	16564.5	58.0302	16564.5	62.3001	16564.5	55.3446
17148.9	92.7086	17148.9	90.6813	17148.9	91.2462	17148.9	89.6662	17148.9	92.083	17148.9	88.9835	17148.9	90.049	17148.9	87.3221	17148.9	88.6351	17148.9	85.8563	17148.9	86.812	17148.9	83.3887	17148.9	81.6061	17148.9	80.0522	17148.9	79.3239	17148.9	74.3242	17148.9	73.6257	17148.9	74.6919	17148.9	72.3626	17148.9	64.7341	17148.9	69.2203	17148.9	66.7883	17148.9	61.1571	17148.9	64.5333	17148.9	55.5541	17148.9	62.2005	17148.9	48.6898	17148.9	60.293	17148.9	59.4235	17148.9	64.3982	17148.9	60.8935	17148.9	60.7744	17148.9	56.1067	17148.9	57.9939	17148.9	60.9759	17148.9	55.0278
17752.4	91.9119	17752.4	89.8797	17752.4	90.9263	17752.4	88.9536	17752.4	91.7503	17752.4	88.7611	17752.4	89.9189	17752.4	87.5344	17752.4	88.5641	17752.4	86.3662	17752.4	86.9366	17752.4	83.6208	17752.4	81.5427	17752.4	80.404	17752.4	78.8995	17752.4	74.285	17752.4	74.0938	17752.4	75.1796	17752.4	72.8787	17752.4	64.9887	17752.4	69.694	17752.4	67.4891	17752.4	60.5076	17752.4	64.9632	17752.4	57.6123	17752.4	61.9566	17752.4	45.5473	17752.4	61.8093	17752.4	61.0571	17752.4	64.6613	17752.4	56.0642	17752.4	60.9434	17752.4	53.649	17752.4	56.3884	17752.4	59.6175	17752.4	40.7086
18379.4	91.1401	18379.4	89.1141	18379.4	90.224	18379.4	88.6022	18379.4	91.055	18379.4	89.0574	18379.4	89.0729	18379.4	87.6221	18379.4	87.8519	18379.4	86.3082	18379.4	86.4542	18379.4	82.9624	18379.4	80.5396	18379.4	80.1361	18379.4	78.3328	18379.4	73.3728	18379.4	73.8857	18379.4	74.6083	18379.4	72.3108	18379.4	63.5625	18379.4	68.951	18379.4	67.2487	18379.4	58.9979	18379.4	64.3097	18379.4	58.4246	18379.4	61.0634	18379.4	34.9118	18379.4	62.3455	18379.4	61.3196	18379.4	64.829	18379.4	54.579	18379.4	62.7046	18379.4	54.9281	18379.4	53.8361	18379.4	57.9352	18379.4	43.5114
19026.9	89.8679	19026.9	88.5433	19026.9	88.794	19026.9	89.0677	19026.9	89.847	19026.9	89.9939	19026.9	88.1675	19026.9	87.681	19026.9	86.7946	19026.9	85.5027	19026.9	85.6654	19026.9	81.3595	19026.9	79.532	19026.9	78.9335	19026.9	77.2964	19026.9	70.2902	19026.9	72.645	19026.9	72.8638	19026.9	70.6767	19026.9	59.5789	19026.9	68.3105	19026.9	65.9063	19026.9	56.4366	19026.9	62.4438	19026.9	58.3236	19026.9	60.0098	19026.9	26.6917	19026.9	62.379	19026.9	60.4076	19026.9	63.9762	19026.9	53.2345	19026.9	62.988	19026.9	53.5049	19026.9	55.6376	19026.9	56.2672	19026.9	43.2766
19697.8	88.6829	19697.8	88.8114	19697.8	87.6348	19697.8	89.6535	19697.8	89.0082	19697.8	90.4382	19697.8	87.7465	19697.8	87.4692	19697.8	86.1846	19697.8	84.5113	19697.8	85.0158	19697.8	79.09	19697.8	79.1856	19697.8	77.6911	19697.8	75.7859	19697.8	67.7062	19697.8	71.1203	19697.8	71.7401	19697.8	69.1305	19697.8	61.3159	19697.8	67.2411	19697.8	65.0628	19697.8	53.3756	19697.8	61.4371	19697.8	60.0762	19697.8	59.0022	19697.8	43.2151	19697.8	60.4165	19697.8	61.9917	19697.8	63.7486	19697.8	53.7957	19697.8	62.3338	19697.8	54.1792	19697.8	54.5662	19697.8	58.5051	19697.8	46.4188
19999.5	88.2931	19999.5	88.9081	19999.5	87.1109	19999.5	89.8279	19999.5	88.6175	19999.5	90.4176	19999.5	87.4999	19999.5	87.3785	19999.5	86.1396	19999.5	84.817	19999.5	84.9678	19999.5	78.1705	19999.5	79.0962	19999.5	77.6785	19999.5	74.183	19999.5	69.3329	19999.5	70.3143	19999.5	70.5133	19999.5	67.4917	19999.5	63.6341	19999.5	68.8351	19999.5	65.0889	19999.5	58.6689	19999.5	63.2057	19999.5	59.1983	19999.5	64.1091	19999.5	56.9419	19999.5	60.5745	19999.5	66.3819	19999.5	67.7141	19999.5	60.9133	19999.5	48.8803	19999.5	58.9791	19999.5	59.7872	19999.5	61.2025	19999.5	49.8467
