"SPL Vertical"
"On-Axis"		"10°"		"-10°"		"20°"		"-20°"		"30°"		"-30°"		"40°"		"-40°"		"50°"		"-50°"		"60°"		"-60°"		"70°"		"-70°"		"80°"		"-80°"		"90°"		"-90°"		"100°"		"-100°"		"110°"		"-110°"		"120°"		"-120°"		"130°"		"-130°"		"140°"		"-140°"		"150°"		"-150°"		"160°"		"-160°"		"170°"		"-170°"		"180°"
"Frequency / Hz"	"Sound Pressure Level / dB (re 20 µPa/V)  [2.83  V @ 1. m]"	"Frequency / Hz"	"Sound Pressure Level / dB (re 20 µPa/V)  [2.83  V @ 1. m]"	"Frequency / Hz"	"Sound Pressure Level / dB (re 20 µPa/V)  [2.83  V @ 1. m]"	"Frequency / Hz"	"Sound Pressure Level / dB (re 20 µPa/V)  [2.83  V @ 1. m]"	"Frequency / Hz"	"Sound Pressure Level / dB (re 20 µPa/V)  [2.83  V @ 1. m]"	"Frequency / Hz"	"Sound Pressure Level / dB (re 20 µPa/V)  [2.83  V @ 1. m]"	"Frequency / Hz"	"Sound Pressure Level / dB (re 20 µPa/V)  [2.83  V @ 1. m]"	"Frequency / Hz"	"Sound Pressure Level / dB (re 20 µPa/V)  [2.83  V @ 1. m]"	"Frequency / Hz"	"Sound Pressure Level / dB (re 20 µPa/V)  [2.83  V @ 1. m]"	"Frequency / Hz"	"Sound Pressure Level / dB (re 20 µPa/V)  [2.83  V @ 1. m]"	"Frequency / Hz"	"Sound Pressure Level / dB (re 20 µPa/V)  [2.83  V @ 1. m]"	"Frequency / Hz"	"Sound Pressure Level / dB (re 20 µPa/V)  [2.83  V @ 1. m]"	"Frequency / Hz"	"Sound Pressure Level / dB (re 20 µPa/V)  [2.83  V @ 1. m]"	"Frequency / Hz"	"Sound Pressure Level / dB (re 20 µPa/V)  [2.83  V @ 1. m]"	"Frequency / Hz"	"Sound Pressure Level / dB (re 20 µPa/V)  [2.83  V @ 1. m]"	"Frequency / Hz"	"Sound Pressure Level / dB (re 20 µPa/V)  [2.83  V @ 1. m]"	"Frequency / Hz"	"Sound Pressure Level / dB (re 20 µPa/V)  [2.83  V @ 1. m]"	"Frequency / Hz"	"Sound Pressure Level / dB (re 20 µPa/V)  [2.83  V @ 1. m]"	"Frequency / Hz"	"Sound Pressure Level / dB (re 20 µPa/V)  [2.83  V @ 1. m]"	"Frequency / Hz"	"Sound Pressure Level / dB (re 20 µPa/V)  [2.83  V @ 1. m]"	"Frequency / Hz"	"Sound Pressure Level / dB (re 20 µPa/V)  [2.83  V @ 1. m]"	"Frequency / Hz"	"Sound Pressure Level / dB (re 20 µPa/V)  [2.83  V @ 1. m]"	"Frequency / Hz"	"Sound Pressure Level / dB (re 20 µPa/V)  [2.83  V @ 1. m]"	"Frequency / Hz"	"Sound Pressure Level / dB (re 20 µPa/V)  [2.83  V @ 1. m]"	"Frequency / Hz"	"Sound Pressure Level / dB (re 20 µPa/V)  [2.83  V @ 1. m]"	"Frequency / Hz"	"Sound Pressure Level / dB (re 20 µPa/V)  [2.83  V @ 1. m]"	"Frequency / Hz"	"Sound Pressure Level / dB (re 20 µPa/V)  [2.83  V @ 1. m]"	"Frequency / Hz"	"Sound Pressure Level / dB (re 20 µPa/V)  [2.83  V @ 1. m]"	"Frequency / Hz"	"Sound Pressure Level / dB (re 20 µPa/V)  [2.83  V @ 1. m]"	"Frequency / Hz"	"Sound Pressure Level / dB (re 20 µPa/V)  [2.83  V @ 1. m]"	"Frequency / Hz"	"Sound Pressure Level / dB (re 20 µPa/V)  [2.83  V @ 1. m]"	"Frequency / Hz"	"Sound Pressure Level / dB (re 20 µPa/V)  [2.83  V @ 1. m]"	"Frequency / Hz"	"Sound Pressure Level / dB (re 20 µPa/V)  [2.83  V @ 1. m]"	"Frequency / Hz"	"Sound Pressure Level / dB (re 20 µPa/V)  [2.83  V @ 1. m]"	"Frequency / Hz"	"Sound Pressure Level / dB (re 20 µPa/V)  [2.83  V @ 1. m]"	"Frequency / Hz"	"Sound Pressure Level / dB (re 20 µPa/V)  [2.83  V @ 1. m]"
20.5078	42.3529	20.5078	41.5947	20.5078	43.2205	20.5078	40.9785	20.5078	44.1412	20.5078	40.5121	20.5078	45.0498	20.5078	40.1898	20.5078	45.8888	20.5078	40.0048	20.5078	46.6187	20.5078	39.9535	20.5078	47.2187	20.5078	40.0336	20.5078	47.6836	20.5078	40.2407	20.5078	48.0189	20.5078	40.5674	20.5078	48.2364	20.5078	41.0043	20.5078	48.351	20.5078	41.541	20.5078	48.3781	20.5078	42.1651	20.5078	48.3304	20.5078	42.8604	20.5078	48.2151	20.5078	43.6042	20.5078	48.0321	20.5078	44.3678	20.5078	47.7743	20.5078	45.1181	20.5078	47.4306	20.5078	45.8223	20.5078	46.9912	20.5078	46.4528
21.9727	43.9918	21.9727	43.3304	21.9727	44.6738	21.9727	42.729	21.9727	45.3448	21.9727	42.2321	21.9727	45.9805	21.9727	41.8805	21.9727	46.5626	21.9727	41.6999	21.9727	47.0777	21.9727	41.692	21.9727	47.5161	21.9727	41.8364	21.9727	47.8717	21.9727	42.1001	21.9727	48.1415	21.9727	42.4503	21.9727	48.3261	21.9727	42.8613	21.9727	48.4291	21.9727	43.3166	21.9727	48.4566	21.9727	43.8061	21.9727	48.4158	21.9727	44.3222	21.9727	48.3128	21.9727	44.8564	21.9727	48.1508	21.9727	45.3968	21.9727	47.9299	21.9727	45.9281	21.9727	47.6477	21.9727	46.433	21.9727	47.3023	21.9727	46.8951
23.4375	36.767	23.4375	37.8909	23.4375	35.4605	23.4375	38.7725	23.4375	34.227	23.4375	39.4251	23.4375	33.6037	23.4375	39.88	23.4375	33.9872	23.4375	40.1676	23.4375	35.0493	23.4375	40.3115	23.4375	36.1999	23.4375	40.3274	23.4375	37.1103	23.4375	40.223	23.4375	37.6723	23.4375	39.9986	23.4375	37.8669	23.4375	39.6476	23.4375	37.7006	23.4375	39.1566	23.4375	37.1832	23.4375	38.5048	23.4375	36.3187	23.4375	37.663	23.4375	35.102	23.4375	36.593	23.4375	33.5262	23.4375	35.2486	23.4375	31.6352	23.4375	33.588	23.4375	29.7382	23.4375	31.635	23.4375	28.8071	23.4375	29.708
24.9023	36.6838	24.9023	38.2266	24.9023	34.606	24.9023	39.3882	24.9023	31.7261	24.9023	40.2627	24.9023	27.6153	24.9023	40.9108	24.9023	23.1186	24.9023	41.3723	24.9023	25.203	24.9023	41.6731	24.9023	29.1988	24.9023	41.8291	24.9023	31.8296	24.9023	41.8487	24.9023	33.4595	24.9023	41.7345	24.9023	34.4175	24.9023	41.4848	24.9023	34.904	24.9023	41.0955	24.9023	35.0613	24.9023	40.562	24.9023	35.007	24.9023	39.8829	24.9023	34.8453	24.9023	39.0663	24.9023	34.6683	24.9023	38.1384	24.9023	34.5587	24.9023	37.1549	24.9023	34.5989	24.9023	36.2081	24.9023	34.8686	24.9023	35.414
26.3672	39.2758	26.3672	39.7757	26.3672	38.9239	26.3672	40.3259	26.3672	38.8152	26.3672	40.8568	26.3672	38.9868	26.3672	41.3283	26.3672	39.3843	26.3672	41.7216	26.3672	39.8901	26.3672	42.0296	26.3672	40.3813	26.3672	42.251	26.3672	40.7658	26.3672	42.3865	26.3672	40.9895	26.3672	42.4372	26.3672	41.0308	26.3672	42.4041	26.3672	40.8949	26.3672	42.2878	26.3672	40.6115	26.3672	42.0898	26.3672	40.2335	26.3672	41.8136	26.3672	39.8342	26.3672	41.4666	26.3672	39.4982	26.3672	41.0618	26.3672	39.3009	26.3672	40.6207	26.3672	39.2865	26.3672	40.1752	26.3672	39.4547	26.3672	39.7688
27.832	44.7854	27.832	45.1389	27.832	44.4178	27.832	45.4387	27.832	44.0931	27.832	45.6627	27.832	43.8741	27.832	45.8007	27.832	43.8036	27.832	45.8498	27.832	43.8797	27.832	45.8094	27.832	44.0541	27.832	45.6796	27.832	44.2549	27.832	45.4599	27.832	44.4153	27.832	45.1489	27.832	44.488	27.832	44.746	27.832	44.4483	27.832	44.253	27.832	44.2893	27.832	43.6791	27.832	44.017	27.832	43.0471	27.832	43.6451	27.832	42.4031	27.832	43.1923	27.832	41.823	27.832	42.6847	27.832	41.4058	27.832	42.1621	27.832	41.2387	27.832	41.6876	27.832	41.3491
29.2969	44.9279	29.2969	45.0172	29.2969	44.8993	29.2969	45.1552	29.2969	44.9313	29.2969	45.3222	29.2969	45.0089	29.2969	45.4957	29.2969	45.104	29.2969	45.6542	29.2969	45.1791	29.2969	45.7785	29.2969	45.1932	29.2969	45.8523	29.2969	45.1069	29.2969	45.8613	29.2969	44.8854	29.2969	45.7927	29.2969	44.5018	29.2969	45.6342	29.2969	43.9383	29.2969	45.3732	29.2969	43.1899	29.2969	44.9968	29.2969	42.2709	29.2969	44.492	29.2969	41.2313	29.2969	43.8473	29.2969	40.1878	29.2969	43.0565	29.2969	39.3575	29.2969	42.1282	29.2969	39.0163	29.2969	41.1041	29.2969	39.3069	29.2969	40.0932
30.7617	44.0233	30.7617	43.9508	30.7617	44.2893	30.7617	44.0547	30.7617	44.7174	30.7617	44.2821	30.7617	45.2415	30.7617	44.5691	30.7617	45.7861	30.7617	44.8611	30.7617	46.2862	30.7617	45.1197	30.7617	46.6941	30.7617	45.3218	30.7617	46.9794	30.7617	45.4552	30.7617	47.1263	30.7617	45.5153	30.7617	47.1309	30.7617	45.5027	30.7617	47.0005	30.7617	45.4223	30.7617	46.7524	30.7617	45.2835	30.7617	46.4129	30.7617	45.1011	30.7617	46.0154	30.7617	44.8968	30.7617	45.5984	30.7617	44.6991	30.7617	45.2018	30.7617	44.5419	30.7617	44.8638	30.7617	44.4598	30.7617	44.6165	30.7617	44.4803
32.2266	47.1885	32.2266	47.6914	32.2266	46.7318	32.2266	48.193	32.2266	46.3717	32.2266	48.6581	32.2266	46.1426	32.2266	49.0646	32.2266	46.0455	32.2266	49.4008	32.2266	46.0448	32.2266	49.661	32.2266	46.084	32.2266	49.8433	32.2266	46.1062	32.2266	49.9471	32.2266	46.0699	32.2266	49.9719	32.2266	45.9557	32.2266	49.9172	32.2266	45.7687	32.2266	49.7819	32.2266	45.5385	32.2266	49.5648	32.2266	45.317	32.2266	49.2653	32.2266	45.1702	32.2266	48.884	32.2266	45.1618	32.2266	48.4252	32.2266	45.3308	32.2266	47.8986	32.2266	45.6765	32.2266	47.3229	32.2266	46.1613	32.2266	46.7289
33.6914	49.2415	33.6914	49.5109	33.6914	49.0314	33.6914	49.8106	33.6914	48.902	33.6914	50.1117	33.6914	48.8586	33.6914	50.3904	33.6914	48.8869	33.6914	50.6295	33.6914	48.9565	33.6914	50.8172	33.6914	49.0304	33.6914	50.9466	33.6914	49.074	33.6914	51.0134	33.6914	49.0616	33.6914	51.0154	33.6914	48.9808	33.6914	50.9515	33.6914	48.833	33.6914	50.8217	33.6914	48.6343	33.6914	50.627	33.6914	48.4136	33.6914	50.3703	33.6914	48.2095	33.6914	50.0574	33.6914	48.064	33.6914	49.699	33.6914	48.0145	33.6914	49.3125	33.6914	48.0838	33.6914	48.9232	33.6914	48.2736	33.6914	48.5644
35.1562	50.5248	35.1562	50.865	35.1562	50.211	35.1562	51.2051	35.1562	49.9498	35.1562	51.5224	35.1562	49.7595	35.1562	51.8001	35.1562	49.6434	35.1562	52.027	35.1562	49.588	35.1562	52.1961	35.1562	49.5666	35.1562	52.3033	35.1562	49.5483	35.1562	52.3465	35.1562	49.5068	35.1562	52.3249	35.1562	49.4264	35.1562	52.2383	35.1562	49.3063	35.1562	52.0876	35.1562	49.1603	35.1562	51.8744	35.1562	49.0153	35.1562	51.6021	35.1562	48.9061	35.1562	51.2764	35.1562	48.868	35.1562	50.9066	35.1562	48.9274	35.1562	50.5073	35.1562	49.0947	35.1562	50.0985	35.1562	49.3619	35.1562	49.7065
36.6211	52.1575	36.6211	52.3371	36.6211	52.0281	36.6211	52.546	36.6211	51.963	36.6211	52.7618	36.6211	51.9638	36.6211	52.9642	36.6211	52.0188	36.6211	53.1374	36.6211	52.1047	36.6211	53.2697	36.6211	52.193	36.6211	53.3532	36.6211	52.256	36.6211	53.3828	36.6211	52.2719	36.6211	53.3559	36.6211	52.2275	36.6211	53.2714	36.6211	52.12	36.6211	53.1303	36.6211	51.957	36.6211	52.9354	36.6211	51.7559	36.6211	52.6928	36.6211	51.5425	36.6211	52.4126	36.6211	51.3481	36.6211	52.1103	36.6211	51.2057	36.6211	51.8077	36.6211	51.1439	36.6211	51.5323	36.6211	51.1797	36.6211	51.3142
38.0859	54.5217	38.0859	54.745	38.0859	54.3221	38.0859	54.9785	38.0859	54.1558	38.0859	55.2075	38.0859	54.0255	38.0859	55.4188	38.0859	53.926	38.0859	55.6015	38.0859	53.8446	38.0859	55.7472	38.0859	53.7647	38.0859	55.85	38.0859	53.6696	38.0859	55.9055	38.0859	53.5473	38.0859	55.9108	38.0859	53.3943	38.0859	55.8638	38.0859	53.218	38.0859	55.7631	38.0859	53.0381	38.0859	55.6082	38.0859	52.8844	38.0859	55.3997	38.0859	52.7914	38.0859	55.1395	38.0859	52.7891	38.0859	54.8327	38.0859	52.8941	38.0859	54.4878	38.0859	53.1035	38.0859	54.1188	38.0859	53.3975	38.0859	53.7464
39.5508	55.1819	39.5508	55.3762	39.5508	55.0244	39.5508	55.5909	39.5508	54.9157	39.5508	55.809	39.5508	54.8602	39.5508	56.0156	39.5508	54.8522	39.5508	56.199	39.5508	54.8778	39.5508	56.3511	39.5508	54.9178	39.5508	56.4665	39.5508	54.9532	39.5508	56.5421	39.5508	54.9692	39.5508	56.5765	39.5508	54.9587	39.5508	56.5694	39.5508	54.9236	39.5508	56.5214	39.5508	54.875	39.5508	56.4342	39.5508	54.8298	39.5508	56.3105	39.5508	54.8072	39.5508	56.1541	39.5508	54.8236	39.5508	55.9708	39.5508	54.8884	39.5508	55.7686	39.5508	55.003	39.5508	55.5576	39.5508	55.1608	39.5508	55.3503
41.0156	56.7842	41.0156	57.091	41.0156	56.4909	41.0156	57.3942	41.0156	56.2279	41.0156	57.6792	41.0156	56.0088	41.0156	57.9345	41.0156	55.8408	41.0156	58.1523	41.0156	55.7229	41.0156	58.3278	41.0156	55.6467	41.0156	58.4585	41.0156	55.6	41.0156	58.5432	41.0156	55.5717	41.0156	58.582	41.0156	55.5563	41.0156	58.5752	41.0156	55.5565	41.0156	58.5235	41.0156	55.5822	41.0156	58.4276	41.0156	55.6476	41.0156	58.2885	41.0156	55.7649	41.0156	58.1075	41.0156	55.9395	41.0156	57.8873	41.0156	56.1681	41.0156	57.6319	41.0156	56.4394	41.0156	57.3482	41.0156	56.7377	41.0156	57.0458
42.4805	60.2297	42.4805	60.3396	42.4805	60.122	42.4805	60.4439	42.4805	60.0237	42.4805	60.5354	42.4805	59.94	42.4805	60.6082	42.4805	59.8729	42.4805	60.658	42.4805	59.8205	42.4805	60.6822	42.4805	59.778	42.4805	60.6792	42.4805	59.7392	42.4805	60.6491	42.4805	59.6981	42.4805	60.5928	42.4805	59.6512	42.4805	60.5125	42.4805	59.5982	42.4805	60.4113	42.4805	59.5421	42.4805	60.2932	42.4805	59.4887	42.4805	60.1633	42.4805	59.4447	42.4805	60.0272	42.4805	59.417	42.4805	59.8914	42.4805	59.411	42.4805	59.7625	42.4805	59.4305	42.4805	59.6468	42.4805	59.4772	42.4805	59.5502
43.9453	59.5219	43.9453	59.5929	43.9453	59.4536	43.9453	59.6603	43.9453	59.3927	43.9453	59.7172	43.9453	59.3411	43.9453	59.7568	43.9453	59.2974	43.9453	59.7729	43.9453	59.2563	43.9453	59.7607	43.9453	59.2101	43.9453	59.7163	43.9453	59.1498	43.9453	59.6374	43.9453	59.0677	43.9453	59.5232	43.9453	58.9589	43.9453	59.3748	43.9453	58.823	43.9453	59.1952	43.9453	58.6647	43.9453	58.9901	43.9453	58.4926	43.9453	58.7683	43.9453	58.3188	43.9453	58.5419	43.9453	58.157	43.9453	58.3264	43.9453	58.022	43.9453	58.1388	43.9453	57.9282	43.9453	57.9959	43.9453	57.8883	43.9453	57.9103
45.4102	60.6794	45.4102	60.7472	45.4102	60.6193	45.4102	60.8183	45.4102	60.5692	45.4102	60.8869	45.4102	60.5288	45.4102	60.9468	45.4102	60.4947	45.4102	60.9923	45.4102	60.4608	45.4102	61.0182	45.4102	60.4191	45.4102	61.0202	45.4102	60.3611	45.4102	60.9953	45.4102	60.2799	45.4102	60.9411	45.4102	60.1722	45.4102	60.8566	45.4102	60.0393	45.4102	60.7416	45.4102	59.8886	45.4102	60.5976	45.4102	59.7322	45.4102	60.428	45.4102	59.586	45.4102	60.2388	45.4102	59.4674	45.4102	60.0391	45.4102	59.3925	45.4102	59.8414	45.4102	59.373	45.4102	59.6608	45.4102	59.4143	45.4102	59.5135
46.875	61.0906	46.875	61.1395	46.875	61.0614	46.875	61.2042	46.875	61.0527	46.875	61.279	46.875	61.0619	46.875	61.3571	46.875	61.0829	46.875	61.4318	46.875	61.107	46.875	61.4972	46.875	61.1245	46.875	61.5483	46.875	61.1262	46.875	61.5811	46.875	61.1057	46.875	61.5926	46.875	61.0602	46.875	61.5807	46.875	60.9924	46.875	61.5444	46.875	60.9094	46.875	61.4837	46.875	60.8225	46.875	61.4002	46.875	60.7451	46.875	61.297	46.875	60.6899	46.875	61.1792	46.875	60.6672	46.875	61.0541	46.875	60.6824	46.875	60.9313	46.875	60.7355	46.875	60.8215
48.3398	62.224	48.3398	62.2873	48.3398	62.1782	48.3398	62.3623	48.3398	62.1535	48.3398	62.4429	48.3398	62.1506	48.3398	62.523	48.3398	62.167	48.3398	62.5975	48.3398	62.1964	48.3398	62.6622	48.3398	62.2306	48.3398	62.7138	48.3398	62.2605	48.3398	62.7501	48.3398	62.2786	48.3398	62.7695	48.3398	62.2802	48.3398	62.7709	48.3398	62.2646	48.3398	62.754	48.3398	62.2351	48.3398	62.7187	48.3398	62.1985	48.3398	62.6661	48.3398	62.1639	48.3398	62.598	48.3398	62.1404	48.3398	62.5179	48.3398	62.1359	48.3398	62.4309	48.3398	62.1551	48.3398	62.3435	48.3398	62.1987	48.3398	62.2636
51.2695	64.7289	51.2695	64.7729	51.2695	64.6865	51.2695	64.8153	51.2695	64.6486	51.2695	64.8523	51.2695	64.6165	51.2695	64.8803	51.2695	64.5903	51.2695	64.896	51.2695	64.5683	51.2695	64.8967	51.2695	64.5472	51.2695	64.8805	51.2695	64.5228	51.2695	64.8468	51.2695	64.4908	51.2695	64.7956	51.2695	64.4478	51.2695	64.7284	51.2695	64.3929	51.2695	64.6475	51.2695	64.3278	51.2695	64.5562	51.2695	64.2568	51.2695	64.4589	51.2695	64.1863	51.2695	64.3605	51.2695	64.1237	51.2695	64.2667	51.2695	64.076	51.2695	64.1832	51.2695	64.0489	51.2695	64.1156	51.2695	64.0462	51.2695	64.0689
52.7344	65.5332	52.7344	65.5372	52.7344	65.5269	52.7344	65.537	52.7344	65.5201	52.7344	65.5309	52.7344	65.5139	52.7344	65.5169	52.7344	65.5086	52.7344	65.4935	52.7344	65.5031	52.7344	65.4591	52.7344	65.4947	52.7344	65.4129	52.7344	65.4796	52.7344	65.3548	52.7344	65.4536	52.7344	65.2855	52.7344	65.4132	52.7344	65.207	52.7344	65.3568	52.7344	65.1224	52.7344	65.285	52.7344	65.0357	52.7344	65.2008	52.7344	64.9523	52.7344	65.1093	52.7344	64.8776	52.7344	65.0169	52.7344	64.8174	52.7344	64.9303	52.7344	64.7768	52.7344	64.8563	52.7344	64.7596	52.7344	64.8006	52.7344	64.7676
54.1992	66.6306	54.1992	66.6229	54.1992	66.628	54.1992	66.6059	54.1992	66.6131	54.1992	66.5797	54.1992	66.5832	54.1992	66.5434	54.1992	66.5352	54.1992	66.4951	54.1992	66.4652	54.1992	66.4326	54.1992	66.3693	54.1992	66.3532	54.1992	66.2439	54.1992	66.2548	54.1992	66.0874	54.1992	66.1356	54.1992	65.9004	54.1992	65.995	54.1992	65.6881	54.1992	65.8338	54.1992	65.4595	54.1992	65.6543	54.1992	65.228	54.1992	65.4614	54.1992	65.0101	54.1992	65.2621	54.1992	64.8229	54.1992	65.0664	54.1992	64.6825	54.1992	64.8868	54.1992	64.6011	54.1992	64.7374	54.1992	64.5848	54.1992	64.6327
55.6641	67.1975	55.6641	67.1947	55.6641	67.2034	55.6641	67.1955	55.6641	67.2105	55.6641	67.199	55.6641	67.2157	55.6641	67.2031	55.6641	67.2143	55.6641	67.205	55.6641	67.2013	55.6641	67.2017	55.6641	67.1711	55.6641	67.1902	55.6641	67.1191	55.6641	67.1678	55.6641	67.0427	55.6641	67.1323	55.6641	66.942	55.6641	67.0822	55.6641	66.8216	55.6641	67.0167	55.6641	66.6896	55.6641	66.9361	55.6641	66.5574	55.6641	66.842	55.6641	66.4378	55.6641	66.7374	55.6641	66.3432	55.6641	66.627	55.6641	66.2829	55.6641	66.5175	55.6641	66.2621	55.6641	66.4171	55.6641	66.2809	55.6641	66.3352
58.5938	67.7099	58.5938	67.7167	58.5938	67.739	58.5938	67.7569	58.5938	67.8025	58.5938	67.8256	58.5938	67.8947	58.5938	67.9164	58.5938	68.0068	58.5938	68.023	58.5938	68.1277	58.5938	68.1395	58.5938	68.2467	58.5938	68.2607	58.5938	68.3548	58.5938	68.3823	58.5938	68.446	58.5938	68.5004	58.5938	68.5182	58.5938	68.6113	58.5938	68.5725	58.5938	68.7118	58.5938	68.6133	58.5938	68.7984	58.5938	68.6468	58.5938	68.8679	58.5938	68.6795	58.5938	68.9176	58.5938	68.7164	58.5938	68.9455	58.5938	68.7599	58.5938	68.9512	58.5938	68.8088	58.5938	68.9359	58.5938	68.8587	58.5938	68.9032
60.0586	68.474	60.0586	68.478	60.0586	68.491	60.0586	68.5	60.0586	68.5304	60.0586	68.5367	60.0586	68.5918	60.0586	68.5849	60.0586	68.6723	60.0586	68.6418	60.0586	68.7671	60.0586	68.7056	60.0586	68.8696	60.0586	68.7748	60.0586	68.9733	60.0586	68.849	60.0586	69.0727	60.0586	68.9276	60.0586	69.164	60.0586	69.0105	60.0586	69.2459	60.0586	69.0968	60.0586	69.3188	60.0586	69.1851	60.0586	69.3842	60.0586	69.273	60.0586	69.4429	60.0586	69.3572	60.0586	69.4945	60.0586	69.4334	60.0586	69.5368	60.0586	69.4971	60.0586	69.5662	60.0586	69.5443	60.0586	69.5788	60.0586	69.5719
62.9883	70.1673	62.9883	70.1809	62.9883	70.1644	62.9883	70.2016	62.9883	70.1748	62.9883	70.2257	62.9883	70.2001	62.9883	70.2499	62.9883	70.2399	62.9883	70.2713	62.9883	70.2916	62.9883	70.2882	62.9883	70.3511	62.9883	70.2997	62.9883	70.413	62.9883	70.306	62.9883	70.4715	62.9883	70.3084	62.9883	70.5217	62.9883	70.3085	62.9883	70.56	62.9883	70.3086	62.9883	70.5845	62.9883	70.3112	62.9883	70.5949	62.9883	70.3185	62.9883	70.5922	62.9883	70.3319	62.9883	70.5778	62.9883	70.3523	62.9883	70.5539	62.9883	70.3797	62.9883	70.5228	62.9883	70.4127	62.9883	70.487	62.9883	70.4493
64.4531	71.084	64.4531	71.0795	64.4531	71.0922	64.4531	71.0765	64.4531	71.1056	64.4531	71.0727	64.4531	71.1249	64.4531	71.066	64.4531	71.1496	64.4531	71.0547	64.4531	71.1779	64.4531	71.038	64.4531	71.2068	64.4531	71.0159	64.4531	71.2325	64.4531	70.9893	64.4531	71.2513	64.4531	70.9596	64.4531	71.2599	64.4531	70.9293	64.4531	71.2566	64.4531	70.901	64.4531	71.2408	64.4531	70.8775	64.4531	71.2134	64.4531	70.8615	64.4531	71.1765	64.4531	70.8554	64.4531	71.1324	64.4531	70.8603	64.4531	71.084	64.4531	70.877	64.4531	71.0341	64.4531	70.9046	64.4531	70.9857	64.4531	70.9416
67.3828	72.4334	67.3828	72.4133	67.3828	72.4486	67.3828	72.3879	67.3828	72.4594	67.3828	72.3566	67.3828	72.4657	67.3828	72.3191	67.3828	72.467	67.3828	72.2753	67.3828	72.4622	67.3828	72.2255	67.3828	72.4497	67.3828	72.1703	67.3828	72.4276	67.3828	72.1109	67.3828	72.3942	67.3828	72.0488	67.3828	72.3488	67.3828	71.9859	67.3828	72.2916	67.3828	71.9246	67.3828	72.2241	67.3828	71.8675	67.3828	72.1491	67.3828	71.8173	67.3828	72.0703	67.3828	71.7771	67.3828	71.9918	67.3828	71.7495	67.3828	71.918	67.3828	71.737	67.3828	71.8529	67.3828	71.741	67.3828	71.8001	67.3828	71.7622
68.8477	72.9608	68.8477	72.9372	68.8477	72.9791	68.8477	72.908	68.8477	72.9923	68.8477	72.8731	68.8477	73.0003	68.8477	72.8325	68.8477	73.0024	68.8477	72.7862	68.8477	72.9979	68.8477	72.7349	68.8477	72.9851	68.8477	72.6793	68.8477	72.9626	68.8477	72.6207	68.8477	72.9289	68.8477	72.5605	68.8477	72.8832	68.8477	72.5004	68.8477	72.8257	68.8477	72.4424	68.8477	72.7579	68.8477	72.3889	68.8477	72.6824	68.8477	72.3421	68.8477	72.6028	68.8477	72.3047	68.8477	72.5235	68.8477	72.2791	68.8477	72.449	68.8477	72.2676	68.8477	72.3835	68.8477	72.2719	68.8477	72.3307	68.8477	72.293
71.7773	73.9481	71.7773	73.9258	71.7773	73.9641	71.7773	73.8971	71.7773	73.9741	71.7773	73.8618	71.7773	73.9782	71.7773	73.8204	71.7773	73.9766	71.7773	73.7735	71.7773	73.9688	71.7773	73.7219	71.7773	73.9543	71.7773	73.667	71.7773	73.9321	71.7773	73.6102	71.7773	73.9013	71.7773	73.5532	71.7773	73.8612	71.7773	73.4978	71.7773	73.8118	71.7773	73.4459	71.7773	73.7538	71.7773	73.3995	71.7773	73.6889	71.7773	73.3606	71.7773	73.6199	71.7773	73.331	71.7773	73.5502	71.7773	73.3127	71.7773	73.4837	71.7773	73.3071	71.7773	73.4241	71.7773	73.3154	71.7773	73.3748	71.7773	73.3381
74.707	74.8854	74.707	74.8565	74.707	74.9065	74.707	74.82	74.707	74.9197	74.707	74.7763	74.707	74.9252	74.707	74.7262	74.707	74.923	74.707	74.6707	74.707	74.9128	74.707	74.6112	74.707	74.8945	74.707	74.5493	74.707	74.8676	74.707	74.4868	74.707	74.8317	74.707	74.4256	74.707	74.7867	74.707	74.3678	74.707	74.733	74.707	74.3154	74.707	74.6716	74.707	74.2704	74.707	74.6045	74.707	74.2346	74.707	74.534	74.707	74.2098	74.707	74.4634	74.707	74.1974	74.707	74.3957	74.707	74.1982	74.707	74.3343	74.707	74.2128	74.707	74.282	74.707	74.241
77.6367	75.7224	77.6367	75.685	77.6367	75.751	77.6367	75.6394	77.6367	75.7704	77.6367	75.5865	77.6367	75.7806	77.6367	75.5275	77.6367	75.7814	77.6367	75.4641	77.6367	75.7727	77.6367	75.3981	77.6367	75.7543	77.6367	75.3315	77.6367	75.7259	77.6367	75.2663	77.6367	75.6876	77.6367	75.2046	77.6367	75.6395	77.6367	75.1482	77.6367	75.5825	77.6367	75.099	77.6367	75.5179	77.6367	75.0587	77.6367	75.4475	77.6367	75.0286	77.6367	75.374	77.6367	75.01	77.6367	75.3004	77.6367	75.0038	77.6367	75.2298	77.6367	75.0107	77.6367	75.1652	77.6367	75.0308	77.6367	75.1092	77.6367	75.0639
79.1016	76.0798	79.1016	76.0365	79.1016	76.114	79.1016	75.9849	79.1016	76.1384	79.1016	75.9264	79.1016	76.1527	79.1016	75.8627	79.1016	76.1567	79.1016	75.7957	79.1016	76.1505	79.1016	75.7277	79.1016	76.134	79.1016	75.6607	79.1016	76.1075	79.1016	75.597	79.1016	76.0711	79.1016	75.5387	79.1016	76.0254	79.1016	75.4874	79.1016	75.9712	79.1016	75.4449	79.1016	75.9097	79.1016	75.4124	79.1016	75.8427	79.1016	75.3907	79.1016	75.7723	79.1016	75.3808	79.1016	75.7012	79.1016	75.383	79.1016	75.632	79.1016	75.3973	79.1016	75.5675	79.1016	75.4237	79.1016	75.5101	79.1016	75.4616
82.0312	76.7951	82.0312	76.7466	82.0312	76.834	82.0312	76.6898	82.0312	76.8623	82.0312	76.6266	82.0312	76.8794	82.0312	76.559	82.0312	76.8852	82.0312	76.4893	82.0312	76.8801	82.0312	76.4198	82.0312	76.8645	82.0312	76.353	82.0312	76.8393	82.0312	76.2911	82.0312	76.8053	82.0312	76.2362	82.0312	76.7635	82.0312	76.1901	82.0312	76.7145	82.0312	76.1542	82.0312	76.6594	82.0312	76.1295	82.0312	76.5993	82.0312	76.1167	82.0312	76.5355	82.0312	76.1161	82.0312	76.4697	82.0312	76.1276	82.0312	76.404	82.0312	76.1508	82.0312	76.3405	82.0312	76.1851	82.0312	76.2815	82.0312	76.2291
84.9609	77.5109	84.9609	77.4619	84.9609	77.5475	84.9609	77.4019	84.9609	77.571	84.9609	77.3327	84.9609	77.5815	84.9609	77.2572	84.9609	77.5797	84.9609	77.1782	84.9609	77.567	84.9609	77.0991	84.9609	77.5448	84.9609	77.0232	84.9609	77.515	84.9609	76.9537	84.9609	77.479	84.9609	76.8935	84.9609	77.4383	84.9609	76.8452	84.9609	77.3938	84.9609	76.8106	84.9609	77.3461	84.9609	76.7909	84.9609	77.2955	84.9609	76.7864	84.9609	77.2421	84.9609	76.7968	84.9609	77.1862	84.9609	76.8209	84.9609	77.1283	84.9609	76.8567	84.9609	77.0693	84.9609	76.9019	84.9609	77.0106	84.9609	76.9541
87.8906	78.2008	87.8906	78.142	87.8906	78.2469	87.8906	78.0725	87.8906	78.279	87.8906	77.9947	87.8906	78.2966	87.8906	77.9115	87.8906	78.2998	87.8906	77.8259	87.8906	78.2892	87.8906	77.7411	87.8906	78.2661	87.8906	77.6597	87.8906	78.2317	87.8906	77.5846	87.8906	78.1873	87.8906	77.5182	87.8906	78.1342	87.8906	77.4623	87.8906	78.0737	87.8906	77.4188	87.8906	78.0069	87.8906	77.3888	87.8906	77.9351	87.8906	77.3731	87.8906	77.8599	87.8906	77.372	87.8906	77.783	87.8906	77.3854	87.8906	77.7066	87.8906	77.4126	87.8906	77.6331	87.8906	77.4526	87.8906	77.5648	87.8906	77.5039
90.8203	78.7815	90.8203	78.7163	90.8203	78.8349	90.8203	78.6414	90.8203	78.8749	90.8203	78.5593	90.8203	78.901	90.8203	78.4731	90.8203	78.9131	90.8203	78.386	90.8203	78.9117	90.8203	78.3012	90.8203	78.8979	90.8203	78.222	90.8203	78.873	90.8203	78.1511	90.8203	78.8384	90.8203	78.0912	90.8203	78.7954	90.8203	78.0444	90.8203	78.7448	90.8203	78.012	90.8203	78.6874	90.8203	77.9949	90.8203	78.6239	90.8203	77.9935	90.8203	78.5553	90.8203	78.0074	90.8203	78.4827	90.8203	78.0356	90.8203	78.4079	90.8203	78.0769	90.8203	78.3328	90.8203	78.1294	90.8203	78.2597	90.8203	78.1911
95.2148	79.7067	95.2148	79.6352	95.2148	79.7656	95.2148	79.5538	95.2148	79.8102	95.2148	79.4655	95.2148	79.8395	95.2148	79.3739	95.2148	79.8536	95.2148	79.2827	95.2148	79.8533	95.2148	79.1955	95.2148	79.8403	95.2148	79.1158	95.2148	79.8163	95.2148	79.0464	95.2148	79.7833	95.2148	78.9899	95.2148	79.7425	95.2148	78.9481	95.2148	79.695	95.2148	78.9222	95.2148	79.6412	95.2148	78.9125	95.2148	79.5814	95.2148	78.9189	95.2148	79.5158	95.2148	78.9406	95.2148	79.4453	95.2148	78.9763	95.2148	79.3713	95.2148	79.0242	95.2148	79.2956	95.2148	79.0825	95.2148	79.2206	95.2148	79.1487
98.1445	80.2601	98.1445	80.1867	98.1445	80.3199	98.1445	80.1024	98.1445	80.3643	98.1445	80.0105	98.1445	80.3926	98.1445	79.9149	98.1445	80.4053	98.1445	79.8198	98.1445	80.4036	98.1445	79.729	98.1445	80.3895	98.1445	79.6465	98.1445	80.3651	98.1445	79.5755	98.1445	80.3327	98.1445	79.5187	98.1445	80.2937	98.1445	79.4778	98.1445	80.2488	98.1445	79.4541	98.1445	80.1983	98.1445	79.4478	98.1445	80.1418	98.1445	79.4585	98.1445	80.0793	98.1445	79.485	98.1445	80.0111	98.1445	79.5257	98.1445	79.9382	98.1445	79.5786	98.1445	79.8624	98.1445	79.6414	98.1445	79.786	98.1445	79.7114
101.074	80.7185	101.074	80.6344	101.074	80.7881	101.074	80.5389	101.074	80.8409	101.074	80.4361	101.074	80.8761	101.074	80.3305	101.074	80.894	101.074	80.2269	101.074	80.8961	101.074	80.1299	101.074	80.8849	101.074	80.0438	101.074	80.8633	101.074	79.9722	101.074	80.8337	101.074	79.9177	101.074	80.7981	101.074	79.8824	101.074	80.7574	101.074	79.8669	101.074	80.7113	101.074	79.8711	101.074	80.6589	101.074	79.894	101.074	80.5995	101.074	79.9339	101.074	80.5324	101.074	79.9884	101.074	80.4584	101.074	80.0549	101.074	80.3786	101.074	80.1304	101.074	80.2954	101.074	80.2116
105.469	81.4698	105.469	81.3936	105.469	81.5287	105.469	81.3033	105.469	81.5684	105.469	81.2029	105.469	81.5884	105.469	81.0972	105.469	81.5894	105.469	80.9913	105.469	81.5737	105.469	80.8901	105.469	81.5445	105.469	80.7982	105.469	81.5057	105.469	80.7198	105.469	81.4608	105.469	80.6581	105.469	81.4131	105.469	80.6153	105.469	81.3643	105.469	80.5927	105.469	81.3151	105.469	80.5904	105.469	81.2648	105.469	80.6074	105.469	81.2122	105.469	80.6417	105.469	81.1559	105.469	80.6904	105.469	81.095	105.469	80.7502	105.469	81.0294	105.469	80.8174	105.469	80.9599	105.469	80.8884
108.398	82.01	108.398	81.9253	108.398	82.0777	108.398	81.8272	108.398	82.126	108.398	81.7201	108.398	82.1535	108.398	81.6088	108.398	82.1604	108.398	81.4983	108.398	82.1485	108.398	81.3932	108.398	82.1204	108.398	81.298	108.398	82.0797	108.398	81.2166	108.398	82.0302	108.398	81.1518	108.398	81.9749	108.398	81.1057	108.398	81.9159	108.398	81.0794	108.398	81.8543	108.398	81.0728	108.398	81.7901	108.398	81.0851	108.398	81.723	108.398	81.1145	108.398	81.6527	108.398	81.1587	108.398	81.5793	108.398	81.2149	108.398	81.5037	108.398	81.2803	108.398	81.4273	108.398	81.352
112.793	82.7279	112.793	82.6372	112.793	82.7995	112.793	82.5314	112.793	82.8497	112.793	82.4155	112.793	82.8779	112.793	82.2953	112.793	82.885	112.793	82.1768	112.793	82.874	112.793	82.066	112.793	82.8488	112.793	81.9683	112.793	82.8138	112.793	81.8882	112.793	82.7733	112.793	81.829	112.793	82.7304	112.793	81.7928	112.793	82.6865	112.793	81.7801	112.793	82.6415	112.793	81.7903	112.793	82.5938	112.793	81.8213	112.793	82.5412	112.793	81.8706	112.793	82.4819	112.793	81.9345	112.793	82.4149	112.793	82.0093	112.793	82.3404	112.793	82.091	112.793	82.2599	112.793	82.1757
117.188	83.374	117.188	83.2759	117.188	83.4514	117.188	83.1615	117.188	83.5054	117.188	83.0359	117.188	83.5351	117.188	82.9056	117.188	83.5412	117.188	82.777	117.188	83.5266	117.188	82.6567	117.188	83.4953	117.188	82.5508	117.188	83.4526	117.188	82.4644	117.188	83.4036	117.188	82.4016	117.188	83.3527	117.188	82.3645	117.188	83.3025	117.188	82.3539	117.188	83.2537	117.188	82.3688	117.188	83.2049	117.188	82.4068	117.188	83.1537	117.188	82.4642	117.188	83.0975	117.188	82.5366	117.188	83.0339	117.188	82.6193	117.188	82.962	117.188	82.7074	117.188	82.8822	117.188	82.7963
120.117	83.8519	120.117	83.7519	120.117	83.9303	120.117	83.6347	120.117	83.984	120.117	83.5057	120.117	84.0117	120.117	83.3713	120.117	84.0142	120.117	83.238	120.117	83.9939	120.117	83.1125	120.117	83.9552	120.117	83.001	120.117	83.9034	120.117	82.9088	120.117	83.8443	120.117	82.8403	120.117	83.783	120.117	82.7981	120.117	83.7231	120.117	82.7831	120.117	83.666	120.117	82.7947	120.117	83.6111	120.117	82.8303	120.117	83.5566	120.117	82.8861	120.117	83.4996	120.117	82.9573	120.117	83.4376	120.117	83.0386	120.117	83.3689	120.117	83.1246	120.117	83.2929	120.117	83.2106
124.512	84.5335	124.512	84.4267	124.512	84.6183	124.512	84.3028	124.512	84.6777	124.512	84.1676	124.512	84.7102	124.512	84.0277	124.512	84.7164	124.512	83.89	124.512	84.6991	124.512	83.7614	124.512	84.6627	124.512	83.6481	124.512	84.6133	124.512	83.5556	124.512	84.5566	124.512	83.4881	124.512	84.4978	124.512	83.4482	124.512	84.4401	124.512	83.4366	124.512	84.3846	124.512	83.4525	124.512	84.3303	124.512	83.4933	124.512	84.2749	124.512	83.5549	124.512	84.2156	124.512	83.6325	124.512	84.15	124.512	83.7204	124.512	84.0764	124.512	83.8132	124.512	83.9946	124.512	83.906
128.906	85.2511	128.906	85.1411	128.906	85.3351	128.906	85.0099	128.906	85.3896	128.906	84.8639	128.906	85.4136	128.906	84.7103	128.906	85.4084	128.906	84.5568	128.906	85.3774	128.906	84.4109	128.906	85.3264	128.906	84.2802	128.906	85.2622	128.906	84.1709	128.906	85.1916	128.906	84.0884	128.906	85.1204	128.906	84.036	128.906	85.0525	128.906	84.0153	128.906	84.9893	128.906	84.0257	128.906	84.9299	128.906	84.0646	128.906	84.8716	128.906	84.1273	128.906	84.811	128.906	84.2082	128.906	84.7448	128.906	84.3008	128.906	84.6704	128.906	84.3985	128.906	84.587	128.906	84.4954
133.301	85.85	133.301	85.7368	133.301	85.9357	133.301	85.6012	133.301	85.9909	133.301	85.45	133.301	86.0153	133.301	85.2913	133.301	86.0112	133.301	85.1336	133.301	85.9831	133.301	84.9852	133.301	85.937	133.301	84.8536	133.301	85.8795	133.301	84.7452	133.301	85.8166	133.301	84.6646	133.301	85.7529	133.301	84.6146	133.301	85.6903	133.301	84.5959	133.301	85.6289	133.301	84.6074	133.301	85.5672	133.301	84.6463	133.301	85.5026	133.301	84.7086	133.301	85.433	133.301	84.789	133.301	85.3564	133.301	84.8818	133.301	85.272	133.301	84.9813	133.301	85.1801	133.301	85.0822
139.16	86.556	139.16	86.4393	139.16	86.6459	139.16	86.3016	139.16	86.7061	139.16	86.1502	139.16	86.7363	139.16	85.9942	139.16	86.7393	139.16	85.8428	139.16	86.7201	139.16	85.7051	139.16	86.6859	139.16	85.5891	139.16	86.644	139.16	85.501	139.16	86.6011	139.16	85.4448	139.16	86.5619	139.16	85.4219	139.16	86.5276	139.16	85.4316	139.16	86.4964	139.16	85.4709	139.16	86.4641	139.16	85.5355	139.16	86.4256	139.16	85.62	139.16	86.3763	139.16	85.7188	139.16	86.3135	139.16	85.826	139.16	86.2361	139.16	85.9361	139.16	86.1455	139.16	86.0442
143.555	87.1547	143.555	87.0376	143.555	87.2442	143.555	86.8985	143.555	87.3029	143.555	86.7446	143.555	87.3304	143.555	86.5844	143.555	87.329	143.555	86.4272	143.555	87.3037	143.555	86.2821	143.555	87.2617	143.555	86.1577	143.555	87.2112	143.555	86.0611	143.555	87.1601	143.555	85.9975	143.555	87.1143	143.555	85.9697	143.555	87.0764	143.555	85.9776	143.555	87.0456	143.555	86.0189	143.555	87.0176	143.555	86.0887	143.555	86.9868	143.555	86.1811	143.555	86.9469	143.555	86.2889	143.555	86.8931	143.555	86.405	143.555	86.8229	143.555	86.5223	143.555	86.736	143.555	86.6344
147.949	87.7875	147.949	87.6612	147.949	87.8815	147.949	87.5082	147.949	87.94	147.949	87.3354	147.949	87.9623	147.949	87.1514	147.949	87.9502	147.949	86.9657	147.949	87.9082	147.949	86.7884	147.949	87.8434	147.949	86.6295	147.949	87.7648	147.949	86.4983	147.949	87.6816	147.949	86.4023	147.949	87.6022	147.949	86.3466	147.949	87.5321	147.949	86.3335	147.949	87.4731	147.949	86.3614	147.949	87.4234	147.949	86.4259	147.949	87.3779	147.949	86.5198	147.949	87.3299	147.949	86.6342	147.949	87.2725	147.949	86.7592	147.949	87.2005	147.949	86.8856	147.949	87.1112	147.949	87.005
153.809	88.3192	153.809	88.191	153.809	88.4124	153.809	88.034	153.809	88.4671	153.809	87.857	153.809	88.4829	153.809	87.67	153.809	88.4634	153.809	87.4838	153.809	88.4155	153.809	87.3092	153.809	88.3486	153.809	87.156	153.809	88.2735	153.809	87.0329	153.809	88.1998	153.809	86.9458	153.809	88.1342	153.809	86.8982	153.809	88.0794	153.809	86.8909	153.809	88.034	153.809	86.9218	153.809	87.9933	153.809	86.9861	153.809	87.951	153.809	87.0776	153.809	87.9009	153.809	87.1885	153.809	87.8382	153.809	87.3104	153.809	87.7597	153.809	87.4351	153.809	87.6648	153.809	87.5553
159.668	88.8827	159.668	88.7574	159.668	88.9688	159.668	88.5994	159.668	89.0123	159.668	88.4179	159.668	89.0139	159.668	88.2239	159.668	88.9782	159.668	88.0295	159.668	88.9136	159.668	87.8466	159.668	88.8312	159.668	87.6864	159.668	88.7431	159.668	87.5582	159.668	88.6606	159.668	87.469	159.668	88.5919	159.668	87.4225	159.668	88.5406	159.668	87.4195	159.668	88.5054	159.668	87.4572	159.668	88.4806	159.668	87.5302	159.668	88.4579	159.668	87.6312	159.668	88.4286	159.668	87.7512	159.668	88.3849	159.668	87.8806	159.668	88.3215	159.668	88.0101	159.668	88.2363	159.668	88.131
165.527	89.3639	165.527	89.2365	165.527	89.4515	165.527	89.0764	165.527	89.4954	165.527	88.8931	165.527	89.4957	165.527	88.6979	165.527	89.4565	165.527	88.5029	165.527	89.386	165.527	88.3202	165.527	89.2957	165.527	88.161	165.527	89.1988	165.527	88.0349	165.527	89.1077	165.527	87.9489	165.527	89.0322	165.527	87.9071	165.527	88.977	165.527	87.9098	165.527	88.9416	165.527	87.9541	165.527	88.9209	165.527	88.034	165.527	88.9062	165.527	88.141	165.527	88.8881	165.527	88.2652	165.527	88.8573	165.527	88.396	165.527	88.8072	165.527	88.5234	165.527	88.7342	165.527	88.6383
171.387	89.6819	171.387	89.5483	171.387	89.7725	171.387	89.3793	171.387	89.8161	171.387	89.1855	171.387	89.813	171.387	88.9794	171.387	89.7683	171.387	88.7742	171.387	89.691	171.387	88.583	171.387	89.5934	171.387	88.4177	171.387	89.4892	171.387	88.2879	171.387	89.3908	171.387	88.2005	171.387	89.3078	171.387	88.159	171.387	89.2449	171.387	88.1633	171.387	89.2017	171.387	88.2097	171.387	89.1737	171.387	88.2917	171.387	89.1534	171.387	88.4004	171.387	89.1321	171.387	88.5253	171.387	89.1013	171.387	88.6556	171.387	89.0535	171.387	88.781	171.387	88.9843	171.387	88.8926
177.246	89.8674	177.246	89.7302	177.246	89.9604	177.246	89.5564	177.246	90.0053	177.246	89.3565	177.246	90.0027	177.246	89.1435	177.246	89.9579	177.246	88.9313	177.246	89.8804	177.246	88.734	177.246	89.7835	177.246	88.5644	177.246	89.6816	177.246	88.4331	177.246	89.5884	177.246	88.3471	177.246	89.5132	177.246	88.3095	177.246	89.4597	177.246	88.3192	177.246	89.4258	177.246	88.3716	177.246	89.4044	177.246	88.4593	177.246	89.3864	177.246	88.5729	177.246	89.3624	177.246	88.7023	177.246	89.3245	177.246	88.8372	177.246	89.2671	177.246	88.9681	177.246	89.1878	177.246	89.087
183.105	89.9781	183.105	89.8453	183.105	90.063	183.105	89.6722	183.105	90.0967	183.105	89.4698	183.105	90.081	183.105	89.2514	183.105	90.0231	183.105	89.0317	183.105	89.9348	183.105	88.8256	183.105	89.8317	183.105	88.6468	183.105	89.73	183.105	88.5071	183.105	89.6441	183.105	88.4147	183.105	89.5831	183.105	88.3743	183.105	89.5492	183.105	88.3859	183.105	89.538	183.105	88.4456	183.105	89.5403	183.105	88.5458	183.105	89.5442	183.105	88.6766	183.105	89.5382	183.105	88.826	183.105	89.5123	183.105	88.9819	183.105	89.4598	183.105	89.1324	183.105	89.3777	183.105	89.2669
188.965	90.06	188.965	89.9254	188.965	90.1418	188.965	89.7461	188.965	90.1666	188.965	89.5335	188.965	90.1351	188.965	89.3016	188.965	90.0533	188.965	89.0653	188.965	89.9329	188.965	88.8399	188.965	89.7901	188.965	88.6397	188.965	89.6442	188.965	88.4767	188.965	89.5139	188.965	88.3597	188.965	89.4136	188.965	88.2938	188.965	89.3503	188.965	88.2799	188.965	89.3215	188.965	88.3153	188.965	89.3175	188.965	88.3938	188.965	89.3235	188.965	88.5067	188.965	89.3238	188.965	88.6432	188.965	89.305	188.965	88.7908	188.965	89.2579	188.965	88.937	188.965	89.1789	188.965	89.0697
196.289	90.0914	196.289	89.9549	196.289	90.1701	196.289	89.7701	196.289	90.1862	196.289	89.5499	196.289	90.14	196.289	89.3098	196.289	90.038	196.289	89.0665	196.289	89.8931	196.289	88.837	196.289	89.7235	196.289	88.6369	196.289	89.5508	196.289	88.4788	196.289	89.3965	196.289	88.3715	196.289	89.2774	196.289	88.3183	196.289	89.2025	196.289	88.3178	196.289	89.1707	196.289	88.364	196.289	89.1721	196.289	88.4482	196.289	89.1912	196.289	88.5597	196.289	89.2105	196.289	88.6873	196.289	89.2145	196.289	88.8196	196.289	89.1924	196.289	88.9455	196.289	89.1389	196.289	89.0548
203.613	89.9252	203.613	89.7882	203.613	89.9998	203.613	89.5983	203.613	90.0074	203.613	89.3681	203.613	89.949	203.613	89.1131	203.613	89.8321	203.613	88.8502	203.613	89.6708	203.613	88.597	203.613	89.4851	203.613	88.3706	203.613	89.2981	203.613	88.186	203.613	89.1321	203.613	88.0547	203.613	89.0042	203.613	87.9835	203.613	88.9232	203.613	87.9733	203.613	88.888	203.613	88.0195	203.613	88.8892	203.613	88.1129	203.613	88.9116	203.613	88.2405	203.613	88.9373	203.613	88.3876	203.613	88.9494	203.613	88.539	203.613	88.9344	203.613	88.68	203.613	88.8846	203.613	88.7983
210.938	89.6579	210.938	89.53	210.938	89.7203	210.938	89.3461	210.938	89.7127	210.938	89.1196	210.938	89.6369	210.938	88.8669	210.938	89.5015	210.938	88.6062	210.938	89.3225	210.938	88.3559	210.938	89.1219	210.938	88.1334	210.938	88.9252	210.938	87.9531	210.938	88.7567	210.938	87.8252	210.938	88.6346	210.938	87.7545	210.938	88.567	210.938	87.7409	210.938	88.5506	210.938	87.7795	210.938	88.5722	210.938	87.862	210.938	88.6127	210.938	87.9777	210.938	88.6516	210.938	88.1144	210.938	88.6707	210.938	88.2587	210.938	88.6571	210.938	88.397	210.938	88.6052	210.938	88.5161
218.262	89.3607	218.262	89.2268	218.262	89.426	218.262	89.0351	218.262	89.4175	218.262	88.8009	218.262	89.3371	218.262	88.5426	218.262	89.1947	218.262	88.2809	218.262	89.008	218.262	88.0362	218.262	88.8015	218.262	87.8279	218.262	88.6031	218.262	87.6713	218.262	88.4395	218.262	87.5764	218.262	88.3304	218.262	87.5464	218.262	88.2849	218.262	87.5778	218.262	88.2995	218.262	87.6616	218.262	88.3596	218.262	87.7852	218.262	88.4431	218.262	87.9347	218.262	88.5258	218.262	88.0956	218.262	88.5855	218.262	88.2537	218.262	88.6062	218.262	88.3953	218.262	88.5802	218.262	88.5077
225.586	89.184	225.586	89.0485	225.586	89.2417	225.586	88.8465	225.586	89.2164	225.586	88.5939	225.586	89.1104	225.586	88.3101	225.586	88.9337	225.586	88.0169	225.586	88.7053	225.586	87.7369	225.586	88.4513	225.586	87.4919	225.586	88.202	225.586	87.3007	225.586	87.988	225.586	87.1765	225.586	87.8342	225.586	87.1256	225.586	87.7553	225.586	87.1461	225.586	87.7527	225.586	87.2292	225.586	87.8146	225.586	87.3606	225.586	87.9174	225.586	87.5231	225.586	88.0316	225.586	87.6984	225.586	88.1276	225.586	87.8683	225.586	88.182	225.586	88.0155	225.586	88.1816	225.586	88.124
232.91	88.9021	232.91	88.7697	232.91	88.9525	232.91	88.5667	232.91	88.9156	232.91	88.3086	232.91	88.7931	232.91	88.0147	232.91	88.5946	232.91	87.7068	232.91	88.3387	232.91	87.4078	232.91	88.0515	232.91	87.1402	232.91	87.7642	232.91	86.9237	232.91	87.5083	232.91	86.7728	232.91	87.3099	232.91	86.6944	232.91	87.1857	232.91	86.6871	232.91	87.14	232.91	86.7421	232.91	87.1645	232.91	86.8452	232.91	87.24	232.91	86.9795	232.91	87.3397	232.91	87.1271	232.91	87.434	232.91	87.2703	232.91	87.4973	232.91	87.3919	232.91	87.5134	232.91	87.4767
241.699	88.4672	241.699	88.3322	241.699	88.5167	241.699	88.1229	241.699	88.4756	241.699	87.8552	241.699	88.3463	241.699	87.5485	241.699	88.1398	241.699	87.225	241.699	87.8767	241.699	86.9086	241.699	87.5854	241.699	86.6229	241.699	87.2987	241.699	86.3889	241.699	87.0485	241.699	86.2227	241.699	86.8588	241.699	86.1326	241.699	86.7412	241.699	86.1183	241.699	86.6946	241.699	86.1708	241.699	86.7073	241.699	86.2753	241.699	86.7613	241.699	86.413	241.699	86.8347	241.699	86.5641	241.699	86.9048	241.699	86.7094	241.699	86.9507	241.699	86.8317	241.699	86.9572	241.699	86.9171
250.488	88.2189	250.488	88.0717	250.488	88.2708	250.488	87.8411	250.488	88.2222	250.488	87.5445	250.488	88.0758	250.488	87.2037	250.488	87.8431	250.488	86.8438	250.488	87.5454	250.488	86.492	250.488	87.2132	250.488	86.1758	250.488	86.8833	250.488	85.9203	250.488	86.5939	250.488	85.7449	250.488	86.3771	250.488	85.6594	250.488	86.2524	250.488	85.6624	250.488	86.2218	250.488	85.7419	250.488	86.2707	250.488	85.8781	250.488	86.3716	250.488	86.0478	250.488	86.4913	250.488	86.228	250.488	86.5977	250.488	86.3978	250.488	86.6657	250.488	86.539	250.488	86.6802	250.488	86.6366
259.277	87.87	259.277	87.7565	259.277	87.8882	259.277	87.5589	259.277	87.8066	259.277	87.2934	259.277	87.6283	259.277	86.9805	259.277	87.3659	259.277	86.6444	259.277	87.0416	259.277	86.3115	259.277	86.6873	259.277	86.0091	259.277	86.3407	259.277	85.7623	259.277	86.0404	259.277	85.5906	259.277	85.8184	259.277	85.5047	259.277	85.695	259.277	85.5042	259.277	85.6746	259.277	85.5784	259.277	85.7457	259.277	85.7083	259.277	85.8824	259.277	85.871	259.277	86.0492	259.277	86.0422	259.277	86.209	259.277	86.1988	259.277	86.3303	259.277	86.3199	259.277	86.3928	259.277	86.3883
268.066	87.4957	268.066	87.4054	268.066	87.4784	268.066	87.2187	268.066	87.3497	268.066	86.9516	268.066	87.1152	268.066	86.6246	268.066	86.7922	268.066	86.2612	268.066	86.4112	268.066	85.8883	268.066	86.0135	268.066	85.5355	268.066	85.6451	268.066	85.233	268.066	85.3468	268.066	85.0084	268.066	85.1447	268.066	84.881	268.066	85.0468	268.066	84.8565	268.066	85.0451	268.066	84.925	268.066	85.1223	268.066	85.0631	268.066	85.2545	268.066	85.2403	268.066	85.4135	268.066	85.4249	268.066	85.5688	268.066	85.5884	268.066	85.6925	268.066	85.7083	268.066	85.7632	268.066	85.7691
276.855	87.0509	276.855	87.0412	276.855	86.9496	276.855	86.9325	276.855	86.7321	276.855	86.7427	276.855	86.4027	276.855	86.4937	276.855	85.9764	276.855	86.2097	276.855	85.4825	276.855	85.9145	276.855	84.9651	276.855	85.6299	276.855	84.4815	276.855	85.3741	276.855	84.0939	276.855	85.1617	276.855	83.854	276.855	85.0031	276.855	83.7863	276.855	84.9045	276.855	83.8802	276.855	84.8668	276.855	84.0949	276.855	84.8847	276.855	84.3739	276.855	84.9464	276.855	84.6611	276.855	85.0345	276.855	84.9111	276.855	85.1271	276.855	85.0952	276.855	85.2007	276.855	85.2013	276.855	85.2321
287.109	86.323	287.109	86.463	287.109	86.0515	287.109	86.4826	287.109	85.6473	287.109	86.4001	287.109	85.1226	287.109	86.2385	287.109	84.5067	287.109	86.0242	287.109	83.847	287.109	85.7851	287.109	83.2063	287.109	85.5497	287.109	82.6535	287.109	85.3438	287.109	82.2499	287.109	85.1876	287.109	82.0363	287.109	85.0919	287.109	82.0282	287.109	85.0557	287.109	82.216	287.109	85.0674	287.109	82.5661	287.109	85.108	287.109	83.0244	287.109	85.1555	287.109	83.5257	287.109	85.1874	287.109	84.008	287.109	85.1823	287.109	84.4252	287.109	85.1197	287.109	84.7519	287.109	84.9811
297.363	85.7572	297.363	86.1041	297.363	85.2397	297.363	86.3011	297.363	84.5376	297.363	86.3719	297.363	83.649	297.363	86.3413	297.363	82.5912	297.363	86.2342	297.363	81.4102	297.363	86.0746	297.363	80.19	297.363	85.8857	297.363	79.059	297.363	85.6894	297.363	78.1832	297.363	85.5052	297.363	77.7283	297.363	85.3485	297.363	77.7861	297.363	85.2278	297.363	78.3177	297.363	85.1418	297.363	79.1779	297.363	85.0785	297.363	80.1937	297.363	85.0155	297.363	81.2235	297.363	84.9237	297.363	82.173	297.363	84.7708	297.363	82.9899	297.363	84.5255	297.363	83.6524	297.363	84.16
307.617	85.7589	307.617	86.0531	307.617	85.3235	307.617	86.2146	307.617	84.7492	307.617	86.2596	307.617	84.0502	307.617	86.2101	307.617	83.2529	307.617	86.0918	307.617	82.3933	307.617	85.932	307.617	81.512	307.617	85.758	307.617	80.6485	307.617	85.593	307.617	79.8379	307.617	85.4528	307.617	79.1169	307.617	85.3429	307.617	78.5485	307.617	85.2579	307.617	78.2575	307.617	85.1844	307.617	78.4107	307.617	85.104	307.617	79.0746	307.617	84.9962	307.617	80.0994	307.617	84.8385	307.617	81.2279	307.617	84.6047	307.617	82.265	307.617	84.2637	307.617	83.1211	307.617	83.7804
319.336	86.2096	319.336	86.2453	319.336	86.0599	319.336	86.176	319.336	85.7961	319.336	86.0181	319.336	85.4287	319.336	85.7938	319.336	84.9791	319.336	85.5296	319.336	84.4774	319.336	85.2555	319.336	83.9584	319.336	85.0027	319.336	83.454	319.336	84.7995	319.336	82.9877	319.336	84.6658	319.336	82.5728	319.336	84.6076	319.336	82.2197	319.336	84.6143	319.336	81.9511	319.336	84.662	319.336	81.8152	319.336	84.7191	319.336	81.8726	319.336	84.753	319.336	82.1518	319.336	84.7332	319.336	82.6101	319.336	84.6326	319.336	83.1501	319.336	84.4289	319.336	83.6718	319.336	84.108
329.59	86.4084	329.59	86.2937	329.59	86.4113	329.59	86.0814	329.59	86.2965	329.59	85.7916	329.59	86.0675	329.59	85.4485	329.59	85.7395	329.59	85.0793	329.59	85.3382	329.59	84.7119	329.59	84.8978	329.59	84.3745	329.59	84.4546	329.59	84.0939	329.59	84.0391	329.59	83.8927	329.59	83.6701	329.59	83.7845	329.59	83.3551	329.59	83.7696	329.59	83.1017	329.59	83.8333	329.59	82.9338	329.59	83.9483	329.59	82.8905	329.59	84.079	329.59	82.9981	329.59	84.1877	329.59	83.2372	329.59	84.2388	329.59	83.5433	329.59	84.2047	329.59	83.8402	329.59	84.0705
341.309	86.4445	341.309	86.2107	341.309	86.5528	341.309	85.8697	341.309	86.5292	341.309	85.4504	341.309	86.3801	341.309	84.9882	341.309	86.1234	341.309	84.5219	341.309	85.7852	341.309	84.0893	341.309	85.3975	341.309	83.7226	341.309	84.9938	341.309	83.4447	341.309	84.6038	341.309	83.2656	341.309	84.2478	341.309	83.1824	341.309	83.9375	341.309	83.1818	341.309	83.6844	341.309	83.2454	341.309	83.508	341.309	83.3543	341.309	83.4314	341.309	83.4904	341.309	83.4616	341.309	83.6346	341.309	83.5731	341.309	83.7638	341.309	83.7134	341.309	83.8523	341.309	83.827	341.309	83.877
353.027	86.5401	353.027	86.2796	353.027	86.6573	353.027	85.8981	353.027	86.6162	353.027	85.4213	353.027	86.4137	353.027	84.8765	353.027	86.0657	353.027	84.2929	353.027	85.6106	353.027	83.7035	353.027	85.1069	353.027	83.1479	353.027	84.6222	353.027	82.6719	353.027	84.2145	353.027	82.3228	353.027	83.9149	353.027	82.1377	353.027	83.7222	353.027	82.13	353.027	83.617	353.027	82.2829	353.027	83.5809	353.027	82.554	353.027	83.6047	353.027	82.8871	353.027	83.6771	353.027	83.2254	353.027	83.7746	353.027	83.5207	353.027	83.8615	353.027	83.7397	353.027	83.9017	353.027	83.8664
366.211	87.0052	366.211	86.7397	366.211	87.103	366.211	86.3136	366.211	87.0345	366.211	85.7428	366.211	86.8106	366.211	85.0539	366.211	86.451	366.211	84.2878	366.211	85.9846	366.211	83.503	366.211	85.4497	366.211	82.7766	366.211	84.8946	366.211	82.1943	366.211	84.3731	366.211	81.8249	366.211	83.9326	366.211	81.6898	366.211	83.6031	366.211	81.7533	366.211	83.3997	366.211	81.9474	366.211	83.3289	366.211	82.2089	366.211	83.3821	366.211	82.4987	366.211	83.5181	366.211	82.7988	366.211	83.6649	366.211	83.0973	366.211	83.7499	366.211	83.3736	366.211	83.7289	366.211	83.5959
379.395	86.6563	379.395	86.3234	379.395	86.8462	379.395	85.8734	379.395	86.8732	379.395	85.3342	379.395	86.7262	379.395	84.7325	379.395	86.4064	379.395	84.091	379.395	85.9332	379.395	83.4324	379.395	85.349	379.395	82.7868	379.395	84.7174	379.395	82.2022	379.395	84.1128	379.395	81.7456	379.395	83.604	379.395	81.4888	379.395	83.2414	379.395	81.4767	379.395	83.0564	379.395	81.7007	379.395	83.0617	379.395	82.1009	379.395	83.2403	379.395	82.5939	379.395	83.5314	379.395	83.1001	379.395	83.8416	379.395	83.5548	379.395	84.0796	379.395	83.9086	379.395	84.1831	379.395	84.1253
392.578	86.7444	392.578	86.4062	392.578	86.9109	392.578	85.9202	392.578	86.8911	392.578	85.3181	392.578	86.6838	392.578	84.6387	392.578	86.3061	392.578	83.9261	392.578	85.7963	392.578	83.2262	392.578	85.2098	392.578	82.5841	392.578	84.6081	392.578	82.0423	392.578	84.044	392.578	81.6408	392.578	83.5501	392.578	81.4112	392.578	83.1408	392.578	81.3673	392.578	82.8311	392.578	81.4988	392.578	82.657	392.578	81.7729	392.578	82.6617	392.578	82.1428	392.578	82.8417	392.578	82.5546	392.578	83.1155	392.578	82.9496	392.578	83.3644	392.578	83.2691	392.578	83.4943	392.578	83.4618
405.762	87.0091	405.762	86.6741	405.762	87.1432	405.762	86.163	405.762	87.0646	405.762	85.5091	405.762	86.7803	405.762	84.7523	405.762	86.3218	405.762	83.9386	405.762	85.7454	405.762	83.1212	405.762	85.1256	405.762	82.3606	405.762	84.541	405.762	81.7237	405.762	84.0544	405.762	81.2744	405.762	83.6937	405.762	81.0553	405.762	83.4487	405.762	81.0692	405.762	83.2919	405.762	81.2785	405.762	83.2106	405.762	81.6258	405.762	83.217	405.762	82.0552	405.762	83.3198	405.762	82.5171	405.762	83.4851	405.762	82.962	405.762	83.6349	405.762	83.3359	405.762	83.6858	405.762	83.5877
420.41	87.3512	420.41	87.0178	420.41	87.4809	420.41	86.5023	420.41	87.4016	420.41	85.8394	420.41	87.1276	420.41	85.0736	420.41	86.6928	420.41	84.2549	420.41	86.146	420.41	83.4327	420.41	85.5433	420.41	82.6539	420.41	84.9404	420.41	81.9665	420.41	84.3828	420.41	81.4287	420.41	83.8977	420.41	81.1058	420.41	83.4953	420.41	81.0423	420.41	83.1848	420.41	81.2272	420.41	82.9867	420.41	81.5914	420.41	82.9207	420.41	82.0413	420.41	82.9776	420.41	82.4922	420.41	83.1105	420.41	82.8807	420.41	83.2522	420.41	83.1633	420.41	83.3371	420.41	83.3158
435.059	87.1558	435.059	86.8574	435.059	87.2591	435.059	86.3737	435.059	87.1692	435.059	85.7252	435.059	86.902	435.059	84.9441	435.059	86.4869	435.059	84.0768	435.059	85.9676	435.059	83.1851	435.059	85.4012	435.059	82.343	435.059	84.8546	435.059	81.6287	435.059	84.3822	435.059	81.1142	435.059	83.9963	435.059	80.8537	435.059	83.6721	435.059	80.8711	435.059	83.4049	435.059	81.1471	435.059	83.2585	435.059	81.6197	435.059	83.3205	435.059	82.2004	435.059	83.583	435.059	82.8004	435.059	83.9114	435.059	83.3472	435.059	84.1508	435.059	83.7888	435.059	84.215	435.059	84.088
451.172	87.6346	451.172	87.2747	451.172	87.7863	451.172	86.7339	451.172	87.7154	451.172	86.0479	451.172	87.4241	451.172	85.2554	451.172	86.9278	451.172	84.3949	451.172	86.2524	451.172	83.5035	451.172	85.4374	451.172	82.6182	451.172	84.5516	451.172	81.7793	451.172	83.6994	451.172	81.036	451.172	82.9902	451.172	80.4513	451.172	82.4815	451.172	80.0996	451.172	82.1602	451.172	80.0406	451.172	81.9886	451.172	80.2795	451.172	81.9511	451.172	80.7451	451.172	82.0423	451.172	81.313	451.172	82.2241	451.172	81.8523	451.172	82.4161	451.172	82.2621	451.172	82.5278	451.172	82.4888
465.82	87.3669	465.82	87.031	465.82	87.482	465.82	86.4999	465.82	87.369	465.82	85.8177	465.82	87.0345	465.82	85.0412	465.82	86.4909	465.82	84.2292	465.82	85.7587	465.82	83.4297	465.82	84.8848	465.82	82.6727	465.82	83.9686	465.82	81.9773	465.82	83.1587	465.82	81.3721	465.82	82.5924	465.82	80.9123	465.82	82.3103	465.82	80.6689	465.82	82.2464	465.82	80.6856	465.82	82.3165	465.82	80.9459	465.82	82.495	465.82	81.3859	465.82	82.7841	465.82	81.9255	465.82	83.1261	465.82	82.4839	465.82	83.3957	465.82	82.9796	465.82	83.4793	465.82	83.3327
483.398	87.3595	483.398	87.06	483.398	87.4112	483.398	86.5465	483.398	87.2027	483.398	85.8754	483.398	86.7406	483.398	85.1221	483.398	86.0493	483.398	84.3682	483.398	85.1751	483.398	83.6738	483.398	84.1947	483.398	83.0524	483.398	83.2235	483.398	82.4734	483.398	82.4038	483.398	81.8993	483.398	81.8672	483.398	81.3371	483.398	81.6701	483.398	80.8692	483.398	81.7494	483.398	80.6289	483.398	81.9653	483.398	80.7098	483.398	82.2018	483.398	81.0852	483.398	82.4196	483.398	81.6263	483.398	82.6282	483.398	82.1796	483.398	82.8172	483.398	82.6205	483.398	82.9253	483.398	82.8743
499.512	88.0488	499.512	87.7535	499.512	88.0847	499.512	87.2247	499.512	87.8529	499.512	86.5072	499.512	87.3589	499.512	85.6627	499.512	86.6198	499.512	84.7634	499.512	85.6689	499.512	83.8795	499.512	84.5674	499.512	83.0636	499.512	83.4155	499.512	82.3424	499.512	82.3483	499.512	81.7265	499.512	81.5126	499.512	81.2358	499.512	81.0295	499.512	80.9201	499.512	80.956	499.512	80.8476	499.512	81.2574	499.512	81.0569	499.512	81.8073	499.512	81.5076	499.512	82.4325	499.512	82.0868	499.512	82.9794	499.512	82.663	499.512	83.3505	499.512	83.1312	499.512	83.5014	499.512	83.4233
517.09	88.1355	517.09	87.9087	517.09	88.1262	517.09	87.4633	517.09	87.8775	517.09	86.8309	517.09	87.403	517.09	86.0594	517.09	86.7338	517.09	85.2182	517.09	85.9176	517.09	84.3958	517.09	85.0168	517.09	83.6802	517.09	84.1001	517.09	83.1221	517.09	83.2159	517.09	82.7079	517.09	82.3636	517.09	82.3717	517.09	81.5134	517.09	82.0455	517.09	80.7043	517.09	81.7208	517.09	80.1683	517.09	81.485	517.09	80.2462	517.09	81.4825	517.09	80.9433	517.09	81.7804	517.09	81.8437	517.09	82.2694	517.09	82.569	517.09	82.7381	517.09	82.9629	517.09	83.0045
536.133	88.1797	536.133	87.9078	536.133	88.161	536.133	87.3799	536.133	87.8348	536.133	86.6447	536.133	87.2097	536.133	85.7669	536.133	86.323	536.133	84.8311	536.133	85.2362	536.133	83.9384	536.133	84.0401	536.133	83.1901	536.133	82.8869	536.133	82.6618	536.133	82.0059	536.133	82.3761	536.133	81.5937	536.133	82.2896	536.133	81.6164	536.133	82.3141	536.133	81.7985	536.133	82.3648	536.133	81.8433	536.133	82.4062	536.133	81.6495	536.133	82.4609	536.133	81.4169	536.133	82.5681	536.133	81.4991	536.133	82.7187	536.133	81.9514	536.133	82.8273	536.133	82.4625	536.133	82.7706
555.176	88.32	555.176	88.0884	555.176	88.231	555.176	87.5473	555.176	87.8278	555.176	86.727	555.176	87.1323	555.176	85.6884	555.176	86.167	555.176	84.5391	555.176	84.9419	555.176	83.4341	555.176	83.4864	555.176	82.5334	555.176	81.9297	555.176	81.925	555.176	80.548	555.176	81.5792	555.176	79.6747	555.176	81.3905	555.176	79.5062	555.176	81.2679	555.176	79.9764	555.176	81.1906	555.176	80.7904	555.176	81.2018	555.176	81.5943	555.176	81.3601	555.176	82.163	555.176	81.6726	555.176	82.464	555.176	82.0599	555.176	82.5932	555.176	82.3958	555.176	82.6381	555.176	82.5898
574.219	88.2278	574.219	87.9902	574.219	88.1603	574.219	87.4642	574.219	87.7938	574.219	86.688	574.219	87.1464	574.219	85.718	574.219	86.2232	574.219	84.6276	574.219	85.0135	574.219	83.5072	574.219	83.5458	574.219	82.4588	574.219	81.9554	574.219	81.5838	574.219	80.4672	574.219	80.9599	574.219	79.2908	574.219	80.6148	574.219	78.6058	574.219	80.51	574.219	78.5973	574.219	80.5677	574.219	79.2285	574.219	80.7312	574.219	80.1354	574.219	80.9919	574.219	80.972	574.219	81.348	574.219	81.6078	574.219	81.7485	574.219	82.039	574.219	82.0939	574.219	82.2696	574.219	82.2859
594.727	87.7445	594.727	87.5012	594.727	87.6847	594.727	86.9909	594.727	87.3106	594.727	86.273	594.727	86.6244	594.727	85.42	594.727	85.6316	594.727	84.4998	594.727	84.372	594.727	83.5571	594.727	82.9847	594.727	82.6106	594.727	81.6956	594.727	81.6804	594.727	80.6688	594.727	80.8242	594.727	79.931	594.727	80.1489	594.727	79.4182	594.727	79.7721	594.727	78.9467	594.727	79.7426	594.727	78.3455	594.727	80.007	594.727	77.8825	594.727	80.4706	594.727	78.3342	594.727	81.0529	594.727	79.7063	594.727	81.6538	594.727	81.0886	594.727	82.1186	594.727	81.9631	594.727	82.2724
615.234	87.51	615.234	87.2553	615.234	87.3989	615.234	86.6813	615.234	86.9215	615.234	85.8909	615.234	86.0969	615.234	85.0202	615.234	84.9474	615.234	84.1762	615.234	83.5204	615.234	83.3881	615.234	81.9551	615.234	82.6428	615.234	80.5203	615.234	81.9624	615.234	79.4982	615.234	81.404	615.234	78.9649	615.234	80.9886	615.234	78.8299	615.234	80.6704	615.234	79.094	615.234	80.3912	615.234	79.7284	615.234	80.1785	615.234	80.3982	615.234	80.1701	615.234	80.7871	615.234	80.4729	615.234	80.9674	615.234	80.9937	615.234	81.2174	615.234	81.4759	615.234	81.5441	615.234	81.6835
637.207	87.0983	637.207	86.8224	637.207	86.9901	637.207	86.2005	637.207	86.5103	637.207	85.305	637.207	85.7138	637.207	84.2212	637.207	84.6589	637.207	83.0477	637.207	83.3834	637.207	81.9366	637.207	81.9326	637.207	81.1282	637.207	80.3916	637.207	80.8325	637.207	78.8776	637.207	80.9727	637.207	77.599	637.207	81.2007	637.207	76.896	637.207	81.2018	637.207	76.8467	637.207	80.8664	637.207	77.0659	637.207	80.2803	637.207	77.2377	637.207	79.662	637.207	77.3882	637.207	79.2486	637.207	77.6569	637.207	79.11	637.207	78.0622	637.207	79.0728	637.207	78.5257	637.207	78.9017
659.18	87.8219	659.18	87.6076	659.18	87.6185	659.18	87.009	659.18	86.9878	659.18	86.0906	659.18	85.9377	659.18	84.9476	659.18	84.4837	659.18	83.6992	659.18	82.6519	659.18	82.4876	659.18	80.5715	659.18	81.4601	659.18	78.6238	659.18	80.699	659.18	77.3387	659.18	80.2026	659.18	76.9137	659.18	79.9682	659.18	77.0809	659.18	79.9977	659.18	77.54	659.18	80.2053	659.18	78.0047	659.18	80.4467	659.18	78.195	659.18	80.639	659.18	78.2523	659.18	80.7965	659.18	78.7551	659.18	80.9547	659.18	79.7343	659.18	81.0743	659.18	80.59	659.18	81.014
682.617	87.7823	682.617	87.4297	682.617	87.6793	682.617	86.7247	682.617	87.0905	682.617	85.8175	682.617	86.0302	682.617	84.8235	682.617	84.5032	682.617	83.73	682.617	82.5434	682.617	82.4113	682.617	80.3861	682.617	80.8331	682.617	78.5023	682.617	79.3555	682.617	77.387	682.617	78.671	682.617	77.2048	682.617	78.8707	682.617	77.5795	682.617	79.2846	682.617	78.2834	682.617	79.4886	682.617	79.3426	682.617	79.583	682.617	80.4655	682.617	79.8842	682.617	81.2416	682.617	80.5286	682.617	81.6102	682.617	81.3203	682.617	81.8306	682.617	81.9369	682.617	82.0715	682.617	82.1789
707.52	87.9269	707.52	87.6	707.52	87.8341	707.52	86.9228	707.52	87.3213	707.52	86.0014	707.52	86.422	707.52	84.9061	707.52	85.129	707.52	83.6382	707.52	83.3931	707.52	82.2268	707.52	81.2305	707.52	80.8635	707.52	78.8145	707.52	79.8364	707.52	76.6259	707.52	79.2565	707.52	75.6584	707.52	79.0106	707.52	76.0053	707.52	79.0198	707.52	76.3716	707.52	79.2903	707.52	76.5177	707.52	79.753	707.52	77.2536	707.52	80.2381	707.52	78.4478	707.52	80.6041	707.52	79.2953	707.52	80.8445	707.52	79.8758	707.52	80.9848	707.52	80.4884	707.52	80.9108
732.422	88.104	732.422	88.0285	732.422	87.7351	732.422	87.5054	732.422	86.9649	732.422	86.5676	732.422	85.8047	732.422	85.2621	732.422	84.2026	732.422	83.7291	732.422	82.1594	732.422	82.2952	732.422	79.7954	732.422	81.1898	732.422	77.1526	732.422	80.1948	732.422	74.135	732.422	79.107	732.422	71.7196	732.422	78.3268	732.422	72.6819	732.422	78.2889	732.422	75.446	732.422	78.7703	732.422	77.4449	732.422	79.5507	732.422	78.3252	732.422	80.6124	732.422	78.6246	732.422	81.7578	732.422	78.979	732.422	82.552	732.422	79.8034	732.422	82.6903	732.422	81.0267	732.422	82.1275
757.324	87.733	757.324	87.7313	757.324	87.4721	757.324	87.3705	757.324	86.9966	757.324	86.6316	757.324	86.1948	757.324	85.5591	757.324	84.8791	757.324	84.1945	757.324	82.909	757.324	82.5864	757.324	80.2996	757.324	80.8824	757.324	77.4776	757.324	79.3235	757.324	75.3391	757.324	78.1489	757.324	74.37	757.324	77.7548	757.324	74.0894	757.324	78.3769	757.324	74.8828	757.324	79.2283	757.324	77.1874	757.324	79.5782	757.324	79.2725	757.324	79.6275	757.324	80.2867	757.324	80.0496	757.324	80.7172	757.324	81.0518	757.324	81.4251	757.324	82.0873	757.324	82.2705	757.324	82.5685
785.156	87.185	785.156	87.8914	785.156	86.672	785.156	88.1364	785.156	86.4799	785.156	87.5247	785.156	85.9303	785.156	86.0014	785.156	84.3793	785.156	83.849	785.156	81.6225	785.156	81.9182	785.156	78.0802	785.156	80.9414	785.156	74.9689	785.156	80.4289	785.156	72.8842	785.156	80.0139	785.156	71.9306	785.156	79.9157	785.156	71.5672	785.156	80.0662	785.156	70.9365	785.156	80.0398	785.156	70.1827	785.156	79.8905	785.156	70.206	785.156	79.8003	785.156	72.8023	785.156	79.8314	785.156	76.284	785.156	80.5267	785.156	79.2023	785.156	81.548	785.156	81.1795	785.156	81.94
811.523	88.8303	811.523	87.7937	811.523	88.6434	811.523	86.4579	811.523	86.8449	811.523	86.1068	811.523	83.3332	811.523	86.5784	811.523	79.6763	811.523	86.7563	811.523	79.8	811.523	86.2214	811.523	80.5591	811.523	85.2562	811.523	79.7868	811.523	84.3661	811.523	77.7026	811.523	83.5832	811.523	75.242	811.523	82.5695	811.523	74.2987	811.523	81.6532	811.523	75.2876	811.523	81.3244	811.523	76.2047	811.523	80.8388	811.523	75.695	811.523	80.0166	811.523	74.8484	811.523	79.8946	811.523	76.6081	811.523	80.6834	811.523	78.8732	811.523	81.3465	811.523	80.3593	811.523	81.234
840.82	87.7361	840.82	87.406	840.82	87.9994	840.82	87.4057	840.82	87.4104	840.82	87.2681	840.82	85.4722	840.82	86.4711	840.82	81.9592	840.82	84.9078	840.82	77.4708	840.82	82.7331	840.82	75.9654	840.82	80.0806	840.82	77.3873	840.82	77.149	840.82	77.9999	840.82	75.1486	840.82	77.2568	840.82	75.1823	840.82	75.3792	840.82	76.0435	840.82	72.2657	840.82	77.7275	840.82	67.5722	840.82	79.9623	840.82	72.5075	840.82	81.4533	840.82	77.623	840.82	81.9135	840.82	79.5546	840.82	81.7291	840.82	79.6245	840.82	80.9888	840.82	79.2663	840.82	79.8426
870.117	89.6288	870.117	89.0073	870.117	88.5728	870.117	87.319	870.117	85.755	870.117	85.7628	870.117	82.6715	870.117	85.4106	870.117	81.753	870.117	85.691	870.117	81.3045	870.117	85.6259	870.117	80.1293	870.117	84.834	870.117	78.4455	870.117	83.3484	870.117	76.9574	870.117	81.6714	870.117	76.3737	870.117	80.6445	870.117	76.5676	870.117	80.3138	870.117	77.4171	870.117	80.4536	870.117	77.4901	870.117	81.2974	870.117	74.2845	870.117	82.0248	870.117	70.2199	870.117	81.9809	870.117	78.4709	870.117	81.4267	870.117	81.2005	870.117	80.7738	870.117	81.1146	870.117	80.5379
900.879	89.0229	900.879	88.6902	900.879	89.4255	900.879	88.8146	900.879	88.803	900.879	88.6797	900.879	86.256	900.879	87.5544	900.879	81.0786	900.879	84.9826	900.879	76.2946	900.879	80.5673	900.879	78.3811	900.879	73.9745	900.879	79.3339	900.879	67.9007	900.879	78.5186	900.879	71.2523	900.879	76.4252	900.879	74.997	900.879	72.8247	900.879	77.2695	900.879	64.0797	900.879	78.4327	900.879	66.6483	900.879	78.5772	900.879	75.6242	900.879	78.2486	900.879	78.3901	900.879	79.1031	900.879	78.375	900.879	81.1382	900.879	77.7963	900.879	82.534	900.879	79.9774	900.879	82.2346
933.105	90.3008	933.105	89.5677	933.105	89.6003	933.105	88.1032	933.105	87.41	933.105	86.5668	933.105	85.454	933.105	85.3536	933.105	84.7976	933.105	85.2465	933.105	83.1252	933.105	86.1168	933.105	79.6907	933.105	86.7455	933.105	76.8148	933.105	86.8233	933.105	77.2672	933.105	86.5693	933.105	78.3777	933.105	86.2263	933.105	78.2595	933.105	85.4855	933.105	77.8752	933.105	84.3367	933.105	79.7526	933.105	82.8465	933.105	80.99	933.105	80.0445	933.105	78.8534	933.105	76.552	933.105	74.6975	933.105	78.1054	933.105	78.6827	933.105	81.8327	933.105	82.333	933.105	83.3389
965.332	90.6842	965.332	90.4079	965.332	89.1762	965.332	88.6703	965.332	86.6937	965.332	86.7692	965.332	85.3378	965.332	85.9289	965.332	84.3609	965.332	84.8596	965.332	81.9191	965.332	82.2808	965.332	78.1654	965.332	78.3634	965.332	75.5318	965.332	75.5738	965.332	75.6106	965.332	77.4193	965.332	77.0021	965.332	79.4376	965.332	78.2643	965.332	78.2323	965.332	77.8475	965.332	72.0369	965.332	75.3034	965.332	67.1889	965.332	74.6697	965.332	78.996	965.332	79.4593	965.332	83.0793	965.332	82.3242	965.332	83.964	965.332	81.7486	965.332	82.3782	965.332	77.0746	965.332	77.4911
1,000.49	90.2201	1,000.49	89.6408	1,000.49	89.9559	1,000.49	89.0972	1,000.49	88.0902	1,000.49	88.5059	1,000.49	84.7583	1,000.49	87.0076	1,000.49	81.8594	1,000.49	84.2049	1,000.49	79.6782	1,000.49	81.1826	1,000.49	75.0508	1,000.49	79.8586	1,000.49	64.2137	1,000.49	79.9709	1,000.49	63.3524	1,000.49	80.4653	1,000.49	70.6067	1,000.49	81.246	1,000.49	72.6969	1,000.49	81.8687	1,000.49	72.7886	1,000.49	82.1318	1,000.49	75.1581	1,000.49	81.5203	1,000.49	77.8674	1,000.49	79.1247	1,000.49	77.6433	1,000.49	76.4289	1,000.49	75.5548	1,000.49	78.7931	1,000.49	74.4992	1,000.49	81.6808	1,000.49	79.4423	1,000.49	82.1383
1,035.64	90.5743	1,035.64	90.4269	1,035.64	89.2312	1,035.64	89.2754	1,035.64	86.924	1,035.64	87.9048	1,035.64	85.3043	1,035.64	86.5716	1,035.64	83.8115	1,035.64	84.7664	1,035.64	80.246	1,035.64	82.598	1,035.64	71.721	1,035.64	80.7904	1,035.64	66.8685	1,035.64	79.3482	1,035.64	71.2537	1,035.64	78.3864	1,035.64	70.5807	1,035.64	78.5921	1,035.64	72.5226	1,035.64	78.7439	1,035.64	73.7536	1,035.64	76.8052	1,035.64	71.3671	1,035.64	72.395	1,035.64	72.3138	1,035.64	74.0418	1,035.64	77.1363	1,035.64	79.5255	1,035.64	79.9384	1,035.64	82.1543	1,035.64	78.762	1,035.64	82.158	1,035.64	75.1694	1,035.64	79.4015
1,072.27	89.8465	1,072.27	89.8503	1,072.27	89.0296	1,072.27	89.4641	1,072.27	87.3099	1,072.27	88.5217	1,072.27	84.9649	1,072.27	86.4003	1,072.27	81.4255	1,072.27	83.2677	1,072.27	75.0128	1,072.27	80.5709	1,072.27	65.43	1,072.27	78.7448	1,072.27	68.9769	1,072.27	76.4872	1,072.27	71.0207	1,072.27	73.7383	1,072.27	71.7607	1,072.27	72.3093	1,072.27	70.7881	1,072.27	73.2653	1,072.27	65.5482	1,072.27	74.5287	1,072.27	60.9596	1,072.27	75.0683	1,072.27	68.8092	1,072.27	76.3065	1,072.27	61.8223	1,072.27	78.6122	1,072.27	71.0815	1,072.27	80.1843	1,072.27	77.621	1,072.27	79.976	1,072.27	78.88	1,072.27	78.9201
1,108.89	90.5396	1,108.89	90.4451	1,108.89	88.8815	1,108.89	89.2156	1,108.89	86.1626	1,108.89	88.0144	1,108.89	83.5312	1,108.89	86.6115	1,108.89	80.0162	1,108.89	84.2943	1,108.89	73.345	1,108.89	81.4624	1,108.89	46.9435	1,108.89	78.7765	1,108.89	68.8604	1,108.89	76.8639	1,108.89	73.6842	1,108.89	76.9602	1,108.89	75.137	1,108.89	77.4543	1,108.89	73.7011	1,108.89	76.3482	1,108.89	73.2597	1,108.89	77.2685	1,108.89	72.2387	1,108.89	77.1573	1,108.89	67.7789	1,108.89	75.8257	1,108.89	71.9895	1,108.89	77.1268	1,108.89	77.1898	1,108.89	79.8811	1,108.89	76.4208	1,108.89	81.2041	1,108.89	75.0571	1,108.89	79.9374
1,148.44	89.7757	1,148.44	90.4779	1,148.44	88.1082	1,148.44	89.7078	1,148.44	86.5163	1,148.44	87.8301	1,148.44	83.9801	1,148.44	85.8348	1,148.44	77.8873	1,148.44	84.0637	1,148.44	68.0065	1,148.44	81.9978	1,148.44	75.0057	1,148.44	80.1701	1,148.44	75.3819	1,148.44	79.3179	1,148.44	72.7923	1,148.44	78.5821	1,148.44	72.8502	1,148.44	77.1429	1,148.44	73.7683	1,148.44	75.5044	1,148.44	73.0619	1,148.44	74.7957	1,148.44	69.3468	1,148.44	74.5916	1,148.44	48.9538	1,148.44	75.2605	1,148.44	62.8927	1,148.44	77.7268	1,148.44	66.5718	1,148.44	79.9013	1,148.44	76.5399	1,148.44	79.6334	1,148.44	78.2764	1,148.44	78.0961
1,189.45	89.6047	1,189.45	89.8018	1,189.45	88.3079	1,189.45	89.2923	1,189.45	85.5125	1,189.45	88.2913	1,189.45	80.6054	1,189.45	86.1027	1,189.45	76.6319	1,189.45	81.5399	1,189.45	74.5415	1,189.45	76.8283	1,189.45	67.3853	1,189.45	79.2889	1,189.45	61.0747	1,189.45	82.0212	1,189.45	70.0719	1,189.45	83.3524	1,189.45	70.3753	1,189.45	83.7187	1,189.45	70.0761	1,189.45	82.672	1,189.45	73.6209	1,189.45	80.646	1,189.45	78.263	1,189.45	76.6171	1,189.45	78.6722	1,189.45	69.8993	1,189.45	71.8808	1,189.45	74.5933	1,189.45	74.8191	1,189.45	79.2032	1,189.45	77.1447	1,189.45	80.6353	1,189.45	72.574	1,189.45	77.4889
1,230.47	88.3996	1,230.47	89.046	1,230.47	87.3854	1,230.47	89.203	1,230.47	84.4994	1,230.47	88.1997	1,230.47	79.594	1,230.47	85.6135	1,230.47	78.6131	1,230.47	81.1987	1,230.47	73.7254	1,230.47	75.7871	1,230.47	58.7812	1,230.47	76.881	1,230.47	72.5468	1,230.47	80.0356	1,230.47	77.3677	1,230.47	80.8228	1,230.47	76.8506	1,230.47	81.4307	1,230.47	73.0569	1,230.47	81.3567	1,230.47	69.6294	1,230.47	78.1105	1,230.47	71.3348	1,230.47	71.3771	1,230.47	71.9677	1,230.47	72.3858	1,230.47	65.7091	1,230.47	76.089	1,230.47	63.3412	1,230.47	79.0812	1,230.47	75.0535	1,230.47	78.9537	1,230.47	77.2813	1,230.47	76.1527
1,274.41	86.7046	1,274.41	87.3394	1,274.41	85.6747	1,274.41	87.832	1,274.41	82.373	1,274.41	86.9981	1,274.41	79.1066	1,274.41	84.0885	1,274.41	79.093	1,274.41	79.4608	1,274.41	72.4789	1,274.41	74.6372	1,274.41	70.8112	1,274.41	74.9128	1,274.41	78.0436	1,274.41	77.5131	1,274.41	79.7921	1,274.41	78.1219	1,274.41	78.9938	1,274.41	78.0705	1,274.41	76.7927	1,274.41	78.7681	1,274.41	71.8987	1,274.41	77.0585	1,274.41	64.9743	1,274.41	72.7253	1,274.41	74.424	1,274.41	73.767	1,274.41	72.6157	1,274.41	75.3975	1,274.41	60.3158	1,274.41	75.4927	1,274.41	70.8641	1,274.41	75.8368	1,274.41	74.7772	1,274.41	75.6117
1,319.82	85.9432	1,319.82	86.1042	1,319.82	84.404	1,319.82	86.1052	1,319.82	81.6085	1,319.82	85.5094	1,319.82	80.8784	1,319.82	82.786	1,319.82	77.3822	1,319.82	77.7967	1,319.82	71.7951	1,319.82	74.0405	1,319.82	75.1386	1,319.82	72.5707	1,319.82	75.8206	1,319.82	73.7642	1,319.82	77.2963	1,319.82	76.4145	1,319.82	77.7265	1,319.82	76.0653	1,319.82	77.2252	1,319.82	75.7128	1,319.82	75.6128	1,319.82	75.2936	1,319.82	62.7395	1,319.82	72.5723	1,319.82	69.5304	1,319.82	74.1875	1,319.82	66.3589	1,319.82	73.6015	1,319.82	69.549	1,319.82	72.3556	1,319.82	70.9342	1,319.82	73.3423	1,319.82	74.4065	1,319.82	74.7726
1,366.7	85.0534	1,366.7	86.0712	1,366.7	83.9284	1,366.7	85.3685	1,366.7	83.2496	1,366.7	83.4105	1,366.7	80.8734	1,366.7	81.4477	1,366.7	74.7181	1,366.7	78.4128	1,366.7	73.6709	1,366.7	72.5378	1,366.7	75.6933	1,366.7	63.2562	1,366.7	74.866	1,366.7	68.42	1,366.7	74.512	1,366.7	74.8133	1,366.7	75.6868	1,366.7	75.3211	1,366.7	77.8751	1,366.7	74.6505	1,366.7	78.0082	1,366.7	74.5623	1,366.7	75.3764	1,366.7	69.3274	1,366.7	65.8606	1,366.7	73.1012	1,366.7	71.4942	1,366.7	74.8321	1,366.7	71.5954	1,366.7	74.1548	1,366.7	70.0276	1,366.7	75.1288	1,366.7	73.6005	1,366.7	74.8608
1,413.57	85.945	1,413.57	85.4754	1,413.57	84.737	1,413.57	84.404	1,413.57	82.6384	1,413.57	83.37	1,413.57	80.3327	1,413.57	80.7361	1,413.57	73.9385	1,413.57	74.9552	1,413.57	67.364	1,413.57	69.092	1,413.57	69.3319	1,413.57	67.5371	1,413.57	74.758	1,413.57	64.5868	1,413.57	75.9054	1,413.57	62.9256	1,413.57	74.7384	1,413.57	63.0891	1,413.57	74.7388	1,413.57	61.8882	1,413.57	74.3161	1,413.57	63.3228	1,413.57	68.3322	1,413.57	68.0078	1,413.57	64.0715	1,413.57	70.7365	1,413.57	63.1665	1,413.57	72.2554	1,413.57	66.1588	1,413.57	72.3076	1,413.57	72.4797	1,413.57	72.5254	1,413.57	73.5207	1,413.57	72.7491
1,463.38	86.012	1,463.38	85.7808	1,463.38	85.0739	1,463.38	84.9444	1,463.38	82.4303	1,463.38	83.0246	1,463.38	78.4722	1,463.38	79.1611	1,463.38	73.5434	1,463.38	76.2506	1,463.38	37.86	1,463.38	76.4019	1,463.38	75.5158	1,463.38	72.5318	1,463.38	78.7546	1,463.38	65.7364	1,463.38	78.2447	1,463.38	67.7406	1,463.38	76.9094	1,463.38	64.0409	1,463.38	75.1393	1,463.38	63.0823	1,463.38	74.8897	1,463.38	63.5467	1,463.38	67.1278	1,463.38	66.1267	1,463.38	73.2309	1,463.38	72.0009	1,463.38	69.0744	1,463.38	71.0281	1,463.38	66.6806	1,463.38	70.2668	1,463.38	71.6974	1,463.38	72.0738	1,463.38	71.9786	1,463.38	72.662
1,516.11	85.834	1,516.11	85.8482	1,516.11	85.8143	1,516.11	84.8655	1,516.11	82.9231	1,516.11	80.7425	1,516.11	76.8689	1,516.11	76.6071	1,516.11	66.8708	1,516.11	74.3655	1,516.11	70.9409	1,516.11	72.2674	1,516.11	76.9236	1,516.11	66.923	1,516.11	77.0627	1,516.11	57.8625	1,516.11	74.7821	1,516.11	64.6099	1,516.11	74.8282	1,516.11	65.7735	1,516.11	75.5215	1,516.11	64.0509	1,516.11	76.2217	1,516.11	66.8982	1,516.11	75.2562	1,516.11	61.8354	1,516.11	69.5947	1,516.11	68.6855	1,516.11	64.4463	1,516.11	73.5453	1,516.11	62.7711	1,516.11	70.8399	1,516.11	70.3264	1,516.11	69.9622	1,516.11	72.4912	1,516.11	71.8278
1,568.85	86.3745	1,568.85	86.0127	1,568.85	85.4523	1,568.85	85.257	1,568.85	81.6997	1,568.85	81.4207	1,568.85	76.9917	1,568.85	73.9307	1,568.85	56.8241	1,568.85	72.9002	1,568.85	78.4038	1,568.85	72.6275	1,568.85	79.1193	1,568.85	71.9204	1,568.85	76.7516	1,568.85	69.8534	1,568.85	73.6221	1,568.85	63.4542	1,568.85	73.1892	1,568.85	68.5997	1,568.85	73.4577	1,568.85	68.2989	1,568.85	76.5019	1,568.85	59.1183	1,568.85	74.0121	1,568.85	57.2127	1,568.85	70.0693	1,568.85	66.1032	1,568.85	70.4978	1,568.85	67.9562	1,568.85	64.2284	1,568.85	71.7498	1,568.85	70.7317	1,568.85	73.1882	1,568.85	72.1049	1,568.85	71.622
1,624.51	86.5453	1,624.51	86.0561	1,624.51	83.7737	1,624.51	85.2711	1,624.51	80.5835	1,624.51	83.998	1,624.51	76.6581	1,624.51	77.5309	1,624.51	70.9058	1,624.51	72.2392	1,624.51	79.9523	1,624.51	74.7376	1,624.51	76.4208	1,624.51	75.9633	1,624.51	72.5933	1,624.51	75.4573	1,624.51	75.1681	1,624.51	69.3093	1,624.51	77.8259	1,624.51	70.0853	1,624.51	74.0871	1,624.51	74.8267	1,624.51	74.7166	1,624.51	68.4015	1,624.51	71.043	1,624.51	65.9323	1,624.51	73.0506	1,624.51	61.073	1,624.51	70.6465	1,624.51	67.7151	1,624.51	65.9239	1,624.51	72.5949	1,624.51	68.3109	1,624.51	71.8115	1,624.51	72.347	1,624.51	67.9935
1,681.64	86.4648	1,681.64	87.0533	1,681.64	85.4427	1,681.64	84.9568	1,681.64	82.1736	1,681.64	82.2205	1,681.64	71.7478	1,681.64	79.7901	1,681.64	75.4216	1,681.64	56.8657	1,681.64	77.4334	1,681.64	74.3483	1,681.64	76.8239	1,681.64	74.75	1,681.64	81.5826	1,681.64	74.715	1,681.64	82.5104	1,681.64	72.1215	1,681.64	82.239	1,681.64	61.5076	1,681.64	78.9076	1,681.64	71.4521	1,681.64	77.0175	1,681.64	68.9339	1,681.64	76.3157	1,681.64	58.2518	1,681.64	73.6519	1,681.64	59.9555	1,681.64	69.0346	1,681.64	68.9416	1,681.64	72.5008	1,681.64	74.0937	1,681.64	71.7114	1,681.64	73.3698	1,681.64	69.9305	1,681.64	69.2255
1,741.7	87.6806	1,741.7	86.8759	1,741.7	84.8554	1,741.7	84.7148	1,741.7	83.196	1,741.7	83.8739	1,741.7	74.3279	1,741.7	75.0144	1,741.7	76.7431	1,741.7	73.5364	1,741.7	79.6749	1,741.7	73.992	1,741.7	77.3397	1,741.7	76.4881	1,741.7	81.8081	1,741.7	74.6104	1,741.7	81.7678	1,741.7	64.8456	1,741.7	79.6981	1,741.7	69.1011	1,741.7	79.3986	1,741.7	69.4127	1,741.7	78.6753	1,741.7	75.0784	1,741.7	77.418	1,741.7	68.7617	1,741.7	76.7353	1,741.7	57.7899	1,741.7	69.0721	1,741.7	69.2455	1,741.7	73.9906	1,741.7	76.285	1,741.7	73.121	1,741.7	70.8989	1,741.7	74.2767	1,741.7	69.283
1,803.22	87.3714	1,803.22	87.2789	1,803.22	86.9357	1,803.22	84.8264	1,803.22	83.6167	1,803.22	81.5823	1,803.22	67.6219	1,803.22	74.4989	1,803.22	78.0873	1,803.22	75.0996	1,803.22	79.746	1,803.22	76.7064	1,803.22	85.8157	1,803.22	79.1741	1,803.22	85.0314	1,803.22	78.8967	1,803.22	81.6053	1,803.22	76.2061	1,803.22	80.8449	1,803.22	72.2832	1,803.22	77.1943	1,803.22	67.113	1,803.22	78.7527	1,803.22	71.9755	1,803.22	77.557	1,803.22	73.982	1,803.22	74.0464	1,803.22	64.5526	1,803.22	73.0833	1,803.22	72.9369	1,803.22	74.6245	1,803.22	74.9761	1,803.22	75.9547	1,803.22	63.2152	1,803.22	67.5082	1,803.22	73.6896
1,866.21	87.1694	1,866.21	87.2452	1,866.21	86.3741	1,866.21	87.1682	1,866.21	83.272	1,866.21	80.1979	1,866.21	71.6882	1,866.21	73.529	1,866.21	78.6216	1,866.21	47.192	1,866.21	81.9153	1,866.21	72.7361	1,866.21	85.7172	1,866.21	72.0108	1,866.21	83.6562	1,866.21	69.5956	1,866.21	71.7535	1,866.21	76.6159	1,866.21	70.432	1,866.21	73.876	1,866.21	44.6827	1,866.21	70.8321	1,866.21	63.816	1,866.21	75.5507	1,866.21	79.4535	1,866.21	75.3411	1,866.21	77.2509	1,866.21	66.6188	1,866.21	69.0932	1,866.21	74.9674	1,866.21	68.1465	1,866.21	73.9745	1,866.21	78.0268	1,866.21	68.8922	1,866.21	68.0163	1,866.21	74.2897
1,932.13	86.546	1,932.13	87.0603	1,932.13	85.4095	1,932.13	85.8664	1,932.13	81.855	1,932.13	79.8121	1,932.13	73.8144	1,932.13	70.9134	1,932.13	80.0198	1,932.13	52.2462	1,932.13	83.7155	1,932.13	67.1366	1,932.13	85.2657	1,932.13	63.3946	1,932.13	84.4524	1,932.13	69.2187	1,932.13	80.0287	1,932.13	70.1836	1,932.13	74.2548	1,932.13	68.278	1,932.13	63.3904	1,932.13	60.0605	1,932.13	74.6026	1,932.13	67.6683	1,932.13	75.0261	1,932.13	69.4188	1,932.13	72.5001	1,932.13	60.8838	1,932.13	66.787	1,932.13	67.8871	1,932.13	65.6758	1,932.13	69.1401	1,932.13	72.4662	1,932.13	68.1685	1,932.13	72.1872	1,932.13	69.5968
1,999.51	87.8894	1,999.51	86.9174	1,999.51	86.6775	1,999.51	84.1589	1,999.51	82.3501	1,999.51	79.2885	1,999.51	76.0041	1,999.51	72.9633	1,999.51	79.5728	1,999.51	54.9944	1,999.51	83.4281	1,999.51	69.2184	1,999.51	85.0844	1,999.51	72.0531	1,999.51	84.7005	1,999.51	72.6515	1,999.51	79.8463	1,999.51	71.0417	1,999.51	68.919	1,999.51	71.5751	1,999.51	62.8638	1,999.51	71.3858	1,999.51	72.794	1,999.51	51.6177	1,999.51	72.8958	1,999.51	70.2539	1,999.51	72.2678	1,999.51	64.9696	1,999.51	68.7676	1,999.51	68.9607	1,999.51	60.5072	1,999.51	71.6591	1,999.51	71.7172	1,999.51	65.7519	1,999.51	73.0294	1,999.51	66.4421
2,069.82	88.3606	2,069.82	87.3375	2,069.82	87.3114	2,069.82	83.8366	2,069.82	83.4835	2,069.82	79.8241	2,069.82	72.8276	2,069.82	72.9173	2,069.82	81.1451	2,069.82	66.6146	2,069.82	84.1695	2,069.82	73.2042	2,069.82	85.5941	2,069.82	74.6422	2,069.82	84.5522	2,069.82	69.5556	2,069.82	80.7781	2,069.82	65.7195	2,069.82	73.5677	2,069.82	66.0536	2,069.82	62.79	2,069.82	71.1861	2,069.82	72.2772	2,069.82	68.2593	2,069.82	72.7627	2,069.82	66.8696	2,069.82	71.8108	2,069.82	65.9852	2,069.82	71.2255	2,069.82	66.8887	2,069.82	63.2062	2,069.82	72.1181	2,069.82	69.7127	2,069.82	67.201	2,069.82	71.3414	2,069.82	67.2641
2,143.07	87.5519	2,143.07	86.819	2,143.07	86.8096	2,143.07	84.679	2,143.07	82.0305	2,143.07	80.0505	2,143.07	67.2898	2,143.07	68.2059	2,143.07	82.0993	2,143.07	70.1609	2,143.07	84.0645	2,143.07	71.7115	2,143.07	85.0062	2,143.07	73.8191	2,143.07	84.5087	2,143.07	74.9198	2,143.07	81.981	2,143.07	70.8918	2,143.07	74.86	2,143.07	68.7071	2,143.07	61.5204	2,143.07	70.7497	2,143.07	71.4331	2,143.07	69.1613	2,143.07	72.2923	2,143.07	62.1939	2,143.07	72.3468	2,143.07	67.508	2,143.07	70.7842	2,143.07	63.1378	2,143.07	63.5577	2,143.07	73.2582	2,143.07	70.0002	2,143.07	67.168	2,143.07	70.4845	2,143.07	59.855
2,219.24	87.1413	2,219.24	85.6156	2,219.24	85.9876	2,219.24	84.2013	2,219.24	78.2867	2,219.24	79.8065	2,219.24	77.0831	2,219.24	51.8383	2,219.24	82.9806	2,219.24	71.368	2,219.24	83.8212	2,219.24	67.3775	2,219.24	83.986	2,219.24	72.718	2,219.24	84.4406	2,219.24	68.1664	2,219.24	81.311	2,219.24	69.2149	2,219.24	76.2048	2,219.24	65.5271	2,219.24	59.1905	2,219.24	69.1234	2,219.24	71.8602	2,219.24	71.8416	2,219.24	72.0715	2,219.24	58.6853	2,219.24	73.1797	2,219.24	65.1078	2,219.24	70.5399	2,219.24	59.4856	2,219.24	64.184	2,219.24	72.7322	2,219.24	62.3877	2,219.24	68.0179	2,219.24	69.3384	2,219.24	67.8573
2,296.88	87.6135	2,296.88	85.5668	2,296.88	87.3221	2,296.88	83.7547	2,296.88	80.4862	2,296.88	79.0049	2,296.88	79.1242	2,296.88	72.3962	2,296.88	84.3055	2,296.88	66.4044	2,296.88	83.5022	2,296.88	67.8343	2,296.88	83.4508	2,296.88	67.6947	2,296.88	82.8919	2,296.88	74.8403	2,296.88	81.7972	2,296.88	76.1904	2,296.88	78.2589	2,296.88	72.0766	2,296.88	64.3861	2,296.88	61.9791	2,296.88	73.6446	2,296.88	71.8339	2,296.88	71.9272	2,296.88	68.6879	2,296.88	72.1927	2,296.88	67.5358	2,296.88	69.0046	2,296.88	57.6299	2,296.88	65.3587	2,296.88	71.2025	2,296.88	62.0822	2,296.88	69.667	2,296.88	71.4686	2,296.88	70.242
2,378.91	87.7757	2,378.91	85.3791	2,378.91	87.7715	2,378.91	82.6068	2,378.91	80.2275	2,378.91	78.3106	2,378.91	81.2018	2,378.91	74.387	2,378.91	85.3831	2,378.91	47.9852	2,378.91	83.6938	2,378.91	75.209	2,378.91	81.5849	2,378.91	75.7307	2,378.91	82.0064	2,378.91	73.8165	2,378.91	83.7759	2,378.91	70.2397	2,378.91	79.5096	2,378.91	72.8366	2,378.91	64.9316	2,378.91	71.9804	2,378.91	69.6784	2,378.91	69.7956	2,378.91	71.9989	2,378.91	70.7373	2,378.91	70.7508	2,378.91	66.758	2,378.91	69.8783	2,378.91	62.2954	2,378.91	68.8074	2,378.91	69.8243	2,378.91	61.7092	2,378.91	67.8992	2,378.91	72.3114	2,378.91	68.4803
2,462.4	86.9936	2,462.4	84.6603	2,462.4	87.5675	2,462.4	83.3904	2,462.4	80.1344	2,462.4	79.6369	2,462.4	82.0313	2,462.4	72.6945	2,462.4	86.4136	2,462.4	72.0976	2,462.4	82.8944	2,462.4	76.6383	2,462.4	80.2459	2,462.4	75.4769	2,462.4	82.7384	2,462.4	77.2811	2,462.4	82.8232	2,462.4	74.8695	2,462.4	79.5939	2,462.4	74.2217	2,462.4	73.2519	2,462.4	74.1902	2,462.4	68.6514	2,462.4	70.2124	2,462.4	69.9233	2,462.4	71.4165	2,462.4	70.7072	2,462.4	67.8331	2,462.4	67.9781	2,462.4	64.6942	2,462.4	67.9049	2,462.4	69.7798	2,462.4	60.8357	2,462.4	65.9789	2,462.4	72.8096	2,462.4	66.5709
2,548.83	87.3371	2,548.83	83.1837	2,548.83	87.4953	2,548.83	83.2351	2,548.83	78.9459	2,548.83	82.0622	2,548.83	82.207	2,548.83	68.487	2,548.83	86.1255	2,548.83	75.6485	2,548.83	81.739	2,548.83	75.8777	2,548.83	80.252	2,548.83	78.1034	2,548.83	81.1075	2,548.83	74.8893	2,548.83	85.6055	2,548.83	74.6496	2,548.83	80.6413	2,548.83	73.429	2,548.83	77.9144	2,548.83	75.6598	2,548.83	72.3381	2,548.83	73.3964	2,548.83	69.2629	2,548.83	70.0015	2,548.83	71.4558	2,548.83	67.8861	2,548.83	71.3282	2,548.83	68.2212	2,548.83	68.2987	2,548.83	71.5455	2,548.83	61.6003	2,548.83	63.2471	2,548.83	72.4824	2,548.83	67.8628
2,639.65	86.6505	2,639.65	83.4835	2,639.65	86.8513	2,639.65	84.0534	2,639.65	74.7678	2,639.65	82.0108	2,639.65	82.9217	2,639.65	66.768	2,639.65	85.4101	2,639.65	72.3887	2,639.65	82.1936	2,639.65	78.0453	2,639.65	78.4918	2,639.65	79.885	2,639.65	81.9867	2,639.65	80.0208	2,639.65	84.9241	2,639.65	78.2389	2,639.65	79.5446	2,639.65	75.0768	2,639.65	77.6107	2,639.65	72.243	2,639.65	70.6091	2,639.65	74.8253	2,639.65	68.259	2,639.65	71.5507	2,639.65	66.7735	2,639.65	70.6955	2,639.65	72.5424	2,639.65	65.2763	2,639.65	63.0692	2,639.65	71.5424	2,639.65	57.2428	2,639.65	60.9383	2,639.65	71.0443	2,639.65	67.9178
2,731.93	86.4669	2,731.93	82.9755	2,731.93	85.4216	2,731.93	83.9384	2,731.93	63.5224	2,731.93	80.8849	2,731.93	83.8498	2,731.93	64.503	2,731.93	84.3824	2,731.93	76.6737	2,731.93	81.6217	2,731.93	81.6364	2,731.93	80.3351	2,731.93	81.2764	2,731.93	81.415	2,731.93	78.0982	2,731.93	82.8893	2,731.93	76.9256	2,731.93	80.9972	2,731.93	74.8146	2,731.93	79.0903	2,731.93	74.1573	2,731.93	69.6425	2,731.93	74.7559	2,731.93	60.4901	2,731.93	73.2221	2,731.93	58.8849	2,731.93	68.5967	2,731.93	66.9707	2,731.93	67.7772	2,731.93	63.6507	2,731.93	71.8893	2,731.93	53.0563	2,731.93	63.2393	2,731.93	69.9889	2,731.93	71.474
2,828.61	86.3189	2,828.61	81.8736	2,828.61	85.4156	2,828.61	84.4884	2,828.61	64.6166	2,828.61	81.106	2,828.61	83.878	2,828.61	63.5595	2,828.61	83.7233	2,828.61	79.1172	2,828.61	81.5931	2,828.61	81.8401	2,828.61	78.5832	2,828.61	80.7219	2,828.61	80.4187	2,828.61	79.2066	2,828.61	81.3199	2,828.61	76.8012	2,828.61	81.6127	2,828.61	76.8132	2,828.61	77.7605	2,828.61	75.2394	2,828.61	72.462	2,828.61	73.5177	2,828.61	60.351	2,828.61	73.8515	2,828.61	54.5954	2,828.61	68.5896	2,828.61	67.3925	2,828.61	68.796	2,828.61	61.68	2,828.61	68.5032	2,828.61	61.5533	2,828.61	63.9043	2,828.61	66.0348	2,828.61	68.414
2,928.22	85.966	2,928.22	81.5317	2,928.22	84.9298	2,928.22	84.3128	2,928.22	59.7085	2,928.22	81.2024	2,928.22	84.2522	2,928.22	64.6457	2,928.22	83.7377	2,928.22	79.8482	2,928.22	78.7339	2,928.22	81.6791	2,928.22	77.8572	2,928.22	78.9125	2,928.22	79.1081	2,928.22	77.7905	2,928.22	77.9069	2,928.22	76.0501	2,928.22	81.7007	2,928.22	71.6679	2,928.22	74.0346	2,928.22	73.1561	2,928.22	70.3874	2,928.22	72.5764	2,928.22	48.6992	2,928.22	71.8476	2,928.22	63.6123	2,928.22	68.3063	2,928.22	66.9871	2,928.22	68.3871	2,928.22	64.8083	2,928.22	69.4637	2,928.22	62.1206	2,928.22	61.2849	2,928.22	66.4476	2,928.22	69.2235
3,030.76	86.1665	3,030.76	81.3438	3,030.76	83.5693	3,030.76	84.5571	3,030.76	70.2129	3,030.76	78.3649	3,030.76	84.2235	3,030.76	72.3739	3,030.76	82.4358	3,030.76	81.7872	3,030.76	79.154	3,030.76	81.1837	3,030.76	77.2285	3,030.76	79.4309	3,030.76	77.6911	3,030.76	76.8934	3,030.76	75.9269	3,030.76	69.8192	3,030.76	79.9611	3,030.76	68.7447	3,030.76	65.5758	3,030.76	69.7014	3,030.76	59.1879	3,030.76	71.0759	3,030.76	62.9065	3,030.76	70.7082	3,030.76	61.8309	3,030.76	68.5022	3,030.76	64.9388	3,030.76	67.0767	3,030.76	64.3689	3,030.76	68.3747	3,030.76	57.928	3,030.76	62.3027	3,030.76	66.373	3,030.76	66.7929
3,137.7	86.8969	3,137.7	81.3389	3,137.7	84.1126	3,137.7	84.3034	3,137.7	74.6903	3,137.7	77.5389	3,137.7	84.4192	3,137.7	75.8782	3,137.7	81.2951	3,137.7	82.2585	3,137.7	78.7102	3,137.7	81.0954	3,137.7	77.9724	3,137.7	78.3325	3,137.7	76.4797	3,137.7	69.0756	3,137.7	77.0592	3,137.7	70.4867	3,137.7	76.116	3,137.7	68.7418	3,137.7	47.3649	3,137.7	68.9486	3,137.7	61.0658	3,137.7	69.3819	3,137.7	66.7734	3,137.7	70.7028	3,137.7	65.3323	3,137.7	68.5639	3,137.7	61.2934	3,137.7	64.9246	3,137.7	63.2993	3,137.7	68.5608	3,137.7	58.7157	3,137.7	62.8494	3,137.7	65.9938	3,137.7	65.6039
3,249.02	86.5293	3,249.02	79.8624	3,249.02	84.5427	3,249.02	84.2364	3,249.02	76.6236	3,249.02	76.3165	3,249.02	84.8977	3,249.02	78.4646	3,249.02	79.7588	3,249.02	82.0571	3,249.02	76.4548	3,249.02	80.382	3,249.02	77.951	3,249.02	75.5157	3,249.02	75.7426	3,249.02	72.4732	3,249.02	76.9089	3,249.02	68.3301	3,249.02	70.2287	3,249.02	62.6963	3,249.02	65.9673	3,249.02	63.4627	3,249.02	65.4237	3,249.02	67.9199	3,249.02	64.2587	3,249.02	70.2907	3,249.02	65.0932	3,249.02	67.4944	3,249.02	52.2464	3,249.02	66.5809	3,249.02	61.1536	3,249.02	68.1938	3,249.02	62.1144	3,249.02	63.2674	3,249.02	64.2683	3,249.02	68.3926
3,363.28	86.2063	3,363.28	79.7322	3,363.28	84.7769	3,363.28	84.7837	3,363.28	77.4839	3,363.28	73.8193	3,363.28	84.8163	3,363.28	80.5758	3,363.28	77.5806	3,363.28	82.5975	3,363.28	76.1053	3,363.28	79.311	3,363.28	78.1098	3,363.28	73.8141	3,363.28	76.0541	3,363.28	67.8486	3,363.28	73.331	3,363.28	63.746	3,363.28	70.1336	3,363.28	66.4923	3,363.28	71.4886	3,363.28	62.9855	3,363.28	70.2416	3,363.28	65.2452	3,363.28	62.4443	3,363.28	70.2693	3,363.28	63.1498	3,363.28	67.6264	3,363.28	57.2017	3,363.28	67.9648	3,363.28	65.4057	3,363.28	64.5023	3,363.28	64.3174	3,363.28	67.1672	3,363.28	63.9029	3,363.28	65.6249
3,481.93	86.4944	3,481.93	79.6807	3,481.93	84.373	3,481.93	85.2486	3,481.93	79.8862	3,481.93	69.8262	3,481.93	84.7207	3,481.93	82.1548	3,481.93	75.8989	3,481.93	81.906	3,481.93	75.3867	3,481.93	77.0131	3,481.93	79.177	3,481.93	66.9189	3,481.93	76.0443	3,481.93	70.1317	3,481.93	71.1164	3,481.93	67.208	3,481.93	73.4425	3,481.93	67.1286	3,481.93	72.2434	3,481.93	65.8045	3,481.93	71.1428	3,481.93	64.6822	3,481.93	61.3305	3,481.93	67.2179	3,481.93	64.3584	3,481.93	69.7104	3,481.93	57.3618	3,481.93	66.8596	3,481.93	63.8405	3,481.93	66.5272	3,481.93	63.4177	3,481.93	67.0556	3,481.93	65.8006	3,481.93	65.7803
3,604.98	86.4695	3,604.98	80.1697	3,604.98	83.5676	3,604.98	85.6147	3,604.98	81.8636	3,604.98	72.2844	3,604.98	84.0284	3,604.98	83.6391	3,604.98	72.1405	3,604.98	81.7714	3,604.98	76.0816	3,604.98	74.6157	3,604.98	78.4946	3,604.98	73.2028	3,604.98	76.6774	3,604.98	73.3877	3,604.98	69.8836	3,604.98	71.757	3,604.98	66.3019	3,604.98	72.3818	3,604.98	67.7323	3,604.98	69.6388	3,604.98	70.1019	3,604.98	68.8188	3,604.98	45.7087	3,604.98	70.5827	3,604.98	66.6362	3,604.98	70.9866	3,604.98	61.6889	3,604.98	69.5556	3,604.98	60.3221	3,604.98	67.8678	3,604.98	63.8048	3,604.98	67.8526	3,604.98	66.2593	3,604.98	67.5394
3,732.42	87.4715	3,732.42	81.0299	3,732.42	84.1306	3,732.42	85.6989	3,732.42	83.1191	3,732.42	78.0176	3,732.42	83.5984	3,732.42	84.0907	3,732.42	68.3615	3,732.42	81.1478	3,732.42	75.4724	3,732.42	75.2622	3,732.42	76.6126	3,732.42	75.6612	3,732.42	76.033	3,732.42	76.2543	3,732.42	72.1312	3,732.42	73.2292	3,732.42	67.8456	3,732.42	71.7957	3,732.42	71.9082	3,732.42	71.5182	3,732.42	66.2373	3,732.42	69.7708	3,732.42	57.0246	3,732.42	71.4242	3,732.42	66.2099	3,732.42	72.3686	3,732.42	65.2024	3,732.42	69.9513	3,732.42	60.4691	3,732.42	69.1751	3,732.42	62.8626	3,732.42	68.1163	3,732.42	66.2426	3,732.42	67.5806
3,864.26	87.2599	3,864.26	83.6166	3,864.26	85.3493	3,864.26	85.7132	3,864.26	83.3967	3,864.26	80.527	3,864.26	84.2449	3,864.26	83.4003	3,864.26	62.5902	3,864.26	80.7116	3,864.26	74.2921	3,864.26	77.9301	3,864.26	76.8705	3,864.26	77.2826	3,864.26	75.897	3,864.26	76.2814	3,864.26	74.1105	3,864.26	69.6805	3,864.26	71.949	3,864.26	72.1099	3,864.26	76.2291	3,864.26	67.8772	3,864.26	66.4383	3,864.26	70.7787	3,864.26	51.4032	3,864.26	70.8093	3,864.26	64.7937	3,864.26	72.0729	3,864.26	65.0255	3,864.26	69.66	3,864.26	58.4226	3,864.26	70.8414	3,864.26	58.6898	3,864.26	67.9133	3,864.26	65.634	3,864.26	67.8083
4,000.49	86.3603	4,000.49	84.7324	4,000.49	85.3087	4,000.49	85.566	4,000.49	84.513	4,000.49	80.7907	4,000.49	84.3191	4,000.49	83.619	4,000.49	74.4264	4,000.49	81.2064	4,000.49	72.4219	4,000.49	77.9438	4,000.49	76.942	4,000.49	73.7155	4,000.49	74.2692	4,000.49	71.7318	4,000.49	74.4838	4,000.49	68.1656	4,000.49	73.7116	4,000.49	68.5345	4,000.49	76.1054	4,000.49	65.2783	4,000.49	64.3553	4,000.49	66.482	4,000.49	53.3652	4,000.49	69.2147	4,000.49	64.936	4,000.49	71.9613	4,000.49	65.48	4,000.49	66.2322	4,000.49	58.9615	4,000.49	70.3788	4,000.49	56.6013	4,000.49	64.8084	4,000.49	63.3404	4,000.49	69.2379
4,141.11	85.0063	4,141.11	85.0552	4,141.11	85.2981	4,141.11	82.8682	4,141.11	85.0299	4,141.11	84.0176	4,141.11	84.1111	4,141.11	83.7006	4,141.11	77.9675	4,141.11	79.0815	4,141.11	71.7419	4,141.11	74.8987	4,141.11	77.5475	4,141.11	69.9274	4,141.11	71.252	4,141.11	72.6619	4,141.11	76.8319	4,141.11	66.3421	4,141.11	75.3896	4,141.11	68.8931	4,141.11	65.5215	4,141.11	66.8801	4,141.11	52.2916	4,141.11	66.3072	4,141.11	58.4007	4,141.11	67.2166	4,141.11	58.8666	4,141.11	72.9068	4,141.11	67.0287	4,141.11	68.1508	4,141.11	45.7837	4,141.11	71.2295	4,141.11	61.7162	4,141.11	64.0038	4,141.11	59.6605	4,141.11	71.0568
4,287.6	82.6385	4,287.6	85.475	4,287.6	84.0907	4,287.6	80.4348	4,287.6	85.6262	4,287.6	85.3355	4,287.6	83.7151	4,287.6	81.9313	4,287.6	80.0935	4,287.6	77.7951	4,287.6	66.2949	4,287.6	75.3204	4,287.6	75.6496	4,287.6	70.9351	4,287.6	65.3856	4,287.6	75.3558	4,287.6	78.7479	4,287.6	71.8734	4,287.6	72.0446	4,287.6	70.507	4,287.6	69.9764	4,287.6	68.4454	4,287.6	60.6627	4,287.6	68.0115	4,287.6	64.827	4,287.6	66.3901	4,287.6	61.8005	4,287.6	72.635	4,287.6	69.9749	4,287.6	71.7555	4,287.6	57.3296	4,287.6	69.5808	4,287.6	62.6463	4,287.6	67.133	4,287.6	60.5968	4,287.6	70.5516
4,438.48	79.465	4,438.48	85.4838	4,438.48	84.4687	4,438.48	81.3197	4,438.48	82.7667	4,438.48	84.7705	4,438.48	84.2423	4,438.48	79.2317	4,438.48	78.2214	4,438.48	75.2444	4,438.48	72.385	4,438.48	77.432	4,438.48	70.6568	4,438.48	73.8515	4,438.48	74.2207	4,438.48	72.9394	4,438.48	77.1308	4,438.48	69.3493	4,438.48	66.6172	4,438.48	68.5153	4,438.48	71.273	4,438.48	66.819	4,438.48	67.175	4,438.48	66.2013	4,438.48	55.3174	4,438.48	66.1504	4,438.48	66.2683	4,438.48	69.574	4,438.48	68.8354	4,438.48	71.7844	4,438.48	61.5218	4,438.48	67.3815	4,438.48	57.654	4,438.48	68.7576	4,438.48	63.7908	4,438.48	68.1416
4,595.21	80.1934	4,595.21	83.7045	4,595.21	83.348	4,595.21	81.9084	4,595.21	82.5537	4,595.21	82.6586	4,595.21	78.935	4,595.21	78.4893	4,595.21	79.1289	4,595.21	78.0978	4,595.21	73.1651	4,595.21	75.5767	4,595.21	74.4833	4,595.21	72.6861	4,595.21	77.2393	4,595.21	74.5992	4,595.21	72.6992	4,595.21	69.1062	4,595.21	69.4775	4,595.21	67.4289	4,595.21	53.5172	4,595.21	68.8215	4,595.21	64.4809	4,595.21	65.4883	4,595.21	64.8301	4,595.21	65.6369	4,595.21	58.7203	4,595.21	68.6755	4,595.21	67.5918	4,595.21	69.8821	4,595.21	58.1694	4,595.21	68.5094	4,595.21	53.7508	4,595.21	67.4037	4,595.21	64.2713	4,595.21	67.4307
4,756.35	81.8752	4,756.35	84.1863	4,756.35	82.0933	4,756.35	81.9293	4,756.35	82.985	4,756.35	82.8123	4,756.35	75.8975	4,756.35	78.6916	4,756.35	79.7111	4,756.35	74.9688	4,756.35	72.2357	4,756.35	78.4889	4,756.35	77.7117	4,756.35	74.0776	4,756.35	77.2323	4,756.35	73.7778	4,756.35	68.6022	4,756.35	67.4035	4,756.35	73.2157	4,756.35	67.4349	4,756.35	60.1681	4,756.35	63.8838	4,756.35	61.8838	4,756.35	66.6438	4,756.35	65.4351	4,756.35	64.5489	4,756.35	41.2512	4,756.35	68.5223	4,756.35	69.49	4,756.35	69.3288	4,756.35	60.8612	4,756.35	68.8247	4,756.35	60.8743	4,756.35	68.7388	4,756.35	62.2824	4,756.35	67.6171
4,924.8	82.2647	4,924.8	84.3475	4,924.8	82.9266	4,924.8	81.6812	4,924.8	83.2622	4,924.8	83.2505	4,924.8	77.4002	4,924.8	76.0388	4,924.8	79.9614	4,924.8	77.0718	4,924.8	74.1326	4,924.8	78.3528	4,924.8	77.1155	4,924.8	69.144	4,924.8	77.8027	4,924.8	71.2048	4,924.8	65.7262	4,924.8	62.9224	4,924.8	76.4959	4,924.8	64.2889	4,924.8	57.3229	4,924.8	56.3431	4,924.8	68.9039	4,924.8	62.0848	4,924.8	64.9847	4,924.8	64.6027	4,924.8	55.1177	4,924.8	63.1893	4,924.8	69.2369	4,924.8	68.5494	4,924.8	56.1107	4,924.8	65.5714	4,924.8	58.1354	4,924.8	65.127	4,924.8	63.2085	4,924.8	67.0922
5,097.66	83.09	5,097.66	84.8809	5,097.66	82.9903	5,097.66	81.5739	5,097.66	83.0793	5,097.66	83.4137	5,097.66	81.1809	5,097.66	76.6537	5,097.66	80.9514	5,097.66	78.0922	5,097.66	68.5577	5,097.66	75.5577	5,097.66	78.6389	5,097.66	67.1626	5,097.66	76.6922	5,097.66	67.6237	5,097.66	68.638	5,097.66	69.1776	5,097.66	76.4478	5,097.66	64.4203	5,097.66	59.9015	5,097.66	66.3838	5,097.66	70.435	5,097.66	58.0463	5,097.66	62.6067	5,097.66	62.0622	5,097.66	60.0413	5,097.66	63.6044	5,097.66	68.6856	5,097.66	66.1587	5,097.66	59.891	5,097.66	64.5851	5,097.66	51.8012	5,097.66	68.1794	5,097.66	61.4258	5,097.66	67.1597
5,277.83	82.5756	5,277.83	84.738	5,277.83	84.5345	5,277.83	83.3241	5,277.83	82.7517	5,277.83	82.0426	5,277.83	80.146	5,277.83	78.4148	5,277.83	78.6003	5,277.83	76.8305	5,277.83	67.8066	5,277.83	73.0449	5,277.83	74.2918	5,277.83	71.8988	5,277.83	73.7892	5,277.83	69.5918	5,277.83	68.9287	5,277.83	68.6163	5,277.83	72.4539	5,277.83	65.5994	5,277.83	67.9134	5,277.83	64.7881	5,277.83	69.1119	5,277.83	63.79	5,277.83	60.9692	5,277.83	61.4583	5,277.83	55.5369	5,277.83	63.9606	5,277.83	63.7495	5,277.83	64.3397	5,277.83	62.8607	5,277.83	63.5895	5,277.83	62.1963	5,277.83	65.2596	5,277.83	63.2082	5,277.83	66.4818
5,463.87	82.8691	5,463.87	85.2845	5,463.87	84.9263	5,463.87	83.2633	5,463.87	82.4603	5,463.87	81.1941	5,463.87	78.7119	5,463.87	79.6004	5,463.87	77.6697	5,463.87	75.4896	5,463.87	71.8139	5,463.87	75.1479	5,463.87	70.3887	5,463.87	72.7413	5,463.87	71.9123	5,463.87	71.0604	5,463.87	69.6392	5,463.87	68.4801	5,463.87	73.5467	5,463.87	65.8537	5,463.87	69.1162	5,463.87	65.3854	5,463.87	68.7415	5,463.87	64.5163	5,463.87	60.9889	5,463.87	63.4896	5,463.87	61.9024	5,463.87	63.7356	5,463.87	62.4301	5,463.87	63.7667	5,463.87	60.8917	5,463.87	65.5708	5,463.87	61.6752	5,463.87	65.7837	5,463.87	61.5443	5,463.87	67.4503
5,657.23	82.0983	5,657.23	84.6419	5,657.23	84.5331	5,657.23	83.2537	5,657.23	83.3235	5,657.23	80.7037	5,657.23	76.7397	5,657.23	79.9132	5,657.23	78.3469	5,657.23	76.2394	5,657.23	74.6392	5,657.23	75.4612	5,657.23	68.131	5,657.23	74.9478	5,657.23	69.8747	5,657.23	70.7611	5,657.23	69.5841	5,657.23	71.3855	5,657.23	72.2872	5,657.23	65.8588	5,657.23	68.2257	5,657.23	66.0887	5,657.23	67.491	5,657.23	64.9186	5,657.23	60.9096	5,657.23	64.9429	5,657.23	59.474	5,657.23	61.5031	5,657.23	61.7262	5,657.23	65.7138	5,657.23	61.3824	5,657.23	64.921	5,657.23	54.6809	5,657.23	65.7516	5,657.23	61.7663	5,657.23	65.7742
5,856.45	82.8355	5,856.45	85.18	5,856.45	83.3997	5,856.45	83.5444	5,856.45	83.1744	5,856.45	80.2088	5,856.45	76.9565	5,856.45	80.2345	5,856.45	78.0921	5,856.45	76.7587	5,856.45	74.0297	5,856.45	76.6196	5,856.45	65.9905	5,856.45	74.7367	5,856.45	67.1908	5,856.45	69.8909	5,856.45	71.1257	5,856.45	69.4181	5,856.45	69.3458	5,856.45	65.7742	5,856.45	65.8982	5,856.45	65.2196	5,856.45	62.4885	5,856.45	64.8981	5,856.45	55.8979	5,856.45	64.5449	5,856.45	57.6675	5,856.45	61.7187	5,856.45	58.2961	5,856.45	64.2536	5,856.45	62.8301	5,856.45	64.9409	5,856.45	55.9648	5,856.45	66.1282	5,856.45	61.659	5,856.45	66.0786
6,062.99	83.1875	6,062.99	84.625	6,062.99	82.3814	6,062.99	83.1035	6,062.99	81.5178	6,062.99	80.5443	6,062.99	78.4459	6,062.99	79.6426	6,062.99	77.3734	6,062.99	77.8698	6,062.99	73.745	6,062.99	76.0965	6,062.99	63.3545	6,062.99	73.289	6,062.99	67.5497	6,062.99	71.4116	6,062.99	69.0714	6,062.99	69.6361	6,062.99	66.1458	6,062.99	66.7873	6,062.99	64.4639	6,062.99	65.4249	6,062.99	58.6698	6,062.99	64.8716	6,062.99	58.802	6,062.99	64.9058	6,062.99	61.2406	6,062.99	62.3671	6,062.99	59.7996	6,062.99	63.8302	6,062.99	61.7049	6,062.99	63.1387	6,062.99	53.2054	6,062.99	66.6981	6,062.99	60.7845	6,062.99	66.6423
6,276.86	83.7273	6,276.86	84.0804	6,276.86	83.0269	6,276.86	82.9212	6,276.86	80.8182	6,276.86	80.5997	6,276.86	78.7067	6,276.86	79.4393	6,276.86	76.4044	6,276.86	78.9126	6,276.86	73.7272	6,276.86	74.9857	6,276.86	63.5797	6,276.86	74.2342	6,276.86	67.2382	6,276.86	72.184	6,276.86	69.6284	6,276.86	69.7631	6,276.86	66.5301	6,276.86	66.9598	6,276.86	67.8057	6,276.86	65.3999	6,276.86	59.0638	6,276.86	64.5195	6,276.86	56.9766	6,276.86	63.7385	6,276.86	61.5822	6,276.86	62.5058	6,276.86	60.6643	6,276.86	63.4826	6,276.86	57.3344	6,276.86	63.0249	6,276.86	55.6232	6,276.86	66.1647	6,276.86	60.912	6,276.86	65.9903
6,498.05	83.8126	6,498.05	83.4736	6,498.05	82.917	6,498.05	82.9713	6,498.05	81.598	6,498.05	80.5713	6,498.05	78.7144	6,498.05	79.8136	6,498.05	77.5941	6,498.05	78.5467	6,498.05	74.2701	6,498.05	75.8317	6,498.05	65.6789	6,498.05	74.2831	6,498.05	66.4202	6,498.05	71.8985	6,498.05	65.7711	6,498.05	69.3573	6,498.05	67.6219	6,498.05	66.7636	6,498.05	67.9054	6,498.05	65.117	6,498.05	59.7325	6,498.05	65.5668	6,498.05	60.3971	6,498.05	64.2603	6,498.05	61.6038	6,498.05	60.8246	6,498.05	60.295	6,498.05	62.9639	6,498.05	58.8847	6,498.05	63.8943	6,498.05	56.0066	6,498.05	66.1695	6,498.05	59.5397	6,498.05	66.4284
6,726.56	83.1832	6,726.56	82.9355	6,726.56	82.3728	6,726.56	83.0152	6,726.56	80.7983	6,726.56	80.2273	6,726.56	78.5388	6,726.56	79.816	6,726.56	78.7456	6,726.56	77.7659	6,726.56	74.6106	6,726.56	75.9293	6,726.56	68.4161	6,726.56	73.7728	6,726.56	67.2976	6,726.56	71.4179	6,726.56	63.8114	6,726.56	69.2137	6,726.56	66.43	6,726.56	66.5053	6,726.56	63.5661	6,726.56	63.9533	6,726.56	56.5578	6,726.56	64.9186	6,726.56	62.0121	6,726.56	64.5201	6,726.56	56.3043	6,726.56	60.8001	6,726.56	60.6811	6,726.56	62.7512	6,726.56	62.2769	6,726.56	62.5845	6,726.56	54.2231	6,726.56	65.65	6,726.56	57.9523	6,726.56	66.4738
6,963.87	82.2434	6,963.87	82.6168	6,963.87	83.2584	6,963.87	82.6697	6,963.87	81.1715	6,963.87	79.9995	6,963.87	79.2991	6,963.87	79.1862	6,963.87	78.3683	6,963.87	77.3679	6,963.87	75.068	6,963.87	75.4236	6,963.87	70.6152	6,963.87	73.4046	6,963.87	65.4627	6,963.87	70.6505	6,963.87	69.6966	6,963.87	68.3432	6,963.87	67.0805	6,963.87	67.1055	6,963.87	61.3378	6,963.87	63.8574	6,963.87	57.3629	6,963.87	64.3141	6,963.87	59.8313	6,963.87	63.9308	6,963.87	60.8189	6,963.87	60.1128	6,963.87	56.7193	6,963.87	62.5135	6,963.87	61.2596	6,963.87	61.4143	6,963.87	57.5224	6,963.87	65.4694	6,963.87	59.633	6,963.87	66.1895
7,209.96	82.3915	7,209.96	82.1427	7,209.96	83.3632	7,209.96	81.8102	7,209.96	81.9989	7,209.96	79.796	7,209.96	79.197	7,209.96	78.3799	7,209.96	76.9807	7,209.96	76.8011	7,209.96	75.9877	7,209.96	75.4347	7,209.96	71.9327	7,209.96	72.3191	7,209.96	67.8459	7,209.96	71.0498	7,209.96	71.7083	7,209.96	68.0034	7,209.96	68.0777	7,209.96	65.7679	7,209.96	65.2098	7,209.96	63.9313	7,209.96	58.492	7,209.96	64.4463	7,209.96	59.9919	7,209.96	63.2973	7,209.96	62.5999	7,209.96	61.0528	7,209.96	58.2744	7,209.96	61.6188	7,209.96	61.1326	7,209.96	61.3102	7,209.96	53.9062	7,209.96	64.2947	7,209.96	56.7545	7,209.96	65.7145
7,464.84	82.4062	7,464.84	82.7127	7,464.84	84.0595	7,464.84	81.3114	7,464.84	83.2483	7,464.84	78.511	7,464.84	79.4725	7,464.84	77.7291	7,464.84	76.5156	7,464.84	76.228	7,464.84	77.4103	7,464.84	74.1425	7,464.84	71.8379	7,464.84	72.9172	7,464.84	69.0845	7,464.84	69.2844	7,464.84	69.6952	7,464.84	67.5296	7,464.84	68.9661	7,464.84	63.8429	7,464.84	67.0277	7,464.84	62.3695	7,464.84	56.7266	7,464.84	62.0593	7,464.84	60.1793	7,464.84	62.0399	7,464.84	60.8049	7,464.84	59.6405	7,464.84	55.4524	7,464.84	59.6525	7,464.84	59.7051	7,464.84	58.4539	7,464.84	54.6227	7,464.84	63.0006	7,464.84	58.9976	7,464.84	64.9617
7,727.05	82.2338	7,727.05	82.7071	7,727.05	83.902	7,727.05	80.6683	7,727.05	83.4122	7,727.05	78.1862	7,727.05	81.0117	7,727.05	77.922	7,727.05	78.0282	7,727.05	75.6149	7,727.05	77.9341	7,727.05	74.5267	7,727.05	71.4567	7,727.05	70.7173	7,727.05	70.3501	7,727.05	68.3563	7,727.05	64.132	7,727.05	66.0548	7,727.05	68.0197	7,727.05	62.8727	7,727.05	62.5056	7,727.05	60.1932	7,727.05	58.7323	7,727.05	62.6739	7,727.05	54.9523	7,727.05	61.1851	7,727.05	57.5887	7,727.05	58.8862	7,727.05	49.8226	7,727.05	57.4225	7,727.05	54.3705	7,727.05	55.0621	7,727.05	55.2504	7,727.05	60.9735	7,727.05	55.8548	7,727.05	62.5271
7,999.51	82.7718	7,999.51	82.7695	7,999.51	83.9901	7,999.51	81.6672	7,999.51	82.6696	7,999.51	78.9633	7,999.51	82.3843	7,999.51	78.0042	7,999.51	79.2271	7,999.51	76.4103	7,999.51	77.1247	7,999.51	72.7248	7,999.51	73.8749	7,999.51	70.098	7,999.51	68.4607	7,999.51	68.2153	7,999.51	58.7629	7,999.51	64.412	7,999.51	67.5445	7,999.51	63.3446	7,999.51	60.678	7,999.51	60.7384	7,999.51	60.1373	7,999.51	62.69	7,999.51	55.2492	7,999.51	60.8074	7,999.51	59.5804	7,999.51	59.2357	7,999.51	58.8213	7,999.51	57.9895	7,999.51	60.5566	7,999.51	54.9421	7,999.51	56.4561	7,999.51	58.2735	7,999.51	58.198	7,999.51	62.5404
8,282.23	83.6	8,282.23	83.2398	8,282.23	84.0803	8,282.23	82.4558	8,282.23	82.511	8,282.23	79.9546	8,282.23	81.5856	8,282.23	78.5596	8,282.23	77.6782	8,282.23	75.6657	8,282.23	74.3894	8,282.23	73.796	8,282.23	74.7925	8,282.23	68.8541	8,282.23	56.16	8,282.23	68.0697	8,282.23	64.7439	8,282.23	66.0312	8,282.23	67.6186	8,282.23	61.7098	8,282.23	63.4091	8,282.23	62.0586	8,282.23	59.9131	8,282.23	62.8215	8,282.23	56.1369	8,282.23	60.6934	8,282.23	59.6368	8,282.23	59.3239	8,282.23	52.495	8,282.23	58.7947	8,282.23	59.5704	8,282.23	57.4046	8,282.23	58.234	8,282.23	61.2365	8,282.23	56.3493	8,282.23	63.5827
8,573.73	84.1852	8,573.73	83.5474	8,573.73	83.7555	8,573.73	82.5726	8,573.73	83.107	8,573.73	80.3595	8,573.73	79.7377	8,573.73	78.7369	8,573.73	76.5317	8,573.73	75.1342	8,573.73	75.5536	8,573.73	73.2204	8,573.73	74.9229	8,573.73	70.3649	8,573.73	61.6562	8,573.73	67.2761	8,573.73	67.1225	8,573.73	65.0085	8,573.73	67.108	8,573.73	61.2545	8,573.73	64.9682	8,573.73	61.8364	8,573.73	60.8697	8,573.73	61.9684	8,573.73	59.4803	8,573.73	60.3193	8,573.73	58.0263	8,573.73	59.4395	8,573.73	56.7693	8,573.73	58.6489	8,573.73	58.9308	8,573.73	56.8104	8,573.73	57.4077	8,573.73	59.0332	8,573.73	56.627	8,573.73	62.7805
8,876.95	84.139	8,876.95	84.0124	8,876.95	83.288	8,876.95	83.3223	8,876.95	82.543	8,876.95	80.3428	8,876.95	82.1996	8,876.95	78.8914	8,876.95	77.1155	8,876.95	75.0927	8,876.95	77.5615	8,876.95	73.3782	8,876.95	73.4623	8,876.95	67.4727	8,876.95	67.2156	8,876.95	66.9881	8,876.95	63.8577	8,876.95	63.382	8,876.95	66.534	8,876.95	60.8467	8,876.95	64.4373	8,876.95	59.1279	8,876.95	65.07	8,876.95	60.4616	8,876.95	56.6901	8,876.95	60.4595	8,876.95	51.5236	8,876.95	59.1009	8,876.95	57.2154	8,876.95	56.447	8,876.95	57.7313	8,876.95	53.8947	8,876.95	58.3149	8,876.95	57.3768	8,876.95	54.5833	8,876.95	63.3292
9,188.96	83.6542	9,188.96	83.6374	9,188.96	83.495	9,188.96	82.8267	9,188.96	82.3854	9,188.96	80.3376	9,188.96	81.4586	9,188.96	78.2438	9,188.96	78.632	9,188.96	75.1022	9,188.96	77.5215	9,188.96	72.6168	9,188.96	73.4625	9,188.96	67.7396	9,188.96	66.1546	9,188.96	66.3894	9,188.96	57.4617	9,188.96	61.7601	9,188.96	66.228	9,188.96	60.7245	9,188.96	64.778	9,188.96	59.3399	9,188.96	66.4264	9,188.96	60.2354	9,188.96	57.5051	9,188.96	58.0506	9,188.96	51.1142	9,188.96	59.3676	9,188.96	54.7412	9,188.96	56.4872	9,188.96	54.6937	9,188.96	53.3236	9,188.96	58.3442	9,188.96	56.6472	9,188.96	56.3707	9,188.96	61.8841
9,514.16	82.7371	9,514.16	82.8721	9,514.16	82.8968	9,514.16	82.2431	9,514.16	82.7333	9,514.16	79.2948	9,514.16	80.9379	9,514.16	78.2229	9,514.16	79.3826	9,514.16	74.5209	9,514.16	75.8739	9,514.16	72.2966	9,514.16	73.9095	9,514.16	66.7573	9,514.16	63.5096	9,514.16	65.4704	9,514.16	52.7109	9,514.16	61.2466	9,514.16	62.3962	9,514.16	56.8958	9,514.16	66.1421	9,514.16	58.5283	9,514.16	64.6531	9,514.16	58.1729	9,514.16	56.0717	9,514.16	56.8251	9,514.16	52.2765	9,514.16	58.6045	9,514.16	51.6563	9,514.16	53.036	9,514.16	57.1832	9,514.16	50.9702	9,514.16	59.1148	9,514.16	54.4659	9,514.16	55.0116	9,514.16	60.7526
9,849.61	81.5565	9,849.61	82.0276	9,849.61	82.1988	9,849.61	81.5538	9,849.61	82.3978	9,849.61	78.3566	9,849.61	81.3627	9,849.61	77.8536	9,849.61	78.3352	9,849.61	73.5523	9,849.61	73.7323	9,849.61	71.7717	9,849.61	73.9575	9,849.61	64.5053	9,849.61	63.2153	9,849.61	63.1514	9,849.61	56.2285	9,849.61	60.452	9,849.61	55.7541	9,849.61	55.9404	9,849.61	65.7739	9,849.61	56.8061	9,849.61	65.4969	9,849.61	56.2663	9,849.61	56.6761	9,849.61	57.9164	9,849.61	55.7973	9,849.61	58.1875	9,849.61	52.0546	9,849.61	49.3489	9,849.61	57.4132	9,849.61	46.0419	9,849.61	58.1659	9,849.61	53.3581	9,849.61	55.656	9,849.61	59.7077
10,196.8	81.1666	10,196.8	81.3504	10,196.8	82.3553	10,196.8	81.173	10,196.8	81.4164	10,196.8	77.826	10,196.8	80.9991	10,196.8	77.8136	10,196.8	76.1922	10,196.8	74.0506	10,196.8	71.5259	10,196.8	71.2468	10,196.8	72.0543	10,196.8	65.4304	10,196.8	64.8288	10,196.8	63.2032	10,196.8	54.9135	10,196.8	59.6035	10,196.8	54.5789	10,196.8	54.7583	10,196.8	65.7132	10,196.8	55.5928	10,196.8	65.5391	10,196.8	54.2617	10,196.8	58.3323	10,196.8	57.9437	10,196.8	53.9872	10,196.8	57.6994	10,196.8	52.0542	10,196.8	52.7257	10,196.8	59.1566	10,196.8	48.8507	10,196.8	58.9594	10,196.8	53.4178	10,196.8	54.0952	10,196.8	60.6322
10,555.7	82.5435	10,555.7	82.7359	10,555.7	82.8118	10,555.7	81.927	10,555.7	81.6799	10,555.7	79.8777	10,555.7	80.3919	10,555.7	78.3708	10,555.7	78.5739	10,555.7	74.024	10,555.7	73.5286	10,555.7	72.6212	10,555.7	68.6152	10,555.7	66.6798	10,555.7	68.166	10,555.7	65.2792	10,555.7	55.5018	10,555.7	60.6636	10,555.7	54.5991	10,555.7	55.3447	10,555.7	67.3526	10,555.7	55.2463	10,555.7	67.9081	10,555.7	54.5811	10,555.7	50.6836	10,555.7	58.4878	10,555.7	53.9802	10,555.7	59.4314	10,555.7	42.027	10,555.7	54.7792	10,555.7	58.5221	10,555.7	46.5864	10,555.7	58.6099	10,555.7	54.5462	10,555.7	56.9752	10,555.7	59.6365
10,927.7	84.742	10,927.7	85.2931	10,927.7	84.1334	10,927.7	84.0485	10,927.7	82.308	10,927.7	81.1816	10,927.7	80.8122	10,927.7	79.9797	10,927.7	79.4567	10,927.7	75.231	10,927.7	74.7671	10,927.7	73.8526	10,927.7	71.3483	10,927.7	67.7424	10,927.7	68.8566	10,927.7	66.3894	10,927.7	57.9084	10,927.7	61.8884	10,927.7	58.0068	10,927.7	58.3729	10,927.7	68.3251	10,927.7	57.1274	10,927.7	69.9206	10,927.7	56.9228	10,927.7	51.0876	10,927.7	60.3944	10,927.7	58.5675	10,927.7	60.8269	10,927.7	36.5807	10,927.7	58.9042	10,927.7	58.8852	10,927.7	55.6519	10,927.7	53.3275	10,927.7	50.2214	10,927.7	58.8968	10,927.7	59.5395
11,313	87.2868	11,313	87.7027	11,313	86.0968	11,313	86.7451	11,313	84.0755	11,313	82.9913	11,313	82.1381	11,313	81.507	11,313	78.9217	11,313	77.1204	11,313	77.0897	11,313	74.5041	11,313	72.1489	11,313	69.0891	11,313	67.2422	11,313	67.6751	11,313	61.4749	11,313	63.316	11,313	61.5071	11,313	59.3556	11,313	71.2125	11,313	57.84	11,313	72.3208	11,313	59.1428	11,313	53.6159	11,313	62.1364	11,313	58.2889	11,313	62.0055	11,313	46.895	11,313	60.9194	11,313	59.4352	11,313	59.2773	11,313	49.5744	11,313	49.1687	11,313	57.7698	11,313	58.5192
11,712.9	89.2492	11,712.9	89.3944	11,712.9	88.277	11,712.9	88.4873	11,712.9	86.4922	11,712.9	84.8794	11,712.9	85.2204	11,712.9	83.4104	11,712.9	82.4583	11,712.9	78.1377	11,712.9	78.3502	11,712.9	76.4663	11,712.9	73.186	11,712.9	70.0337	11,712.9	65.4857	11,712.9	67.6632	11,712.9	62.6478	11,712.9	65.1786	11,712.9	62.3098	11,712.9	60.6297	11,712.9	73.1214	11,712.9	57.0356	11,712.9	73.8683	11,712.9	59.6889	11,712.9	56.5759	11,712.9	63.4817	11,712.9	58.0479	11,712.9	63.223	11,712.9	48.438	11,712.9	62.2402	11,712.9	59.585	11,712.9	59.6057	11,712.9	48.9053	11,712.9	47.4531	11,712.9	58.9075	11,712.9	54.5614
12,126	90.602	12,126	90.5829	12,126	90.062	12,126	89.5925	12,126	88.1866	12,126	86.1789	12,126	86.3853	12,126	84.9435	12,126	83.3437	12,126	79.636	12,126	78.5501	12,126	77.1728	12,126	72.4487	12,126	70.7427	12,126	65.8604	12,126	68.0259	12,126	59.0109	12,126	65.208	12,126	62.9003	12,126	60.5017	12,126	75.1447	12,126	56.8941	12,126	75.1964	12,126	60.2597	12,126	60.6958	12,126	63.5392	12,126	56.6522	12,126	63.494	12,126	53.1815	12,126	61.4183	12,126	56.3061	12,126	59.3747	12,126	52.609	12,126	50.3384	12,126	56.9853	12,126	49.9132
12,553.7	91.3985	12,553.7	91.4964	12,553.7	90.7606	12,553.7	90.5343	12,553.7	89.3704	12,553.7	86.7664	12,553.7	87.2105	12,553.7	85.7557	12,553.7	83.4091	12,553.7	80.3823	12,553.7	78.4154	12,553.7	77.1674	12,553.7	70.0083	12,553.7	70.9554	12,553.7	65.1194	12,553.7	66.6617	12,553.7	55.778	12,553.7	64.2468	12,553.7	63.4149	12,553.7	58.2387	12,553.7	76.458	12,553.7	56.2074	12,553.7	76.2397	12,553.7	58.4555	12,553.7	60.9692	12,553.7	62.4493	12,553.7	50.3637	12,553.7	62.4523	12,553.7	50.424	12,553.7	60.9921	12,553.7	48.5675	12,553.7	58.2917	12,553.7	55.2371	12,553.7	52.4757	12,553.7	55.2606	12,553.7	47.3444
12,996.1	91.6348	12,996.1	91.8821	12,996.1	91.0755	12,996.1	90.7612	12,996.1	89.4149	12,996.1	86.9116	12,996.1	87.3322	12,996.1	85.5439	12,996.1	83.1197	12,996.1	79.3728	12,996.1	76.4973	12,996.1	76.4652	12,996.1	67.139	12,996.1	68.6809	12,996.1	60.3981	12,996.1	63.9479	12,996.1	54.0077	12,996.1	61.2184	12,996.1	62.5856	12,996.1	56.2064	12,996.1	76.8972	12,996.1	49.0345	12,996.1	76.3933	12,996.1	55.7885	12,996.1	60.87	12,996.1	61.1052	12,996.1	45.6372	12,996.1	59.9991	12,996.1	49.9933	12,996.1	58.8024	12,996.1	45.1742	12,996.1	56.8164	12,996.1	55.2371	12,996.1	53.7828	12,996.1	52.9868	12,996.1	45.5008
13,454.6	91.9757	13,454.6	92.2084	13,454.6	91.0809	13,454.6	90.61	13,454.6	89.3494	13,454.6	86.4479	13,454.6	86.3885	13,454.6	84.3637	13,454.6	81.4099	13,454.6	77.4537	13,454.6	72.5393	13,454.6	73.1257	13,454.6	60.0316	13,454.6	63.7219	13,454.6	37.1243	13,454.6	58.0218	13,454.6	52.7152	13,454.6	55.6678	13,454.6	61.8673	13,454.6	49.3894	13,454.6	76.537	13,454.6	48.184	13,454.6	75.7338	13,454.6	52.4186	13,454.6	60.3455	13,454.6	57.0674	13,454.6	47.5749	13,454.6	54.1982	13,454.6	50.7212	13,454.6	53.5396	13,454.6	42.5903	13,454.6	52.8956	13,454.6	54.7046	13,454.6	52.936	13,454.6	48.498	13,454.6	50.154
13,929.2	91.8228	13,929.2	92.0367	13,929.2	90.9906	13,929.2	90.5161	13,929.2	89.0747	13,929.2	85.6613	13,929.2	85.6241	13,929.2	82.6562	13,929.2	79.8273	13,929.2	73.4518	13,929.2	66.1894	13,929.2	67.4221	13,929.2	58.7512	13,929.2	49.464	13,929.2	60.3168	13,929.2	51.7643	13,929.2	56.8241	13,929.2	51.4061	13,929.2	60.6864	13,929.2	44.9033	13,929.2	75.9045	13,929.2	52.9612	13,929.2	74.6646	13,929.2	51.4808	13,929.2	58.9936	13,929.2	54.1036	13,929.2	50.1312	13,929.2	43.1578	13,929.2	47.4311	13,929.2	44.3392	13,929.2	45.8088	13,929.2	48.9219	13,929.2	53.7662	13,929.2	52.1551	13,929.2	42.4266	13,929.2	52.1849
14,419.9	91.583	14,419.9	91.8979	14,419.9	90.5492	14,419.9	90.4034	14,419.9	88.6232	14,419.9	84.6799	14,419.9	84.9808	14,419.9	80.6958	14,419.9	78.0944	14,419.9	66.2931	14,419.9	63.114	14,419.9	57.6061	14,419.9	68.7691	14,419.9	60.8916	14,419.9	65.1852	14,419.9	61.5316	14,419.9	62.5636	14,419.9	59.2305	14,419.9	59.5497	14,419.9	53.7358	14,419.9	74.8905	14,419.9	56.5726	14,419.9	72.9113	14,419.9	55.1833	14,419.9	57.2996	14,419.9	55.7712	14,419.9	45.3324	14,419.9	51.6294	14,419.9	44.0989	14,419.9	49.4465	14,419.9	49.074	14,419.9	40.657	14,419.9	52.3254	14,419.9	50.9277	14,419.9	29.3809	14,419.9	53.4111
14,928.2	91.2489	14,928.2	91.7113	14,928.2	90.8711	14,928.2	90.2547	14,928.2	88.6073	14,928.2	83.7412	14,928.2	85.1956	14,928.2	79.711	14,928.2	78.6051	14,928.2	69.3423	14,928.2	72.6581	14,928.2	68.0585	14,928.2	73.8285	14,928.2	67.9356	14,928.2	67.308	14,928.2	64.8015	14,928.2	65.2395	14,928.2	62.2531	14,928.2	55.9179	14,928.2	59.6545	14,928.2	74.4769	14,928.2	59.4925	14,928.2	72.3335	14,928.2	57.9151	14,928.2	55.3657	14,928.2	57.7037	14,928.2	51.1455	14,928.2	55.9989	14,928.2	50.1063	14,928.2	52.6072	14,928.2	54.0791	14,928.2	46.6076	14,928.2	54.4732	14,928.2	51.2352	14,928.2	45.2636	14,928.2	55.1533
15,455.6	90.8675	15,455.6	91.4705	15,455.6	90.802	15,455.6	89.9819	15,455.6	89.2816	15,455.6	83.6263	15,455.6	85.0238	15,455.6	80.8845	15,455.6	79.4762	15,455.6	75.2199	15,455.6	74.8471	15,455.6	70.8374	15,455.6	72.3314	15,455.6	68.0087	15,455.6	68.3682	15,455.6	66.4239	15,455.6	62.1277	15,455.6	63.1475	15,455.6	56.916	15,455.6	60.2359	15,455.6	72.9706	15,455.6	58.358	15,455.6	71.5905	15,455.6	58.178	15,455.6	54.2159	15,455.6	59.7549	15,455.6	51.3389	15,455.6	55.5611	15,455.6	49.3805	15,455.6	54.5261	15,455.6	54.6748	15,455.6	51.0755	15,455.6	54.2058	15,455.6	51.5461	15,455.6	41.9699	15,455.6	55.6742
16,000.5	90.8174	16,000.5	91.4293	16,000.5	90.3003	16,000.5	89.5378	16,000.5	89.1992	16,000.5	83.7188	16,000.5	84.7651	16,000.5	81.2771	16,000.5	79.3028	16,000.5	74.6609	16,000.5	72.4797	16,000.5	67.9415	16,000.5	67.5671	16,000.5	66.5657	16,000.5	64.6286	16,000.5	64.3145	16,000.5	61.3875	16,000.5	59.1177	16,000.5	57.5189	16,000.5	59.0766	16,000.5	72.5651	16,000.5	55.0153	16,000.5	71.5804	16,000.5	55.9516	16,000.5	55.4129	16,000.5	57.6285	16,000.5	49.7952	16,000.5	48.8673	16,000.5	44.8524	16,000.5	47.0212	16,000.5	56.3807	16,000.5	52.535	16,000.5	49.1285	16,000.5	52.0112	16,000.5	34.193	16,000.5	54.5447
16,564.5	90.3964	16,564.5	90.8626	16,564.5	89.5127	16,564.5	88.6905	16,564.5	88.0147	16,564.5	82.2978	16,564.5	82.7319	16,564.5	79.5999	16,564.5	75.2239	16,564.5	70.9557	16,564.5	67.2126	16,564.5	62.8302	16,564.5	63.168	16,564.5	61.9924	16,564.5	59.148	16,564.5	63.0118	16,564.5	57.7052	16,564.5	54.8909	16,564.5	55.2308	16,564.5	57.8466	16,564.5	71.781	16,564.5	49.5893	16,564.5	70.6581	16,564.5	52.3091	16,564.5	55.1194	16,564.5	51.956	16,564.5	47.3095	16,564.5	48.0741	16,564.5	47.1226	16,564.5	47.0868	16,564.5	55.4116	16,564.5	49.3296	16,564.5	46.1653	16,564.5	51.0033	16,564.5	42.6569	16,564.5	52.8616
17,148.9	88.8921	17,148.9	89.3751	17,148.9	87.8971	17,148.9	86.9156	17,148.9	85.9598	17,148.9	79.9254	17,148.9	79.9908	17,148.9	76.2756	17,148.9	70.2236	17,148.9	65.0811	17,148.9	63.0573	17,148.9	65.0527	17,148.9	62.6666	17,148.9	62.3328	17,148.9	53.3331	17,148.9	62.0183	17,148.9	54.8228	17,148.9	55.5161	17,148.9	50.2135	17,148.9	56.6693	17,148.9	69.9476	17,148.9	42.8311	17,148.9	69.1928	17,148.9	52.6123	17,148.9	53.2452	17,148.9	52.7209	17,148.9	44.6457	17,148.9	48.9093	17,148.9	45.602	17,148.9	49.5514	17,148.9	51.8228	17,148.9	43.7677	17,148.9	48.8702	17,148.9	50.4913	17,148.9	43.6305	17,148.9	50.24
17,752.4	87.4528	17,752.4	87.6912	17,752.4	86.0976	17,752.4	85.0265	17,752.4	83.8712	17,752.4	77.2621	17,752.4	76.856	17,752.4	73.1127	17,752.4	62.6984	17,752.4	64.3673	17,752.4	65.7088	17,752.4	66.8736	17,752.4	63.1613	17,752.4	63.1969	17,752.4	55.3319	17,752.4	61.0409	17,752.4	53.8934	17,752.4	56.0618	17,752.4	43.2679	17,752.4	54.692	17,752.4	67.1751	17,752.4	37.1591	17,752.4	67.1052	17,752.4	53.0487	17,752.4	51.413	17,752.4	52.6425	17,752.4	42.3392	17,752.4	44.9614	17,752.4	39.7952	17,752.4	47.9399	17,752.4	49.8769	17,752.4	35.6721	17,752.4	50.9096	17,752.4	50.2064	17,752.4	43.4685	17,752.4	48.6269
18,379.4	85.8549	18,379.4	86.0302	18,379.4	84.2319	18,379.4	82.9571	18,379.4	81.9077	18,379.4	75.4731	18,379.4	74.6268	18,379.4	72.3238	18,379.4	63.1389	18,379.4	63.7144	18,379.4	62.1604	18,379.4	64.5242	18,379.4	57.7652	18,379.4	60.73	18,379.4	53.3509	18,379.4	59.103	18,379.4	49.7989	18,379.4	52.7331	18,379.4	47.3661	18,379.4	49.7158	18,379.4	64.8072	18,379.4	40.7347	18,379.4	64.4447	18,379.4	49.9933	18,379.4	47.065	18,379.4	48.1501	18,379.4	43.205	18,379.4	44.339	18,379.4	50.5423	18,379.4	42.5727	18,379.4	49.731	18,379.4	44.635	18,379.4	50.463	18,379.4	51.3079	18,379.4	38.0223	18,379.4	46.4962
19,026.9	83.5996	19,026.9	83.8745	19,026.9	81.8142	19,026.9	81.0531	19,026.9	78.4395	19,026.9	72.5737	19,026.9	71.3013	19,026.9	70.6235	19,026.9	59.0634	19,026.9	56.5718	19,026.9	50.6339	19,026.9	54.0178	19,026.9	51.4997	19,026.9	45.4231	19,026.9	51.2867	19,026.9	49.6021	19,026.9	50.274	19,026.9	40.8412	19,026.9	49.7045	19,026.9	41.8116	19,026.9	63.987	19,026.9	47.5025	19,026.9	63.0136	19,026.9	24.256	19,026.9	44.9722	19,026.9	45.9285	19,026.9	41.0544	19,026.9	49.8769	19,026.9	51.2614	19,026.9	39.5094	19,026.9	48.1846	19,026.9	50.0712	19,026.9	49.6322	19,026.9	50.3053	19,026.9	42.2291	19,026.9	45.5187
19,697.8	82.3374	19,697.8	82.8162	19,697.8	79.6612	19,697.8	79.8099	19,697.8	74.7352	19,697.8	69.8495	19,697.8	64.6893	19,697.8	66.6526	19,697.8	62.8952	19,697.8	56.9596	19,697.8	64.8058	19,697.8	60.0164	19,697.8	60.7397	19,697.8	57.258	19,697.8	56.125	19,697.8	45.5339	19,697.8	53.8182	19,697.8	52.6095	19,697.8	48.8176	19,697.8	41.0778	19,697.8	62.7963	19,697.8	50.0993	19,697.8	61.026	19,697.8	47.0064	19,697.8	41.1105	19,697.8	50.8603	19,697.8	35.9943	19,697.8	50.7844	19,697.8	47.7825	19,697.8	44.9642	19,697.8	40.0281	19,697.8	50.7658	19,697.8	44.634	19,697.8	52.0126	19,697.8	44.5887	19,697.8	44.4099
19,999.5	81.9686	19,999.5	82.3067	19,999.5	79.0805	19,999.5	79.2261	19,999.5	72.841	19,999.5	68.5618	19,999.5	61.3689	19,999.5	64.2832	19,999.5	61.8937	19,999.5	58.849	19,999.5	66.9374	19,999.5	61.8232	19,999.5	63.2526	19,999.5	59.4908	19,999.5	59.1864	19,999.5	48.2264	19,999.5	54.6103	19,999.5	55.8187	19,999.5	46.3214	19,999.5	36.0223	19,999.5	61.1341	19,999.5	49.2777	19,999.5	59.8188	19,999.5	49.3077	19,999.5	44.0543	19,999.5	52.8561	19,999.5	43.7797	19,999.5	52.0444	19,999.5	27.8105	19,999.5	52.2238	19,999.5	46.2988	19,999.5	50.4326	19,999.5	44.6715	19,999.5	51.8181	19,999.5	49.0519	19,999.5	45.4327
