"SPL Horizontal"
"On-Axis"		"10°"		"-10°"		"20°"		"-20°"		"30°"		"-30°"		"40°"		"-40°"		"50°"		"-50°"		"60°"		"-60°"		"70°"		"-70°"		"80°"		"-80°"		"90°"		"-90°"		"100°"		"-100°"		"110°"		"-110°"		"120°"		"-120°"		"130°"		"-130°"		"140°"		"-140°"		"150°"		"-150°"		"160°"		"-160°"		"170°"		"-170°"		"180°"
"Frequency / Hz"	"Sound Pressure Level / dB (re 20 µPa/V)  [2.83  V @ 1. m]"	"Frequency / Hz"	"Sound Pressure Level / dB (re 20 µPa/V)  [2.83  V @ 1. m]"	"Frequency / Hz"	"Sound Pressure Level / dB (re 20 µPa/V)  [2.83  V @ 1. m]"	"Frequency / Hz"	"Sound Pressure Level / dB (re 20 µPa/V)  [2.83  V @ 1. m]"	"Frequency / Hz"	"Sound Pressure Level / dB (re 20 µPa/V)  [2.83  V @ 1. m]"	"Frequency / Hz"	"Sound Pressure Level / dB (re 20 µPa/V)  [2.83  V @ 1. m]"	"Frequency / Hz"	"Sound Pressure Level / dB (re 20 µPa/V)  [2.83  V @ 1. m]"	"Frequency / Hz"	"Sound Pressure Level / dB (re 20 µPa/V)  [2.83  V @ 1. m]"	"Frequency / Hz"	"Sound Pressure Level / dB (re 20 µPa/V)  [2.83  V @ 1. m]"	"Frequency / Hz"	"Sound Pressure Level / dB (re 20 µPa/V)  [2.83  V @ 1. m]"	"Frequency / Hz"	"Sound Pressure Level / dB (re 20 µPa/V)  [2.83  V @ 1. m]"	"Frequency / Hz"	"Sound Pressure Level / dB (re 20 µPa/V)  [2.83  V @ 1. m]"	"Frequency / Hz"	"Sound Pressure Level / dB (re 20 µPa/V)  [2.83  V @ 1. m]"	"Frequency / Hz"	"Sound Pressure Level / dB (re 20 µPa/V)  [2.83  V @ 1. m]"	"Frequency / Hz"	"Sound Pressure Level / dB (re 20 µPa/V)  [2.83  V @ 1. m]"	"Frequency / Hz"	"Sound Pressure Level / dB (re 20 µPa/V)  [2.83  V @ 1. m]"	"Frequency / Hz"	"Sound Pressure Level / dB (re 20 µPa/V)  [2.83  V @ 1. m]"	"Frequency / Hz"	"Sound Pressure Level / dB (re 20 µPa/V)  [2.83  V @ 1. m]"	"Frequency / Hz"	"Sound Pressure Level / dB (re 20 µPa/V)  [2.83  V @ 1. m]"	"Frequency / Hz"	"Sound Pressure Level / dB (re 20 µPa/V)  [2.83  V @ 1. m]"	"Frequency / Hz"	"Sound Pressure Level / dB (re 20 µPa/V)  [2.83  V @ 1. m]"	"Frequency / Hz"	"Sound Pressure Level / dB (re 20 µPa/V)  [2.83  V @ 1. m]"	"Frequency / Hz"	"Sound Pressure Level / dB (re 20 µPa/V)  [2.83  V @ 1. m]"	"Frequency / Hz"	"Sound Pressure Level / dB (re 20 µPa/V)  [2.83  V @ 1. m]"	"Frequency / Hz"	"Sound Pressure Level / dB (re 20 µPa/V)  [2.83  V @ 1. m]"	"Frequency / Hz"	"Sound Pressure Level / dB (re 20 µPa/V)  [2.83  V @ 1. m]"	"Frequency / Hz"	"Sound Pressure Level / dB (re 20 µPa/V)  [2.83  V @ 1. m]"	"Frequency / Hz"	"Sound Pressure Level / dB (re 20 µPa/V)  [2.83  V @ 1. m]"	"Frequency / Hz"	"Sound Pressure Level / dB (re 20 µPa/V)  [2.83  V @ 1. m]"	"Frequency / Hz"	"Sound Pressure Level / dB (re 20 µPa/V)  [2.83  V @ 1. m]"	"Frequency / Hz"	"Sound Pressure Level / dB (re 20 µPa/V)  [2.83  V @ 1. m]"	"Frequency / Hz"	"Sound Pressure Level / dB (re 20 µPa/V)  [2.83  V @ 1. m]"	"Frequency / Hz"	"Sound Pressure Level / dB (re 20 µPa/V)  [2.83  V @ 1. m]"	"Frequency / Hz"	"Sound Pressure Level / dB (re 20 µPa/V)  [2.83  V @ 1. m]"	"Frequency / Hz"	"Sound Pressure Level / dB (re 20 µPa/V)  [2.83  V @ 1. m]"	"Frequency / Hz"	"Sound Pressure Level / dB (re 20 µPa/V)  [2.83  V @ 1. m]"
20.5078	42.3529	20.5078	43.0993	20.5078	41.7119	20.5078	43.8898	20.5078	41.2444	20.5078	44.6772	20.5078	41.0045	20.5078	45.4262	20.5078	41.0069	20.5078	46.1096	20.5078	41.2174	20.5078	46.7064	20.5078	41.5702	20.5078	47.2025	20.5078	41.9943	20.5078	47.5907	20.5078	42.4308	20.5078	47.8704	20.5078	42.8391	20.5078	48.045	20.5078	43.2002	20.5078	48.1189	20.5078	43.5197	20.5078	48.0974	20.5078	43.8266	20.5078	47.9878	20.5078	44.1607	20.5078	47.8003	20.5078	44.5523	20.5078	47.5466	20.5078	45.005	20.5078	47.2354	20.5078	45.4956	20.5078	46.8704	20.5078	45.9885	20.5078	46.4528
21.9727	43.9918	21.9727	44.7563	21.9727	43.2538	21.9727	45.5032	21.9727	42.6044	21.9727	46.2059	21.9727	42.1111	21.9727	46.8482	21.9727	41.8242	21.9727	47.4175	21.9727	41.7577	21.9727	47.901	21.9727	41.8892	21.9727	48.2863	21.9727	42.1742	21.9727	48.5624	21.9727	42.5621	21.9727	48.7232	21.9727	43.0073	21.9727	48.7685	21.9727	43.4758	21.9727	48.7054	21.9727	43.9488	21.9727	48.549	21.9727	44.4197	21.9727	48.3221	21.9727	44.8873	21.9727	48.0524	21.9727	45.3474	21.9727	47.7662	21.9727	45.7894	21.9727	47.4795	21.9727	46.1993	21.9727	47.1933	21.9727	46.5677	21.9727	46.8951
23.4375	36.767	23.4375	35.7848	23.4375	37.4474	23.4375	34.5086	23.4375	37.8504	23.4375	33.0493	23.4375	38.0083	23.4375	31.7691	23.4375	37.9555	23.4375	31.2825	23.4375	37.7274	23.4375	31.8119	23.4375	37.3627	23.4375	32.8326	23.4375	36.9078	23.4375	33.7882	23.4375	36.4196	23.4375	34.4267	23.4375	35.9614	23.4375	34.6657	23.4375	35.5854	23.4375	34.4689	23.4375	35.3068	23.4375	33.7954	23.4375	35.0877	23.4375	32.589	23.4375	34.844	23.4375	30.815	23.4375	34.4697	23.4375	28.6604	23.4375	33.8582	23.4375	27.1607	23.4375	32.9091	23.4375	27.7924	23.4375	31.5329	23.4375	29.708
24.9023	36.6838	24.9023	36.0061	24.9023	37.2448	24.9023	35.2581	24.9023	37.6698	24.9023	34.5228	24.9023	37.9574	24.9023	33.9147	24.9023	38.1166	24.9023	33.541	24.9023	38.1618	24.9023	33.4342	24.9023	38.1093	24.9023	33.5191	24.9023	37.9757	24.9023	33.662	24.9023	37.7786	24.9023	33.7473	24.9023	37.5387	24.9023	33.7226	24.9023	37.281	24.9023	33.606	24.9023	37.0334	24.9023	33.4737	24.9023	36.8199	24.9023	33.4306	24.9023	36.6494	24.9023	33.5625	24.9023	36.5065	24.9023	33.8924	24.9023	36.3528	24.9023	34.3706	24.9023	36.1409	24.9023	34.9071	24.9023	35.8323	24.9023	35.414
26.3672	39.2758	26.3672	39.0867	26.3672	39.4501	26.3672	38.8883	26.3672	39.6061	26.3672	38.6886	26.3672	39.7418	26.3672	38.4987	26.3672	39.8576	26.3672	38.3323	26.3672	39.9565	26.3672	38.2061	26.3672	40.0442	26.3672	38.1373	26.3672	40.1266	26.3672	38.1406	26.3672	40.2057	26.3672	38.2218	26.3672	40.2769	26.3672	38.3731	26.3672	40.3297	26.3672	38.5724	26.3672	40.352	26.3672	38.7904	26.3672	40.3368	26.3672	39.0011	26.3672	40.2852	26.3672	39.1902	26.3672	40.2056	26.3672	39.3561	26.3672	40.1084	26.3672	39.5044	26.3672	40.0018	26.3672	39.6411	26.3672	39.8887	26.3672	39.7688
27.832	44.7854	27.832	45.0025	27.832	44.5135	27.832	45.1665	27.832	44.1871	27.832	45.2807	27.832	43.8082	27.832	45.3492	27.832	43.3814	27.832	45.3767	27.832	42.913	27.832	45.368	27.832	42.4103	27.832	45.3272	27.832	41.8807	27.832	45.2577	27.832	41.3323	27.832	45.1604	27.832	40.776	27.832	45.0318	27.832	40.229	27.832	44.8629	27.832	39.7202	27.832	44.6392	27.832	39.297	27.832	44.3428	27.832	39.0285	27.832	43.9555	27.832	38.9962	27.832	43.4626	27.832	39.257	27.832	42.8567	27.832	39.7989	27.832	42.1431	27.832	40.5351	27.832	41.3491
29.2969	44.9279	29.2969	44.7698	29.2969	45.0548	29.2969	44.5739	29.2969	45.1558	29.2969	44.3344	29.2969	45.2327	29.2969	44.0476	29.2969	45.2828	29.2969	43.7128	29.2969	45.2989	29.2969	43.3319	29.2969	45.2718	29.2969	42.9098	29.2969	45.1912	29.2969	42.4554	29.2969	45.0481	29.2969	41.9798	29.2969	44.8349	29.2969	41.4946	29.2969	44.5467	29.2969	41.0102	29.2969	44.181	29.2969	40.5386	29.2969	43.738	29.2969	40.1005	29.2969	43.2203	29.2969	39.7355	29.2969	42.6347	29.2969	39.5041	29.2969	41.9943	29.2969	39.4711	29.2969	41.3245	29.2969	39.6731	29.2969	40.6693	29.2969	40.0932
30.7617	44.0233	30.7617	44.1904	30.7617	43.9166	30.7617	44.4035	30.7617	43.876	30.7617	44.644	30.7617	43.8972	30.7617	44.8922	30.7617	43.9678	30.7617	45.1297	30.7617	44.0709	30.7617	45.3415	30.7617	44.1895	30.7617	45.5158	30.7617	44.3083	30.7617	45.6442	30.7617	44.4149	30.7617	45.7214	30.7617	44.4987	30.7617	45.7435	30.7617	44.5512	30.7617	45.7082	30.7617	44.5672	30.7617	45.6154	30.7617	44.5468	30.7617	45.469	30.7617	44.4972	30.7617	45.2785	30.7617	44.4335	30.7617	45.0606	30.7617	44.3778	30.7617	44.838	30.7617	44.3547	30.7617	44.6365	30.7617	44.3853	30.7617	44.4803
32.2266	47.1885	32.2266	47.1231	32.2266	47.2734	32.2266	47.0836	32.2266	47.3694	32.2266	47.0722	32.2266	47.4679	32.2266	47.086	32.2266	47.5612	32.2266	47.1173	32.2266	47.643	32.2266	47.1542	32.2266	47.7082	32.2266	47.183	32.2266	47.7527	32.2266	47.1902	32.2266	47.7734	32.2266	47.1645	32.2266	47.768	32.2266	47.1	32.2266	47.7354	32.2266	46.999	32.2266	47.6756	32.2266	46.8735	32.2266	47.5895	32.2266	46.7445	32.2266	47.4788	32.2266	46.637	32.2266	47.3458	32.2266	46.5735	32.2266	47.1945	32.2266	46.5678	32.2266	47.0323	32.2266	46.6224	32.2266	46.8716	32.2266	46.7289
33.6914	49.2415	33.6914	49.1876	33.6914	49.308	33.6914	49.1484	33.6914	49.3832	33.6914	49.1237	33.6914	49.462	33.6914	49.1107	33.6914	49.5387	33.6914	49.1047	33.6914	49.6071	33.6914	49.0998	33.6914	49.6611	33.6914	49.0896	33.6914	49.6944	33.6914	49.0679	33.6914	49.7013	33.6914	49.0293	33.6914	49.6775	33.6914	48.9704	33.6914	49.6207	33.6914	48.8914	33.6914	49.5314	33.6914	48.7972	33.6914	49.4126	33.6914	48.6976	33.6914	49.27	33.6914	48.6061	33.6914	49.1118	33.6914	48.5368	33.6914	48.9488	33.6914	48.5021	33.6914	48.7941	33.6914	48.5102	33.6914	48.6619	33.6914	48.5644
35.1562	50.5248	35.1562	50.395	35.1562	50.656	35.1562	50.2691	35.1562	50.7858	35.1562	50.1484	35.1562	50.9109	35.1562	50.0332	35.1562	51.0277	35.1562	49.9238	35.1562	51.132	35.1562	49.821	35.1562	51.218	35.1562	49.7263	35.1562	51.2792	35.1562	49.6403	35.1562	51.3087	35.1562	49.5623	35.1562	51.3005	35.1562	49.4904	35.1562	51.2505	35.1562	49.4233	35.1562	51.1566	35.1562	49.3633	35.1562	51.0198	35.1562	49.3185	35.1562	50.8436	35.1562	49.3011	35.1562	50.6345	35.1562	49.3248	35.1562	50.4022	35.1562	49.3996	35.1562	50.1596	35.1562	49.5285	35.1562	49.9221	35.1562	49.7065
36.6211	52.1575	36.6211	52.0698	36.6211	52.2488	36.6211	51.9882	36.6211	52.3399	36.6211	51.9134	36.6211	52.4263	36.6211	51.8441	36.6211	52.5029	36.6211	51.778	36.6211	52.5644	36.6211	51.713	36.6211	52.6051	36.6211	51.6469	36.6211	52.6196	36.6211	51.5781	36.6211	52.604	36.6211	51.5051	36.6211	52.5564	36.6211	51.427	36.6211	52.478	36.6211	51.3451	36.6211	52.3723	36.6211	51.2642	36.6211	52.2438	36.6211	51.1928	36.6211	52.0973	36.6211	51.1426	36.6211	51.9379	36.6211	51.1245	36.6211	51.7712	36.6211	51.1465	36.6211	51.6051	36.6211	51.2108	36.6211	51.4491	36.6211	51.3142
38.0859	54.5217	38.0859	54.4201	38.0859	54.6171	38.0859	54.3148	38.0859	54.7036	38.0859	54.208	38.0859	54.7782	38.0859	54.1015	38.0859	54.8382	38.0859	53.9974	38.0859	54.8803	38.0859	53.898	38.0859	54.9013	38.0859	53.8063	38.0859	54.8981	38.0859	53.7247	38.0859	54.8682	38.0859	53.6551	38.0859	54.8108	38.0859	53.5985	38.0859	54.7271	38.0859	53.5553	38.0859	54.621	38.0859	53.5267	38.0859	54.4983	38.0859	53.5143	38.0859	54.3655	38.0859	53.5202	38.0859	54.229	38.0859	53.5462	38.0859	54.0944	38.0859	53.593	38.0859	53.9666	38.0859	53.6602	38.0859	53.8494	38.0859	53.7464
39.5508	55.1819	39.5508	55.1033	39.5508	55.2676	39.5508	55.0328	39.5508	55.358	39.5508	54.9704	39.5508	55.4495	39.5508	54.9155	39.5508	55.5376	39.5508	54.8682	39.5508	55.6175	39.5508	54.8303	39.5508	55.6845	39.5508	54.8054	39.5508	55.7347	39.5508	54.7972	39.5508	55.7662	39.5508	54.8082	39.5508	55.7787	39.5508	54.8378	39.5508	55.7741	39.5508	54.8829	39.5508	55.7546	39.5508	54.9388	39.5508	55.7225	39.5508	55.0013	39.5508	55.6792	39.5508	55.0675	39.5508	55.6259	39.5508	55.1359	39.5508	55.564	39.5508	55.2059	39.5508	55.4957	39.5508	55.2775	39.5508	55.4236	39.5508	55.3503
41.0156	56.7842	41.0156	56.6778	41.0156	56.8981	41.0156	56.583	41.0156	57.0133	41.0156	56.5016	41.0156	57.1231	41.0156	56.4332	41.0156	57.2215	41.0156	56.3777	41.0156	57.3036	41.0156	56.3367	41.0156	57.3666	41.0156	56.314	41.0156	57.4101	41.0156	56.3134	41.0156	57.4368	41.0156	56.3366	41.0156	57.4518	41.0156	56.3814	41.0156	57.4605	41.0156	56.4424	41.0156	57.465	41.0156	56.5133	41.0156	57.4627	41.0156	56.5893	41.0156	57.4462	41.0156	56.6688	41.0156	57.4079	41.0156	56.7524	41.0156	57.3438	41.0156	56.8425	41.0156	57.2565	41.0156	56.9405	41.0156	57.1539	41.0156	57.0458
42.4805	60.2297	42.4805	60.1686	42.4805	60.2877	42.4805	60.1082	42.4805	60.3379	42.4805	60.0509	42.4805	60.3751	42.4805	59.9988	42.4805	60.3949	42.4805	59.9538	42.4805	60.3948	42.4805	59.9169	42.4805	60.3751	42.4805	59.8871	42.4805	60.3385	42.4805	59.861	42.4805	60.2889	42.4805	59.8333	42.4805	60.2305	42.4805	59.7991	42.4805	60.1667	42.4805	59.7553	42.4805	60.0989	42.4805	59.7024	42.4805	60.0268	42.4805	59.6444	42.4805	59.9488	42.4805	59.5884	42.4805	59.864	42.4805	59.5433	42.4805	59.7744	42.4805	59.5181	42.4805	59.686	42.4805	59.5194	42.4805	59.6081	42.4805	59.5502
43.9453	59.5219	43.9453	59.4984	43.9453	59.5327	43.9453	59.464	43.9453	59.5284	43.9453	59.4204	43.9453	59.5066	43.9453	59.3684	43.9453	59.465	43.9453	59.3083	43.9453	59.4024	43.9453	59.2397	43.9453	59.3184	43.9453	59.1612	43.9453	59.2142	43.9453	59.0703	43.9453	59.092	43.9453	58.9647	43.9453	58.9552	43.9453	58.8432	43.9453	58.8078	43.9453	58.7064	43.9453	58.6545	43.9453	58.5578	43.9453	58.5	43.9453	58.404	43.9453	58.3495	43.9453	58.2541	43.9453	58.2089	43.9453	58.119	43.9453	58.0859	43.9453	58.0103	43.9453	57.9893	43.9453	57.9384	43.9453	57.9283	43.9453	57.9103
45.4102	60.6794	45.4102	60.6854	45.4102	60.6692	45.4102	60.6865	45.4102	60.6551	45.4102	60.6813	45.4102	60.6369	45.4102	60.6682	45.4102	60.6139	45.4102	60.6445	45.4102	60.5847	45.4102	60.6071	45.4102	60.5477	45.4102	60.552	45.4102	60.5006	45.4102	60.476	45.4102	60.4417	45.4102	60.3773	45.4102	60.3695	45.4102	60.257	45.4102	60.2839	45.4102	60.1199	45.4102	60.1859	45.4102	59.9745	45.4102	60.0779	45.4102	59.8319	45.4102	59.9632	45.4102	59.7039	45.4102	59.8468	45.4102	59.6015	45.4102	59.7353	45.4102	59.5331	45.4102	59.6368	45.4102	59.5035	45.4102	59.5601	45.4102	59.5135
46.875	61.0906	46.875	61.0826	46.875	61.1038	46.875	61.0795	46.875	61.1218	46.875	61.0801	46.875	61.1431	46.875	61.0823	46.875	61.1663	46.875	61.0835	46.875	61.1893	46.875	61.0803	46.875	61.2103	46.875	61.0698	46.875	61.2271	46.875	61.0493	46.875	61.2374	46.875	61.0176	46.875	61.2393	46.875	60.9754	46.875	61.2308	46.875	60.9259	46.875	61.2102	46.875	60.8739	46.875	61.1765	46.875	60.8258	46.875	61.13	46.875	60.7881	46.875	61.0723	46.875	60.7665	46.875	61.007	46.875	60.7645	46.875	60.9392	46.875	60.7833	46.875	60.8753	46.875	60.8215
48.3398	62.224	48.3398	62.2047	48.3398	62.2483	48.3398	62.1909	48.3398	62.2765	48.3398	62.1828	48.3398	62.3069	48.3398	62.1796	48.3398	62.3379	48.3398	62.1804	48.3398	62.3679	48.3398	62.1833	48.3398	62.3951	48.3398	62.1866	48.3398	62.4181	48.3398	62.1885	48.3398	62.4356	48.3398	62.188	48.3398	62.4464	48.3398	62.185	48.3398	62.4497	48.3398	62.1809	48.3398	62.4454	48.3398	62.1775	48.3398	62.4334	48.3398	62.1773	48.3398	62.4144	48.3398	62.1823	48.3398	62.3894	48.3398	62.1936	48.3398	62.3599	48.3398	62.2115	48.3398	62.3278	48.3398	62.2352	48.3398	62.295	48.3398	62.2636
51.2695	64.7289	51.2695	64.6989	51.2695	64.7527	51.2695	64.6636	51.2695	64.7692	51.2695	64.6237	51.2695	64.7772	51.2695	64.5799	51.2695	64.7755	51.2695	64.5332	51.2695	64.7626	51.2695	64.4842	51.2695	64.7375	51.2695	64.4341	51.2695	64.6993	51.2695	64.3838	51.2695	64.6482	51.2695	64.3343	51.2695	64.5855	51.2695	64.2865	51.2695	64.5135	51.2695	64.2411	51.2695	64.436	51.2695	64.1988	51.2695	64.3573	51.2695	64.1604	51.2695	64.2817	51.2695	64.1268	51.2695	64.2135	51.2695	64.0991	51.2695	64.1562	51.2695	64.0788	51.2695	64.1124	51.2695	64.068	51.2695	64.0832	51.2695	64.0689
52.7344	65.5332	52.7344	65.4562	52.7344	65.6008	52.7344	65.3714	52.7344	65.6571	52.7344	65.2805	52.7344	65.6999	52.7344	65.1854	52.7344	65.7269	52.7344	65.0885	52.7344	65.7358	52.7344	64.993	52.7344	65.7251	52.7344	64.9024	52.7344	65.6939	52.7344	64.8207	52.7344	65.643	52.7344	64.7511	52.7344	65.5741	52.7344	64.6963	52.7344	65.4905	52.7344	64.6573	52.7344	65.3959	52.7344	64.6343	52.7344	65.2947	52.7344	64.6262	52.7344	65.1912	52.7344	64.6316	52.7344	65.0895	52.7344	64.6488	52.7344	64.9936	52.7344	64.6771	52.7344	64.9066	52.7344	64.7165	52.7344	64.8309	52.7344	64.7676
54.1992	66.6306	54.1992	66.5633	54.1992	66.6749	54.1992	66.4734	54.1992	66.6959	54.1992	66.3617	54.1992	66.6935	54.1992	66.2298	54.1992	66.6675	54.1992	66.08	54.1992	66.6179	54.1992	65.9155	54.1992	66.5449	54.1992	65.7399	54.1992	66.4489	54.1992	65.5572	54.1992	66.3309	54.1992	65.3717	54.1992	66.1922	54.1992	65.1883	54.1992	66.0347	54.1992	65.0132	54.1992	65.8608	54.1992	64.8535	54.1992	65.6737	54.1992	64.7173	54.1992	65.4777	54.1992	64.6131	54.1992	65.2787	54.1992	64.5483	54.1992	65.0847	54.1992	64.5286	54.1992	64.9054	54.1992	64.557	54.1992	64.7515	54.1992	64.6327
55.6641	67.1975	55.6641	67.1296	55.6641	67.2549	55.6641	67.0524	55.6641	67.3008	55.6641	66.9676	55.6641	67.3346	55.6641	66.8773	55.6641	67.3555	55.6641	66.784	55.6641	67.363	55.6641	66.6899	55.6641	67.3565	55.6641	66.5968	55.6641	67.3356	55.6641	66.5061	55.6641	67.3001	55.6641	66.4193	55.6641	67.2499	55.6641	66.3381	55.6641	67.1852	55.6641	66.2654	55.6641	67.1064	55.6641	66.2052	55.6641	67.0142	55.6641	66.1626	55.6641	66.91	55.6641	66.1427	55.6641	66.7964	55.6641	66.1497	55.6641	66.6768	55.6641	66.1853	55.6641	66.556	55.6641	66.2484	55.6641	66.4399	55.6641	66.3352
58.5938	67.7099	58.5938	67.7538	58.5938	67.6854	58.5938	67.8145	58.5938	67.6818	58.5938	67.8886	58.5938	67.6998	58.5938	67.9724	58.5938	67.7387	58.5938	68.0622	58.5938	67.7971	58.5938	68.1546	58.5938	67.8724	58.5938	68.2473	58.5938	67.9615	58.5938	68.3386	58.5938	68.0608	58.5938	68.428	58.5938	68.1668	58.5938	68.5153	58.5938	68.2758	58.5938	68.6	58.5938	68.3846	58.5938	68.6808	58.5938	68.4901	58.5938	68.7551	58.5938	68.5894	58.5938	68.8193	58.5938	68.6798	58.5938	68.8692	58.5938	68.7589	58.5938	68.9012	58.5938	68.8242	58.5938	68.9128	58.5938	68.8731	58.5938	68.9032
60.0586	68.474	60.0586	68.4878	60.0586	68.4678	60.0586	68.5092	60.0586	68.4694	60.0586	68.5391	60.0586	68.4794	60.0586	68.5783	60.0586	68.4985	60.0586	68.6282	60.0586	68.5278	60.0586	68.69	60.0586	68.5682	60.0586	68.7647	60.0586	68.6206	60.0586	68.8523	60.0586	68.6854	60.0586	68.9517	60.0586	68.7625	60.0586	69.0602	60.0586	68.8511	60.0586	69.1735	60.0586	68.9493	60.0586	69.2856	60.0586	69.0544	60.0586	69.3895	60.0586	69.1625	60.0586	69.4776	60.0586	69.2689	60.0586	69.5435	60.0586	69.3685	60.0586	69.5823	60.0586	69.4558	60.0586	69.5917	60.0586	69.5252	60.0586	69.5719
62.9883	70.1673	62.9883	70.1174	62.9883	70.2186	62.9883	70.071	62.9883	70.2693	62.9883	70.0303	62.9883	70.3176	62.9883	69.9975	62.9883	70.3617	62.9883	69.9746	62.9883	70.4005	62.9883	69.9634	62.9883	70.4327	62.9883	69.9654	62.9883	70.458	62.9883	69.9814	62.9883	70.4763	62.9883	70.0113	62.9883	70.4881	62.9883	70.0536	62.9883	70.4946	62.9883	70.1059	62.9883	70.4969	62.9883	70.1647	62.9883	70.4966	62.9883	70.2259	62.9883	70.4946	62.9883	70.2853	62.9883	70.4915	62.9883	70.3394	62.9883	70.487	62.9883	70.3856	62.9883	70.4797	62.9883	70.4222	62.9883	70.4679	62.9883	70.4493
64.4531	71.084	64.4531	71.0273	64.4531	71.1349	64.4531	70.9667	64.4531	71.1783	64.4531	70.9047	64.4531	71.2129	64.4531	70.8442	64.4531	71.2379	64.4531	70.7881	64.4531	71.253	64.4531	70.7395	64.4531	71.2581	64.4531	70.7013	64.4531	71.2538	64.4531	70.6758	64.4531	71.2407	64.4531	70.6646	64.4531	71.22	64.4531	70.6679	64.4531	71.1934	64.4531	70.6846	64.4531	71.1625	64.4531	70.7124	64.4531	71.1294	64.4531	70.7481	64.4531	71.0958	64.4531	70.7884	64.4531	71.0632	64.4531	70.8299	64.4531	71.0322	64.4531	70.8702	64.4531	71.0025	64.4531	70.9076	64.4531	70.9728	64.4531	70.9416
67.3828	72.4334	67.3828	72.387	67.3828	72.4669	67.3828	72.3296	67.3828	72.4866	67.3828	72.2634	67.3828	72.4918	67.3828	72.191	67.3828	72.4825	67.3828	72.1156	67.3828	72.4592	67.3828	72.0405	67.3828	72.4228	67.3828	71.9692	67.3828	72.3749	67.3828	71.9045	67.3828	72.3175	67.3828	71.8489	67.3828	72.2529	67.3828	71.8038	67.3828	72.1838	67.3828	71.7697	67.3828	72.1131	67.3828	71.746	67.3828	72.0435	67.3828	71.7314	67.3828	71.9778	67.3828	71.7248	67.3828	71.9183	67.3828	71.7248	67.3828	71.8664	67.3828	71.731	67.3828	71.8232	67.3828	71.7433	67.3828	71.7886	67.3828	71.7622
68.8477	72.9608	68.8477	72.9166	68.8477	72.9923	68.8477	72.8613	68.8477	73.01	68.8477	72.7969	68.8477	73.0137	68.8477	72.7263	68.8477	73.0031	68.8477	72.6524	68.8477	72.979	68.8477	72.5786	68.8477	72.9421	68.8477	72.5082	68.8477	72.8939	68.8477	72.4444	68.8477	72.8363	68.8477	72.3893	68.8477	72.7718	68.8477	72.3446	68.8477	72.7029	68.8477	72.3105	68.8477	72.6327	68.8477	72.2865	68.8477	72.564	68.8477	72.2713	68.8477	72.4994	68.8477	72.2635	68.8477	72.4411	68.8477	72.262	68.8477	72.3909	68.8477	72.2663	68.8477	72.3495	68.8477	72.2764	68.8477	72.3171	68.8477	72.293
71.7773	73.9481	71.7773	73.9241	71.7773	73.9603	71.7773	73.8893	71.7773	73.9601	71.7773	73.8451	71.7773	73.9475	71.7773	73.7937	71.7773	73.9229	71.7773	73.7374	71.7773	73.8873	71.7773	73.679	71.7773	73.842	71.7773	73.6211	71.7773	73.7888	71.7773	73.5664	71.7773	73.73	71.7773	73.5168	71.7773	73.6681	71.7773	73.4739	71.7773	73.6059	71.7773	73.4383	71.7773	73.5461	71.7773	73.4096	71.7773	73.4913	71.7773	73.3871	71.7773	73.4435	71.7773	73.3695	71.7773	73.4043	71.7773	73.356	71.7773	73.3745	71.7773	73.3459	71.7773	73.3541	71.7773	73.3397	71.7773	73.3424	71.7773	73.3381
74.707	74.8854	74.707	74.8519	74.707	74.9061	74.707	74.8068	74.707	74.913	74.707	74.7523	74.707	74.9058	74.707	74.6908	74.707	74.8849	74.707	74.6252	74.707	74.851	74.707	74.5584	74.707	74.8055	74.707	74.4937	74.707	74.7506	74.707	74.4336	74.707	74.6886	74.707	74.3806	74.707	74.6226	74.707	74.3362	74.707	74.5557	74.707	74.3009	74.707	74.4909	74.707	74.2745	74.707	74.4309	74.707	74.2559	74.707	74.3779	74.707	74.2437	74.707	74.3334	74.707	74.2366	74.707	74.2978	74.707	74.2337	74.707	74.2711	74.707	74.235	74.707	74.2526	74.707	74.241
77.6367	75.7224	77.6367	75.6967	77.6367	75.7357	77.6367	75.6596	77.6367	75.7358	77.6367	75.6128	77.6367	75.7228	77.6367	75.5584	77.6367	75.697	77.6367	75.4988	77.6367	75.6594	77.6367	75.4365	77.6367	75.6115	77.6367	75.3743	77.6367	75.5552	77.6367	75.3146	77.6367	75.493	77.6367	75.2596	77.6367	75.4277	77.6367	75.2108	77.6367	75.3621	77.6367	75.1692	77.6367	75.2991	77.6367	75.1349	77.6367	75.2411	77.6367	75.1078	77.6367	75.1903	77.6367	75.0873	77.6367	75.1479	77.6367	75.0729	77.6367	75.1144	77.6367	75.0642	77.6367	75.0897	77.6367	75.0611	77.6367	75.0732	77.6367	75.0639
79.1016	76.0798	79.1016	76.0551	79.1016	76.0921	79.1016	76.019	79.1016	76.0912	79.1016	75.9731	79.1016	76.0773	79.1016	75.9197	79.1016	76.051	79.1016	75.8613	79.1016	76.0133	79.1016	75.8006	79.1016	75.9661	79.1016	75.7403	79.1016	75.9114	79.1016	75.683	79.1016	75.8518	79.1016	75.631	79.1016	75.79	79.1016	75.5856	79.1016	75.7288	79.1016	75.5477	79.1016	75.6708	79.1016	75.5176	79.1016	75.6182	79.1016	75.4946	79.1016	75.5726	79.1016	75.4779	79.1016	75.535	79.1016	75.4668	79.1016	75.5056	79.1016	75.4605	79.1016	75.4842	79.1016	75.4587	79.1016	75.4698	79.1016	75.4616
82.0312	76.7951	82.0312	76.7716	82.0312	76.8068	82.0312	76.7374	82.0312	76.806	82.0312	76.694	82.0312	76.7927	82.0312	76.6436	82.0312	76.7671	82.0312	76.5884	82.0312	76.7303	82.0312	76.531	82.0312	76.684	82.0312	76.4741	82.0312	76.6304	82.0312	76.4201	82.0312	76.5724	82.0312	76.3713	82.0312	76.513	82.0312	76.3293	82.0312	76.4555	82.0312	76.2948	82.0312	76.4024	82.0312	76.2683	82.0312	76.3559	82.0312	76.2491	82.0312	76.3172	82.0312	76.2363	82.0312	76.2865	82.0312	76.2289	82.0312	76.2634	82.0312	76.2256	82.0312	76.247	82.0312	76.2258	82.0312	76.2359	82.0312	76.2291
84.9609	77.5109	84.9609	77.488	84.9609	77.5195	84.9609	77.4522	84.9609	77.5131	84.9609	77.4054	84.9609	77.492	84.9609	77.3503	84.9609	77.4571	84.9609	77.29	84.9609	77.4105	84.9609	77.2276	84.9609	77.3547	84.9609	77.1663	84.9609	77.2932	84.9609	77.1092	84.9609	77.2299	84.9609	77.0589	84.9609	77.1686	84.9609	77.0174	84.9609	77.1129	84.9609	76.9857	84.9609	77.0655	84.9609	76.9639	84.9609	77.0278	84.9609	76.9511	84.9609	77	84.9609	76.9454	84.9609	76.9812	84.9609	76.9448	84.9609	76.9693	84.9609	76.9471	84.9609	76.9622	84.9609	76.9505	84.9609	76.9577	84.9609	76.9541
87.8906	78.2008	87.8906	78.1782	87.8906	78.2095	87.8906	78.1431	87.8906	78.2035	87.8906	78.0975	87.8906	78.1827	87.8906	78.0438	87.8906	78.1475	87.8906	77.9846	87.8906	78.0994	87.8906	77.9227	87.8906	78.0403	87.8906	77.8609	87.8906	77.9727	87.8906	77.8016	87.8906	77.9	87.8906	77.7466	87.8906	77.8256	87.8906	77.6973	87.8906	77.7533	87.8906	77.6544	87.8906	77.6867	87.8906	77.6178	87.8906	77.6287	87.8906	77.5872	87.8906	77.5812	87.8906	77.5619	87.8906	77.5453	87.8906	77.5412	87.8906	77.5208	87.8906	77.5245	87.8906	77.5068	87.8906	77.5119	87.8906	77.5017	87.8906	77.5039
90.8203	78.7815	90.8203	78.7521	90.8203	78.7976	90.8203	78.711	90.8203	78.7995	90.8203	78.6602	90.8203	78.7873	90.8203	78.6023	90.8203	78.7614	90.8203	78.5403	90.8203	78.7233	90.8203	78.4773	90.8203	78.6749	90.8203	78.4163	90.8203	78.6189	90.8203	78.3602	90.8203	78.5583	90.8203	78.3109	90.8203	78.4962	90.8203	78.2699	90.8203	78.4358	90.8203	78.2379	90.8203	78.3798	90.8203	78.2145	90.8203	78.3302	90.8203	78.199	90.8203	78.2884	90.8203	78.1898	90.8203	78.2549	90.8203	78.1855	90.8203	78.2295	90.8203	78.1847	90.8203	78.2113	90.8203	78.1866	90.8203	78.199	90.8203	78.1911
95.2148	79.7067	95.2148	79.6792	95.2148	79.7206	95.2148	79.6395	95.2148	79.72	95.2148	79.5897	95.2148	79.7052	95.2148	79.5328	95.2148	79.6769	95.2148	79.4719	95.2148	79.6369	95.2148	79.4104	95.2148	79.5873	95.2148	79.3512	95.2148	79.531	95.2148	79.2973	95.2148	79.4712	95.2148	79.2505	95.2148	79.4112	95.2148	79.2122	95.2148	79.3543	95.2148	79.1828	95.2148	79.3031	95.2148	79.1622	95.2148	79.2595	95.2148	79.1492	95.2148	79.2243	95.2148	79.1425	95.2148	79.1973	95.2148	79.1404	95.2148	79.1777	95.2148	79.1414	95.2148	79.1642	95.2148	79.1443	95.2148	79.155	95.2148	79.1487
98.1445	80.2601	98.1445	80.2373	98.1445	80.2692	98.1445	80.202	98.1445	80.2643	98.1445	80.1562	98.1445	80.2458	98.1445	80.1024	98.1445	80.2146	98.1445	80.0436	98.1445	80.1726	98.1445	79.983	98.1445	80.1222	98.1445	79.9238	98.1445	80.0662	98.1445	79.8689	98.1445	80.0077	98.1445	79.8207	98.1445	79.9498	98.1445	79.7808	98.1445	79.8957	98.1445	79.75	98.1445	79.8475	98.1445	79.7282	98.1445	79.8071	98.1445	79.7146	98.1445	79.7751	98.1445	79.7075	98.1445	79.7512	98.1445	79.7052	98.1445	79.7345	98.1445	79.7058	98.1445	79.7233	98.1445	79.708	98.1445	79.7161	98.1445	79.7114
101.074	80.7185	101.074	80.6946	101.074	80.7292	101.074	80.6586	101.074	80.726	101.074	80.6127	101.074	80.7092	101.074	80.5596	101.074	80.6798	101.074	80.5025	101.074	80.6396	101.074	80.4447	101.074	80.5908	101.074	80.3895	101.074	80.5363	101.074	80.3397	101.074	80.4794	101.074	80.2974	101.074	80.4232	101.074	80.2638	101.074	80.371	101.074	80.2391	101.074	80.3253	101.074	80.2228	101.074	80.2877	101.074	80.2135	101.074	80.2588	101.074	80.2094	101.074	80.2384	101.074	80.2085	101.074	80.2252	101.074	80.2093	101.074	80.2175	101.074	80.2104	101.074	80.2136	101.074	80.2116
105.469	81.4698	105.469	81.4498	105.469	81.4745	105.469	81.4157	105.469	81.4637	105.469	81.3696	105.469	81.4378	105.469	81.3141	105.469	81.3983	105.469	81.2527	105.469	81.3474	105.469	81.1891	105.469	81.288	105.469	81.1269	105.469	81.2235	105.469	81.0697	105.469	81.1576	105.469	81.0202	105.469	81.0937	105.469	80.9801	105.469	81.0353	105.469	80.9499	105.469	80.9851	105.469	80.9288	105.469	80.9449	105.469	80.9152	105.469	80.9155	105.469	80.9067	105.469	80.8965	105.469	80.9012	105.469	80.8866	105.469	80.8969	105.469	80.8834	105.469	80.8927	105.469	80.8848	105.469	80.8884
108.398	82.01	108.398	81.9869	108.398	82.0162	108.398	81.9483	108.398	82.0052	108.398	81.8966	108.398	81.9776	108.398	81.8348	108.398	81.9348	108.398	81.7665	108.398	81.8791	108.398	81.6956	108.398	81.8138	108.398	81.6261	108.398	81.7424	108.398	81.5618	108.398	81.6688	108.398	81.5057	108.398	81.597	108.398	81.4597	108.398	81.5305	108.398	81.4247	108.398	81.4725	108.398	81.4001	108.398	81.4252	108.398	81.384	108.398	81.3897	108.398	81.3739	108.398	81.3658	108.398	81.3674	108.398	81.3524	108.398	81.3622	108.398	81.3474	108.398	81.3571	108.398	81.3481	108.398	81.352
112.793	82.7279	112.793	82.7024	112.793	82.7372	112.793	82.6624	112.793	82.7298	112.793	82.6101	112.793	82.7064	112.793	82.5488	112.793	82.6684	112.793	82.4823	112.793	82.6183	112.793	82.4148	112.793	82.5593	112.793	82.3504	112.793	82.495	112.793	82.2929	112.793	82.4294	112.793	82.2453	112.793	82.3663	112.793	82.2091	112.793	82.3094	112.793	82.1847	112.793	82.2612	112.793	82.1712	112.793	82.2237	112.793	82.1662	112.793	82.1973	112.793	82.167	112.793	82.1813	112.793	82.1705	112.793	82.1738	112.793	82.1741	112.793	82.1723	112.793	82.1761	112.793	82.1739	112.793	82.1757
117.188	83.374	117.188	83.3543	117.188	83.3751	117.188	83.3175	117.188	83.3571	117.188	83.2665	117.188	83.321	117.188	83.2048	117.188	83.269	117.188	83.1368	117.188	83.2044	117.188	83.0673	117.188	83.1318	117.188	83.0009	117.188	83.0559	117.188	82.9416	117.188	82.9818	117.188	82.8926	117.188	82.9142	117.188	82.8556	117.188	82.857	117.188	82.8306	117.188	82.8128	117.188	82.8164	117.188	82.7827	117.188	82.8102	117.188	82.7661	117.188	82.8089	117.188	82.7611	117.188	82.8092	117.188	82.765	117.188	82.8082	117.188	82.7743	117.188	82.804	117.188	82.7857	117.188	82.7963
120.117	83.8519	120.117	83.8293	120.117	83.8551	120.117	83.7889	120.117	83.8385	120.117	83.7333	120.117	83.8026	120.117	83.6662	120.117	83.7494	120.117	83.5918	120.117	83.6819	120.117	83.5151	120.117	83.6042	120.117	83.441	120.117	83.5212	120.117	83.3741	120.117	83.4383	120.117	83.318	120.117	83.361	120.117	83.2748	120.117	83.2941	120.117	83.2452	120.117	83.2411	120.117	83.2278	120.117	83.2039	120.117	83.2202	120.117	83.1826	120.117	83.2189	120.117	83.1753	120.117	83.22	120.117	83.1786	120.117	83.2204	120.117	83.1883	120.117	83.2176	120.117	83.2001	120.117	83.2106
124.512	84.5335	124.512	84.5074	124.512	84.5403	124.512	84.4632	124.512	84.5273	124.512	84.4038	124.512	84.4954	124.512	84.3324	124.512	84.4466	124.512	84.2537	124.512	84.3838	124.512	84.1726	124.512	84.311	124.512	84.0944	124.512	84.2329	124.512	84.024	124.512	84.1546	124.512	83.9656	124.512	84.0811	124.512	83.9217	124.512	84.0168	124.512	83.8931	124.512	83.9652	124.512	83.8789	124.512	83.9281	124.512	83.8762	124.512	83.9053	124.512	83.8814	124.512	83.895	124.512	83.8902	124.512	83.894	124.512	83.8989	124.512	83.898	124.512	83.9046	124.512	83.9031	124.512	83.906
128.906	85.2511	128.906	85.2264	128.906	85.2539	128.906	85.1811	128.906	85.2345	128.906	85.1178	128.906	85.1937	128.906	85.0402	128.906	85.134	128.906	84.9528	128.906	85.0586	128.906	84.861	128.906	84.9721	128.906	84.7707	128.906	84.88	128.906	84.6874	128.906	84.788	128.906	84.6161	128.906	84.7018	128.906	84.5603	128.906	84.6265	128.906	84.5212	128.906	84.5657	128.906	84.498	128.906	84.5215	128.906	84.488	128.906	84.4939	128.906	84.4871	128.906	84.4809	128.906	84.4909	128.906	84.4788	128.906	84.4952	128.906	84.4834	128.906	84.4972	128.906	84.4901	128.906	84.4954
133.301	85.85	133.301	85.8312	133.301	85.8473	133.301	85.7925	133.301	85.8226	133.301	85.7365	133.301	85.777	133.301	85.6671	133.301	85.7124	133.301	85.5887	133.301	85.6325	133.301	85.5063	133.301	85.5417	133.301	85.4251	133.301	85.4455	133.301	85.3497	133.301	85.3496	133.301	85.2842	133.301	85.26	133.301	85.2308	133.301	85.1817	133.301	85.1904	133.301	85.1186	133.301	85.1618	133.301	85.0733	133.301	85.1428	133.301	85.046	133.301	85.1299	133.301	85.0352	133.301	85.1199	133.301	85.0377	133.301	85.1096	133.301	85.0492	133.301	85.0973	133.301	85.0653	133.301	85.0822
139.16	86.556	139.16	86.5303	139.16	86.561	139.16	86.4858	139.16	86.5447	139.16	86.4257	139.16	86.5083	139.16	86.3544	139.16	86.454	139.16	86.2773	139.16	86.3856	139.16	86.2003	139.16	86.308	139.16	86.1292	139.16	86.2269	139.16	86.0694	139.16	86.1482	139.16	86.0246	139.16	86.0779	139.16	85.9968	139.16	86.0209	139.16	85.9859	139.16	85.9808	139.16	85.9893	139.16	85.9588	139.16	86.0026	139.16	85.9542	139.16	86.0204	139.16	85.9639	139.16	86.0372	139.16	85.9832	139.16	86.0485	139.16	86.0065	139.16	86.0512	139.16	86.0283	139.16	86.0442
143.555	87.1547	143.555	87.1213	143.555	87.165	143.555	87.0668	143.555	87.1518	143.555	86.9949	143.555	87.1162	143.555	86.9105	143.555	87.0607	143.555	86.8197	143.555	86.9894	143.555	86.7298	143.555	86.9076	143.555	86.6478	143.555	86.8216	143.555	86.5804	143.555	86.7379	143.555	86.5324	143.555	86.6633	143.555	86.5064	143.555	86.6032	143.555	86.502	143.555	86.5615	143.555	86.5158	143.555	86.5399	143.555	86.5421	143.555	86.5371	143.555	86.5737	143.555	86.5497	143.555	86.6037	143.555	86.572	143.555	86.626	143.555	86.5976	143.555	86.6367	143.555	86.6202	143.555	86.6344
147.949	87.7875	147.949	87.756	147.949	87.7905	147.949	87.6975	147.949	87.7654	147.949	87.6152	147.949	87.7145	147.949	87.514	147.949	87.6412	147.949	87.4006	147.949	87.5509	147.949	87.283	147.949	87.4496	147.949	87.1699	147.949	87.3446	147.949	87.0695	147.949	87.243	147.949	86.9892	147.949	87.1518	147.949	86.9334	147.949	87.0765	147.949	86.9036	147.949	87.0208	147.949	86.8976	147.949	86.9858	147.949	86.91	147.949	86.97	147.949	86.9335	147.949	86.9692	147.949	86.9603	147.949	86.9782	147.949	86.9838	147.949	86.9907	147.949	86.9994	147.949	87.0012	147.949	87.005
153.809	88.3192	153.809	88.296	153.809	88.3146	153.809	88.2473	153.809	88.2815	153.809	88.1772	153.809	88.2211	153.809	88.0909	153.809	88.1368	153.809	87.9945	153.809	88.0339	153.809	87.8947	153.809	87.9192	153.809	87.798	153.809	87.8011	153.809	87.7107	153.809	87.6883	153.809	87.638	153.809	87.5892	153.809	87.5838	153.809	87.5108	153.809	87.5495	153.809	87.4577	153.809	87.534	153.809	87.431	153.809	87.5338	153.809	87.4285	153.809	87.5432	153.809	87.4449	153.809	87.5555	153.809	87.4731	153.809	87.5645	153.809	87.5052	153.809	87.5653	153.809	87.5344	153.809	87.5553
159.668	88.8827	159.668	88.8482	159.668	88.8878	159.668	88.7867	159.668	88.8631	159.668	88.7024	159.668	88.8098	159.668	88.6015	159.668	88.7313	159.668	88.4915	159.668	88.6324	159.668	88.3807	159.668	88.5199	159.668	88.2774	159.668	88.4017	159.668	88.189	159.668	88.2864	159.668	88.1208	159.668	88.1827	159.668	88.0758	159.668	88.0982	159.668	88.0541	159.668	88.0386	159.668	88.0532	159.668	88.0062	159.668	88.0678	159.668	87.9998	159.668	88.091	159.668	88.0148	159.668	88.1152	159.668	88.0438	159.668	88.133	159.668	88.0781	159.668	88.1391	159.668	88.1094	159.668	88.131
165.527	89.3639	165.527	89.3311	165.527	89.3653	165.527	89.269	165.527	89.3354	165.527	89.1815	165.527	89.276	165.527	89.0747	165.527	89.1911	165.527	88.9565	165.527	89.0864	165.527	88.8361	165.527	88.9697	165.527	88.7233	165.527	88.8498	165.527	88.6269	165.527	88.7362	165.527	88.5538	165.527	88.638	165.527	88.5079	165.527	88.5623	165.527	88.4898	165.527	88.5135	165.527	88.4964	165.527	88.4925	165.527	88.5215	165.527	88.4965	165.527	88.557	165.527	88.5196	165.527	88.5937	165.527	88.5539	165.527	88.6233	165.527	88.5904	165.527	88.6393	165.527	88.6208	165.527	88.6383
171.387	89.6819	171.387	89.6401	171.387	89.6903	171.387	89.5672	171.387	89.6652	171.387	89.4674	171.387	89.6084	171.387	89.3472	171.387	89.5242	171.387	89.2149	171.387	89.4185	171.387	89.0799	171.387	89.2992	171.387	88.9526	171.387	89.1755	171.387	88.8428	171.387	89.0573	171.387	88.7585	171.387	88.9538	171.387	88.7046	171.387	88.8725	171.387	88.6824	171.387	88.8181	171.387	88.6891	171.387	88.7917	171.387	88.7185	171.387	88.7904	171.387	88.7619	171.387	88.8081	171.387	88.8094	171.387	88.8362	171.387	88.8516	171.387	88.8653	171.387	88.8808	171.387	88.8863	171.387	88.8926
177.246	89.8674	177.246	89.8336	177.246	89.8665	177.246	89.7671	177.246	89.8313	177.246	89.6721	177.246	89.7641	177.246	89.5553	177.246	89.6692	177.246	89.4252	177.246	89.5532	177.246	89.2924	177.246	89.4242	177.246	89.1677	177.246	89.292	177.246	89.0617	177.246	89.1669	177.246	88.9823	177.246	89.0591	177.246	88.9342	177.246	88.9767	177.246	88.9176	177.246	88.9249	177.246	88.9285	177.246	88.9048	177.246	88.9592	177.246	88.9133	177.246	89.0001	177.246	88.9434	177.246	89.041	177.246	88.9855	177.246	89.073	177.246	89.0294	177.246	89.0895	177.246	89.0657	177.246	89.087
183.105	89.9781	183.105	89.9472	183.105	89.9717	183.105	89.881	183.105	89.9288	183.105	89.7838	183.105	89.8524	183.105	89.6626	183.105	89.748	183.105	89.5267	183.105	89.6228	183.105	89.3874	183.105	89.4864	183.105	89.2566	183.105	89.3496	183.105	89.1459	183.105	89.2237	183.105	89.0647	183.105	89.1196	183.105	89.0186	183.105	89.0458	183.105	89.0085	183.105	89.007	183.105	89.0304	183.105	89.0036	183.105	89.076	183.105	89.0307	183.105	89.1341	183.105	89.0798	183.105	89.1922	183.105	89.1395	183.105	89.239	183.105	89.1975	183.105	89.2656	183.105	89.2428	183.105	89.2669
188.965	90.06	188.965	90.0372	188.965	90.0431	188.965	89.9756	188.965	89.9874	188.965	89.8785	188.965	89.8956	188.965	89.7516	188.965	89.7725	188.965	89.6037	188.965	89.6248	188.965	89.4461	188.965	89.4618	188.965	89.2917	188.965	89.295	188.965	89.1534	188.965	89.137	188.965	89.0424	188.965	89.0006	188.965	88.9661	188.965	88.8967	188.965	88.9269	188.965	88.8323	188.965	88.9224	188.965	88.809	188.965	88.9451	188.965	88.823	188.965	88.9844	188.965	88.8655	188.965	89.0275	188.965	88.9242	188.965	89.0619	188.965	88.9856	188.965	89.0778	188.965	89.0373	188.965	89.0697
196.289	90.0914	196.289	90.0542	196.289	90.0847	196.289	89.9752	196.289	90.0342	196.289	89.8591	196.289	89.9421	196.289	89.7136	196.289	89.8128	196.289	89.5491	196.289	89.6537	196.289	89.3786	196.289	89.4751	196.289	89.2163	196.289	89.2906	196.289	89.0757	196.289	89.1153	196.289	88.9677	196.289	88.9648	196.289	88.8992	196.289	88.8517	196.289	88.8712	196.289	88.7837	196.289	88.8793	196.289	88.7614	196.289	88.9143	196.289	88.7794	196.289	88.9636	196.289	88.8272	196.289	89.0135	196.289	88.8917	196.289	89.051	196.289	88.9593	196.289	89.0664	196.289	89.017	196.289	89.0548
203.613	89.9252	203.613	89.8773	203.613	89.9259	203.613	89.7845	203.613	89.8801	203.613	89.6517	203.613	89.7907	203.613	89.4874	203.613	89.6631	203.613	89.303	203.613	89.5052	203.613	89.1129	203.613	89.3271	203.613	88.9326	203.613	89.1414	203.613	88.7773	203.613	88.9622	203.613	88.6593	203.613	88.8043	203.613	88.5859	203.613	88.6812	203.613	88.5578	203.613	88.6022	203.613	88.5692	203.613	88.5701	203.613	88.6095	203.613	88.5798	203.613	88.665	203.613	88.6202	203.613	88.7221	203.613	88.676	203.613	88.7686	203.613	88.7321	203.613	88.7957	203.613	88.7757	203.613	88.7983
210.938	89.6579	210.938	89.6079	210.938	89.6627	210.938	89.516	210.938	89.6213	210.938	89.3876	210.938	89.5351	210.938	89.2296	210.938	89.4086	210.938	89.0514	210.938	89.2497	210.938	88.8646	210.938	89.0689	210.938	88.6828	210.938	88.8802	210.938	88.5207	210.938	88.6992	210.938	88.3918	210.938	88.5421	210.938	88.3059	210.938	88.4226	210.938	88.2668	210.938	88.3491	210.938	88.2711	210.938	88.322	210.938	88.3089	210.938	88.3337	210.938	88.3658	210.938	88.3713	210.938	88.4264	210.938	88.42	210.938	88.477	210.938	88.4666	210.938	88.5083	210.938	88.5009	210.938	88.5161
218.262	89.3607	218.262	89.3136	218.262	89.3605	218.262	89.2221	218.262	89.3126	218.262	89.0917	218.262	89.2193	218.262	88.9302	218.262	89.0865	218.262	88.7479	218.262	88.9237	218.262	88.5583	218.262	88.7434	218.262	88.3774	218.262	88.5612	218.262	88.222	218.262	88.3935	218.262	88.1072	218.262	88.2567	218.262	88.0438	218.262	88.1642	218.262	88.0346	218.262	88.1242	218.262	88.0744	218.262	88.1369	218.262	88.1504	218.262	88.1937	218.262	88.2455	218.262	88.2778	218.262	88.3423	218.262	88.3684	218.262	88.4255	218.262	88.4457	218.262	88.4833	218.262	88.4948	218.262	88.5077
225.586	89.184	225.586	89.1476	225.586	89.1663	225.586	89.0601	225.586	89.0942	225.586	88.9269	225.586	88.9703	225.586	88.7563	225.586	88.8004	225.586	88.5596	225.586	88.5944	225.586	88.3515	225.586	88.3661	225.586	88.1494	225.586	88.1336	225.586	87.9718	225.586	87.9175	225.586	87.8356	225.586	87.7384	225.586	87.7522	225.586	87.6145	225.586	87.7258	225.586	87.557	225.586	87.752	225.586	87.5675	225.586	87.819	225.586	87.6369	225.586	87.9094	225.586	87.7464	225.586	88.003	225.586	87.8719	225.586	88.0799	225.586	87.9889	225.586	88.1238	225.586	88.0774	225.586	88.124
232.91	88.9021	232.91	88.8626	232.91	88.8853	232.91	88.7689	232.91	88.8123	232.91	88.6253	232.91	88.6848	232.91	88.439	232.91	88.5071	232.91	88.2208	232.91	88.2868	232.91	87.9852	232.91	88.0362	232.91	87.7503	232.91	87.7722	232.91	87.5364	232.91	87.516	232.91	87.3637	232.91	87.2905	232.91	87.2479	232.91	87.117	232.91	87.1956	232.91	87.0113	232.91	87.202	232.91	86.9796	232.91	87.2523	232.91	87.0165	232.91	87.3258	232.91	87.1047	232.91	87.4012	232.91	87.219	232.91	87.46	232.91	87.3326	232.91	87.4881	232.91	87.4232	232.91	87.4767
241.699	88.4672	241.699	88.4186	241.699	88.4615	241.699	88.3178	241.699	88.4023	241.699	88.1699	241.699	88.2924	241.699	87.9836	241.699	88.1371	241.699	87.7705	241.699	87.944	241.699	87.5447	241.699	87.7237	241.699	87.3213	241.699	87.4901	241.699	87.1158	241.699	87.2597	241.699	86.9431	241.699	87.0501	241.699	86.8156	241.699	86.878	241.699	86.7408	241.699	86.7559	241.699	86.7188	241.699	86.6892	241.699	86.741	241.699	86.6753	241.699	86.7914	241.699	86.7039	241.699	86.8502	241.699	86.7596	241.699	86.8987	241.699	86.8245	241.699	86.9232	241.699	86.8815	241.699	86.9171
250.488	88.2189	250.488	88.1618	250.488	88.2068	250.488	88.0372	250.488	88.1275	250.488	87.8509	250.488	87.9862	250.488	87.6139	250.488	87.7914	250.488	87.3423	250.488	87.5553	250.488	87.0574	250.488	87.294	250.488	86.7836	250.488	87.027	250.488	86.546	250.488	86.7761	250.488	86.3656	250.488	86.5634	250.488	86.2558	250.488	86.4074	250.488	86.2183	250.488	86.3194	250.488	86.2432	250.488	86.2996	250.488	86.3116	250.488	86.3367	250.488	86.4011	250.488	86.41	250.488	86.4914	250.488	86.4953	250.488	86.567	250.488	86.5707	250.488	86.6177	250.488	86.6205	250.488	86.6366
259.277	87.87	259.277	87.8301	259.277	87.8442	259.277	87.7255	259.277	87.7543	259.277	87.5596	259.277	87.604	259.277	87.3399	259.277	87.3999	259.277	87.0782	259.277	87.1522	259.277	86.7918	259.277	86.8757	259.277	86.5031	259.277	86.59	259.277	86.2379	259.277	86.3186	259.277	86.0226	259.277	86.0864	259.277	85.8788	259.277	85.9154	259.277	85.8185	259.277	85.8208	259.277	85.84	259.277	85.8066	259.277	85.9279	259.277	85.8646	259.277	86.0556	259.277	85.9752	259.277	86.1916	259.277	86.1107	259.277	86.3061	259.277	86.2414	259.277	86.3761	259.277	86.3404	259.277	86.3883
268.066	87.4957	268.066	87.4492	268.066	87.4697	268.066	87.3281	268.066	87.3766	268.066	87.1358	268.066	87.2229	268.066	86.8826	268.066	87.0138	268.066	86.5859	268.066	86.7545	268.066	86.2681	268.066	86.4526	268.066	85.954	268.066	86.1226	268.066	85.6683	268.066	85.7889	268.066	85.433	268.066	85.4858	268.066	85.2662	268.066	85.2503	268.066	85.1804	268.066	85.1106	268.066	85.1801	268.066	85.0761	268.066	85.2576	268.066	85.1349	268.066	85.3909	268.066	85.26	268.066	85.5451	268.066	85.4185	268.066	85.68	268.066	85.5766	268.066	85.7612	268.066	85.7024	268.066	85.7691
276.855	87.0509	276.855	86.9885	276.855	87.0537	276.855	86.8699	276.855	86.9923	276.855	86.6947	276.855	86.8643	276.855	86.4599	276.855	86.6711	276.855	86.1661	276.855	86.4185	276.855	85.8266	276.855	86.1172	276.855	85.4744	276.855	85.784	276.855	85.1587	276.855	85.4427	276.855	84.9298	276.855	85.1235	276.855	84.8182	276.855	84.8622	276.855	84.8214	276.855	84.6921	276.855	84.9082	276.855	84.6314	276.855	85.0354	276.855	84.6709	276.855	85.1622	276.855	84.7761	276.855	85.2567	276.855	84.9063	276.855	85.3002	276.855	85.0329	276.855	85.289	276.855	85.1434	276.855	85.2321
287.109	86.323	287.109	86.2858	287.109	86.2861	287.109	86.1783	287.109	86.1722	287.109	86.0057	287.109	85.982	287.109	85.7769	287.109	85.724	287.109	85.5051	287.109	85.4172	287.109	85.2071	287.109	85.0906	287.109	84.9022	287.109	84.7779	287.109	84.6138	287.109	84.5091	287.109	84.3725	287.109	84.3038	287.109	84.2121	287.109	84.1712	287.109	84.155	287.109	84.1151	287.109	84.198	287.109	84.1395	287.109	84.3146	287.109	84.2452	287.109	84.4721	287.109	84.4189	287.109	84.6431	287.109	84.6263	287.109	84.8038	287.109	84.8174	287.109	84.9267	287.109	84.9448	287.109	84.9811
297.363	85.7572	297.363	85.7483	297.363	85.7052	297.363	85.6768	297.363	85.5931	297.363	85.5444	297.363	85.4175	297.363	85.3574	297.363	85.1707	297.363	85.1252	297.363	84.8457	297.363	84.8566	297.363	84.4463	297.363	84.5596	297.363	83.9965	297.363	84.2477	297.363	83.5436	297.363	83.9485	297.363	83.1508	297.363	83.7059	297.363	82.8787	297.363	83.5666	297.363	82.7652	297.363	83.5552	297.363	82.8133	297.363	83.6574	297.363	82.9934	297.363	83.826	297.363	83.2559	297.363	84.0031	297.363	83.5465	297.363	84.1378	297.363	83.8167	297.363	84.1957	297.363	84.0295	297.363	84.16
307.617	85.7589	307.617	85.7147	307.617	85.7221	307.617	85.5861	307.617	85.6121	307.617	85.3756	307.617	85.4383	307.617	85.0926	307.617	85.2087	307.617	84.7553	307.617	84.9286	307.617	84.3911	307.617	84.6021	307.617	84.0327	307.617	84.2384	307.617	83.7119	307.617	83.8576	307.617	83.4556	307.617	83.4947	307.617	83.286	307.617	83.1948	307.617	83.2205	307.617	82.9997	307.617	83.2618	307.617	82.9319	307.617	83.3878	307.617	82.984	307.617	83.5531	307.617	83.1236	307.617	83.7058	307.617	83.3081	307.617	83.8056	307.617	83.4983	307.617	83.8313	307.617	83.6635	307.617	83.7804
319.336	86.2096	319.336	86.1481	319.336	86.1776	319.336	85.9965	319.336	86.0512	319.336	85.7596	319.336	85.8343	319.336	85.4441	319.336	85.5367	319.336	85.0624	319.336	85.1739	319.336	84.6375	319.336	84.7656	319.336	84.205	319.336	84.3358	319.336	83.8087	319.336	83.914	319.336	83.4906	319.336	83.537	319.336	83.2812	319.336	83.2474	319.336	83.1971	319.336	83.083	319.336	83.2407	319.336	83.0617	319.336	83.3944	319.336	83.1706	319.336	83.6155	319.336	83.3696	319.336	83.8437	319.336	83.6065	319.336	84.0221	319.336	83.8322	319.336	84.1144	319.336	84.0083	319.336	84.108
329.59	86.4084	329.59	86.3311	329.59	86.407	329.59	86.18	329.59	86.3222	329.59	85.9576	329.59	86.1504	329.59	85.6648	329.59	85.8909	329.59	85.3031	329.59	85.5476	329.59	84.8808	329.59	85.1313	329.59	84.4219	329.59	84.6639	329.59	83.9729	329.59	84.1797	329.59	83.5981	329.59	83.7233	329.59	83.3572	329.59	83.344	329.59	83.2738	329.59	83.0887	329.59	83.3267	329.59	82.9908	329.59	83.4691	329.59	83.0548	329.59	83.654	329.59	83.2472	329.59	83.8411	329.59	83.5054	329.59	83.9938	329.59	83.7615	329.59	84.0785	329.59	83.961	329.59	84.0705
341.309	86.4445	341.309	86.4123	341.309	86.3795	341.309	86.2819	341.309	86.2213	341.309	86.0567	341.309	85.9769	341.309	85.7456	341.309	85.6559	341.309	85.3639	341.309	85.2689	341.309	84.9323	341.309	84.828	341.309	84.4751	341.309	84.3518	341.309	84.0183	341.309	83.877	341.309	83.5895	341.309	83.4609	341.309	83.222	341.309	83.1641	341.309	82.959	341.309	83.0176	341.309	82.8446	341.309	83.0119	341.309	82.8975	341.309	83.1158	341.309	83.0877	341.309	83.2962	341.309	83.3464	341.309	83.5139	341.309	83.599	341.309	83.7167	341.309	83.788	341.309	83.8501	341.309	83.877
353.027	86.5401	353.027	86.47	353.027	86.5509	353.027	86.338	353.027	86.4942	353.027	86.1333	353.027	86.3533	353.027	85.8455	353.027	86.1102	353.027	85.473	353.027	85.753	353.027	85.0282	353.027	85.282	353.027	84.5373	353.027	84.7086	353.027	84.0411	353.027	84.0549	353.027	83.5985	353.027	83.3657	353.027	83.2783	353.027	82.7337	353.027	83.1272	353.027	82.3017	353.027	83.1384	353.027	82.1855	353.027	83.2623	353.027	82.3682	353.027	83.4431	353.027	82.7177	353.027	83.6376	353.027	83.1019	353.027	83.8037	353.027	83.4461	353.027	83.8934	353.027	83.7112	353.027	83.8664
366.211	87.0052	366.211	86.9213	366.211	86.9792	366.211	86.724	366.211	86.8505	366.211	86.4174	366.211	86.626	366.211	86.0128	366.211	86.3106	366.211	85.5239	366.211	85.9092	366.211	84.9675	366.211	85.4316	366.211	84.3717	366.211	84.898	366.211	83.7843	366.211	84.3432	366.211	83.2702	366.211	83.8115	366.211	82.8971	366.211	83.3461	366.211	82.7182	366.211	82.9851	366.211	82.7463	366.211	82.7721	366.211	82.9296	366.211	82.7468	366.211	83.169	366.211	82.9002	366.211	83.3762	366.211	83.1494	366.211	83.5135	366.211	83.3845	366.211	83.5841	366.211	83.5364	366.211	83.5959
379.395	86.6563	379.395	86.5889	379.395	86.6661	379.395	86.4646	379.395	86.6097	379.395	86.2755	379.395	86.4743	379.395	86.0089	379.395	86.2467	379.395	85.6517	379.395	85.9179	379.395	85.1944	379.395	85.4871	379.395	84.6377	379.395	84.9643	379.395	84.0096	379.395	84.3735	379.395	83.3856	379.395	83.7601	379.395	82.8833	379.395	83.2033	379.395	82.6073	379.395	82.8079	379.395	82.5896	379.395	82.6552	379.395	82.7928	379.395	82.7432	379.395	83.1476	379.395	82.9953	379.395	83.5605	379.395	83.3235	379.395	83.9179	379.395	83.6619	379.395	84.1208	379.395	83.9518	379.395	84.1253
392.578	86.7444	392.578	86.6612	392.578	86.7291	392.578	86.4843	392.578	86.6102	392.578	86.2161	392.578	86.3846	392.578	85.8586	392.578	86.0516	392.578	85.4211	392.578	85.6147	392.578	84.9242	392.578	85.087	392.578	84.3967	392.578	84.4975	392.578	83.8669	392.578	83.8894	392.578	83.365	392.578	83.3112	392.578	82.941	392.578	82.8101	392.578	82.6707	392.578	82.4417	392.578	82.6155	392.578	82.2724	392.578	82.7587	392.578	82.3367	392.578	83.0048	392.578	82.5824	392.578	83.2453	392.578	82.8922	392.578	83.4119	392.578	83.165	392.578	83.4826	392.578	83.3564	392.578	83.4618
405.762	87.0091	405.762	86.9201	405.762	86.9887	405.762	86.7232	405.762	86.8536	405.762	86.4156	405.762	86.5987	405.762	85.9955	405.762	86.222	405.762	85.4706	405.762	85.7252	405.762	84.8649	405.762	85.1145	405.762	84.2183	405.762	84.406	405.762	83.5782	405.762	83.6379	405.762	82.9965	405.762	82.88	405.762	82.542	405.762	82.2241	405.762	82.3029	405.762	81.7613	405.762	82.3338	405.762	81.5639	405.762	82.584	405.762	81.6689	405.762	82.9231	405.762	82.039	405.762	83.2363	405.762	82.5501	405.762	83.4682	405.762	83.0461	405.762	83.5952	405.762	83.4085	405.762	83.5877
420.41	87.3512	420.41	87.2278	420.41	87.3494	420.41	86.9928	420.41	87.2324	420.41	86.6796	420.41	87.0219	420.41	86.3168	420.41	86.7351	420.41	85.8982	420.41	86.3725	420.41	85.3789	420.41	85.9167	420.41	84.7119	420.41	85.345	420.41	83.9064	420.41	84.6505	420.41	83.065	420.41	83.8689	420.41	82.3524	420.41	83.1	420.41	81.8966	420.41	82.4872	420.41	81.7314	420.41	82.1375	420.41	81.8391	420.41	82.0566	420.41	82.1719	420.41	82.1855	420.41	82.6209	420.41	82.4612	420.41	83.0347	420.41	82.8115	420.41	83.2866	420.41	83.1331	420.41	83.3158
435.059	87.1558	435.059	87.1302	435.059	87.1106	435.059	87.0178	435.059	86.9992	435.059	86.7944	435.059	86.8139	435.059	86.437	435.059	86.5365	435.059	85.9364	435.059	86.1452	435.059	85.301	435.059	85.6239	435.059	84.5503	435.059	84.9693	435.059	83.7141	435.059	84.1932	435.059	82.8547	435.059	83.331	435.059	82.1055	435.059	82.4734	435.059	81.6678	435.059	81.8044	435.059	81.6952	435.059	81.5539	435.059	82.1395	435.059	81.8015	435.059	82.7814	435.059	82.3693	435.059	83.3967	435.059	82.9993	435.059	83.8471	435.059	83.5294	435.059	84.0778	435.059	83.8988	435.059	84.088
451.172	87.6346	451.172	87.5363	451.172	87.6572	451.172	87.3644	451.172	87.5899	451.172	87.1073	451.172	87.4169	451.172	86.7528	451.172	87.1257	451.172	86.3008	451.172	86.7061	451.172	85.7624	451.172	86.1513	451.172	85.1477	451.172	85.4685	451.172	84.4601	451.172	84.6842	451.172	83.7137	451.172	83.8369	451.172	82.9638	451.172	82.9712	451.172	82.3164	451.172	82.1657	451.172	81.8892	451.172	81.5724	451.172	81.7473	451.172	81.3458	451.172	81.8679	451.172	81.4647	451.172	82.1427	451.172	81.7454	451.172	82.4118	451.172	82.041	451.172	82.5411	451.172	82.3006	451.172	82.4888
465.82	87.3669	465.82	87.2996	465.82	87.3786	465.82	87.1684	465.82	87.3124	465.82	86.9332	465.82	87.1367	465.82	86.5471	465.82	86.8328	465.82	85.9914	465.82	86.4003	465.82	85.2965	465.82	85.8486	465.82	84.5288	465.82	85.1931	465.82	83.7503	465.82	84.4645	465.82	82.9972	465.82	83.7127	465.82	82.3274	465.82	82.9885	465.82	81.8798	465.82	82.3295	465.82	81.7978	465.82	81.8109	465.82	82.0545	465.82	81.5962	465.82	82.4627	465.82	81.8026	465.82	82.8482	465.82	82.3039	465.82	83.1326	465.82	82.8293	465.82	83.2995	465.82	83.1882	465.82	83.3327
483.398	87.3595	483.398	87.193	483.398	87.3795	483.398	86.9171	483.398	87.2542	483.398	86.5864	483.398	87.0122	483.398	86.232	483.398	86.6826	483.398	85.8281	483.398	86.2731	483.398	85.2982	483.398	85.7653	483.398	84.5608	483.398	85.1205	483.398	83.5929	483.398	84.296	483.398	82.4738	483.398	83.282	483.398	81.3811	483.398	82.1624	483.398	80.5364	483.398	81.1492	483.398	80.1328	483.398	80.4955	483.398	80.2541	483.398	80.3212	483.398	80.8043	483.398	80.5912	483.398	81.5551	483.398	81.1995	483.398	82.2699	483.398	81.9502	483.398	82.7554	483.398	82.5789	483.398	82.8743
499.512	88.0488	499.512	88.0214	499.512	87.9757	499.512	87.8567	499.512	87.8474	499.512	87.5435	499.512	87.6858	499.512	87.0934	499.512	87.4646	499.512	86.521	499.512	87.1195	499.512	85.8243	499.512	86.5915	499.512	84.9838	499.512	85.8692	499.512	83.9912	499.512	84.9945	499.512	82.8989	499.512	84.0281	499.512	81.8697	499.512	83.0266	499.512	81.1565	499.512	82.1038	499.512	80.9543	499.512	81.5211	499.512	81.2557	499.512	81.5292	499.512	81.8739	499.512	82.0064	499.512	82.5558	499.512	82.5795	499.512	83.0902	499.512	83.0185	499.512	83.376	499.512	83.2934	499.512	83.4233
517.09	88.1355	517.09	87.995	517.09	88.19	517.09	87.798	517.09	88.1276	517.09	87.5521	517.09	87.9398	517.09	87.2363	517.09	87.6446	517.09	86.8106	517.09	87.2594	517.09	86.234	517.09	86.7677	517.09	85.4793	517.09	86.1232	517.09	84.5321	517.09	85.2917	517.09	83.3944	517.09	84.2849	517.09	82.136	517.09	83.1609	517.09	81.0225	517.09	82.0335	517.09	80.5184	517.09	81.1278	517.09	80.8015	517.09	80.7332	517.09	81.4893	517.09	80.9205	517.09	82.1801	517.09	81.4691	517.09	82.7106	517.09	82.121	517.09	83.0078	517.09	82.683	517.09	83.0045
536.133	88.1797	536.133	88.0377	536.133	88.2213	536.133	87.807	536.133	88.1416	536.133	87.4829	536.133	87.9349	536.133	87.0646	536.133	87.6216	536.133	86.5676	536.133	87.2305	536.133	85.9976	536.133	86.7642	536.133	85.3122	536.133	86.1802	536.133	84.446	536.133	85.4177	536.133	83.3957	536.133	84.4464	536.133	82.2704	536.133	83.2864	536.133	81.2308	536.133	82.0106	536.133	80.4568	536.133	80.8274	536.133	80.2606	536.133	80.2305	536.133	80.823	536.133	80.5936	536.133	81.7221	536.133	81.4637	536.133	82.4136	536.133	82.2012	536.133	82.7318	536.133	82.6117	536.133	82.7706
555.176	88.32	555.176	88.2954	555.176	88.3164	555.176	88.2159	555.176	88.2887	555.176	88.033	555.176	88.2054	555.176	87.691	555.176	88.0045	555.176	87.1665	555.176	87.6471	555.176	86.4812	555.176	87.158	555.176	85.649	555.176	86.5792	555.176	84.6109	555.176	85.8778	555.176	83.2567	555.176	84.941	555.176	81.5766	555.176	83.6979	555.176	79.9366	555.176	82.2729	555.176	79.143	555.176	81.0461	555.176	79.4619	555.176	80.4271	555.176	80.2907	555.176	80.4662	555.176	81.2007	555.176	80.9279	555.176	82.0091	555.176	81.5837	555.176	82.5225	555.176	82.2185	555.176	82.5898
574.219	88.2278	574.219	88.1533	574.219	88.2118	574.219	87.9981	574.219	88.093	574.219	87.7671	574.219	87.8766	574.219	87.462	574.219	87.5899	574.219	87.0732	574.219	87.2442	574.219	86.5843	574.219	86.8033	574.219	85.9832	574.219	86.2075	574.219	85.2425	574.219	85.4288	574.219	84.2774	574.219	84.4861	574.219	82.9712	574.219	83.4179	574.219	81.3281	574.219	82.2897	574.219	79.7417	574.219	81.2527	574.219	79.0535	574.219	80.5552	574.219	79.5646	574.219	80.4328	574.219	80.5624	574.219	80.8938	574.219	81.4487	574.219	81.6006	574.219	82.0405	574.219	82.1347	574.219	82.2859
594.727	87.7445	594.727	87.5998	594.727	87.7957	594.727	87.421	594.727	87.7404	594.727	87.2489	594.727	87.6131	594.727	87.0447	594.727	87.4465	594.727	86.7158	594.727	87.2248	594.727	86.1881	594.727	86.881	594.727	85.4284	594.727	86.3404	594.727	84.4215	594.727	85.5643	594.727	83.1802	594.727	84.5413	594.727	81.7895	594.727	83.233	594.727	80.4569	594.727	81.5773	594.727	79.5478	594.727	79.7423	594.727	79.3823	594.727	78.6265	594.727	79.8883	594.727	79.0748	594.727	80.7515	594.727	80.2567	594.727	81.626	594.727	81.2689	594.727	82.1846	594.727	81.9394	594.727	82.2724
615.234	87.51	615.234	87.4509	615.234	87.484	615.234	87.2904	615.234	87.4133	615.234	87.0616	615.234	87.3193	615.234	86.8092	615.234	87.1815	615.234	86.5205	615.234	86.9617	615.234	86.1313	615.234	86.6416	615.234	85.5878	615.234	86.2004	615.234	84.8501	615.234	85.5709	615.234	83.847	615.234	84.6837	615.234	82.463	615.234	83.5518	615.234	80.62	615.234	82.2334	615.234	78.5878	615.234	80.7323	615.234	77.5312	615.234	79.2508	615.234	78.2966	615.234	78.6969	615.234	79.7187	615.234	79.5053	615.234	80.8463	615.234	80.6465	615.234	81.4967	615.234	81.409	615.234	81.6835
637.207	87.0983	637.207	86.9678	637.207	87.1371	637.207	86.7723	637.207	87.0686	637.207	86.5401	637.207	86.9125	637.207	86.3104	637.207	86.7189	637.207	86.1218	637.207	86.5204	637.207	85.9597	637.207	86.3062	637.207	85.7286	637.207	86.0507	637.207	85.2967	637.207	85.7024	637.207	84.5818	637.207	85.1232	637.207	83.5725	637.207	84.1335	637.207	82.204	637.207	82.6784	637.207	80.339	637.207	80.9296	637.207	78.1818	637.207	79.1449	637.207	76.7619	637.207	77.6557	637.207	76.7955	637.207	77.281	637.207	77.5708	637.207	78.0757	637.207	78.3962	637.207	78.8174	637.207	78.9017
659.18	87.8219	659.18	87.7435	659.18	87.8079	659.18	87.5455	659.18	87.7027	659.18	87.1991	659.18	87.4924	659.18	86.7081	659.18	87.1861	659.18	86.1206	659.18	86.8226	659.18	85.5093	659.18	86.4352	659.18	84.9322	659.18	86.0369	659.18	84.3616	659.18	85.6171	659.18	83.6409	659.18	85.1012	659.18	82.627	659.18	84.3657	659.18	81.4142	659.18	83.3559	659.18	80.3088	659.18	82.1978	659.18	79.5267	659.18	81.2228	659.18	79.2458	659.18	80.6841	659.18	79.606	659.18	80.4449	659.18	80.3195	659.18	80.4206	659.18	80.8988	659.18	80.7065	659.18	81.014
682.617	87.7823	682.617	87.665	682.617	87.8165	682.617	87.4925	682.617	87.7239	682.617	87.2693	682.617	87.4974	682.617	86.9908	682.617	87.1925	682.617	86.6178	682.617	86.855	682.617	86.0911	682.617	86.428	682.617	85.4297	682.617	85.8044	682.617	84.7183	682.617	84.975	682.617	83.9321	682.617	84.0831	682.617	82.9251	682.617	83.2901	682.617	81.698	682.617	82.5489	682.617	80.5622	682.617	81.6766	682.617	79.9612	682.617	80.8466	682.617	80.1038	682.617	80.6352	682.617	80.7524	682.617	81.0507	682.617	81.4947	682.617	81.5717	682.617	82.0283	682.617	81.9758	682.617	82.1789
707.52	87.9269	707.52	87.8049	707.52	87.9095	707.52	87.6099	707.52	87.7466	707.52	87.3484	707.52	87.5045	707.52	86.9439	707.52	87.2408	707.52	86.4056	707.52	86.9425	707.52	85.839	707.52	86.5502	707.52	85.1818	707.52	86.0083	707.52	84.1977	707.52	85.2782	707.52	82.839	707.52	84.3196	707.52	81.401	707.52	83.0685	707.52	80.1993	707.52	81.5866	707.52	79.3841	707.52	80.2387	707.52	79.2231	707.52	79.4326	707.52	79.7257	707.52	79.2958	707.52	80.433	707.52	79.7116	707.52	80.9114	707.52	80.2939	707.52	81.0154	707.52	80.7037	707.52	80.9108
732.422	88.104	732.422	88.0745	732.422	88.0206	732.422	87.8888	732.422	87.8397	732.422	87.5819	732.422	87.5314	732.422	87.2492	732.422	87.1119	732.422	86.9002	732.422	86.6805	732.422	86.4796	732.422	86.2965	732.422	86.0057	732.422	85.876	732.422	85.4828	732.422	85.2793	732.422	84.756	732.422	84.4059	732.422	83.5826	732.422	83.1877	732.422	81.7475	732.422	81.628	732.422	79.4012	732.422	80.0538	732.422	77.9683	732.422	79.1037	732.422	78.5928	732.422	78.9205	732.422	79.9284	732.422	79.3917	732.422	81.1407	732.422	80.4712	732.422	81.9509	732.422	81.5777	732.422	82.1275
757.324	87.733	757.324	87.6069	757.324	87.7991	757.324	87.4231	757.324	87.8056	757.324	87.1696	757.324	87.7479	757.324	86.8017	757.324	87.6088	757.324	86.2778	757.324	87.3761	757.324	85.6468	757.324	87.0553	757.324	85.0173	757.324	86.631	757.324	84.2835	757.324	86.0427	757.324	83.1627	757.324	85.2415	757.324	81.7127	757.324	84.2024	757.324	80.3688	757.324	82.8705	757.324	79.2254	757.324	81.241	757.324	78.3199	757.324	79.7461	757.324	78.3762	757.324	79.4043	757.324	79.5307	757.324	80.2862	757.324	81.0122	757.324	81.4404	757.324	82.1394	757.324	82.2838	757.324	82.5685
785.156	87.185	785.156	86.9565	785.156	87.187	785.156	86.3234	785.156	87.1079	785.156	85.5048	785.156	86.8803	785.156	84.9827	785.156	86.4172	785.156	84.7895	785.156	85.7899	785.156	84.5344	785.156	85.2826	785.156	84.0287	785.156	85.0391	785.156	83.4825	785.156	84.7286	785.156	83.1037	785.156	84.068	785.156	82.5858	785.156	83.198	785.156	81.3964	785.156	82.3337	785.156	79.3884	785.156	81.1498	785.156	77.07	785.156	79.3851	785.156	76.9392	785.156	78.3476	785.156	79.2107	785.156	79.1589	785.156	80.8924	785.156	80.5793	785.156	81.6629	785.156	81.628	785.156	81.94
811.523	88.8303	811.523	88.6593	811.523	88.8332	811.523	88.4605	811.523	88.63	811.523	88.1044	811.523	88.3751	811.523	87.4108	811.523	88.1954	811.523	86.6828	811.523	88.0237	811.523	86.309	811.523	87.7067	811.523	86.0068	811.523	87.2538	811.523	85.3628	811.523	86.7672	811.523	84.4238	811.523	86.1126	811.523	83.1751	811.523	85.0129	811.523	80.9721	811.523	83.4613	811.523	77.467	811.523	81.8472	811.523	74.5837	811.523	80.5667	811.523	74.5415	811.523	79.9119	811.523	76.664	811.523	80.459	811.523	79.0335	811.523	81.4635	811.523	80.405	811.523	81.7355	811.523	81.234
840.82	87.7361	840.82	87.7745	840.82	87.5742	840.82	87.571	840.82	87.3978	840.82	87.1909	840.82	87.1148	840.82	86.6922	840.82	86.5988	840.82	85.9819	840.82	85.9824	840.82	85.2179	840.82	85.5159	840.82	84.8899	840.82	85.1332	840.82	84.8853	840.82	84.7043	840.82	84.6297	840.82	84.2267	840.82	84.0589	840.82	83.5225	840.82	83.3743	840.82	82.3017	840.82	82.0452	840.82	80.1952	840.82	79.3527	840.82	77.2009	840.82	75.8477	840.82	75.4507	840.82	74.4598	840.82	75.9413	840.82	76.939	840.82	77.1891	840.82	79.343	840.82	78.7892	840.82	79.8426
870.117	89.6288	870.117	89.4493	870.117	89.4988	870.117	89.0578	870.117	89.1365	870.117	88.4743	870.117	88.8491	870.117	87.801	870.117	88.5285	870.117	87.331	870.117	87.8685	870.117	87.0714	870.117	87.1632	870.117	86.7246	870.117	86.8208	870.117	86.1999	870.117	86.4234	870.117	85.4202	870.117	85.5543	870.117	84.2031	870.117	84.2869	870.117	82.6619	870.117	82.7764	870.117	80.8267	870.117	81.0004	870.117	78.3098	870.117	78.5606	870.117	76.1241	870.117	76.2151	870.117	77.1542	870.117	76.7015	870.117	79.3907	870.117	78.4901	870.117	80.5119	870.117	79.8419	870.117	80.5379
900.879	89.0229	900.879	88.821	900.879	88.7163	900.879	88.3204	900.879	88.0858	900.879	87.808	900.879	87.3651	900.879	87.1216	900.879	86.6269	900.879	86.1831	900.879	85.9448	900.879	85.4375	900.879	85.393	900.879	85.0748	900.879	84.9792	900.879	84.8173	900.879	84.6052	900.879	84.7068	900.879	84.1261	900.879	84.5473	900.879	83.4091	900.879	83.5585	900.879	82.3869	900.879	81.443	900.879	81.1858	900.879	78.1767	900.879	79.8529	900.879	74.0874	900.879	78.9323	900.879	75.9252	900.879	80.0599	900.879	79.3813	900.879	81.6243	900.879	81.2915	900.879	82.3347	900.879	82.2346
933.105	90.3008	933.105	90.0092	933.105	90.2961	933.105	89.424	933.105	90.0364	933.105	88.8377	933.105	89.4354	933.105	88.1657	933.105	88.6139	933.105	87.1422	933.105	87.7605	933.105	86.3407	933.105	86.8933	933.105	86.2983	933.105	86.1017	933.105	86.2294	933.105	85.5337	933.105	85.7434	933.105	85.2462	933.105	85.4439	933.105	85.0177	933.105	85.1659	933.105	84.403	933.105	83.8706	933.105	82.8408	933.105	81.6265	933.105	80.328	933.105	80.4366	933.105	78.596	933.105	80.5536	933.105	78.1647	933.105	81.5134	933.105	79.7024	933.105	82.7806	933.105	82.3219	933.105	83.3389
965.332	90.6842	965.332	90.7101	965.332	90.2376	965.332	90.3178	965.332	89.4762	965.332	89.5038	965.332	88.63	965.332	88.5218	965.332	87.6561	965.332	87.6122	965.332	86.3401	965.332	86.5705	965.332	84.9212	965.332	85.5843	965.332	83.9755	965.332	85.2665	965.332	83.4158	965.332	85.2306	965.332	82.8141	965.332	84.4178	965.332	81.9709	965.332	82.5837	965.332	80.22	965.332	80.5293	965.332	77.1988	965.332	77.818	965.332	73.2348	965.332	72.6283	965.332	69.6256	965.332	71.6149	965.332	72.5569	965.332	76.3968	965.332	75.7511	965.332	77.8267	965.332	76.9104	965.332	77.4911
1,000.49	90.2201	1,000.49	89.7964	1,000.49	90.2323	1,000.49	89.1046	1,000.49	89.8578	1,000.49	88.6295	1,000.49	89.2089	1,000.49	88.1191	1,000.49	88.4447	1,000.49	87.1105	1,000.49	87.4683	1,000.49	86.3605	1,000.49	86.4036	1,000.49	86.2031	1,000.49	85.7505	1,000.49	85.6703	1,000.49	85.4264	1,000.49	84.674	1,000.49	85.118	1,000.49	84.2669	1,000.49	84.7429	1,000.49	83.9659	1,000.49	83.9842	1,000.49	82.5423	1,000.49	82.5703	1,000.49	80.1011	1,000.49	80.4149	1,000.49	78.9661	1,000.49	78.3537	1,000.49	79.2947	1,000.49	78.2204	1,000.49	80.4798	1,000.49	79.6869	1,000.49	81.99	1,000.49	81.0674	1,000.49	82.1383
1,035.64	90.5743	1,035.64	90.347	1,035.64	90.2775	1,035.64	89.7114	1,035.64	89.5611	1,035.64	88.7411	1,035.64	88.6455	1,035.64	87.7828	1,035.64	87.3943	1,035.64	86.8148	1,035.64	85.9719	1,035.64	85.5347	1,035.64	84.8707	1,035.64	84.4949	1,035.64	84.1554	1,035.64	84.0275	1,035.64	83.5874	1,035.64	83.8016	1,035.64	82.9116	1,035.64	83.0644	1,035.64	82.2803	1,035.64	81.1993	1,035.64	81.6514	1,035.64	79.223	1,035.64	80.5462	1,035.64	77.6105	1,035.64	77.7668	1,035.64	72.6617	1,035.64	73.1181	1,035.64	73.8462	1,035.64	72.2927	1,035.64	78.3826	1,035.64	76.4033	1,035.64	79.7635	1,035.64	78.6802	1,035.64	79.4015
1,072.27	89.8465	1,072.27	89.6013	1,072.27	89.8133	1,072.27	89.0448	1,072.27	89.3705	1,072.27	88.2439	1,072.27	88.5277	1,072.27	87.2003	1,072.27	87.7026	1,072.27	86.0205	1,072.27	86.7962	1,072.27	84.8545	1,072.27	85.6571	1,072.27	83.9089	1,072.27	84.7679	1,072.27	83.8129	1,072.27	84.2668	1,072.27	83.9669	1,072.27	84.1109	1,072.27	83.7238	1,072.27	83.7056	1,072.27	83.2799	1,072.27	82.8459	1,072.27	82.3537	1,072.27	81.8756	1,072.27	80.2682	1,072.27	79.9892	1,072.27	77.7496	1,072.27	76.8363	1,072.27	76.6669	1,072.27	75.8117	1,072.27	77.07	1,072.27	77.193	1,072.27	78.2946	1,072.27	78.2473	1,072.27	78.9201
1,108.89	90.5396	1,108.89	89.9389	1,108.89	90.3052	1,108.89	89.2163	1,108.89	89.4747	1,108.89	88.6632	1,108.89	88.6071	1,108.89	87.5296	1,108.89	87.4269	1,108.89	85.7181	1,108.89	85.7062	1,108.89	84.2655	1,108.89	84.1639	1,108.89	83.4557	1,108.89	83.0775	1,108.89	82.5263	1,108.89	82.3955	1,108.89	81.9614	1,108.89	82.1264	1,108.89	81.784	1,108.89	82.3197	1,108.89	81.461	1,108.89	81.8433	1,108.89	79.9147	1,108.89	80.2458	1,108.89	75.9725	1,108.89	78.1178	1,108.89	69.0427	1,108.89	74.4642	1,108.89	72.5462	1,108.89	71.5018	1,108.89	77.5372	1,108.89	76.4792	1,108.89	79.6837	1,108.89	79.3788	1,108.89	79.9374
1,148.44	89.7757	1,148.44	89.6913	1,148.44	89.6429	1,148.44	89.0415	1,148.44	89.3524	1,148.44	88.104	1,148.44	88.5015	1,148.44	87.2853	1,148.44	87.269	1,148.44	86.0432	1,148.44	86.1733	1,148.44	83.9941	1,148.44	84.9225	1,148.44	82.2587	1,148.44	83.7912	1,148.44	81.852	1,148.44	83.0741	1,148.44	81.8883	1,148.44	82.4359	1,148.44	82.2308	1,148.44	82.1218	1,148.44	82.5509	1,148.44	81.4929	1,148.44	81.7322	1,148.44	80.7534	1,148.44	78.7607	1,148.44	79.5362	1,148.44	74.8874	1,148.44	77.3223	1,148.44	73.5099	1,148.44	75.5092	1,148.44	74.6955	1,148.44	75.4284	1,148.44	76.3864	1,148.44	77.7105	1,148.44	78.0961
1,189.45	89.6047	1,189.45	89.5344	1,189.45	89.2844	1,189.45	89.0826	1,189.45	88.8558	1,189.45	88.5098	1,189.45	88.2319	1,189.45	87.5306	1,189.45	87.4475	1,189.45	86.0435	1,189.45	86.3724	1,189.45	84.3836	1,189.45	84.6041	1,189.45	82.7486	1,189.45	82.8279	1,189.45	80.8124	1,189.45	81.627	1,189.45	79.7674	1,189.45	80.4767	1,189.45	80.0793	1,189.45	80.5686	1,189.45	79.9823	1,189.45	80.0917	1,189.45	78.7953	1,189.45	78.6153	1,189.45	76.6815	1,189.45	77.2025	1,189.45	72.6226	1,189.45	74.7849	1,189.45	69.9317	1,189.45	73.6714	1,189.45	75.3282	1,189.45	76.3365	1,189.45	77.0109	1,189.45	77.6379	1,189.45	77.4889
1,230.47	88.3996	1,230.47	88.4239	1,230.47	88.2988	1,230.47	88.1963	1,230.47	88.0146	1,230.47	87.6581	1,230.47	87.4362	1,230.47	86.9737	1,230.47	86.6598	1,230.47	85.6762	1,230.47	85.7604	1,230.47	83.5698	1,230.47	84.3342	1,230.47	81.17	1,230.47	82.47	1,230.47	79.1636	1,230.47	80.4184	1,230.47	77.7625	1,230.47	78.6523	1,230.47	77.9062	1,230.47	79.2162	1,230.47	79.0782	1,230.47	79.6091	1,230.47	78.7902	1,230.47	78.7765	1,230.47	76.9353	1,230.47	76.4445	1,230.47	72.7895	1,230.47	72.9224	1,230.47	69.7198	1,230.47	72.4673	1,230.47	73.0026	1,230.47	73.905	1,230.47	75.387	1,230.47	75.1124	1,230.47	76.1527
1,274.41	86.7046	1,274.41	86.7324	1,274.41	86.5072	1,274.41	86.6419	1,274.41	86.0664	1,274.41	85.9543	1,274.41	85.6162	1,274.41	85.0827	1,274.41	84.9678	1,274.41	84.0685	1,274.41	83.8183	1,274.41	82.1982	1,274.41	82.1	1,274.41	80.3025	1,274.41	80.1106	1,274.41	78.9283	1,274.41	78.6615	1,274.41	78.1688	1,274.41	77.3189	1,274.41	78.1692	1,274.41	77.7437	1,274.41	78.5639	1,274.41	78.037	1,274.41	77.6865	1,274.41	77.7166	1,274.41	76.8922	1,274.41	75.8464	1,274.41	75.2612	1,274.41	70.4179	1,274.41	71.3264	1,274.41	65.886	1,274.41	73.0342	1,274.41	70.9098	1,274.41	75.3499	1,274.41	74.1625	1,274.41	75.6117
1,319.82	85.9432	1,319.82	86.0291	1,319.82	85.6608	1,319.82	85.8197	1,319.82	85.3484	1,319.82	85.2996	1,319.82	84.8501	1,319.82	84.7009	1,319.82	84.0599	1,319.82	83.791	1,319.82	82.7541	1,319.82	82.3279	1,319.82	80.8233	1,319.82	80.9354	1,319.82	78.8046	1,319.82	79.2765	1,319.82	77.619	1,319.82	79.0307	1,319.82	75.2986	1,319.82	78.6449	1,319.82	73.7228	1,319.82	77.8177	1,319.82	75.0954	1,319.82	77.3537	1,319.82	75.3658	1,319.82	76.3542	1,319.82	74.0592	1,319.82	72.1718	1,319.82	70.4501	1,319.82	69.0578	1,319.82	66.9661	1,319.82	71.0431	1,319.82	70.8727	1,319.82	74.6536	1,319.82	73.5785	1,319.82	74.7726
1,366.7	85.0534	1,366.7	85.3017	1,366.7	84.9582	1,366.7	85.2525	1,366.7	84.4882	1,366.7	84.8805	1,366.7	83.6732	1,366.7	84.4294	1,366.7	82.8586	1,366.7	83.2034	1,366.7	81.5924	1,366.7	81.7759	1,366.7	80.0802	1,366.7	80.6446	1,366.7	79.0902	1,366.7	78.7264	1,366.7	77.3933	1,366.7	76.8048	1,366.7	75.7777	1,366.7	76.7604	1,366.7	75.9555	1,366.7	77.3179	1,366.7	76.4147	1,366.7	77.0145	1,366.7	75.3852	1,366.7	75.5587	1,366.7	74.336	1,366.7	70.2289	1,366.7	72.8977	1,366.7	67.2508	1,366.7	65.2769	1,366.7	70.5402	1,366.7	66.9258	1,366.7	74.4398	1,366.7	70.9545	1,366.7	74.8608
1,413.57	85.945	1,413.57	85.6883	1,413.57	85.6134	1,413.57	85.0308	1,413.57	85.4338	1,413.57	84.834	1,413.57	84.9317	1,413.57	84.158	1,413.57	84.0098	1,413.57	83.2386	1,413.57	83.1187	1,413.57	82.1807	1,413.57	81.9273	1,413.57	80.83	1,413.57	80.6093	1,413.57	78.1153	1,413.57	78.3267	1,413.57	75.1623	1,413.57	76.8696	1,413.57	74.0881	1,413.57	75.6584	1,413.57	75.088	1,413.57	75.7363	1,413.57	74.3726	1,413.57	75.891	1,413.57	73.0244	1,413.57	75.1098	1,413.57	69.6998	1,413.57	72.9827	1,413.57	67.1132	1,413.57	63.4322	1,413.57	70.0905	1,413.57	66.8415	1,413.57	72.2856	1,413.57	70.6198	1,413.57	72.7491
1,463.38	86.012	1,463.38	85.8799	1,463.38	85.7896	1,463.38	85.5839	1,463.38	85.3484	1,463.38	84.8222	1,463.38	84.9525	1,463.38	83.8077	1,463.38	84.1698	1,463.38	83.1011	1,463.38	83.1318	1,463.38	81.9814	1,463.38	82.0332	1,463.38	80.6719	1,463.38	80.9992	1,463.38	78.3983	1,463.38	78.9448	1,463.38	75.9612	1,463.38	78.3593	1,463.38	76.1288	1,463.38	77.5375	1,463.38	76.2029	1,463.38	76.8312	1,463.38	74.7329	1,463.38	76.918	1,463.38	74.9602	1,463.38	76.9264	1,463.38	71.3789	1,463.38	74.2834	1,463.38	67.3541	1,463.38	68.5997	1,463.38	70.0609	1,463.38	68.383	1,463.38	70.6877	1,463.38	71.5113	1,463.38	72.662
1,516.11	85.834	1,516.11	85.9543	1,516.11	85.9233	1,516.11	85.6505	1,516.11	85.8993	1,516.11	85.0811	1,516.11	84.8913	1,516.11	84.3634	1,516.11	83.6938	1,516.11	82.6117	1,516.11	82.9042	1,516.11	80.9521	1,516.11	81.9059	1,516.11	79.916	1,516.11	79.9314	1,516.11	78.5202	1,516.11	77.6263	1,516.11	75.7769	1,516.11	76.9958	1,516.11	75.685	1,516.11	76.9401	1,516.11	76.7973	1,516.11	76.83	1,516.11	76.6489	1,516.11	77.8696	1,516.11	75.6567	1,516.11	76.4462	1,516.11	72.6639	1,516.11	73.5267	1,516.11	66.0681	1,516.11	69.3922	1,516.11	68.8992	1,516.11	67.7242	1,516.11	72.8442	1,516.11	72.3321	1,516.11	71.8278
1,568.85	86.3745	1,568.85	86.1831	1,568.85	86.4825	1,568.85	86.0953	1,568.85	86.1709	1,568.85	85.534	1,568.85	85.615	1,568.85	84.8587	1,568.85	84.2257	1,568.85	82.8369	1,568.85	83.1859	1,568.85	82.0602	1,568.85	82.4688	1,568.85	80.843	1,568.85	80.1034	1,568.85	78.4363	1,568.85	78.0672	1,568.85	75.0629	1,568.85	76.5648	1,568.85	74.0654	1,568.85	76.1748	1,568.85	75.1334	1,568.85	75.7737	1,568.85	75.6249	1,568.85	76.0182	1,568.85	74.3333	1,568.85	74.2314	1,568.85	69.7143	1,568.85	70.9449	1,568.85	61.7854	1,568.85	66.1683	1,568.85	66.1552	1,568.85	61.1572	1,568.85	72.0525	1,568.85	72.5615	1,568.85	71.622
1,624.51	86.5453	1,624.51	86.3005	1,624.51	86.7589	1,624.51	86.1176	1,624.51	86.1595	1,624.51	85.2513	1,624.51	85.4905	1,624.51	83.9416	1,624.51	84.0336	1,624.51	82.4711	1,624.51	83.0892	1,624.51	81.5575	1,624.51	81.9859	1,624.51	79.4419	1,624.51	79.8051	1,624.51	76.748	1,624.51	79.3453	1,624.51	74.0781	1,624.51	77.0947	1,624.51	73.6806	1,624.51	74.2616	1,624.51	75.7381	1,624.51	73.6337	1,624.51	76.5872	1,624.51	75.0789	1,624.51	74.5429	1,624.51	75.0245	1,624.51	71.4959	1,624.51	69.0763	1,624.51	64.8871	1,624.51	66.4852	1,624.51	64.0615	1,624.51	65.6648	1,624.51	70.4907	1,624.51	71.1234	1,624.51	67.9935
1,681.64	86.4648	1,681.64	85.8609	1,681.64	85.6322	1,681.64	85.2989	1,681.64	85.3585	1,681.64	83.5793	1,681.64	84.3789	1,681.64	82.8777	1,681.64	84.1679	1,681.64	81.4027	1,681.64	82.3416	1,681.64	80.5626	1,681.64	81.4446	1,681.64	79.882	1,681.64	80.0096	1,681.64	77.0229	1,681.64	78.8539	1,681.64	74.1749	1,681.64	78.0458	1,681.64	69.9007	1,681.64	73.9786	1,681.64	72.0158	1,681.64	74.6276	1,681.64	74.3664	1,681.64	74.4962	1,681.64	73.4183	1,681.64	74.0506	1,681.64	73.9026	1,681.64	70.7452	1,681.64	71.942	1,681.64	69.1644	1,681.64	66.1231	1,681.64	63.8713	1,681.64	66.0185	1,681.64	67.4252	1,681.64	69.2255
1,741.7	87.6806	1,741.7	87.8736	1,741.7	87.6502	1,741.7	86.857	1,741.7	87.0477	1,741.7	85.634	1,741.7	86.4947	1,741.7	84.7008	1,741.7	85.4743	1,741.7	82.3124	1,741.7	85.2768	1,741.7	79.7985	1,741.7	82.8452	1,741.7	78.4415	1,741.7	80.2205	1,741.7	76.6991	1,741.7	80.476	1,741.7	74.6034	1,741.7	78.1077	1,741.7	71.9432	1,741.7	78.0543	1,741.7	72.3124	1,741.7	77.498	1,741.7	72.143	1,741.7	76.5054	1,741.7	74.1249	1,741.7	76.447	1,741.7	73.4743	1,741.7	76.0622	1,741.7	71.7515	1,741.7	73.3471	1,741.7	68.7329	1,741.7	61.1565	1,741.7	72.391	1,741.7	71.4909	1,741.7	69.283
1,803.22	87.3714	1,803.22	87.913	1,803.22	87.1848	1,803.22	86.5459	1,803.22	87.4847	1,803.22	85.0315	1,803.22	85.9378	1,803.22	84.18	1,803.22	84.5742	1,803.22	82.1608	1,803.22	83.1762	1,803.22	79.9654	1,803.22	82.3476	1,803.22	79.5778	1,803.22	78.6584	1,803.22	78.9026	1,803.22	78.8251	1,803.22	76.5734	1,803.22	78.2602	1,803.22	75.5876	1,803.22	77.3627	1,803.22	73.8358	1,803.22	73.7332	1,803.22	76.1012	1,803.22	75.149	1,803.22	75.0994	1,803.22	73.6548	1,803.22	71.6598	1,803.22	72.6861	1,803.22	67.0062	1,803.22	66.3924	1,803.22	70.1525	1,803.22	66.0466	1,803.22	71.3395	1,803.22	72.3677	1,803.22	73.6896
1,866.21	87.1694	1,866.21	86.5024	1,866.21	87.3981	1,866.21	85.3629	1,866.21	86.2975	1,866.21	84.9808	1,866.21	85.4245	1,866.21	83.8258	1,866.21	83.7612	1,866.21	81.21	1,866.21	82.1947	1,866.21	80.3669	1,866.21	82.1037	1,866.21	78.2919	1,866.21	80.7581	1,866.21	80.0273	1,866.21	81.2187	1,866.21	79.2773	1,866.21	77.3906	1,866.21	72.5926	1,866.21	77.0801	1,866.21	70.2712	1,866.21	76.7767	1,866.21	75.6617	1,866.21	75.0151	1,866.21	73.9392	1,866.21	75.3746	1,866.21	66.4802	1,866.21	75.1447	1,866.21	68.1086	1,866.21	73.6	1,866.21	71.8099	1,866.21	53.8564	1,866.21	75.1634	1,866.21	64.2871	1,866.21	74.2897
1,932.13	86.546	1,932.13	86.5462	1,932.13	86.4674	1,932.13	85.5605	1,932.13	85.7943	1,932.13	84.5981	1,932.13	84.8939	1,932.13	82.883	1,932.13	83.5618	1,932.13	81.1013	1,932.13	81.9162	1,932.13	79.4422	1,932.13	80.2271	1,932.13	79.4111	1,932.13	78.7295	1,932.13	77.6157	1,932.13	77.8057	1,932.13	76.5774	1,932.13	76.2043	1,932.13	74.7016	1,932.13	73.9791	1,932.13	72.2733	1,932.13	71.5431	1,932.13	73.1944	1,932.13	72.9244	1,932.13	73.7794	1,932.13	73.9064	1,932.13	71.4447	1,932.13	73.3117	1,932.13	63.3976	1,932.13	69.1147	1,932.13	63.8541	1,932.13	55.5978	1,932.13	70.4907	1,932.13	67.4046	1,932.13	69.5968
1,999.51	87.8894	1,999.51	87.1598	1,999.51	87.6804	1,999.51	86.4876	1,999.51	87.0032	1,999.51	85.2007	1,999.51	86.0339	1,999.51	83.6652	1,999.51	84.7053	1,999.51	81.7603	1,999.51	83.0278	1,999.51	79.6666	1,999.51	80.7902	1,999.51	78.8443	1,999.51	79.6702	1,999.51	78.4279	1,999.51	78.342	1,999.51	76.9279	1,999.51	78.3076	1,999.51	75.0893	1,999.51	75.6288	1,999.51	71.7982	1,999.51	73.7138	1,999.51	71.9023	1,999.51	72.4192	1,999.51	74.1207	1,999.51	74.7415	1,999.51	73.0979	1,999.51	74.386	1,999.51	67.9115	1,999.51	72.3637	1,999.51	48.3893	1,999.51	62.3106	1,999.51	64.7951	1,999.51	60.6957	1,999.51	66.4421
2,069.82	88.3606	2,069.82	88.0152	2,069.82	88.1532	2,069.82	87.4895	2,069.82	87.7513	2,069.82	86.221	2,069.82	86.7831	2,069.82	84.7263	2,069.82	85.2955	2,069.82	82.461	2,069.82	83.609	2,069.82	80.4553	2,069.82	81.3039	2,069.82	79.2884	2,069.82	79.8997	2,069.82	77.8815	2,069.82	79.1193	2,069.82	77.8083	2,069.82	77.5079	2,069.82	76.4428	2,069.82	75.5602	2,069.82	73.7003	2,069.82	73.3993	2,069.82	71.7778	2,069.82	73.4602	2,069.82	73.9775	2,069.82	75.4052	2,069.82	75.0291	2,069.82	75.2373	2,069.82	72.6548	2,069.82	73.371	2,069.82	57.9911	2,069.82	64.7314	2,069.82	61.0455	2,069.82	58.5481	2,069.82	67.2641
2,143.07	87.5519	2,143.07	87.4521	2,143.07	87.4429	2,143.07	86.9398	2,143.07	86.8809	2,143.07	85.3791	2,143.07	86.0349	2,143.07	84.001	2,143.07	84.7035	2,143.07	81.8264	2,143.07	83.0226	2,143.07	80.1096	2,143.07	80.925	2,143.07	77.998	2,143.07	79.4875	2,143.07	77.18	2,143.07	78.0562	2,143.07	76.8313	2,143.07	77.9809	2,143.07	75.5483	2,143.07	76.1556	2,143.07	72.7579	2,143.07	72.7353	2,143.07	72.2134	2,143.07	70.3683	2,143.07	74.1358	2,143.07	73.737	2,143.07	74.8475	2,143.07	74.8262	2,143.07	72.2236	2,143.07	73.607	2,143.07	65.1996	2,143.07	69.0303	2,143.07	57.8545	2,143.07	60.763	2,143.07	59.855
2,219.24	87.1413	2,219.24	86.63	2,219.24	86.9445	2,219.24	85.8543	2,219.24	86.3605	2,219.24	84.8393	2,219.24	85.5328	2,219.24	83.5309	2,219.24	84.3281	2,219.24	82.1803	2,219.24	82.5747	2,219.24	78.0644	2,219.24	80.9081	2,219.24	76.6633	2,219.24	78.7446	2,219.24	76.4311	2,219.24	77.7271	2,219.24	76.0392	2,219.24	77.4383	2,219.24	74.4555	2,219.24	76.2044	2,219.24	72.0258	2,219.24	73.2758	2,219.24	69.4759	2,219.24	70.3569	2,219.24	73.5746	2,219.24	71.84	2,219.24	73.9451	2,219.24	74.0081	2,219.24	71.7257	2,219.24	73.3249	2,219.24	66.2636	2,219.24	70.556	2,219.24	67.0781	2,219.24	61.8443	2,219.24	67.8573
2,296.88	87.6135	2,296.88	87.199	2,296.88	87.6372	2,296.88	86.4001	2,296.88	87.0138	2,296.88	85.3297	2,296.88	86.0656	2,296.88	83.6571	2,296.88	84.7779	2,296.88	82.365	2,296.88	83.0608	2,296.88	81.1063	2,296.88	81.2842	2,296.88	78.1838	2,296.88	79.5992	2,296.88	77.2365	2,296.88	78.6493	2,296.88	76.6098	2,296.88	77.4801	2,296.88	74.7786	2,296.88	76.22	2,296.88	72.3995	2,296.88	74.0416	2,296.88	71.4306	2,296.88	71.643	2,296.88	70.457	2,296.88	72.1257	2,296.88	72.6458	2,296.88	73.4227	2,296.88	73.0884	2,296.88	73.4661	2,296.88	68.8165	2,296.88	69.1165	2,296.88	69.1585	2,296.88	66.8061	2,296.88	70.242
2,378.91	87.7757	2,378.91	87.4294	2,378.91	87.644	2,378.91	86.7186	2,378.91	86.8953	2,378.91	85.7116	2,378.91	85.9641	2,378.91	84.4253	2,378.91	84.8597	2,378.91	82.9144	2,378.91	83.3837	2,378.91	81.2417	2,378.91	81.6972	2,378.91	79.2718	2,378.91	79.8243	2,378.91	77.5784	2,378.91	78.1624	2,378.91	76.3037	2,378.91	75.5463	2,378.91	74.955	2,378.91	75.0022	2,378.91	72.8962	2,378.91	73.3982	2,378.91	72.3855	2,378.91	71.3027	2,378.91	72.7919	2,378.91	71.528	2,378.91	73.198	2,378.91	72.771	2,378.91	71.4493	2,378.91	72.7481	2,378.91	68.7699	2,378.91	69.6689	2,378.91	67.1405	2,378.91	67.6265	2,378.91	68.4803
2,462.4	86.9936	2,462.4	86.6772	2,462.4	86.965	2,462.4	86.0275	2,462.4	86.4167	2,462.4	84.9871	2,462.4	85.6846	2,462.4	83.8989	2,462.4	84.2991	2,462.4	81.8705	2,462.4	83.1746	2,462.4	80.1741	2,462.4	81.6235	2,462.4	78.128	2,462.4	79.9942	2,462.4	76.842	2,462.4	77.5788	2,462.4	75.7019	2,462.4	76.9255	2,462.4	74.7681	2,462.4	75.1696	2,462.4	73.236	2,462.4	73.1376	2,462.4	71.3141	2,462.4	69.0595	2,462.4	72.2989	2,462.4	71.9714	2,462.4	73.2964	2,462.4	72.5877	2,462.4	71.587	2,462.4	73.4279	2,462.4	66.4894	2,462.4	67.0973	2,462.4	67.3011	2,462.4	65.2794	2,462.4	66.5709
2,548.83	87.3371	2,548.83	87.3492	2,548.83	87.0584	2,548.83	86.3711	2,548.83	87.0305	2,548.83	85.6038	2,548.83	85.9183	2,548.83	84.0872	2,548.83	85.0078	2,548.83	82.6361	2,548.83	83.737	2,548.83	81.3522	2,548.83	82.2348	2,548.83	79.4837	2,548.83	80.3178	2,548.83	76.0581	2,548.83	78.4239	2,548.83	76.1501	2,548.83	76.9651	2,548.83	74.7878	2,548.83	75.8856	2,548.83	73.7511	2,548.83	74.5074	2,548.83	70.418	2,548.83	73.1107	2,548.83	70.7899	2,548.83	70.4257	2,548.83	73.976	2,548.83	74.2855	2,548.83	73.9487	2,548.83	73.8382	2,548.83	69.171	2,548.83	70.5332	2,548.83	62.6076	2,548.83	66.7964	2,548.83	67.8628
2,639.65	86.6505	2,639.65	86.5287	2,639.65	86.7988	2,639.65	86.32	2,639.65	86.2665	2,639.65	85.1496	2,639.65	85.7274	2,639.65	83.8972	2,639.65	84.3431	2,639.65	82.623	2,639.65	83.289	2,639.65	80.4585	2,639.65	81.691	2,639.65	78.245	2,639.65	79.7761	2,639.65	77.2112	2,639.65	77.7983	2,639.65	76.5425	2,639.65	76.5437	2,639.65	74.0168	2,639.65	74.267	2,639.65	73.0689	2,639.65	74.0633	2,639.65	70.959	2,639.65	71.6181	2,639.65	70.5911	2,639.65	68.9988	2,639.65	72.3203	2,639.65	73.5165	2,639.65	72.1831	2,639.65	72.7589	2,639.65	69.5756	2,639.65	71.4781	2,639.65	69.0963	2,639.65	68.0549	2,639.65	67.9178
2,731.93	86.4669	2,731.93	86.2756	2,731.93	86.2098	2,731.93	85.6503	2,731.93	85.9832	2,731.93	84.9839	2,731.93	85.1088	2,731.93	83.1927	2,731.93	84.4999	2,731.93	81.5514	2,731.93	82.7115	2,731.93	79.7116	2,731.93	80.8888	2,731.93	76.9412	2,731.93	78.7359	2,731.93	74.8952	2,731.93	76.8498	2,731.93	74.2328	2,731.93	75.1352	2,731.93	72.8701	2,731.93	74.3709	2,731.93	70.2229	2,731.93	72.3401	2,731.93	70.697	2,731.93	69.53	2,731.93	69.2073	2,731.93	68.6473	2,731.93	72.007	2,731.93	70.1818	2,731.93	70.9208	2,731.93	71.0065	2,731.93	69.2694	2,731.93	69.398	2,731.93	68.8887	2,731.93	68.3318	2,731.93	71.474
2,828.61	86.3189	2,828.61	85.997	2,828.61	86.5057	2,828.61	85.683	2,828.61	85.6398	2,828.61	84.3901	2,828.61	85.0962	2,828.61	83.0864	2,828.61	84.0592	2,828.61	81.4078	2,828.61	82.4751	2,828.61	78.7244	2,828.61	80.2257	2,828.61	75.6126	2,828.61	77.6765	2,828.61	74.4591	2,828.61	75.6858	2,828.61	71.3143	2,828.61	73.9705	2,828.61	70.5709	2,828.61	71.6014	2,828.61	69.6435	2,828.61	67.9557	2,828.61	67.2668	2,828.61	69.1309	2,828.61	67.3624	2,828.61	65.9159	2,828.61	68.7584	2,828.61	67.0073	2,828.61	68.4669	2,828.61	69.6482	2,828.61	66.3586	2,828.61	68.0274	2,828.61	67.9762	2,828.61	69.8949	2,828.61	68.414
2,928.22	85.966	2,928.22	85.3675	2,928.22	86.2513	2,928.22	84.6689	2,928.22	85.3674	2,928.22	83.1585	2,928.22	84.3222	2,928.22	81.601	2,928.22	82.6224	2,928.22	79.768	2,928.22	80.706	2,928.22	76.6449	2,928.22	78.1198	2,928.22	74.6914	2,928.22	75.3299	2,928.22	72.1401	2,928.22	73.0257	2,928.22	68.0578	2,928.22	70.7253	2,928.22	65.9874	2,928.22	68.7321	2,928.22	68.2686	2,928.22	68.2476	2,928.22	67.0432	2,928.22	66.9458	2,928.22	63.2785	2,928.22	65.5263	2,928.22	66.0058	2,928.22	65.495	2,928.22	66.72	2,928.22	65.3549	2,928.22	62.4358	2,928.22	64.2272	2,928.22	69.7977	2,928.22	63.4629	2,928.22	69.2235
3,030.76	86.1665	3,030.76	85.6484	3,030.76	86.0438	3,030.76	84.5395	3,030.76	85.5562	3,030.76	83.106	3,030.76	84.3549	3,030.76	81.3218	3,030.76	82.9777	3,030.76	80.0857	3,030.76	80.7812	3,030.76	76.188	3,030.76	78.5817	3,030.76	74.5363	3,030.76	76.4316	3,030.76	71.062	3,030.76	73.5348	3,030.76	68.1365	3,030.76	71.4577	3,030.76	65.8164	3,030.76	69.8008	3,030.76	66.7599	3,030.76	68.3617	3,030.76	66.2229	3,030.76	66.4414	3,030.76	62.674	3,030.76	65.3247	3,030.76	66.0631	3,030.76	65.8257	3,030.76	66.1135	3,030.76	67.4518	3,030.76	63.8247	3,030.76	63.8241	3,030.76	65.0036	3,030.76	63.6423	3,030.76	66.7929
3,137.7	86.8969	3,137.7	86.4253	3,137.7	86.5042	3,137.7	85.2779	3,137.7	86.2989	3,137.7	83.872	3,137.7	84.9308	3,137.7	81.7891	3,137.7	83.4182	3,137.7	78.7779	3,137.7	81.1994	3,137.7	76.4604	3,137.7	79.245	3,137.7	73.7611	3,137.7	76.7607	3,137.7	70.1141	3,137.7	73.7335	3,137.7	67.8431	3,137.7	71.6554	3,137.7	66.0687	3,137.7	70.0425	3,137.7	64.9109	3,137.7	69.241	3,137.7	64.8343	3,137.7	66.6231	3,137.7	62.8226	3,137.7	65.9074	3,137.7	65.2802	3,137.7	65.6218	3,137.7	66.2834	3,137.7	66.6197	3,137.7	63.9119	3,137.7	65.8847	3,137.7	63.858	3,137.7	64.305	3,137.7	65.6039
3,249.02	86.5293	3,249.02	85.9844	3,249.02	86.4458	3,249.02	84.7256	3,249.02	85.9003	3,249.02	83.255	3,249.02	84.6904	3,249.02	80.6536	3,249.02	83.0043	3,249.02	77.2757	3,249.02	80.8953	3,249.02	74.703	3,249.02	78.4457	3,249.02	71.3302	3,249.02	75.716	3,249.02	68.2054	3,249.02	73.142	3,249.02	67.4979	3,249.02	71.232	3,249.02	65.3759	3,249.02	69.6187	3,249.02	60.923	3,249.02	68.1272	3,249.02	64.8646	3,249.02	65.8036	3,249.02	64.0598	3,249.02	65.4617	3,249.02	63.4327	3,249.02	63.9057	3,249.02	64.3744	3,249.02	65.8099	3,249.02	61.652	3,249.02	64.2573	3,249.02	66.7697	3,249.02	64.3013	3,249.02	68.3926
3,363.28	86.2063	3,363.28	85.5542	3,363.28	86.3046	3,363.28	84.4316	3,363.28	85.7343	3,363.28	82.5715	3,363.28	84.728	3,363.28	80.2589	3,363.28	82.9812	3,363.28	76.5294	3,363.28	80.9705	3,363.28	73.2431	3,363.28	78.4852	3,363.28	69.429	3,363.28	75.9763	3,363.28	66.9907	3,363.28	73.0852	3,363.28	64.918	3,363.28	71.0383	3,363.28	64.8062	3,363.28	69.4821	3,363.28	61.8688	3,363.28	66.8243	3,363.28	61.706	3,363.28	65.8428	3,363.28	61.5408	3,363.28	62.936	3,363.28	62.9873	3,363.28	65.6138	3,363.28	63.0157	3,363.28	67.6276	3,363.28	57.5977	3,363.28	65.2793	3,363.28	63.0939	3,363.28	64.4278	3,363.28	65.6249
3,481.93	86.4944	3,481.93	85.5947	3,481.93	86.689	3,481.93	84.1181	3,481.93	85.8493	3,481.93	82.4269	3,481.93	84.8205	3,481.93	79.074	3,481.93	83.1411	3,481.93	76.5978	3,481.93	81.0604	3,481.93	71.9091	3,481.93	78.0389	3,481.93	67.9526	3,481.93	75.4762	3,481.93	64.0439	3,481.93	73.365	3,481.93	62.8616	3,481.93	70.2442	3,481.93	61.8267	3,481.93	69.3955	3,481.93	60.1988	3,481.93	67.1014	3,481.93	60.4699	3,481.93	66.0573	3,481.93	56.7413	3,481.93	65.2351	3,481.93	58.5203	3,481.93	62.5011	3,481.93	62.06	3,481.93	65.5825	3,481.93	60.8283	3,481.93	65.4995	3,481.93	62.9983	3,481.93	64.9475	3,481.93	65.7803
3,604.98	86.4695	3,604.98	85.5154	3,604.98	86.4591	3,604.98	84.1954	3,604.98	85.7775	3,604.98	82.0553	3,604.98	84.4546	3,604.98	78.7003	3,604.98	82.6162	3,604.98	74.7403	3,604.98	79.8973	3,604.98	69.562	3,604.98	76.8075	3,604.98	66.1005	3,604.98	74.2713	3,604.98	61.3344	3,604.98	71.3686	3,604.98	60.8651	3,604.98	69.5455	3,604.98	58.4673	3,604.98	67.436	3,604.98	59.5718	3,604.98	64.5942	3,604.98	57.554	3,604.98	64.6366	3,604.98	56.747	3,604.98	62.7626	3,604.98	56.6584	3,604.98	61.8906	3,604.98	61.1743	3,604.98	63.9971	3,604.98	59.7793	3,604.98	64.2871	3,604.98	65.1579	3,604.98	65.7607	3,604.98	67.5394
3,732.42	87.4715	3,732.42	86.7436	3,732.42	87.2082	3,732.42	85.0244	3,732.42	86.5775	3,732.42	81.9752	3,732.42	84.7434	3,732.42	78.7439	3,732.42	82.3804	3,732.42	72.6348	3,732.42	79.1303	3,732.42	66.1198	3,732.42	75.0974	3,732.42	60.3142	3,732.42	72.3457	3,732.42	64.6637	3,732.42	70.2561	3,732.42	63.9728	3,732.42	67.8391	3,732.42	64.7175	3,732.42	66.5658	3,732.42	60.428	3,732.42	65.6044	3,732.42	58.9028	3,732.42	63.8973	3,732.42	59.942	3,732.42	60.8425	3,732.42	54.1594	3,732.42	60.0406	3,732.42	62.8235	3,732.42	61.2593	3,732.42	56.652	3,732.42	60.3781	3,732.42	64.2181	3,732.42	65.7298	3,732.42	67.5806
3,864.26	87.2599	3,864.26	86.1898	3,864.26	87.4224	3,864.26	83.9737	3,864.26	86.384	3,864.26	80.1694	3,864.26	84.5291	3,864.26	75.006	3,864.26	81.4415	3,864.26	65.6882	3,864.26	78.3363	3,864.26	63.2082	3,864.26	75.7544	3,864.26	67.2695	3,864.26	73.5099	3,864.26	69.4964	3,864.26	71.277	3,864.26	68.0666	3,864.26	70.8753	3,864.26	66.5473	3,864.26	68.0765	3,864.26	64.5024	3,864.26	69.6308	3,864.26	63.1353	3,864.26	66.5353	3,864.26	64.4945	3,864.26	63.9925	3,864.26	62.27	3,864.26	63.3927	3,864.26	64.3759	3,864.26	64.0053	3,864.26	59.7968	3,864.26	60.8282	3,864.26	61.6546	3,864.26	65.2004	3,864.26	67.8083
4,000.49	86.3603	4,000.49	84.5043	4,000.49	87.0508	4,000.49	82.0587	4,000.49	85.9441	4,000.49	76.9966	4,000.49	84.3157	4,000.49	67.7822	4,000.49	81.9721	4,000.49	70.425	4,000.49	79.7791	4,000.49	72.9064	4,000.49	77.1642	4,000.49	73.2201	4,000.49	74.7203	4,000.49	72.755	4,000.49	74.4003	4,000.49	71.8494	4,000.49	73.3579	4,000.49	69.0371	4,000.49	70.7394	4,000.49	68.7	4,000.49	70.1279	4,000.49	66.1448	4,000.49	68.6289	4,000.49	65.7893	4,000.49	67.5072	4,000.49	64.012	4,000.49	65.8997	4,000.49	64.0233	4,000.49	67.7314	4,000.49	63.6361	4,000.49	65.6146	4,000.49	61.5435	4,000.49	64.6211	4,000.49	69.2379
4,141.11	85.0063	4,141.11	83.6664	4,141.11	85.5589	4,141.11	79.9899	4,141.11	85.3477	4,141.11	75.5888	4,141.11	83.6618	4,141.11	75.2442	4,141.11	82.1496	4,141.11	76.1887	4,141.11	80.1842	4,141.11	76.4906	4,141.11	78.1561	4,141.11	76.2109	4,141.11	76.5248	4,141.11	74.5088	4,141.11	74.8403	4,141.11	74.1081	4,141.11	73.8377	4,141.11	72.2901	4,141.11	72.2071	4,141.11	69.6987	4,141.11	70.9612	4,141.11	69.0044	4,141.11	69.4407	4,141.11	66.3462	4,141.11	68.7163	4,141.11	66.4944	4,141.11	66.9826	4,141.11	67.757	4,141.11	68.6497	4,141.11	66.1512	4,141.11	66.1405	4,141.11	64.8672	4,141.11	65.2299	4,141.11	71.0568
4,287.6	82.6385	4,287.6	81.861	4,287.6	83.8266	4,287.6	80.176	4,287.6	83.5621	4,287.6	78.5764	4,287.6	83.4065	4,287.6	76.463	4,287.6	81.2405	4,287.6	76.8957	4,287.6	79.652	4,287.6	76.8849	4,287.6	79.0523	4,287.6	76.9085	4,287.6	78.3289	4,287.6	75.0712	4,287.6	76.7609	4,287.6	73.8277	4,287.6	75.5502	4,287.6	71.0358	4,287.6	73.3329	4,287.6	69.7837	4,287.6	70.6322	4,287.6	68.9428	4,287.6	71.0845	4,287.6	64.4448	4,287.6	67.176	4,287.6	62.6456	4,287.6	67.8317	4,287.6	65.7272	4,287.6	69.4599	4,287.6	64.4091	4,287.6	66.1911	4,287.6	63.4827	4,287.6	67.145	4,287.6	70.5516
4,438.48	79.465	4,438.48	77.538	4,438.48	79.6302	4,438.48	74.9008	4,438.48	79.1604	4,438.48	72.5248	4,438.48	78.1175	4,438.48	74.1992	4,438.48	77.729	4,438.48	75.944	4,438.48	77.4056	4,438.48	76.4786	4,438.48	76.4687	4,438.48	75.6206	4,438.48	76.0731	4,438.48	72.7726	4,438.48	73.9605	4,438.48	72.1177	4,438.48	72.4002	4,438.48	69.7755	4,438.48	70.4456	4,438.48	67.6675	4,438.48	68.4519	4,438.48	66.9462	4,438.48	67.4366	4,438.48	65.0245	4,438.48	63.2946	4,438.48	62.5584	4,438.48	63.6286	4,438.48	64.8217	4,438.48	65.1137	4,438.48	62.3607	4,438.48	65.4271	4,438.48	63.1205	4,438.48	63.6202	4,438.48	68.1416
4,595.21	80.1934	4,595.21	79.9122	4,595.21	81.5749	4,595.21	77.9194	4,595.21	81.849	4,595.21	78.5796	4,595.21	81.1036	4,595.21	78.6517	4,595.21	80.1568	4,595.21	78.5583	4,595.21	79.6195	4,595.21	77.2757	4,595.21	77.4292	4,595.21	75.3479	4,595.21	75.0184	4,595.21	74.4231	4,595.21	73.9682	4,595.21	71.8393	4,595.21	72.1915	4,595.21	71.1805	4,595.21	71.0078	4,595.21	65.3382	4,595.21	67.8069	4,595.21	66.9892	4,595.21	66.7468	4,595.21	64.7618	4,595.21	62.8363	4,595.21	60.7469	4,595.21	62.2509	4,595.21	60.9898	4,595.21	63.5308	4,595.21	63.4829	4,595.21	63.1946	4,595.21	62.5713	4,595.21	64.9791	4,595.21	67.4307
4,756.35	81.8752	4,756.35	81.291	4,756.35	83.0917	4,756.35	80.4272	4,756.35	82.1544	4,756.35	79.4538	4,756.35	81.9502	4,756.35	79.0754	4,756.35	79.8413	4,756.35	78.6353	4,756.35	78.9315	4,756.35	76.6711	4,756.35	77.4372	4,756.35	75.1073	4,756.35	77.0735	4,756.35	74.0268	4,756.35	74.1532	4,756.35	69.1117	4,756.35	71.9827	4,756.35	68.4238	4,756.35	71.3851	4,756.35	66.0994	4,756.35	68.9129	4,756.35	66.6693	4,756.35	68.7801	4,756.35	66.6512	4,756.35	64.6599	4,756.35	62.618	4,756.35	63.6024	4,756.35	61.149	4,756.35	61.8405	4,756.35	60.0225	4,756.35	61.5987	4,756.35	59.7353	4,756.35	63.8376	4,756.35	67.6171
4,924.8	82.2647	4,924.8	82.0525	4,924.8	82.5082	4,924.8	80.6916	4,924.8	81.8993	4,924.8	80.2396	4,924.8	80.0964	4,924.8	78.7765	4,924.8	78.835	4,924.8	79.0152	4,924.8	78.0956	4,924.8	78.2178	4,924.8	76.0289	4,924.8	77.6311	4,924.8	74.9837	4,924.8	74.7466	4,924.8	74.8097	4,924.8	73.3526	4,924.8	69.8154	4,924.8	70.7196	4,924.8	70.1058	4,924.8	66.5342	4,924.8	67.3898	4,924.8	67.7961	4,924.8	67.046	4,924.8	65.4407	4,924.8	61.8323	4,924.8	65.5038	4,924.8	59.7824	4,924.8	59.7931	4,924.8	62.174	4,924.8	60.1179	4,924.8	59.1289	4,924.8	61.9527	4,924.8	64.2578	4,924.8	67.0922
5,097.66	83.09	5,097.66	82.3302	5,097.66	82.9808	5,097.66	79.9641	5,097.66	81.4685	5,097.66	79.8588	5,097.66	80.1289	5,097.66	79.5342	5,097.66	78.0505	5,097.66	78.9123	5,097.66	77.1936	5,097.66	76.9441	5,097.66	77.2293	5,097.66	74.242	5,097.66	76.1539	5,097.66	72.5106	5,097.66	72.0125	5,097.66	68.5759	5,097.66	71.6074	5,097.66	70.5433	5,097.66	69.6696	5,097.66	64.2571	5,097.66	65.4739	5,097.66	65.0443	5,097.66	69.2634	5,097.66	64.8876	5,097.66	59.3845	5,097.66	60.7017	5,097.66	61.2284	5,097.66	43.8675	5,097.66	59.6247	5,097.66	57.7841	5,097.66	62.7773	5,097.66	62.1022	5,097.66	63.6008	5,097.66	67.1597
5,277.83	82.5756	5,277.83	81.5158	5,277.83	82.4854	5,277.83	79.9344	5,277.83	80.9967	5,277.83	79.7126	5,277.83	78.6793	5,277.83	79.02	5,277.83	76.8079	5,277.83	77.8688	5,277.83	75.0884	5,277.83	75.6098	5,277.83	74.5238	5,277.83	74.035	5,277.83	73.1791	5,277.83	72.0385	5,277.83	73.2639	5,277.83	70.4019	5,277.83	68.9202	5,277.83	65.1895	5,277.83	67.8609	5,277.83	65.9383	5,277.83	65.3039	5,277.83	64.0455	5,277.83	66.2083	5,277.83	66.5011	5,277.83	59.2082	5,277.83	63.3545	5,277.83	61.0602	5,277.83	53.2501	5,277.83	49.3542	5,277.83	61.5454	5,277.83	61.2004	5,277.83	59.2921	5,277.83	61.4226	5,277.83	66.4818
5,463.87	82.8691	5,463.87	81.877	5,463.87	83.0475	5,463.87	81.1157	5,463.87	81.3382	5,463.87	80.9301	5,463.87	79.2439	5,463.87	79.938	5,463.87	77.6843	5,463.87	79.4103	5,463.87	76.4783	5,463.87	77.5181	5,463.87	75.7234	5,463.87	75.85	5,463.87	75.0721	5,463.87	72.4091	5,463.87	71.1557	5,463.87	70.8723	5,463.87	69.8678	5,463.87	70.1712	5,463.87	67.1869	5,463.87	66.8862	5,463.87	67.1695	5,463.87	64.1825	5,463.87	63.0705	5,463.87	62.7484	5,463.87	61.2563	5,463.87	65.4058	5,463.87	64.0741	5,463.87	57.2758	5,463.87	55.8096	5,463.87	61.0558	5,463.87	63.3221	5,463.87	61.1367	5,463.87	62.462	5,463.87	67.4503
5,657.23	82.0983	5,657.23	82.329	5,657.23	82.0649	5,657.23	81.6196	5,657.23	80.1637	5,657.23	81.4732	5,657.23	78.5932	5,657.23	79.9724	5,657.23	77.9296	5,657.23	78.9068	5,657.23	76.5742	5,657.23	76.6569	5,657.23	75.8074	5,657.23	73.8338	5,657.23	73.4629	5,657.23	72.7256	5,657.23	71.1403	5,657.23	70.196	5,657.23	69.1673	5,657.23	67.291	5,657.23	65.7758	5,657.23	66.2826	5,657.23	65.1105	5,657.23	61.9531	5,657.23	61.4866	5,657.23	65.0811	5,657.23	61.5445	5,657.23	61.6758	5,657.23	59.2163	5,657.23	56.2108	5,657.23	53.851	5,657.23	61.7022	5,657.23	62.7541	5,657.23	60.2195	5,657.23	62.0929	5,657.23	65.7742
5,856.45	82.8355	5,856.45	82.9336	5,856.45	82.4008	5,856.45	82.284	5,856.45	81.0999	5,856.45	81.7849	5,856.45	79.354	5,856.45	80.1446	5,856.45	78.2229	5,856.45	78.9922	5,856.45	76.6843	5,856.45	77.0124	5,856.45	75.1893	5,856.45	75.8524	5,856.45	73.6831	5,856.45	73.2028	5,856.45	70.5255	5,856.45	71.0915	5,856.45	67.5846	5,856.45	69.6981	5,856.45	65.0313	5,856.45	67.4867	5,856.45	63.3491	5,856.45	65.308	5,856.45	59.8731	5,856.45	65.1627	5,856.45	58.5966	5,856.45	63.4562	5,856.45	56.8922	5,856.45	62.8601	5,856.45	54.8791	5,856.45	63.0803	5,856.45	61.3605	5,856.45	61.0329	5,856.45	59.8604	5,856.45	66.0786
6,062.99	83.1875	6,062.99	83.2554	6,062.99	82.8944	6,062.99	83.0199	6,062.99	81.1594	6,062.99	82.275	6,062.99	80.0008	6,062.99	81.1612	6,062.99	78.5798	6,062.99	79.4104	6,062.99	76.3803	6,062.99	77.9505	6,062.99	74.3015	6,062.99	75.4338	6,062.99	71.2375	6,062.99	73.9065	6,062.99	67.8932	6,062.99	72.1141	6,062.99	66.4475	6,062.99	70.641	6,062.99	63.7639	6,062.99	70.4101	6,062.99	61.8567	6,062.99	66.7744	6,062.99	60.3322	6,062.99	65.7332	6,062.99	58.3993	6,062.99	62.6271	6,062.99	53.9731	6,062.99	60.0298	6,062.99	52.6808	6,062.99	63.4802	6,062.99	58.5946	6,062.99	62.1692	6,062.99	58.4818	6,062.99	66.6423
6,276.86	83.7273	6,276.86	84.1867	6,276.86	82.9606	6,276.86	83.8382	6,276.86	81.969	6,276.86	83.1411	6,276.86	80.9182	6,276.86	81.1054	6,276.86	79.1372	6,276.86	79.4992	6,276.86	76.8942	6,276.86	77.7915	6,276.86	73.2724	6,276.86	76.1425	6,276.86	69.6928	6,276.86	74.007	6,276.86	67.9356	6,276.86	72.8306	6,276.86	65.4262	6,276.86	70.1643	6,276.86	64.4485	6,276.86	68.9548	6,276.86	61.9156	6,276.86	66.0239	6,276.86	57.5993	6,276.86	66.3757	6,276.86	56.8326	6,276.86	60.6202	6,276.86	54.5287	6,276.86	61.1782	6,276.86	49.3318	6,276.86	63.8065	6,276.86	60.259	6,276.86	61.2872	6,276.86	54.816	6,276.86	65.9903
6,498.05	83.8126	6,498.05	84.6386	6,498.05	83.287	6,498.05	84.6228	6,498.05	82.2694	6,498.05	83.7356	6,498.05	81.6955	6,498.05	81.73	6,498.05	79.6213	6,498.05	80.1768	6,498.05	76.2433	6,498.05	78.1551	6,498.05	72.9579	6,498.05	76.6922	6,498.05	70.152	6,498.05	74.9306	6,498.05	68.6087	6,498.05	72.7323	6,498.05	66.3817	6,498.05	71.0794	6,498.05	64.0953	6,498.05	68.3179	6,498.05	62.9415	6,498.05	65.7616	6,498.05	61.6244	6,498.05	65.193	6,498.05	60.4043	6,498.05	62.9109	6,498.05	55.1356	6,498.05	62.2346	6,498.05	52.2133	6,498.05	63.0038	6,498.05	56.7617	6,498.05	60.5954	6,498.05	47.5651	6,498.05	66.4284
6,726.56	83.1832	6,726.56	84.1442	6,726.56	82.2643	6,726.56	84.6315	6,726.56	82.2072	6,726.56	83.5043	6,726.56	81.2999	6,726.56	81.5672	6,726.56	79.4301	6,726.56	79.7587	6,726.56	76.1369	6,726.56	78.5584	6,726.56	72.6132	6,726.56	76.9858	6,726.56	70.8268	6,726.56	74.7181	6,726.56	68.3768	6,726.56	72.4013	6,726.56	66.37	6,726.56	70.5221	6,726.56	64.4811	6,726.56	69.3597	6,726.56	64.71	6,726.56	66.8709	6,726.56	60.137	6,726.56	66.2677	6,726.56	61.9048	6,726.56	60.1928	6,726.56	56.309	6,726.56	62.5042	6,726.56	56.2883	6,726.56	64.0297	6,726.56	57.0394	6,726.56	61.8709	6,726.56	50.9189	6,726.56	66.4738
6,963.87	82.2434	6,963.87	84.1208	6,963.87	81.8839	6,963.87	84.7198	6,963.87	82.0976	6,963.87	83.3903	6,963.87	81.4779	6,963.87	81.7096	6,963.87	78.5925	6,963.87	80.4781	6,963.87	75.3798	6,963.87	78.2942	6,963.87	72.8835	6,963.87	76.6387	6,963.87	71.3321	6,963.87	74.7077	6,963.87	69.2633	6,963.87	73.0471	6,963.87	66.7015	6,963.87	70.6253	6,963.87	64.6538	6,963.87	67.8422	6,963.87	63.0117	6,963.87	66.2414	6,963.87	62.6995	6,963.87	66.4388	6,963.87	58.359	6,963.87	61.2049	6,963.87	55.9482	6,963.87	63.9769	6,963.87	55.627	6,963.87	61.8736	6,963.87	47.8556	6,963.87	61.714	6,963.87	48.9156	6,963.87	66.1895
7,209.96	82.3915	7,209.96	84.5288	7,209.96	81.8898	7,209.96	84.9489	7,209.96	82.174	7,209.96	83.9732	7,209.96	81.359	7,209.96	82.2137	7,209.96	78.8175	7,209.96	80.6334	7,209.96	76.4646	7,209.96	78.8076	7,209.96	74.1117	7,209.96	76.5452	7,209.96	71.341	7,209.96	74.6078	7,209.96	69.3087	7,209.96	71.602	7,209.96	66.9708	7,209.96	70.395	7,209.96	65.2918	7,209.96	68.5576	7,209.96	62.5483	7,209.96	66.6597	7,209.96	61.2112	7,209.96	66.3314	7,209.96	58.0592	7,209.96	60.6622	7,209.96	56.745	7,209.96	62.0147	7,209.96	57.6358	7,209.96	62.6824	7,209.96	48.0014	7,209.96	61.6229	7,209.96	50.9206	7,209.96	65.7145
7,464.84	82.4062	7,464.84	84.0068	7,464.84	82.0891	7,464.84	84.7828	7,464.84	82.1823	7,464.84	83.8626	7,464.84	80.7723	7,464.84	82.6092	7,464.84	78.2222	7,464.84	81.1711	7,464.84	77.0452	7,464.84	78.5009	7,464.84	74.7223	7,464.84	75.9035	7,464.84	72.1356	7,464.84	74.0984	7,464.84	69.3316	7,464.84	71.8995	7,464.84	65.7399	7,464.84	70.1279	7,464.84	64.0524	7,464.84	68.0905	7,464.84	59.7665	7,464.84	66.3934	7,464.84	59.6901	7,464.84	65.1183	7,464.84	56.9949	7,464.84	59.8158	7,464.84	56.8066	7,464.84	62.2438	7,464.84	52.9536	7,464.84	61.9144	7,464.84	54.3257	7,464.84	62.2985	7,464.84	54.8083	7,464.84	64.9617
7,727.05	82.2338	7,727.05	83.8088	7,727.05	82.0048	7,727.05	84.4472	7,727.05	82.1374	7,727.05	83.9948	7,727.05	80.4942	7,727.05	82.8523	7,727.05	79.2969	7,727.05	80.7598	7,727.05	77.6801	7,727.05	78.1272	7,727.05	75.2026	7,727.05	75.3696	7,727.05	71.4299	7,727.05	72.9387	7,727.05	67.1529	7,727.05	70.8183	7,727.05	64.7089	7,727.05	68.6083	7,727.05	63.4804	7,727.05	67.7372	7,727.05	61.8713	7,727.05	65.2944	7,727.05	57.6876	7,727.05	64.3294	7,727.05	56.4827	7,727.05	59.0073	7,727.05	56.6412	7,727.05	58.0493	7,727.05	52.4424	7,727.05	62.7591	7,727.05	53.7801	7,727.05	60.2705	7,727.05	56.6839	7,727.05	62.5271
7,999.51	82.7718	7,999.51	83.8234	7,999.51	82.4686	7,999.51	84.3773	7,999.51	82.271	7,999.51	84.3486	7,999.51	81.4334	7,999.51	83.1676	7,999.51	80.2938	7,999.51	80.6064	7,999.51	78.0749	7,999.51	77.0465	7,999.51	74.1427	7,999.51	74.2131	7,999.51	69.6782	7,999.51	71.9164	7,999.51	65.8244	7,999.51	70.8063	7,999.51	63.416	7,999.51	68.5547	7,999.51	63.0945	7,999.51	66.696	7,999.51	59.4138	7,999.51	65.4178	7,999.51	60.6082	7,999.51	63.6329	7,999.51	58.7043	7,999.51	59.598	7,999.51	56.1312	7,999.51	58.4784	7,999.51	50.7717	7,999.51	59.787	7,999.51	39.1579	7,999.51	61.6831	7,999.51	57.6952	7,999.51	62.5404
8,282.23	83.6	8,282.23	83.9184	8,282.23	83.3809	8,282.23	84.5475	8,282.23	82.4351	8,282.23	84.906	8,282.23	82.0833	8,282.23	83.4196	8,282.23	81.2674	8,282.23	80.4452	8,282.23	78.1042	8,282.23	76.4596	8,282.23	73.2711	8,282.23	74.2153	8,282.23	70.499	8,282.23	72.5671	8,282.23	68.9018	8,282.23	69.9776	8,282.23	66.6272	8,282.23	68.9232	8,282.23	65.5648	8,282.23	67.1234	8,282.23	64.6993	8,282.23	64.41	8,282.23	61.3102	8,282.23	62.5845	8,282.23	59.9248	8,282.23	60.6779	8,282.23	59.9946	8,282.23	59.1871	8,282.23	50.1889	8,282.23	59.8375	8,282.23	50.2586	8,282.23	57.5468	8,282.23	56.4898	8,282.23	63.5827
8,573.73	84.1852	8,573.73	83.8199	8,573.73	83.4092	8,573.73	84.3878	8,573.73	82.4274	8,573.73	85.1398	8,573.73	82.7609	8,573.73	83.3821	8,573.73	82.0975	8,573.73	79.714	8,573.73	77.8759	8,573.73	76.241	8,573.73	73.2363	8,573.73	74.2667	8,573.73	71.2431	8,573.73	73.032	8,573.73	70.6169	8,573.73	71.2092	8,573.73	68.5586	8,573.73	69.6201	8,573.73	67.7825	8,573.73	68.3541	8,573.73	65.4841	8,573.73	65.6578	8,573.73	63.3212	8,573.73	64.5576	8,573.73	61.0365	8,573.73	61.8109	8,573.73	59.8266	8,573.73	57.7146	8,573.73	52.8522	8,573.73	60.2137	8,573.73	54.643	8,573.73	59.8778	8,573.73	58.105	8,573.73	62.7805
8,876.95	84.139	8,876.95	83.1917	8,876.95	83.1042	8,876.95	84.2562	8,876.95	82.0661	8,876.95	84.7845	8,876.95	82.7041	8,876.95	82.8408	8,876.95	81.3625	8,876.95	79.4077	8,876.95	77.2614	8,876.95	77.356	8,876.95	74.3891	8,876.95	75.9978	8,876.95	73.5219	8,876.95	73.7991	8,876.95	72.4921	8,876.95	71.4904	8,876.95	69.5435	8,876.95	69.8152	8,876.95	67.9291	8,876.95	67.9687	8,876.95	64.2613	8,876.95	66.0752	8,876.95	63.8422	8,876.95	65.1119	8,876.95	60.7679	8,876.95	61.1839	8,876.95	59.0712	8,876.95	55.8907	8,876.95	54.8914	8,876.95	58.8442	8,876.95	55.3123	8,876.95	59.6177	8,876.95	61.0121	8,876.95	63.3292
9,188.96	83.6542	9,188.96	82.9434	9,188.96	82.7285	9,188.96	83.5741	9,188.96	81.8284	9,188.96	84.2832	9,188.96	82.2353	9,188.96	81.9233	9,188.96	80.0986	9,188.96	80.3839	9,188.96	76.9032	9,188.96	78.747	9,188.96	76.3961	9,188.96	76.2245	9,188.96	75.0484	9,188.96	74.193	9,188.96	72.1837	9,188.96	71.1121	9,188.96	69.4365	9,188.96	68.313	9,188.96	66.8968	9,188.96	65.5116	9,188.96	63.4292	9,188.96	65.8045	9,188.96	61.5105	9,188.96	62.216	9,188.96	60.6621	9,188.96	61.1992	9,188.96	58.7012	9,188.96	54.696	9,188.96	51.6439	9,188.96	57.8784	9,188.96	51.5718	9,188.96	59.9296	9,188.96	61.015	9,188.96	61.8841
9,514.16	82.7371	9,514.16	82.5632	9,514.16	81.7561	9,514.16	83.3253	9,514.16	81.5203	9,514.16	83.5487	9,514.16	81.5252	9,514.16	81.6895	9,514.16	79.4685	9,514.16	81.3478	9,514.16	78.4824	9,514.16	79.632	9,514.16	78.1003	9,514.16	76.6566	9,514.16	75.5941	9,514.16	73.3623	9,514.16	72.7867	9,514.16	70.2377	9,514.16	68.7343	9,514.16	67.3738	9,514.16	65.994	9,514.16	66.1717	9,514.16	63.3011	9,514.16	63.3716	9,514.16	59.8583	9,514.16	62.2839	9,514.16	59.6694	9,514.16	60.5494	9,514.16	58.0776	9,514.16	53.8858	9,514.16	45.3696	9,514.16	56.1154	9,514.16	42.5425	9,514.16	57.4392	9,514.16	60.1423	9,514.16	60.7526
9,849.61	81.5565	9,849.61	82.4832	9,849.61	81.4607	9,849.61	83.4281	9,849.61	82.1245	9,849.61	83.2754	9,849.61	81.3014	9,849.61	82.6956	9,849.61	80.1836	9,849.61	82.3878	9,849.61	80.719	9,849.61	79.9775	9,849.61	79.2058	9,849.61	76.3531	9,849.61	75.7627	9,849.61	73.0313	9,849.61	72.527	9,849.61	70.3194	9,849.61	68.308	9,849.61	67.9492	9,849.61	66.415	9,849.61	64.2102	9,849.61	63.5977	9,849.61	63.2139	9,849.61	60.8766	9,849.61	61.7026	9,849.61	60.3259	9,849.61	58.2972	9,849.61	57.3674	9,849.61	54.9381	9,849.61	50.1356	9,849.61	55.2661	9,849.61	48.68	9,849.61	58.3025	9,849.61	59.8386	9,849.61	59.7077
10,196.8	81.1666	10,196.8	83.3048	10,196.8	82.1233	10,196.8	83.9166	10,196.8	83.0344	10,196.8	83.4549	10,196.8	81.6319	10,196.8	83.8529	10,196.8	81.9721	10,196.8	83.3441	10,196.8	82.5295	10,196.8	80.3357	10,196.8	80.1949	10,196.8	76.0141	10,196.8	76.2014	10,196.8	73.2124	10,196.8	72.6516	10,196.8	70.2752	10,196.8	68.7376	10,196.8	68.5005	10,196.8	66.7796	10,196.8	66.8462	10,196.8	64.8381	10,196.8	62.8934	10,196.8	61.2933	10,196.8	63.3485	10,196.8	59.4734	10,196.8	59.6711	10,196.8	56.9266	10,196.8	52.9341	10,196.8	47.6486	10,196.8	56.2576	10,196.8	45.7333	10,196.8	59.4261	10,196.8	60.3308	10,196.8	60.6322
10,555.7	82.5435	10,555.7	84.4835	10,555.7	83.6415	10,555.7	84.3345	10,555.7	84.1311	10,555.7	84.0848	10,555.7	82.6465	10,555.7	84.9312	10,555.7	83.6545	10,555.7	83.999	10,555.7	83.5456	10,555.7	80.3514	10,555.7	80.4848	10,555.7	76.8629	10,555.7	76.1839	10,555.7	73.7681	10,555.7	72.9626	10,555.7	71.4046	10,555.7	69.7085	10,555.7	69.3841	10,555.7	68.2078	10,555.7	67.0268	10,555.7	65.6267	10,555.7	65.1242	10,555.7	63.1668	10,555.7	63.4286	10,555.7	59.9891	10,555.7	61.2895	10,555.7	59.1022	10,555.7	50.1869	10,555.7	51.8879	10,555.7	55.6728	10,555.7	49.559	10,555.7	59.9785	10,555.7	61.4656	10,555.7	59.6365
10,927.7	84.742	10,927.7	85.4096	10,927.7	84.9361	10,927.7	84.731	10,927.7	84.7262	10,927.7	84.9133	10,927.7	83.5991	10,927.7	85.4898	10,927.7	84.6039	10,927.7	84.0242	10,927.7	83.7725	10,927.7	80.6683	10,927.7	80.5296	10,927.7	77.8622	10,927.7	77.1354	10,927.7	75.0245	10,927.7	74.3051	10,927.7	72.0941	10,927.7	71.0668	10,927.7	69.8189	10,927.7	68.4223	10,927.7	67.1499	10,927.7	66.4839	10,927.7	65.5717	10,927.7	64.549	10,927.7	61.4094	10,927.7	61.6202	10,927.7	61.8657	10,927.7	59.6975	10,927.7	52.4885	10,927.7	54.1293	10,927.7	59.0503	10,927.7	54.9898	10,927.7	62.504	10,927.7	62.8838	10,927.7	59.5395
11,313	87.2868	11,313	86.2249	11,313	86.747	11,313	85.465	11,313	85.53	11,313	85.5799	11,313	85.0646	11,313	84.9631	11,313	84.6007	11,313	83.3574	11,313	83.0178	11,313	80.9896	11,313	80.2695	11,313	78.1728	11,313	78.1344	11,313	75.3424	11,313	74.7076	11,313	71.8423	11,313	71.4051	11,313	69.4731	11,313	68.4287	11,313	66.5818	11,313	65.9026	11,313	64.3349	11,313	62.9004	11,313	61.8919	11,313	61.1864	11,313	60.3991	11,313	56.9635	11,313	50.5605	11,313	52.1757	11,313	60.4491	11,313	55.1605	11,313	62.8199	11,313	62.5977	11,313	58.5192
11,712.9	89.2492	11,712.9	87.7985	11,712.9	88.265	11,712.9	86.9038	11,712.9	86.7122	11,712.9	85.6505	11,712.9	85.8451	11,712.9	83.7562	11,712.9	83.9868	11,712.9	82.7379	11,712.9	81.5773	11,712.9	80.4408	11,712.9	79.9582	11,712.9	77.1372	11,712.9	77.7255	11,712.9	73.7848	11,712.9	74.0928	11,712.9	69.6969	11,712.9	70.1221	11,712.9	66.4791	11,712.9	66.4614	11,712.9	64.2835	11,712.9	64.3976	11,712.9	62.6184	11,712.9	61.3293	11,712.9	60.9046	11,712.9	58.2464	11,712.9	58.2078	11,712.9	55.0976	11,712.9	44.0396	11,712.9	52.232	11,712.9	58.9464	11,712.9	55.2321	11,712.9	62.0833	11,712.9	62.0352	11,712.9	54.5614
12,126	90.602	12,126	89.2048	12,126	89.6861	12,126	87.7862	12,126	87.9287	12,126	85.493	12,126	86.3154	12,126	82.6683	12,126	82.8488	12,126	81.3966	12,126	80.2754	12,126	78.8752	12,126	78.751	12,126	75.1688	12,126	76.1098	12,126	71.2313	12,126	71.4746	12,126	66.7191	12,126	67.8035	12,126	64.0851	12,126	64.5707	12,126	60.1557	12,126	61.3983	12,126	60.6018	12,126	58.4008	12,126	59.8625	12,126	55.719	12,126	55.0782	12,126	51.1979	12,126	42.5377	12,126	50.3717	12,126	55.7909	12,126	55.7803	12,126	60.1954	12,126	58.7033	12,126	49.9132
12,553.7	91.3985	12,553.7	90.2672	12,553.7	90.7178	12,553.7	88.1646	12,553.7	88.8809	12,553.7	84.8316	12,553.7	85.9615	12,553.7	81.2018	12,553.7	81.8144	12,553.7	79.1701	12,553.7	78.5742	12,553.7	75.9444	12,553.7	76.2564	12,553.7	72.5162	12,553.7	73.2712	12,553.7	68.923	12,553.7	68.7726	12,553.7	64.5042	12,553.7	65.6637	12,553.7	62.4289	12,553.7	62.0126	12,553.7	59.6184	12,553.7	59.7844	12,553.7	56.5745	12,553.7	55.8569	12,553.7	57.8102	12,553.7	52.0318	12,553.7	53.3569	12,553.7	49.2991	12,553.7	47.6122	12,553.7	49.7728	12,553.7	53.7875	12,553.7	55.8903	12,553.7	58.8427	12,553.7	56.0002	12,553.7	47.3444
12,996.1	91.6348	12,996.1	90.7721	12,996.1	91.0807	12,996.1	87.9317	12,996.1	88.9913	12,996.1	84.4823	12,996.1	85.3703	12,996.1	79.9882	12,996.1	81.0858	12,996.1	75.7492	12,996.1	75.9456	12,996.1	72.6196	12,996.1	72.725	12,996.1	70.5896	12,996.1	71.0828	12,996.1	67.3519	12,996.1	67.0112	12,996.1	63.0079	12,996.1	65.449	12,996.1	61.1086	12,996.1	61.3049	12,996.1	58.2099	12,996.1	59.8343	12,996.1	54.1729	12,996.1	56.5198	12,996.1	54.4707	12,996.1	52.1985	12,996.1	54.231	12,996.1	50.7066	12,996.1	51.195	12,996.1	52.538	12,996.1	50.8997	12,996.1	56.9417	12,996.1	55.7531	12,996.1	51.4863	12,996.1	45.5008
13,454.6	91.9757	13,454.6	91.0337	13,454.6	91.4062	13,454.6	87.8988	13,454.6	88.9086	13,454.6	84.1879	13,454.6	84.8548	13,454.6	78.1197	13,454.6	79.9756	13,454.6	70.7667	13,454.6	72.1177	13,454.6	68.6743	13,454.6	69.0398	13,454.6	68.9954	13,454.6	69.5486	13,454.6	65.6088	13,454.6	67.1459	13,454.6	62.5146	13,454.6	65.5393	13,454.6	60.4321	13,454.6	60.684	13,454.6	58.3337	13,454.6	59.8868	13,454.6	53.6044	13,454.6	56.4739	13,454.6	54.7354	13,454.6	54.4401	13,454.6	53.0468	13,454.6	51.7173	13,454.6	53.6197	13,454.6	54.2871	13,454.6	48.4992	13,454.6	56.9061	13,454.6	50.1085	13,454.6	45.0103	13,454.6	50.154
13,929.2	91.8228	13,929.2	90.8088	13,929.2	91.0316	13,929.2	87.9439	13,929.2	88.3017	13,929.2	84.3481	13,929.2	84.2522	13,929.2	77.6511	13,929.2	78.9162	13,929.2	68.0266	13,929.2	68.7256	13,929.2	65.444	13,929.2	65.799	13,929.2	67.686	13,929.2	68.7182	13,929.2	64.564	13,929.2	66.692	13,929.2	62.41	13,929.2	65.2421	13,929.2	59.916	13,929.2	60.4386	13,929.2	57.9881	13,929.2	59.813	13,929.2	54.0784	13,929.2	56.8179	13,929.2	53.5867	13,929.2	54.7672	13,929.2	52.7631	13,929.2	52.0853	13,929.2	54.6284	13,929.2	55.4951	13,929.2	45.742	13,929.2	56.4309	13,929.2	42.9136	13,929.2	41.871	13,929.2	52.1849
14,419.9	91.583	14,419.9	90.484	14,419.9	90.5009	14,419.9	87.9484	14,419.9	87.6259	14,419.9	84.0832	14,419.9	83.6473	14,419.9	77.2029	14,419.9	77.654	14,419.9	66.5649	14,419.9	67.6218	14,419.9	65.6352	14,419.9	66.1069	14,419.9	67.7156	14,419.9	67.5905	14,419.9	64.5434	14,419.9	64.2509	14,419.9	62.6324	14,419.9	64.0713	14,419.9	59.9888	14,419.9	59.0328	14,419.9	58.7639	14,419.9	57.7832	14,419.9	54.7225	14,419.9	54.7673	14,419.9	51.5511	14,419.9	51.5651	14,419.9	51.242	14,419.9	50.9141	14,419.9	54.399	14,419.9	53.537	14,419.9	43.6513	14,419.9	56.1805	14,419.9	37.2582	14,419.9	44.4991	14,419.9	53.4111
14,928.2	91.2489	14,928.2	90.1237	14,928.2	89.8126	14,928.2	87.6366	14,928.2	87.2414	14,928.2	83.3234	14,928.2	82.9836	14,928.2	75.1495	14,928.2	75.8811	14,928.2	63.2642	14,928.2	66.1525	14,928.2	69.1467	14,928.2	69.1569	14,928.2	70.4637	14,928.2	70.523	14,928.2	65.5891	14,928.2	66.0357	14,928.2	62.8401	14,928.2	64.4811	14,928.2	60.8507	14,928.2	58.9377	14,928.2	58.691	14,928.2	58.6117	14,928.2	56.0526	14,928.2	56.9278	14,928.2	52.4854	14,928.2	50.518	14,928.2	53.3549	14,928.2	52.1623	14,928.2	53.8066	14,928.2	53.2007	14,928.2	44.293	14,928.2	56.4975	14,928.2	43.0914	14,928.2	38.92	14,928.2	55.1533
15,455.6	90.8675	15,455.6	89.2947	15,455.6	89.3997	15,455.6	86.4064	15,455.6	87.1316	15,455.6	81.4384	15,455.6	82.3044	15,455.6	71.2588	15,455.6	72.7713	15,455.6	65.2828	15,455.6	67.7938	15,455.6	70.929	15,455.6	73.6992	15,455.6	69.7827	15,455.6	73.3514	15,455.6	66.4217	15,455.6	70.4122	15,455.6	63.769	15,455.6	67.9085	15,455.6	61.0245	15,455.6	63.4992	15,455.6	57.6262	15,455.6	62.7537	15,455.6	57.1429	15,455.6	56.998	15,455.6	55.0516	15,455.6	58.905	15,455.6	53.9512	15,455.6	56.4649	15,455.6	53.5912	15,455.6	55.6099	15,455.6	38.5797	15,455.6	57.3012	15,455.6	47.3424	15,455.6	45.3628	15,455.6	55.6742
16,000.5	90.8174	16,000.5	88.6185	16,000.5	89.7376	16,000.5	85.1533	16,000.5	87.1683	16,000.5	79.2793	16,000.5	81.8882	16,000.5	64.0075	16,000.5	66.5492	16,000.5	69.155	16,000.5	71.3753	16,000.5	72.1264	16,000.5	75.2203	16,000.5	70.617	16,000.5	73.896	16,000.5	66.1394	16,000.5	71.1982	16,000.5	63.1754	16,000.5	68.8052	16,000.5	61.4464	16,000.5	65.7547	16,000.5	57.5134	16,000.5	62.627	16,000.5	56.4845	16,000.5	59.3036	16,000.5	54.8887	16,000.5	61.1047	16,000.5	53.5594	16,000.5	57.8635	16,000.5	51.1784	16,000.5	56.3568	16,000.5	40.306	16,000.5	57.0997	16,000.5	47.2328	16,000.5	44.9186	16,000.5	54.5447
16,564.5	90.3964	16,564.5	88.1374	16,564.5	89.4903	16,564.5	84.1177	16,564.5	86.674	16,564.5	76.3853	16,564.5	80.415	16,564.5	56.196	16,564.5	45.823	16,564.5	70.6553	16,564.5	73.1786	16,564.5	71.6682	16,564.5	74.876	16,564.5	69.1127	16,564.5	73.0708	16,564.5	62.446	16,564.5	69.8556	16,564.5	58.5574	16,564.5	66.895	16,564.5	58.5442	16,564.5	63.9657	16,564.5	52.6397	16,564.5	60.9374	16,564.5	52.7013	16,564.5	58.1479	16,564.5	52.5057	16,564.5	60.0427	16,564.5	51.9494	16,564.5	56.3608	16,564.5	48.4658	16,564.5	54.1634	16,564.5	43.375	16,564.5	55.9552	16,564.5	46.4536	16,564.5	44.9071	16,564.5	52.8616
17,148.9	88.8921	17,148.9	86.7017	17,148.9	87.9603	17,148.9	81.7777	17,148.9	84.7367	17,148.9	71.887	17,148.9	76.5419	17,148.9	65.4507	17,148.9	65.3925	17,148.9	70.5206	17,148.9	73.3313	17,148.9	68.3853	17,148.9	72.9973	17,148.9	63.8487	17,148.9	69.9256	17,148.9	58.1901	17,148.9	65.7892	17,148.9	51.1514	17,148.9	63.4033	17,148.9	55.3505	17,148.9	61.2048	17,148.9	45.3088	17,148.9	57.8114	17,148.9	51.9294	17,148.9	55.6619	17,148.9	50.8459	17,148.9	57.1676	17,148.9	49.6851	17,148.9	53.4588	17,148.9	45.958	17,148.9	50.2399	17,148.9	42.0633	17,148.9	53.3276	17,148.9	45.7666	17,148.9	43.7339	17,148.9	50.24
17,752.4	87.4528	17,752.4	85.2697	17,752.4	86.1041	17,752.4	79.3832	17,752.4	82.1951	17,752.4	67.0649	17,752.4	71.3922	17,752.4	69.605	17,752.4	70.3821	17,752.4	67.9937	17,752.4	72.0961	17,752.4	63.2024	17,752.4	69.1448	17,752.4	60.2645	17,752.4	64.083	17,752.4	60.8054	17,752.4	61.0172	17,752.4	55.1252	17,752.4	59.9289	17,752.4	53.5902	17,752.4	58.6781	17,752.4	51.8376	17,752.4	54.2193	17,752.4	51.2803	17,752.4	53.1614	17,752.4	42.6189	17,752.4	52.3066	17,752.4	47.5291	17,752.4	48.6539	17,752.4	43.0932	17,752.4	44.0929	17,752.4	28.7695	17,752.4	51.6898	17,752.4	49.8324	17,752.4	46.8994	17,752.4	48.6269
18,379.4	85.8549	18,379.4	83.9582	18,379.4	84.2558	18,379.4	78.2272	18,379.4	80.7863	18,379.4	68.8471	18,379.4	73.4728	18,379.4	68.7185	18,379.4	71.8644	18,379.4	61.371	18,379.4	67.6376	18,379.4	64.0935	18,379.4	65.405	18,379.4	65.7642	18,379.4	68.2766	18,379.4	66.1346	18,379.4	67.3747	18,379.4	61.6449	18,379.4	64.4814	18,379.4	57.6515	18,379.4	62.8106	18,379.4	54.7545	18,379.4	59.1783	18,379.4	52.8214	18,379.4	57.7101	18,379.4	43.0418	18,379.4	53.1701	18,379.4	48.3186	18,379.4	49.9729	18,379.4	41.4435	18,379.4	39.4373	18,379.4	45.9957	18,379.4	49.2701	18,379.4	51.4857	18,379.4	48.5687	18,379.4	46.4962
19,026.9	83.5996	19,026.9	82.7362	19,026.9	83.421	19,026.9	77.2612	19,026.9	81.1696	19,026.9	69.6787	19,026.9	73.8135	19,026.9	65.9714	19,026.9	70.9351	19,026.9	66.4673	19,026.9	67.6554	19,026.9	69.7588	19,026.9	70.8373	19,026.9	68.9324	19,026.9	71.1709	19,026.9	68.1991	19,026.9	68.8499	19,026.9	63.8129	19,026.9	65.5776	19,026.9	60.0379	19,026.9	63.6936	19,026.9	56.3014	19,026.9	60.4063	19,026.9	55.4009	19,026.9	58.7122	19,026.9	47.9506	19,026.9	55.4323	19,026.9	48.9758	19,026.9	51.207	19,026.9	43.2873	19,026.9	47.1133	19,026.9	50.0663	19,026.9	43.974	19,026.9	49.794	19,026.9	45.2577	19,026.9	45.5187
19,697.8	82.3374	19,697.8	81.8247	19,697.8	82.9061	19,697.8	75.9938	19,697.8	80.7746	19,697.8	70.3537	19,697.8	72.7597	19,697.8	65.567	19,697.8	70.3784	19,697.8	70.1561	19,697.8	70.6541	19,697.8	70.9698	19,697.8	72.0228	19,697.8	69.0315	19,697.8	71.0543	19,697.8	67.6803	19,697.8	68.4804	19,697.8	63.0915	19,697.8	65.0636	19,697.8	59.6949	19,697.8	63.1081	19,697.8	54.2988	19,697.8	59.0451	19,697.8	54.1518	19,697.8	58.5922	19,697.8	49.3513	19,697.8	54.9518	19,697.8	48.9148	19,697.8	49.2232	19,697.8	43.6683	19,697.8	43.586	19,697.8	51.2799	19,697.8	40.8182	19,697.8	42.3249	19,697.8	44.3911	19,697.8	44.4099
19,999.5	81.9686	19,999.5	81.3846	19,999.5	82.5605	19,999.5	75.2859	19,999.5	80.2188	19,999.5	70.2169	19,999.5	72.3905	19,999.5	66.4721	19,999.5	69.8685	19,999.5	71.1756	19,999.5	71.1537	19,999.5	70.9374	19,999.5	72.3582	19,999.5	69.1797	19,999.5	71.0787	19,999.5	67.5285	19,999.5	67.9088	19,999.5	62.1361	19,999.5	64.6981	19,999.5	56.7023	19,999.5	62.9853	19,999.5	55.9529	19,999.5	60.1279	19,999.5	53.775	19,999.5	58.0849	19,999.5	50.9964	19,999.5	57.195	19,999.5	45.883	19,999.5	38.9286	19,999.5	46.2834	19,999.5	48.2741	19,999.5	50.3715	19,999.5	46.9629	19,999.5	47.2635	19,999.5	44.2879	19,999.5	45.4327
