"SPL Horizontal"
"On-Axis"		"10°"		"-10°"		"20°"		"-20°"		"30°"		"-30°"		"40°"		"-40°"		"50°"		"-50°"		"60°"		"-60°"		"70°"		"-70°"		"80°"		"-80°"		"90°"		"-90°"		"100°"		"-100°"		"110°"		"-110°"		"120°"		"-120°"		"130°"		"-130°"		"140°"		"-140°"		"150°"		"-150°"		"160°"		"-160°"		"170°"		"-170°"		"180°"
"Frequency [Hz]"	"Sound Pessure Level [dB]  / [2.83V 1m] "	"Frequency [Hz]"	"Sound Pessure Level [dB]  / [2.83V 1m] "	"Frequency [Hz]"	"Sound Pessure Level [dB]  / [2.83V 1m] "	"Frequency [Hz]"	"Sound Pessure Level [dB]  / [2.83V 1m] "	"Frequency [Hz]"	"Sound Pessure Level [dB]  / [2.83V 1m] "	"Frequency [Hz]"	"Sound Pessure Level [dB]  / [2.83V 1m] "	"Frequency [Hz]"	"Sound Pessure Level [dB]  / [2.83V 1m] "	"Frequency [Hz]"	"Sound Pessure Level [dB]  / [2.83V 1m] "	"Frequency [Hz]"	"Sound Pessure Level [dB]  / [2.83V 1m] "	"Frequency [Hz]"	"Sound Pessure Level [dB]  / [2.83V 1m] "	"Frequency [Hz]"	"Sound Pessure Level [dB]  / [2.83V 1m] "	"Frequency [Hz]"	"Sound Pessure Level [dB]  / [2.83V 1m] "	"Frequency [Hz]"	"Sound Pessure Level [dB]  / [2.83V 1m] "	"Frequency [Hz]"	"Sound Pessure Level [dB]  / [2.83V 1m] "	"Frequency [Hz]"	"Sound Pessure Level [dB]  / [2.83V 1m] "	"Frequency [Hz]"	"Sound Pessure Level [dB]  / [2.83V 1m] "	"Frequency [Hz]"	"Sound Pessure Level [dB]  / [2.83V 1m] "	"Frequency [Hz]"	"Sound Pessure Level [dB]  / [2.83V 1m] "	"Frequency [Hz]"	"Sound Pessure Level [dB]  / [2.83V 1m] "	"Frequency [Hz]"	"Sound Pessure Level [dB]  / [2.83V 1m] "	"Frequency [Hz]"	"Sound Pessure Level [dB]  / [2.83V 1m] "	"Frequency [Hz]"	"Sound Pessure Level [dB]  / [2.83V 1m] "	"Frequency [Hz]"	"Sound Pessure Level [dB]  / [2.83V 1m] "	"Frequency [Hz]"	"Sound Pessure Level [dB]  / [2.83V 1m] "	"Frequency [Hz]"	"Sound Pessure Level [dB]  / [2.83V 1m] "	"Frequency [Hz]"	"Sound Pessure Level [dB]  / [2.83V 1m] "	"Frequency [Hz]"	"Sound Pessure Level [dB]  / [2.83V 1m] "	"Frequency [Hz]"	"Sound Pessure Level [dB]  / [2.83V 1m] "	"Frequency [Hz]"	"Sound Pessure Level [dB]  / [2.83V 1m] "	"Frequency [Hz]"	"Sound Pessure Level [dB]  / [2.83V 1m] "	"Frequency [Hz]"	"Sound Pessure Level [dB]  / [2.83V 1m] "	"Frequency [Hz]"	"Sound Pessure Level [dB]  / [2.83V 1m] "	"Frequency [Hz]"	"Sound Pessure Level [dB]  / [2.83V 1m] "	"Frequency [Hz]"	"Sound Pessure Level [dB]  / [2.83V 1m] "	"Frequency [Hz]"	"Sound Pessure Level [dB]  / [2.83V 1m] "	"Frequency [Hz]"	"Sound Pessure Level [dB]  / [2.83V 1m] "
20.5078	63.2526	20.5078	63.3156	20.5078	63.2366	20.5078	63.4336	20.5078	63.2651	20.5078	63.6184	20.5078	63.3417	20.5078	63.8822	20.5078	63.4768	20.5078	64.2351	20.5078	63.6851	20.5078	64.6816	20.5078	63.9837	20.5078	65.2185	20.5078	64.3861	20.5078	65.8336	20.5078	64.8979	20.5078	66.5065	20.5078	65.5115	20.5078	67.2105	20.5078	66.2056	20.5078	67.9148	20.5078	66.9477	20.5078	68.5878	20.5078	67.699	20.5078	69.199	20.5078	68.4204	20.5078	69.7212	20.5078	69.0761	20.5078	70.1317	20.5078	69.6361	20.5078	70.4127	20.5078	70.0772	20.5078	70.552	20.5078	70.3828	20.5078	70.5424
21.2402	63.3851	21.2402	63.3729	21.2402	63.413	21.2402	63.3941	21.2402	63.4474	21.2402	63.4725	21.2402	63.4882	21.2402	63.6346	21.2402	63.5454	21.2402	63.9044	21.2402	63.6391	21.2402	64.2972	21.2402	63.7983	21.2402	64.8141	21.2402	64.0561	21.2402	65.4408	21.2402	64.4415	21.2402	66.1489	21.2402	64.9678	21.2402	66.9015	21.2402	65.6242	21.2402	67.6583	21.2402	66.3758	21.2402	68.3799	21.2402	67.1723	21.2402	69.0309	21.2402	67.9596	21.2402	69.5814	21.2402	68.6887	21.2402	70.0071	21.2402	69.3202	21.2402	70.2897	21.2402	69.8247	21.2402	70.4168	21.2402	70.1823	21.2402	70.3814
21.9727	64.8926	21.9727	64.9124	21.9727	64.8995	21.9727	64.9708	21.9727	64.9272	21.9727	65.0845	21.9727	64.9775	21.9727	65.2717	21.9727	65.0597	21.9727	65.5491	21.9727	65.1906	21.9727	65.9272	21.9727	65.3924	21.9727	66.4073	21.9727	65.6884	21.9727	66.9794	21.9727	66.0963	21.9727	67.6228	21.9727	66.6209	21.9727	68.3086	21.9727	67.2489	21.9727	69.0028	21.9727	67.9502	21.9727	69.6706	21.9727	68.6832	21.9727	70.2789	21.9727	69.4029	21.9727	70.7986	21.9727	70.0673	21.9727	71.2055	21.9727	70.6415	21.9727	71.481	21.9727	71.0984	21.9727	71.6122	21.9727	71.419	21.9727	71.5919
22.7051	64.9097	22.7051	64.9757	22.7051	64.8869	22.7051	65.0966	22.7051	64.9016	22.7051	65.2875	22.7051	64.956	22.7051	65.5633	22.7051	65.0608	22.7051	65.9348	22.7051	65.2338	22.7051	66.4053	22.7051	65.4972	22.7051	66.9685	22.7051	65.8714	22.7051	67.6088	22.7051	66.368	22.7051	68.3029	22.7051	66.9828	22.7051	69.022	22.7051	67.6938	22.7051	69.7347	22.7051	68.4648	22.7051	70.4096	22.7051	69.252	22.7051	71.0173	22.7051	70.0116	22.7051	71.5314	22.7051	70.7046	22.7051	71.93	22.7051	71.2991	22.7051	72.1961	22.7051	71.771	22.7051	72.3175	22.7051	72.1038	22.7051	72.2872
23.4375	66.7095	23.4375	66.7254	23.4375	66.7185	23.4375	66.7774	23.4375	66.7468	23.4375	66.8804	23.4375	66.7948	23.4375	67.0506	23.4375	66.8699	23.4375	67.3026	23.4375	66.9858	23.4375	67.6461	23.4375	67.1615	23.4375	68.0826	23.4375	67.4181	23.4375	68.6043	23.4375	67.7733	23.4375	69.1935	23.4375	68.2348	23.4375	69.8248	23.4375	68.7953	23.4375	70.4675	23.4375	69.4309	23.4375	71.0891	23.4375	70.1055	23.4375	71.6576	23.4375	70.7769	23.4375	72.1446	23.4375	71.4043	23.4375	72.5257	23.4375	71.9519	23.4375	72.7823	23.4375	72.3918	23.4375	72.9013	23.4375	72.7038	23.4375	72.8754
24.1699	67.3997	24.1699	67.4376	24.1699	67.392	24.1699	67.5152	24.1699	67.4095	24.1699	67.6456	24.1699	67.4537	24.1699	67.8427	24.1699	67.5322	24.1699	68.1187	24.1699	67.6588	24.1699	68.4808	24.1699	67.8519	24.1699	68.9293	24.1699	68.1305	24.1699	69.4557	24.1699	68.5096	24.1699	70.0431	24.1699	68.9937	24.1699	70.6676	24.1699	69.5722	24.1699	71.3004	24.1699	70.22	24.1699	71.9107	24.1699	70.9007	24.1699	72.4682	24.1699	71.5734	24.1699	72.9454	24.1699	72.1988	24.1699	73.3187	24.1699	72.743	24.1699	73.5698	24.1699	73.1793	24.1699	73.6857	24.1699	73.4885	24.1699	73.659
25.6348	69.3646	25.6348	69.3911	25.6348	69.3652	25.6348	69.453	25.6348	69.3885	25.6348	69.5617	25.6348	69.4351	25.6348	69.7293	25.6348	69.5106	25.6348	69.9664	25.6348	69.6261	25.6348	70.2804	25.6348	69.7961	25.6348	70.6727	25.6348	70.0369	25.6348	71.1374	25.6348	70.3623	25.6348	71.6612	25.6348	70.7786	25.6348	72.2237	25.6348	71.2805	25.6348	72.7992	25.6348	71.8493	25.6348	73.3592	25.6348	72.4551	25.6348	73.8747	25.6348	73.0618	25.6348	74.3187	25.6348	73.6326	25.6348	74.6677	25.6348	74.134	25.6348	74.9033	25.6348	74.539	25.6348	75.0122	25.6348	74.8277	25.6348	74.9873
26.3672	70.2018	26.3672	70.228	26.3672	70.1992	26.3672	70.2861	26.3672	70.216	26.3672	70.3868	26.3672	70.2527	26.3672	70.542	26.3672	70.3146	26.3672	70.7623	26.3672	70.4121	26.3672	71.0554	26.3672	70.5599	26.3672	71.4235	26.3672	70.7745	26.3672	71.8621	26.3672	71.0706	26.3672	72.3592	26.3672	71.4565	26.3672	72.8959	26.3672	71.9289	26.3672	73.4477	26.3672	72.4715	26.3672	73.9867	26.3672	73.0556	26.3672	74.4843	26.3672	73.6458	26.3672	74.9134	26.3672	74.2049	26.3672	75.2505	26.3672	74.699	26.3672	75.4767	26.3672	75.1002	26.3672	75.5789	26.3672	75.3881	26.3672	75.5497
27.0996	71.1949	27.0996	71.2129	27.0996	71.1957	27.0996	71.2573	27.0996	71.2116	27.0996	71.3382	27.0996	71.243	27.0996	71.4671	27.0996	71.2949	27.0996	71.655	27.0996	71.3769	27.0996	71.9104	27.0996	71.5026	27.0996	72.2373	27.0996	71.6878	27.0996	72.6335	27.0996	71.9475	27.0996	73.0894	27.0996	72.291	27.0996	73.5882	27.0996	72.7179	27.0996	74.1068	27.0996	73.215	27.0996	74.6182	27.0996	73.757	27.0996	75.0939	27.0996	74.3105	27.0996	75.5066	27.0996	74.8395	27.0996	75.8324	27.0996	75.3102	27.0996	76.0521	27.0996	75.6942	27.0996	76.1521	27.0996	75.9704	27.0996	76.1251
27.832	71.8559	27.832	71.8677	27.832	71.8577	27.832	71.9007	27.832	71.8693	27.832	71.9654	27.832	71.8913	27.832	72.0738	27.832	71.9287	27.832	72.238	27.832	71.9913	27.832	72.4679	27.832	72.0934	27.832	72.7692	27.832	72.2516	27.832	73.1413	27.832	72.4825	27.832	73.576	27.832	72.7976	27.832	74.057	27.832	73.1987	27.832	74.5616	27.832	73.6741	27.832	75.0623	27.832	74.1997	27.832	75.5302	27.832	74.7417	27.832	75.9372	27.832	75.2635	27.832	76.2588	27.832	75.7302	27.832	76.4754	27.832	76.1125	27.832	76.573	27.832	76.3886	27.832	76.5443
29.2969	73.0485	29.2969	73.0638	29.2969	73.054	29.2969	73.1072	29.2969	73.0765	29.2969	73.1883	29.2969	73.1162	29.2969	73.318	29.2969	73.1775	29.2969	73.5064	29.2969	73.269	29.2969	73.761	29.2969	73.4026	29.2969	74.0847	29.2969	73.5921	29.2969	74.4745	29.2969	73.8502	29.2969	74.9203	29.2969	74.1851	29.2969	75.4056	29.2969	74.5959	29.2969	75.9081	29.2969	75.0708	29.2969	76.4022	29.2969	75.587	29.2969	76.8608	29.2969	76.114	29.2969	77.258	29.2969	76.6183	29.2969	77.5712	29.2969	77.0679	29.2969	77.7819	29.2969	77.4358	29.2969	77.8773	29.2969	77.7012	29.2969	77.8505
30.0293	73.7104	30.0293	73.7324	30.0293	73.7122	30.0293	73.7851	30.0293	73.7343	30.0293	73.8772	30.0293	73.7765	30.0293	74.0182	30.0293	73.8427	30.0293	74.2167	30.0293	73.9405	30.0293	74.4785	30.0293	74.0805	30.0293	74.8052	30.0293	74.275	30.0293	75.1928	30.0293	74.5351	30.0293	75.6313	30.0293	74.8676	30.0293	76.1046	30.0293	75.2715	30.0293	76.5919	30.0293	75.7354	30.0293	77.0691	30.0293	76.2379	30.0293	77.5106	30.0293	76.7504	30.0293	77.8921	30.0293	77.2412	30.0293	78.1917	30.0293	77.6797	30.0293	78.3917	30.0293	78.0396	30.0293	78.4799	30.0293	78.3007	30.0293	78.4497
31.4941	75.5576	31.4941	75.5817	31.4941	75.5534	31.4941	75.6305	31.4941	75.5669	31.4941	75.7101	31.4941	75.5984	31.4941	75.8274	31.4941	75.6511	31.4941	75.989	31.4941	75.731	31.4941	76.2	31.4941	75.8463	31.4941	76.463	31.4941	76.0067	31.4941	76.7766	31.4941	76.2213	31.4941	77.1351	31.4941	76.4963	31.4941	77.5274	31.4941	76.8322	31.4941	77.9376	31.4941	77.2213	31.4941	78.3456	31.4941	77.6472	31.4941	78.7291	31.4941	78.0865	31.4941	79.065	31.4941	78.5117	31.4941	79.3322	31.4941	78.8949	31.4941	79.5131	31.4941	79.2112	31.4941	79.5951	31.4941	79.4411	31.4941	79.5712
32.2266	76.1651	32.2266	76.1739	32.2266	76.1725	32.2266	76.2037	32.2266	76.1937	32.2266	76.2609	32.2266	76.2289	32.2266	76.3533	32.2266	76.2811	32.2266	76.4883	32.2266	76.356	32.2266	76.6722	32.2266	76.4617	32.2266	76.909	32.2266	76.6077	32.2266	77.1987	32.2266	76.8033	32.2266	77.5367	32.2266	77.0554	32.2266	77.9128	32.2266	77.3658	32.2266	78.3112	32.2266	77.7282	32.2266	78.7118	32.2266	78.1281	32.2266	79.0915	32.2266	78.5434	32.2266	79.4268	32.2266	78.9474	32.2266	79.6959	32.2266	79.3127	32.2266	79.8808	32.2266	79.6142	32.2266	79.9686	32.2266	79.832	32.2266	79.9524
33.6914	77.4389	33.6914	77.4454	33.6914	77.4502	33.6914	77.4743	33.6914	77.4767	33.6914	77.5316	33.6914	77.518	33.6914	77.6244	33.6914	77.5764	33.6914	77.7591	33.6914	77.6564	33.6914	77.9413	33.6914	77.7646	33.6914	78.1737	33.6914	77.909	33.6914	78.4557	33.6914	78.0976	33.6914	78.7822	33.6914	78.3365	33.6914	79.1432	33.6914	78.6275	33.6914	79.5236	33.6914	78.9658	33.6914	79.9044	33.6914	79.339	33.6914	80.264	33.6914	79.7275	33.6914	80.5804	33.6914	80.1072	33.6914	80.8331	33.6914	80.4523	33.6914	81.0053	33.6914	80.7391	33.6914	81.0849	33.6914	80.9481	33.6914	81.0658
34.4238	78.0512	34.4238	78.0599	34.4238	78.0597	34.4238	78.0902	34.4238	78.0828	34.4238	78.1477	34.4238	78.1205	34.4238	78.239	34.4238	78.1746	34.4238	78.3703	34.4238	78.2497	34.4238	78.5466	34.4238	78.3518	34.4238	78.7708	34.4238	78.4888	34.4238	79.0421	34.4238	78.6683	34.4238	79.3559	34.4238	78.8962	34.4238	79.7026	34.4238	79.1748	34.4238	80.0679	34.4238	79.4996	34.4238	80.4338	34.4238	79.8591	34.4238	80.7794	34.4238	80.2347	34.4238	81.0834	34.4238	80.6032	34.4238	81.3259	34.4238	80.9394	34.4238	81.4902	34.4238	81.22	34.4238	81.5645	34.4238	81.4257	34.4238	81.5429
35.8887	78.9926	35.8887	79.0027	35.8887	78.9997	35.8887	79.0339	35.8887	79.022	35.8887	79.0915	35.8887	79.0592	35.8887	79.1813	35.8887	79.1135	35.8887	79.3091	35.8887	79.1888	35.8887	79.4796	35.8887	79.2909	35.8887	79.6953	35.8887	79.4268	35.8887	79.9558	35.8887	79.6033	35.8887	80.2567	35.8887	79.8257	35.8887	80.5893	35.8887	80.0956	35.8887	80.9402	35.8887	80.4089	35.8887	81.2922	35.8887	80.7546	35.8887	81.6254	35.8887	81.1152	35.8887	81.9192	35.8887	81.4687	35.8887	82.1543	35.8887	81.7911	35.8887	82.3143	35.8887	82.0601	35.8887	82.3876	35.8887	82.2569	35.8887	82.3684
37.3535	80.1354	37.3535	80.1462	37.3535	80.1449	37.3535	80.1803	37.3535	80.1726	37.3535	80.2421	37.3535	80.2186	37.3535	80.3364	37.3535	80.2843	37.3535	80.4679	37.3535	80.3728	37.3535	80.64	37.3535	80.4883	37.3535	80.8545	37.3535	80.6359	37.3535	81.11	37.3535	80.8203	37.3535	81.4022	37.3535	81.0449	37.3535	81.7225	37.3535	81.3099	37.3535	82.0586	37.3535	81.6109	37.3535	82.3945	37.3535	81.9379	37.3535	82.712	37.3535	82.2753	37.3535	82.9921	37.3535	82.6037	37.3535	83.2168	37.3535	82.902	37.3535	83.3711	37.3535	83.1497	37.3535	83.444	37.3535	83.3299	37.3535	83.4302
38.8184	81.1802	38.8184	81.1852	38.8184	81.1923	38.8184	81.2102	38.8184	81.2199	38.8184	81.2592	38.8184	81.2626	38.8184	81.3367	38.8184	81.3217	38.8184	81.4469	38.8184	81.3995	38.8184	81.5936	38.8184	81.4998	38.8184	81.7787	38.8184	81.6268	38.8184	82.0018	38.8184	81.785	38.8184	82.2595	38.8184	81.978	38.8184	82.5449	38.8184	82.2069	38.8184	82.847	38.8184	82.4689	38.8184	83.1516	38.8184	82.7563	38.8184	83.4416	38.8184	83.0559	38.8184	83.6989	38.8184	83.3506	38.8184	83.9064	38.8184	83.6206	38.8184	84.0492	38.8184	83.8467	38.8184	84.117	38.8184	84.012	38.8184	84.1044
39.5508	81.4063	39.5508	81.4106	39.5508	81.4185	39.5508	81.4343	39.5508	81.4456	39.5508	81.4815	39.5508	81.4873	39.5508	81.5565	39.5508	81.545	39.5508	81.664	39.5508	81.6211	39.5508	81.8076	39.5508	81.7192	39.5508	81.9896	39.5508	81.8437	39.5508	82.2097	39.5508	81.999	39.5508	82.4645	39.5508	82.1885	39.5508	82.7471	39.5508	82.4136	39.5508	83.0466	39.5508	82.6716	39.5508	83.3486	39.5508	82.9549	39.5508	83.6361	39.5508	83.2508	39.5508	83.8911	39.5508	83.5421	39.5508	84.0964	39.5508	83.8096	39.5508	84.2375	39.5508	84.0339	39.5508	84.304	39.5508	84.1984	39.5508	84.2907
41.0156	82.0553	41.0156	82.068	41.0156	82.062	41.0156	82.1025	41.0156	82.0864	41.0156	82.1623	41.0156	82.128	41.0156	82.251	41.0156	82.1877	41.0156	82.3721	41.0156	82.2673	41.0156	82.528	41.0156	82.3696	41.0156	82.7196	41.0156	82.4981	41.0156	82.9455	41.0156	82.6562	41.0156	83.2017	41.0156	82.8467	41.0156	83.4808	41.0156	83.0704	41.0156	83.7722	41.0156	83.3249	41.0156	84.0624	41.0156	83.603	41.0156	84.3357	41.0156	83.8929	41.0156	84.5755	41.0156	84.1787	41.0156	84.766	41.0156	84.4421	41.0156	84.8937	41.0156	84.6649	41.0156	84.9491	41.0156	84.8307	41.0156	84.9278
42.4805	82.9985	42.4805	83.0142	42.4805	83.0008	42.4805	83.05	42.4805	83.02	42.4805	83.1086	42.4805	83.056	42.4805	83.1931	42.4805	83.1097	42.4805	83.3064	42.4805	83.1827	42.4805	83.4506	42.4805	83.2777	42.4805	83.6267	42.4805	83.3977	42.4805	83.8338	42.4805	83.5459	42.4805	84.0684	42.4805	83.7245	42.4805	84.3245	42.4805	83.9343	42.4805	84.5927	42.4805	84.1727	42.4805	84.8609	42.4805	84.4333	42.4805	85.1147	42.4805	84.7049	42.4805	85.3386	42.4805	84.9727	42.4805	85.5175	42.4805	85.2195	42.4805	85.6383	42.4805	85.428	42.4805	85.6916	42.4805	85.5829	42.4805	85.6729
43.9453	83.6879	43.9453	83.7072	43.9453	83.6848	43.9453	83.7441	43.9453	83.6972	43.9453	83.8009	43.9453	83.7254	43.9453	83.8801	43.9453	83.7705	43.9453	83.9847	43.9453	83.8344	43.9453	84.1166	43.9453	83.9197	43.9453	84.2773	43.9453	84.0293	43.9453	84.4664	43.9453	84.1662	43.9453	84.6813	43.9453	84.3325	43.9453	84.9168	43.9453	84.5289	43.9453	85.1648	43.9453	84.753	43.9453	85.4143	43.9453	84.9987	43.9453	85.6516	43.9453	85.2556	43.9453	85.8618	43.9453	85.5095	43.9453	86.0303	43.9453	85.744	43.9453	86.1444	43.9453	85.9426	43.9453	86.1947	43.9453	86.0904	43.9453	86.1765
45.4102	84.017	45.4102	84.0298	45.4102	84.0219	45.4102	84.0619	45.4102	84.044	45.4102	84.1155	45.4102	84.0835	45.4102	84.1934	45.4102	84.1415	45.4102	84.2984	45.4102	84.2197	45.4102	84.4331	45.4102	84.3203	45.4102	84.5986	45.4102	84.4455	45.4102	84.7947	45.4102	84.5976	45.4102	85.0184	45.4102	84.7779	45.4102	85.2643	45.4102	84.986	45.4102	85.5237	45.4102	85.2188	45.4102	85.7851	45.4102	85.4695	45.4102	86.0344	45.4102	85.7276	45.4102	86.2565	45.4102	85.9793	45.4102	86.4367	45.4102	86.2087	45.4102	86.562	45.4102	86.4	45.4102	86.6231	45.4102	86.539	45.4102	86.6153
47.6074	84.9409	47.6074	84.9524	47.6074	84.9482	47.6074	84.9839	47.6074	84.9738	47.6074	85.0371	47.6074	85.0178	47.6074	85.1142	47.6074	85.0807	47.6074	85.2173	47.6074	85.1636	47.6074	85.3482	47.6074	85.2675	47.6074	85.5077	47.6074	85.3939	47.6074	85.695	47.6074	85.5438	47.6074	85.9072	47.6074	85.7177	47.6074	86.1391	47.6074	85.9147	47.6074	86.3827	47.6074	86.1318	47.6074	86.6274	47.6074	86.3632	47.6074	86.8604	47.6074	86.5998	47.6074	87.0679	47.6074	86.8296	47.6074	87.2364	47.6074	87.0386	47.6074	87.3541	47.6074	87.2125	47.6074	87.4124	47.6074	87.3385	47.6074	87.407
49.0723	85.4116	49.0723	85.4259	49.0723	85.4172	49.0723	85.461	49.0723	85.4425	49.0723	85.5184	49.0723	85.4875	49.0723	85.5998	49.0723	85.5527	49.0723	85.7069	49.0723	85.6387	49.0723	85.8409	49.0723	85.7464	49.0723	86.0023	49.0723	85.8763	49.0723	86.1899	49.0723	86.0291	49.0723	86.4006	49.0723	86.2045	49.0723	86.6291	49.0723	86.4012	49.0723	86.8676	49.0723	86.6161	49.0723	87.1059	49.0723	86.8433	49.0723	87.3319	49.0723	87.0742	49.0723	87.5325	49.0723	87.2975	49.0723	87.6948	49.0723	87.5001	49.0723	87.8078	49.0723	87.6686	49.0723	87.8634	49.0723	87.7908	49.0723	87.8575
50.5371	85.8068	50.5371	85.8225	50.5371	85.8115	50.5371	85.8594	50.5371	85.8364	50.5371	85.9183	50.5371	85.8817	50.5371	86.0008	50.5371	85.9477	50.5371	86.1081	50.5371	86.0348	50.5371	86.2412	50.5371	86.1433	50.5371	86.4002	50.5371	86.2736	50.5371	86.5839	50.5371	86.4255	50.5371	86.7891	50.5371	86.5986	50.5371	87.0108	50.5371	86.7914	50.5371	87.2415	50.5371	87.0005	50.5371	87.4716	50.5371	87.2205	50.5371	87.6895	50.5371	87.4433	50.5371	87.8828	50.5371	87.6583	50.5371	88.0393	50.5371	87.8532	50.5371	88.1482	50.5371	88.015	50.5371	88.2018	50.5371	88.1324	50.5371	88.1963
52.7344	86.4369	52.7344	86.4569	52.7344	86.4378	52.7344	86.4981	52.7344	86.4599	52.7344	86.561	52.7344	86.5033	52.7344	86.6463	52.7344	86.5683	52.7344	86.7549	52.7344	86.6551	52.7344	86.8874	52.7344	86.7638	52.7344	87.0435	52.7344	86.894	52.7344	87.2217	52.7344	87.0452	52.7344	87.4191	52.7344	87.2162	52.7344	87.631	52.7344	87.4051	52.7344	87.8503	52.7344	87.6084	52.7344	88.0683	52.7344	87.8208	52.7344	88.2742	52.7344	88.0346	52.7344	88.4566	52.7344	88.24	52.7344	88.6041	52.7344	88.4254	52.7344	88.7067	52.7344	88.5793	52.7344	88.757	52.7344	88.6907	52.7344	88.7515
54.1992	86.8624	54.1992	86.8852	54.1992	86.8596	54.1992	86.9281	54.1992	86.8773	54.1992	86.9912	54.1992	86.916	54.1992	87.0748	54.1992	86.9759	54.1992	87.1796	54.1992	87.0571	54.1992	87.3058	54.1992	87.1595	54.1992	87.4532	54.1992	87.2825	54.1992	87.6205	54.1992	87.4254	54.1992	87.8049	54.1992	87.5869	54.1992	88.0023	54.1992	87.7651	54.1992	88.2064	54.1992	87.9566	54.1992	88.409	54.1992	88.1566	54.1992	88.6003	54.1992	88.358	54.1992	88.7696	54.1992	88.5518	54.1992	88.9063	54.1992	88.7272	54.1992	89.0007	54.1992	88.8733	54.1992	89.0461	54.1992	88.9799	54.1992	89.039
56.3965	87.3857	56.3965	87.405	56.3965	87.3867	56.3965	87.4442	56.3965	87.4086	56.3965	87.503	56.3965	87.452	56.3965	87.5816	56.3965	87.5171	56.3965	87.6805	56.3965	87.6039	56.3965	87.8001	56.3965	87.7117	56.3965	87.94	56.3965	87.8395	56.3965	88.0995	56.3965	87.9859	56.3965	88.2762	56.3965	88.149	56.3965	88.4662	56.3965	88.3262	56.3965	88.6639	56.3965	88.5138	56.3965	88.8617	56.3965	88.7067	56.3965	89.0502	56.3965	88.8982	56.3965	89.2191	56.3965	89.0798	56.3965	89.358	56.3965	89.2416	56.3965	89.4574	56.3965	89.3736	56.3965	89.5105	56.3965	89.4666	56.3965	89.5135
58.5938	87.845	58.5938	87.863	58.5938	87.8473	58.5938	87.9006	58.5938	87.8707	58.5938	87.9575	58.5938	87.9158	58.5938	88.0335	58.5938	87.9826	58.5938	88.1289	58.5938	88.0708	58.5938	88.2438	58.5938	88.1794	58.5938	88.378	58.5938	88.3068	58.5938	88.5307	58.5938	88.4512	58.5938	88.6996	58.5938	88.6103	58.5938	88.8812	58.5938	88.7812	58.5938	89.0701	58.5938	88.9603	58.5938	89.2591	58.5938	89.1429	58.5938	89.4395	58.5938	89.3228	58.5938	89.6016	58.5938	89.4923	58.5938	89.7353	58.5938	89.6426	58.5938	89.832	58.5938	89.7645	58.5938	89.8849	58.5938	89.8493	58.5938	89.8907
60.0586	88.1142	60.0586	88.131	60.0586	88.1176	60.0586	88.1673	60.0586	88.1422	60.0586	88.2224	60.0586	88.1883	60.0586	88.2962	60.0586	88.2562	60.0586	88.3887	60.0586	88.3452	60.0586	88.5	60.0586	88.4541	60.0586	88.63	60.0586	88.5812	60.0586	88.7778	60.0586	88.7243	60.0586	88.9414	60.0586	88.8809	60.0586	89.1174	60.0586	89.048	60.0586	89.3007	60.0586	89.2221	60.0586	89.4845	60.0586	89.3985	60.0586	89.6604	60.0586	89.5714	60.0586	89.8188	60.0586	89.7336	60.0586	89.9502	60.0586	89.8766	60.0586	90.046	60.0586	89.9917	60.0586	90.0999	60.0586	90.071	60.0586	90.1082
62.2559	88.4452	62.2559	88.4626	62.2559	88.4483	62.2559	88.4993	62.2559	88.4728	62.2559	88.5544	62.2559	88.5194	62.2559	88.6275	62.2559	88.5881	62.2559	88.7184	62.2559	88.6782	62.2559	88.8271	62.2559	88.7882	62.2559	88.9534	62.2559	88.9159	62.2559	89.0964	62.2559	89.0588	62.2559	89.2544	62.2559	89.2141	62.2559	89.4241	62.2559	89.3783	62.2559	89.6009	62.2559	89.548	62.2559	89.7782	62.2559	89.7185	62.2559	89.9481	62.2559	89.8844	62.2559	90.1015	62.2559	90.0388	62.2559	90.2294	62.2559	90.174	62.2559	90.3235	62.2559	90.282	62.2559	90.3776	62.2559	90.3553	62.2559	90.3882
64.4531	88.7134	64.4531	88.7302	64.4531	88.7173	64.4531	88.7665	64.4531	88.7432	64.4531	88.8211	64.4531	88.7919	64.4531	88.8931	64.4531	88.8633	64.4531	88.9824	64.4531	88.9564	64.4531	89.0887	64.4531	89.0695	64.4531	89.212	64.4531	89.2001	64.4531	89.3514	64.4531	89.3451	64.4531	89.5053	64.4531	89.5011	64.4531	89.6708	64.4531	89.6647	64.4531	89.8433	64.4531	89.8319	64.4531	90.0167	64.4531	89.9982	64.4531	90.1834	64.4531	90.1583	64.4531	90.3347	64.4531	90.3058	64.4531	90.4618	64.4531	90.4335	64.4531	90.5567	64.4531	90.5341	64.4531	90.6132	64.4531	90.6006	64.4531	90.6279
66.6504	88.9094	66.6504	88.9259	66.6504	88.9147	66.6504	88.9626	66.6504	88.9432	66.6504	89.0181	66.6504	88.9955	66.6504	89.0912	66.6504	89.0716	66.6504	89.1815	66.6504	89.1701	66.6504	89.2884	66.6504	89.2887	66.6504	89.4117	66.6504	89.4245	66.6504	89.5505	66.6504	89.5738	66.6504	89.7032	66.6504	89.7329	66.6504	89.8669	66.6504	89.8976	66.6504	90.0372	66.6504	90.064	66.6504	90.2082	66.6504	90.2274	66.6504	90.3726	66.6504	90.3828	66.6504	90.5223	66.6504	90.5242	66.6504	90.6486	66.6504	90.6451	66.6504	90.7441	66.6504	90.7388	66.6504	90.8027	66.6504	90.7991	66.6504	90.8212
69.5801	89.2866	69.5801	89.301	69.5801	89.2937	69.5801	89.3351	69.5801	89.3239	69.5801	89.3871	69.5801	89.378	69.5801	89.4558	69.5801	89.4555	69.5801	89.5402	69.5801	89.555	69.5801	89.64	69.5801	89.6738	69.5801	89.7548	69.5801	89.8084	69.5801	89.884	69.5801	89.9549	69.5801	90.0263	69.5801	90.1089	69.5801	90.1792	69.5801	90.2664	69.5801	90.3388	69.5801	90.4232	69.5801	90.4998	69.5801	90.575	69.5801	90.6554	69.5801	90.7172	69.5801	90.7981	69.5801	90.8447	69.5801	90.9199	69.5801	90.952	69.5801	91.0137	69.5801	91.0331	69.5801	91.0738	69.5801	91.0828	69.5801	91.0971
71.7773	89.4745	71.7773	89.4878	71.7773	89.4825	71.7773	89.5203	71.7773	89.5133	71.7773	89.57	71.7773	89.568	71.7773	89.6354	71.7773	89.646	71.7773	89.7156	71.7773	89.7457	71.7773	89.8101	71.7773	89.8643	71.7773	89.9188	71.7773	89.998	71.7773	90.0412	71.7773	90.1424	71.7773	90.1761	71.7773	90.2932	71.7773	90.3215	71.7773	90.446	71.7773	90.4737	71.7773	90.5965	71.7773	90.6279	71.7773	90.7406	71.7773	90.7776	71.7773	90.8742	71.7773	90.9156	71.7773	90.9925	71.7773	91.0344	71.7773	91.0906	71.7773	91.1271	71.7773	91.1633	71.7773	91.1883	71.7773	91.2059	71.7773	91.2148
73.9746	89.7138	73.9746	89.7273	73.9746	89.7211	73.9746	89.7593	73.9746	89.7509	73.9746	89.8077	73.9746	89.8042	73.9746	89.8708	73.9746	89.8806	73.9746	89.9478	73.9746	89.9785	73.9746	90.0381	73.9746	90.0947	73.9746	90.1417	73.9746	90.2253	73.9746	90.2584	73.9746	90.3658	73.9746	90.387	73.9746	90.5117	73.9746	90.5258	73.9746	90.6586	73.9746	90.6712	73.9746	90.8024	73.9746	90.8186	73.9746	90.9393	73.9746	90.9619	73.9746	91.0653	73.9746	91.094	73.9746	91.1764	73.9746	91.2078	73.9746	91.2681	73.9746	91.2968	73.9746	91.3357	73.9746	91.3559	73.9746	91.3748	73.9746	91.3821
76.9043	89.8745	76.9043	89.897	76.9043	89.8738	76.9043	89.9384	76.9043	89.8971	76.9043	89.9961	76.9043	89.9456	76.9043	90.0679	76.9043	90.019	76.9043	90.1525	76.9043	90.1157	76.9043	90.2491	76.9043	90.2323	76.9043	90.3573	76.9043	90.3646	76.9043	90.4766	76.9043	90.5078	76.9043	90.6062	76.9043	90.6568	76.9043	90.7439	76.9043	90.807	76.9043	90.8866	76.9043	90.954	76.9043	91.0297	76.9043	91.0939	76.9043	91.1675	76.9043	91.2228	76.9043	91.2934	76.9043	91.3367	76.9043	91.4006	76.9043	91.4313	76.9043	91.4831	76.9043	91.5022	76.9043	91.5362	76.9043	91.5452	76.9043	91.557
79.834	90.0312	79.834	90.0585	79.834	90.026	79.834	90.1047	79.834	90.0455	79.834	90.1666	79.834	90.0912	79.834	90.2415	79.834	90.1631	79.834	90.3278	79.834	90.2593	79.834	90.4244	79.834	90.3762	79.834	90.5308	79.834	90.5093	79.834	90.6468	79.834	90.6533	79.834	90.7715	79.834	90.8029	79.834	90.9032	79.834	90.9529	79.834	91.0392	79.834	91.0989	79.834	91.1753	79.834	91.2367	79.834	91.3062	79.834	91.3626	79.834	91.4261	79.834	91.4727	79.834	91.5284	79.834	91.5633	79.834	91.6076	79.834	91.6303	79.834	91.6591	79.834	91.6702	79.834	91.6802
82.7637	90.1669	82.7637	90.198	82.7637	90.1574	82.7637	90.2471	82.7637	90.1725	82.7637	90.3106	82.7637	90.2141	82.7637	90.3856	82.7637	90.2821	82.7637	90.4701	82.7637	90.3747	82.7637	90.5629	82.7637	90.4884	82.7637	90.6637	82.7637	90.6182	82.7637	90.7724	82.7637	90.7588	82.7637	90.8884	82.7637	90.9044	82.7637	91.0105	82.7637	91.0499	82.7637	91.1363	82.7637	91.1905	82.7637	91.2623	82.7637	91.3224	82.7637	91.3839	82.7637	91.4418	82.7637	91.4954	82.7637	91.5455	82.7637	91.5911	82.7637	91.6298	82.7637	91.6656	82.7637	91.6915	82.7637	91.7146	82.7637	91.7275	82.7637	91.7355
85.6934	90.2464	85.6934	90.2804	85.6934	90.2343	85.6934	90.3322	85.6934	90.2475	85.6934	90.3979	85.6934	90.288	85.6934	90.4741	85.6934	90.3559	85.6934	90.5586	85.6934	90.4494	85.6934	90.6502	85.6934	90.5646	85.6934	90.7486	85.6934	90.6964	85.6934	90.8539	85.6934	90.8388	85.6934	90.9658	85.6934	90.986	85.6934	91.0835	85.6934	91.1324	85.6934	91.205	85.6934	91.273	85.6934	91.3272	85.6934	91.4039	85.6934	91.4455	85.6934	91.5213	85.6934	91.5548	85.6934	91.622	85.6934	91.6495	85.6934	91.7028	85.6934	91.7241	85.6934	91.7607	85.6934	91.7745	85.6934	91.7931	85.6934	91.7979
88.623	90.2871	88.623	90.3218	88.623	90.2748	88.623	90.3745	88.623	90.2886	88.623	90.4409	88.623	90.3305	88.623	90.5174	88.623	90.4007	88.623	90.6015	88.623	90.4971	88.623	90.692	88.623	90.6157	88.623	90.7886	88.623	90.7509	88.623	90.8914	88.623	90.8963	88.623	91.0004	88.623	91.0457	88.623	91.115	88.623	91.1931	88.623	91.2335	88.623	91.3334	88.623	91.3531	88.623	91.4625	88.623	91.4694	88.623	91.5768	88.623	91.5776	88.623	91.6731	88.623	91.6723	88.623	91.7488	88.623	91.7482	88.623	91.8012	88.623	91.8011	88.623	91.8282	88.623	91.8282
91.5527	90.238	91.5527	90.2775	91.5527	90.2214	91.5527	90.335	91.5527	90.2318	91.5527	90.4058	91.5527	90.2716	91.5527	90.4857	91.5527	90.3409	91.5527	90.572	91.5527	90.4377	91.5527	90.6632	91.5527	90.5576	91.5527	90.7589	91.5527	90.6947	91.5527	90.8595	91.5527	90.8422	91.5527	90.9651	91.5527	90.9935	91.5527	91.0756	91.5527	91.1422	91.5527	91.1895	91.5527	91.2831	91.5527	91.3043	91.5527	91.4118	91.5527	91.4162	91.5527	91.5248	91.5527	91.5206	91.5527	91.6193	91.5527	91.6123	91.5527	91.6926	91.5527	91.6863	91.5527	91.7426	91.5527	91.7386	91.5527	91.7675	91.5527	91.7661
94.4824	90.2168	94.4824	90.2615	94.4824	90.1951	94.4824	90.3239	94.4824	90.2009	94.4824	90.3986	94.4824	90.2371	94.4824	90.4813	94.4824	90.3039	94.4824	90.5687	94.4824	90.3994	94.4824	90.6594	94.4824	90.5189	94.4824	90.753	94.4824	90.6564	94.4824	90.8499	94.4824	90.8047	94.4824	90.9507	94.4824	90.9566	94.4824	91.0554	94.4824	91.1057	94.4824	91.1632	94.4824	91.2464	94.4824	91.272	94.4824	91.3742	94.4824	91.3782	94.4824	91.4855	94.4824	91.4777	94.4824	91.5777	94.4824	91.5655	94.4824	91.6485	94.4824	91.637	94.4824	91.6959	94.4824	91.6881	94.4824	91.7185	94.4824	91.7158
98.1445	90.1684	98.1445	90.2178	98.1445	90.142	98.1445	90.2844	98.1445	90.1438	98.1445	90.3626	98.1445	90.1767	98.1445	90.4473	98.1445	90.2416	98.1445	90.5353	98.1445	90.3362	98.1445	90.625	98.1445	90.456	98.1445	90.716	98.1445	90.5945	98.1445	90.809	98.1445	90.7441	98.1445	90.9051	98.1445	90.8975	98.1445	91.0047	98.1445	91.0477	98.1445	91.1075	98.1445	91.189	98.1445	91.2116	98.1445	91.3166	98.1445	91.314	98.1445	91.4272	98.1445	91.4106	98.1445	91.5179	98.1445	91.4967	98.1445	91.5867	98.1445	91.5675	98.1445	91.6319	98.1445	91.6189	98.1445	91.6524	98.1445	91.6478
101.807	90.0508	101.807	90.1046	101.807	90.0216	101.807	90.1763	101.807	90.0224	101.807	90.2597	101.807	90.0567	101.807	90.3493	101.807	90.1253	101.807	90.4413	101.807	90.2259	101.807	90.5336	101.807	90.3535	101.807	90.6259	101.807	90.501	101.807	90.7191	101.807	90.6603	101.807	90.8144	101.807	90.8231	101.807	90.9129	101.807	90.9818	101.807	91.0146	101.807	91.1301	101.807	91.1185	101.807	91.2629	101.807	91.2217	101.807	91.3764	101.807	91.3206	101.807	91.4675	101.807	91.4104	101.807	91.5344	101.807	91.4864	101.807	91.5756	101.807	91.544	101.807	91.5906	101.807	91.5796
105.469	90.0101	105.469	90.0381	105.469	90.0046	105.469	90.0823	105.469	90.0266	105.469	90.1369	105.469	90.0792	105.469	90.1969	105.469	90.1627	105.469	90.259	105.469	90.2744	105.469	90.3223	105.469	90.4086	105.469	90.3874	105.469	90.558	105.469	90.4564	105.469	90.7138	105.469	90.5317	105.469	90.8678	105.469	90.6157	105.469	91.0123	105.469	90.7091	105.469	91.1414	105.469	90.8113	105.469	91.2503	105.469	90.9194	105.469	91.3361	105.469	91.0294	105.469	91.3967	105.469	91.1359	105.469	91.4313	105.469	91.2332	105.469	91.4397	105.469	91.3162	105.469	91.4223	105.469	91.3804
109.131	89.9246	109.131	89.9933	109.131	89.8819	109.131	90.0802	109.131	89.8718	109.131	90.1779	109.131	89.8985	109.131	90.2799	109.131	89.9632	109.131	90.3817	109.131	90.0634	109.131	90.4809	109.131	90.1937	109.131	90.5772	109.131	90.3462	109.131	90.6719	109.131	90.5118	109.131	90.7668	109.131	90.6814	109.131	90.8634	109.131	90.8469	109.131	90.9624	109.131	91.0015	109.131	91.0626	109.131	91.1399	109.131	91.1614	109.131	91.2584	109.131	91.255	109.131	91.3544	109.131	91.3388	109.131	91.4261	109.131	91.4083	109.131	91.4724	109.131	91.4592	109.131	91.493	109.131	91.4882
112.793	89.9813	112.793	90.0489	112.793	89.939	112.793	90.1339	112.793	89.9291	112.793	90.2283	112.793	89.9562	112.793	90.3254	112.793	90.0216	112.793	90.4206	112.793	90.123	112.793	90.5114	112.793	90.2548	112.793	90.5979	112.793	90.4087	112.793	90.6815	112.793	90.5753	112.793	90.7648	112.793	90.745	112.793	90.8502	112.793	90.9091	112.793	90.939	112.793	91.0605	112.793	91.0312	112.793	91.1938	112.793	91.1249	112.793	91.3051	112.793	91.217	112.793	91.3919	112.793	91.303	112.793	91.4526	112.793	91.3781	112.793	91.4868	112.793	91.4377	112.793	91.4947	112.793	91.4776
116.455	89.8978	116.455	89.9654	116.455	89.8542	116.455	90.0485	116.455	89.842	116.455	90.1388	116.455	89.8662	116.455	90.2297	116.455	89.9286	116.455	90.3164	116.455	90.0271	116.455	90.3968	116.455	90.1559	116.455	90.4712	116.455	90.3068	116.455	90.5417	116.455	90.47	116.455	90.6117	116.455	90.6356	116.455	90.6845	116.455	90.7947	116.455	90.7624	116.455	90.9403	116.455	90.846	116.455	91.0667	116.455	90.9341	116.455	91.1703	116.455	91.0235	116.455	91.2486	116.455	91.1098	116.455	91.3005	116.455	91.1879	116.455	91.3256	116.455	91.2527	116.455	91.3248	116.455	91.2996
120.85	89.8516	120.85	89.8971	120.85	89.8308	120.85	89.9592	120.85	89.8418	120.85	90.0299	120.85	89.8892	120.85	90.1024	120.85	89.9739	120.85	90.1725	120.85	90.093	120.85	90.2382	120.85	90.24	120.85	90.3005	120.85	90.4057	120.85	90.3624	120.85	90.5799	120.85	90.428	120.85	90.7523	120.85	90.5015	120.85	90.9138	120.85	90.5859	120.85	91.0573	120.85	90.682	120.85	91.1773	120.85	90.7883	120.85	91.2703	120.85	90.9007	120.85	91.3339	120.85	91.0138	120.85	91.3672	120.85	91.1208	120.85	91.3703	120.85	91.2154	120.85	91.3443	120.85	91.2915
125.244	89.8063	125.244	89.8571	125.244	89.7795	125.244	89.9233	125.244	89.7841	125.244	89.9966	125.244	89.8252	125.244	90.0702	125.244	89.9044	125.244	90.1398	125.244	90.0192	125.244	90.2037	125.244	90.1635	125.244	90.2631	125.244	90.3283	125.244	90.3218	125.244	90.5033	125.244	90.3843	125.244	90.6779	125.244	90.4556	125.244	90.8428	125.244	90.5389	125.244	90.9905	125.244	90.6353	125.244	91.1152	125.244	90.7428	125.244	91.2129	125.244	90.857	125.244	91.2812	125.244	90.9718	125.244	91.3188	125.244	91.0803	125.244	91.3254	125.244	91.1753	125.244	91.3021	125.244	91.2509
129.639	89.7071	129.639	89.7684	129.639	89.6676	129.639	89.8423	129.639	89.6585	129.639	89.9201	129.639	89.6857	129.639	89.9949	129.639	89.7519	129.639	90.062	129.639	89.8554	129.639	90.1204	129.639	89.9906	129.639	90.1715	129.639	90.1486	129.639	90.2198	129.639	90.319	129.639	90.2709	129.639	90.4909	129.639	90.3304	129.639	90.6545	129.639	90.4025	129.639	90.8018	129.639	90.4888	129.639	90.9267	129.639	90.5877	129.639	91.0252	129.639	90.6949	129.639	91.0947	129.639	90.804	129.639	91.1337	129.639	90.9079	129.639	91.1421	129.639	90.9993	129.639	91.1207	129.639	91.072
134.033	89.5624	134.033	89.6567	134.033	89.4883	134.033	89.7607	134.033	89.4446	134.033	89.8645	134.033	89.4391	134.033	89.9606	134.033	89.4765	134.033	90.0442	134.033	89.5565	134.033	90.1139	134.033	89.6747	134.033	90.1716	134.033	89.8225	134.033	90.2218	134.033	89.9892	134.033	90.2707	134.033	90.1637	134.033	90.3246	134.033	90.3355	134.033	90.388	134.033	90.4959	134.033	90.4631	134.033	90.6383	134.033	90.5485	134.033	90.7577	134.033	90.6401	134.033	90.8509	134.033	90.7314	134.033	90.9155	134.033	90.8152	134.033	90.9505	134.033	90.8843	134.033	90.9558	134.033	90.9327
138.428	89.2828	138.428	89.3858	138.428	89.1999	138.428	89.4975	138.428	89.1477	138.428	89.6079	138.428	89.1352	138.428	89.709	138.428	89.1674	138.428	89.7959	138.428	89.2449	138.428	89.8672	138.428	89.363	138.428	89.9249	138.428	89.5133	138.428	89.9739	138.428	89.6851	138.428	90.021	138.428	89.8666	138.428	90.0734	138.428	90.0473	138.428	90.1365	138.428	90.2181	138.428	90.2129	138.428	90.3717	138.428	90.3017	138.428	90.5026	138.428	90.3982	138.428	90.6066	138.428	90.4954	138.428	90.6805	138.428	90.5849	138.428	90.7223	138.428	90.6585	138.428	90.7314	138.428	90.7091
143.555	89.0549	143.555	89.1246	143.555	89.0021	143.555	89.2004	143.555	88.9764	143.555	89.2731	143.555	88.9864	143.555	89.3354	143.555	89.0367	143.555	89.3833	143.555	89.1277	143.555	89.4168	143.555	89.2548	143.555	89.4391	143.555	89.4097	143.555	89.4572	143.555	89.5813	143.555	89.4798	143.555	89.7584	143.555	89.5162	143.555	89.9304	143.555	89.5739	143.555	90.0881	143.555	89.6563	143.555	90.2244	143.555	89.7625	143.555	90.3335	143.555	89.8867	143.555	90.411	143.555	90.0197	143.555	90.4537	143.555	90.1506	143.555	90.4597	143.555	90.2684	143.555	90.429	143.555	90.3636
148.682	88.9791	148.682	89.0518	148.682	88.9174	148.682	89.1241	148.682	88.8781	148.682	89.1863	148.682	88.8712	148.682	89.2313	148.682	88.9031	148.682	89.256	148.682	88.9756	148.682	89.2613	148.682	89.0853	148.682	89.2524	148.682	89.2244	148.682	89.2384	148.682	89.3823	148.682	89.2306	148.682	89.5476	148.682	89.2404	148.682	89.7092	148.682	89.2772	148.682	89.8576	148.682	89.3455	148.682	89.9851	148.682	89.4441	148.682	90.0856	148.682	89.5665	148.682	90.1544	148.682	89.7023	148.682	90.1882	148.682	89.8393	148.682	90.185	148.682	89.9652	148.682	90.1447	148.682	90.0697
153.809	88.9834	153.809	89.0745	153.809	88.8989	153.809	89.1602	153.809	88.8337	153.809	89.2302	153.809	88.7987	153.809	89.277	153.809	88.8018	153.809	89.2974	153.809	88.8458	153.809	89.2926	153.809	88.9283	153.809	89.2682	153.809	89.0425	153.809	89.2342	153.809	89.1784	153.809	89.2032	153.809	89.3251	153.809	89.1884	153.809	89.4722	153.809	89.2002	153.809	89.6104	153.809	89.2447	153.809	89.7324	153.809	89.3212	153.809	89.8318	153.809	89.4235	153.809	89.9038	153.809	89.5409	153.809	89.9444	153.809	89.6609	153.809	89.9508	153.809	89.7711	153.809	89.9224	153.809	89.8609
159.668	89.2187	159.668	89.291	159.668	89.1485	159.668	89.3534	159.668	89.093	159.668	89.3956	159.668	89.063	159.668	89.4106	159.668	89.0663	159.668	89.3957	159.668	89.1057	159.668	89.3531	159.668	89.1788	159.668	89.29	159.668	89.2788	159.668	89.2185	159.668	89.3961	159.668	89.1537	159.668	89.5207	159.668	89.111	159.668	89.6428	159.668	89.1031	159.668	89.7545	159.668	89.1367	159.668	89.8493	159.668	89.2114	159.668	89.9219	159.668	89.3198	159.668	89.9677	159.668	89.4496	159.668	89.9828	159.668	89.5865	159.668	89.9647	159.668	89.7166	159.668	89.9126	159.668	89.8282
164.795	89.6369	164.795	89.742	164.795	89.5264	164.795	89.8287	164.795	89.4241	164.795	89.8864	164.795	89.3428	164.795	89.9076	164.795	89.2919	164.795	89.8893	164.795	89.2764	164.795	89.8337	164.795	89.2958	164.795	89.7482	164.795	89.3452	164.795	89.6449	164.795	89.4164	164.795	89.5397	164.795	89.5002	164.795	89.4492	164.795	89.5879	164.795	89.3878	164.795	89.6722	164.795	89.3644	164.795	89.747	164.795	89.381	164.795	89.8071	164.795	89.4327	164.795	89.8481	164.795	89.5096	164.795	89.8662	164.795	89.5991	164.795	89.8587	164.795	89.6884	164.795	89.8248	164.795	89.7664
170.654	89.7996	170.654	89.8573	170.654	89.7346	170.654	89.8959	170.654	89.6748	170.654	89.9054	170.654	89.6313	170.654	89.8793	170.654	89.6127	170.654	89.8147	170.654	89.6224	170.654	89.7142	170.654	89.6588	170.654	89.5858	170.654	89.7158	170.654	89.443	170.654	89.7847	170.654	89.3038	170.654	89.8563	170.654	89.1877	170.654	89.9227	170.654	89.1125	170.654	89.9776	170.654	89.0897	170.654	90.0163	170.654	89.1223	170.654	90.0352	170.654	89.2043	170.654	90.0309	170.654	89.3231	170.654	90.0005	170.654	89.4625	170.654	89.9416	170.654	89.6062	170.654	89.854	170.654	89.7401
176.514	89.4415	176.514	89.5059	176.514	89.3646	176.514	89.5449	176.514	89.2891	176.514	89.5478	176.514	89.2278	176.514	89.5069	176.514	89.1908	176.514	89.4192	176.514	89.1835	176.514	89.2875	176.514	89.2056	176.514	89.1213	176.514	89.2516	176.514	88.9367	176.514	89.3125	176.514	88.7555	176.514	89.3784	176.514	88.6015	176.514	89.44	176.514	88.4965	176.514	89.49	176.514	88.4546	176.514	89.5229	176.514	88.4798	176.514	89.5342	176.514	88.5649	176.514	89.5203	176.514	88.6951	176.514	89.4779	176.514	88.8512	176.514	89.4048	176.514	89.0142	176.514	89.3005	176.514	89.1679
183.105	89.0252	183.105	89.1261	183.105	88.9106	183.105	89.1983	183.105	88.798	183.105	89.2295	183.105	88.7026	183.105	89.211	183.105	88.6365	183.105	89.1389	183.105	88.606	183.105	89.0156	183.105	88.611	183.105	88.8507	183.105	88.6456	183.105	88.6612	183.105	88.6997	183.105	88.4699	183.105	88.7628	183.105	88.3023	183.105	88.8254	183.105	88.1813	183.105	88.8804	183.105	88.1221	183.105	88.9225	183.105	88.1287	183.105	88.9476	183.105	88.1939	183.105	88.9519	183.105	88.3023	183.105	88.9315	183.105	88.4348	183.105	88.8831	183.105	88.5726	183.105	88.8053	183.105	88.6998
189.697	89.3794	189.697	89.4635	189.697	89.2746	189.697	89.5121	189.697	89.1648	189.697	89.5128	189.697	89.0645	189.697	89.4564	189.697	88.9848	189.697	89.3387	189.697	88.9309	189.697	89.1614	189.697	88.9011	189.697	88.9335	189.697	88.8878	189.697	88.6721	189.697	88.8811	189.697	88.401	189.697	88.8713	189.697	88.1483	189.697	88.8513	189.697	87.9413	189.697	88.8176	189.697	87.8002	189.697	88.7692	189.697	87.7343	189.697	88.7067	189.697	87.7406	189.697	88.6302	189.697	87.8064	189.697	88.5393	189.697	87.9137	189.697	88.4335	189.697	88.0439	189.697	88.3131	189.697	88.1809
196.289	89.6258	196.289	89.6735	196.289	89.5565	196.289	89.6849	196.289	89.4807	196.289	89.6477	196.289	89.4125	196.289	89.5531	196.289	89.3624	196.289	89.3969	196.289	89.3349	196.289	89.1818	196.289	89.3275	196.289	88.9189	196.289	89.332	196.289	88.628	196.289	89.3379	196.289	88.3373	196.289	89.3355	196.289	88.0796	196.289	89.3182	196.289	87.8856	196.289	89.2832	196.289	87.7771	196.289	89.2304	196.289	87.7614	196.289	89.1604	196.289	87.8301	196.289	89.0733	196.289	87.9639	196.289	88.9672	196.289	88.138	196.289	88.8398	196.289	88.3286	196.289	88.6891	196.289	88.5166
202.881	89.8065	202.881	89.8221	202.881	89.7666	202.881	89.7984	202.881	89.7177	202.881	89.7223	202.881	89.6735	202.881	89.5838	202.881	89.6436	202.881	89.3787	202.881	89.6319	202.881	89.1101	202.881	89.6354	202.881	88.7909	202.881	89.6457	202.881	88.4448	202.881	89.6519	202.881	88.1048	202.881	89.6442	202.881	87.8096	202.881	89.6158	202.881	87.5953	202.881	89.564	202.881	87.4872	202.881	89.4885	202.881	87.4925	202.881	89.3901	202.881	87.6004	202.881	89.2688	202.881	87.7863	202.881	89.1229	202.881	88.0198	202.881	88.9501	202.881	88.2721	202.881	88.7485	202.881	88.52
210.205	89.4476	210.205	89.5426	210.205	89.3191	210.205	89.5872	210.205	89.1746	210.205	89.5662	210.205	89.0312	210.205	89.4673	210.205	88.9033	210.205	89.2831	210.205	88.7993	210.205	89.0134	210.205	88.7202	210.205	88.6681	210.205	88.6592	210.205	88.2687	210.205	88.6056	210.205	87.8481	210.205	88.5483	210.205	87.4478	210.205	88.479	210.205	87.1105	210.205	88.394	210.205	86.871	210.205	88.2928	210.205	86.7474	210.205	88.1769	210.205	86.738	210.205	88.047	210.205	86.824	210.205	87.9022	210.205	86.9767	210.205	87.7406	210.205	87.166	210.205	87.5612	210.205	87.3666
217.529	89.5184	217.529	89.6149	217.529	89.3998	217.529	89.6694	217.529	89.2789	217.529	89.6629	217.529	89.1732	217.529	89.5795	217.529	89.0951	217.529	89.4078	217.529	89.049	217.529	89.1447	217.529	89.0301	217.529	88.7969	217.529	89.0254	217.529	88.3843	217.529	89.0183	217.529	87.9395	217.529	88.9928	217.529	87.5054	217.529	88.9374	217.529	87.1284	217.529	88.846	217.529	86.8486	217.529	88.718	217.529	86.6905	217.529	88.5559	217.529	86.6586	217.529	88.3638	217.529	86.7393	217.529	88.1456	217.529	86.907	217.529	87.9057	217.529	87.1319	217.529	87.6496	217.529	87.3867
225.586	89.7898	225.586	89.9318	225.586	89.611	225.586	90.0165	225.586	89.4165	225.586	90.0253	225.586	89.2267	225.586	89.9426	225.586	89.0583	225.586	89.7573	225.586	88.9203	225.586	89.4664	225.586	88.8116	225.586	89.0773	225.586	88.7217	225.586	88.6107	225.586	88.6353	225.586	88.1017	225.586	88.5378	225.586	87.5971	225.586	88.4199	225.586	87.1484	225.586	88.2787	225.586	86.8005	225.586	88.1176	225.586	86.5807	225.586	87.9425	225.586	86.4929	225.586	87.7593	225.586	86.52	225.586	87.5714	225.586	86.632	225.586	87.3795	225.586	86.7965	225.586	87.1837	225.586	86.9864
232.91	89.6533	232.91	89.7852	232.91	89.4881	232.91	89.8624	232.91	89.3112	232.91	89.8654	232.91	89.1426	232.91	89.7773	232.91	88.997	232.91	89.5849	232.91	88.8792	232.91	89.282	232.91	88.7822	232.91	88.8713	232.91	88.6897	232.91	88.3678	232.91	88.581	232.91	87.8005	232.91	88.438	232.91	87.2115	232.91	88.2494	232.91	86.651	232.91	88.0125	232.91	86.1687	232.91	87.7324	232.91	85.803	232.91	87.42	232.91	85.5741	232.91	87.0889	232.91	85.4827	232.91	86.7532	232.91	85.5144	232.91	86.4266	232.91	85.6471	232.91	86.1228	232.91	85.857
241.699	89.6536	241.699	89.6879	241.699	89.5706	241.699	89.6552	241.699	89.4578	241.699	89.5377	241.699	89.3337	241.699	89.319	241.699	89.2131	241.699	88.9866	241.699	89.1039	241.699	88.5351	241.699	89.0035	241.699	87.9715	241.699	88.9005	241.699	87.3202	241.699	88.7791	241.699	86.6267	241.699	88.6254	241.699	85.9571	241.699	88.4324	241.699	85.3888	241.699	88.2011	241.699	84.9911	241.699	87.9388	241.699	84.8033	241.699	87.655	241.699	84.8223	241.699	87.3574	241.699	85.0087	241.699	87.0485	241.699	85.3059	241.699	86.7259	241.699	85.659	241.699	86.3856	241.699	86.0269
249.756	89.332	249.756	89.4046	249.756	89.2389	249.756	89.4335	249.756	89.1472	249.756	89.3952	249.756	89.0748	249.756	89.2683	249.756	89.0328	249.756	89.0355	249.756	89.0212	249.756	88.6884	249.756	89.0279	249.756	88.2311	249.756	89.0313	249.756	87.6847	249.756	89.0068	249.756	87.0889	249.756	88.9335	249.756	86.5	249.756	88.7989	249.756	85.9811	249.756	88.6003	249.756	85.5882	249.756	88.3432	249.756	85.3564	249.756	88.0389	249.756	85.2933	249.756	87.7003	249.756	85.382	249.756	87.3395	249.756	85.5905	249.756	86.9666	249.756	85.8821	249.756	86.5909	249.756	86.2239
258.545	90.6431	258.545	90.7074	258.545	90.5272	258.545	90.7026	258.545	90.3785	258.545	90.6121	258.545	90.2163	258.545	90.4209	258.545	90.0568	258.545	90.1172	258.545	89.9095	258.545	89.6956	258.545	89.773	258.545	89.1609	258.545	89.6358	258.545	88.5331	258.545	89.4809	258.545	87.8498	258.545	89.2921	258.545	87.1666	258.545	89.0592	258.545	86.5498	258.545	88.7805	258.545	86.0624	258.545	88.4624	258.545	85.7466	258.545	88.1163	258.545	85.6134	258.545	87.7556	258.545	85.6443	258.545	87.3913	258.545	85.8029	258.545	87.0316	258.545	86.0494	258.545	86.6821	258.545	86.3502
268.066	89.9391	268.066	89.9671	268.066	89.8802	268.066	89.9417	268.066	89.8116	268.066	89.8397	268.066	89.7516	268.066	89.6395	268.066	89.7121	268.066	89.3234	268.066	89.6939	268.066	88.8825	268.066	89.6849	268.066	88.3223	268.066	89.6627	268.066	87.6674	268.066	89.6015	268.066	86.9656	268.066	89.4805	268.066	86.2865	268.066	89.289	268.066	85.7108	268.066	89.0285	268.066	85.311	268.066	88.7107	268.066	85.1282	268.066	88.3541	268.066	85.1593	268.066	87.9772	268.066	85.3624	268.066	87.594	268.066	85.6775	268.066	87.2105	268.066	86.0486	268.066	86.8259	268.066	86.4375
277.588	90.5143	277.588	90.6424	277.588	90.3429	277.588	90.7082	277.588	90.1452	277.588	90.6903	277.588	89.9353	277.588	90.5667	277.588	89.7231	277.588	90.3177	277.588	89.5108	277.588	89.93	277.588	89.2905	277.588	89.4014	277.588	89.0447	277.588	88.7448	277.588	88.7518	277.588	87.9922	277.588	88.3937	277.588	87.195	277.588	87.963	277.588	86.4197	277.588	87.4674	277.588	85.7358	277.588	86.9305	277.588	85.1984	277.588	86.3886	277.588	84.8319	277.588	85.8826	277.588	84.6276	277.588	85.4473	277.588	84.5543	277.588	85.1022	277.588	84.5779	277.588	84.8489	277.588	84.6772
287.109	90.3149	287.109	90.5324	287.109	90.0425	287.109	90.6613	287.109	89.7489	287.109	90.6691	287.109	89.4663	287.109	90.5248	287.109	89.2214	287.109	90.2025	287.109	89.0277	287.109	89.6845	287.109	88.8801	287.109	88.9673	287.109	88.7547	287.109	88.0685	287.109	88.6172	287.109	87.0359	287.109	88.4345	287.109	85.9546	287.109	88.1845	287.109	84.9459	287.109	87.8604	287.109	84.1452	287.109	87.4705	287.109	83.6559	287.109	87.034	287.109	83.5037	287.109	86.5741	287.109	83.6319	287.109	86.1108	287.109	83.9411	287.109	85.6556	287.109	84.34	287.109	85.2101	287.109	84.7708
297.363	89.6731	297.363	89.5862	297.363	89.7044	297.363	89.4487	297.363	89.6738	297.363	89.2637	297.363	89.5732	297.363	89.0318	297.363	89.3934	297.363	88.7505	297.363	89.1236	297.363	88.4132	297.363	88.7525	297.363	88.0103	297.363	88.2696	297.363	87.5327	297.363	87.6683	297.363	86.9781	297.363	86.9521	297.363	86.3612	297.363	86.1441	297.363	85.7251	297.363	85.3035	297.363	85.1466	297.363	84.5378	297.363	84.7186	297.363	83.9883	297.363	84.5009	297.363	83.7592	297.363	84.4721	297.363	83.834	297.363	84.5372	297.363	84.082	297.363	84.583	297.363	84.349	297.363	84.5288
307.617	89.9013	307.617	89.7888	307.617	89.9761	307.617	89.6365	307.617	90.0134	307.617	89.4402	307.617	90.0101	307.617	89.1936	307.617	89.9596	307.617	88.8888	307.617	89.8507	307.617	88.5165	307.617	89.668	307.617	88.0687	307.617	89.3921	307.617	87.542	307.617	89.0025	307.617	86.9439	307.617	88.4809	307.617	86.3	307.617	87.8177	307.617	85.6618	307.617	87.0233	307.617	85.1041	307.617	86.1443	307.617	84.7027	307.617	85.2817	307.617	84.492	307.617	84.5845	307.617	84.4358	307.617	84.1841	307.617	84.4457	307.617	84.0938	307.617	84.4307	307.617	84.1967	307.617	84.3415
318.604	89.3125	318.604	89.2556	318.604	89.338	318.604	89.163	318.604	89.3394	318.604	89.0326	318.604	89.3261	318.604	88.8623	318.604	89.3056	318.604	88.6473	318.604	89.2795	318.604	88.3781	318.604	89.2388	318.604	88.0394	318.604	89.1625	318.604	87.6134	318.604	89.0197	318.604	87.0859	318.604	88.7757	318.604	86.4568	318.604	88.3992	318.604	85.7553	318.604	87.8724	318.604	85.0539	318.604	87.2029	318.604	84.4652	318.604	86.4373	318.604	84.0952	318.604	85.6699	318.604	83.9701	318.604	85.023	318.604	84.0148	318.604	84.5853	318.604	84.1199	318.604	84.3488	318.604	84.2237
329.59	89.6102	329.59	89.5679	329.59	89.5543	329.59	89.4323	329.59	89.3976	329.59	89.2109	329.59	89.1413	329.59	88.9145	329.59	88.7929	329.59	88.5585	329.59	88.3696	329.59	88.1636	329.59	87.9014	329.59	87.7549	329.59	87.4318	329.59	87.357	329.59	87.0104	329.59	86.9878	329.59	86.6768	329.59	86.6532	329.59	86.4428	329.59	86.3492	329.59	86.2879	329.59	86.0709	329.59	86.1729	329.59	85.8224	329.59	86.062	329.59	85.6191	329.59	85.938	329.59	85.4798	329.59	85.8032	329.59	85.4135	329.59	85.6709	329.59	85.414	329.59	85.555	329.59	85.466
341.309	90.3831	341.309	90.2811	341.309	90.4138	341.309	90.108	341.309	90.3702	341.309	89.8614	341.309	90.2467	341.309	89.5361	341.309	90.0349	341.309	89.1262	341.309	89.7245	341.309	88.6278	341.309	89.3052	341.309	88.046	341.309	88.7701	341.309	87.4052	341.309	88.1229	341.309	86.7613	341.309	87.3899	341.309	86.207	341.309	86.6354	341.309	85.8514	341.309	85.9734	341.309	85.7633	341.309	85.5462	341.309	85.9212	341.309	85.449	341.309	86.2243	341.309	85.6543	341.309	86.5532	341.309	86.0309	341.309	86.814	341.309	86.431	341.309	86.9486	341.309	86.7492	341.309	86.9286
353.76	90.4612	353.76	90.3985	353.76	90.4684	353.76	90.2784	353.76	90.4201	353.76	90.0966	353.76	90.3143	353.76	89.8454	353.76	90.1468	353.76	89.5137	353.76	89.9096	353.76	89.0876	353.76	89.5905	353.76	88.553	353.76	89.1737	353.76	87.9019	353.76	88.6418	353.76	87.1423	353.76	87.9816	353.76	86.3155	353.76	87.1953	353.76	85.515	353.76	86.3196	353.76	84.8864	353.76	85.451	353.76	84.567	353.76	84.7545	353.76	84.5803	353.76	84.3997	353.76	84.805	353.76	84.4254	353.76	85.0646	353.76	84.6935	353.76	85.22	353.76	85.0018	353.76	85.2003
366.211	90.1918	366.211	90.0938	366.211	90.2274	366.211	89.9273	366.211	90.2053	366.211	89.6841	366.211	90.1286	366.211	89.3533	366.211	89.9978	366.211	88.9216	366.211	89.8096	366.211	88.3748	366.211	89.5551	366.211	87.7026	366.211	89.219	366.211	86.9072	366.211	88.7814	366.211	86.0204	366.211	88.2234	366.211	85.1285	366.211	87.537	366.211	84.3895	366.211	86.7416	366.211	83.9883	366.211	85.9066	366.211	84.0046	366.211	85.1665	366.211	84.3271	366.211	84.6888	366.211	84.7452	366.211	84.5657	366.211	85.0823	366.211	84.7269	366.211	85.2425	366.211	84.9948	366.211	85.201
378.662	89.9429	378.662	89.9143	378.662	89.922	378.662	89.8373	378.662	89.8488	378.662	89.7096	378.662	89.7193	378.662	89.5232	378.662	89.5284	378.662	89.2639	378.662	89.2694	378.662	88.9117	378.662	88.9336	378.662	88.4436	378.662	88.5112	378.662	87.8405	378.662	87.9952	378.662	87.0989	378.662	87.3879	378.662	86.2509	378.662	86.7127	378.662	85.3909	378.662	86.0282	378.662	84.6896	378.662	85.4355	378.662	84.3341	378.662	85.053	378.662	84.3848	378.662	84.9472	378.662	84.7109	378.662	85.0733	378.662	85.1045	378.662	85.3003	378.662	85.4064	378.662	85.4879	378.662	85.538
392.578	89.4768	392.578	89.413	392.578	89.5035	392.578	89.3076	392.578	89.498	392.578	89.1544	392.578	89.4653	392.578	88.9431	392.578	89.4075	392.578	88.6567	392.578	89.32	392.578	88.2718	392.578	89.1876	392.578	87.7615	392.578	88.9835	392.578	87.1034	392.578	88.6727	392.578	86.2944	392.578	88.2189	392.578	85.3766	392.578	87.5949	392.578	84.4729	392.578	86.7987	392.578	83.7939	392.578	85.8797	392.578	83.5318	392.578	84.9683	392.578	83.6804	392.578	84.2724	392.578	84.0321	392.578	83.9663	392.578	84.3581	392.578	84.0319	392.578	84.5208	392.578	84.273	392.578	84.4789
405.762	89.12	405.762	89.1509	405.762	89.017	405.762	89.1209	405.762	88.8348	405.762	89.0411	405.762	88.5729	405.762	88.9153	405.762	88.2374	405.762	88.734	405.762	87.8395	405.762	88.4695	405.762	87.3932	405.762	88.0773	405.762	86.9111	405.762	87.5036	405.762	86.4042	405.762	86.699	405.762	85.8856	405.762	85.6451	405.762	85.3818	405.762	84.4119	405.762	84.9446	405.762	83.258	405.762	84.6489	405.762	82.6464	405.762	84.5613	405.762	82.8537	405.762	84.6865	405.762	83.5915	405.762	84.9466	405.762	84.3924	405.762	85.2152	405.762	84.9929	405.762	85.369	405.762	85.3144
420.41	89.595	420.41	89.4144	420.41	89.732	420.41	89.2011	420.41	89.8176	420.41	88.9677	420.41	89.8453	420.41	88.7238	420.41	89.8067	420.41	88.47	420.41	89.688	420.41	88.1916	420.41	89.4662	420.41	87.8587	420.41	89.1076	420.41	87.4327	420.41	88.5678	420.41	86.8802	420.41	87.7942	420.41	86.1907	420.41	86.7339	420.41	85.4021	420.41	85.3566	420.41	84.6274	420.41	83.7212	420.41	84.0466	420.41	82.1356	420.41	83.8048	420.41	81.2662	420.41	83.8692	420.41	81.5258	420.41	84.038	420.41	82.4173	420.41	84.0868	420.41	83.2899	420.41	83.8607
435.059	89.7177	435.059	89.6613	435.059	89.7147	435.059	89.5379	435.059	89.6659	435.059	89.3439	435.059	89.5896	435.059	89.0751	435.059	89.5031	435.059	88.7217	435.059	89.4133	435.059	88.2636	435.059	89.308	435.059	87.6688	435.059	89.1536	435.059	86.897	435.059	88.9003	435.059	85.9129	435.059	88.4926	435.059	84.7183	435.059	87.8817	435.059	83.4212	435.059	87.0403	435.059	82.3306	435.059	85.9876	435.059	81.8809	435.059	84.8346	435.059	82.1746	435.059	83.8273	435.059	82.8226	435.059	83.2678	435.059	83.4059	435.059	83.2397	435.059	83.7204	435.059	83.499	435.059	83.7265
450.439	88.9414	450.439	88.9518	450.439	88.8588	450.439	88.9054	450.439	88.7022	450.439	88.8227	450.439	88.4866	450.439	88.7181	450.439	88.2437	450.439	88.5865	450.439	88.0137	450.439	88.3964	450.439	87.8278	450.439	88.0928	450.439	87.6867	450.439	87.6105	450.439	87.5509	450.439	86.895	450.439	87.3525	450.439	85.9322	450.439	87.0234	450.439	84.8056	450.439	86.5274	450.439	83.7773	450.439	85.8927	450.439	83.2585	450.439	85.2415	450.439	83.4435	450.439	84.7753	450.439	84.0522	450.439	84.6498	450.439	84.6777	450.439	84.8202	450.439	85.0856	450.439	85.076	450.439	85.2066
466.553	89.0727	466.553	88.8818	466.553	89.1676	466.553	88.627	466.553	89.1508	466.553	88.3571	466.553	89.0207	466.553	88.128	466.553	88.7874	466.553	87.9788	466.553	88.4685	466.553	87.9019	466.553	88.0823	466.553	87.8306	466.553	87.635	466.553	87.6559	466.553	87.1081	466.553	87.2593	466.553	86.4552	466.553	86.5398	466.553	85.6161	466.553	85.4455	466.553	84.5538	466.553	84.0469	466.553	83.3337	466.553	82.7033	466.553	82.2544	466.553	82.0967	466.553	81.8361	466.553	82.4948	466.553	82.2724	466.553	83.3053	466.553	83.1044	466.553	83.9238	466.553	83.8032	466.553	84.1035
482.666	89.5443	482.666	89.3857	482.666	89.5885	482.666	89.1095	482.666	89.5261	482.666	88.7177	482.666	89.3696	482.666	88.2179	482.666	89.1375	482.666	87.623	482.666	88.8527	482.666	86.9483	482.666	88.5374	482.666	86.2038	482.666	88.2024	482.666	85.3883	482.666	87.8353	482.666	84.4921	482.666	87.3943	482.666	83.5237	482.666	86.8152	482.666	82.5696	482.666	86.0319	482.666	81.8575	482.666	85.0112	482.666	81.6793	482.666	83.8188	482.666	82.0789	482.666	82.7193	482.666	82.7432	482.666	82.1584	482.666	83.3037	482.666	82.335	482.666	83.5417	482.666	82.8999	482.666	83.3861
500.244	89.1173	500.244	89.0255	500.244	89.1193	500.244	88.8655	500.244	89.0244	500.244	88.6701	500.244	88.8403	500.244	88.4747	500.244	88.5892	500.244	88.3004	500.244	88.302	500.244	88.1339	500.244	88.0052	500.244	87.9181	500.244	87.7012	500.244	87.5619	500.244	87.3549	500.244	86.9605	500.244	86.8978	500.244	86.0169	500.244	86.2508	500.244	84.6702	500.244	85.3604	500.244	82.9779	500.244	84.2536	500.244	81.3407	500.244	83.1288	500.244	80.6365	500.244	82.3928	500.244	81.2129	500.244	82.3555	500.244	82.2588	500.244	82.8055	500.244	83.063	500.244	83.2632	500.244	83.3967
517.822	88.9315	517.822	88.7278	517.822	88.9885	517.822	88.4018	517.822	88.893	517.822	88.0022	517.822	88.6559	517.822	87.602	517.822	88.306	517.822	87.2797	517.822	87.8918	517.822	87.0747	517.822	87.4734	517.822	86.9459	517.822	87.0957	517.822	86.7789	517.822	86.7539	517.822	86.4381	517.822	86.3798	517.822	85.8199	517.822	85.8721	517.822	84.9017	517.822	85.1521	517.822	83.817	517.822	84.2334	517.822	82.9426	517.822	83.3091	517.822	82.732	517.822	82.7687	517.822	83.1801	517.822	82.8872	517.822	83.8233	517.822	83.4557	517.822	84.2677	517.822	84.0382	517.822	84.3452
536.133	89.2173	536.133	89.0614	536.133	89.2465	536.133	88.7853	536.133	89.1539	536.133	88.4095	536.133	88.956	536.133	87.9706	536.133	88.6805	536.133	87.5189	536.133	88.3636	536.133	87.1017	536.133	88.0397	536.133	86.7303	536.133	87.7221	536.133	86.3486	536.133	87.3837	536.133	85.8375	536.133	86.951	536.133	85.0555	536.133	86.3159	536.133	83.8981	536.133	85.3578	536.133	82.3964	536.133	83.9757	536.133	80.9281	536.133	82.1736	536.133	80.2934	536.133	80.3381	536.133	80.7719	536.133	79.5271	536.133	81.6064	536.133	80.2056	536.133	82.112	536.133	81.3167	536.133	82.0269
554.443	88.6034	554.443	88.4651	554.443	88.5876	554.443	88.1998	554.443	88.4086	554.443	87.8529	554.443	88.0795	554.443	87.4863	554.443	87.6473	554.443	87.1592	554.443	87.2011	554.443	86.8906	554.443	86.8539	554.443	86.6275	554.443	86.6758	554.443	86.2546	554.443	86.6238	554.443	85.6337	554.443	86.5498	554.443	84.6472	554.443	86.2799	554.443	83.2512	554.443	85.6826	554.443	81.6208	554.443	84.7111	554.443	80.4257	554.443	83.4691	554.443	80.4844	554.443	82.3223	554.443	81.4587	554.443	81.8159	554.443	82.4355	554.443	82.0816	554.443	82.9825	554.443	82.6453	554.443	83.0257
574.219	89.4059	574.219	89.151	574.219	89.4671	574.219	88.7143	574.219	89.334	574.219	88.1319	574.219	89.0145	574.219	87.4846	574.219	88.5319	574.219	86.9077	574.219	87.9381	574.219	86.5439	574.219	87.3244	574.219	86.4236	574.219	86.8005	574.219	86.3959	574.219	86.4218	574.219	86.2095	574.219	86.1141	574.219	85.6293	574.219	85.6891	574.219	84.4836	574.219	84.9304	574.219	82.7141	574.219	83.6684	574.219	80.6459	574.219	81.8785	574.219	79.5547	574.219	80.0215	574.219	80.3298	574.219	79.4117	574.219	81.651	574.219	80.4408	574.219	82.4532	574.219	81.7452	574.219	82.4836
594.727	89.0894	594.727	88.841	594.727	89.1216	594.727	88.3839	594.727	88.9354	594.727	87.7376	594.727	88.5356	594.727	86.9521	594.727	87.9445	594.727	86.1334	594.727	87.2188	594.727	85.4461	594.727	86.4685	594.727	85.0296	594.727	85.8434	594.727	84.8524	594.727	85.4488	594.727	84.6974	594.727	85.2367	594.727	84.3081	594.727	85.0152	594.727	83.5213	594.727	84.5689	594.727	82.371	594.727	83.7644	594.727	81.2771	594.727	82.6431	594.727	81.0179	594.727	81.5837	594.727	81.7394	594.727	81.2724	594.727	82.6856	594.727	81.8753	594.727	83.2627	594.727	82.7366	594.727	83.2745
615.234	89.148	615.234	88.8908	615.234	89.2018	615.234	88.4319	615.234	89.0477	615.234	87.7808	615.234	88.6794	615.234	86.9819	615.234	88.1012	615.234	86.1566	615.234	87.3515	615.234	85.513	615.234	86.5375	615.234	85.2227	615.234	85.8476	615.234	85.2161	615.234	85.4575	615.234	85.1982	615.234	85.3459	615.234	84.8551	615.234	85.2687	615.234	83.9595	615.234	84.9427	615.234	82.3908	615.234	84.1919	615.234	80.3096	615.234	83.0206	615.234	78.8012	615.234	81.7432	615.234	79.2935	615.234	81.0355	615.234	80.7471	615.234	81.2497	615.234	81.7966	615.234	81.8357	615.234	82.1286
637.207	90.0423	637.207	89.8083	637.207	90.053	637.207	89.3375	637.207	89.8422	637.207	88.6129	637.207	89.4022	637.207	87.6382	637.207	88.7271	637.207	86.4935	637.207	87.8436	637.207	85.4252	637.207	86.8671	637.207	84.8276	637.207	86.0575	637.207	84.8591	637.207	85.7114	637.207	85.1569	637.207	85.8241	637.207	85.2158	637.207	86.0217	637.207	84.7202	637.207	85.893	637.207	83.5753	637.207	85.182	637.207	82.0324	637.207	83.8216	637.207	81.053	637.207	82.1316	637.207	81.5585	637.207	81.2141	637.207	82.7518	637.207	81.8499	637.207	83.5766	637.207	82.9969	637.207	83.6667
659.912	90.501	659.912	90.3207	659.912	90.5189	659.912	89.9673	659.912	90.3778	659.912	89.4249	659.912	90.074	659.912	88.6818	659.912	89.5994	659.912	87.7565	659.912	88.9512	659.912	86.7423	659.912	88.1521	659.912	85.8272	659.912	87.2809	659.912	85.1849	659.912	86.4787	659.912	84.7578	659.912	85.8689	659.912	84.2436	659.912	85.4095	659.912	83.3107	659.912	84.8645	659.912	81.7755	659.912	83.949	659.912	79.8782	659.912	82.5126	659.912	78.9232	659.912	80.8551	659.912	79.9708	659.912	80.1493	659.912	81.6057	659.912	81.0242	659.912	82.6617	659.912	82.2458	659.912	82.873
683.35	91.1962	683.35	91.0725	683.35	91.1633	683.35	90.7698	683.35	90.9797	683.35	90.2558	683.35	90.6317	683.35	89.499	683.35	90.0891	683.35	88.4946	683.35	89.3212	683.35	87.3247	683.35	88.3413	683.35	86.248	683.35	87.2941	683.35	85.6416	683.35	86.5193	683.35	85.5739	683.35	86.3089	683.35	85.6	683.35	86.4575	683.35	85.1818	683.35	86.4207	683.35	83.9586	683.35	85.7522	683.35	81.8086	683.35	84.1883	683.35	79.5124	683.35	81.7562	683.35	79.6233	683.35	79.7785	683.35	81.5875	683.35	80.5784	683.35	83.0017	683.35	82.3664	683.35	83.2749
706.787	91.358	706.787	91.199	706.787	91.3558	706.787	90.8762	706.787	91.1901	706.787	90.3773	706.787	90.8553	706.787	89.6815	706.787	90.3389	706.787	88.7786	706.787	89.6222	706.787	87.7235	706.787	88.6977	706.787	86.707	706.787	87.6209	706.787	86.0085	706.787	86.5808	706.787	85.6953	706.787	85.8633	706.787	85.4556	706.787	85.5554	706.787	84.8772	706.787	85.3511	706.787	83.6991	706.787	84.8195	706.787	81.9277	706.787	83.6795	706.787	80.2358	706.787	81.9681	706.787	80.0896	706.787	80.5092	706.787	81.3133	706.787	80.6701	706.787	82.3613	706.787	81.8274	706.787	82.553
731.689	90.9972	731.689	90.8697	731.689	90.9856	731.689	90.5985	731.689	90.8396	731.689	90.1771	731.689	90.5571	731.689	89.5909	731.689	90.119	731.689	88.8208	731.689	89.4892	731.689	87.8723	731.689	88.6378	731.689	86.8369	731.689	87.5919	731.689	85.935	731.689	86.5027	731.689	85.3737	731.689	85.6369	731.689	85.0445	731.689	85.136	731.689	84.5519	731.689	84.7637	731.689	83.5542	731.689	84.0784	731.689	82.0118	731.689	82.7311	731.689	80.4928	731.689	80.681	731.689	80.1341	731.689	78.8779	731.689	80.9085	731.689	79.1883	731.689	81.6339	731.689	80.678	731.689	81.6191
758.057	91.1376	758.057	90.9548	758.057	91.1335	758.057	90.5733	758.057	90.9466	758.057	89.9717	758.057	90.5728	758.057	89.1183	758.057	89.9941	758.057	87.9909	758.057	89.1745	758.057	86.6525	758.057	88.0755	758.057	85.402	758.057	86.7329	758.057	84.7539	758.057	85.4242	758.057	84.798	758.057	84.7044	758.057	84.9184	758.057	84.7549	758.057	84.486	758.057	84.9594	758.057	83.1751	758.057	84.6397	758.057	81.0486	758.057	83.4439	758.057	79.3521	758.057	81.36	758.057	80.0204	758.057	79.3255	758.057	81.6189	758.057	79.4892	758.057	82.492	758.057	81.1366	758.057	82.3156
784.424	90.7331	784.424	90.6285	784.424	90.6834	784.424	90.3771	784.424	90.4795	784.424	89.9804	784.424	90.1335	784.424	89.4187	784.424	89.6593	784.424	88.6436	784.424	89.048	784.424	87.5951	784.424	88.2487	784.424	86.2717	784.424	87.1976	784.424	84.8768	784.424	85.9269	784.424	83.8897	784.424	84.7129	784.424	83.5345	784.424	83.9599	784.424	83.2269	784.424	83.5722	784.424	82.1624	784.424	82.8591	784.424	79.8889	784.424	81.1355	784.424	77.3857	784.424	78.1261	784.424	78.4131	784.424	76.1022	784.424	80.9753	784.424	78.5407	784.424	82.3836	784.424	81.1699	784.424	82.4398
812.256	90.4483	812.256	90.2279	812.256	90.4857	812.256	89.8244	812.256	90.3395	812.256	89.2284	812.256	90.0136	812.256	88.4126	812.256	89.5121	812.256	87.3333	812.256	88.8239	812.256	85.9772	812.256	87.9083	812.256	84.5193	812.256	86.7219	812.256	83.5142	812.256	85.3326	812.256	83.4229	812.256	84.1262	812.256	83.7288	812.256	83.6766	812.256	83.5831	812.256	83.8325	812.256	82.5297	812.256	83.7273	812.256	80.5619	812.256	82.697	812.256	78.8065	812.256	80.5571	812.256	79.4796	812.256	78.439	812.256	81.342	812.256	79.1641	812.256	82.4711	812.256	81.2301	812.256	82.4454
840.82	89.9598	840.82	89.873	840.82	89.8888	840.82	89.6469	840.82	89.6739	840.82	89.3078	840.82	89.3581	840.82	88.8533	840.82	88.9772	840.82	88.23	840.82	88.5065	840.82	87.3414	840.82	87.8446	840.82	86.0997	840.82	86.8655	840.82	84.5444	840.82	85.513	840.82	83.0226	840.82	83.9196	840.82	82.0405	840.82	82.4858	840.82	81.4248	840.82	81.5527	840.82	80.2849	840.82	80.7593	840.82	77.8236	840.82	79.2567	840.82	74.5063	840.82	76.4179	840.82	75.5521	840.82	74.3206	840.82	78.936	840.82	77.2625	840.82	80.8927	840.82	80.1438	840.82	81.3009
870.85	90.1644	870.85	89.9438	870.85	90.2082	870.85	89.5387	870.85	90.0826	870.85	88.9473	870.85	89.7948	870.85	88.1669	870.85	89.3597	870.85	87.1717	870.85	88.7952	870.85	85.9125	870.85	88.0954	870.85	84.4122	870.85	87.2211	870.85	82.9931	870.85	86.1698	870.85	82.2547	870.85	85.116	870.85	82.1566	870.85	84.4244	870.85	81.825	870.85	84.2104	870.85	80.5617	870.85	83.9884	870.85	78.313	870.85	83.0919	870.85	76.667	870.85	81.0218	870.85	77.8001	870.85	77.7778	870.85	79.6143	870.85	76.1892	870.85	80.475	870.85	78.2998	870.85	80.0722
901.611	90.6658	901.611	90.4033	901.611	90.7134	901.611	89.9806	901.611	90.5414	901.611	89.4747	901.611	90.2003	901.611	88.9328	901.611	89.769	901.611	88.3081	901.611	89.2909	901.611	87.4442	901.611	88.7167	901.611	86.1493	901.611	87.9121	901.611	84.3639	901.611	86.7391	901.611	82.4959	901.611	85.1946	901.611	81.4623	901.611	83.5925	901.611	81.1183	901.611	82.4427	901.611	79.9932	901.611	81.6125	901.611	76.5642	901.611	80.1733	901.611	69.3452	901.611	77.1366	901.611	74.2385	901.611	73.1793	901.611	79.2578	901.611	75.8962	901.611	81.2451	901.611	79.6566	901.611	81.3352
933.105	90.6496	933.105	90.4395	933.105	90.647	933.105	90.0229	933.105	90.4362	933.105	89.4166	933.105	90.0334	933.105	88.6336	933.105	89.4734	933.105	87.6533	933.105	88.8002	933.105	86.3928	933.105	88.0145	933.105	84.7205	933.105	87.0271	933.105	82.6292	933.105	85.713	933.105	80.7915	933.105	84.1071	933.105	80.4982	933.105	82.7243	933.105	81.0873	933.105	82.3005	933.105	80.877	933.105	82.3803	933.105	79.0999	933.105	81.7734	933.105	76.4345	933.105	79.8416	933.105	77.4569	933.105	77.2409	933.105	80.4121	933.105	77.5071	933.105	81.851	933.105	79.9995	933.105	81.6454
966.064	89.3113	966.064	88.8839	966.064	89.4272	966.064	88.2134	966.064	89.2042	966.064	87.4208	966.064	88.6722	966.064	86.6716	966.064	87.9509	966.064	86.0571	966.064	87.2404	966.064	85.4346	966.064	86.6704	966.064	84.4994	966.064	86.1171	966.064	83.1026	966.064	85.3207	966.064	81.7376	966.064	84.2638	966.064	81.5002	966.064	83.4537	966.064	82.0577	966.064	83.3138	966.064	81.9444	966.064	83.12	966.064	80.2426	966.064	81.7396	966.064	76.3633	966.064	78.0914	966.064	73.1416	966.064	69.1804	966.064	76.5113	966.064	68.8956	966.064	78.7513	966.064	76.2606	966.064	78.7034
999.756	91.5299	999.756	91.1445	999.756	91.6319	999.756	90.5186	999.756	91.4564	999.756	89.7386	999.756	91.04	999.756	88.8878	999.756	90.4291	999.756	87.965	999.756	89.669	999.756	86.8232	999.756	88.7758	999.756	85.1619	999.756	87.6457	999.756	82.5514	999.756	85.95	999.756	78.6774	999.756	83.1641	999.756	75.9542	999.756	79.4152	999.756	77.6709	999.756	79.1428	999.756	78.703	999.756	81.5172	999.756	77.7719	999.756	82.1451	999.756	76.931	999.756	80.5694	999.756	78.8044	999.756	76.7171	999.756	80.8832	999.756	74.2522	999.756	81.651	999.756	78.1432	999.756	80.8587
1,034.91	89.944	1,034.91	89.5742	1,034.91	89.9249	1,034.91	88.8076	1,034.91	89.5447	1,034.91	87.7293	1,034.91	88.843	1,034.91	86.6133	1,034.91	87.9197	1,034.91	85.8574	1,034.91	86.9903	1,034.91	85.5483	1,034.91	86.3004	1,034.91	85.206	1,034.91	85.8375	1,034.91	84.2115	1,034.91	85.2286	1,034.91	82.3753	1,034.91	84.0316	1,034.91	80.7229	1,034.91	82.1468	1,034.91	80.6179	1,034.91	80.4862	1,034.91	80.5413	1,034.91	80.2406	1,034.91	78.7391	1,034.91	80.0368	1,034.91	74.4152	1,034.91	77.8382	1,034.91	73.209	1,034.91	70.5689	1,034.91	78.2371	1,034.91	70.9853	1,034.91	80.9583	1,034.91	78.7631	1,034.91	81.2424
1,071.53	90.229	1,071.53	89.9205	1,071.53	90.3001	1,071.53	89.3737	1,071.53	90.0932	1,071.53	88.5532	1,071.53	89.5471	1,071.53	87.4438	1,071.53	88.6352	1,071.53	86.1536	1,071.53	87.4649	1,071.53	84.9306	1,071.53	86.3474	1,071.53	83.8505	1,071.53	85.5614	1,071.53	82.5429	1,071.53	84.9358	1,071.53	80.6252	1,071.53	84.0711	1,071.53	78.8217	1,071.53	82.9736	1,071.53	78.8622	1,071.53	82.3248	1,071.53	79.4249	1,071.53	82.5213	1,071.53	78.6206	1,071.53	82.7532	1,071.53	75.674	1,071.53	82.0252	1,071.53	68.9204	1,071.53	79.4696	1,071.53	59.451	1,071.53	73.3954	1,071.53	68.5619	1,071.53	44.3688	1,071.53	68.262
1,109.62	90.1002	1,109.62	89.6097	1,109.62	90.2179	1,109.62	88.747	1,109.62	89.9653	1,109.62	87.5537	1,109.62	89.3304	1,109.62	86.1606	1,109.62	88.3009	1,109.62	84.8412	1,109.62	86.933	1,109.62	83.9091	1,109.62	85.4784	1,109.62	83.2428	1,109.62	84.3427	1,109.62	82.2079	1,109.62	83.5911	1,109.62	80.4125	1,109.62	82.7874	1,109.62	78.6145	1,109.62	81.6771	1,109.62	78.4422	1,109.62	81.0005	1,109.62	78.7243	1,109.62	81.5389	1,109.62	76.9764	1,109.62	81.8884	1,109.62	69.2388	1,109.62	80.5195	1,109.62	68.914	1,109.62	76.2022	1,109.62	77.7338	1,109.62	67.0441	1,109.62	79.8907	1,109.62	74.287	1,109.62	78.8454
1,148.44	89.458	1,148.44	88.9881	1,148.44	89.6838	1,148.44	88.3569	1,148.44	89.6169	1,148.44	87.6402	1,148.44	89.2536	1,148.44	86.8946	1,148.44	88.5985	1,148.44	86.1893	1,148.44	87.677	1,148.44	85.5943	1,148.44	86.6913	1,148.44	85.0234	1,148.44	86.0509	1,148.44	84.1331	1,148.44	85.8253	1,148.44	82.4957	1,148.44	85.4644	1,148.44	79.8298	1,148.44	84.4722	1,148.44	76.5797	1,148.44	83.0314	1,148.44	74.9318	1,148.44	82.0448	1,148.44	74.2344	1,148.44	81.4233	1,148.44	70.9296	1,148.44	79.676	1,148.44	69.1995	1,148.44	75.2071	1,148.44	75.2643	1,148.44	64.3093	1,148.44	77.7544	1,148.44	72.0626	1,148.44	76.9187
1,189.45	90.6268	1,189.45	90.2346	1,189.45	90.7132	1,189.45	89.5723	1,189.45	90.4751	1,189.45	88.6593	1,189.45	89.918	1,189.45	87.4865	1,189.45	89.073	1,189.45	86.1115	1,189.45	88.0359	1,189.45	84.8015	1,189.45	87.0212	1,189.45	83.7873	1,189.45	86.2599	1,189.45	82.6575	1,189.45	85.6999	1,189.45	80.5854	1,189.45	84.9212	1,189.45	77.3787	1,189.45	83.4439	1,189.45	75.8648	1,189.45	81.2984	1,189.45	77.0551	1,189.45	79.9319	1,189.45	76.6846	1,189.45	80.1442	1,189.45	72.9108	1,189.45	79.6676	1,189.45	66.5245	1,189.45	76.5859	1,189.45	71.2999	1,189.45	70.4595	1,189.45	74.5499	1,189.45	72.3792	1,189.45	74.9819
1,231.2	90.6051	1,231.2	90.2249	1,231.2	90.767	1,231.2	89.5868	1,231.2	90.712	1,231.2	88.6524	1,231.2	90.3932	1,231.2	87.4005	1,231.2	89.7359	1,231.2	85.8793	1,231.2	88.6673	1,231.2	84.4025	1,231.2	87.2111	1,231.2	83.4492	1,231.2	85.6612	1,231.2	82.7952	1,231.2	84.5296	1,231.2	81.6357	1,231.2	83.77	1,231.2	79.846	1,231.2	82.5847	1,231.2	79.0555	1,231.2	80.8165	1,231.2	79.7095	1,231.2	80.2641	1,231.2	79.1353	1,231.2	81.2268	1,231.2	75.1782	1,231.2	81.0277	1,231.2	63.5736	1,231.2	77.7096	1,231.2	73.3657	1,231.2	66.5885	1,231.2	77.5398	1,231.2	73.2752	1,231.2	77.6766
1,274.41	91.1641	1,274.41	90.9623	1,274.41	91.0752	1,274.41	90.4935	1,274.41	90.6916	1,274.41	89.7707	1,274.41	90.0505	1,274.41	88.7515	1,274.41	89.2083	1,274.41	87.3192	1,274.41	88.1422	1,274.41	85.4629	1,274.41	86.7051	1,274.41	83.7517	1,274.41	84.8928	1,274.41	82.9074	1,274.41	83.3133	1,274.41	82.0544	1,274.41	82.5408	1,274.41	79.9613	1,274.41	81.8412	1,274.41	77.616	1,274.41	80.3978	1,274.41	78.4316	1,274.41	79.2994	1,274.41	79.4222	1,274.41	80.4846	1,274.41	77.734	1,274.41	81.1838	1,274.41	72.1486	1,274.41	79.4821	1,274.41	73.1166	1,274.41	75.4966	1,274.41	77.2587	1,274.41	74.8004	1,274.41	77.3531
1,319.82	90.6751	1,319.82	90.3156	1,319.82	90.7093	1,319.82	89.7244	1,319.82	90.3862	1,319.82	88.9761	1,319.82	89.7664	1,319.82	88.0537	1,319.82	88.9228	1,319.82	86.8679	1,319.82	87.8059	1,319.82	85.4136	1,319.82	86.351	1,319.82	83.9966	1,319.82	84.8508	1,319.82	83.012	1,319.82	83.8985	1,319.82	82.0242	1,319.82	83.4817	1,319.82	80.0597	1,319.82	82.7447	1,319.82	77.2909	1,319.82	81.0753	1,319.82	76.9029	1,319.82	79.297	1,319.82	77.7667	1,319.82	78.9965	1,319.82	76.4251	1,319.82	78.3204	1,319.82	73.318	1,319.82	74.7831	1,319.82	75.2844	1,319.82	68.4173	1,319.82	77.5751	1,319.82	73.0836	1,319.82	76.9068
1,365.97	89.9728	1,365.97	89.6398	1,365.97	89.9833	1,365.97	89.0308	1,365.97	89.6559	1,365.97	88.2106	1,365.97	88.9895	1,365.97	87.1942	1,365.97	88.0092	1,365.97	85.9053	1,365.97	86.7556	1,365.97	84.3046	1,365.97	85.2168	1,365.97	82.7379	1,365.97	83.3895	1,365.97	81.8524	1,365.97	81.6776	1,365.97	81.3394	1,365.97	80.8664	1,365.97	80.1778	1,365.97	80.3196	1,365.97	78.501	1,365.97	78.265	1,365.97	78.1078	1,365.97	75.0845	1,365.97	78.0088	1,365.97	76.4647	1,365.97	75.6885	1,365.97	77.8593	1,365.97	68.7116	1,365.97	76.1357	1,365.97	70.5585	1,365.97	71.0761	1,365.97	76.5644	1,365.97	73.5359	1,365.97	77.3177
1,414.31	89.4182	1,414.31	89.0458	1,414.31	89.426	1,414.31	88.2971	1,414.31	89.162	1,414.31	87.3561	1,414.31	88.6467	1,414.31	86.4231	1,414.31	87.8053	1,414.31	85.3914	1,414.31	86.5773	1,414.31	83.9532	1,414.31	85.0757	1,414.31	82.1232	1,414.31	83.5454	1,414.31	80.5377	1,414.31	82.0741	1,414.31	79.6476	1,414.31	80.8159	1,414.31	78.6041	1,414.31	80.0204	1,414.31	76.8272	1,414.31	78.828	1,414.31	76.6651	1,414.31	76.8152	1,414.31	77.0103	1,414.31	76.4994	1,414.31	74.3047	1,414.31	77.7525	1,414.31	67.8382	1,414.31	77.0059	1,414.31	70.2197	1,414.31	73.1908	1,414.31	74.115	1,414.31	72.7381	1,414.31	74.9894
1,464.11	89.6448	1,464.11	89.0815	1,464.11	89.8705	1,464.11	88.2361	1,464.11	89.6893	1,464.11	87.1761	1,464.11	89.0641	1,464.11	85.978	1,464.11	88.0511	1,464.11	84.6061	1,464.11	86.8003	1,464.11	82.8739	1,464.11	85.4584	1,464.11	80.7219	1,464.11	84.0294	1,464.11	79.0033	1,464.11	82.4942	1,464.11	78.8455	1,464.11	81.1712	1,464.11	78.3036	1,464.11	80.1763	1,464.11	75.9513	1,464.11	78.6245	1,464.11	74.9023	1,464.11	75.8197	1,464.11	75.9287	1,464.11	74.4107	1,464.11	74.7928	1,464.11	76.0588	1,464.11	69.9188	1,464.11	75.8679	1,464.11	72.4099	1,464.11	72.3452	1,464.11	77.2632	1,464.11	73.3465	1,464.11	77.3846
1,515.38	90.0325	1,515.38	89.6934	1,515.38	89.9992	1,515.38	89.015	1,515.38	89.5826	1,515.38	88.0394	1,515.38	88.9346	1,515.38	86.9033	1,515.38	88.1799	1,515.38	85.6975	1,515.38	87.1235	1,515.38	84.315	1,515.38	85.6282	1,515.38	82.5999	1,515.38	84.056	1,515.38	80.7159	1,515.38	82.6992	1,515.38	79.4596	1,515.38	81.3995	1,515.38	78.5453	1,515.38	80.3174	1,515.38	76.5431	1,515.38	78.985	1,515.38	74.832	1,515.38	76.5574	1,515.38	75.87	1,515.38	75.9758	1,515.38	75.719	1,515.38	76.7734	1,515.38	72.4776	1,515.38	74.3383	1,515.38	69.4133	1,515.38	68.8117	1,515.38	73.2919	1,515.38	71.7547	1,515.38	74.5272
1,568.85	89.7854	1,568.85	89.1948	1,568.85	89.8089	1,568.85	88.3079	1,568.85	89.2506	1,568.85	87.4062	1,568.85	88.3068	1,568.85	86.508	1,568.85	87.2033	1,568.85	85.4469	1,568.85	86.0949	1,568.85	84.1724	1,568.85	84.9645	1,568.85	82.6904	1,568.85	83.6639	1,568.85	80.8924	1,568.85	82.0728	1,568.85	79.2822	1,568.85	80.5379	1,568.85	78.6027	1,568.85	79.9728	1,568.85	77.4257	1,568.85	79.2014	1,568.85	76.1096	1,568.85	76.5918	1,568.85	77.1509	1,568.85	74.0953	1,568.85	76.2681	1,568.85	75.2989	1,568.85	71.6504	1,568.85	74.0996	1,568.85	71.0208	1,568.85	70.0897	1,568.85	75.4105	1,568.85	74.098	1,568.85	76.5095
1,624.51	89.1153	1,624.51	88.74	1,624.51	89.0512	1,624.51	87.8634	1,624.51	88.6891	1,624.51	86.7565	1,624.51	88.0208	1,624.51	85.8567	1,624.51	86.9318	1,624.51	84.9856	1,624.51	85.4021	1,624.51	83.5883	1,624.51	83.5882	1,624.51	81.8766	1,624.51	81.9252	1,624.51	80.5152	1,624.51	80.6809	1,624.51	79.5874	1,624.51	79.0714	1,624.51	79.0501	1,624.51	76.8776	1,624.51	78.1715	1,624.51	76.1533	1,624.51	76.3838	1,624.51	75.7271	1,624.51	75.7578	1,624.51	73.627	1,624.51	75.6907	1,624.51	73.4024	1,624.51	72.4984	1,624.51	73.0105	1,624.51	70.7585	1,624.51	67.7027	1,624.51	74.8431	1,624.51	72.5857	1,624.51	75.625
1,681.64	89.2698	1,681.64	88.8428	1,681.64	89.0919	1,681.64	87.7394	1,681.64	88.6286	1,681.64	86.3848	1,681.64	87.9141	1,681.64	85.1151	1,681.64	86.8066	1,681.64	83.693	1,681.64	85.4099	1,681.64	81.8548	1,681.64	83.955	1,681.64	80.0061	1,681.64	82.4799	1,681.64	79.0871	1,681.64	80.954	1,681.64	79.0517	1,681.64	79.4377	1,681.64	78.4635	1,681.64	77.9758	1,681.64	76.2207	1,681.64	76.6251	1,681.64	74.5035	1,681.64	73.6554	1,681.64	74.6281	1,681.64	71.7098	1,681.64	72.499	1,681.64	73.2487	1,681.64	66.4437	1,681.64	72.0919	1,681.64	72.0039	1,681.64	63.1669	1,681.64	76.4383	1,681.64	69.9428	1,681.64	75.9111
1,740.97	89.701	1,740.97	88.9365	1,740.97	89.9125	1,740.97	87.9923	1,740.97	89.4166	1,740.97	86.9823	1,740.97	88.3907	1,740.97	85.5406	1,740.97	87.078	1,740.97	83.7149	1,740.97	85.6231	1,740.97	82.4539	1,740.97	84.1633	1,740.97	81.5686	1,740.97	82.5769	1,740.97	79.7796	1,740.97	81.1137	1,740.97	77.984	1,740.97	80.0579	1,740.97	77.8305	1,740.97	78.4366	1,740.97	76.6126	1,740.97	77.2078	1,740.97	74.404	1,740.97	75.8533	1,740.97	76.7247	1,740.97	72.3161	1,740.97	76.656	1,740.97	73.8728	1,740.97	69.328	1,740.97	76.2874	1,740.97	70.5669	1,740.97	74.0276	1,740.97	74.6844	1,740.97	70.1018	1,740.97	73.9137
1,802.49	90.227	1,802.49	89.6143	1,802.49	90.1913	1,802.49	88.6429	1,802.49	89.6269	1,802.49	87.6004	1,802.49	88.7004	1,802.49	86.2124	1,802.49	87.3979	1,802.49	84.1951	1,802.49	85.9281	1,802.49	82.4636	1,802.49	84.6659	1,802.49	82.0424	1,802.49	83.3451	1,802.49	81.2643	1,802.49	81.5137	1,802.49	78.4294	1,802.49	80.2338	1,802.49	75.7807	1,802.49	80.253	1,802.49	73.4239	1,802.49	79.5393	1,802.49	70.4259	1,802.49	77.2605	1,802.49	76.4906	1,802.49	73.6776	1,802.49	78.135	1,802.49	74.5386	1,802.49	72.1109	1,802.49	75.7737	1,802.49	72.6369	1,802.49	72.1004	1,802.49	77.897	1,802.49	67.3151	1,802.49	75.466
1,866.21	89.5914	1,866.21	89.1806	1,866.21	89.6201	1,866.21	88.4561	1,866.21	89.3034	1,866.21	87.5594	1,866.21	88.5407	1,866.21	86.4079	1,866.21	87.2447	1,866.21	84.8735	1,866.21	85.8193	1,866.21	83.4198	1,866.21	84.6639	1,866.21	82.4804	1,866.21	83.0935	1,866.21	81.4689	1,866.21	80.6864	1,866.21	79.5243	1,866.21	78.4196	1,866.21	77.0711	1,866.21	77.0911	1,866.21	75.7809	1,866.21	76.7789	1,866.21	72.3021	1,866.21	75.5916	1,866.21	71.7135	1,866.21	71.2608	1,866.21	74.3458	1,866.21	73.1821	1,866.21	72.0351	1,866.21	75.4146	1,866.21	71.3268	1,866.21	73.007	1,866.21	72.517	1,866.21	69.4853	1,866.21	72.1554
1,932.13	88.898	1,932.13	88.4431	1,932.13	88.7646	1,932.13	87.6576	1,932.13	88.1919	1,932.13	86.8044	1,932.13	87.5687	1,932.13	85.796	1,932.13	86.8629	1,932.13	84.4799	1,932.13	85.6728	1,932.13	82.7544	1,932.13	83.9137	1,932.13	80.8347	1,932.13	81.9659	1,932.13	79.646	1,932.13	80.4736	1,932.13	78.9982	1,932.13	79.3433	1,932.13	77.8578	1,932.13	77.6853	1,932.13	77.5471	1,932.13	75.6667	1,932.13	74.222	1,932.13	74.7824	1,932.13	69.1762	1,932.13	72.6471	1,932.13	72.8223	1,932.13	70.0437	1,932.13	69.9542	1,932.13	74.466	1,932.13	70.9463	1,932.13	74.4206	1,932.13	76.7725	1,932.13	70.6095	1,932.13	75.8303
2,000.24	89.7791	2,000.24	89.5543	2,000.24	89.477	2,000.24	88.4748	2,000.24	89.3294	2,000.24	87.1523	2,000.24	89.04	2,000.24	86.1055	2,000.24	88.0263	2,000.24	84.8366	2,000.24	86.6714	2,000.24	82.6953	2,000.24	85.5396	2,000.24	80.0683	2,000.24	83.9327	2,000.24	78.8998	2,000.24	81.0519	2,000.24	78.0654	2,000.24	78.2688	2,000.24	76.6135	2,000.24	77.4827	2,000.24	76.1998	2,000.24	76.2407	2,000.24	72.2108	2,000.24	76.6426	2,000.24	64.8096	2,000.24	75.0857	2,000.24	69.6815	2,000.24	71.7022	2,000.24	68.2941	2,000.24	74.6611	2,000.24	68.9758	2,000.24	74.9217	2,000.24	75.7452	2,000.24	69.6369	2,000.24	74.8385
2,070.56	90.2759	2,070.56	90.0225	2,070.56	90.0978	2,070.56	89.1782	2,070.56	89.9398	2,070.56	87.875	2,070.56	89.6994	2,070.56	86.5702	2,070.56	88.8425	2,070.56	85.3843	2,070.56	87.3437	2,070.56	83.4765	2,070.56	85.6314	2,070.56	80.9461	2,070.56	83.7431	2,070.56	80.1146	2,070.56	80.9819	2,070.56	80.3382	2,070.56	79.2455	2,070.56	78.0271	2,070.56	78.9779	2,070.56	75.599	2,070.56	76.9304	2,070.56	71.9486	2,070.56	75.8902	2,070.56	67.2793	2,070.56	74.7433	2,070.56	75.7384	2,070.56	73.79	2,070.56	75.9954	2,070.56	77.982	2,070.56	70.6632	2,070.56	77.4133	2,070.56	75.1487	2,070.56	75.012	2,070.56	76.297
2,143.8	89.4488	2,143.8	88.8763	2,143.8	89.4749	2,143.8	88.3826	2,143.8	88.7596	2,143.8	87.5595	2,143.8	88.2612	2,143.8	86.3277	2,143.8	87.8274	2,143.8	85.3337	2,143.8	86.4185	2,143.8	84.4035	2,143.8	84.2345	2,143.8	82.9664	2,143.8	82.5891	2,143.8	81.11	2,143.8	81.2704	2,143.8	79.5402	2,143.8	79.4655	2,143.8	78.5698	2,143.8	77.8205	2,143.8	77.2035	2,143.8	75.4681	2,143.8	75.3699	2,143.8	75.5076	2,143.8	71.208	2,143.8	75.7644	2,143.8	73.204	2,143.8	71.1693	2,143.8	74.3747	2,143.8	72.6038	2,143.8	69.4056	2,143.8	70.6459	2,143.8	77.2885	2,143.8	74.0207	2,143.8	78.4672
2,219.24	88.4811	2,219.24	88.0932	2,219.24	88.4077	2,219.24	87.2507	2,219.24	88.5293	2,219.24	86.7704	2,219.24	88.2916	2,219.24	85.9454	2,219.24	87.0861	2,219.24	84.4352	2,219.24	85.886	2,219.24	83.1287	2,219.24	84.8593	2,219.24	82.038	2,219.24	82.2999	2,219.24	80.3092	2,219.24	78.6607	2,219.24	78.1228	2,219.24	77.5348	2,219.24	76.479	2,219.24	77.4464	2,219.24	74.9497	2,219.24	75.0393	2,219.24	73.8088	2,219.24	71.7063	2,219.24	70.8263	2,219.24	73.3904	2,219.24	75.3098	2,219.24	73.6373	2,219.24	76.3932	2,219.24	75.18	2,219.24	72.8663	2,219.24	74.7532	2,219.24	74.9416	2,219.24	72.0004	2,219.24	75.4292
2,297.61	89.59	2,297.61	89.4317	2,297.61	89.48	2,297.61	88.7618	2,297.61	89.564	2,297.61	87.8398	2,297.61	89.3562	2,297.61	86.8484	2,297.61	88.1594	2,297.61	85.3137	2,297.61	86.8167	2,297.61	83.1839	2,297.61	85.8528	2,297.61	81.3761	2,297.61	84.1899	2,297.61	79.7986	2,297.61	81.7105	2,297.61	78.306	2,297.61	80.6866	2,297.61	76.4354	2,297.61	80.3932	2,297.61	72.6863	2,297.61	78.2528	2,297.61	74.4218	2,297.61	75.6201	2,297.61	71.4287	2,297.61	74.2119	2,297.61	73.2588	2,297.61	71.726	2,297.61	73.3436	2,297.61	70.8531	2,297.61	65.3661	2,297.61	73.5142	2,297.61	72.6223	2,297.61	71.3027	2,297.61	73.4416
2,378.17	89.3878	2,378.17	89.5024	2,378.17	89.4352	2,378.17	89.1624	2,378.17	89.7012	2,378.17	88.4122	2,378.17	89.2773	2,378.17	87.6151	2,378.17	87.7949	2,378.17	86.313	2,378.17	86.4774	2,378.17	84.5068	2,378.17	85.8448	2,378.17	82.904	2,378.17	84.1501	2,378.17	80.4352	2,378.17	81.7634	2,378.17	78.3873	2,378.17	80.873	2,378.17	75.886	2,378.17	79.3825	2,378.17	73.2278	2,378.17	77.5332	2,378.17	74.4743	2,378.17	74.4661	2,378.17	69.5219	2,378.17	72.9135	2,378.17	71.5729	2,378.17	72.6048	2,378.17	73.3497	2,378.17	72.7508	2,378.17	68.0173	2,378.17	73.268	2,378.17	74.5757	2,378.17	71.4618	2,378.17	75.8868
2,462.4	88.9341	2,462.4	88.7459	2,462.4	88.9344	2,462.4	88.4405	2,462.4	88.672	2,462.4	87.8465	2,462.4	88.1317	2,462.4	86.915	2,462.4	87.2813	2,462.4	85.7239	2,462.4	86.0582	2,462.4	84.1165	2,462.4	84.6387	2,462.4	82.3778	2,462.4	83.1274	2,462.4	80.5987	2,462.4	81.0332	2,462.4	78.2278	2,462.4	78.5484	2,462.4	77.5654	2,462.4	76.5973	2,462.4	75.6861	2,462.4	74.7177	2,462.4	74.7321	2,462.4	74.3354	2,462.4	73.0763	2,462.4	73.0441	2,462.4	71.7948	2,462.4	71.1976	2,462.4	74.5294	2,462.4	71.4387	2,462.4	69.5676	2,462.4	73.2804	2,462.4	73.2366	2,462.4	70.2246	2,462.4	75.0366
2,548.83	88.7119	2,548.83	88.5422	2,548.83	88.7758	2,548.83	88.0724	2,548.83	88.7963	2,548.83	87.4506	2,548.83	88.6621	2,548.83	86.3112	2,548.83	88.2081	2,548.83	84.8014	2,548.83	87.129	2,548.83	83.3679	2,548.83	85.5844	2,548.83	81.3727	2,548.83	83.9385	2,548.83	79.7042	2,548.83	81.8633	2,548.83	78.1183	2,548.83	80.1669	2,548.83	76.5652	2,548.83	78.3265	2,548.83	74.9933	2,548.83	76.4533	2,548.83	73.9712	2,548.83	74.9861	2,548.83	73.8737	2,548.83	74.7388	2,548.83	72.6646	2,548.83	72.4238	2,548.83	73.925	2,548.83	72.2142	2,548.83	71.5197	2,548.83	73.9428	2,548.83	74.8953	2,548.83	70.7742	2,548.83	74.4698
2,638.92	88.6182	2,638.92	88.6225	2,638.92	88.6275	2,638.92	88.6545	2,638.92	88.809	2,638.92	88.3852	2,638.92	88.8693	2,638.92	87.4781	2,638.92	88.6607	2,638.92	85.8454	2,638.92	87.9841	2,638.92	84.1129	2,638.92	86.3817	2,638.92	82.1153	2,638.92	84.7211	2,638.92	79.7706	2,638.92	83.0131	2,638.92	77.9141	2,638.92	80.564	2,638.92	75.842	2,638.92	78.7219	2,638.92	75.267	2,638.92	76.9029	2,638.92	73.1427	2,638.92	75.0146	2,638.92	72.2179	2,638.92	74.4058	2,638.92	71.6041	2,638.92	74.161	2,638.92	74.5243	2,638.92	71.6098	2,638.92	68.8388	2,638.92	74.8217	2,638.92	74.6745	2,638.92	71.3921	2,638.92	75.9102
2,731.93	88.0533	2,731.93	88.2522	2,731.93	88.2851	2,731.93	88.6517	2,731.93	88.4887	2,731.93	88.697	2,731.93	88.4774	2,731.93	88.2456	2,731.93	88.4132	2,731.93	86.8193	2,731.93	88.0609	2,731.93	84.8264	2,731.93	86.6083	2,731.93	82.9677	2,731.93	84.4535	2,731.93	80.9102	2,731.93	82.3305	2,731.93	79.1668	2,731.93	80.4862	2,731.93	77.1406	2,731.93	78.3802	2,731.93	74.7854	2,731.93	76.7211	2,731.93	73.2534	2,731.93	75.1564	2,731.93	73.4198	2,731.93	73.4049	2,731.93	71.8005	2,731.93	73.2982	2,731.93	75.0703	2,731.93	71.7935	2,731.93	71.4773	2,731.93	74.314	2,731.93	75.4343	2,731.93	70.1063	2,731.93	75.5136
2,828.61	88.2254	2,828.61	88.4791	2,828.61	88.3615	2,828.61	88.7141	2,828.61	88.8211	2,828.61	88.6818	2,828.61	89.024	2,828.61	88.043	2,828.61	88.8471	2,828.61	86.8157	2,828.61	88.2523	2,828.61	84.6791	2,828.61	87.0763	2,828.61	82.6887	2,828.61	85.0226	2,828.61	80.3372	2,828.61	83.0756	2,828.61	78.2319	2,828.61	80.6866	2,828.61	76.5426	2,828.61	78.541	2,828.61	75.771	2,828.61	76.8929	2,828.61	73.6613	2,828.61	75.7083	2,828.61	73.2193	2,828.61	73.5408	2,828.61	68.1037	2,828.61	74.153	2,828.61	75.1218	2,828.61	69.778	2,828.61	70.1689	2,828.61	75.1094	2,828.61	73.9444	2,828.61	71.1066	2,828.61	75.2552
2,928.22	87.8195	2,928.22	88.3798	2,928.22	87.7725	2,928.22	88.9614	2,928.22	88.3449	2,928.22	88.7977	2,928.22	88.8577	2,928.22	88.1189	2,928.22	88.4908	2,928.22	86.9847	2,928.22	87.5131	2,928.22	84.7425	2,928.22	86.0468	2,928.22	82.4175	2,928.22	84.1131	2,928.22	80.5126	2,928.22	81.6002	2,928.22	78.2282	2,928.22	79.5421	2,928.22	76.3539	2,928.22	77.9945	2,928.22	74.5062	2,928.22	75.384	2,928.22	72.8411	2,928.22	75.1366	2,928.22	72.6879	2,928.22	72.518	2,928.22	71.3633	2,928.22	72.7317	2,928.22	73.1791	2,928.22	69.0575	2,928.22	72.501	2,928.22	73.2123	2,928.22	74.2254	2,928.22	68.7388	2,928.22	74.5178
3,031.49	88.0927	3,031.49	88.6843	3,031.49	88.1284	3,031.49	89.0291	3,031.49	88.5202	3,031.49	88.8328	3,031.49	88.7925	3,031.49	87.5292	3,031.49	88.679	3,031.49	85.9261	3,031.49	87.3885	3,031.49	83.9813	3,031.49	85.617	3,031.49	81.6633	3,031.49	83.5624	3,031.49	79.9594	3,031.49	81.1897	3,031.49	78.0064	3,031.49	78.8459	3,031.49	75.6525	3,031.49	76.5865	3,031.49	74.5918	3,031.49	74.9905	3,031.49	73.8979	3,031.49	73.9426	3,031.49	72.5869	3,031.49	71.7918	3,031.49	67.7834	3,031.49	72.706	3,031.49	71.4111	3,031.49	70.1594	3,031.49	69.1923	3,031.49	72.3215	3,031.49	72.7192	3,031.49	69.6057	3,031.49	72.6668
3,138.43	89.0124	3,138.43	89.4344	3,138.43	89.0008	3,138.43	89.7181	3,138.43	89.337	3,138.43	89.4468	3,138.43	89.4667	3,138.43	88.2032	3,138.43	89.0864	3,138.43	86.3218	3,138.43	87.8194	3,138.43	84.0866	3,138.43	85.9501	3,138.43	81.6146	3,138.43	83.8212	3,138.43	79.2993	3,138.43	81.6294	3,138.43	77.161	3,138.43	79.136	3,138.43	75.0228	3,138.43	77.352	3,138.43	72.8863	3,138.43	75.1982	3,138.43	71.7011	3,138.43	73.2626	3,138.43	70.869	3,138.43	72.6381	3,138.43	71.5183	3,138.43	71.5291	3,138.43	73.1927	3,138.43	67.3077	3,138.43	69.7132	3,138.43	70.8402	3,138.43	72.2402	3,138.43	67.987	3,138.43	72.4753
3,249.02	88.9128	3,249.02	89.117	3,249.02	88.9807	3,249.02	89.3944	3,249.02	89.2806	3,249.02	88.8569	3,249.02	89.2801	3,249.02	87.7984	3,249.02	88.6674	3,249.02	85.9495	3,249.02	87.5471	3,249.02	83.762	3,249.02	85.3325	3,249.02	81.5796	3,249.02	83.2062	3,249.02	79.6516	3,249.02	81.0592	3,249.02	77.5567	3,249.02	78.9214	3,249.02	75.4086	3,249.02	76.7009	3,249.02	72.8816	3,249.02	74.3004	3,249.02	72.6593	3,249.02	72.6921	3,249.02	70.6278	3,249.02	71.869	3,249.02	69.3152	3,249.02	70.7217	3,249.02	69.7204	3,249.02	71.616	3,249.02	71.0631	3,249.02	72.3138	3,249.02	72.4811	3,249.02	70.5515	3,249.02	73.0731
3,363.28	88.5593	3,363.28	88.9154	3,363.28	88.6843	3,363.28	89.0365	3,363.28	89.0761	3,363.28	88.5578	3,363.28	89.2199	3,363.28	87.2961	3,363.28	88.5273	3,363.28	85.3073	3,363.28	87.0852	3,363.28	83.199	3,363.28	85.2691	3,363.28	81.1791	3,363.28	82.8745	3,363.28	79.0495	3,363.28	80.6821	3,363.28	77.0407	3,363.28	78.5663	3,363.28	75.2762	3,363.28	75.8321	3,363.28	73.3724	3,363.28	74.6813	3,363.28	71.8112	3,363.28	72.5716	3,363.28	69.976	3,363.28	70.3212	3,363.28	69.2095	3,363.28	69.4141	3,363.28	72.1806	3,363.28	67.4942	3,363.28	70.7056	3,363.28	70.2698	3,363.28	71.7085	3,363.28	69.3174	3,363.28	72.6493
3,481.93	88.9475	3,481.93	89.2615	3,481.93	89.048	3,481.93	89.2709	3,481.93	89.4432	3,481.93	88.6666	3,481.93	89.5514	3,481.93	87.4756	3,481.93	88.7882	3,481.93	85.7871	3,481.93	87.1392	3,481.93	83.6675	3,481.93	85.4865	3,481.93	81.672	3,481.93	83.3367	3,481.93	79.4567	3,481.93	81.3299	3,481.93	77.1801	3,481.93	79.2852	3,481.93	74.9592	3,481.93	77.4007	3,481.93	72.7511	3,481.93	75.9087	3,481.93	71.7395	3,481.93	73.5278	3,481.93	68.6551	3,481.93	71.942	3,481.93	69.6936	3,481.93	68.791	3,481.93	70.1899	3,481.93	65.9803	3,481.93	71.1859	3,481.93	69.8626	3,481.93	72.2353	3,481.93	69.541	3,481.93	72.7145
3,604.98	88.8863	3,604.98	89.1973	3,604.98	88.917	3,604.98	89.3357	3,604.98	89.272	3,604.98	88.7086	3,604.98	89.3016	3,604.98	87.4	3,604.98	88.4157	3,604.98	85.7379	3,604.98	86.7336	3,604.98	83.8086	3,604.98	84.9783	3,604.98	81.8656	3,604.98	83.154	3,604.98	80.2019	3,604.98	81.3149	3,604.98	78.354	3,604.98	79.1677	3,604.98	76.3985	3,604.98	77.4534	3,604.98	74.1564	3,604.98	75.1952	3,604.98	72.9487	3,604.98	73.3208	3,604.98	70.0366	3,604.98	71.7651	3,604.98	68.2749	3,604.98	70.833	3,604.98	67.9217	3,604.98	69.7587	3,604.98	72.0517	3,604.98	69.7351	3,604.98	71.803	3,604.98	70.5983	3,604.98	72.5613
3,732.42	89.07	3,732.42	89.1585	3,732.42	89.0841	3,732.42	89.0731	3,732.42	89.1803	3,732.42	88.4291	3,732.42	89.0527	3,732.42	87.3335	3,732.42	88.4168	3,732.42	85.685	3,732.42	87.1011	3,732.42	84.0649	3,732.42	85.4378	3,732.42	82.0953	3,732.42	84.08	3,732.42	80.1075	3,732.42	82.1455	3,732.42	78.2382	3,732.42	79.979	3,732.42	76.0331	3,732.42	77.6536	3,732.42	74.1501	3,732.42	75.5543	3,732.42	72.3056	3,732.42	74.4379	3,732.42	71.5987	3,732.42	72.5272	3,732.42	68.0363	3,732.42	71.7665	3,732.42	69.9881	3,732.42	70.4785	3,732.42	70.7949	3,732.42	67.5541	3,732.42	72.0618	3,732.42	70.9318	3,732.42	71.8865
3,863.53	89.5329	3,863.53	89.5385	3,863.53	89.5481	3,863.53	89.4072	3,863.53	89.6309	3,863.53	88.6936	3,863.53	89.4129	3,863.53	87.6481	3,863.53	88.6056	3,863.53	86.2517	3,863.53	87.5348	3,863.53	84.671	3,863.53	86.2699	3,863.53	82.7362	3,863.53	84.684	3,863.53	80.4042	3,863.53	82.7688	3,863.53	78.3127	3,863.53	80.3255	3,863.53	76.184	3,863.53	78.0881	3,863.53	74.5978	3,863.53	76.3268	3,863.53	71.4586	3,863.53	75.127	3,863.53	71.5458	3,863.53	72.7052	3,863.53	69.6238	3,863.53	71.052	3,863.53	69.2109	3,863.53	69.9261	3,863.53	71.4628	3,863.53	69.6175	3,863.53	70.8885	3,863.53	71.4443	3,863.53	71.3787
3,999.76	89.73	3,999.76	89.5671	3,999.76	89.6597	3,999.76	89.212	3,999.76	89.4913	3,999.76	88.6024	3,999.76	89.1191	3,999.76	87.7113	3,999.76	88.3987	3,999.76	86.5887	3,999.76	87.5256	3,999.76	84.9791	3,999.76	86.7268	3,999.76	83.0802	3,999.76	84.8962	3,999.76	80.8907	3,999.76	82.945	3,999.76	78.5579	3,999.76	80.4899	3,999.76	76.4867	3,999.76	78.3867	3,999.76	75.0588	3,999.76	76.4762	3,999.76	73.0699	3,999.76	74.6404	3,999.76	72.0562	3,999.76	72.3015	3,999.76	70.8849	3,999.76	71.2384	3,999.76	69.434	3,999.76	70.5488	3,999.76	72.471	3,999.76	69.4882	3,999.76	70.0638	3,999.76	72.6277	3,999.76	70.9997
4,141.11	89.9495	4,141.11	89.475	4,141.11	89.8292	4,141.11	88.9104	4,141.11	89.2827	4,141.11	88.4531	4,141.11	88.7324	4,141.11	88.0263	4,141.11	88.1695	4,141.11	87.108	4,141.11	87.5559	4,141.11	85.4748	4,141.11	86.7727	4,141.11	83.5295	4,141.11	85.0262	4,141.11	81.1774	4,141.11	82.888	4,141.11	78.6101	4,141.11	80.2442	4,141.11	76.4629	4,141.11	78.1976	4,141.11	74.5984	4,141.11	75.921	4,141.11	72.7367	4,141.11	74.217	4,141.11	71.0808	4,141.11	71.9836	4,141.11	69.8781	4,141.11	71.6866	4,141.11	69.6844	4,141.11	70.0509	4,141.11	72.7267	4,141.11	69.226	4,141.11	70.1966	4,141.11	72.5534	4,141.11	71.2704
4,286.87	90.5907	4,286.87	89.7119	4,286.87	90.5348	4,286.87	88.8589	4,286.87	89.6009	4,286.87	88.3953	4,286.87	88.8731	4,286.87	87.9584	4,286.87	88.3824	4,286.87	86.9119	4,286.87	87.8949	4,286.87	84.8873	4,286.87	86.9138	4,286.87	82.7471	4,286.87	85.0919	4,286.87	80.2693	4,286.87	82.7539	4,286.87	77.8711	4,286.87	80.1593	4,286.87	75.953	4,286.87	77.7969	4,286.87	74.2114	4,286.87	75.2968	4,286.87	71.923	4,286.87	73.4244	4,286.87	70.4509	4,286.87	71.2726	4,286.87	68.8631	4,286.87	70.7115	4,286.87	70.5329	4,286.87	68.5269	4,286.87	73.1462	4,286.87	69.0251	4,286.87	71.0505	4,286.87	72.8974	4,286.87	70.6845
4,438.48	90.3065	4,438.48	89.4385	4,438.48	90.1724	4,438.48	88.7484	4,438.48	89.1095	4,438.48	88.4297	4,438.48	88.1424	4,438.48	88.0314	4,438.48	87.6013	4,438.48	87.0717	4,438.48	87.0434	4,438.48	85.249	4,438.48	85.8403	4,438.48	82.9727	4,438.48	83.9432	4,438.48	80.4248	4,438.48	81.3741	4,438.48	77.3106	4,438.48	78.7117	4,438.48	75.0744	4,438.48	76.4253	4,438.48	72.6429	4,438.48	73.4176	4,438.48	70.5691	4,438.48	72.2487	4,438.48	68.4447	4,438.48	69.606	4,438.48	64.3479	4,438.48	68.223	4,438.48	67.9406	4,438.48	65.3397	4,438.48	72.2859	4,438.48	67.2348	4,438.48	69.6177	4,438.48	71.3239	4,438.48	70.1205
4,594.48	91.0096	4,594.48	89.9579	4,594.48	90.809	4,594.48	88.9978	4,594.48	89.5825	4,594.48	88.7084	4,594.48	88.6732	4,594.48	88.3903	4,594.48	88.3294	4,594.48	86.9357	4,594.48	87.9643	4,594.48	84.6601	4,594.48	86.5381	4,594.48	82.1172	4,594.48	84.615	4,594.48	79.3898	4,594.48	81.8645	4,594.48	77.0434	4,594.48	79.1984	4,594.48	75.2591	4,594.48	76.5756	4,594.48	73.4618	4,594.48	74.068	4,594.48	71.9168	4,594.48	72.4929	4,594.48	70.8679	4,594.48	70.4188	4,594.48	68.052	4,594.48	68.9041	4,594.48	67.8027	4,594.48	66.0708	4,594.48	72.7961	4,594.48	62.9298	4,594.48	68.7829	4,594.48	71.8701	4,594.48	67.4123
4,757.08	90.7349	4,757.08	89.4915	4,757.08	90.6024	4,757.08	88.5005	4,757.08	89.191	4,757.08	88.3975	4,757.08	88.3683	4,757.08	88.163	4,757.08	88.1573	4,757.08	86.9538	4,757.08	87.7783	4,757.08	84.8962	4,757.08	86.2243	4,757.08	82.6143	4,757.08	83.9835	4,757.08	80.316	4,757.08	81.1953	4,757.08	77.3038	4,757.08	78.5852	4,757.08	74.698	4,757.08	76.114	4,757.08	71.868	4,757.08	74.165	4,757.08	69.7599	4,757.08	71.7477	4,757.08	68.5874	4,757.08	69.7491	4,757.08	65.8608	4,757.08	68.8153	4,757.08	66.1631	4,757.08	64.9443	4,757.08	72.0846	4,757.08	63.3162	4,757.08	68.5492	4,757.08	71.8356	4,757.08	68.8082
4,924.8	90.8687	4,924.8	89.6413	4,924.8	90.6453	4,924.8	88.7057	4,924.8	89.1811	4,924.8	88.5959	4,924.8	88.3075	4,924.8	88.0614	4,924.8	88.2522	4,924.8	86.5426	4,924.8	87.6184	4,924.8	84.0042	4,924.8	86.1274	4,924.8	81.2383	4,924.8	83.972	4,924.8	78.5979	4,924.8	81.055	4,924.8	75.7171	4,924.8	78.6515	4,924.8	74.1947	4,924.8	76.0346	4,924.8	72.1496	4,924.8	74.2576	4,924.8	70.182	4,924.8	72.0421	4,924.8	68.5431	4,924.8	69.887	4,924.8	66.9268	4,924.8	68.3212	4,924.8	65.7979	4,924.8	65.2558	4,924.8	71.5216	4,924.8	60.036	4,924.8	67.748	4,924.8	71.0661	4,924.8	67.106
5,098.39	90.5631	5,098.39	89.2836	5,098.39	90.497	5,098.39	88.3402	5,098.39	89.1965	5,098.39	88.0972	5,098.39	88.6008	5,098.39	87.2366	5,098.39	88.5292	5,098.39	85.6933	5,098.39	87.6538	5,098.39	83.3664	5,098.39	85.9917	5,098.39	81.2899	5,098.39	83.7454	5,098.39	79.094	5,098.39	81.0665	5,098.39	76.8509	5,098.39	79.0893	5,098.39	74.7108	5,098.39	76.1132	5,098.39	72.0483	5,098.39	74.088	5,098.39	69.833	5,098.39	71.7	5,098.39	67.4652	5,098.39	70.2716	5,098.39	65.3463	5,098.39	68.7274	5,098.39	64.4462	5,098.39	64.5861	5,098.39	70.3529	5,098.39	61.8977	5,098.39	67.4913	5,098.39	70.2934	5,098.39	67.2261
5,277.83	89.9762	5,277.83	88.8413	5,277.83	89.8674	5,277.83	88.31	5,277.83	88.804	5,277.83	88.3682	5,277.83	88.2965	5,277.83	87.7489	5,277.83	88.2384	5,277.83	86.275	5,277.83	87.5021	5,277.83	84.183	5,277.83	85.8107	5,277.83	81.7688	5,277.83	83.9271	5,277.83	79.0641	5,277.83	81.392	5,277.83	75.9999	5,277.83	78.9601	5,277.83	73.3728	5,277.83	76.4089	5,277.83	71.216	5,277.83	74.2461	5,277.83	69.3361	5,277.83	72.1978	5,277.83	67.4393	5,277.83	69.7076	5,277.83	63.8512	5,277.83	68.2958	5,277.83	63.9984	5,277.83	65.3015	5,277.83	69.189	5,277.83	62.5768	5,277.83	67.1122	5,277.83	68.7276	5,277.83	67.3004
5,463.87	90.2647	5,463.87	89.4456	5,463.87	90.1207	5,463.87	88.9407	5,463.87	89.2019	5,463.87	88.6577	5,463.87	88.7339	5,463.87	87.4924	5,463.87	88.5016	5,463.87	85.6677	5,463.87	87.5798	5,463.87	83.386	5,463.87	85.844	5,463.87	81.0381	5,463.87	84.0007	5,463.87	78.2037	5,463.87	81.428	5,463.87	76.3658	5,463.87	79.049	5,463.87	74.1463	5,463.87	76.1785	5,463.87	72.2999	5,463.87	74.1938	5,463.87	70.6701	5,463.87	72.0454	5,463.87	67.9494	5,463.87	69.7707	5,463.87	66.6543	5,463.87	67.6374	5,463.87	61.964	5,463.87	63.9729	5,463.87	68.9072	5,463.87	64.6712	5,463.87	65.1471	5,463.87	69.0234	5,463.87	66.3054
5,656.49	89.8199	5,656.49	89.2056	5,656.49	89.8247	5,656.49	88.7516	5,656.49	89.2497	5,656.49	88.1649	5,656.49	88.86	5,656.49	87.2266	5,656.49	88.3704	5,656.49	85.9818	5,656.49	87.2788	5,656.49	84.0904	5,656.49	85.84	5,656.49	82.1283	5,656.49	83.8212	5,656.49	79.4438	5,656.49	81.2412	5,656.49	76.7898	5,656.49	78.5447	5,656.49	73.8072	5,656.49	75.6794	5,656.49	71.7854	5,656.49	73.417	5,656.49	68.7591	5,656.49	71.5715	5,656.49	66.4154	5,656.49	69.5187	5,656.49	65.1869	5,656.49	66.6656	5,656.49	61.3891	5,656.49	62.6624	5,656.49	67.8466	5,656.49	63.0787	5,656.49	64.5655	5,656.49	68.0182	5,656.49	65.9857
5,856.45	89.6786	5,856.45	89.4394	5,856.45	89.6693	5,856.45	89.0737	5,856.45	89.4373	5,856.45	88.5899	5,856.45	89.0255	5,856.45	87.72	5,856.45	88.3951	5,856.45	86.5278	5,856.45	87.175	5,856.45	84.4963	5,856.45	85.9799	5,856.45	81.7486	5,856.45	83.7255	5,856.45	77.9638	5,856.45	81.0918	5,856.45	75.254	5,856.45	78.2917	5,856.45	72.7076	5,856.45	75.1008	5,856.45	70.9726	5,856.45	73.0594	5,856.45	68.5964	5,856.45	70.6345	5,856.45	66.9141	5,856.45	68.7403	5,856.45	65.908	5,856.45	66.3683	5,856.45	61.4065	5,856.45	62.0211	5,856.45	67.2876	5,856.45	63.5451	5,856.45	63.1331	5,856.45	66.695	5,856.45	65.608
6,062.99	89.9083	6,062.99	89.9661	6,062.99	89.9449	6,062.99	89.6351	6,062.99	89.8433	6,062.99	88.7243	6,062.99	89.2	6,062.99	87.6163	6,062.99	88.298	6,062.99	86.1415	6,062.99	87.1042	6,062.99	83.8971	6,062.99	85.7609	6,062.99	80.8898	6,062.99	83.4607	6,062.99	77.6976	6,062.99	80.4461	6,062.99	75.2639	6,062.99	77.4255	6,062.99	72.7167	6,062.99	74.5815	6,062.99	70.8374	6,062.99	71.8873	6,062.99	68.3918	6,062.99	69.5768	6,062.99	66.7951	6,062.99	68.4429	6,062.99	65.7304	6,062.99	64.9445	6,062.99	61.6264	6,062.99	63.0174	6,062.99	66.7001	6,062.99	62.1933	6,062.99	63.1441	6,062.99	66.2074	6,062.99	64.0764
6,276.86	90.0848	6,276.86	90.3518	6,276.86	90.1931	6,276.86	89.6996	6,276.86	90.3995	6,276.86	88.495	6,276.86	89.7129	6,276.86	87.4234	6,276.86	88.4885	6,276.86	86.0194	6,276.86	87.3941	6,276.86	83.6336	6,276.86	85.8475	6,276.86	80.8276	6,276.86	83.2536	6,276.86	77.5799	6,276.86	80.2034	6,276.86	74.6967	6,276.86	76.907	6,276.86	72.1262	6,276.86	73.992	6,276.86	70.1714	6,276.86	71.3464	6,276.86	67.7065	6,276.86	69.3424	6,276.86	65.5729	6,276.86	67.4963	6,276.86	63.9348	6,276.86	65.02	6,276.86	62.1637	6,276.86	63.5091	6,276.86	66.0812	6,276.86	61.506	6,276.86	61.9684	6,276.86	65.4187	6,276.86	62.784
6,498.05	90.0383	6,498.05	90.3992	6,498.05	90.2743	6,498.05	89.5711	6,498.05	90.6988	6,498.05	88.4163	6,498.05	89.8181	6,498.05	87.3792	6,498.05	88.7244	6,498.05	85.7822	6,498.05	87.4841	6,498.05	83.4242	6,498.05	85.7945	6,498.05	80.1326	6,498.05	82.9515	6,498.05	76.6626	6,498.05	79.934	6,498.05	73.8614	6,498.05	76.7488	6,498.05	71.0515	6,498.05	73.8461	6,498.05	68.8083	6,498.05	71.4803	6,498.05	67.0405	6,498.05	68.8895	6,498.05	65.5617	6,498.05	67.1799	6,498.05	61.9202	6,498.05	65.6796	6,498.05	60.0837	6,498.05	64.3349	6,498.05	65.854	6,498.05	58.5327	6,498.05	61.8551	6,498.05	64.2852	6,498.05	63.025
6,727.29	89.8704	6,727.29	90.1078	6,727.29	90.2038	6,727.29	89.5521	6,727.29	90.2945	6,727.29	88.4945	6,727.29	89.4491	6,727.29	87.505	6,727.29	88.3442	6,727.29	85.4497	6,727.29	87.2695	6,727.29	82.8668	6,727.29	85.4247	6,727.29	79.4757	6,727.29	82.5264	6,727.29	75.9628	6,727.29	79.3977	6,727.29	73.3966	6,727.29	76.4252	6,727.29	70.4325	6,727.29	73.7947	6,727.29	68.9796	6,727.29	71.77	6,727.29	67.5512	6,727.29	69.3706	6,727.29	64.9848	6,727.29	67.6401	6,727.29	63.1098	6,727.29	65.8707	6,727.29	54.4995	6,727.29	64.9809	6,727.29	65.0317	6,727.29	56.3648	6,727.29	61.7615	6,727.29	62.8658	6,727.29	62.6982
6,964.6	89.2271	6,964.6	89.9824	6,964.6	89.5018	6,964.6	89.2497	6,964.6	90.1006	6,964.6	88.2583	6,964.6	89.1713	6,964.6	87.3184	6,964.6	88.2733	6,964.6	85.3416	6,964.6	87.2547	6,964.6	82.8563	6,964.6	85.3931	6,964.6	79.8237	6,964.6	82.7065	6,964.6	77.146	6,964.6	80.1604	6,964.6	74.4195	6,964.6	76.9411	6,964.6	72.3645	6,964.6	74.3717	6,964.6	70.1065	6,964.6	72.3115	6,964.6	67.6947	6,964.6	69.6286	6,964.6	66.1928	6,964.6	66.9349	6,964.6	64.0705	6,964.6	66.7648	6,964.6	55.7013	6,964.6	66.6333	6,964.6	63.4918	6,964.6	58.3266	6,964.6	62.0305	6,964.6	62.8862	6,964.6	62.4824
7,209.96	88.6765	7,209.96	89.3934	7,209.96	89.0561	7,209.96	88.7897	7,209.96	89.3567	7,209.96	87.9851	7,209.96	88.6712	7,209.96	87.1222	7,209.96	87.8254	7,209.96	85.0254	7,209.96	86.8674	7,209.96	83.0271	7,209.96	85.11	7,209.96	80.2345	7,209.96	82.5702	7,209.96	77.4216	7,209.96	79.9819	7,209.96	74.4372	7,209.96	76.7797	7,209.96	71.1693	7,209.96	73.9453	7,209.96	69.6854	7,209.96	71.621	7,209.96	67.8397	7,209.96	69.6107	7,209.96	66.3291	7,209.96	67.3304	7,209.96	63.9198	7,209.96	66.86	7,209.96	56.8636	7,209.96	66.3821	7,209.96	62.881	7,209.96	59.2935	7,209.96	60.9934	7,209.96	62.06	7,209.96	61.0595
7,464.11	88.1399	7,464.11	88.8325	7,464.11	88.3035	7,464.11	88.3369	7,464.11	88.8615	7,464.11	87.4376	7,464.11	88.2682	7,464.11	86.3191	7,464.11	87.4315	7,464.11	84.5988	7,464.11	86.3947	7,464.11	82.7501	7,464.11	84.5467	7,464.11	79.7562	7,464.11	82.2139	7,464.11	76.7469	7,464.11	79.4173	7,464.11	73.35	7,464.11	75.9138	7,464.11	71.1579	7,464.11	73.1906	7,464.11	69.0658	7,464.11	71.0339	7,464.11	67.3664	7,464.11	68.9086	7,464.11	66.0806	7,464.11	66.7446	7,464.11	64.0161	7,464.11	66.4217	7,464.11	56.4303	7,464.11	65.435	7,464.11	61.3476	7,464.11	57.6904	7,464.11	59.5308	7,464.11	58.8429	7,464.11	60.2904
7,727.78	88.2992	7,727.78	88.6755	7,727.78	88.5616	7,727.78	88.2877	7,727.78	88.7771	7,727.78	87.3064	7,727.78	88.2573	7,727.78	86.1013	7,727.78	87.3988	7,727.78	84.3863	7,727.78	86.1861	7,727.78	82.4029	7,727.78	84.5268	7,727.78	79.1139	7,727.78	82.1884	7,727.78	75.669	7,727.78	79.0571	7,727.78	72.5593	7,727.78	75.2653	7,727.78	69.638	7,727.78	72.6124	7,727.78	67.7389	7,727.78	69.8372	7,727.78	67.1298	7,727.78	68.0536	7,727.78	66.2211	7,727.78	65.9855	7,727.78	63.5872	7,727.78	65.7871	7,727.78	56.1735	7,727.78	64.6809	7,727.78	60.3154	7,727.78	56.9954	7,727.78	57.4384	7,727.78	58.9814	7,727.78	59.271
8,000.24	88.8454	8,000.24	89.3366	8,000.24	88.9874	8,000.24	88.8681	8,000.24	89.2352	8,000.24	87.7036	8,000.24	88.8341	8,000.24	86.3668	8,000.24	87.7608	8,000.24	84.7863	8,000.24	86.375	8,000.24	82.5777	8,000.24	84.8282	8,000.24	78.814	8,000.24	82.1325	8,000.24	75.3236	8,000.24	78.8613	8,000.24	71.602	8,000.24	74.7619	8,000.24	69.1907	8,000.24	71.726	8,000.24	67.1101	8,000.24	69.9667	8,000.24	65.407	8,000.24	67.3024	8,000.24	65.4845	8,000.24	65.3996	8,000.24	63.0594	8,000.24	65.2513	8,000.24	56.2888	8,000.24	64.0438	8,000.24	59.296	8,000.24	57.0078	8,000.24	55.8708	8,000.24	57.3619	8,000.24	55.9812
8,282.23	89.8335	8,282.23	89.912	8,282.23	89.8716	8,282.23	89.5739	8,282.23	89.848	8,282.23	88.3007	8,282.23	89.5254	8,282.23	86.8863	8,282.23	88.2797	8,282.23	85.4104	8,282.23	87.0379	8,282.23	82.819	8,282.23	85.5215	8,282.23	78.8285	8,282.23	82.7406	8,282.23	75.3044	8,282.23	79.3136	8,282.23	71.9486	8,282.23	75.3602	8,282.23	69.3357	8,282.23	72.8759	8,282.23	66.715	8,282.23	69.8397	8,282.23	65.5317	8,282.23	68.1218	8,282.23	64.9671	8,282.23	65.9726	8,282.23	62.7116	8,282.23	65.2992	8,282.23	58.6633	8,282.23	62.4038	8,282.23	59.0085	8,282.23	55.5513	8,282.23	55.3286	8,282.23	59.8943	8,282.23	58.1448
8,574.46	89.967	8,574.46	89.9518	8,574.46	89.9546	8,574.46	89.6801	8,574.46	90.0866	8,574.46	88.1438	8,574.46	89.7256	8,574.46	87.01	8,574.46	88.3795	8,574.46	85.4331	8,574.46	87.2108	8,574.46	82.6057	8,574.46	85.6447	8,574.46	78.6007	8,574.46	82.7481	8,574.46	75.3428	8,574.46	79.072	8,574.46	72.0816	8,574.46	75.3046	8,574.46	68.6199	8,574.46	72.6417	8,574.46	66.6079	8,574.46	69.1245	8,574.46	65.312	8,574.46	67.8486	8,574.46	65.1943	8,574.46	65.5451	8,574.46	62.3355	8,574.46	65.0476	8,574.46	58.1309	8,574.46	62.0067	8,574.46	58.695	8,574.46	56.9706	8,574.46	55.7021	8,574.46	57.9763	8,574.46	55.4315
8,876.22	89.6307	8,876.22	89.5044	8,876.22	89.6817	8,876.22	89.215	8,876.22	89.556	8,876.22	87.783	8,876.22	89.4	8,876.22	86.5959	8,876.22	87.8855	8,876.22	84.9499	8,876.22	86.7417	8,876.22	81.7444	8,876.22	84.9583	8,876.22	78.0285	8,876.22	81.9791	8,876.22	74.3552	8,876.22	78.1778	8,876.22	71.2615	8,876.22	74.6057	8,876.22	67.7946	8,876.22	71.9407	8,876.22	65.4377	8,876.22	68.7978	8,876.22	64.3075	8,876.22	66.9424	8,876.22	64.6019	8,876.22	65.9418	8,876.22	62.9688	8,876.22	64.6409	8,876.22	57.9119	8,876.22	62.4436	8,876.22	56.9131	8,876.22	56.7856	8,876.22	55.0221	8,876.22	56.5917	8,876.22	54.1487
9,189.7	88.9567	9,189.7	88.8214	9,189.7	88.8679	9,189.7	88.4636	9,189.7	88.8644	9,189.7	87.0164	9,189.7	88.5504	9,189.7	85.9621	9,189.7	87.1975	9,189.7	84.069	9,189.7	86.0114	9,189.7	81.1625	9,189.7	84.0761	9,189.7	77.9279	9,189.7	81.2196	9,189.7	74.0193	9,189.7	78.2056	9,189.7	71.1182	9,189.7	74.5873	9,189.7	67.2262	9,189.7	71.688	9,189.7	66.1278	9,189.7	68.3769	9,189.7	65.5165	9,189.7	66.7339	9,189.7	63.2158	9,189.7	65.192	9,189.7	62.2329	9,189.7	63.6824	9,189.7	58.808	9,189.7	62.6191	9,189.7	57.0565	9,189.7	57.6177	9,189.7	53.8616	9,189.7	57.0585	9,189.7	55.0403
9,513.43	88.8418	9,513.43	88.3667	9,513.43	88.8663	9,513.43	87.864	9,513.43	88.441	9,513.43	86.5134	9,513.43	88.0471	9,513.43	85.1051	9,513.43	86.6502	9,513.43	82.9528	9,513.43	85.3081	9,513.43	80.2645	9,513.43	83.1941	9,513.43	77.0319	9,513.43	80.7418	9,513.43	73.2798	9,513.43	77.6654	9,513.43	70.0136	9,513.43	74.0976	9,513.43	67.318	9,513.43	71.3279	9,513.43	65.9432	9,513.43	67.6567	9,513.43	64.4305	9,513.43	65.6212	9,513.43	62.4297	9,513.43	63.9154	9,513.43	61.8043	9,513.43	62.7607	9,513.43	58.676	9,513.43	62.4742	9,513.43	57.6273	9,513.43	57.3892	9,513.43	56.3346	9,513.43	56.3289	9,513.43	55.7493
9,848.88	89.2952	9,848.88	88.6866	9,848.88	89.2985	9,848.88	87.8744	9,848.88	88.7339	9,848.88	86.559	9,848.88	88.157	9,848.88	84.699	9,848.88	86.7168	9,848.88	82.5789	9,848.88	84.9846	9,848.88	79.7478	9,848.88	83.0536	9,848.88	76.344	9,848.88	80.6753	9,848.88	72.9297	9,848.88	76.8239	9,848.88	69.0564	9,848.88	73.1499	9,848.88	67.0472	9,848.88	70.4311	9,848.88	64.462	9,848.88	66.4031	9,848.88	62.4779	9,848.88	65.209	9,848.88	61.3746	9,848.88	62.4933	9,848.88	62.47	9,848.88	61.3569	9,848.88	57.9478	9,848.88	62.7967	9,848.88	57.251	9,848.88	57.2291	9,848.88	55.2424	9,848.88	55.4081	9,848.88	55.4712
10,196.8	89.6329	10,196.8	89.0214	10,196.8	89.5864	10,196.8	88.1399	10,196.8	89.0594	10,196.8	86.9234	10,196.8	88.4957	10,196.8	84.6473	10,196.8	87.0496	10,196.8	82.6999	10,196.8	85.0339	10,196.8	79.7094	10,196.8	83.0819	10,196.8	76.3414	10,196.8	80.6343	10,196.8	72.8753	10,196.8	77.0307	10,196.8	68.816	10,196.8	73.2587	10,196.8	66.4248	10,196.8	70.2346	10,196.8	63.9068	10,196.8	65.8822	10,196.8	62.6902	10,196.8	65.5493	10,196.8	60.8485	10,196.8	60.4022	10,196.8	63.3901	10,196.8	61.7276	10,196.8	57.6235	10,196.8	63.7323	10,196.8	56.4535	10,196.8	58.7579	10,196.8	52.202	10,196.8	55.0888	10,196.8	56.2544
10,556.4	89.8152	10,556.4	89.0154	10,556.4	89.8492	10,556.4	88.1553	10,556.4	89.0912	10,556.4	86.886	10,556.4	88.6485	10,556.4	84.4946	10,556.4	87.0708	10,556.4	82.8925	10,556.4	84.955	10,556.4	80.273	10,556.4	83.2237	10,556.4	77.196	10,556.4	81.0435	10,556.4	72.8349	10,556.4	77.8968	10,556.4	69.8589	10,556.4	74.0588	10,556.4	66.0082	10,556.4	70.8404	10,556.4	65.2074	10,556.4	67.1515	10,556.4	63.1366	10,556.4	65.7546	10,556.4	61.3999	10,556.4	61.2048	10,556.4	64.0284	10,556.4	62.3542	10,556.4	57.3341	10,556.4	63.8649	10,556.4	54.7014	10,556.4	60.0304	10,556.4	49.4166	10,556.4	54.0848	10,556.4	55.7754
10,928.5	89.7084	10,928.5	88.6614	10,928.5	89.7003	10,928.5	87.8411	10,928.5	88.8061	10,928.5	86.4591	10,928.5	88.4723	10,928.5	84.2472	10,928.5	86.8043	10,928.5	82.6666	10,928.5	84.8444	10,928.5	80.1124	10,928.5	83.269	10,928.5	76.7104	10,928.5	81.2592	10,928.5	72.5332	10,928.5	78.1893	10,928.5	69.8312	10,928.5	74.1225	10,928.5	67.0564	10,928.5	71.1435	10,928.5	64.5655	10,928.5	68.6534	10,928.5	61.2204	10,928.5	64.4734	10,928.5	62.8187	10,928.5	63.777	10,928.5	64.643	10,928.5	63.1111	10,928.5	56.3041	10,928.5	63.8529	10,928.5	54.9954	10,928.5	60.5649	10,928.5	43.0469	10,928.5	55.639	10,928.5	56.0233
11,313.7	89.2616	11,313.7	88.1733	11,313.7	89.3407	11,313.7	87.5422	11,313.7	88.1124	11,313.7	86.084	11,313.7	88.0649	11,313.7	83.9933	11,313.7	86.3809	11,313.7	82.3746	11,313.7	84.6539	11,313.7	79.3306	11,313.7	83.0863	11,313.7	75.8797	11,313.7	81.0938	11,313.7	72.9102	11,313.7	78.1143	11,313.7	69.9534	11,313.7	74.1656	11,313.7	67.2526	11,313.7	71.2673	11,313.7	62.8135	11,313.7	68.6138	11,313.7	61.3551	11,313.7	63.0485	11,313.7	63.4304	11,313.7	65.5752	11,313.7	64.6531	11,313.7	63.5599	11,313.7	55.8584	11,313.7	62.8654	11,313.7	55.1245	11,313.7	60.143	11,313.7	37.8272	11,313.7	55.0875	11,313.7	55.1668
11,712.9	88.4363	11,712.9	87.4028	11,712.9	88.4671	11,712.9	87.0421	11,712.9	87.4056	11,712.9	85.4508	11,712.9	87.3933	11,712.9	83.8078	11,712.9	85.8748	11,712.9	82.5788	11,712.9	84.2493	11,712.9	80.1873	11,712.9	82.878	11,712.9	77.4342	11,712.9	81.1399	11,712.9	73.1412	11,712.9	78.1455	11,712.9	71.567	11,712.9	73.9298	11,712.9	66.2381	11,712.9	71.2056	11,712.9	64.2418	11,712.9	67.5601	11,712.9	63.2831	11,712.9	61.7593	11,712.9	63.2415	11,712.9	66.0318	11,712.9	63.9612	11,712.9	62.7024	11,712.9	54.1344	11,712.9	60.2682	11,712.9	53.1672	11,712.9	58.6564	11,712.9	33.7993	11,712.9	56.3284	11,712.9	53.5189
12,126	88.1553	12,126	86.8413	12,126	88.3662	12,126	86.42	12,126	86.9844	12,126	85.2398	12,126	86.8397	12,126	83.244	12,126	85.832	12,126	82.8912	12,126	84.3789	12,126	80.9676	12,126	83.0976	12,126	77.5078	12,126	81.1929	12,126	73.2962	12,126	78.4923	12,126	70.9295	12,126	73.6963	12,126	66.3771	12,126	70.9309	12,126	64.9089	12,126	67.733	12,126	63.3931	12,126	64.3579	12,126	62.3955	12,126	64.8356	12,126	62.8673	12,126	61.7563	12,126	53.8016	12,126	61.2829	12,126	52.46	12,126	56.9839	12,126	32.7514	12,126	56.8107	12,126	52.0707
12,553.7	87.5678	12,553.7	86.5674	12,553.7	87.777	12,553.7	85.859	12,553.7	86.7223	12,553.7	85.0341	12,553.7	86.4506	12,553.7	83.3081	12,553.7	86.0912	12,553.7	82.6757	12,553.7	84.8403	12,553.7	80.578	12,553.7	83.4204	12,553.7	77.2744	12,553.7	81.4225	12,553.7	73.6783	12,553.7	78.7935	12,553.7	70.7221	12,553.7	74.0858	12,553.7	66.3031	12,553.7	71.3798	12,553.7	63.8335	12,553.7	67.1572	12,553.7	62.5083	12,553.7	65.4272	12,553.7	61.0506	12,553.7	64.8931	12,553.7	61.4479	12,553.7	62.5911	12,553.7	49.6885	12,553.7	61.64	12,553.7	54.734	12,553.7	57.3417	12,553.7	47.1643	12,553.7	57.2335	12,553.7	51.8957
12,996.1	86.9457	12,996.1	85.974	12,996.1	87.2913	12,996.1	84.8958	12,996.1	86.1045	12,996.1	84.4834	12,996.1	85.5247	12,996.1	83.4887	12,996.1	85.6543	12,996.1	82.4036	12,996.1	84.8394	12,996.1	80.7968	12,996.1	83.2122	12,996.1	77.9637	12,996.1	81.4357	12,996.1	73.252	12,996.1	78.6063	12,996.1	70.4261	12,996.1	74.0786	12,996.1	65.0867	12,996.1	70.7157	12,996.1	64.2188	12,996.1	66.1292	12,996.1	63.1147	12,996.1	65.0306	12,996.1	58.8916	12,996.1	62.3197	12,996.1	59.0289	12,996.1	61.6493	12,996.1	40.0508	12,996.1	61.9668	12,996.1	55.3803	12,996.1	57.9582	12,996.1	40.893	12,996.1	55.818	12,996.1	52.3038
13,454.6	86.1828	13,454.6	85.3225	13,454.6	86.2909	13,454.6	84.16	13,454.6	85.555	13,454.6	84.0384	13,454.6	84.8793	13,454.6	83.2781	13,454.6	85.0654	13,454.6	82.4986	13,454.6	84.6975	13,454.6	81.2705	13,454.6	83.1489	13,454.6	77.669	13,454.6	81.4954	13,454.6	73.3253	13,454.6	78.5019	13,454.6	69.2279	13,454.6	73.6127	13,454.6	64.8476	13,454.6	70.3526	13,454.6	63.9302	13,454.6	65.7857	13,454.6	62.3091	13,454.6	64.7631	13,454.6	57.3545	13,454.6	62.7374	13,454.6	57.3945	13,454.6	61.7421	13,454.6	39.5781	13,454.6	61.799	13,454.6	55.2384	13,454.6	57.3951	13,454.6	48.6421	13,454.6	53.5113	13,454.6	50.1261
13,928.5	85.4499	13,928.5	84.8217	13,928.5	85.9087	13,928.5	83.4185	13,928.5	85.3404	13,928.5	83.5188	13,928.5	84.5658	13,928.5	83.0934	13,928.5	84.858	13,928.5	82.5802	13,928.5	84.4224	13,928.5	80.5139	13,928.5	83.2838	13,928.5	77.051	13,928.5	80.8734	13,928.5	72.9553	13,928.5	77.3674	13,928.5	67.9935	13,928.5	73.1583	13,928.5	64.8796	13,928.5	69.8392	13,928.5	63.3928	13,928.5	65.3914	13,928.5	61.1072	13,928.5	64.3812	13,928.5	56.3895	13,928.5	62.9173	13,928.5	56.2504	13,928.5	60.7461	13,928.5	45.39	13,928.5	61.0761	13,928.5	55.9949	13,928.5	57.6042	13,928.5	49.6654	13,928.5	53.3871	13,928.5	51.7429
14,419.9	85.8272	14,419.9	85.0003	14,419.9	86.3134	14,419.9	83.667	14,419.9	85.8781	14,419.9	83.6315	14,419.9	85.029	14,419.9	83.1819	14,419.9	85.0971	14,419.9	82.7031	14,419.9	84.4443	14,419.9	80.2152	14,419.9	83.2207	14,419.9	77.4496	14,419.9	80.9482	14,419.9	72.5692	14,419.9	77.7038	14,419.9	67.9115	14,419.9	73.0664	14,419.9	64.698	14,419.9	68.6698	14,419.9	62.6365	14,419.9	63.7574	14,419.9	61.5051	14,419.9	63.7342	14,419.9	57.5768	14,419.9	61.3211	14,419.9	54.9069	14,419.9	59.2758	14,419.9	31.2263	14,419.9	59.2226	14,419.9	55.9806	14,419.9	55.5423	14,419.9	49.4703	14,419.9	49.7335	14,419.9	50.645
14,928.2	86.1887	14,928.2	85.6445	14,928.2	86.6767	14,928.2	84.2179	14,928.2	86.6475	14,928.2	83.8554	14,928.2	85.8451	14,928.2	83.1408	14,928.2	85.3589	14,928.2	82.5381	14,928.2	84.7677	14,928.2	79.9577	14,928.2	83.2255	14,928.2	77.1852	14,928.2	80.7216	14,928.2	71.8895	14,928.2	77.4375	14,928.2	65.3634	14,928.2	72.0135	14,928.2	64.0044	14,928.2	67.1312	14,928.2	61.959	14,928.2	63.8996	14,928.2	60.4355	14,928.2	62.5744	14,928.2	55.105	14,928.2	57.5036	14,928.2	52.5884	14,928.2	56.6681	14,928.2	40.8801	14,928.2	57.4713	14,928.2	56.4991	14,928.2	55.4085	14,928.2	52.6762	14,928.2	33.3335	14,928.2	51.6396
15,454.8	86.6349	15,454.8	85.9868	15,454.8	87.2623	15,454.8	84.7822	15,454.8	87.1781	15,454.8	83.9445	15,454.8	86.3689	15,454.8	83.5869	15,454.8	85.7539	15,454.8	82.1216	15,454.8	84.9359	15,454.8	79.3359	15,454.8	83.0457	15,454.8	75.9969	15,454.8	79.8281	15,454.8	71.1924	15,454.8	75.8301	15,454.8	63.5344	15,454.8	71.1024	15,454.8	62.0078	15,454.8	65.6665	15,454.8	60.6006	15,454.8	63.3416	15,454.8	57.7288	15,454.8	61.0986	15,454.8	50.948	15,454.8	55.5516	15,454.8	50.7517	15,454.8	55.5488	15,454.8	41.2038	15,454.8	56.1763	15,454.8	55.5754	15,454.8	52.1137	15,454.8	50.0275	15,454.8	47.0269	15,454.8	49.3778
15,999.8	86.3026	15,999.8	85.634	15,999.8	86.7539	15,999.8	84.8766	15,999.8	86.9893	15,999.8	83.9048	15,999.8	86.3114	15,999.8	83.4544	15,999.8	85.66	15,999.8	81.819	15,999.8	84.4526	15,999.8	78.5789	15,999.8	82.5064	15,999.8	75.318	15,999.8	78.9331	15,999.8	70.7836	15,999.8	75.1286	15,999.8	62.7495	15,999.8	70.1389	15,999.8	61.7485	15,999.8	63.8817	15,999.8	58.0625	15,999.8	62.4628	15,999.8	55.9463	15,999.8	58.9219	15,999.8	38.6521	15,999.8	55.3549	15,999.8	47.7829	15,999.8	53.7317	15,999.8	44.7918	15,999.8	53.7909	15,999.8	52.8014	15,999.8	50.294	15,999.8	50.7282	15,999.8	49.7009	15,999.8	45.4406
16,564.5	86.3527	16,564.5	85.8999	16,564.5	86.6105	16,564.5	85.3362	16,564.5	86.9259	16,564.5	84.2834	16,564.5	86.292	16,564.5	82.9037	16,564.5	85.4805	16,564.5	81.3031	16,564.5	83.9791	16,564.5	77.2299	16,564.5	81.7143	16,564.5	73.1654	16,564.5	77.6066	16,564.5	69.0252	16,564.5	73.2029	16,564.5	60.6544	16,564.5	67.8003	16,564.5	60.1454	16,564.5	63.1684	16,564.5	56.2104	16,564.5	60.0581	16,564.5	53.474	16,564.5	58.184	16,564.5	38.8651	16,564.5	54.0296	16,564.5	45.9789	16,564.5	52.6489	16,564.5	45.5359	16,564.5	53.7676	16,564.5	48.5344	16,564.5	46.9171	16,564.5	46.1236	16,564.5	48.5414	16,564.5	41.4609
17,148.2	87.0992	17,148.2	86.6453	17,148.2	87.1659	17,148.2	85.9351	17,148.2	87.1866	17,148.2	84.5338	17,148.2	86.3158	17,148.2	82.371	17,148.2	85.3695	17,148.2	80.0493	17,148.2	83.5163	17,148.2	75.2455	17,148.2	80.6256	17,148.2	69.8875	17,148.2	75.8341	17,148.2	66.0849	17,148.2	71.3114	17,148.2	58.7154	17,148.2	66.0443	17,148.2	57.5292	17,148.2	60.5747	17,148.2	53.6608	17,148.2	57.5432	17,148.2	49.5952	17,148.2	55.833	17,148.2	36.1453	17,148.2	53.0883	17,148.2	42.6706	17,148.2	51.7248	17,148.2	41.5463	17,148.2	53.5312	17,148.2	42.0724	17,148.2	40.7151	17,148.2	34.7959	17,148.2	43.8415	17,148.2	40.0178
17,753.2	87.4905	17,753.2	87.1409	17,753.2	87.4245	17,753.2	86.1324	17,753.2	87.2494	17,753.2	84.4854	17,753.2	86.1351	17,753.2	81.5776	17,753.2	84.7572	17,753.2	78.4898	17,753.2	82.4379	17,753.2	72.4171	17,753.2	79.0269	17,753.2	67.1041	17,753.2	73.5183	17,753.2	63.7034	17,753.2	69.3022	17,753.2	57.117	17,753.2	64.7581	17,753.2	55.359	17,753.2	59.2373	17,753.2	49.2739	17,753.2	55.3767	17,753.2	45.8162	17,753.2	55.9434	17,753.2	39.9383	17,753.2	53.9513	17,753.2	40.7395	17,753.2	51.8469	17,753.2	44.7795	17,753.2	53.5253	17,753.2	39.7192	17,753.2	41.536	17,753.2	34.5022	17,753.2	43.2134	17,753.2	41.4899
18,379.4	87.0004	18,379.4	86.596	18,379.4	86.9445	18,379.4	85.4631	18,379.4	86.5723	18,379.4	83.5358	18,379.4	85.2966	18,379.4	80.0838	18,379.4	83.6141	18,379.4	76.6545	18,379.4	80.9258	18,379.4	69.5921	18,379.4	76.9424	18,379.4	64.4047	18,379.4	71.41	18,379.4	59.0568	18,379.4	67.119	18,379.4	54.5935	18,379.4	62.6774	18,379.4	53.0714	18,379.4	55.21	18,379.4	45.9456	18,379.4	54.2153	18,379.4	41.6748	18,379.4	54.5716	18,379.4	42.897	18,379.4	51.6287	18,379.4	40.1624	18,379.4	49.9362	18,379.4	44.8439	18,379.4	52.0461	18,379.4	41.6996	18,379.4	26.8263	18,379.4	42.2956	18,379.4	40.2746	18,379.4	40.1039
19,027.6	86.634	19,027.6	86.0624	19,027.6	86.6562	19,027.6	84.4746	19,027.6	86.0564	19,027.6	82.1493	19,027.6	84.4798	19,027.6	78.4719	19,027.6	82.6409	19,027.6	74.0094	19,027.6	79.3093	19,027.6	65.3702	19,027.6	74.6273	19,027.6	59.877	19,027.6	68.2859	19,027.6	57.7877	19,027.6	65.4525	19,027.6	51.2846	19,027.6	62.4115	19,027.6	52.8197	19,027.6	54.5895	19,027.6	42.3445	19,027.6	53.8719	19,027.6	42.5975	19,027.6	54.7227	19,027.6	43.2006	19,027.6	53.0524	19,027.6	40.2152	19,027.6	50.5081	19,027.6	45.5261	19,027.6	52.3308	19,027.6	44.464	19,027.6	41.2062	19,027.6	47.4192	19,027.6	46.6455	19,027.6	43.4605
19,698.5	86.4163	19,698.5	85.6757	19,698.5	86.4146	19,698.5	83.8686	19,698.5	85.6065	19,698.5	80.9716	19,698.5	83.6725	19,698.5	76.5982	19,698.5	81.3708	19,698.5	71.2054	19,698.5	77.7174	19,698.5	63.4616	19,698.5	72.0955	19,698.5	59.7161	19,698.5	65.5416	19,698.5	56.5033	19,698.5	65.5997	19,698.5	50.5868	19,698.5	63.114	19,698.5	50.8026	19,698.5	52.6293	19,698.5	39.2001	19,698.5	55.4378	19,698.5	39.8755	19,698.5	55.3035	19,698.5	43.4267	19,698.5	52.9809	19,698.5	38.8193	19,698.5	50.2037	19,698.5	46.0904	19,698.5	52.9572	19,698.5	45.6198	19,698.5	44.1214	19,698.5	48.6782	19,698.5	46.85	19,698.5	44.7062
19,999.5	86.2225	19,999.5	85.5171	19,999.5	86.0555	19,999.5	83.2377	19,999.5	85.0985	19,999.5	80.259	19,999.5	83.0222	19,999.5	75.9962	19,999.5	80.639	19,999.5	70.0129	19,999.5	76.5425	19,999.5	62.6771	19,999.5	70.7172	19,999.5	58.976	19,999.5	64.8569	19,999.5	55.4484	19,999.5	66.054	19,999.5	48.5587	19,999.5	63.818	19,999.5	50.4322	19,999.5	52.6722	19,999.5	44.4772	19,999.5	56.9158	19,999.5	31.6873	19,999.5	52.0212	19,999.5	47.6386	19,999.5	54.1641	19,999.5	43.7982	19,999.5	45.9158	19,999.5	44.2192	19,999.5	53.6144	19,999.5	47.2396	19,999.5	47.4151	19,999.5	48.2712	19,999.5	42.3543	19,999.5	42.6779
