"SPL Vertical"
"On-Axis"		"10°"		"-10°"		"20°"		"-20°"		"30°"		"-30°"		"40°"		"-40°"		"50°"		"-50°"		"60°"		"-60°"		"70°"		"-70°"		"80°"		"-80°"		"90°"		"-90°"		"100°"		"-100°"		"110°"		"-110°"		"120°"		"-120°"		"130°"		"-130°"		"140°"		"-140°"		"150°"		"-150°"		"160°"		"-160°"		"170°"		"-170°"		"180°"
"Frequency [Hz]"	"Sound Pessure Level [dB]  / [2.83V 1m] "	"Frequency [Hz]"	"Sound Pessure Level [dB]  / [2.83V 1m] "	"Frequency [Hz]"	"Sound Pessure Level [dB]  / [2.83V 1m] "	"Frequency [Hz]"	"Sound Pessure Level [dB]  / [2.83V 1m] "	"Frequency [Hz]"	"Sound Pessure Level [dB]  / [2.83V 1m] "	"Frequency [Hz]"	"Sound Pessure Level [dB]  / [2.83V 1m] "	"Frequency [Hz]"	"Sound Pessure Level [dB]  / [2.83V 1m] "	"Frequency [Hz]"	"Sound Pessure Level [dB]  / [2.83V 1m] "	"Frequency [Hz]"	"Sound Pessure Level [dB]  / [2.83V 1m] "	"Frequency [Hz]"	"Sound Pessure Level [dB]  / [2.83V 1m] "	"Frequency [Hz]"	"Sound Pessure Level [dB]  / [2.83V 1m] "	"Frequency [Hz]"	"Sound Pessure Level [dB]  / [2.83V 1m] "	"Frequency [Hz]"	"Sound Pessure Level [dB]  / [2.83V 1m] "	"Frequency [Hz]"	"Sound Pessure Level [dB]  / [2.83V 1m] "	"Frequency [Hz]"	"Sound Pessure Level [dB]  / [2.83V 1m] "	"Frequency [Hz]"	"Sound Pessure Level [dB]  / [2.83V 1m] "	"Frequency [Hz]"	"Sound Pessure Level [dB]  / [2.83V 1m] "	"Frequency [Hz]"	"Sound Pessure Level [dB]  / [2.83V 1m] "	"Frequency [Hz]"	"Sound Pessure Level [dB]  / [2.83V 1m] "	"Frequency [Hz]"	"Sound Pessure Level [dB]  / [2.83V 1m] "	"Frequency [Hz]"	"Sound Pessure Level [dB]  / [2.83V 1m] "	"Frequency [Hz]"	"Sound Pessure Level [dB]  / [2.83V 1m] "	"Frequency [Hz]"	"Sound Pessure Level [dB]  / [2.83V 1m] "	"Frequency [Hz]"	"Sound Pessure Level [dB]  / [2.83V 1m] "	"Frequency [Hz]"	"Sound Pessure Level [dB]  / [2.83V 1m] "	"Frequency [Hz]"	"Sound Pessure Level [dB]  / [2.83V 1m] "	"Frequency [Hz]"	"Sound Pessure Level [dB]  / [2.83V 1m] "	"Frequency [Hz]"	"Sound Pessure Level [dB]  / [2.83V 1m] "	"Frequency [Hz]"	"Sound Pessure Level [dB]  / [2.83V 1m] "	"Frequency [Hz]"	"Sound Pessure Level [dB]  / [2.83V 1m] "	"Frequency [Hz]"	"Sound Pessure Level [dB]  / [2.83V 1m] "	"Frequency [Hz]"	"Sound Pessure Level [dB]  / [2.83V 1m] "	"Frequency [Hz]"	"Sound Pessure Level [dB]  / [2.83V 1m] "	"Frequency [Hz]"	"Sound Pessure Level [dB]  / [2.83V 1m] "	"Frequency [Hz]"	"Sound Pessure Level [dB]  / [2.83V 1m] "	"Frequency [Hz]"	"Sound Pessure Level [dB]  / [2.83V 1m] "
20.5078	63.2526	20.5078	63.0721	20.5078	63.5178	20.5078	62.9505	20.5078	63.906	20.5078	62.8732	20.5078	64.4616	20.5078	62.8357	20.5078	65.2213	20.5078	62.8407	20.5078	66.1914	20.5078	62.8965	20.5078	67.3306	20.5078	63.0152	20.5078	68.5541	20.5078	63.2113	20.5078	69.7702	20.5078	63.4996	20.5078	70.9234	20.5078	63.8933	20.5078	71.9848	20.5078	64.4009	20.5078	72.8846	20.5078	65.0251	20.5078	73.5015	20.5078	65.7616	20.5078	73.7425	20.5078	66.5993	20.5078	73.5975	20.5078	67.5211	20.5078	73.1236	20.5078	68.5047	20.5078	72.4041	20.5078	69.523	20.5078	71.5208	20.5078	70.5424
21.2402	63.3851	21.2402	63.2597	21.2402	63.5538	21.2402	63.1552	21.2402	63.8065	21.2402	63.0625	21.2402	64.2025	21.2402	62.9822	21.2402	64.8091	21.2402	62.922	21.2402	65.6718	21.2402	62.8952	21.2402	66.7756	21.2402	62.9201	21.2402	68.0343	21.2402	63.0187	21.2402	69.3328	21.2402	63.2151	21.2402	70.5896	21.2402	63.532	21.2402	71.7565	21.2402	63.9867	21.2402	72.7486	21.2402	64.5871	21.2402	73.4332	21.2402	65.3295	21.2402	73.7125	21.2402	66.1989	21.2402	73.5784	21.2402	67.1711	21.2402	73.0926	21.2402	68.2161	21.2402	72.343	21.2402	69.2994	21.2402	71.4152	21.2402	70.3814
21.9727	64.8926	21.9727	64.7433	21.9727	65.0993	21.9727	64.6294	21.9727	65.3987	21.9727	64.541	21.9727	65.8388	21.9727	64.4765	21.9727	66.4685	21.9727	64.441	21.9727	67.3152	21.9727	64.4448	21.9727	68.3591	21.9727	64.502	21.9727	69.5274	21.9727	64.6299	21.9727	70.7267	21.9727	64.8468	21.9727	71.8903	21.9727	65.1698	21.9727	72.9744	21.9727	65.6123	21.9727	73.8979	21.9727	66.1809	21.9727	74.5335	21.9727	66.8739	21.9727	74.7869	21.9727	67.6807	21.9727	74.6488	21.9727	68.5832	21.9727	74.1775	21.9727	69.5569	21.9727	73.4577	21.9727	70.5719	21.9727	72.5725	21.9727	71.5919
22.7051	64.9097	22.7051	64.7852	22.7051	65.1047	22.7051	64.7049	22.7051	65.4116	22.7051	64.6561	22.7051	65.8836	22.7051	64.6358	22.7051	66.5703	22.7051	64.6489	22.7051	67.4929	22.7051	64.7054	22.7051	68.62	22.7051	64.8192	22.7051	69.8703	22.7051	65.0067	22.7051	71.1481	22.7051	65.2846	22.7051	72.385	22.7051	65.6677	22.7051	73.5316	22.7051	66.166	22.7051	74.4999	22.7051	66.7833	22.7051	75.1635	22.7051	67.5153	22.7051	75.434	22.7051	68.3506	22.7051	75.3082	22.7051	69.2712	22.7051	74.8473	22.7051	70.2539	22.7051	74.1373	22.7051	71.2707	22.7051	73.2609	22.7051	72.2872
23.4375	66.7095	23.4375	66.5701	23.4375	66.899	23.4375	66.4622	23.4375	67.1694	23.4375	66.3771	23.4375	67.5626	23.4375	66.3134	23.4375	68.1238	23.4375	66.2757	23.4375	68.8832	23.4375	66.2726	23.4375	69.8317	23.4375	66.3166	23.4375	70.911	23.4375	66.4229	23.4375	72.0381	23.4375	66.6084	23.4375	73.1481	23.4375	66.8897	23.4375	74.1948	23.4375	67.2809	23.4375	75.0942	23.4375	67.7908	23.4375	75.7176	23.4375	68.4211	23.4375	75.9692	23.4375	69.1651	23.4375	75.8379	23.4375	70.0081	23.4375	75.3806	23.4375	70.9278	23.4375	74.6812	23.4375	71.8955	23.4375	73.8228	23.4375	72.8754
24.1699	67.3997	24.1699	67.2585	24.1699	67.5959	24.1699	67.1531	24.1699	67.8778	24.1699	67.0743	24.1699	68.287	24.1699	67.0203	24.1699	68.8674	24.1699	66.9951	24.1699	69.6465	24.1699	67.0071	24.1699	70.613	24.1699	67.0682	24.1699	71.7071	24.1699	67.1925	24.1699	72.8443	24.1699	67.396	24.1699	73.9569	24.1699	67.6936	24.1699	74.9961	24.1699	68.0979	24.1699	75.8801	24.1699	68.6164	24.1699	76.4868	24.1699	69.2501	24.1699	76.7262	24.1699	69.9921	24.1699	76.5898	24.1699	70.8282	24.1699	76.134	24.1699	71.7375	24.1699	75.4415	24.1699	72.6926	24.1699	74.5936	24.1699	73.659
25.6348	69.3646	25.6348	69.22	25.6348	69.5584	25.6348	69.1089	25.6348	69.8268	25.6348	69.0238	25.6348	70.2048	25.6348	68.9632	25.6348	70.7307	25.6348	68.9304	25.6348	71.4319	25.6348	68.9324	25.6348	72.3044	25.6348	68.9791	25.6348	73.3004	25.6348	69.0826	25.6348	74.3446	25.6348	69.2565	25.6348	75.3732	25.6348	69.5146	25.6348	76.3386	25.6348	69.8691	25.6348	77.1626	25.6348	70.3284	25.6348	77.728	25.6348	70.8959	25.6348	77.946	25.6348	71.5682	25.6348	77.8059	25.6348	72.3348	25.6348	77.3612	25.6348	73.1781	25.6348	76.6921	25.6348	74.0732	25.6348	75.8782	25.6348	74.9873
26.3672	70.2018	26.3672	70.0546	26.3672	70.3934	26.3672	69.9381	26.3672	70.6524	26.3672	69.8458	26.3672	71.0107	26.3672	69.7769	26.3672	71.5047	26.3672	69.7346	26.3672	72.1629	26.3672	69.7258	26.3672	72.9864	26.3672	69.7602	26.3672	73.9353	26.3672	69.8495	26.3672	74.9412	26.3672	70.0071	26.3672	75.9419	26.3672	70.2465	26.3672	76.8879	26.3672	70.58	26.3672	77.6985	26.3672	71.0167	26.3672	78.2556	26.3672	71.5606	26.3672	78.4701	26.3672	72.2093	26.3672	78.3309	26.3672	72.9533	26.3672	77.8909	26.3672	73.7757	26.3672	77.2298	26.3672	74.6519	26.3672	76.4269	26.3672	75.5497
27.0996	71.1949	27.0996	71.0413	27.0996	71.3877	27.0996	70.9155	27.0996	71.6393	27.0996	70.8123	27.0996	71.9772	27.0996	70.7313	27.0996	72.4343	27.0996	70.6759	27.0996	73.0384	27.0996	70.6525	27.0996	73.7953	27.0996	70.6701	27.0996	74.6746	27.0996	70.7398	27.0996	75.6164	27.0996	70.8742	27.0996	76.5631	27.0996	71.0865	27.0996	77.4662	27.0996	71.3891	27.0996	78.2456	27.0996	71.7915	27.0996	78.7832	27.0996	72.299	27.0996	78.9888	27.0996	72.9107	27.0996	78.8492	27.0996	73.6187	27.0996	78.4156	27.0996	74.4074	27.0996	77.7666	27.0996	75.2535	27.0996	76.9807	27.0996	76.1251
27.832	71.8559	27.832	71.7013	27.832	72.0431	27.832	71.5697	27.832	72.2799	27.832	71.4575	27.832	72.5917	27.832	71.3651	27.832	73.0102	27.832	71.2964	27.832	73.566	27.832	71.2583	27.832	74.272	27.832	71.2598	27.832	75.1073	27.832	71.3123	27.832	76.0192	27.832	71.4286	27.832	76.9506	27.832	71.6222	27.832	77.8487	27.832	71.9059	27.832	78.6285	27.832	72.2899	27.832	79.1688	27.832	72.78	27.832	79.3781	27.832	73.3758	27.832	79.2429	27.832	74.0696	27.832	78.8145	27.832	74.846	27.832	78.1714	27.832	75.6816	27.832	77.3922	27.832	76.5443
29.2969	73.0485	29.2969	72.9113	29.2969	73.22	29.2969	72.7995	29.2969	73.4422	29.2969	72.7097	29.2969	73.7405	29.2969	72.6426	29.2969	74.1478	29.2969	72.602	29.2969	74.6973	29.2969	72.5941	29.2969	75.4054	29.2969	72.627	29.2969	76.2524	29.2969	72.7105	29.2969	77.1824	29.2969	72.8553	29.2969	78.13	29.2969	73.0725	29.2969	79.0344	29.2969	73.372	29.2969	79.8097	29.2969	73.762	29.2969	80.3427	29.2969	74.2468	29.2969	80.5505	29.2969	74.8258	29.2969	80.4241	29.2969	75.4926	29.2969	80.0154	29.2969	76.2339	29.2969	79.4012	29.2969	77.0295	29.2969	78.658	29.2969	77.8505
30.0293	73.7104	30.0293	73.5775	30.0293	73.8795	30.0293	73.4719	30.0293	74.1011	30.0293	73.39	30.0293	74.3996	30.0293	73.332	30.0293	74.8064	30.0293	73.3013	30.0293	75.3523	30.0293	73.3034	30.0293	76.0515	30.0293	73.3457	30.0293	76.884	30.0293	73.4369	30.0293	77.7955	30.0293	73.5869	30.0293	78.7233	30.0293	73.8055	30.0293	79.6078	30.0293	74.1021	30.0293	80.3652	30.0293	74.4841	30.0293	80.8849	30.0293	74.9559	30.0293	81.0864	30.0293	75.5173	30.0293	80.9614	30.0293	76.1629	30.0293	80.5608	30.0293	76.8809	30.0293	79.9605	30.0293	77.6523	30.0293	79.2357	30.0293	78.4497
31.4941	75.5576	31.4941	75.3998	31.4941	75.7505	31.4941	75.2702	31.4941	75.9907	31.4941	75.1658	31.4941	76.2958	31.4941	75.0867	31.4941	76.6884	31.4941	75.0353	31.4941	77.1902	31.4941	75.0158	31.4941	77.811	31.4941	75.0343	31.4941	78.5348	31.4941	75.0979	31.4941	79.3192	31.4941	75.2148	31.4941	80.1152	31.4941	75.3939	31.4941	80.8757	31.4941	75.6439	31.4941	81.5291	31.4941	75.9721	31.4941	81.9734	31.4941	76.3841	31.4941	82.1296	31.4941	76.8816	31.4941	81.9854	31.4941	77.4617	31.4941	81.5868	31.4941	78.1155	31.4941	81.0054	31.4941	78.8269	31.4941	80.3132	31.4941	79.5712
32.2266	76.1651	32.2266	76	32.2266	76.3617	32.2266	75.8607	32.2266	76.6001	32.2266	75.7453	32.2266	76.8961	32.2266	75.6544	32.2266	77.2706	32.2266	75.5907	32.2266	77.7451	32.2266	75.5587	32.2266	78.3316	32.2266	75.5644	32.2266	79.0183	32.2266	75.615	32.2266	79.7669	32.2266	75.7187	32.2266	80.5311	32.2266	75.8842	32.2266	81.2652	32.2266	76.1203	32.2266	81.899	32.2266	76.4344	32.2266	82.331	32.2266	76.832	32.2266	82.4817	32.2266	77.3151	32.2266	82.3373	32.2266	77.8811	32.2266	81.9424	32.2266	78.5213	32.2266	81.3675	32.2266	79.2199	32.2266	80.684	32.2266	79.9524
33.6914	77.4389	33.6914	77.2697	33.6914	77.6399	33.6914	77.1277	33.6914	77.8812	33.6914	77.0115	33.6914	78.176	33.6914	76.9218	33.6914	78.5422	33.6914	76.8612	33.6914	78.9987	33.6914	76.8338	33.6914	79.5571	33.6914	76.8447	33.6914	80.2085	33.6914	76.9002	33.6914	80.9196	33.6914	77.0074	33.6914	81.6469	33.6914	77.1737	33.6914	82.3451	33.6914	77.4064	33.6914	82.9457	33.6914	77.7119	33.6914	83.3526	33.6914	78.0949	33.6914	83.4909	33.6914	78.5572	33.6914	83.3481	33.6914	79.0964	33.6914	82.9672	33.6914	79.7051	33.6914	82.4161	33.6914	80.369	33.6914	81.763	33.6914	81.0658
34.4238	78.0512	34.4238	77.8817	34.4238	78.2514	34.4238	77.7389	34.4238	78.4898	34.4238	77.6217	34.4238	78.7786	34.4238	77.5311	34.4238	79.1346	34.4238	77.4696	34.4238	79.5763	34.4238	77.441	34.4238	80.1159	34.4238	77.4504	34.4238	80.7463	34.4238	77.5036	34.4238	81.4361	34.4238	77.6071	34.4238	82.1422	34.4238	77.7681	34.4238	82.8193	34.4238	77.9933	34.4238	83.4003	34.4238	78.289	34.4238	83.7924	34.4238	78.6595	34.4238	83.9226	34.4238	79.1068	34.4238	83.7789	34.4238	79.629	34.4238	83.4033	34.4238	80.2193	34.4238	82.8624	34.4238	80.8644	34.4238	82.2234	34.4238	81.5429
35.8887	78.9926	35.8887	78.8222	35.8887	79.1927	35.8887	78.6786	35.8887	79.4287	35.8887	78.561	35.8887	79.7113	35.8887	78.4707	35.8887	80.0552	35.8887	78.4102	35.8887	80.478	35.8887	78.3832	35.8887	80.9925	35.8887	78.3941	35.8887	81.5948	35.8887	78.4485	35.8887	82.2579	35.8887	78.5523	35.8887	82.9415	35.8887	78.7117	35.8887	83.5999	35.8887	78.933	35.8887	84.1656	35.8887	79.2217	35.8887	84.5473	35.8887	79.5818	35.8887	84.6739	35.8887	80.0152	35.8887	84.5342	35.8887	80.52	35.8887	84.1696	35.8887	81.0901	35.8887	83.6452	35.8887	81.7129	35.8887	83.0265	35.8887	82.3684
37.3535	80.1354	37.3535	79.9584	37.3535	80.3445	37.3535	79.811	37.3535	80.5908	37.3535	79.6927	37.3535	80.8834	37.3535	79.6047	37.3535	81.2352	37.3535	79.5491	37.3535	81.6617	37.3535	79.5292	37.3535	82.1743	37.3535	79.5487	37.3535	82.7694	37.3535	79.612	37.3535	83.4205	37.3535	79.7241	37.3535	84.0851	37.3535	79.89	37.3535	84.7137	37.3535	80.1144	37.3535	85.2402	37.3535	80.4018	37.3535	85.5823	37.3535	80.7553	37.3535	85.6801	37.3535	81.176	37.3535	85.5273	37.3535	81.6622	37.3535	85.1652	37.3535	82.2085	37.3535	84.6557	37.3535	82.8038	37.3535	84.0603	37.3535	83.4302
38.8184	81.1802	38.8184	80.9958	38.8184	81.3945	38.8184	80.84	38.8184	81.6422	38.8184	80.7128	38.8184	81.9297	38.8184	80.6154	38.8184	82.2666	38.8184	80.5499	38.8184	82.6646	38.8184	80.5191	38.8184	83.1331	38.8184	80.5264	38.8184	83.6693	38.8184	80.5757	38.8184	84.251	38.8184	80.6713	38.8184	84.8426	38.8184	80.8177	38.8184	85.4027	38.8184	81.0195	38.8184	85.8742	38.8184	81.2807	38.8184	86.1807	38.8184	81.6045	38.8184	86.2624	38.8184	81.9926	38.8184	86.1096	38.8184	82.4439	38.8184	85.7595	38.8184	82.9539	38.8184	85.2707	38.8184	83.5129	38.8184	84.7026	38.8184	84.1044
39.5508	81.4063	39.5508	81.2194	39.5508	81.6221	39.5508	81.0605	39.5508	81.8698	39.5508	80.9303	39.5508	82.1547	39.5508	80.8302	39.5508	82.486	39.5508	80.7624	39.5508	82.8754	39.5508	80.7298	39.5508	83.3331	39.5508	80.7358	39.5508	83.8584	39.5508	80.7842	39.5508	84.431	39.5508	80.8793	39.5508	85.0164	39.5508	81.0253	39.5508	85.573	39.5508	81.2265	39.5508	86.0426	39.5508	81.4869	39.5508	86.3483	39.5508	81.8093	39.5508	86.4301	39.5508	82.1953	39.5508	86.2788	39.5508	82.6436	39.5508	85.9315	39.5508	83.1498	39.5508	85.4469	39.5508	83.7043	39.5508	84.8837	39.5508	84.2907
41.0156	82.0553	41.0156	81.8687	41.0156	82.2727	41.0156	81.712	41.0156	82.5232	41.0156	81.5858	41.0156	82.812	41.0156	81.4913	41.0156	83.1474	41.0156	81.4306	41.0156	83.5402	41.0156	81.4061	41.0156	83.9992	41.0156	81.4208	41.0156	84.5224	41.0156	81.4778	41.0156	85.0885	41.0156	81.5807	41.0156	85.6621	41.0156	81.7329	41.0156	86.201	41.0156	81.9381	41.0156	86.6491	41.0156	82.1992	41.0156	86.9352	41.0156	82.5188	41.0156	87.0054	41.0156	82.8977	41.0156	86.8527	41.0156	83.3348	41.0156	86.5135	41.0156	83.8258	41.0156	86.0439	41.0156	84.3619	41.0156	85.4999	41.0156	84.9278
42.4805	82.9985	42.4805	82.8034	42.4805	83.2238	42.4805	82.6384	42.4805	83.4805	42.4805	82.5046	42.4805	83.7718	42.4805	82.4033	42.4805	84.1036	42.4805	82.3365	42.4805	84.484	42.4805	82.3066	42.4805	84.9202	42.4805	82.316	42.4805	85.4102	42.4805	82.3675	42.4805	85.9354	42.4805	82.4643	42.4805	86.4641	42.4805	82.6095	42.4805	86.9585	42.4805	82.8059	42.4805	87.3683	42.4805	83.0564	42.4805	87.6276	42.4805	83.3629	42.4805	87.6845	42.4805	83.7262	42.4805	87.5308	42.4805	84.1452	42.4805	87.2004	42.4805	84.6159	42.4805	86.7466	42.4805	85.1298	42.4805	86.2227	42.4805	85.6729
43.9453	83.6879	43.9453	83.4802	43.9453	83.9248	43.9453	83.3027	43.9453	84.1909	43.9453	83.1568	43.9453	84.4877	43.9453	83.0445	43.9453	84.8188	43.9453	82.9678	43.9453	85.1901	43.9453	82.929	43.9453	85.6073	43.9453	82.9305	43.9453	86.069	43.9453	82.975	43.9453	86.5589	43.9453	83.0652	43.9453	87.0485	43.9453	83.2038	43.9453	87.5037	43.9453	83.3934	43.9453	87.8782	43.9453	83.6362	43.9453	88.1106	43.9453	83.9339	43.9453	88.1512	43.9453	84.2868	43.9453	87.9921	43.9453	84.6937	43.9453	87.6651	43.9453	85.1505	43.9453	87.221	43.9453	85.6493	43.9453	86.7107	43.9453	86.1765
45.4102	84.017	45.4102	83.8146	45.4102	84.2491	45.4102	83.6434	45.4102	84.5102	45.4102	83.5052	45.4102	84.801	45.4102	83.4022	45.4102	85.1249	45.4102	83.3363	45.4102	85.488	45.4102	83.3098	45.4102	85.8978	45.4102	83.3246	45.4102	86.356	45.4102	83.383	45.4102	86.8496	45.4102	83.4871	45.4102	87.351	45.4102	83.6388	45.4102	87.823	45.4102	83.84	45.4102	88.2147	45.4102	84.0922	45.4102	88.4621	45.4102	84.3962	45.4102	88.5162	45.4102	84.7521	45.4102	88.3707	45.4102	85.158	45.4102	88.0585	45.4102	85.6099	45.4102	87.6299	45.4102	86.1	45.4102	87.1352	45.4102	86.6153
47.6074	84.9409	47.6074	84.7313	47.6074	85.1812	47.6074	84.5544	47.6074	85.4506	47.6074	84.4123	47.6074	85.7484	47.6074	84.3068	47.6074	86.0761	47.6074	84.24	47.6074	86.4377	47.6074	84.2136	47.6074	86.8385	47.6074	84.2292	47.6074	87.2789	47.6074	84.2884	47.6074	87.7463	47.6074	84.3927	47.6074	88.214	47.6074	84.5433	47.6074	88.6464	47.6074	84.7415	47.6074	88.9971	47.6074	84.988	47.6074	89.2101	47.6074	85.2833	47.6074	89.2431	47.6074	85.6267	47.6074	89.0916	47.6074	86.0166	47.6074	88.7866	47.6074	86.4488	47.6074	88.3747	47.6074	86.9163	47.6074	87.9023	47.6074	87.407
49.0723	85.4116	49.0723	85.203	49.0723	85.6512	49.0723	85.028	49.0723	85.92	49.0723	84.8886	49.0723	86.2165	49.0723	84.7868	49.0723	86.5415	49.0723	84.7245	49.0723	86.8984	49.0723	84.7031	49.0723	87.2927	49.0723	84.724	49.0723	87.7257	49.0723	84.7882	49.0723	88.1855	49.0723	84.8968	49.0723	88.6455	49.0723	85.0507	49.0723	89.0687	49.0723	85.2504	49.0723	89.4089	49.0723	85.4964	49.0723	89.6126	49.0723	85.7886	49.0723	89.6408	49.0723	86.1263	49.0723	89.4911	49.0723	86.5075	49.0723	89.1938	49.0723	86.9283	49.0723	88.7943	49.0723	87.3821	49.0723	88.3369	49.0723	87.8575
50.5371	85.8068	50.5371	85.596	50.5371	86.049	50.5371	85.4192	50.5371	86.3202	50.5371	85.279	50.5371	86.6182	50.5371	85.1771	50.5371	86.943	50.5371	85.1154	50.5371	87.297	50.5371	85.0952	50.5371	87.6851	50.5371	85.1174	50.5371	88.1085	50.5371	85.1829	50.5371	88.5562	50.5371	85.2924	50.5371	89.0015	50.5371	85.4464	50.5371	89.4081	50.5371	85.6451	50.5371	89.7313	50.5371	85.8885	50.5371	89.9209	50.5371	86.1765	50.5371	89.941	50.5371	86.508	50.5371	89.7901	50.5371	86.8811	50.5371	89.4979	50.5371	87.2918	50.5371	89.1079	50.5371	87.7338	50.5371	88.6627	50.5371	88.1963
52.7344	86.4369	52.7344	86.2224	52.7344	86.6835	52.7344	86.0429	52.7344	86.9586	52.7344	85.9011	52.7344	87.2594	52.7344	85.7991	52.7344	87.5842	52.7344	85.7383	52.7344	87.934	52.7344	85.7198	52.7344	88.3122	52.7344	85.7443	52.7344	88.7199	52.7344	85.8121	52.7344	89.1469	52.7344	85.9235	52.7344	89.5683	52.7344	86.0784	52.7344	89.9494	52.7344	86.2764	52.7344	90.2486	52.7344	86.5173	52.7344	90.4198	52.7344	86.8002	52.7344	90.4309	52.7344	87.1237	52.7344	90.2811	52.7344	87.4858	52.7344	89.9987	52.7344	87.8826	52.7344	89.6245	52.7344	88.3078	52.7344	89.1981	52.7344	88.7515
54.1992	86.8624	54.1992	86.6421	54.1992	87.1141	54.1992	86.4568	54.1992	87.3933	54.1992	86.3093	54.1992	87.696	54.1992	86.2018	54.1992	88.0193	54.1992	86.1359	54.1992	88.3629	54.1992	86.1125	54.1992	88.729	54.1992	86.1322	54.1992	89.1185	54.1992	86.1953	54.1992	89.5218	54.1992	86.3015	54.1992	89.9157	54.1992	86.4506	54.1992	90.2674	54.1992	86.6422	54.1992	90.5385	54.1992	86.8756	54.1992	90.6874	54.1992	87.1497	54.1992	90.6848	54.1992	87.4633	54.1992	90.5306	54.1992	87.8139	54.1992	90.2514	54.1992	88.198	54.1992	89.8859	54.1992	88.6095	54.1992	89.4717	54.1992	89.039
56.3965	87.3857	56.3965	87.1605	56.3965	87.6427	56.3965	86.9712	56.3965	87.9267	56.3965	86.8209	56.3965	88.2327	56.3965	86.7119	56.3965	88.5565	56.3965	86.6457	56.3965	88.8967	56.3965	86.6232	56.3965	89.2548	56.3965	86.6447	56.3965	89.6319	56.3965	86.7099	56.3965	90.0199	56.3965	86.8185	56.3965	90.3967	56.3965	86.9697	56.3965	90.7305	56.3965	87.1624	56.3965	90.9844	56.3965	87.3956	56.3965	91.1198	56.3965	87.6679	56.3965	91.1105	56.3965	87.9774	56.3965	90.9573	56.3965	88.3217	56.3965	90.6857	56.3965	88.6969	56.3965	90.3321	56.3965	89.0972	56.3965	89.932	56.3965	89.5135
58.5938	87.845	58.5938	87.6131	58.5938	88.109	58.5938	87.418	58.5938	88.3995	58.5938	87.2631	58.5938	88.7104	58.5938	87.1508	58.5938	89.0364	58.5938	87.0826	58.5938	89.3742	58.5938	87.0592	58.5938	89.7244	58.5938	87.0805	58.5938	90.0876	58.5938	87.1461	58.5938	90.4566	58.5938	87.2551	58.5938	90.8102	58.5938	87.4061	58.5938	91.1177	58.5938	87.598	58.5938	91.3457	58.5938	87.8289	58.5938	91.4605	58.5938	88.0973	58.5938	91.4399	58.5938	88.4008	58.5938	91.2852	58.5938	88.7369	58.5938	91.0203	58.5938	89.1015	58.5938	90.679	58.5938	89.4889	58.5938	90.2937	58.5938	89.8907
60.0586	88.1142	60.0586	87.8781	60.0586	88.3827	60.0586	87.6793	60.0586	88.6775	60.0586	87.5215	60.0586	88.9917	60.0586	87.4071	60.0586	89.3191	60.0586	87.3376	60.0586	89.6554	60.0586	87.3135	60.0586	90.0003	60.0586	87.3347	60.0586	90.3541	60.0586	87.4005	60.0586	90.71	60.0586	87.5096	60.0586	91.0478	60.0586	87.6606	60.0586	91.3383	60.0586	87.8518	60.0586	91.5504	60.0586	88.0814	60.0586	91.6531	60.0586	88.3472	60.0586	91.6262	60.0586	88.6471	60.0586	91.4713	60.0586	88.978	60.0586	91.211	60.0586	89.336	60.0586	90.8775	60.0586	89.7155	60.0586	90.5015	60.0586	90.1082
62.2559	88.4452	62.2559	88.203	62.2559	88.7203	62.2559	87.999	62.2559	89.0212	62.2559	87.8373	62.2559	89.34	62.2559	87.7204	62.2559	89.6688	62.2559	87.6498	62.2559	90.0022	62.2559	87.6259	62.2559	90.3387	62.2559	87.6482	62.2559	90.6789	62.2559	87.7156	62.2559	91.0177	62.2559	87.8265	62.2559	91.3369	62.2559	87.9791	62.2559	91.6088	62.2559	88.1712	62.2559	91.8039	62.2559	88.4006	62.2559	91.8942	62.2559	88.6648	62.2559	91.8616	62.2559	88.9612	62.2559	91.7081	62.2559	89.2867	62.2559	91.455	62.2559	89.6371	62.2559	91.1324	62.2559	90.007	62.2559	90.769	62.2559	90.3882
64.4531	88.7134	64.4531	88.4668	64.4531	88.9932	64.4531	88.2595	64.4531	89.2986	64.4531	88.0957	64.4531	89.6205	64.4531	87.9782	64.4531	89.95	64.4531	87.9083	64.4531	90.2802	64.4531	87.8863	64.4531	90.609	64.4531	87.9112	64.4531	90.9375	64.4531	87.9818	64.4531	91.2622	64.4531	88.096	64.4531	91.5662	64.4531	88.2514	64.4531	91.8231	64.4531	88.4456	64.4531	92.0049	64.4531	88.6758	64.4531	92.0862	64.4531	88.9394	64.4531	92.0508	64.4531	89.2332	64.4531	91.9011	64.4531	89.5539	64.4531	91.657	64.4531	89.8973	64.4531	91.3463	64.4531	90.2579	64.4531	90.9961	64.4531	90.6279
66.6504	88.9094	66.6504	88.6628	66.6504	89.1899	66.6504	88.4564	66.6504	89.4962	66.6504	88.2946	66.6504	89.8186	66.6504	88.1801	66.6504	90.1475	66.6504	88.1139	66.6504	90.4752	66.6504	88.0962	66.6504	90.7994	66.6504	88.1257	66.6504	91.1213	66.6504	88.2008	66.6504	91.4383	66.6504	88.3191	66.6504	91.734	66.6504	88.4778	66.6504	91.9818	66.6504	88.6741	66.6504	92.1549	66.6504	88.9051	66.6504	92.2301	66.6504	89.1677	66.6504	92.1936	66.6504	89.4587	66.6504	92.0483	66.6504	89.7745	66.6504	91.8132	66.6504	90.1108	66.6504	91.5144	66.6504	90.4623	66.6504	91.1769	66.6504	90.8212
69.5801	89.2866	69.5801	89.031	69.5801	89.5761	69.5801	88.8164	69.5801	89.8907	69.5801	88.6475	69.5801	90.2193	69.5801	88.5272	69.5801	90.5506	69.5801	88.4567	69.5801	90.8753	69.5801	88.4358	69.5801	91.1893	69.5801	88.4631	69.5801	91.4935	69.5801	88.5367	69.5801	91.7862	69.5801	88.6537	69.5801	92.0532	69.5801	88.8111	69.5801	92.2708	69.5801	89.0056	69.5801	92.416	69.5801	89.2338	69.5801	92.4701	69.5801	89.4922	69.5801	92.4224	69.5801	89.7774	69.5801	92.2761	69.5801	90.0855	69.5801	92.048	69.5801	90.4121	69.5801	91.7613	69.5801	90.7517	69.5801	91.4382	69.5801	91.0971
71.7773	89.4745	71.7773	89.2145	71.7773	89.7684	71.7773	88.9956	71.7773	90.0864	71.7773	88.8231	71.7773	90.4168	71.7773	88.6998	71.7773	90.747	71.7773	88.6271	71.7773	91.0667	71.7773	88.6046	71.7773	91.371	71.7773	88.6308	71.7773	91.6612	71.7773	88.7035	71.7773	91.9368	71.7773	88.8196	71.7773	92.1855	71.7773	88.9758	71.7773	92.3847	71.7773	89.1685	71.7773	92.513	71.7773	89.3941	71.7773	92.5545	71.7773	89.6489	71.7773	92.5007	71.7773	89.9292	71.7773	92.3552	71.7773	90.231	71.7773	92.1334	71.7773	90.5498	71.7773	91.8563	71.7773	90.88	71.7773	91.5445	71.7773	91.2148
73.9746	89.7138	73.9746	89.4456	73.9746	90.0158	73.9746	89.2192	73.9746	90.3411	73.9746	89.0401	73.9746	90.6767	73.9746	88.9115	73.9746	91.009	73.9746	88.8348	73.9746	91.3261	73.9746	88.8095	73.9746	91.6221	73.9746	88.834	73.9746	91.8981	73.9746	88.9058	73.9746	92.1547	73.9746	89.0215	73.9746	92.3814	73.9746	89.1774	73.9746	92.5577	73.9746	89.3696	73.9746	92.6654	73.9746	89.594	73.9746	92.6921	73.9746	89.8469	73.9746	92.6314	73.9746	90.124	73.9746	92.4865	73.9746	90.4212	73.9746	92.2709	73.9746	90.7339	73.9746	92.0031	73.9746	91.0565	73.9746	91.7016	73.9746	91.3821
76.9043	89.8745	76.9043	89.6029	76.9043	90.1811	76.9043	89.3746	76.9043	90.5112	76.9043	89.1955	76.9043	90.8509	76.9043	89.0688	76.9043	91.1852	76.9043	88.9956	76.9043	91.5011	76.9043	88.9752	76.9043	91.792	76.9043	89.0056	76.9043	92.0591	76.9043	89.0837	76.9043	92.3044	76.9043	89.2057	76.9043	92.5189	76.9043	89.3674	76.9043	92.6838	76.9043	89.5644	76.9043	92.7826	76.9043	89.7924	76.9043	92.8053	76.9043	90.047	76.9043	92.7468	76.9043	90.3239	76.9043	92.6099	76.9043	90.6186	76.9043	92.4063	76.9043	90.9263	76.9043	92.1522	76.9043	91.2414	76.9043	91.8644	76.9043	91.557
79.834	90.0312	79.834	89.7541	79.834	90.3437	79.834	89.5213	79.834	90.6794	79.834	89.3389	79.834	91.0236	79.834	89.2103	79.834	91.36	79.834	89.1364	79.834	91.6745	79.834	89.1165	79.834	91.9595	79.834	89.1482	79.834	92.2161	79.834	89.2281	79.834	92.4474	79.834	89.3521	79.834	92.6459	79.834	89.5156	79.834	92.7941	79.834	89.7139	79.834	92.8779	79.834	89.9424	79.834	92.8902	79.834	90.1965	79.834	92.8281	79.834	90.4715	79.834	92.6941	79.834	90.7628	79.834	92.4982	79.834	91.0653	79.834	92.2544	79.834	91.3734	79.834	91.9774	79.834	91.6802
82.7637	90.1669	82.7637	89.8816	82.7637	90.4874	82.7637	89.6413	82.7637	90.8303	82.7637	89.4522	82.7637	91.1798	82.7637	89.318	82.7637	91.5185	82.7637	89.2399	82.7637	91.8307	82.7637	89.2169	82.7637	92.1077	82.7637	89.2465	82.7637	92.35	82.7637	89.3249	82.7637	92.5611	82.7637	89.4478	82.7637	92.735	82.7637	89.6103	82.7637	92.8571	82.7637	89.8074	82.7637	92.9173	82.7637	90.0341	82.7637	92.9127	82.7637	90.2855	82.7637	92.8429	82.7637	90.5567	82.7637	92.7098	82.7637	90.8429	82.7637	92.5209	82.7637	91.1387	82.7637	92.2873	82.7637	91.4385	82.7637	92.0217	82.7637	91.7355
85.6934	90.2464	85.6934	89.952	85.6934	90.577	85.6934	89.7039	85.6934	90.9298	85.6934	89.5092	85.6934	91.2878	85.6934	89.3715	85.6934	91.632	85.6934	89.292	85.6934	91.9451	85.6934	89.2696	85.6934	92.2169	85.6934	89.3012	85.6934	92.4475	85.6934	89.383	85.6934	92.6414	85.6934	89.5098	85.6934	92.7956	85.6934	89.6764	85.6934	92.8986	85.6934	89.8773	85.6934	92.9439	85.6934	90.1073	85.6934	92.9315	85.6934	90.3609	85.6934	92.8612	85.6934	90.6331	85.6934	92.7338	85.6934	90.9187	85.6934	92.5541	85.6934	91.2121	85.6934	92.3311	85.6934	91.5074	85.6934	92.0755	85.6934	91.7979
88.623	90.2871	88.623	89.9846	88.623	90.6266	88.623	89.7298	88.623	90.9884	88.623	89.53	88.623	91.3545	88.623	89.389	88.623	91.7049	88.623	89.308	88.623	92.0211	88.623	89.2855	88.623	92.2917	88.623	89.3185	88.623	92.5167	88.623	89.4024	88.623	92.7013	88.623	89.532	88.623	92.8439	88.623	89.7018	88.623	92.9344	88.623	89.9059	88.623	92.9679	88.623	90.1387	88.623	92.9466	88.623	90.3947	88.623	92.8723	88.623	90.6684	88.623	92.7455	88.623	90.9546	88.623	92.5696	88.623	91.2474	88.623	92.3518	88.623	91.5409	88.623	92.1014	88.623	91.8282
91.5527	90.238	91.5527	89.928	91.5527	90.5859	91.5527	89.6672	91.5527	90.9563	91.5527	89.4632	91.5527	91.3301	91.5527	89.32	91.5527	91.686	91.5527	89.2385	91.5527	92.0039	91.5527	89.2171	91.5527	92.2714	91.5527	89.2522	91.5527	92.4877	91.5527	89.3392	91.5527	92.659	91.5527	89.4722	91.5527	92.7854	91.5527	89.6453	91.5527	92.8594	91.5527	89.8524	91.5527	92.8789	91.5527	90.0877	91.5527	92.8491	91.5527	90.3452	91.5527	92.7731	91.5527	90.6195	91.5527	92.6505	91.5527	90.9047	91.5527	92.4823	91.5527	91.1952	91.5527	92.2735	91.5527	91.4846	91.5527	92.0319	91.5527	91.7661
94.4824	90.2168	94.4824	89.9024	94.4824	90.5691	94.4824	89.6378	94.4824	90.9433	94.4824	89.4307	94.4824	91.3195	94.4824	89.2855	94.4824	91.6754	94.4824	89.2029	94.4824	91.9901	94.4824	89.1813	94.4824	92.2505	94.4824	89.2169	94.4824	92.4563	94.4824	89.3048	94.4824	92.6149	94.4824	89.4389	94.4824	92.728	94.4824	89.613	94.4824	92.7893	94.4824	89.8209	94.4824	92.7981	94.4824	90.0564	94.4824	92.762	94.4824	90.3135	94.4824	92.6853	94.4824	90.5865	94.4824	92.5671	94.4824	90.8694	94.4824	92.4066	94.4824	91.1563	94.4824	92.2067	94.4824	91.4408	94.4824	91.9739	94.4824	91.7158
98.1445	90.1684	98.1445	89.8431	98.1445	90.5325	98.1445	89.5693	98.1445	90.9185	98.1445	89.3553	98.1445	91.3051	98.1445	89.2055	98.1445	91.6685	98.1445	89.1207	98.1445	91.9862	98.1445	89.099	98.1445	92.2434	98.1445	89.1362	98.1445	92.4385	98.1445	89.2268	98.1445	92.5792	98.1445	89.3645	98.1445	92.6696	98.1445	89.5426	98.1445	92.7073	98.1445	89.7544	98.1445	92.697	98.1445	89.9934	98.1445	92.6505	98.1445	90.2533	98.1445	92.5729	98.1445	90.528	98.1445	92.4611	98.1445	90.8113	98.1445	92.3105	98.1445	91.0969	98.1445	92.1214	98.1445	91.3782	98.1445	91.8982	98.1445	91.6478
101.807	90.0508	101.807	89.7238	101.807	90.4174	101.807	89.4493	101.807	90.806	101.807	89.2357	101.807	91.1948	101.807	89.0875	101.807	91.5591	101.807	89.0053	101.807	91.8754	101.807	88.9871	101.807	92.1283	101.807	89.0285	101.807	92.3166	101.807	89.1239	101.807	92.45	101.807	89.2667	101.807	92.5352	101.807	89.45	101.807	92.5719	101.807	89.6671	101.807	92.5653	101.807	89.9112	101.807	92.5266	101.807	90.176	101.807	92.4603	101.807	90.455	101.807	92.3609	101.807	90.7417	101.807	92.2221	101.807	91.0295	101.807	92.0425	101.807	91.3114	101.807	91.826	101.807	91.5796
105.469	90.0101	105.469	89.6545	105.469	90.4046	105.469	89.3521	105.469	90.8187	105.469	89.1127	105.469	91.2287	105.469	88.9417	105.469	91.6082	105.469	88.8405	105.469	91.9317	105.469	88.807	105.469	92.1813	105.469	88.8369	105.469	92.3535	105.469	88.9241	105.469	92.4567	105.469	89.0617	105.469	92.499	105.469	89.2423	105.469	92.4855	105.469	89.4586	105.469	92.431	105.469	89.7034	105.469	92.3559	105.469	89.9697	105.469	92.268	105.469	90.2508	105.469	92.1593	105.469	90.5397	105.469	92.0186	105.469	90.8294	105.469	91.8402	105.469	91.1122	105.469	91.6256	105.469	91.3804
109.131	89.9246	109.131	89.5892	109.131	90.3002	109.131	89.308	109.131	90.6971	109.131	89.09	109.131	91.0915	109.131	88.9399	109.131	91.4564	109.131	88.8584	109.131	91.7656	109.131	88.8429	109.131	92.0008	109.131	88.8889	109.131	92.1598	109.131	88.9903	109.131	92.2555	109.131	89.1401	109.131	92.303	109.131	89.3312	109.131	92.3126	109.131	89.5564	109.131	92.2979	109.131	89.8086	109.131	92.2722	109.131	90.081	109.131	92.2345	109.131	90.3665	109.131	92.1707	109.131	90.6579	109.131	92.0665	109.131	90.9476	109.131	91.9158	109.131	91.2274	109.131	91.7207	109.131	91.4882
112.793	89.9813	112.793	89.6318	112.793	90.3688	112.793	89.3351	112.793	90.775	112.793	89.1011	112.793	91.176	112.793	88.9354	112.793	91.5451	112.793	88.8395	112.793	91.8566	112.793	88.8116	112.793	92.0936	112.793	88.8476	112.793	92.2553	112.793	88.9416	112.793	92.3556	112.793	89.0866	112.793	92.4079	112.793	89.2754	112.793	92.4176	112.793	89.5006	112.793	92.3944	112.793	89.755	112.793	92.3525	112.793	90.0313	112.793	92.2956	112.793	90.3224	112.793	92.2133	112.793	90.6207	112.793	92.0928	112.793	90.9183	112.793	91.9282	112.793	91.207	112.793	91.721	112.793	91.4776
116.455	89.8978	116.455	89.529	116.455	90.3035	116.455	89.2127	116.455	90.7254	116.455	88.9602	116.455	91.1387	116.455	88.7779	116.455	91.5157	116.455	88.6681	116.455	91.8299	116.455	88.6292	116.455	92.0634	116.455	88.6572	116.455	92.2144	116.455	88.7459	116.455	92.2966	116.455	88.8882	116.455	92.3243	116.455	89.0763	116.455	92.3055	116.455	89.3027	116.455	92.2543	116.455	89.5595	116.455	92.1905	116.455	89.8391	116.455	92.1205	116.455	90.1339	116.455	92.033	116.455	90.4359	116.455	91.9122	116.455	90.7368	116.455	91.7489	116.455	91.0278	116.455	91.5428	116.455	91.2996
120.85	89.8516	120.85	89.4734	120.85	90.2659	120.85	89.1485	120.85	90.6946	120.85	88.8888	120.85	91.1114	120.85	88.7015	120.85	91.4873	120.85	88.589	120.85	91.7941	120.85	88.55	120.85	92.0127	120.85	88.58	120.85	92.141	120.85	88.6726	120.85	92.1953	120.85	88.8205	120.85	92.1966	120.85	89.0157	120.85	92.1615	120.85	89.2501	120.85	92.1103	120.85	89.5157	120.85	92.063	120.85	89.8045	120.85	92.02	120.85	90.1083	120.85	91.9619	120.85	90.4184	120.85	91.8669	120.85	90.7256	120.85	91.7229	120.85	91.0201	120.85	91.529	120.85	91.2915
125.244	89.8063	125.244	89.4087	125.244	90.2395	125.244	89.0643	125.244	90.6858	125.244	88.786	125.244	91.1185	125.244	88.5817	125.244	91.5084	125.244	88.4547	125.244	91.8268	125.244	88.4041	125.244	92.0535	125.244	88.426	125.244	92.1854	125.244	88.5141	125.244	92.2387	125.244	88.6611	125.244	92.236	125.244	88.8592	125.244	92.1964	125.244	89.1	125.244	92.141	125.244	89.3754	125.244	92.0891	125.244	89.6769	125.244	92.0406	125.244	89.9958	125.244	91.9754	125.244	90.3229	125.244	91.8707	125.244	90.6483	125.244	91.7142	125.244	90.9614	125.244	91.5053	125.244	91.2509
129.639	89.7071	129.639	89.2872	129.639	90.1592	129.639	88.9187	129.639	90.6203	129.639	88.6159	129.639	91.0632	129.639	88.3882	129.639	91.458	129.639	88.2403	129.639	91.776	129.639	88.1722	129.639	91.9962	129.639	88.1806	129.639	92.1157	129.639	88.2595	129.639	92.1517	129.639	88.4016	129.639	92.1303	129.639	88.5987	129.639	92.0741	129.639	88.8424	129.639	92.0058	129.639	89.1241	129.639	91.9453	129.639	89.4348	129.639	91.8918	129.639	89.7651	129.639	91.8234	129.639	90.1051	129.639	91.7152	129.639	90.444	129.639	91.5534	129.639	90.7703	129.639	91.3366	129.639	91.072
134.033	89.5624	134.033	89.1087	134.033	90.0482	134.033	88.7082	134.033	90.5406	134.033	88.3771	134.033	91.0107	134.033	88.1263	134.033	91.4268	134.033	87.9612	134.033	91.7586	134.033	87.8818	134.033	91.9837	134.033	87.8846	134.033	92.098	134.033	87.9631	134.033	92.1207	134.033	88.1092	134.033	92.082	134.033	88.3145	134.033	92.0098	134.033	88.57	134.033	91.9296	134.033	88.8665	134.033	91.8614	134.033	89.1948	134.033	91.8029	134.033	89.5446	134.033	91.7298	134.033	89.9054	134.033	91.6151	134.033	90.2654	134.033	91.4437	134.033	90.6122	134.033	91.2138	134.033	90.9327
138.428	89.2828	138.428	88.8178	138.428	89.7814	138.428	88.4077	138.428	90.2877	138.428	88.0687	138.428	90.7725	138.428	87.8118	138.428	91.2039	138.428	87.6418	138.428	91.5508	138.428	87.5587	138.428	91.7893	138.428	87.5587	138.428	91.9139	138.428	87.6353	138.428	91.9427	138.428	87.7809	138.428	91.9073	138.428	87.9875	138.428	91.8372	138.428	88.2469	138.428	91.7586	138.428	88.5504	138.428	91.6907	138.428	88.8888	138.428	91.6308	138.428	89.2519	138.428	91.5538	138.428	89.6284	138.428	91.432	138.428	90.0059	138.428	91.25	138.428	90.3708	138.428	91.0064	138.428	90.7091
143.555	89.0549	143.555	88.5916	143.555	89.5486	143.555	88.1799	143.555	90.0474	143.555	87.8364	143.555	90.5225	143.555	87.5719	143.555	90.9428	143.555	87.392	143.555	91.2771	143.555	87.2968	143.555	91.501	143.555	87.2831	143.555	91.6068	143.555	87.3451	143.555	91.6117	143.555	87.4762	143.555	91.55	143.555	87.6693	143.555	91.4577	143.555	87.9172	143.555	91.3659	143.555	88.2119	143.555	91.2955	143.555	88.5447	143.555	91.2419	143.555	88.9051	143.555	91.1763	143.555	89.2813	143.555	91.0668	143.555	89.6598	143.555	90.8949	143.555	90.0258	143.555	90.6579	143.555	90.3636
148.682	88.9791	148.682	88.5135	148.682	89.4668	148.682	88.0926	148.682	89.9508	148.682	87.7343	148.682	90.4022	148.682	87.4511	148.682	90.7901	148.682	87.25	148.682	91.0839	148.682	87.1324	148.682	91.2595	148.682	87.0956	148.682	91.3103	148.682	87.135	148.682	91.2579	148.682	87.2447	148.682	91.1468	148.682	87.4186	148.682	91.0245	148.682	87.6504	148.682	90.9277	148.682	87.933	148.682	90.8734	148.682	88.2578	148.682	90.848	148.682	88.6142	148.682	90.8136	148.682	88.9894	148.682	90.7317	148.682	89.3683	148.682	90.5806	148.682	89.7343	148.682	90.3569	148.682	90.0697
153.809	88.9834	153.809	88.5356	153.809	89.4479	153.809	88.1266	153.809	89.9039	153.809	87.7738	153.809	90.3233	153.809	87.4897	153.809	90.6757	153.809	87.2809	153.809	90.9304	153.809	87.1492	153.809	91.0629	153.809	87.0926	153.809	91.0667	153.809	87.1073	153.809	90.9674	153.809	87.189	153.809	90.8194	153.809	87.3336	153.809	90.681	153.809	87.5367	153.809	90.591	153.809	87.7932	153.809	90.5591	153.809	88.096	153.809	90.5618	153.809	88.4355	153.809	90.5536	153.809	88.7986	153.809	90.4926	153.809	89.1696	153.809	90.3561	153.809	89.5302	153.809	90.142	153.809	89.8609
159.668	89.2187	159.668	88.7903	159.668	89.6496	159.668	88.3876	159.668	90.0578	159.668	88.0303	159.668	90.4165	159.668	87.7333	159.668	90.6986	159.668	87.5059	159.668	90.8781	159.668	87.3519	159.668	90.936	159.668	87.2709	159.668	90.873	159.668	87.2597	159.668	90.7237	159.668	87.3148	159.668	90.5535	159.668	87.4328	159.668	90.426	159.668	87.6101	159.668	90.372	159.668	87.8427	159.668	90.3854	159.668	88.1245	159.668	90.4297	159.668	88.4463	159.668	90.4547	159.668	88.7952	159.668	90.4184	159.668	89.155	159.668	90.3	159.668	89.5064	159.668	90.0991	159.668	89.8282
164.795	89.6369	164.795	89.2021	164.795	90.0586	164.795	88.7794	164.795	90.4407	164.795	88.3913	164.795	90.7563	164.795	88.0557	164.795	90.9789	164.795	87.7854	164.795	91.0852	164.795	87.5871	164.795	91.0615	164.795	87.4624	164.795	90.9172	164.795	87.4098	164.795	90.6984	164.795	87.4266	164.795	90.4812	164.795	87.5096	164.795	90.3324	164.795	87.656	164.795	90.2752	164.795	87.8619	164.795	90.2922	164.795	88.1214	164.795	90.3409	164.795	88.4253	164.795	90.37	164.795	88.7603	164.795	90.3383	164.795	89.1092	164.795	90.2255	164.795	89.4519	164.795	90.0307	164.795	89.7664
170.654	89.7996	170.654	89.294	170.654	90.2886	170.654	88.801	170.654	90.7309	170.654	88.3475	170.654	91.096	170.654	87.9559	170.654	91.3542	170.654	87.6415	170.654	91.478	170.654	87.4123	170.654	91.4488	170.654	87.2695	170.654	91.2714	170.654	87.2096	170.654	90.9912	170.654	87.2278	170.654	90.6933	170.654	87.3189	170.654	90.4629	170.654	87.4786	170.654	90.3416	170.654	87.7022	170.654	90.3184	170.654	87.983	170.654	90.347	170.654	88.3107	170.654	90.3686	170.654	88.6706	170.654	90.3345	170.654	89.0438	170.654	90.2185	170.654	89.4081	170.654	90.0167	170.654	89.7401
176.514	89.4415	176.514	88.9009	176.514	89.9672	176.514	88.375	176.514	90.4485	176.514	87.8912	176.514	90.8555	176.514	87.4725	176.514	91.1583	176.514	87.1345	176.514	91.3266	176.514	86.8845	176.514	91.3347	176.514	86.7224	176.514	91.1761	176.514	86.6433	176.514	90.8872	176.514	86.6415	176.514	90.556	176.514	86.7124	176.514	90.2828	176.514	86.8532	176.514	90.1191	176.514	87.0615	176.514	90.0507	176.514	87.333	176.514	90.0267	176.514	87.6592	176.514	89.9905	176.514	88.0265	176.514	89.899	176.514	88.4157	176.514	89.7306	176.514	88.8043	176.514	89.4831	176.514	89.1679
183.105	89.0252	183.105	88.5059	183.105	89.528	183.105	87.9998	183.105	89.9852	183.105	87.535	183.105	90.3689	183.105	87.1345	183.105	90.6512	183.105	86.813	183.105	90.8034	183.105	86.5759	183.105	90.7984	183.105	86.4209	183.105	90.6245	183.105	86.3417	183.105	90.3137	183.105	86.3318	183.105	89.96	183.105	86.3876	183.105	89.6789	183.105	86.5081	183.105	89.5275	183.105	86.6938	183.105	89.4814	183.105	86.943	183.105	89.4789	183.105	87.2493	183.105	89.4608	183.105	87.5995	183.105	89.3857	183.105	87.9742	183.105	89.2332	183.105	88.3495	183.105	89.0008	183.105	88.6998
189.697	89.3794	189.697	88.8994	189.697	89.8209	189.697	88.411	189.697	90.1961	189.697	87.9439	189.697	90.4803	189.697	87.5238	189.697	90.6517	189.697	87.1692	189.697	90.69	189.697	86.889	189.697	90.578	189.697	86.6839	189.697	90.3129	189.697	86.5491	189.697	89.9338	189.697	86.4789	189.697	89.5399	189.697	86.4696	189.697	89.2423	189.697	86.5203	189.697	89.0761	189.697	86.6318	189.697	88.9949	189.697	86.8035	189.697	88.9388	189.697	87.0303	189.697	88.8707	189.697	87.3008	189.697	88.7703	189.697	87.5973	189.697	88.6244	189.697	87.898	189.697	88.427	189.697	88.1809
196.289	89.6258	196.289	89.1312	196.289	90.0729	196.289	88.6227	196.289	90.4417	196.289	88.1337	196.289	90.705	196.289	87.6938	196.289	90.8387	196.289	87.3242	196.289	90.8209	196.289	87.0355	196.289	90.6335	196.289	86.8284	196.289	90.2737	196.289	86.6977	196.289	89.7848	196.289	86.6374	196.289	89.2812	196.289	86.6438	196.289	88.9038	196.289	86.7167	196.289	88.7156	196.289	86.8571	196.289	88.6796	196.289	87.0633	196.289	88.7261	196.289	87.3268	196.289	88.7955	196.289	87.6306	196.289	88.838	196.289	87.95	196.289	88.8156	196.289	88.2553	196.289	88.7085	196.289	88.5166
202.881	89.8065	202.881	89.3143	202.881	90.2345	202.881	88.7922	202.881	90.5668	202.881	88.2748	202.881	90.7747	202.881	87.7942	202.881	90.8319	202.881	87.3749	202.881	90.7145	202.881	87.0314	202.881	90.4043	202.881	86.7681	202.881	89.9071	202.881	86.5829	202.881	89.2925	202.881	86.4722	202.881	88.7262	202.881	86.4353	202.881	88.3993	202.881	86.4756	202.881	88.3709	202.881	86.5983	202.881	88.536	202.881	86.8054	202.881	88.7505	202.881	87.0906	202.881	88.9172	202.881	87.4358	202.881	88.9871	202.881	87.8128	202.881	88.9412	202.881	88.1864	202.881	88.7803	202.881	88.52
210.205	89.4476	210.205	88.8905	210.205	89.9369	210.205	88.2991	210.205	90.3297	210.205	87.7106	210.205	90.602	210.205	87.1615	210.205	90.7315	210.205	86.681	210.205	90.6935	210.205	86.2859	210.205	90.4605	210.205	85.9794	210.205	90.0182	210.205	85.7546	210.205	89.4117	210.205	85.602	210.205	88.7938	210.205	85.5163	210.205	88.367	210.205	85.4995	210.205	88.211	210.205	85.5596	210.205	88.2259	210.205	85.7052	210.205	88.2669	210.205	85.938	210.205	88.2496	210.205	86.2476	210.205	88.1481	210.205	86.6105	210.205	87.9612	210.205	86.9948	210.205	87.6961	210.205	87.3666
217.529	89.5184	217.529	89.0447	217.529	89.9031	217.529	88.5162	217.529	90.1723	217.529	87.9722	217.529	90.3079	217.529	87.4523	217.529	90.2984	217.529	86.9893	217.529	90.1328	217.529	86.6044	217.529	89.7929	217.529	86.3043	217.529	89.2603	217.529	86.085	217.529	88.5667	217.529	85.9387	217.529	87.8682	217.529	85.86	217.529	87.4072	217.529	85.8494	217.529	87.2964	217.529	85.9113	217.529	87.4172	217.529	86.0495	217.529	87.5891	217.529	86.2601	217.529	87.7114	217.529	86.5279	217.529	87.7545	217.529	86.8268	217.529	87.7135	217.529	87.1239	217.529	87.5888	217.529	87.3867
225.586	89.7898	225.586	89.2115	225.586	90.2604	225.586	88.5652	225.586	90.5919	225.586	87.8978	225.586	90.7615	225.586	87.2576	225.586	90.752	225.586	86.6864	225.586	90.5467	225.586	86.2102	225.586	90.1244	225.586	85.8351	225.586	89.4707	225.586	85.5522	225.586	88.6346	225.586	85.3476	225.586	87.8155	225.586	85.2134	225.586	87.319	225.586	85.1524	225.586	87.2738	225.586	85.1767	225.586	87.4909	225.586	85.2996	225.586	87.709	225.586	85.5248	225.586	87.7987	225.586	85.8392	225.586	87.7462	225.586	86.2131	225.586	87.5772	225.586	86.6082	225.586	87.317	225.586	86.9864
232.91	89.6533	232.91	89.0895	232.91	90.1041	232.91	88.4545	232.91	90.4099	232.91	87.7977	232.91	90.5483	232.91	87.1699	232.91	90.504	232.91	86.6134	232.91	90.2613	232.91	86.1521	232.91	89.7961	232.91	85.7884	232.91	89.0854	232.91	85.5081	232.91	88.173	232.91	85.2925	232.91	87.2724	232.91	85.1291	232.91	86.714	232.91	85.0166	232.91	86.6106	232.91	84.9633	232.91	86.7239	232.91	84.9802	232.91	86.7784	232.91	85.0715	232.91	86.6846	232.91	85.2281	232.91	86.4923	232.91	85.4278	232.91	86.2742	232.91	85.6439	232.91	86.0637	232.91	85.857
241.699	89.6536	241.699	89.0954	241.699	90.0942	241.699	88.4603	241.699	90.3892	241.699	87.7992	241.699	90.5226	241.699	87.1671	241.699	90.4858	241.699	86.612	241.699	90.2677	241.699	86.1618	241.699	89.8421	241.699	85.8199	241.699	89.1758	241.699	85.5697	241.699	88.2934	241.699	85.389	241.699	87.3798	241.699	85.2619	241.699	86.7454	241.699	85.1853	241.699	86.5295	241.699	85.1666	241.699	86.5415	241.699	85.2155	241.699	86.5346	241.699	85.333	241.699	86.4393	241.699	85.5043	241.699	86.314	241.699	85.6993	241.699	86.2123	241.699	85.8824	241.699	86.1287	241.699	86.0269
249.756	89.332	249.756	88.9201	249.756	89.6027	249.756	88.4093	249.756	89.7022	249.756	87.8499	249.756	89.615	249.756	87.2941	249.756	89.337	249.756	86.7865	249.756	88.8605	249.756	86.3562	249.756	88.1456	249.756	86.0134	249.756	87.1109	249.756	85.7543	249.756	85.7148	249.756	85.5708	249.756	84.1534	249.756	85.4592	249.756	82.9889	249.756	85.4219	249.756	82.7663	249.756	85.4634	249.756	83.326	249.756	85.5813	249.756	84.0986	249.756	85.7579	249.756	84.781	249.756	85.958	249.756	85.333	249.756	86.1346	249.756	85.7656	249.756	86.2375	249.756	86.0677	249.756	86.2239
258.545	90.6431	258.545	90.0987	258.545	91.0016	258.545	89.4124	258.545	91.1417	258.545	88.6381	258.545	91.0428	258.545	87.8369	258.545	90.6953	258.545	87.0695	258.545	90.0909	258.545	86.3848	258.545	89.1984	258.545	85.8106	258.545	87.9499	258.545	85.3537	258.545	86.3225	258.545	85.0112	258.545	84.5933	258.545	84.7843	258.545	83.5112	258.545	84.685	258.545	83.5917	258.545	84.7281	258.545	84.3483	258.545	84.9141	258.545	85.1102	258.545	85.2152	258.545	85.6496	258.545	85.5752	258.545	86.0052	258.545	85.9245	258.545	86.2397	258.545	86.1982	258.545	86.3613	258.545	86.3502
268.066	89.9391	268.066	89.4411	268.066	90.2584	268.066	88.794	268.066	90.3872	268.066	88.0417	268.066	90.3334	268.066	87.2372	268.066	90.1148	268.066	86.4353	268.066	89.7241	268.066	85.6825	268.066	89.0763	268.066	85.0091	268.066	88.0004	268.066	84.4298	268.066	86.3855	268.066	83.955	268.066	84.5914	268.066	83.6067	268.066	83.7351	268.066	83.4253	268.066	84.3282	268.066	83.4561	268.066	85.4637	268.066	83.718	268.066	86.3924	268.066	84.1791	268.066	86.9203	268.066	84.7626	268.066	87.1012	268.066	85.3789	268.066	87.0384	268.066	85.9533	268.066	86.8054	268.066	86.4375
277.588	90.5143	277.588	89.941	277.588	90.8462	277.588	89.1538	277.588	90.9295	277.588	88.197	277.588	90.7859	277.588	87.1305	277.588	90.4688	277.588	86.028	277.588	90.0363	277.588	84.9673	277.588	89.4832	277.588	84.0119	277.588	88.7056	277.588	83.1948	277.588	87.6438	277.588	82.5211	277.588	86.591	277.588	81.9941	277.588	86.1821	277.588	81.6433	277.588	86.5487	277.588	81.5263	277.588	87.0978	277.588	81.6897	277.588	87.3315	277.588	82.1166	277.588	87.1318	277.588	82.7197	277.588	86.6137	277.588	83.3893	277.588	85.9603	277.588	84.0484	277.588	85.3039	277.588	84.6772
287.109	90.3149	287.109	89.744	287.109	90.6255	287.109	88.9447	287.109	90.6732	287.109	87.9713	287.109	90.5004	287.109	86.8972	287.109	90.2013	287.109	85.8081	287.109	89.8714	287.109	84.7838	287.109	89.4783	287.109	83.8703	287.109	88.7916	287.109	83.066	287.109	87.5516	287.109	82.3393	287.109	85.8676	287.109	81.6739	287.109	84.6253	287.109	81.1159	287.109	84.6887	287.109	80.7926	287.109	85.4861	287.109	80.857	287.109	86.1601	287.109	81.3556	287.109	86.4243	287.109	82.1656	287.109	86.3167	287.109	83.0923	287.109	85.9556	287.109	83.9853	287.109	85.4292	287.109	84.7708
297.363	89.6731	297.363	88.918	297.363	90.2806	297.363	88.0372	297.363	90.7225	297.363	87.0593	297.363	90.9823	297.363	86.0221	297.363	91.0445	297.363	84.9754	297.363	90.8926	297.363	83.9801	297.363	90.5097	297.363	83.1027	297.363	89.8794	297.363	82.4053	297.363	88.9942	297.363	81.9356	297.363	87.874	297.363	81.7204	297.363	86.6051	297.363	81.7614	297.363	85.3844	297.363	82.031	297.363	84.4913	297.363	82.4708	297.363	84.0959	297.363	83.0001	297.363	84.1026	297.363	83.5335	297.363	84.2848	297.363	83.9971	297.363	84.4696	297.363	84.3381	297.363	84.5661	297.363	84.5288
307.617	89.9013	307.617	89.1278	307.617	90.5297	307.617	88.2365	307.617	90.9919	307.617	87.2624	307.617	91.2705	307.617	86.2488	307.617	91.3509	307.617	85.2478	307.617	91.219	307.617	84.3178	307.617	90.86	307.617	83.517	307.617	90.2601	307.617	82.8947	307.617	89.412	307.617	82.4844	307.617	88.3328	307.617	82.2992	307.617	87.0954	307.617	82.3311	307.617	85.8634	307.617	82.5499	307.617	84.8701	307.617	82.9033	307.617	84.2798	307.617	83.3219	307.617	84.0631	307.617	83.7307	307.617	84.0736	307.617	84.0626	307.617	84.1806	307.617	84.2713	307.617	84.2938	307.617	84.3415
318.604	89.3125	318.604	88.4505	318.604	90.0266	318.604	87.4743	318.604	90.5654	318.604	86.4247	318.604	90.9059	318.604	85.3514	318.604	91.0289	318.604	84.3136	318.604	90.9184	318.604	83.3782	318.604	90.5611	318.604	82.6124	318.604	89.9507	318.604	82.0698	318.604	89.0971	318.604	81.7771	318.604	88.0491	318.604	81.7278	318.604	86.9252	318.604	81.8875	318.604	85.9183	318.604	82.2037	318.604	85.2054	318.604	82.6146	318.604	84.8089	318.604	83.0564	318.604	84.609	318.604	83.4709	318.604	84.489	318.604	83.8143	318.604	84.4	318.604	84.064	318.604	84.322	318.604	84.2237
329.59	89.6102	329.59	88.5337	329.59	90.4671	329.59	87.2668	329.59	91.0852	329.59	85.8574	329.59	91.4505	329.59	84.3854	329.59	91.551	329.59	82.9745	329.59	91.3741	329.59	81.7829	329.59	90.9061	329.59	80.9494	329.59	90.1337	329.59	80.5208	329.59	89.0562	329.59	80.4419	329.59	87.7248	329.59	80.6197	329.59	86.3282	329.59	80.982	329.59	85.2671	329.59	81.4874	329.59	84.9266	329.59	82.1068	329.59	85.2032	329.59	82.8065	329.59	85.6536	329.59	83.5421	329.59	85.9643	329.59	84.2636	329.59	86.0297	329.59	84.921	329.59	85.851	329.59	85.466
341.309	90.3831	341.309	89.3647	341.309	91.1742	341.309	88.1346	341.309	91.7265	341.309	86.7176	341.309	92.0306	341.309	85.1594	341.309	92.0773	341.309	83.5478	341.309	91.8565	341.309	82.0403	341.309	91.3551	341.309	80.8655	341.309	90.5577	341.309	80.2371	341.309	89.4546	341.309	80.2111	341.309	88.0731	341.309	80.6652	341.309	86.5558	341.309	81.4232	341.309	85.2741	341.309	82.3458	341.309	84.726	341.309	83.3355	341.309	85.0029	341.309	84.3163	341.309	85.6813	341.309	85.2216	341.309	86.3521	341.309	85.9923	341.309	86.8195	341.309	86.5761	341.309	87.0155	341.309	86.9286
353.76	90.4612	353.76	89.4575	353.76	91.257	353.76	88.264	353.76	91.8282	353.76	86.9031	353.76	92.1591	353.76	85.4068	353.76	92.234	353.76	83.8282	353.76	92.0347	353.76	82.2568	353.76	91.539	353.76	80.8299	353.76	90.7187	353.76	79.7175	353.76	89.5436	353.76	79.0651	353.76	88.003	353.76	78.927	353.76	86.1741	353.76	79.2575	353.76	84.3797	353.76	79.9536	353.76	83.2757	353.76	80.8941	353.76	83.2694	353.76	81.9537	353.76	83.9325	353.76	83.0125	353.76	84.6677	353.76	83.9636	353.76	85.1778	353.76	84.717	353.76	85.3617	353.76	85.2003
366.211	90.1918	366.211	89.1319	366.211	91.0026	366.211	87.8459	366.211	91.5485	366.211	86.3663	366.211	91.8179	366.211	84.7421	366.211	91.8013	366.211	83.0506	366.211	91.4891	366.211	81.417	366.211	90.8694	366.211	80.0257	366.211	89.9283	366.211	79.084	366.211	88.6577	366.211	78.7174	366.211	87.0848	366.211	78.8907	366.211	85.3476	366.211	79.4603	366.211	83.812	366.211	80.28	366.211	83.011	366.211	81.2427	366.211	83.1261	366.211	82.264	366.211	83.772	366.211	83.2575	366.211	84.4952	366.211	84.1321	366.211	85.0369	366.211	84.8026	366.211	85.2835	366.211	85.201
378.662	89.9429	378.662	88.8836	378.662	90.7521	378.662	87.5912	378.662	91.2976	378.662	86.0894	378.662	91.568	378.662	84.4162	378.662	91.5522	378.662	82.6401	378.662	91.2366	378.662	80.8895	378.662	90.603	378.662	79.3852	378.662	89.626	378.662	78.4178	378.662	88.2789	378.662	78.1914	378.662	86.5621	378.662	78.6554	378.662	84.5978	378.662	79.5726	378.662	82.8369	378.662	80.7035	378.662	82.0624	378.662	81.8806	378.662	82.4954	378.662	82.994	378.662	83.4765	378.662	83.967	378.662	84.4289	378.662	84.7428	378.662	85.1224	378.662	85.2781	378.662	85.493	378.662	85.538
392.578	89.4768	392.578	88.3258	392.578	90.3694	392.578	86.9383	392.578	90.9872	392.578	85.3419	392.578	91.3177	392.578	83.5741	392.578	91.3505	392.578	81.6977	392.578	91.0736	392.578	79.8383	392.578	90.4716	392.578	78.2365	392.578	89.5266	392.578	77.2377	392.578	88.2301	392.578	77.0853	392.578	86.6189	392.578	77.6853	392.578	84.8555	392.578	78.7268	392.578	83.3149	392.578	79.9352	392.578	82.4411	392.578	81.1416	392.578	82.3256	392.578	82.2459	392.578	82.7042	392.578	83.1794	392.578	83.2984	392.578	83.889	392.578	83.8936	392.578	84.3322	392.578	84.321	392.578	84.4789
405.762	89.12	405.762	87.8866	405.762	90.0566	405.762	86.3754	405.762	90.6848	405.762	84.6155	405.762	90.9959	405.762	82.6491	405.762	90.9812	405.762	80.5372	405.762	90.6294	405.762	78.3795	405.762	89.927	405.762	76.361	405.762	88.8627	405.762	74.811	405.762	87.4487	405.762	74.1436	405.762	85.7827	405.762	74.5434	405.762	84.1819	405.762	75.7762	405.762	83.2262	405.762	77.4532	405.762	83.249	405.762	79.2688	405.762	83.8857	405.762	81.018	405.762	84.6231	405.762	82.5629	405.762	85.1993	405.762	83.8164	405.762	85.5245	405.762	84.7357	405.762	85.5695	405.762	85.3144
420.41	89.595	420.41	88.272	420.41	90.6098	420.41	86.6535	420.41	91.3038	420.41	84.7506	420.41	91.6627	420.41	82.5721	420.41	91.6693	420.41	80.1257	420.41	91.301	420.41	77.4341	420.41	90.5274	420.41	74.5911	420.41	89.3078	420.41	71.929	420.41	87.5968	420.41	70.2977	420.41	85.3932	420.41	70.5622	420.41	82.9537	420.41	72.2583	420.41	81.2611	420.41	74.4314	420.41	81.3457	420.41	76.6241	420.41	82.4269	420.41	78.6701	420.41	83.4446	420.41	80.4751	420.41	84.0888	420.41	81.9657	420.41	84.3532	420.41	83.0972	420.41	84.2738	420.41	83.8607
435.059	89.7177	435.059	88.3609	435.059	90.7557	435.059	86.7166	435.059	91.4498	435.059	84.8172	435.059	91.781	435.059	82.6868	435.059	91.7335	435.059	80.3298	435.059	91.2916	435.059	77.7295	435.059	90.4348	435.059	74.8605	435.059	89.1347	435.059	71.7611	435.059	87.3586	435.059	69.0377	435.059	85.1075	435.059	68.9302	435.059	82.5808	435.059	71.6719	435.059	80.5995	435.059	74.7635	435.059	80.3449	435.059	77.3692	435.059	81.4167	435.059	79.4535	435.059	82.6299	435.059	81.0824	435.059	83.4879	435.059	82.3098	435.059	83.9196	435.059	83.1781	435.059	83.9791	435.059	83.7265
450.439	88.9414	450.439	87.5009	450.439	90.0522	450.439	85.7701	450.439	90.8083	450.439	83.8029	450.439	91.1949	450.439	81.6615	450.439	91.2022	450.439	79.4042	450.439	90.822	450.439	77.0784	450.439	90.0428	450.439	74.7227	450.439	88.8484	450.439	72.3781	450.439	87.2222	450.439	70.1936	450.439	85.1826	450.439	68.936	450.439	82.9231	450.439	70.0276	450.439	81.163	450.439	72.9323	450.439	81.0028	450.439	76.0685	450.439	82.2493	450.439	78.8426	450.439	83.7543	450.439	81.1464	450.439	84.901	450.439	82.9713	450.439	85.5235	450.439	84.3232	450.439	85.6148	450.439	85.2066
466.553	89.0727	466.553	87.7683	466.553	90.0251	466.553	86.1414	466.553	90.6087	466.553	84.2408	466.553	90.8141	466.553	82.1396	466.553	90.6361	466.553	79.9359	466.553	90.072	466.553	77.7438	466.553	89.1245	466.553	75.6612	466.553	87.8086	466.553	73.6986	466.553	86.1692	466.553	71.7081	466.553	84.3171	466.553	69.4692	466.553	82.4838	466.553	67.4908	466.553	81.0362	466.553	68.6766	466.553	80.3493	466.553	72.6906	466.553	80.5789	466.553	76.5305	466.553	81.5202	466.553	79.5649	466.553	82.7083	466.553	81.8098	466.553	83.699	466.553	83.3129	466.553	84.2113	466.553	84.1035
482.666	89.5443	482.666	88.1406	482.666	90.5757	482.666	86.3978	482.666	91.2129	482.666	84.3681	482.666	91.4396	482.666	82.1338	482.666	91.2425	482.666	79.8152	482.666	90.6096	482.666	77.5674	482.666	89.5316	482.666	75.5421	482.666	88.0089	482.666	73.7999	482.666	86.0831	482.666	72.2376	482.666	83.9358	482.666	70.6765	482.666	82.0672	482.666	69.2622	482.666	81.1559	482.666	69.332	482.666	81.251	482.666	72.0049	482.666	81.812	482.666	75.5311	482.666	82.4687	482.666	78.5914	482.666	83.0783	482.666	80.9113	482.666	83.5336	482.666	82.4904	482.666	83.6898	482.666	83.3861
500.244	89.1173	500.244	87.6431	500.244	90.195	500.244	85.8096	500.244	90.8571	500.244	83.6815	500.244	91.0938	500.244	81.3567	500.244	90.8974	500.244	78.9669	500.244	90.2564	500.244	76.6738	500.244	89.1538	500.244	74.6482	500.244	87.5713	500.244	72.9841	500.244	85.5173	500.244	71.6065	500.244	83.1482	500.244	70.4093	500.244	81.0962	500.244	69.6707	500.244	80.4284	500.244	70.3473	500.244	81.0834	500.244	72.8149	500.244	82.0194	500.244	75.9416	500.244	82.7377	500.244	78.7784	500.244	83.2299	500.244	80.9982	500.244	83.5693	500.244	82.5305	500.244	83.687	500.244	83.3967
517.822	88.9315	517.822	87.4202	517.822	90.0317	517.822	85.5501	517.822	90.6933	517.822	83.4077	517.822	90.9042	517.822	81.1252	517.822	90.6612	517.822	78.8936	517.822	89.9676	517.822	76.9562	517.822	88.8351	517.822	75.4892	517.822	87.289	517.822	74.3671	517.822	85.3727	517.822	73.112	517.822	83.1669	517.822	70.9957	517.822	80.9212	517.822	66.5315	517.822	79.4873	517.822	49.749	517.822	79.9605	517.822	67.4915	517.822	81.6223	517.822	74.5185	517.822	83.1894	517.822	78.6457	517.822	84.2488	517.822	81.406	517.822	84.7893	517.822	83.2417	517.822	84.8335	517.822	84.3452
536.133	89.2173	536.133	87.4894	536.133	90.4444	536.133	85.2962	536.133	91.156	536.133	82.7213	536.133	91.3448	536.133	79.9397	536.133	91.0044	536.133	77.2718	536.133	90.1263	536.133	75.1933	536.133	88.6979	536.133	74.1123	536.133	86.704	536.133	73.8938	536.133	84.1497	536.133	73.9141	536.133	81.1932	536.133	73.594	536.133	78.6039	536.133	72.5064	536.133	77.7775	536.133	70.0949	536.133	78.4998	536.133	65.6266	536.133	79.5574	536.133	66.8402	536.133	80.6138	536.133	73.436	536.133	81.6467	536.133	77.7612	536.133	82.4251	536.133	80.4741	536.133	82.6266	536.133	82.0269
554.443	88.6034	554.443	86.8481	554.443	89.8006	554.443	84.5338	554.443	90.4555	554.443	81.7056	554.443	90.586	554.443	78.5239	554.443	90.2051	554.443	75.3867	554.443	89.3156	554.443	72.9845	554.443	87.9062	554.443	71.8661	554.443	85.9491	554.443	71.7387	554.443	83.3983	554.443	71.8003	554.443	80.2327	554.443	71.4401	554.443	76.95	554.443	70.3597	554.443	76.0733	554.443	68.8695	554.443	78.1818	554.443	69.4313	554.443	80.363	554.443	73.136	554.443	81.8307	554.443	76.9543	554.443	82.7613	554.443	79.8648	554.443	83.3253	554.443	81.8577	554.443	83.4687	554.443	83.0257
574.219	89.4059	574.219	87.6631	574.219	90.5804	574.219	85.3421	574.219	91.1995	574.219	82.4585	574.219	91.2705	574.219	79.1253	574.219	90.7907	574.219	75.7516	574.219	89.7442	574.219	73.2751	574.219	88.1038	574.219	72.4665	574.219	85.8304	574.219	72.7117	574.219	82.8605	574.219	72.9459	574.219	79.089	574.219	72.5419	574.219	74.8281	574.219	71.1298	574.219	73.9396	574.219	68.2508	574.219	77.206	574.219	64.2542	574.219	79.9528	574.219	68.073	574.219	81.6316	574.219	74.0815	574.219	82.6165	574.219	78.1834	574.219	83.1531	574.219	80.8798	574.219	83.1788	574.219	82.4836
594.727	89.0894	594.727	87.1884	594.727	90.4265	594.727	84.7764	594.727	91.1884	594.727	82.0082	594.727	91.3801	594.727	79.2569	594.727	91.0118	594.727	77.1654	594.727	90.0946	594.727	76.2214	594.727	88.6365	594.727	76.2236	594.727	86.633	594.727	76.6218	594.727	84.0359	594.727	76.9396	594.727	80.6534	594.727	76.7925	594.727	75.8691	594.727	75.7747	594.727	68.6695	594.727	73.1615	594.727	71.0028	594.727	66.4528	594.727	76.5507	594.727	64.0856	594.727	79.8214	594.727	74.5304	594.727	81.915	594.727	79.2637	594.727	83.1805	594.727	81.9093	594.727	83.654	594.727	83.2745
615.234	89.148	615.234	87.3284	615.234	90.4278	615.234	85.0387	615.234	91.1492	615.234	82.4716	615.234	91.3138	615.234	80.0499	615.234	90.9325	615.234	78.3851	615.234	90.0191	615.234	77.8197	615.234	88.5846	615.234	78.1043	615.234	86.6267	615.234	78.7307	615.234	84.0975	615.234	79.2451	615.234	80.7895	615.234	79.2943	615.234	75.9445	615.234	78.5513	615.234	66.3766	615.234	76.5287	615.234	68.9593	615.234	71.9073	615.234	76.0174	615.234	52.794	615.234	79.3407	615.234	71.2685	615.234	81.2201	615.234	77.5384	615.234	82.2727	615.234	80.6047	615.234	82.6088	615.234	82.1286
637.207	90.0423	637.207	88.1304	637.207	91.3315	637.207	85.6602	637.207	91.9908	637.207	82.8324	637.207	92.0336	637.207	80.1039	637.207	91.4742	637.207	78.1675	637.207	90.3171	637.207	77.4982	637.207	88.5505	637.207	77.9359	637.207	86.1388	637.207	78.9059	637.207	82.9885	637.207	79.8337	637.207	78.7879	637.207	80.3198	637.207	72.2487	637.207	80.0639	637.207	44.0577	637.207	78.6743	637.207	70.2223	637.207	75.2492	637.207	75.76	637.207	66.7445	637.207	78.9233	637.207	71.8315	637.207	81.3273	637.207	78.7839	637.207	83.0681	637.207	82.1312	637.207	83.9089	637.207	83.6667
659.912	90.501	659.912	88.6976	659.912	91.6746	659.912	86.2773	659.912	92.227	659.912	83.3303	659.912	92.1704	659.912	80.1458	659.912	91.5158	659.912	77.3412	659.912	90.2715	659.912	75.6989	659.912	88.4409	659.912	75.6367	659.912	86.0135	659.912	76.7894	659.912	82.9194	659.912	78.2926	659.912	78.8359	659.912	79.4723	659.912	72.2911	659.912	79.9427	659.912	49.0652	659.912	79.3753	659.912	72.5076	659.912	77.2396	659.912	77.8567	659.912	72.4532	659.912	80.6324	659.912	70.4265	659.912	82.2923	659.912	77.0819	659.912	83.2608	659.912	80.9504	659.912	83.527	659.912	82.873
683.35	91.1962	683.35	89.2363	683.35	92.4088	683.35	86.518	683.35	92.8971	683.35	83.091	683.35	92.6887	683.35	79.2398	683.35	91.8109	683.35	75.7752	683.35	90.278	683.35	73.7828	683.35	88.0742	683.35	73.7566	683.35	85.1343	683.35	75.2703	683.35	81.2732	683.35	77.2048	683.35	75.7989	683.35	78.7668	683.35	64.4341	683.35	79.5844	683.35	67.2273	683.35	79.352	683.35	74.9522	683.35	77.5653	683.35	78.2258	683.35	73.1293	683.35	80.1422	683.35	70.0215	683.35	81.7426	683.35	77.0753	683.35	83.1152	683.35	81.2689	683.35	83.7705	683.35	83.2749
706.787	91.358	706.787	89.2772	706.787	92.578	706.787	86.244	706.787	93.0086	706.787	82.1772	706.787	92.7056	706.787	77.3413	706.787	91.7058	706.787	73.5041	706.787	90.0135	706.787	71.9073	706.787	87.5953	706.787	70.4094	706.787	84.386	706.787	69.9418	706.787	80.2426	706.787	72.8273	706.787	74.5725	706.787	75.9282	706.787	64.5319	706.787	77.8156	706.787	67.9656	706.787	78.4038	706.787	74.5094	706.787	77.5573	706.787	77.6524	706.787	74.9998	706.787	79.4692	706.787	72.9397	706.787	80.9238	706.787	76.8456	706.787	82.2485	706.787	80.6235	706.787	82.9673	706.787	82.553
731.689	90.9972	731.689	88.864	731.689	92.237	731.689	85.7501	731.689	92.6612	731.689	81.7342	731.689	92.3259	731.689	78.0534	731.689	91.2568	731.689	77.0319	731.689	89.4389	731.689	77.13	731.689	86.8318	731.689	76.5714	731.689	83.444	731.689	75.4929	731.689	79.4493	731.689	74.9362	731.689	74.987	731.689	75.4948	731.689	68.7589	731.689	76.2389	731.689	56.1937	731.689	76.1496	731.689	69.5752	731.689	74.653	731.689	74.4968	731.689	72.0297	731.689	76.8026	731.689	73.2743	731.689	78.4442	731.689	77.5699	731.689	80.1557	731.689	80.4151	731.689	81.4253	731.689	81.6191
758.057	91.1376	758.057	88.7106	758.057	92.5218	758.057	85.0642	758.057	92.9903	758.057	80.1559	758.057	92.627	758.057	76.1404	758.057	91.4654	758.057	76.61	758.057	89.4764	758.057	77.4019	758.057	86.5707	758.057	76.7053	758.057	82.6441	758.057	74.5844	758.057	77.7693	758.057	72.517	758.057	72.5657	758.057	74.2291	758.057	67.4557	758.057	77.2407	758.057	67.5652	758.057	78.923	758.057	74.1057	758.057	78.7975	758.057	78.3152	758.057	76.2131	758.057	80.5133	758.057	69.8339	758.057	81.618	758.057	73.9628	758.057	82.461	758.057	79.7596	758.057	82.9536	758.057	82.3156
784.424	90.7331	784.424	88.4359	784.424	92.0305	784.424	85.0668	784.424	92.4237	784.424	81.0963	784.424	91.9793	784.424	79.1193	784.424	90.7253	784.424	79.8607	784.424	88.6374	784.424	80.4906	784.424	85.6404	784.424	80.2139	784.424	81.7304	784.424	79.0325	784.424	77.6735	784.424	76.9283	784.424	75.7046	784.424	74.1562	784.424	75.5578	784.424	73.0059	784.424	75.732	784.424	74.9527	784.424	76.7552	784.424	76.6371	784.424	78.4974	784.424	76.5038	784.424	79.9232	784.424	74.4037	784.424	81.0578	784.424	75.0469	784.424	82.3472	784.424	79.6542	784.424	83.1357	784.424	82.4398
812.256	90.4483	812.256	87.8024	812.256	92.0406	812.256	84.2969	812.256	92.6078	812.256	81.2677	812.256	92.1783	812.256	80.6837	812.256	90.7354	812.256	81.1113	812.256	88.1664	812.256	81.0303	812.256	84.1537	812.256	80.3689	812.256	78.2387	812.256	79.4921	812.256	73.9408	812.256	78.8373	812.256	75.4397	812.256	78.7683	812.256	75.319	812.256	79.3164	812.256	73.5401	812.256	79.8962	812.256	73.9144	812.256	79.5598	812.256	76.8983	812.256	77.166	812.256	79.1766	812.256	71.705	812.256	80.4903	812.256	75.2819	812.256	81.5957	812.256	80.4205	812.256	82.5343	812.256	82.4454
840.82	89.9598	840.82	87.0022	840.82	91.6219	840.82	82.7746	840.82	92.1812	840.82	79.788	840.82	91.7603	840.82	81.1325	840.82	90.3585	840.82	82.717	840.82	87.7794	840.82	83.2174	840.82	83.4354	840.82	82.8086	840.82	75.4537	840.82	81.5975	840.82	69.1397	840.82	79.3535	840.82	75.862	840.82	75.2644	840.82	77.305	840.82	70.8428	840.82	76.8843	840.82	76.0383	840.82	76.9313	840.82	79.6142	840.82	78.2645	840.82	79.9826	840.82	79.2563	840.82	76.4791	840.82	79.5139	840.82	66.4419	840.82	80.5372	840.82	77.1694	840.82	81.837	840.82	81.3009
870.85	90.1644	870.85	87.7117	870.85	91.6334	870.85	84.7016	870.85	92.0762	870.85	82.5033	870.85	91.546	870.85	82.1105	870.85	90.102	870.85	82.2627	870.85	87.7537	870.85	81.8659	870.85	84.5178	870.85	80.6707	870.85	81.0451	870.85	78.9635	870.85	79.244	870.85	77.8147	870.85	78.5861	870.85	78.2078	870.85	76.6254	870.85	79.3166	870.85	71.1565	870.85	80.0001	870.85	60.0727	870.85	79.6063	870.85	73.6167	870.85	77.559	870.85	77.7934	870.85	73.8964	870.85	79.1761	870.85	74.5592	870.85	79.6964	870.85	78.2776	870.85	80.2274	870.85	80.0722
901.611	90.6658	901.611	87.7313	901.611	92.2656	901.611	83.8254	901.611	92.6297	901.611	81.6356	901.611	91.8509	901.611	82.6735	901.611	89.9145	901.611	83.804	901.611	86.5951	901.611	84.138	901.611	81.3469	901.611	83.8556	901.611	76.7994	901.611	83.0345	901.611	80.1316	901.611	81.2914	901.611	82.1213	901.611	77.4484	901.611	81.734	901.611	67.2978	901.611	79.487	901.611	73.6338	901.611	76.3563	901.611	79.2725	901.611	76.0071	901.611	80.3208	901.611	77.7204	901.611	77.5044	901.611	78.8372	901.611	68.911	901.611	80.5311	901.611	76.9206	901.611	81.9936	901.611	81.3352
933.105	90.6496	933.105	88.2527	933.105	91.7505	933.105	84.8645	933.105	91.6659	933.105	82.394	933.105	90.64	933.105	82.6631	933.105	88.9684	933.105	83.5164	933.105	86.8315	933.105	83.6832	933.105	84.2301	933.105	83.0462	933.105	81.1449	933.105	81.6207	933.105	77.3474	933.105	79.3313	933.105	71.4823	933.105	75.964	933.105	55.1469	933.105	73.6889	933.105	65.0196	933.105	77.2097	933.105	70.6738	933.105	80.1458	933.105	73.4893	933.105	80.2984	933.105	75.011	933.105	76.837	933.105	76.023	933.105	72.9981	933.105	78.3425	933.105	79.0756	933.105	81.027	933.105	81.6454
966.064	89.3113	966.064	88.0376	966.064	90.82	966.064	87.5505	966.064	91.7639	966.064	87.1871	966.064	91.8615	966.064	86.3562	966.064	91.0564	966.064	85.2057	966.064	89.2406	966.064	84.2304	966.064	86.0223	966.064	83.8269	966.064	81.0211	966.064	84.0648	966.064	80.0995	966.064	84.5648	966.064	83.5662	966.064	84.6105	966.064	85.1315	966.064	83.3823	966.064	85.1754	966.064	79.7078	966.064	84.4298	966.064	72.5436	966.064	83.9495	966.064	77.3151	966.064	84.2756	966.064	80.2376	966.064	84.0424	966.064	78.1606	966.064	82.924	966.064	73.2506	966.064	81.7086	966.064	78.7034
999.756	91.5299	999.756	89.941	999.756	91.552	999.756	85.8236	999.756	90.7735	999.756	76.6006	999.756	90.1082	999.756	81.3224	999.756	90.0481	999.756	86.8598	999.756	90.2189	999.756	89.178	999.756	89.9948	999.756	89.9316	999.756	89.1935	999.756	89.5978	999.756	88.6901	999.756	88.1859	999.756	89.3668	999.756	85.4671	999.756	89.9322	999.756	82.6532	999.756	89.3064	999.756	84.2965	999.756	87.4776	999.756	86.3119	999.756	84.6929	999.756	85.4759	999.756	81.4493	999.756	80.5206	999.756	79.0263	999.756	73.5139	999.756	78.1925	999.756	79.4554	999.756	79.4907	999.756	80.8587
1,034.91	89.944	1,034.91	88.5158	1,034.91	90.6031	1,034.91	87.0817	1,034.91	90.4923	1,034.91	86.5509	1,034.91	89.9437	1,034.91	86.5645	1,034.91	89.1483	1,034.91	86.464	1,034.91	88.0516	1,034.91	86.0307	1,034.91	86.5697	1,034.91	85.1403	1,034.91	84.5361	1,034.91	83.794	1,034.91	81.5002	1,034.91	82.2535	1,034.91	78.1892	1,034.91	80.5312	1,034.91	77.6025	1,034.91	77.6385	1,034.91	76.7026	1,034.91	73.4036	1,034.91	74.1616	1,034.91	77.2935	1,034.91	72.9179	1,034.91	81.2464	1,034.91	75.7632	1,034.91	81.5296	1,034.91	76.4025	1,034.91	77.6166	1,034.91	76.8004	1,034.91	76.5564	1,034.91	80.9816	1,034.91	81.2424
1,071.53	90.229	1,071.53	89.1178	1,071.53	90.2482	1,071.53	86.9444	1,071.53	89.6221	1,071.53	85.1773	1,071.53	88.8081	1,071.53	85.3286	1,071.53	88.0477	1,071.53	85.8253	1,071.53	87.3593	1,071.53	85.6068	1,071.53	86.6319	1,071.53	84.4647	1,071.53	85.7267	1,071.53	82.0343	1,071.53	84.5827	1,071.53	78.6234	1,071.53	83.5341	1,071.53	79.2645	1,071.53	83.8578	1,071.53	82.1857	1,071.53	85.3637	1,071.53	82.7036	1,071.53	85.5888	1,071.53	79.1579	1,071.53	84.0996	1,071.53	55.7323	1,071.53	83.8284	1,071.53	79.2728	1,071.53	83.2614	1,071.53	81.9915	1,071.53	79.9833	1,071.53	77.8437	1,071.53	77.2748	1,071.53	68.262
1,109.62	90.1002	1,109.62	89.036	1,109.62	90.3953	1,109.62	87.6801	1,109.62	90.0317	1,109.62	87.143	1,109.62	89.296	1,109.62	87.2624	1,109.62	88.5078	1,109.62	87.0059	1,109.62	87.5154	1,109.62	86.1469	1,109.62	85.0712	1,109.62	85.3424	1,109.62	77.6997	1,109.62	85.7188	1,109.62	73.7427	1,109.62	87.0206	1,109.62	82.9296	1,109.62	87.9476	1,109.62	84.7252	1,109.62	87.5128	1,109.62	83.8732	1,109.62	84.5032	1,109.62	81.8728	1,109.62	74.2567	1,109.62	80.0481	1,109.62	77.7246	1,109.62	79.9739	1,109.62	82.7979	1,109.62	80.0463	1,109.62	80.829	1,109.62	79.9121	1,109.62	72.5859	1,109.62	80.9201	1,109.62	78.8454
1,148.44	89.458	1,148.44	88.4461	1,148.44	90.0495	1,148.44	87.7962	1,148.44	90.0457	1,148.44	88.1117	1,148.44	89.5213	1,148.44	88.6927	1,148.44	88.3442	1,148.44	88.7988	1,148.44	86.0202	1,148.44	88.4482	1,148.44	82.3751	1,148.44	87.9039	1,148.44	81.2159	1,148.44	87.1163	1,148.44	83.6363	1,148.44	85.9618	1,148.44	84.6256	1,148.44	84.449	1,148.44	83.5408	1,148.44	82.3922	1,148.44	80.6146	1,148.44	79.2595	1,148.44	76.7589	1,148.44	75.2678	1,148.44	73.8231	1,148.44	77.192	1,148.44	77.2434	1,148.44	80.6803	1,148.44	79.4104	1,148.44	81.0642	1,148.44	77.5233	1,148.44	78.5543	1,148.44	76.8239	1,148.44	76.9187
1,189.45	90.6268	1,189.45	88.9768	1,189.45	91.0099	1,189.45	87.1175	1,189.45	90.1818	1,189.45	87.1462	1,189.45	88.6543	1,189.45	88.0644	1,189.45	87.0862	1,189.45	88.2278	1,189.45	85.7969	1,189.45	87.5691	1,189.45	84.5872	1,189.45	86.3007	1,189.45	82.5001	1,189.45	84.0917	1,189.45	77.5219	1,189.45	79.7598	1,189.45	71.8396	1,189.45	73.6824	1,189.45	78.2408	1,189.45	79.1459	1,189.45	80.2204	1,189.45	82.2811	1,189.45	79.8303	1,189.45	81.1341	1,189.45	79.234	1,189.45	73.7836	1,189.45	78.778	1,189.45	76.9086	1,189.45	77.3829	1,189.45	80.6099	1,189.45	75.3173	1,189.45	78.8394	1,189.45	74.1479	1,189.45	74.9819
1,231.2	90.6051	1,231.2	89.3044	1,231.2	91.0879	1,231.2	88.5138	1,231.2	90.3366	1,231.2	88.3662	1,231.2	88.308	1,231.2	87.6031	1,231.2	84.8054	1,231.2	85.8305	1,231.2	81.6988	1,231.2	83.4779	1,231.2	84.0732	1,231.2	81.075	1,231.2	85.7664	1,231.2	78.5955	1,231.2	84.3056	1,231.2	76.15	1,231.2	79.7271	1,231.2	75.9129	1,231.2	77.2223	1,231.2	77.8479	1,231.2	77.1872	1,231.2	78.7274	1,231.2	73.0906	1,231.2	77.7948	1,231.2	61.7561	1,231.2	77.286	1,231.2	72.9867	1,231.2	78.0874	1,231.2	77.0823	1,231.2	77.244	1,231.2	77.1822	1,231.2	76.5006	1,231.2	77.3548	1,231.2	77.6766
1,274.41	91.1641	1,274.41	89.855	1,274.41	91.1687	1,274.41	88.5575	1,274.41	89.9278	1,274.41	88.7625	1,274.41	87.8509	1,274.41	88.9988	1,274.41	85.3802	1,274.41	88.2253	1,274.41	83.9414	1,274.41	86.6161	1,274.41	85.0205	1,274.41	84.8405	1,274.41	86.0857	1,274.41	83.3779	1,274.41	85.8499	1,274.41	81.5747	1,274.41	84.4161	1,274.41	77.6096	1,274.41	81.5507	1,274.41	69.0359	1,274.41	76.9769	1,274.41	77.3691	1,274.41	76.4241	1,274.41	81.549	1,274.41	77.5384	1,274.41	81.2935	1,274.41	76.4	1,274.41	76.2149	1,274.41	72.9504	1,274.41	73.0406	1,274.41	68.5762	1,274.41	77.9632	1,274.41	72.6496	1,274.41	77.3531
1,319.82	90.6751	1,319.82	89.5627	1,319.82	91.1415	1,319.82	89.2617	1,319.82	90.1655	1,319.82	89.5312	1,319.82	87.4608	1,319.82	89.017	1,319.82	82.6182	1,319.82	87.4156	1,319.82	78.5288	1,319.82	84.9168	1,319.82	84.7181	1,319.82	81.8793	1,319.82	87.6523	1,319.82	79.8143	1,319.82	86.9665	1,319.82	80.673	1,319.82	82.0475	1,319.82	81.8117	1,319.82	75.4862	1,319.82	81.1582	1,319.82	80.2509	1,319.82	77.6297	1,319.82	80.0509	1,319.82	71.2623	1,319.82	74.7623	1,319.82	76.4579	1,319.82	71.3961	1,319.82	78.9099	1,319.82	77.6589	1,319.82	78.1343	1,319.82	77.3512	1,319.82	76.7929	1,319.82	76.5466	1,319.82	76.9068
1,365.97	89.9728	1,365.97	89.3052	1,365.97	89.9347	1,365.97	89.099	1,365.97	88.7213	1,365.97	89.3009	1,365.97	86.6259	1,365.97	88.5678	1,365.97	84.2008	1,365.97	86.4962	1,365.97	82.609	1,365.97	83.4241	1,365.97	83.3486	1,365.97	79.4656	1,365.97	84.5968	1,365.97	74.2317	1,365.97	84.4577	1,365.97	70.1719	1,365.97	81.6505	1,365.97	70.1123	1,365.97	73.568	1,365.97	68.9353	1,365.97	71.5979	1,365.97	72.2073	1,365.97	75.8165	1,365.97	77.0189	1,365.97	76.7909	1,365.97	78.0716	1,365.97	75.4493	1,365.97	74.225	1,365.97	69.1618	1,365.97	74.3508	1,365.97	66.6557	1,365.97	78.5539	1,365.97	72.0851	1,365.97	77.3177
1,414.31	89.4182	1,414.31	88.8988	1,414.31	89.438	1,414.31	89.0465	1,414.31	87.9438	1,414.31	89.0936	1,414.31	84.9543	1,414.31	87.8584	1,414.31	81.1066	1,414.31	84.9167	1,414.31	79.586	1,414.31	80.5296	1,414.31	82.8659	1,414.31	75.925	1,414.31	84.6291	1,414.31	73.6205	1,414.31	83.7246	1,414.31	74.7557	1,414.31	80.2861	1,414.31	75.1364	1,414.31	74.6651	1,414.31	70.4926	1,414.31	68.4242	1,414.31	67.3349	1,414.31	70.2372	1,414.31	78.1463	1,414.31	60.9554	1,414.31	79.9797	1,414.31	69.3821	1,414.31	76.9351	1,414.31	70.8328	1,414.31	74.5457	1,414.31	69.7286	1,414.31	76.9523	1,414.31	69.1619	1,414.31	74.9894
1,464.11	89.6448	1,464.11	88.8268	1,464.11	89.5258	1,464.11	88.7258	1,464.11	87.2902	1,464.11	88.8903	1,464.11	83.1414	1,464.11	87.846	1,464.11	79.7904	1,464.11	85.2126	1,464.11	82.3711	1,464.11	81.7369	1,464.11	85.5985	1,464.11	78.5647	1,464.11	86.5116	1,464.11	75.5333	1,464.11	84.5419	1,464.11	73.0609	1,464.11	78.7989	1,464.11	73.7807	1,464.11	73.034	1,464.11	74.1589	1,464.11	73.9096	1,464.11	70.2605	1,464.11	73.1341	1,464.11	63.0971	1,464.11	76.708	1,464.11	75.7285	1,464.11	73.8264	1,464.11	77.2369	1,464.11	57.6617	1,464.11	73.6358	1,464.11	63.3056	1,464.11	75.1203	1,464.11	74.7301	1,464.11	77.3846
1,515.38	90.0325	1,515.38	89.197	1,515.38	89.378	1,515.38	88.2358	1,515.38	86.663	1,515.38	87.5738	1,515.38	81.8036	1,515.38	86.4084	1,515.38	78.1323	1,515.38	84.0895	1,515.38	81.3199	1,515.38	80.6175	1,515.38	84.0322	1,515.38	76.8829	1,515.38	83.2634	1,515.38	73.108	1,515.38	78.526	1,515.38	68.5211	1,515.38	69.7365	1,515.38	67.0631	1,515.38	69.9636	1,515.38	67.1048	1,515.38	65.3561	1,515.38	63.2007	1,515.38	62.524	1,515.38	67.221	1,515.38	60.1864	1,515.38	75.5089	1,515.38	72.0628	1,515.38	77.9368	1,515.38	67.5024	1,515.38	75.236	1,515.38	68.2087	1,515.38	73.5349	1,515.38	71.9079	1,515.38	74.5272
1,568.85	89.7854	1,568.85	89.1138	1,568.85	89.3506	1,568.85	88.5708	1,568.85	86.5309	1,568.85	87.3673	1,568.85	80.505	1,568.85	84.7718	1,568.85	74.0275	1,568.85	80.8453	1,568.85	78.8806	1,568.85	76.5118	1,568.85	83.2624	1,568.85	74.2934	1,568.85	83.6994	1,568.85	73.3112	1,568.85	80.6135	1,568.85	70.2442	1,568.85	75.7476	1,568.85	61.641	1,568.85	71.5769	1,568.85	69.9788	1,568.85	65.631	1,568.85	71.3665	1,568.85	52.4684	1,568.85	62.4894	1,568.85	72.3663	1,568.85	72.539	1,568.85	73.7307	1,568.85	75.0625	1,568.85	62.6268	1,568.85	72.2747	1,568.85	58.3415	1,568.85	73.6731	1,568.85	72.7523	1,568.85	76.5095
1,624.51	89.1153	1,624.51	88.679	1,624.51	88.1448	1,624.51	87.7177	1,624.51	84.8989	1,624.51	86.1769	1,624.51	78.8229	1,624.51	83.357	1,624.51	72.2809	1,624.51	79.5433	1,624.51	75.1572	1,624.51	76.1678	1,624.51	80.7296	1,624.51	73.5062	1,624.51	83.3235	1,624.51	69.3787	1,624.51	82.5127	1,624.51	65.4068	1,624.51	75.6158	1,624.51	68.333	1,624.51	69.9983	1,624.51	70.5108	1,624.51	75.2169	1,624.51	71.2375	1,624.51	63.8935	1,624.51	68.6585	1,624.51	67.4698	1,624.51	71.9056	1,624.51	55.5845	1,624.51	75.8176	1,624.51	69.6097	1,624.51	71.4252	1,624.51	64.9856	1,624.51	72.5018	1,624.51	73.0092	1,624.51	75.625
1,681.64	89.2698	1,681.64	88.5211	1,681.64	87.4535	1,681.64	87.1927	1,681.64	81.5655	1,681.64	85.8898	1,681.64	73.3324	1,681.64	83.021	1,681.64	73.9587	1,681.64	77.5524	1,681.64	79.3355	1,681.64	69.8147	1,681.64	83.3282	1,681.64	59.5017	1,681.64	83.1523	1,681.64	57.6187	1,681.64	79.7771	1,681.64	54.3975	1,681.64	75.5707	1,681.64	60.5878	1,681.64	63.8659	1,681.64	65.7872	1,681.64	66.73	1,681.64	64.692	1,681.64	66.0134	1,681.64	63.5184	1,681.64	67.0912	1,681.64	44.6567	1,681.64	67.5468	1,681.64	69.5149	1,681.64	65.6547	1,681.64	72.948	1,681.64	61.0398	1,681.64	72.9513	1,681.64	74.2351	1,681.64	75.9111
1,740.97	89.701	1,740.97	88.1946	1,740.97	88.3983	1,740.97	86.8467	1,740.97	82.0165	1,740.97	85.6595	1,740.97	66.6856	1,740.97	82.0445	1,740.97	65.0439	1,740.97	75.7647	1,740.97	79.2678	1,740.97	72.3982	1,740.97	83.3444	1,740.97	71.5507	1,740.97	82.0026	1,740.97	70.6583	1,740.97	79.6524	1,740.97	57.5549	1,740.97	76.5176	1,740.97	65.9203	1,740.97	74.3319	1,740.97	69.4678	1,740.97	74.0565	1,740.97	65.4324	1,740.97	66.1816	1,740.97	66.7692	1,740.97	73.4967	1,740.97	66.9963	1,740.97	72.6041	1,740.97	65.7731	1,740.97	61.588	1,740.97	71.8236	1,740.97	65.5045	1,740.97	70.6164	1,740.97	70.8155	1,740.97	73.9137
1,802.49	90.227	1,802.49	88.8758	1,802.49	88.535	1,802.49	86.8005	1,802.49	81.6959	1,802.49	84.3101	1,802.49	62.8408	1,802.49	79.4679	1,802.49	65.8702	1,802.49	74.5908	1,802.49	77.925	1,802.49	75.0902	1,802.49	80.8209	1,802.49	71.9762	1,802.49	79.2996	1,802.49	54.3179	1,802.49	77.8423	1,802.49	66.1205	1,802.49	73.6295	1,802.49	68.1181	1,802.49	65.3543	1,802.49	69.9896	1,802.49	70.5617	1,802.49	65.9872	1,802.49	71.5494	1,802.49	68.7626	1,802.49	65.1126	1,802.49	64.4428	1,802.49	68.0204	1,802.49	64.899	1,802.49	64.496	1,802.49	71.7414	1,802.49	66.1561	1,802.49	74.5442	1,802.49	72.6281	1,802.49	75.466
1,866.21	89.5914	1,866.21	88.0446	1,866.21	88.1512	1,866.21	86.0035	1,866.21	82.1547	1,866.21	83.5597	1,866.21	69.3665	1,866.21	78.0078	1,866.21	68.3029	1,866.21	72.5591	1,866.21	78.8359	1,866.21	72.9911	1,866.21	81.5175	1,866.21	71.0886	1,866.21	79.4248	1,866.21	66.5825	1,866.21	77.9775	1,866.21	74.4398	1,866.21	76.2556	1,866.21	74.5552	1,866.21	70.6362	1,866.21	64.8427	1,866.21	70.0792	1,866.21	59.9219	1,866.21	66.0806	1,866.21	60.254	1,866.21	64.5506	1,866.21	58.7396	1,866.21	67.05	1,866.21	55.7004	1,866.21	63.3764	1,866.21	66.9185	1,866.21	65.0022	1,866.21	70.9701	1,866.21	70.103	1,866.21	72.1554
1,932.13	88.898	1,932.13	87.5774	1,932.13	87.0303	1,932.13	86.0714	1,932.13	79.8762	1,932.13	84.1331	1,932.13	72.288	1,932.13	78.1165	1,932.13	71.1419	1,932.13	70.1911	1,932.13	80.2688	1,932.13	68.8342	1,932.13	82.4166	1,932.13	68.1157	1,932.13	80.5906	1,932.13	67.6231	1,932.13	80.7313	1,932.13	65.5487	1,932.13	75.266	1,932.13	71.7565	1,932.13	71.3194	1,932.13	72.6875	1,932.13	70.7122	1,932.13	73.7087	1,932.13	54.899	1,932.13	68.9953	1,932.13	59.7784	1,932.13	62.2742	1,932.13	66.3231	1,932.13	67.4877	1,932.13	60.4062	1,932.13	64.8433	1,932.13	60.4319	1,932.13	73.9098	1,932.13	71.7933	1,932.13	75.8303
2,000.24	89.7791	2,000.24	87.6574	2,000.24	88.0973	2,000.24	85.5903	2,000.24	79.6475	2,000.24	83.4574	2,000.24	77.2337	2,000.24	78.2112	2,000.24	76.9569	2,000.24	75.8155	2,000.24	81.1222	2,000.24	72.6758	2,000.24	81.4767	2,000.24	64.0022	2,000.24	79.2807	2,000.24	68.066	2,000.24	81.0216	2,000.24	72.9397	2,000.24	77.6444	2,000.24	70.2393	2,000.24	64.5061	2,000.24	68.2357	2,000.24	68.1445	2,000.24	76.1401	2,000.24	70.9023	2,000.24	74.2377	2,000.24	60.6446	2,000.24	65.8204	2,000.24	57.7476	2,000.24	61.2097	2,000.24	61.5027	2,000.24	63.5367	2,000.24	68.1166	2,000.24	72.4045	2,000.24	72.5603	2,000.24	74.8385
2,070.56	90.2759	2,070.56	88.4176	2,070.56	88.3218	2,070.56	86.2463	2,070.56	79.4852	2,070.56	83.6489	2,070.56	75.5082	2,070.56	80.004	2,070.56	79.7753	2,070.56	76.7444	2,070.56	80.9607	2,070.56	73.098	2,070.56	81.8576	2,070.56	74.506	2,070.56	82.0479	2,070.56	74.7755	2,070.56	82.1891	2,070.56	75.2171	2,070.56	74.9803	2,070.56	78.2998	2,070.56	73.4134	2,070.56	78.2489	2,070.56	71.9055	2,070.56	70.7599	2,070.56	65.5986	2,070.56	68.7503	2,070.56	66.4377	2,070.56	67.8515	2,070.56	63.2564	2,070.56	58.3707	2,070.56	71.4785	2,070.56	63.3848	2,070.56	65.5987	2,070.56	69.1657	2,070.56	69.4812	2,070.56	76.297
2,143.8	89.4488	2,143.8	88.3513	2,143.8	87.4056	2,143.8	87.0101	2,143.8	80.2421	2,143.8	84.2524	2,143.8	76.3644	2,143.8	80.5076	2,143.8	81.1397	2,143.8	78.4582	2,143.8	82.5514	2,143.8	77.069	2,143.8	81.956	2,143.8	78.5743	2,143.8	84.2852	2,143.8	79.4523	2,143.8	85.2588	2,143.8	77.154	2,143.8	79.7195	2,143.8	74.8575	2,143.8	69.6958	2,143.8	73.1334	2,143.8	70.5494	2,143.8	70.8452	2,143.8	70.5049	2,143.8	68.9627	2,143.8	58.3476	2,143.8	69.1065	2,143.8	70.9329	2,143.8	65.5725	2,143.8	74.1909	2,143.8	63.96	2,143.8	67.9618	2,143.8	74.6239	2,143.8	74.8913	2,143.8	78.4672
2,219.24	88.4811	2,219.24	87.4278	2,219.24	86.6827	2,219.24	86.8474	2,219.24	79.1924	2,219.24	83.6539	2,219.24	79.7465	2,219.24	81.5363	2,219.24	83.2834	2,219.24	81.6205	2,219.24	83.9653	2,219.24	78.4164	2,219.24	81.457	2,219.24	77.5276	2,219.24	82.7691	2,219.24	78.6924	2,219.24	84.781	2,219.24	76.5023	2,219.24	78.9186	2,219.24	74.0568	2,219.24	64.5223	2,219.24	76.7113	2,219.24	72.8667	2,219.24	75.4883	2,219.24	73.5391	2,219.24	62.8371	2,219.24	56.431	2,219.24	72.0271	2,219.24	73.5128	2,219.24	71.7141	2,219.24	68.2424	2,219.24	66.9212	2,219.24	64.8824	2,219.24	69.6071	2,219.24	72.2598	2,219.24	75.4292
2,297.61	89.59	2,297.61	87.6286	2,297.61	87.6634	2,297.61	86.7549	2,297.61	78.1467	2,297.61	84.265	2,297.61	78.5423	2,297.61	82.3155	2,297.61	82.1708	2,297.61	82.274	2,297.61	84.267	2,297.61	80.0444	2,297.61	82.877	2,297.61	78.465	2,297.61	84.3437	2,297.61	78.2264	2,297.61	84.9368	2,297.61	77.4044	2,297.61	79.3774	2,297.61	74.0741	2,297.61	74.3761	2,297.61	71.4102	2,297.61	60.2919	2,297.61	68.3868	2,297.61	63.6858	2,297.61	72.4258	2,297.61	60.2221	2,297.61	66.6548	2,297.61	73.9866	2,297.61	73.6183	2,297.61	68.4811	2,297.61	70.1444	2,297.61	66.4962	2,297.61	70.6726	2,297.61	72.1855	2,297.61	73.4416
2,378.17	89.3878	2,378.17	88.1538	2,378.17	88.1445	2,378.17	86.5257	2,378.17	82.07	2,378.17	83.7606	2,378.17	79.3082	2,378.17	83.3346	2,378.17	84.0246	2,378.17	82.432	2,378.17	84.5604	2,378.17	80.6198	2,378.17	81.6914	2,378.17	79.247	2,378.17	84.6832	2,378.17	75.1188	2,378.17	87.1475	2,378.17	70.4731	2,378.17	81.164	2,378.17	65.2866	2,378.17	58.2758	2,378.17	68.7078	2,378.17	69.9142	2,378.17	75.3651	2,378.17	67.4636	2,378.17	76.1052	2,378.17	64.364	2,378.17	72.1339	2,378.17	71.9229	2,378.17	73.7399	2,378.17	65.4002	2,378.17	73.9286	2,378.17	68.7833	2,378.17	73.7035	2,378.17	74.2646	2,378.17	75.8868
2,462.4	88.9341	2,462.4	88.5401	2,462.4	88.0384	2,462.4	87.6331	2,462.4	83.6322	2,462.4	85.9432	2,462.4	80.3171	2,462.4	83.8071	2,462.4	81.9462	2,462.4	81.6906	2,462.4	84.0252	2,462.4	80.9531	2,462.4	84.4882	2,462.4	79.7534	2,462.4	83.7413	2,462.4	77.9662	2,462.4	84.9302	2,462.4	76.7924	2,462.4	81.4481	2,462.4	75.05	2,462.4	66.2882	2,462.4	73.6231	2,462.4	68.3237	2,462.4	70.4618	2,462.4	67.0509	2,462.4	64.2104	2,462.4	64.4613	2,462.4	67.5394	2,462.4	71.2581	2,462.4	72.1761	2,462.4	68.1579	2,462.4	74.4311	2,462.4	55.5274	2,462.4	74.6768	2,462.4	71.7354	2,462.4	75.0366
2,548.83	88.7119	2,548.83	87.8994	2,548.83	87.7924	2,548.83	87.5446	2,548.83	83.757	2,548.83	86.8032	2,548.83	82.454	2,548.83	84.4279	2,548.83	83.0957	2,548.83	80.5717	2,548.83	84.0229	2,548.83	79.8666	2,548.83	84.8202	2,548.83	79.6706	2,548.83	84.4826	2,548.83	77.6222	2,548.83	84.5904	2,548.83	76.9517	2,548.83	81.3643	2,548.83	74.9558	2,548.83	71.0049	2,548.83	75.2858	2,548.83	69.4134	2,548.83	74.5004	2,548.83	69.7543	2,548.83	69.5295	2,548.83	71.1263	2,548.83	69.303	2,548.83	71.9267	2,548.83	66.7491	2,548.83	68.2456	2,548.83	72.001	2,548.83	62.3433	2,548.83	73.1432	2,548.83	69.776	2,548.83	74.4698
2,638.92	88.6182	2,638.92	88.4489	2,638.92	87.5077	2,638.92	87.421	2,638.92	83.923	2,638.92	85.9911	2,638.92	82.8033	2,638.92	83.3289	2,638.92	84.6076	2,638.92	81.458	2,638.92	84.7206	2,638.92	81.94	2,638.92	84.7668	2,638.92	81.2154	2,638.92	84.4031	2,638.92	79.1856	2,638.92	84.0034	2,638.92	78.629	2,638.92	79.7184	2,638.92	77.5014	2,638.92	68.08	2,638.92	73.6977	2,638.92	70.6063	2,638.92	73.2825	2,638.92	71.3862	2,638.92	68.6213	2,638.92	70.852	2,638.92	69.8116	2,638.92	73.0076	2,638.92	68.144	2,638.92	67.4673	2,638.92	70.5586	2,638.92	55.7073	2,638.92	74.0703	2,638.92	70.3818	2,638.92	75.9102
2,731.93	88.0533	2,731.93	88.7285	2,731.93	87.0851	2,731.93	88.0496	2,731.93	85.2622	2,731.93	85.8423	2,731.93	83.563	2,731.93	83.8437	2,731.93	85.4409	2,731.93	82.8537	2,731.93	86.5316	2,731.93	82.2042	2,731.93	85.4042	2,731.93	81.2705	2,731.93	83.3829	2,731.93	78.981	2,731.93	83.9811	2,731.93	77.0878	2,731.93	82.4578	2,731.93	73.9446	2,731.93	71.1654	2,731.93	75.6031	2,731.93	67.5613	2,731.93	74.8224	2,731.93	71.4043	2,731.93	71.0269	2,731.93	71.7813	2,731.93	68.0695	2,731.93	71.4743	2,731.93	69.0826	2,731.93	70.197	2,731.93	69.6748	2,731.93	59.2847	2,731.93	72.3842	2,731.93	69.9509	2,731.93	75.5136
2,828.61	88.2254	2,828.61	88.5718	2,828.61	87.0293	2,828.61	87.7257	2,828.61	85.2799	2,828.61	86.193	2,828.61	84.1153	2,828.61	84.3517	2,828.61	85.1373	2,828.61	83.8401	2,828.61	86.6414	2,828.61	83.0756	2,828.61	85.5083	2,828.61	81.4701	2,828.61	83.6063	2,828.61	79.1509	2,828.61	83.251	2,828.61	78.1304	2,828.61	80.1439	2,828.61	78.0613	2,828.61	72.8227	2,828.61	74.1898	2,828.61	67.4369	2,828.61	72.9421	2,828.61	70.9105	2,828.61	70.1025	2,828.61	71.8002	2,828.61	68.3505	2,828.61	72.573	2,828.61	69.1331	2,828.61	69.7255	2,828.61	70.1727	2,828.61	62.1735	2,828.61	71.5003	2,828.61	72.7205	2,828.61	75.2552
2,928.22	87.8195	2,928.22	87.9604	2,928.22	86.3282	2,928.22	86.756	2,928.22	85.3275	2,928.22	86.2043	2,928.22	84.0108	2,928.22	84.9482	2,928.22	85.263	2,928.22	84.1659	2,928.22	86.7989	2,928.22	82.5133	2,928.22	85.3075	2,928.22	80.4964	2,928.22	83.2287	2,928.22	79.1581	2,928.22	83.5036	2,928.22	78.5738	2,928.22	78.8343	2,928.22	75.1066	2,928.22	71.6719	2,928.22	73.914	2,928.22	67.5009	2,928.22	73.4561	2,928.22	71.1482	2,928.22	69.6221	2,928.22	68.5569	2,928.22	69.9699	2,928.22	71.7752	2,928.22	68.1132	2,928.22	71.6787	2,928.22	71.127	2,928.22	62.629	2,928.22	70.8431	2,928.22	71.4957	2,928.22	74.5178
3,031.49	88.0927	3,031.49	87.832	3,031.49	86.9921	3,031.49	87.137	3,031.49	86.7015	3,031.49	86.5269	3,031.49	85.2411	3,031.49	85.5582	3,031.49	85.4052	3,031.49	85.1227	3,031.49	86.7774	3,031.49	82.7532	3,031.49	85.4856	3,031.49	80.6121	3,031.49	83.0238	3,031.49	77.8431	3,031.49	84.1657	3,031.49	72.2392	3,031.49	81.1764	3,031.49	75.1923	3,031.49	68.4679	3,031.49	74.6694	3,031.49	65.4375	3,031.49	72.9979	3,031.49	67.9067	3,031.49	68.6873	3,031.49	67.8546	3,031.49	67.4508	3,031.49	70.898	3,031.49	67.0632	3,031.49	71.6111	3,031.49	70.4026	3,031.49	66.0265	3,031.49	70.6591	3,031.49	71.4963	3,031.49	72.6668
3,138.43	89.0124	3,138.43	88.674	3,138.43	87.525	3,138.43	88.3501	3,138.43	87.3906	3,138.43	86.8478	3,138.43	86.05	3,138.43	85.2658	3,138.43	86.015	3,138.43	84.6859	3,138.43	86.9917	3,138.43	82.0044	3,138.43	84.9822	3,138.43	80.2154	3,138.43	83.831	3,138.43	79.8863	3,138.43	84.1707	3,138.43	80.1057	3,138.43	82.583	3,138.43	78.3868	3,138.43	71.5948	3,138.43	72.4521	3,138.43	71.0949	3,138.43	73.9056	3,138.43	68.3396	3,138.43	69.8773	3,138.43	68.6486	3,138.43	67.4282	3,138.43	71.2187	3,138.43	66.516	3,138.43	69.0246	3,138.43	65.9305	3,138.43	63.6455	3,138.43	71.2088	3,138.43	70.5724	3,138.43	72.4753
3,249.02	88.9128	3,249.02	88.5806	3,249.02	87.735	3,249.02	88.3878	3,249.02	88.058	3,249.02	87.1886	3,249.02	86.9286	3,249.02	85.911	3,249.02	85.941	3,249.02	84.4186	3,249.02	87.2205	3,249.02	83.1855	3,249.02	84.5351	3,249.02	82.0805	3,249.02	82.6325	3,249.02	80.3115	3,249.02	83.7434	3,249.02	76.682	3,249.02	82.3399	3,249.02	73.3157	3,249.02	74.2445	3,249.02	75.9314	3,249.02	69.2111	3,249.02	73.9645	3,249.02	70.7217	3,249.02	70.9513	3,249.02	68.1345	3,249.02	68.5654	3,249.02	68.6052	3,249.02	69.7638	3,249.02	69.5176	3,249.02	67.5699	3,249.02	60.2674	3,249.02	70.863	3,249.02	69.5181	3,249.02	73.0731
3,363.28	88.5593	3,363.28	88.2315	3,363.28	87.6344	3,363.28	88.0622	3,363.28	88.069	3,363.28	86.9393	3,363.28	87.1431	3,363.28	85.972	3,363.28	85.3205	3,363.28	84.62	3,363.28	85.9837	3,363.28	84.2184	3,363.28	84.2503	3,363.28	82.7162	3,363.28	81.269	3,363.28	80.0174	3,363.28	80.8308	3,363.28	77.2047	3,363.28	81.0546	3,363.28	76.9492	3,363.28	74.6977	3,363.28	73.2361	3,363.28	69.5474	3,363.28	72.8973	3,363.28	70.2363	3,363.28	70.2789	3,363.28	68.4747	3,363.28	68.6936	3,363.28	69.602	3,363.28	68.7346	3,363.28	70.1896	3,363.28	67.2973	3,363.28	61.8267	3,363.28	70.0739	3,363.28	69.6299	3,363.28	72.6493
3,481.93	88.9475	3,481.93	88.3605	3,481.93	88.0545	3,481.93	87.8512	3,481.93	88.1982	3,481.93	86.5839	3,481.93	87.656	3,481.93	85.7378	3,481.93	85.4642	3,481.93	85.5681	3,481.93	85.5226	3,481.93	83.7985	3,481.93	83.4831	3,481.93	80.893	3,481.93	81.5515	3,481.93	79.3098	3,481.93	80.2748	3,481.93	78.8055	3,481.93	78.913	3,481.93	76.5662	3,481.93	71.6918	3,481.93	72.5736	3,481.93	70.008	3,481.93	72.9469	3,481.93	68.8359	3,481.93	68.6037	3,481.93	68.4814	3,481.93	68.141	3,481.93	68.7209	3,481.93	68.1408	3,481.93	68.474	3,481.93	67.5582	3,481.93	61.9793	3,481.93	68.1652	3,481.93	68.6584	3,481.93	72.7145
3,604.98	88.8863	3,604.98	88.4001	3,604.98	88.6668	3,604.98	87.7501	3,604.98	88.7799	3,604.98	86.3936	3,604.98	87.8515	3,604.98	86.4666	3,604.98	85.1483	3,604.98	85.9216	3,604.98	84.4332	3,604.98	83.3472	3,604.98	82.9856	3,604.98	81.3217	3,604.98	81.8355	3,604.98	78.5941	3,604.98	80.6402	3,604.98	75.018	3,604.98	78.4681	3,604.98	74.0534	3,604.98	71.2897	3,604.98	74.438	3,604.98	68.4485	3,604.98	72.0257	3,604.98	68.3884	3,604.98	67.917	3,604.98	69.202	3,604.98	67.1932	3,604.98	65.7662	3,604.98	68.4179	3,604.98	68.2708	3,604.98	67.4243	3,604.98	62.16	3,604.98	68.2362	3,604.98	67.6853	3,604.98	72.5613
3,732.42	89.07	3,732.42	88.3955	3,732.42	88.6885	3,732.42	87.8394	3,732.42	89.0851	3,732.42	86.4196	3,732.42	88.3436	3,732.42	87.1928	3,732.42	84.819	3,732.42	85.9131	3,732.42	83.8289	3,732.42	83.4237	3,732.42	81.8806	3,732.42	81.6358	3,732.42	80.6824	3,732.42	79.4983	3,732.42	81.3877	3,732.42	75.6746	3,732.42	78.6807	3,732.42	75.0335	3,732.42	70.8829	3,732.42	73.0997	3,732.42	65.6075	3,732.42	72.1441	3,732.42	69.8236	3,732.42	69.3883	3,732.42	68.1672	3,732.42	65.3336	3,732.42	65.6253	3,732.42	67.8437	3,732.42	69.088	3,732.42	67.4752	3,732.42	62.5972	3,732.42	68.1188	3,732.42	65.7779	3,732.42	71.8865
3,863.53	89.5329	3,863.53	89.0507	3,863.53	89.34	3,863.53	87.5021	3,863.53	88.9057	3,863.53	86.9722	3,863.53	88.135	3,863.53	87.6131	3,863.53	84.7194	3,863.53	86.0775	3,863.53	82.2648	3,863.53	83.8065	3,863.53	82.5222	3,863.53	80.4673	3,863.53	80.3793	3,863.53	79.4241	3,863.53	78.6976	3,863.53	78.2912	3,863.53	76.7039	3,863.53	75.2944	3,863.53	74.1456	3,863.53	72.4112	3,863.53	63.7515	3,863.53	72.555	3,863.53	68.8208	3,863.53	68.7376	3,863.53	67.5567	3,863.53	63.403	3,863.53	64.8369	3,863.53	66.64	3,863.53	68.2197	3,863.53	66.798	3,863.53	66.2269	3,863.53	68.9424	3,863.53	66.5993	3,863.53	71.3787
3,999.76	89.73	3,999.76	89.296	3,999.76	89.464	3,999.76	87.9218	3,999.76	89.273	3,999.76	87.4061	3,999.76	88.15	3,999.76	87.3824	3,999.76	84.5298	3,999.76	86.1117	3,999.76	81.9609	3,999.76	83.4353	3,999.76	81.5887	3,999.76	80.7693	3,999.76	82.3726	3,999.76	78.2434	3,999.76	80.4718	3,999.76	76.8927	3,999.76	71.0896	3,999.76	73.302	3,999.76	70.8318	3,999.76	72.9797	3,999.76	64.4878	3,999.76	71.1407	3,999.76	67.184	3,999.76	69.8824	3,999.76	66.853	3,999.76	62.9105	3,999.76	64.8728	3,999.76	65.8853	3,999.76	68.1607	3,999.76	66.1196	3,999.76	65.2744	3,999.76	67.7502	3,999.76	65.6899	3,999.76	70.9997
4,141.11	89.9495	4,141.11	89.2946	4,141.11	89.7038	4,141.11	87.8067	4,141.11	89.2233	4,141.11	88.0754	4,141.11	88.1722	4,141.11	87.2386	4,141.11	83.7241	4,141.11	85.5645	4,141.11	80.8249	4,141.11	83.4462	4,141.11	81.1063	4,141.11	80.6904	4,141.11	80.6909	4,141.11	79.0522	4,141.11	81.2555	4,141.11	75.5498	4,141.11	68.285	4,141.11	73.6496	4,141.11	65.6528	4,141.11	72.5205	4,141.11	61.6403	4,141.11	71.0989	4,141.11	66.0003	4,141.11	69.8284	4,141.11	66.9625	4,141.11	66.1031	4,141.11	61.3974	4,141.11	65.2583	4,141.11	67.4182	4,141.11	64.7809	4,141.11	63.8513	4,141.11	66.5148	4,141.11	66.0747	4,141.11	71.2704
4,286.87	90.5907	4,286.87	89.6132	4,286.87	90.0714	4,286.87	88.2742	4,286.87	89.5753	4,286.87	87.8223	4,286.87	88.1163	4,286.87	87.0565	4,286.87	83.9243	4,286.87	85.4704	4,286.87	80.591	4,286.87	83.8441	4,286.87	82.092	4,286.87	81.6838	4,286.87	80.2917	4,286.87	79.0817	4,286.87	81.405	4,286.87	76.1379	4,286.87	76.878	4,286.87	74.4268	4,286.87	58.6031	4,286.87	72.0054	4,286.87	61.4038	4,286.87	71.4678	4,286.87	67.1415	4,286.87	68.1699	4,286.87	64.7822	4,286.87	66.3587	4,286.87	62.2486	4,286.87	64.8742	4,286.87	65.6268	4,286.87	64.5991	4,286.87	65.1528	4,286.87	67.1298	4,286.87	65.4135	4,286.87	70.6845
4,438.48	90.3065	4,438.48	89.4751	4,438.48	89.9117	4,438.48	88.7052	4,438.48	89.3908	4,438.48	88.2659	4,438.48	87.996	4,438.48	87.0554	4,438.48	84.001	4,438.48	85.6572	4,438.48	80.0118	4,438.48	84.5557	4,438.48	81.5187	4,438.48	82.1293	4,438.48	81.3605	4,438.48	78.869	4,438.48	82.3889	4,438.48	76.4659	4,438.48	77.5158	4,438.48	74.3335	4,438.48	68.8452	4,438.48	71.1523	4,438.48	62.319	4,438.48	70.6725	4,438.48	64.117	4,438.48	67.6759	4,438.48	65.0664	4,438.48	64.3467	4,438.48	59.2247	4,438.48	65.178	4,438.48	64.5286	4,438.48	66.0151	4,438.48	64.4366	4,438.48	67.6487	4,438.48	65.4629	4,438.48	70.1205
4,594.48	91.0096	4,594.48	89.7385	4,594.48	90.4271	4,594.48	88.9834	4,594.48	89.6191	4,594.48	88.3278	4,594.48	88.2691	4,594.48	87.0224	4,594.48	84.3141	4,594.48	85.6239	4,594.48	80.394	4,594.48	84.2526	4,594.48	81.6544	4,594.48	80.9373	4,594.48	81.0132	4,594.48	78.2234	4,594.48	82.4555	4,594.48	76.0892	4,594.48	77.3656	4,594.48	73.5888	4,594.48	69.735	4,594.48	71.4213	4,594.48	67.4822	4,594.48	70.9094	4,594.48	66.6053	4,594.48	67.9483	4,594.48	63.1006	4,594.48	62.1303	4,594.48	62.6503	4,594.48	64.9845	4,594.48	64.2004	4,594.48	63.1264	4,594.48	64.7197	4,594.48	63.9087	4,594.48	63.9056	4,594.48	67.4123
4,757.08	90.7349	4,757.08	89.9885	4,757.08	90.7154	4,757.08	89.2219	4,757.08	89.8817	4,757.08	87.9235	4,757.08	88.8223	4,757.08	86.6309	4,757.08	85.2614	4,757.08	85.5613	4,757.08	80.2307	4,757.08	82.9608	4,757.08	81.4581	4,757.08	80.4938	4,757.08	80.767	4,757.08	77.268	4,757.08	83.6414	4,757.08	74.9783	4,757.08	78.2557	4,757.08	73.1072	4,757.08	67.1801	4,757.08	71.5389	4,757.08	69.3788	4,757.08	69.4473	4,757.08	66.022	4,757.08	67.9622	4,757.08	63.2153	4,757.08	63.4832	4,757.08	63.2254	4,757.08	64.0061	4,757.08	63.6712	4,757.08	60.5488	4,757.08	66.3473	4,757.08	63.4636	4,757.08	62.8369	4,757.08	68.8082
4,924.8	90.8687	4,924.8	90.0406	4,924.8	90.858	4,924.8	88.9491	4,924.8	90.0402	4,924.8	87.9166	4,924.8	89.2624	4,924.8	86.955	4,924.8	85.9871	4,924.8	84.9548	4,924.8	81.3295	4,924.8	82.1005	4,924.8	81.3596	4,924.8	80.1376	4,924.8	81.3491	4,924.8	77.5599	4,924.8	83.983	4,924.8	75.1723	4,924.8	78.6984	4,924.8	72.7509	4,924.8	66.8159	4,924.8	72.5564	4,924.8	67.5325	4,924.8	70.0608	4,924.8	67.6659	4,924.8	68.5498	4,924.8	62.9704	4,924.8	66.217	4,924.8	62.7785	4,924.8	64.8309	4,924.8	63.5826	4,924.8	61.9696	4,924.8	65.8391	4,924.8	63.0402	4,924.8	61.3936	4,924.8	67.106
5,098.39	90.5631	5,098.39	89.9996	5,098.39	90.6271	5,098.39	88.7733	5,098.39	89.7262	5,098.39	87.8162	5,098.39	89.2585	5,098.39	87.4066	5,098.39	87.0138	5,098.39	84.6406	5,098.39	81.5751	5,098.39	82.352	5,098.39	80.6347	5,098.39	80.5241	5,098.39	80.2387	5,098.39	77.6979	5,098.39	82.9224	5,098.39	74.8299	5,098.39	76.6876	5,098.39	73.2959	5,098.39	59.4882	5,098.39	71.4589	5,098.39	62.6327	5,098.39	70.2945	5,098.39	64.385	5,098.39	67.6308	5,098.39	58.9577	5,098.39	66.1245	5,098.39	63.5951	5,098.39	64.3892	5,098.39	61.5056	5,098.39	62.9794	5,098.39	66.0275	5,098.39	62.4977	5,098.39	61.0495	5,098.39	67.2261
5,277.83	89.9762	5,277.83	90.0253	5,277.83	90.3962	5,277.83	88.4628	5,277.83	89.4519	5,277.83	88.0223	5,277.83	89.2547	5,277.83	87.1148	5,277.83	87.3724	5,277.83	84.5662	5,277.83	81.6003	5,277.83	82.2119	5,277.83	81.5524	5,277.83	80.5054	5,277.83	78.7372	5,277.83	77.7268	5,277.83	82.6321	5,277.83	75.4616	5,277.83	78.1109	5,277.83	71.5037	5,277.83	61.5385	5,277.83	72.4266	5,277.83	60.8456	5,277.83	70.014	5,277.83	63.9017	5,277.83	68.6789	5,277.83	59.1864	5,277.83	67.9867	5,277.83	66.0128	5,277.83	64.0886	5,277.83	57.3487	5,277.83	63.3197	5,277.83	66.4283	5,277.83	61.2162	5,277.83	59.5203	5,277.83	67.3004
5,463.87	90.2647	5,463.87	90.3639	5,463.87	90.1462	5,463.87	88.1813	5,463.87	89.1003	5,463.87	88.3178	5,463.87	88.8739	5,463.87	87.157	5,463.87	87.9119	5,463.87	84.86	5,463.87	82.7628	5,463.87	82.3933	5,463.87	80.9004	5,463.87	79.7555	5,463.87	80.4124	5,463.87	77.1767	5,463.87	82.5555	5,463.87	73.7299	5,463.87	76.4414	5,463.87	71.1165	5,463.87	64.0833	5,463.87	69.5056	5,463.87	63.6441	5,463.87	68.8649	5,463.87	60.7031	5,463.87	66.8719	5,463.87	61.4002	5,463.87	66.4655	5,463.87	63.6496	5,463.87	63.1894	5,463.87	54.5009	5,463.87	64.609	5,463.87	64.7115	5,463.87	58.7414	5,463.87	54.5631	5,463.87	66.3054
5,656.49	89.8199	5,656.49	89.9576	5,656.49	89.6309	5,656.49	88.5021	5,656.49	88.7515	5,656.49	88.7417	5,656.49	88.4666	5,656.49	87.2065	5,656.49	88.0536	5,656.49	85.5624	5,656.49	82.7391	5,656.49	82.2037	5,656.49	80.925	5,656.49	79.8294	5,656.49	78.7176	5,656.49	76.7014	5,656.49	82.7596	5,656.49	74.8605	5,656.49	75.9724	5,656.49	71.0248	5,656.49	67.1786	5,656.49	70.6281	5,656.49	64.3642	5,656.49	69.3337	5,656.49	62.9683	5,656.49	68.4379	5,656.49	61.4257	5,656.49	66.5911	5,656.49	63.7998	5,656.49	63.1803	5,656.49	54.9634	5,656.49	65.27	5,656.49	63.434	5,656.49	55.5523	5,656.49	54.7878	5,656.49	65.9857
5,856.45	89.6786	5,856.45	90.012	5,856.45	89.0704	5,856.45	88.655	5,856.45	88.5436	5,856.45	88.617	5,856.45	87.9492	5,856.45	87.2831	5,856.45	87.9274	5,856.45	85.6697	5,856.45	83.7935	5,856.45	82.9275	5,856.45	80.3914	5,856.45	80.2547	5,856.45	79.0652	5,856.45	77.574	5,856.45	82.4727	5,856.45	75.2873	5,856.45	79.7047	5,856.45	71.9435	5,856.45	67.0075	5,856.45	70.9821	5,856.45	62.1472	5,856.45	68.7318	5,856.45	62.8132	5,856.45	68.5913	5,856.45	57.5991	5,856.45	65.9364	5,856.45	63.7334	5,856.45	64.7543	5,856.45	49.8068	5,856.45	66.5165	5,856.45	62.2819	5,856.45	58.687	5,856.45	52.8929	5,856.45	65.608
6,062.99	89.9083	6,062.99	89.5526	6,062.99	88.9012	6,062.99	88.9172	6,062.99	88.5117	6,062.99	88.4079	6,062.99	87.6561	6,062.99	87.0811	6,062.99	88.2742	6,062.99	85.5931	6,062.99	83.9054	6,062.99	83.1132	6,062.99	80.2741	6,062.99	80.6029	6,062.99	79.0307	6,062.99	77.6131	6,062.99	83.3971	6,062.99	73.3328	6,062.99	78.1633	6,062.99	71.5528	6,062.99	64.1109	6,062.99	69.6211	6,062.99	49.6139	6,062.99	67.6258	6,062.99	62.3569	6,062.99	67.6832	6,062.99	57.8131	6,062.99	64.5394	6,062.99	62.4794	6,062.99	64.9965	6,062.99	48.8498	6,062.99	67.4097	6,062.99	60.6187	6,062.99	60.0412	6,062.99	54.7168	6,062.99	64.0764
6,276.86	90.0848	6,276.86	89.2817	6,276.86	88.6534	6,276.86	88.8916	6,276.86	88.8312	6,276.86	88.0031	6,276.86	87.4929	6,276.86	86.8531	6,276.86	88.3252	6,276.86	85.3915	6,276.86	84.4123	6,276.86	83.2755	6,276.86	80.3936	6,276.86	80.4916	6,276.86	78.4256	6,276.86	77.2797	6,276.86	80.6928	6,276.86	73.9604	6,276.86	78.4488	6,276.86	70.8581	6,276.86	64.5569	6,276.86	69.9533	6,276.86	61.9562	6,276.86	68.2318	6,276.86	51.3143	6,276.86	68.0383	6,276.86	59.0325	6,276.86	65.413	6,276.86	63.3322	6,276.86	64.2997	6,276.86	54.7625	6,276.86	66.3095	6,276.86	60.5369	6,276.86	58.209	6,276.86	53.6559	6,276.86	62.784
6,498.05	90.0383	6,498.05	89.2116	6,498.05	88.5869	6,498.05	88.8335	6,498.05	89.2137	6,498.05	87.8141	6,498.05	87.2131	6,498.05	86.7944	6,498.05	87.9155	6,498.05	85.3054	6,498.05	85.0893	6,498.05	83.0086	6,498.05	79.7715	6,498.05	80.2182	6,498.05	78.4337	6,498.05	76.8307	6,498.05	80.0609	6,498.05	74.3625	6,498.05	76.0599	6,498.05	70.4726	6,498.05	59.2531	6,498.05	69.3612	6,498.05	61.9412	6,498.05	68.1568	6,498.05	57.094	6,498.05	68.4701	6,498.05	58.4531	6,498.05	63.8756	6,498.05	63.1252	6,498.05	64.4856	6,498.05	53.3308	6,498.05	66.8906	6,498.05	60.8572	6,498.05	58.3985	6,498.05	46.0468	6,498.05	63.025
6,727.29	89.8704	6,727.29	89.6018	6,727.29	88.8208	6,727.29	88.6574	6,727.29	89.2332	6,727.29	87.6532	6,727.29	87.5166	6,727.29	86.8992	6,727.29	87.2194	6,727.29	85.2519	6,727.29	85.4519	6,727.29	82.8269	6,727.29	79.1974	6,727.29	79.9254	6,727.29	79.9245	6,727.29	76.1145	6,727.29	73.6823	6,727.29	74.6613	6,727.29	76.5427	6,727.29	69.9748	6,727.29	61.1049	6,727.29	70.1684	6,727.29	61.9857	6,727.29	67.3613	6,727.29	50.1176	6,727.29	67.257	6,727.29	59.1486	6,727.29	64.5449	6,727.29	60.712	6,727.29	63.3803	6,727.29	55.0462	6,727.29	66.0712	6,727.29	60.6949	6,727.29	57.9982	6,727.29	48.0181	6,727.29	62.6982
6,964.6	89.2271	6,964.6	89.6841	6,964.6	88.5432	6,964.6	88.4176	6,964.6	89.0086	6,964.6	87.5141	6,964.6	87.7161	6,964.6	86.8988	6,964.6	86.6016	6,964.6	85.0594	6,964.6	85.4537	6,964.6	82.0932	6,964.6	77.8121	6,964.6	79.4687	6,964.6	79.524	6,964.6	75.7305	6,964.6	75.4243	6,964.6	72.9823	6,964.6	78.3009	6,964.6	68.4654	6,964.6	66.6037	6,964.6	67.0786	6,964.6	55.6616	6,964.6	67.2047	6,964.6	54.575	6,964.6	65.908	6,964.6	59.79	6,964.6	63.5286	6,964.6	59.4324	6,964.6	62.4727	6,964.6	56.5282	6,964.6	66.1957	6,964.6	60.5924	6,964.6	59.4719	6,964.6	46.3283	6,964.6	62.4824
7,209.96	88.6765	7,209.96	89.5077	7,209.96	88.3721	7,209.96	88.4229	7,209.96	88.8167	7,209.96	87.4252	7,209.96	87.9294	7,209.96	86.8136	7,209.96	86.648	7,209.96	84.731	7,209.96	85.4882	7,209.96	81.7912	7,209.96	78.8889	7,209.96	79.1277	7,209.96	78.8279	7,209.96	75.0555	7,209.96	77.7822	7,209.96	72.3786	7,209.96	80.528	7,209.96	68.5728	7,209.96	68.1715	7,209.96	66.8809	7,209.96	50.0498	7,209.96	64.7482	7,209.96	55.6068	7,209.96	64.6135	7,209.96	58.4746	7,209.96	63.4634	7,209.96	55.3878	7,209.96	60.72	7,209.96	56.2709	7,209.96	65.9579	7,209.96	57.424	7,209.96	60.7841	7,209.96	48.9687	7,209.96	61.0595
7,464.11	88.1399	7,464.11	89.1337	7,464.11	87.9539	7,464.11	88.1558	7,464.11	88.6369	7,464.11	87.4818	7,464.11	87.8946	7,464.11	86.8503	7,464.11	86.9521	7,464.11	84.5998	7,464.11	85.5545	7,464.11	82.0879	7,464.11	80.4231	7,464.11	79.3484	7,464.11	77.3068	7,464.11	76.3022	7,464.11	78.9018	7,464.11	72.617	7,464.11	79.7664	7,464.11	70.1806	7,464.11	68.1511	7,464.11	65.6242	7,464.11	48.6244	7,464.11	66.0803	7,464.11	58.9652	7,464.11	63.3992	7,464.11	58.4912	7,464.11	63.2207	7,464.11	55.8146	7,464.11	62.5222	7,464.11	56.9387	7,464.11	66.1446	7,464.11	58.351	7,464.11	61.4715	7,464.11	49.6105	7,464.11	60.2904
7,727.78	88.2992	7,727.78	88.9109	7,727.78	87.8848	7,727.78	88.2568	7,727.78	88.6906	7,727.78	87.6227	7,727.78	87.4279	7,727.78	86.3545	7,727.78	86.963	7,727.78	84.422	7,727.78	85.1945	7,727.78	82.0178	7,727.78	80.9526	7,727.78	78.4867	7,727.78	73.6262	7,727.78	75.621	7,727.78	78.6333	7,727.78	70.5248	7,727.78	79.0547	7,727.78	70.3049	7,727.78	69.4948	7,727.78	65.3928	7,727.78	53.0238	7,727.78	63.1673	7,727.78	59.9412	7,727.78	64.3337	7,727.78	56.2803	7,727.78	60.3305	7,727.78	57.2609	7,727.78	62.5554	7,727.78	57.0706	7,727.78	65.0477	7,727.78	52.2326	7,727.78	60.2503	7,727.78	52.8915	7,727.78	59.271
8,000.24	88.8454	8,000.24	88.99	8,000.24	88.034	8,000.24	88.6475	8,000.24	89.0532	8,000.24	87.5764	8,000.24	87.0635	8,000.24	86.1388	8,000.24	86.6718	8,000.24	84.2424	8,000.24	84.6876	8,000.24	81.8183	8,000.24	81.0078	8,000.24	78.1031	8,000.24	70.6468	8,000.24	75.4409	8,000.24	75.9114	8,000.24	70.9997	8,000.24	75.5569	8,000.24	68.6998	8,000.24	67.4047	8,000.24	66.3647	8,000.24	54.1442	8,000.24	62.7726	8,000.24	54.7319	8,000.24	63.45	8,000.24	55.6681	8,000.24	60.7555	8,000.24	57.1571	8,000.24	61.5624	8,000.24	56.0424	8,000.24	64.5113	8,000.24	51.9278	8,000.24	60.1619	8,000.24	53.2899	8,000.24	55.9812
8,282.23	89.8335	8,282.23	89.2766	8,282.23	88.7632	8,282.23	88.9308	8,282.23	89.2646	8,282.23	87.1387	8,282.23	87.4757	8,282.23	85.5258	8,282.23	86.3003	8,282.23	83.9994	8,282.23	84.0585	8,282.23	81.872	8,282.23	80.8558	8,282.23	77.997	8,282.23	71.1195	8,282.23	74.8627	8,282.23	75.0033	8,282.23	69.1889	8,282.23	73.4981	8,282.23	65.896	8,282.23	63.8834	8,282.23	65.0217	8,282.23	57.9834	8,282.23	62.6414	8,282.23	55.5356	8,282.23	60.9576	8,282.23	53.0403	8,282.23	57.1826	8,282.23	58.8256	8,282.23	62.5146	8,282.23	56.2732	8,282.23	63.8044	8,282.23	53.4963	8,282.23	59.3882	8,282.23	53.9424	8,282.23	58.1448
8,574.46	89.967	8,574.46	89.3371	8,574.46	89.3793	8,574.46	89.4905	8,574.46	89.7402	8,574.46	86.8557	8,574.46	87.6112	8,574.46	85.3332	8,574.46	85.667	8,574.46	84.0234	8,574.46	83.7214	8,574.46	81.3195	8,574.46	79.9536	8,574.46	76.7223	8,574.46	73.2719	8,574.46	74.1404	8,574.46	76.2158	8,574.46	69.8284	8,574.46	73.2221	8,574.46	66.8553	8,574.46	60.935	8,574.46	64.1999	8,574.46	57.8613	8,574.46	63.3332	8,574.46	50.4084	8,574.46	57.7814	8,574.46	55.3481	8,574.46	60.1006	8,574.46	57.5427	8,574.46	63.384	8,574.46	55.3144	8,574.46	62.5336	8,574.46	52.5863	8,574.46	57.9095	8,574.46	52.6784	8,574.46	55.4315
8,876.22	89.6307	8,876.22	89.1052	8,876.22	89.2593	8,876.22	89.6067	8,876.22	89.6407	8,876.22	86.797	8,876.22	87.9066	8,876.22	85.4617	8,876.22	85.29	8,876.22	83.2857	8,876.22	83.9799	8,876.22	80.5948	8,876.22	79.6269	8,876.22	77.0833	8,876.22	73.4683	8,876.22	74.1285	8,876.22	77.667	8,876.22	69.9087	8,876.22	73.2112	8,876.22	67.0975	8,876.22	51.8734	8,876.22	64.0114	8,876.22	55.3736	8,876.22	61.9959	8,876.22	41.5576	8,876.22	55.9549	8,876.22	56.338	8,876.22	59.8061	8,876.22	57.7738	8,876.22	62.0199	8,876.22	51.5075	8,876.22	62.5991	8,876.22	55.0461	8,876.22	58.403	8,876.22	53.445	8,876.22	54.1487
9,189.7	88.9567	9,189.7	88.8025	9,189.7	88.9011	9,189.7	89.2335	9,189.7	89.2302	9,189.7	87.2755	9,189.7	87.8208	9,189.7	85.5412	9,189.7	84.765	9,189.7	82.4675	9,189.7	84.2004	9,189.7	80.2605	9,189.7	79.1759	9,189.7	77.3456	9,189.7	72.6876	9,189.7	73.4523	9,189.7	76.7175	9,189.7	69.3158	9,189.7	73.4477	9,189.7	67.41	9,189.7	48.3552	9,189.7	62.4979	9,189.7	57.2252	9,189.7	62.0971	9,189.7	47.0032	9,189.7	53.8529	9,189.7	57.8872	9,189.7	61.0673	9,189.7	58.2051	9,189.7	61.0391	9,189.7	48.5487	9,189.7	60.1495	9,189.7	55.3455	9,189.7	56.6538	9,189.7	53.0353	9,189.7	55.0403
9,513.43	88.8418	9,513.43	88.8633	9,513.43	88.8248	9,513.43	88.8503	9,513.43	88.8599	9,513.43	87.7561	9,513.43	87.7371	9,513.43	85.4536	9,513.43	84.6106	9,513.43	82.1351	9,513.43	83.9991	9,513.43	80.0682	9,513.43	79.1141	9,513.43	76.4916	9,513.43	73.2529	9,513.43	72.6603	9,513.43	74.856	9,513.43	69.6339	9,513.43	71.0675	9,513.43	66.7459	9,513.43	57.6738	9,513.43	60.2787	9,513.43	56.4519	9,513.43	61.6362	9,513.43	49.668	9,513.43	55.7963	9,513.43	57.9956	9,513.43	60.7074	9,513.43	55.1087	9,513.43	58.7946	9,513.43	49.3535	9,513.43	59.8445	9,513.43	54.9753	9,513.43	57.568	9,513.43	52.7929	9,513.43	55.7493
9,848.88	89.2952	9,848.88	89.1255	9,848.88	88.9644	9,848.88	88.9188	9,848.88	88.8435	9,848.88	87.4721	9,848.88	87.5454	9,848.88	85.563	9,848.88	84.6348	9,848.88	82.2373	9,848.88	83.5483	9,848.88	80.0045	9,848.88	78.7401	9,848.88	76.5415	9,848.88	72.1472	9,848.88	73.1233	9,848.88	75.165	9,848.88	69.9834	9,848.88	71.5288	9,848.88	65.6798	9,848.88	62.9607	9,848.88	59.9389	9,848.88	56.8265	9,848.88	60.5322	9,848.88	54.3176	9,848.88	53.8585	9,848.88	56.6281	9,848.88	59.3391	9,848.88	55.0897	9,848.88	60.0397	9,848.88	50.2718	9,848.88	58.9011	9,848.88	52.6938	9,848.88	57.714	9,848.88	51.4536	9,848.88	55.4712
10,196.8	89.6329	10,196.8	89.5033	10,196.8	89.1357	10,196.8	88.757	10,196.8	88.9117	10,196.8	87.2829	10,196.8	87.4797	10,196.8	85.02	10,196.8	84.7741	10,196.8	82.5468	10,196.8	83.1295	10,196.8	79.9707	10,196.8	79.3129	10,196.8	76.9025	10,196.8	69.9434	10,196.8	73.056	10,196.8	75.8345	10,196.8	68.3309	10,196.8	72.7835	10,196.8	63.8398	10,196.8	64.8351	10,196.8	60.0387	10,196.8	54.681	10,196.8	59.5243	10,196.8	55.6636	10,196.8	56.985	10,196.8	53.8111	10,196.8	58.8416	10,196.8	54.8231	10,196.8	58.6694	10,196.8	47.6441	10,196.8	58.1242	10,196.8	51.2933	10,196.8	55.1556	10,196.8	51.805	10,196.8	56.2544
10,556.4	89.8152	10,556.4	89.3207	10,556.4	89.0231	10,556.4	88.6396	10,556.4	88.8811	10,556.4	87.0441	10,556.4	87.3322	10,556.4	84.2648	10,556.4	84.5314	10,556.4	82.5613	10,556.4	82.5959	10,556.4	80.1425	10,556.4	79.3981	10,556.4	76.4781	10,556.4	69.7348	10,556.4	72.0091	10,556.4	75.5495	10,556.4	67.65	10,556.4	72.2258	10,556.4	63.7199	10,556.4	62.4116	10,556.4	60.2259	10,556.4	56.0528	10,556.4	59.9573	10,556.4	55.6913	10,556.4	58.671	10,556.4	55.2277	10,556.4	58.3038	10,556.4	52.4476	10,556.4	58.228	10,556.4	45.8517	10,556.4	55.6117	10,556.4	50.2515	10,556.4	51.9162	10,556.4	51.9277	10,556.4	55.7754
10,928.5	89.7084	10,928.5	88.5662	10,928.5	88.8451	10,928.5	88.6455	10,928.5	88.8575	10,928.5	86.7023	10,928.5	87.1705	10,928.5	84.0032	10,928.5	84.5428	10,928.5	81.9942	10,928.5	82.3393	10,928.5	80.1268	10,928.5	78.8167	10,928.5	75.5243	10,928.5	70.1193	10,928.5	71.2079	10,928.5	73.9214	10,928.5	67.4926	10,928.5	67.9875	10,928.5	64.6921	10,928.5	48.5169	10,928.5	60.9353	10,928.5	53.9394	10,928.5	60.6906	10,928.5	52.0442	10,928.5	54.0852	10,928.5	54.6947	10,928.5	57.618	10,928.5	50.4618	10,928.5	58.627	10,928.5	45.4582	10,928.5	55.2939	10,928.5	45.0158	10,928.5	52.2255	10,928.5	49.7299	10,928.5	56.0233
11,313.7	89.2616	11,313.7	88.3276	11,313.7	88.5629	11,313.7	88.5236	11,313.7	88.3871	11,313.7	86.8315	11,313.7	86.6787	11,313.7	83.7753	11,313.7	84.3467	11,313.7	81.924	11,313.7	82.1189	11,313.7	79.499	11,313.7	77.9984	11,313.7	75.2176	11,313.7	71.5814	11,313.7	70.9528	11,313.7	72.8872	11,313.7	67.2156	11,313.7	65.5857	11,313.7	63.332	11,313.7	56.1261	11,313.7	60.4545	11,313.7	58.437	11,313.7	57.7707	11,313.7	53.9793	11,313.7	52.2573	11,313.7	54.1523	11,313.7	56.5003	11,313.7	53.7504	11,313.7	59.054	11,313.7	45.8115	11,313.7	53.7599	11,313.7	23.0405	11,313.7	49.7207	11,313.7	47.9419	11,313.7	55.1668
11,712.9	88.4363	11,712.9	88.1594	11,712.9	87.868	11,712.9	87.939	11,712.9	87.8192	11,712.9	86.873	11,712.9	86.1928	11,712.9	83.6926	11,712.9	83.8991	11,712.9	81.8493	11,712.9	82.2908	11,712.9	79.4154	11,712.9	77.2171	11,712.9	74.6729	11,712.9	72.6901	11,712.9	70.7751	11,712.9	73.0946	11,712.9	67.8213	11,712.9	68.5759	11,712.9	63.3837	11,712.9	54.3673	11,712.9	62.3478	11,712.9	49.6911	11,712.9	57.7219	11,712.9	51.1366	11,712.9	53.5259	11,712.9	54.6205	11,712.9	56.6579	11,712.9	57.2418	11,712.9	56.8235	11,712.9	41.9544	11,712.9	50.8153	11,712.9	43.7671	11,712.9	44.9909	11,712.9	46.7608	11,712.9	53.5189
12,126	88.1553	12,126	87.345	12,126	87.2145	12,126	87.2954	12,126	87.037	12,126	86.2555	12,126	85.9153	12,126	84.1901	12,126	83.4815	12,126	81.6536	12,126	82.5735	12,126	78.2988	12,126	76.7992	12,126	75.9233	12,126	74.0118	12,126	71.2781	12,126	71.3088	12,126	67.364	12,126	67.6442	12,126	61.5433	12,126	60.9422	12,126	61.3003	12,126	48.8933	12,126	59.9103	12,126	55.2715	12,126	53.3238	12,126	59.4651	12,126	52.8652	12,126	58.4712	12,126	55.8998	12,126	43.9424	12,126	49.3929	12,126	44.6285	12,126	18.9234	12,126	48.2228	12,126	52.0707
12,553.7	87.5678	12,553.7	86.9237	12,553.7	87.2192	12,553.7	86.3274	12,553.7	86.2801	12,553.7	85.8804	12,553.7	85.6366	12,553.7	84.1425	12,553.7	82.9964	12,553.7	81.6094	12,553.7	81.9892	12,553.7	78.3993	12,553.7	77.7265	12,553.7	75.1461	12,553.7	74.3209	12,553.7	70.5084	12,553.7	70.5657	12,553.7	67.7841	12,553.7	64.0028	12,553.7	58.0985	12,553.7	62.1327	12,553.7	60.8097	12,553.7	55.4909	12,553.7	57.9389	12,553.7	57.8147	12,553.7	45.1178	12,553.7	61.371	12,553.7	54.558	12,553.7	57.3522	12,553.7	57.6664	12,553.7	51.2922	12,553.7	51.9309	12,553.7	42.0156	12,553.7	46.5256	12,553.7	46.0644	12,553.7	51.8957
12,996.1	86.9457	12,996.1	86.5775	12,996.1	86.8815	12,996.1	86.1693	12,996.1	85.5685	12,996.1	85.173	12,996.1	85.484	12,996.1	84.0778	12,996.1	83.2731	12,996.1	80.778	12,996.1	81.2556	12,996.1	78.7379	12,996.1	78.7186	12,996.1	74.8311	12,996.1	74.3236	12,996.1	68.9477	12,996.1	69.4439	12,996.1	66.6043	12,996.1	62.8351	12,996.1	58.1084	12,996.1	61.7409	12,996.1	59.042	12,996.1	59.598	12,996.1	55.8981	12,996.1	55.682	12,996.1	48.6487	12,996.1	60.2236	12,996.1	54.8677	12,996.1	54.4585	12,996.1	57.6004	12,996.1	51.3681	12,996.1	52.4224	12,996.1	42.6508	12,996.1	45.6094	12,996.1	53.6189	12,996.1	52.3038
13,454.6	86.1828	13,454.6	86.2967	13,454.6	86.2551	13,454.6	85.8521	13,454.6	85.4577	13,454.6	85.169	13,454.6	85.1469	13,454.6	83.1319	13,454.6	83.2503	13,454.6	80.967	13,454.6	80.5697	13,454.6	78.3025	13,454.6	78.6595	13,454.6	73.9445	13,454.6	73.3186	13,454.6	68.823	13,454.6	65.0509	13,454.6	66.3954	13,454.6	63.4623	13,454.6	57.4773	13,454.6	62.4402	13,454.6	59.3059	13,454.6	58.2537	13,454.6	51.9058	13,454.6	54.9926	13,454.6	54.2809	13,454.6	57.9942	13,454.6	53.3657	13,454.6	48.2915	13,454.6	54.7164	13,454.6	46.7439	13,454.6	51.8821	13,454.6	40.8986	13,454.6	34.9464	13,454.6	48.6205	13,454.6	50.1261
13,928.5	85.4499	13,928.5	85.7771	13,928.5	85.5757	13,928.5	85.3717	13,928.5	85.0327	13,928.5	85.3321	13,928.5	84.6687	13,928.5	83.109	13,928.5	82.7563	13,928.5	80.572	13,928.5	80.5259	13,928.5	77.7072	13,928.5	78.5647	13,928.5	74.1814	13,928.5	72.7156	13,928.5	68.2013	13,928.5	62.7414	13,928.5	65.9538	13,928.5	58.9823	13,928.5	58.53	13,928.5	57.6025	13,928.5	59.0179	13,928.5	58.9085	13,928.5	51.1835	13,928.5	51.3139	13,928.5	55.0906	13,928.5	54.76	13,928.5	51.4178	13,928.5	46.5035	13,928.5	52.8657	13,928.5	45.6042	13,928.5	52.1928	13,928.5	44.4254	13,928.5	36.4067	13,928.5	48.5972	13,928.5	51.7429
14,419.9	85.8272	14,419.9	85.6928	14,419.9	85.4369	14,419.9	85.2169	14,419.9	84.7941	14,419.9	85.1191	14,419.9	84.3592	14,419.9	82.8315	14,419.9	82.325	14,419.9	80.2011	14,419.9	80.2486	14,419.9	76.5172	14,419.9	77.5595	14,419.9	73.2915	14,419.9	72.0202	14,419.9	68.228	14,419.9	57.9432	14,419.9	63.4188	14,419.9	57.7318	14,419.9	55.2284	14,419.9	53.1925	14,419.9	57.9247	14,419.9	56.8781	14,419.9	50.167	14,419.9	49.8144	14,419.9	54.0291	14,419.9	52.8074	14,419.9	48.3815	14,419.9	40.5218	14,419.9	49.5928	14,419.9	45.6957	14,419.9	51.64	14,419.9	44.2855	14,419.9	32.3305	14,419.9	50.7193	14,419.9	50.645
14,928.2	86.1887	14,928.2	86.096	14,928.2	86.007	14,928.2	85.196	14,928.2	85.4542	14,928.2	84.6532	14,928.2	84.2545	14,928.2	82.8277	14,928.2	81.8185	14,928.2	79.4624	14,928.2	79.4224	14,928.2	75.8952	14,928.2	76.3808	14,928.2	71.3987	14,928.2	69.2903	14,928.2	66.4958	14,928.2	62.9289	14,928.2	61.3819	14,928.2	52.9198	14,928.2	52.463	14,928.2	41.0177	14,928.2	54.5572	14,928.2	51.3022	14,928.2	48.3858	14,928.2	49.6478	14,928.2	51.2903	14,928.2	51.0964	14,928.2	43.523	14,928.2	29.6173	14,928.2	47.0543	14,928.2	42.2985	14,928.2	49.5886	14,928.2	47.317	14,928.2	38.6608	14,928.2	47.4918	14,928.2	51.6396
15,454.8	86.6349	15,454.8	86.2008	15,454.8	86.164	15,454.8	85.7006	15,454.8	85.8023	15,454.8	84.6777	15,454.8	84.199	15,454.8	82.526	15,454.8	81.6698	15,454.8	78.9726	15,454.8	78.5476	15,454.8	75.3167	15,454.8	75.0195	15,454.8	70.2029	15,454.8	67.2909	15,454.8	65.3127	15,454.8	58.4578	15,454.8	59.348	15,454.8	49.4619	15,454.8	48.4941	15,454.8	57.5988	15,454.8	55.1625	15,454.8	49.1461	15,454.8	48.2465	15,454.8	45.3002	15,454.8	48.3165	15,454.8	46.758	15,454.8	39.0654	15,454.8	42.0889	15,454.8	45.342	15,454.8	36.3236	15,454.8	49.9664	15,454.8	39.581	15,454.8	46.6152	15,454.8	49.2722	15,454.8	49.3778
15,999.8	86.3026	15,999.8	85.8733	15,999.8	85.6132	15,999.8	85.2777	15,999.8	85.5256	15,999.8	84.2682	15,999.8	83.7615	15,999.8	81.9553	15,999.8	81.244	15,999.8	77.9097	15,999.8	77.64	15,999.8	73.9973	15,999.8	72.4753	15,999.8	68.9576	15,999.8	64.6049	15,999.8	63.5349	15,999.8	58.0952	15,999.8	58.3	15,999.8	46.5789	15,999.8	51.8183	15,999.8	59.6272	15,999.8	52.918	15,999.8	37.0387	15,999.8	45.2814	15,999.8	40.4048	15,999.8	47.0674	15,999.8	25.1594	15,999.8	35.2225	15,999.8	47.3784	15,999.8	48.4162	15,999.8	38.5804	15,999.8	53.7811	15,999.8	41.3465	15,999.8	47.7126	15,999.8	45.0818	15,999.8	45.4406
16,564.5	86.3527	16,564.5	85.7402	16,564.5	85.7046	16,564.5	84.8008	16,564.5	85.3864	16,564.5	83.9772	16,564.5	83.8124	16,564.5	81.1886	16,564.5	80.9197	16,564.5	76.9064	16,564.5	77.4152	16,564.5	72.2391	16,564.5	71.068	16,564.5	66.8156	16,564.5	60.343	16,564.5	61.563	16,564.5	57.9329	16,564.5	53.7229	16,564.5	49.0322	16,564.5	51.8744	16,564.5	60.2385	16,564.5	49.0668	16,564.5	43.9457	16,564.5	41.9208	16,564.5	48.2834	16,564.5	40.6152	16,564.5	42.1584	16,564.5	41.1491	16,564.5	46.5874	16,564.5	49.1171	16,564.5	40.5941	16,564.5	53.8555	16,564.5	39.9532	16,564.5	40.6472	16,564.5	38.416	16,564.5	41.4609
17,148.2	87.0992	17,148.2	86.298	17,148.2	86.6904	17,148.2	84.5702	17,148.2	85.4952	17,148.2	83.1553	17,148.2	83.765	17,148.2	79.9345	17,148.2	80.4385	17,148.2	75.1221	17,148.2	77.1338	17,148.2	68.6648	17,148.2	70.758	17,148.2	62.4382	17,148.2	58.9487	17,148.2	57.5282	17,148.2	54.0094	17,148.2	51.2717	17,148.2	49.594	17,148.2	49.4134	17,148.2	55.2817	17,148.2	43.1192	17,148.2	47.2752	17,148.2	42.0289	17,148.2	49.8267	17,148.2	30.7344	17,148.2	45.196	17,148.2	43.3518	17,148.2	48.1775	17,148.2	47.7173	17,148.2	41.6534	17,148.2	52.3776	17,148.2	39.8917	17,148.2	37.0896	17,148.2	38.5159	17,148.2	40.0178
17,753.2	87.4905	17,753.2	86.757	17,753.2	87.1221	17,753.2	84.5376	17,753.2	85.4819	17,753.2	82.459	17,753.2	83.3477	17,753.2	78.3001	17,753.2	79.4864	17,753.2	72.3798	17,753.2	75.4171	17,753.2	63.9685	17,753.2	68.5882	17,753.2	56.5791	17,753.2	56.8989	17,753.2	51.0951	17,753.2	52.8897	17,753.2	47.2944	17,753.2	49.1219	17,753.2	43.4442	17,753.2	46.8924	17,753.2	37.0608	17,753.2	48.8704	17,753.2	30.6298	17,753.2	48.234	17,753.2	28.624	17,753.2	45.5889	17,753.2	39.2884	17,753.2	45.9601	17,753.2	44.2795	17,753.2	41.8559	17,753.2	49.8683	17,753.2	37.9813	17,753.2	39.2448	17,753.2	38.6665	17,753.2	41.4899
18,379.4	87.0004	18,379.4	86.3586	18,379.4	86.6654	18,379.4	84.1118	18,379.4	84.8093	18,379.4	81.6672	18,379.4	82.7288	18,379.4	77.1058	18,379.4	78.7626	18,379.4	69.6419	18,379.4	73.6677	18,379.4	59.7564	18,379.4	66.5672	18,379.4	50.0855	18,379.4	56.9989	18,379.4	41.903	18,379.4	51.0379	18,379.4	31.6136	18,379.4	46.4606	18,379.4	39.4819	18,379.4	44.8778	18,379.4	27.6612	18,379.4	48.3559	18,379.4	34.4761	18,379.4	49.3561	18,379.4	37.2188	18,379.4	48.9097	18,379.4	41.361	18,379.4	46.0666	18,379.4	44.4471	18,379.4	42.4035	18,379.4	44.378	18,379.4	37.488	18,379.4	41.5407	18,379.4	42.5232	18,379.4	40.1039
19,027.6	86.634	19,027.6	85.9504	19,027.6	86.134	19,027.6	83.3546	19,027.6	83.5393	19,027.6	80.6744	19,027.6	81.1504	19,027.6	75.6572	19,027.6	77.0791	19,027.6	67.8677	19,027.6	71.5704	19,027.6	57.4561	19,027.6	64.4706	19,027.6	47.2318	19,027.6	53.7093	19,027.6	48.5196	19,027.6	39.6633	19,027.6	38.4629	19,027.6	43.9654	19,027.6	37.1741	19,027.6	50.6286	19,027.6	36.1779	19,027.6	48.069	19,027.6	37.2022	19,027.6	49.2999	19,027.6	34.5402	19,027.6	47.7992	19,027.6	35.9508	19,027.6	40.3872	19,027.6	40.68	19,027.6	34.4256	19,027.6	27.8293	19,027.6	31.3643	19,027.6	41.557	19,027.6	42.3746	19,027.6	43.4605
19,698.5	86.4163	19,698.5	85.4629	19,698.5	85.7945	19,698.5	82.4354	19,698.5	82.68	19,698.5	79.608	19,698.5	79.2172	19,698.5	74.3448	19,698.5	74.1865	19,698.5	65.7218	19,698.5	68.3426	19,698.5	54.7492	19,698.5	59.7479	19,698.5	50.0179	19,698.5	48.907	19,698.5	48.5338	19,698.5	37.2849	19,698.5	31.8476	19,698.5	44.6663	19,698.5	40.9006	19,698.5	54.116	19,698.5	31.8426	19,698.5	42.1903	19,698.5	38.4883	19,698.5	47.1676	19,698.5	37.3307	19,698.5	45.5169	19,698.5	34.318	19,698.5	37.6941	19,698.5	35.1958	19,698.5	40.1587	19,698.5	30.47	19,698.5	28.2069	19,698.5	41.4425	19,698.5	43.1161	19,698.5	44.7062
19,999.5	86.2225	19,999.5	85.1566	19,999.5	85.3972	19,999.5	82.053	19,999.5	82.3683	19,999.5	79.0285	19,999.5	78.7589	19,999.5	74.1516	19,999.5	73.3615	19,999.5	64.7499	19,999.5	66.1574	19,999.5	53.239	19,999.5	58.4494	19,999.5	52.5545	19,999.5	52.1741	19,999.5	51.1235	19,999.5	51.7747	19,999.5	45.8399	19,999.5	47.903	19,999.5	40.904	19,999.5	47.2874	19,999.5	43.474	19,999.5	44.0666	19,999.5	31.1976	19,999.5	44.6957	19,999.5	50.8493	19,999.5	47.9186	19,999.5	41.3938	19,999.5	44.1013	19,999.5	37.8235	19,999.5	36.1922	19,999.5	41.3232	19,999.5	35.1062	19,999.5	47.7224	19,999.5	45.3811	19,999.5	42.6779
