"SPL Horizontal"
"On-Axis"		"10°"		"-10°"		"20°"		"-20°"		"30°"		"-30°"		"40°"		"-40°"		"50°"		"-50°"		"60°"		"-60°"		"70°"		"-70°"		"80°"		"-80°"		"90°"		"-90°"		"100°"		"-100°"		"110°"		"-110°"		"120°"		"-120°"		"130°"		"-130°"		"140°"		"-140°"		"150°"		"-150°"		"160°"		"-160°"		"170°"		"-170°"		"180°"
"Frequency [Hz]"	"Sound Pessure Level [dB]  / [2.83V 1m] "	"Frequency [Hz]"	"Sound Pessure Level [dB]  / [2.83V 1m] "	"Frequency [Hz]"	"Sound Pessure Level [dB]  / [2.83V 1m] "	"Frequency [Hz]"	"Sound Pessure Level [dB]  / [2.83V 1m] "	"Frequency [Hz]"	"Sound Pessure Level [dB]  / [2.83V 1m] "	"Frequency [Hz]"	"Sound Pessure Level [dB]  / [2.83V 1m] "	"Frequency [Hz]"	"Sound Pessure Level [dB]  / [2.83V 1m] "	"Frequency [Hz]"	"Sound Pessure Level [dB]  / [2.83V 1m] "	"Frequency [Hz]"	"Sound Pessure Level [dB]  / [2.83V 1m] "	"Frequency [Hz]"	"Sound Pessure Level [dB]  / [2.83V 1m] "	"Frequency [Hz]"	"Sound Pessure Level [dB]  / [2.83V 1m] "	"Frequency [Hz]"	"Sound Pessure Level [dB]  / [2.83V 1m] "	"Frequency [Hz]"	"Sound Pessure Level [dB]  / [2.83V 1m] "	"Frequency [Hz]"	"Sound Pessure Level [dB]  / [2.83V 1m] "	"Frequency [Hz]"	"Sound Pessure Level [dB]  / [2.83V 1m] "	"Frequency [Hz]"	"Sound Pessure Level [dB]  / [2.83V 1m] "	"Frequency [Hz]"	"Sound Pessure Level [dB]  / [2.83V 1m] "	"Frequency [Hz]"	"Sound Pessure Level [dB]  / [2.83V 1m] "	"Frequency [Hz]"	"Sound Pessure Level [dB]  / [2.83V 1m] "	"Frequency [Hz]"	"Sound Pessure Level [dB]  / [2.83V 1m] "	"Frequency [Hz]"	"Sound Pessure Level [dB]  / [2.83V 1m] "	"Frequency [Hz]"	"Sound Pessure Level [dB]  / [2.83V 1m] "	"Frequency [Hz]"	"Sound Pessure Level [dB]  / [2.83V 1m] "	"Frequency [Hz]"	"Sound Pessure Level [dB]  / [2.83V 1m] "	"Frequency [Hz]"	"Sound Pessure Level [dB]  / [2.83V 1m] "	"Frequency [Hz]"	"Sound Pessure Level [dB]  / [2.83V 1m] "	"Frequency [Hz]"	"Sound Pessure Level [dB]  / [2.83V 1m] "	"Frequency [Hz]"	"Sound Pessure Level [dB]  / [2.83V 1m] "	"Frequency [Hz]"	"Sound Pessure Level [dB]  / [2.83V 1m] "	"Frequency [Hz]"	"Sound Pessure Level [dB]  / [2.83V 1m] "	"Frequency [Hz]"	"Sound Pessure Level [dB]  / [2.83V 1m] "	"Frequency [Hz]"	"Sound Pessure Level [dB]  / [2.83V 1m] "	"Frequency [Hz]"	"Sound Pessure Level [dB]  / [2.83V 1m] "	"Frequency [Hz]"	"Sound Pessure Level [dB]  / [2.83V 1m] "	"Frequency [Hz]"	"Sound Pessure Level [dB]  / [2.83V 1m] "	"Frequency [Hz]"	"Sound Pessure Level [dB]  / [2.83V 1m] "
20.5078	59.7016	20.5078	59.5009	20.5078	59.7338	20.5078	59.1256	20.5078	59.5995	20.5078	58.5644	20.5078	59.2967	20.5078	57.7997	20.5078	58.8193	20.5078	56.8048	20.5078	58.1559	20.5078	55.543	20.5078	57.2891	20.5078	53.9709	20.5078	56.1951	20.5078	52.0628	20.5078	54.8465	20.5078	49.9242	20.5078	53.2276	20.5078	48.1334	20.5078	51.3914	20.5078	47.836	20.5078	49.6263	20.5078	49.0948	20.5078	48.6538	20.5078	50.7528	20.5078	49.0544	20.5078	52.1606	20.5078	50.3245	20.5078	53.1761	20.5078	51.688	20.5078	53.8038	20.5078	52.7973	20.5078	54.0692	20.5078	53.5665	20.5078	53.9889
21.9727	55.0164	21.9727	54.9916	21.9727	54.9273	21.9727	54.8959	21.9727	54.7295	21.9727	54.8283	21.9727	54.4824	21.9727	54.9462	21.9727	54.3192	21.9727	55.4177	21.9727	54.446	21.9727	56.3147	21.9727	55.0539	21.9727	57.552	21.9727	56.1634	21.9727	58.9583	21.9727	57.6034	21.9727	60.3796	21.9727	59.1561	21.9727	61.7181	21.9727	60.6659	21.9727	62.923	21.9727	62.0495	21.9727	63.9716	21.9727	63.2685	21.9727	64.8551	21.9727	64.3077	21.9727	65.5714	21.9727	65.1622	21.9727	66.1203	21.9727	65.8321	21.9727	66.5017	21.9727	66.3192	21.9727	66.7147	21.9727	66.6265	21.9727	66.7572
23.4375	62.0983	23.4375	62.1248	23.4375	62.0531	23.4375	62.1442	23.4375	61.9912	23.4375	62.1814	23.4375	61.9297	23.4375	62.2723	23.4375	61.9015	23.4375	62.4584	23.4375	61.9534	23.4375	62.776	23.4375	62.1377	23.4375	63.2433	23.4375	62.4959	23.4375	63.8505	23.4375	63.0397	23.4375	64.5624	23.4375	63.7436	23.4375	65.3292	23.4375	64.5526	23.4375	66.0996	23.4375	65.4018	23.4375	66.8293	23.4375	66.2314	23.4375	67.4841	23.4375	66.9943	23.4375	68.0389	23.4375	67.6571	23.4375	68.4763	23.4375	68.1979	23.4375	68.7843	23.4375	68.6032	23.4375	68.9549	23.4375	68.8658	23.4375	68.983
24.9023	66.396	24.9023	66.3848	24.9023	66.4213	24.9023	66.3938	24.9023	66.461	24.9023	66.435	24.9023	66.5215	24.9023	66.5252	24.9023	66.6148	24.9023	66.6835	24.9023	66.757	24.9023	66.9267	24.9023	66.9657	24.9023	67.2645	24.9023	67.255	24.9023	67.6944	24.9023	67.6311	24.9023	68.2012	24.9023	68.0882	24.9023	68.7589	24.9023	68.6084	24.9023	69.3357	24.9023	69.164	24.9023	69.8989	24.9023	69.723	24.9023	70.419	24.9023	70.2539	24.9023	70.8714	24.9023	70.7285	24.9023	71.2367	24.9023	71.1241	24.9023	71.5011	24.9023	71.4239	24.9023	71.6553	24.9023	71.6161	24.9023	71.6941
26.3672	69.5057	26.3672	69.5623	26.3672	69.4764	26.3672	69.6478	26.3672	69.4781	26.3672	69.7684	26.3672	69.5186	26.3672	69.934	26.3672	69.6094	26.3672	70.1556	26.3672	69.7634	26.3672	70.4426	26.3672	69.992	26.3672	70.7989	26.3672	70.3021	26.3672	71.2203	26.3672	70.6929	26.3672	71.6935	26.3672	71.1543	26.3672	72.1979	26.3672	71.6672	26.3672	72.7085	26.3672	72.2066	26.3672	73.1995	26.3672	72.7446	26.3672	73.6473	26.3672	73.2538	26.3672	74.032	26.3672	73.71	26.3672	74.3377	26.3672	74.0932	26.3672	74.5524	26.3672	74.3886	26.3672	74.6681	26.3672	74.5861	26.3672	74.6798
27.832	73.6206	27.832	73.6249	27.832	73.6395	27.832	73.6544	27.832	73.6814	27.832	73.7127	27.832	73.7478	27.832	73.8044	27.832	73.8413	27.832	73.9343	27.832	73.9658	27.832	74.1063	27.832	74.125	27.832	74.322	27.832	74.3218	27.832	74.5795	27.832	74.5569	27.832	74.873	27.832	74.8283	27.832	75.193	27.832	75.1297	27.832	75.5264	27.832	75.4509	27.832	75.8582	27.832	75.7781	27.832	76.1722	27.832	76.0949	27.832	76.4526	27.832	76.3843	27.832	76.685	27.832	76.6303	27.832	76.8572	27.832	76.8193	27.832	76.9603	27.832	76.9409	27.832	76.9887
29.2969	75.8214	29.2969	75.8418	29.2969	75.8232	29.2969	75.8851	29.2969	75.8476	29.2969	75.9529	29.2969	75.8957	29.2969	76.0475	29.2969	75.9698	29.2969	76.1708	29.2969	76.0725	29.2969	76.3247	29.2969	76.2066	29.2969	76.5097	29.2969	76.374	29.2969	76.7243	29.2969	76.575	29.2969	76.9648	29.2969	76.8072	29.2969	77.2246	29.2969	77.0652	29.2969	77.4945	29.2969	77.3401	29.2969	77.763	29.2969	77.6201	29.2969	78.0172	29.2969	77.8913	29.2969	78.2443	29.2969	78.1396	29.2969	78.4319	29.2969	78.3514	29.2969	78.5699	29.2969	78.5154	29.2969	78.6503	29.2969	78.6228	29.2969	78.6685
30.7617	77.8834	30.7617	77.8972	30.7617	77.8883	30.7617	77.9304	30.7617	77.9116	30.7617	77.984	30.7617	77.9532	30.7617	78.0588	30.7617	78.0136	30.7617	78.1556	30.7617	78.0935	30.7617	78.2745	30.7617	78.1937	30.7617	78.4151	30.7617	78.3147	30.7617	78.5757	30.7617	78.4565	30.7617	78.7531	30.7617	78.618	30.7617	78.9429	30.7617	78.7967	30.7617	79.1387	30.7617	78.9881	30.7617	79.333	30.7617	79.1857	30.7617	79.5168	30.7617	79.381	30.7617	79.681	30.7617	79.5639	30.7617	79.8163	30.7617	79.724	30.7617	79.9148	30.7617	79.8513	30.7617	79.9701	30.7617	79.9378	30.7617	79.9781
32.2266	78.1537	32.2266	78.1758	32.2266	78.1498	32.2266	78.216	32.2266	78.1644	32.2266	78.2747	32.2266	78.1982	32.2266	78.3522	32.2266	78.252	32.2266	78.4492	32.2266	78.327	32.2266	78.5659	32.2266	78.4241	32.2266	78.7021	32.2266	78.5439	32.2266	78.8568	32.2266	78.6864	32.2266	79.0276	32.2266	78.8503	32.2266	79.2107	32.2266	79.0323	32.2266	79.4003	32.2266	79.2275	32.2266	79.5892	32.2266	79.4286	32.2266	79.7689	32.2266	79.6263	32.2266	79.9298	32.2266	79.8103	32.2266	80.063	32.2266	79.9703	32.2266	80.16	32.2266	80.0969	32.2266	80.2145	32.2266	80.1826	32.2266	80.2224
33.6914	79.2404	33.6914	79.2535	33.6914	79.2447	33.6914	79.2841	33.6914	79.2665	33.6914	79.332	33.6914	79.3058	33.6914	79.3971	33.6914	79.3626	33.6914	79.4793	33.6914	79.437	33.6914	79.5781	33.6914	79.5286	33.6914	79.6926	33.6914	79.637	33.6914	79.8214	33.6914	79.761	33.6914	79.962	33.6914	79.8989	33.6914	80.1114	33.6914	80.0478	33.6914	80.265	33.6914	80.2036	33.6914	80.4175	33.6914	80.3609	33.6914	80.5625	33.6914	80.5129	33.6914	80.693	33.6914	80.6524	33.6914	80.8023	33.6914	80.7715	33.6914	80.8842	33.6914	80.8637	33.6914	80.9335	33.6914	80.9232	33.6914	80.9469
35.1562	79.6047	35.1562	79.6159	35.1562	79.6091	35.1562	79.6426	35.1562	79.629	35.1562	79.6848	35.1562	79.6643	35.1562	79.7422	35.1562	79.7148	35.1562	79.8143	35.1562	79.7802	35.1562	79.9005	35.1562	79.86	35.1562	79.9997	35.1562	79.9536	35.1562	80.1102	35.1562	80.0599	35.1562	80.23	35.1562	80.1772	35.1562	80.3562	35.1562	80.303	35.1562	80.4852	35.1562	80.4339	35.1562	80.6124	35.1562	80.5654	35.1562	80.7328	35.1562	80.692	35.1562	80.8409	35.1562	80.8076	35.1562	80.9312	35.1562	80.9062	35.1562	80.9988	35.1562	80.9823	35.1562	81.0395	35.1562	81.0313	35.1562	81.0507
36.6211	79.9996	36.6211	80.0071	36.6211	80.0057	36.6211	80.0283	36.6211	80.0251	36.6211	80.0629	36.6211	80.0575	36.6211	80.1106	36.6211	80.1025	36.6211	80.1709	36.6211	80.1595	36.6211	80.2428	36.6211	80.2277	36.6211	80.3254	36.6211	80.3063	36.6211	80.417	36.6211	80.3942	36.6211	80.5157	36.6211	80.4899	36.6211	80.619	36.6211	80.5914	36.6211	80.7239	36.6211	80.696	36.6211	80.8269	36.6211	80.8003	36.6211	80.9238	36.6211	80.9001	36.6211	81.0106	36.6211	80.9909	36.6211	81.083	36.6211	81.068	36.6211	81.1372	36.6211	81.1272	36.6211	81.1701	36.6211	81.1652	36.6211	81.1797
38.0859	80.3246	38.0859	80.33	38.0859	80.3316	38.0859	80.3477	38.0859	80.3505	38.0859	80.3775	38.0859	80.3811	38.0859	80.4191	38.0859	80.4227	38.0859	80.4717	38.0859	80.4746	38.0859	80.5344	38.0859	80.536	38.0859	80.6062	38.0859	80.6059	38.0859	80.6854	38.0859	80.6831	38.0859	80.7704	38.0859	80.7661	38.0859	80.8587	38.0859	80.8531	38.0859	80.9479	38.0859	80.9416	38.0859	81.0349	38.0859	81.0287	38.0859	81.1165	38.0859	81.1111	38.0859	81.1894	38.0859	81.1852	38.0859	81.2502	38.0859	81.2474	38.0859	81.296	38.0859	81.2944	38.0859	81.3245	38.0859	81.3238	38.0859	81.3339
39.5508	81.7368	39.5508	81.7435	39.5508	81.7437	39.5508	81.764	39.5508	81.7641	39.5508	81.7981	39.5508	81.7976	39.5508	81.8454	39.5508	81.8437	39.5508	81.9054	39.5508	81.9018	39.5508	81.9772	39.5508	81.971	39.5508	82.0594	39.5508	82.0502	39.5508	82.1504	39.5508	82.138	39.5508	82.2481	39.5508	82.2326	39.5508	82.3497	39.5508	82.3319	39.5508	82.4524	39.5508	82.4332	39.5508	82.5526	39.5508	82.5333	39.5508	82.6466	39.5508	82.6285	39.5508	82.7304	39.5508	82.7149	39.5508	82.8003	39.5508	82.7882	39.5508	82.8527	39.5508	82.8445	39.5508	82.8846	39.5508	82.8805	39.5508	82.8941
41.0156	81.9649	41.0156	81.9651	41.0156	81.9771	41.0156	81.9777	41.0156	82.0018	41.0156	82.0023	41.0156	82.0387	41.0156	82.0385	41.0156	82.0876	41.0156	82.0856	41.0156	82.1476	41.0156	82.1429	41.0156	82.2177	41.0156	82.2092	41.0156	82.2965	41.0156	82.2833	41.0156	82.3823	41.0156	82.3639	41.0156	82.4728	41.0156	82.4494	41.0156	82.5656	41.0156	82.5382	41.0156	82.6577	41.0156	82.6281	41.0156	82.7458	41.0156	82.7163	41.0156	82.8266	41.0156	82.7996	41.0156	82.8964	41.0156	82.8739	41.0156	82.9517	41.0156	82.9352	41.0156	82.9896	41.0156	82.9795	41.0156	83.0075	41.0156	83.0042
42.4805	82.19	42.4805	82.2064	42.4805	82.1839	42.4805	82.233	42.4805	82.1885	42.4805	82.2692	42.4805	82.2037	42.4805	82.3143	42.4805	82.2292	42.4805	82.3674	42.4805	82.2647	42.4805	82.4276	42.4805	82.3093	42.4805	82.4934	42.4805	82.3623	42.4805	82.5634	42.4805	82.4223	42.4805	82.6358	42.4805	82.4881	42.4805	82.7088	42.4805	82.558	42.4805	82.7802	42.4805	82.6304	42.4805	82.8476	42.4805	82.7035	42.4805	82.9084	42.4805	82.7752	42.4805	82.9598	42.4805	82.8433	42.4805	82.999	42.4805	82.9051	42.4805	83.0235	42.4805	82.9575	42.4805	83.0317	42.4805	82.9976	42.4805	83.0229
43.9453	82.4203	43.9453	82.4403	43.9453	82.4101	43.9453	82.47	43.9453	82.41	43.9453	82.5088	43.9453	82.4196	43.9453	82.5559	43.9453	82.4387	43.9453	82.6103	43.9453	82.4668	43.9453	82.6706	43.9453	82.5032	43.9453	82.7353	43.9453	82.5472	43.9453	82.8026	43.9453	82.5979	43.9453	82.8705	43.9453	82.6543	43.9453	82.937	43.9453	82.7153	43.9453	82.9999	43.9453	82.7796	43.9453	83.0572	43.9453	82.846	43.9453	83.1065	43.9453	82.9127	43.9453	83.1458	43.9453	82.9777	43.9453	83.1729	43.9453	83.0384	43.9453	83.1861	43.9453	83.0921	43.9453	83.1842	43.9453	83.1359	43.9453	83.1672
45.4102	82.7697	45.4102	82.7899	45.4102	82.759	45.4102	82.8192	45.4102	82.7578	45.4102	82.8571	45.4102	82.7662	45.4102	82.9028	45.4102	82.7839	45.4102	82.9551	45.4102	82.8104	45.4102	83.0128	45.4102	82.8453	45.4102	83.0741	45.4102	82.8877	45.4102	83.1376	45.4102	82.9367	45.4102	83.2012	45.4102	82.9914	45.4102	83.2633	45.4102	83.0506	45.4102	83.3219	45.4102	83.1128	45.4102	83.3749	45.4102	83.1765	45.4102	83.4205	45.4102	83.2399	45.4102	83.4566	45.4102	83.3012	45.4102	83.4814	45.4102	83.3578	45.4102	83.4935	45.4102	83.4075	45.4102	83.4919	45.4102	83.4478	45.4102	83.4764
46.875	83.0476	46.875	83.0696	46.875	83.0348	46.875	83.1005	46.875	83.0316	46.875	83.1396	46.875	83.0378	46.875	83.1859	46.875	83.0535	46.875	83.2383	46.875	83.0781	46.875	83.2953	46.875	83.111	46.875	83.3554	46.875	83.1514	46.875	83.4167	46.875	83.1981	46.875	83.4773	46.875	83.2499	46.875	83.5353	46.875	83.3055	46.875	83.5886	46.875	83.3634	46.875	83.6356	46.875	83.4223	46.875	83.6743	46.875	83.4806	46.875	83.7034	46.875	83.5368	46.875	83.7215	46.875	83.5891	46.875	83.7277	46.875	83.6356	46.875	83.7216	46.875	83.6743	46.875	83.7035
48.3398	83.3737	48.3398	83.3919	48.3398	83.3629	48.3398	83.4172	48.3398	83.36	48.3398	83.4488	48.3398	83.3649	48.3398	83.4861	48.3398	83.3776	48.3398	83.5278	48.3398	83.3976	48.3398	83.5729	48.3398	83.4244	48.3398	83.6199	48.3398	83.4571	48.3398	83.6675	48.3398	83.4947	48.3398	83.7142	48.3398	83.5362	48.3398	83.7584	48.3398	83.5802	48.3398	83.7987	48.3398	83.6255	48.3398	83.8339	48.3398	83.671	48.3398	83.8626	48.3398	83.7155	48.3398	83.8839	48.3398	83.7579	48.3398	83.8968	48.3398	83.797	48.3398	83.9009	48.3398	83.8316	48.3398	83.8959	48.3398	83.8604	48.3398	83.8822
51.2695	83.9879	51.2695	84.0035	51.2695	83.9772	51.2695	84.0237	51.2695	83.9717	51.2695	84.0478	51.2695	83.9713	51.2695	84.0751	51.2695	83.976	51.2695	84.1047	51.2695	83.9852	51.2695	84.1356	51.2695	83.9985	51.2695	84.1664	51.2695	84.0151	51.2695	84.1961	51.2695	84.0343	51.2695	84.2232	51.2695	84.0553	51.2695	84.2467	51.2695	84.0773	51.2695	84.2657	51.2695	84.0998	51.2695	84.2794	51.2695	84.1224	51.2695	84.2874	51.2695	84.1448	51.2695	84.2897	51.2695	84.1671	51.2695	84.2865	51.2695	84.189	51.2695	84.2782	51.2695	84.2104	51.2695	84.2656	51.2695	84.2308	51.2695	84.2495
52.7344	84.3157	52.7344	84.3345	52.7344	84.3003	52.7344	84.3563	52.7344	84.2887	52.7344	84.3805	52.7344	84.2811	52.7344	84.4064	52.7344	84.2775	52.7344	84.433	52.7344	84.2776	52.7344	84.4593	52.7344	84.2813	52.7344	84.4843	52.7344	84.2879	52.7344	84.5067	52.7344	84.2971	52.7344	84.5256	52.7344	84.3083	52.7344	84.5399	52.7344	84.3211	52.7344	84.5489	52.7344	84.335	52.7344	84.5521	52.7344	84.35	52.7344	84.5495	52.7344	84.3662	52.7344	84.5412	52.7344	84.3838	52.7344	84.528	52.7344	84.4029	52.7344	84.5106	52.7344	84.4237	52.7344	84.4902	52.7344	84.4456	52.7344	84.4682
54.1992	84.6559	54.1992	84.6781	54.1992	84.6361	54.1992	84.7023	54.1992	84.6193	54.1992	84.728	54.1992	84.6056	54.1992	84.7542	54.1992	84.5952	54.1992	84.7803	54.1992	84.588	54.1992	84.8051	54.1992	84.5838	54.1992	84.8276	54.1992	84.5825	54.1992	84.8466	54.1992	84.5838	54.1992	84.861	54.1992	84.5873	54.1992	84.8698	54.1992	84.5928	54.1992	84.8723	54.1992	84.6003	54.1992	84.868	54.1992	84.61	54.1992	84.857	54.1992	84.6221	54.1992	84.8397	54.1992	84.6373	54.1992	84.8172	54.1992	84.656	54.1992	84.7906	54.1992	84.6784	54.1992	84.7618	54.1992	84.7042	54.1992	84.7324
55.6641	84.9596	55.6641	84.979	55.6641	84.9426	55.6641	85.0006	55.6641	84.9284	55.6641	85.0238	55.6641	84.9171	55.6641	85.0481	55.6641	84.9087	55.6641	85.0728	55.6641	84.9031	55.6641	85.0968	55.6641	84.9002	55.6641	85.119	55.6641	84.8998	55.6641	85.1381	55.6641	84.9014	55.6641	85.153	55.6641	84.9048	55.6641	85.1625	55.6641	84.9097	55.6641	85.1656	55.6641	84.9162	55.6641	85.1619	55.6641	84.9245	55.6641	85.1515	55.6641	84.9349	55.6641	85.135	55.6641	84.9481	55.6641	85.1134	55.6641	84.9645	55.6641	85.0882	55.6641	84.9845	55.6641	85.061	55.6641	85.0078	55.6641	85.0337
58.5938	85.5173	58.5938	85.522	58.5938	85.5142	58.5938	85.5286	58.5938	85.5125	58.5938	85.5373	58.5938	85.5116	58.5938	85.5478	58.5938	85.5111	58.5938	85.5599	58.5938	85.5106	58.5938	85.5727	58.5938	85.5095	58.5938	85.585	58.5938	85.5074	58.5938	85.5956	58.5938	85.5039	58.5938	85.6032	58.5938	85.4986	58.5938	85.6063	58.5938	85.4916	58.5938	85.604	58.5938	85.4832	58.5938	85.5959	58.5938	85.4742	58.5938	85.5822	58.5938	85.4657	58.5938	85.5638	58.5938	85.4593	58.5938	85.5424	58.5938	85.4566	58.5938	85.5198	58.5938	85.4587	58.5938	85.4984	58.5938	85.4666	58.5938	85.4801
60.0586	85.7343	60.0586	85.7352	60.0586	85.7347	60.0586	85.7377	60.0586	85.7359	60.0586	85.7418	60.0586	85.7378	60.0586	85.7477	60.0586	85.7398	60.0586	85.7551	60.0586	85.7416	60.0586	85.7634	60.0586	85.7427	60.0586	85.7718	60.0586	85.7424	60.0586	85.7793	60.0586	85.7405	60.0586	85.7847	60.0586	85.7363	60.0586	85.7869	60.0586	85.7299	60.0586	85.785	60.0586	85.7213	60.0586	85.7787	60.0586	85.7112	60.0586	85.7679	60.0586	85.7007	60.0586	85.7535	60.0586	85.6912	60.0586	85.7368	60.0586	85.6843	60.0586	85.7196	60.0586	85.6815	60.0586	85.7039	60.0586	85.6838	60.0586	85.6915
62.9883	86.2511	62.9883	86.2461	62.9883	86.2556	62.9883	86.2409	62.9883	86.2594	62.9883	86.2357	62.9883	86.2622	62.9883	86.2307	62.9883	86.2638	62.9883	86.226	62.9883	86.2639	62.9883	86.2215	62.9883	86.2623	62.9883	86.2169	62.9883	86.2584	62.9883	86.2117	62.9883	86.2518	62.9883	86.2052	62.9883	86.2423	62.9883	86.197	62.9883	86.2295	62.9883	86.1866	62.9883	86.2137	62.9883	86.174	62.9883	86.1952	62.9883	86.1598	62.9883	86.1753	62.9883	86.1448	62.9883	86.1553	62.9883	86.1307	62.9883	86.137	62.9883	86.1189	62.9883	86.1224	62.9883	86.1113	62.9883	86.1127	62.9883	86.1089
64.4531	86.7446	64.4531	86.7362	64.4531	86.7532	64.4531	86.7284	64.4531	86.7616	64.4531	86.7215	64.4531	86.7693	64.4531	86.7155	64.4531	86.7758	64.4531	86.7104	64.4531	86.7806	64.4531	86.7061	64.4531	86.783	64.4531	86.702	64.4531	86.7823	64.4531	86.6976	64.4531	86.778	64.4531	86.6921	64.4531	86.7696	64.4531	86.6849	64.4531	86.7568	64.4531	86.6754	64.4531	86.7397	64.4531	86.6636	64.4531	86.7187	64.4531	86.65	64.4531	86.6952	64.4531	86.6356	64.4531	86.6709	64.4531	86.6222	64.4531	86.6478	64.4531	86.6116	64.4531	86.6282	64.4531	86.6059	64.4531	86.614	64.4531	86.6065
67.3828	87.157	67.3828	87.1424	67.3828	87.1688	67.3828	87.1257	67.3828	87.1774	67.3828	87.1073	67.3828	87.1823	67.3828	87.0879	67.3828	87.1831	67.3828	87.0678	67.3828	87.1795	67.3828	87.0474	67.3828	87.1711	67.3828	87.0267	67.3828	87.1577	67.3828	87.0058	67.3828	87.1391	67.3828	86.9844	67.3828	87.1153	67.3828	86.9624	67.3828	87.0865	67.3828	86.9397	67.3828	87.0534	67.3828	86.9165	67.3828	87.0168	67.3828	86.8936	67.3828	86.9785	67.3828	86.8723	67.3828	86.9405	67.3828	86.8544	67.3828	86.9054	67.3828	86.8419	67.3828	86.8757	67.3828	86.8367	67.3828	86.8536	67.3828	86.8404
68.8477	87.3901	68.8477	87.3707	68.8477	87.406	68.8477	87.3481	68.8477	87.4177	68.8477	87.3231	68.8477	87.4249	68.8477	87.2964	68.8477	87.4272	68.8477	87.2686	68.8477	87.4243	68.8477	87.2403	68.8477	87.4158	68.8477	87.212	68.8477	87.4017	68.8477	87.184	68.8477	87.3815	68.8477	87.1565	68.8477	87.3553	68.8477	87.1296	68.8477	87.3232	68.8477	87.1033	68.8477	87.2857	68.8477	87.0783	68.8477	87.2439	68.8477	87.0551	68.8477	87.1994	68.8477	87.0352	68.8477	87.1546	68.8477	87.0203	68.8477	87.112	68.8477	87.0123	68.8477	87.0744	68.8477	87.0131	68.8477	87.0444	68.8477	87.0237
71.7773	87.9037	71.7773	87.8693	71.7773	87.9311	71.7773	87.8283	71.7773	87.951	71.7773	87.7816	71.7773	87.9631	71.7773	87.73	71.7773	87.967	71.7773	87.6748	71.7773	87.9626	71.7773	87.6173	71.7773	87.9494	71.7773	87.5589	71.7773	87.9272	71.7773	87.501	71.7773	87.8958	71.7773	87.4452	71.7773	87.8549	71.7773	87.393	71.7773	87.8049	71.7773	87.3458	71.7773	87.7463	71.7773	87.3052	71.7773	87.6804	71.7773	87.2728	71.7773	87.6094	71.7773	87.2505	71.7773	87.536	71.7773	87.24	71.7773	87.464	71.7773	87.2429	71.7773	87.397	71.7773	87.2603	71.7773	87.3389	71.7773	87.2926
74.707	88.3604	74.707	88.3242	74.707	88.3878	74.707	88.2795	74.707	88.4064	74.707	88.2266	74.707	88.4162	74.707	88.1663	74.707	88.4171	74.707	88.0993	74.707	88.4091	74.707	88.027	74.707	88.392	74.707	87.9509	74.707	88.3654	74.707	87.873	74.707	88.329	74.707	87.7955	74.707	88.2823	74.707	87.7211	74.707	88.2253	74.707	87.6527	74.707	88.1582	74.707	87.5937	74.707	88.0818	74.707	87.5474	74.707	87.9979	74.707	87.517	74.707	87.9093	74.707	87.5051	74.707	87.8196	74.707	87.5133	74.707	87.7334	74.707	87.5422	74.707	87.6555	74.707	87.5905
77.6367	88.6722	77.6367	88.6575	77.6367	88.6781	77.6367	88.6339	77.6367	88.6759	77.6367	88.6013	77.6367	88.6663	77.6367	88.56	77.6367	88.65	77.6367	88.5106	77.6367	88.6276	77.6367	88.454	77.6367	88.5996	77.6367	88.3917	77.6367	88.5662	77.6367	88.3251	77.6367	88.5276	77.6367	88.2563	77.6367	88.4834	77.6367	88.1875	77.6367	88.4335	77.6367	88.1212	77.6367	88.378	77.6367	88.0605	77.6367	88.3174	77.6367	88.0085	77.6367	88.2528	77.6367	87.9683	77.6367	88.1863	77.6367	87.9426	77.6367	88.1209	77.6367	87.9335	77.6367	88.06	77.6367	87.9419	77.6367	88.0076	77.6367	87.9672
79.1016	88.7132	79.1016	88.703	79.1016	88.7146	79.1016	88.684	79.1016	88.708	79.1016	88.6562	79.1016	88.6939	79.1016	88.6201	79.1016	88.6735	79.1016	88.5765	79.1016	88.6476	79.1016	88.5263	79.1016	88.6171	79.1016	88.4708	79.1016	88.5826	79.1016	88.4115	79.1016	88.5445	79.1016	88.3499	79.1016	88.503	79.1016	88.288	79.1016	88.4578	79.1016	88.2281	79.1016	88.4091	79.1016	88.1725	79.1016	88.3571	79.1016	88.1241	79.1016	88.3027	79.1016	88.0857	79.1016	88.2473	79.1016	88.0597	79.1016	88.1933	79.1016	88.0481	79.1016	88.1436	79.1016	88.0516	79.1016	88.1014	79.1016	88.0699
82.0312	88.9768	82.0312	88.9619	82.0312	88.9812	82.0312	88.9366	82.0312	88.9753	82.0312	88.9013	82.0312	88.96	82.0312	88.8573	82.0312	88.9365	82.0312	88.8059	82.0312	88.906	82.0312	88.7489	82.0312	88.8701	82.0312	88.6883	82.0312	88.8299	82.0312	88.6262	82.0312	88.7865	82.0312	88.5646	82.0312	88.7407	82.0312	88.5057	82.0312	88.6931	82.0312	88.4515	82.0312	88.644	82.0312	88.404	82.0312	88.5939	82.0312	88.3648	82.0312	88.5434	82.0312	88.3357	82.0312	88.4935	82.0312	88.3178	82.0312	88.4459	82.0312	88.3121	82.0312	88.4025	82.0312	88.3186	82.0312	88.3654	82.0312	88.3368
84.9609	89.1579	84.9609	89.1545	84.9609	89.1469	84.9609	89.1367	84.9609	89.1227	84.9609	89.1046	84.9609	89.0864	84.9609	89.0593	84.9609	89.04	84.9609	89.0024	84.9609	88.9856	84.9609	88.9357	84.9609	88.9256	84.9609	88.8619	84.9609	88.8621	84.9609	88.7837	84.9609	88.7974	84.9609	88.7041	84.9609	88.7333	84.9609	88.6261	84.9609	88.6711	84.9609	88.5527	84.9609	88.6118	84.9609	88.4866	84.9609	88.5562	84.9609	88.4303	84.9609	88.5049	84.9609	88.3856	84.9609	88.4584	84.9609	88.3539	84.9609	88.4173	84.9609	88.3356	84.9609	88.3826	84.9609	88.3305	84.9609	88.3556	84.9609	88.3377
87.8906	89.1136	87.8906	89.1107	87.8906	89.1013	87.8906	89.0925	87.8906	89.0742	87.8906	89.0595	87.8906	89.0334	87.8906	89.0129	87.8906	88.9807	87.8906	88.954	87.8906	88.9181	87.8906	88.8847	87.8906	88.8481	87.8906	88.8073	87.8906	88.7733	87.8906	88.7243	87.8906	88.6965	87.8906	88.6384	87.8906	88.62	87.8906	88.5527	87.8906	88.5461	87.8906	88.4702	87.8906	88.4764	87.8906	88.3941	87.8906	88.4124	87.8906	88.3272	87.8906	88.3549	87.8906	88.2721	87.8906	88.3046	87.8906	88.2305	87.8906	88.2623	87.8906	88.2034	87.8906	88.2287	87.8906	88.1906	87.8906	88.2046	87.8906	88.1915
90.8203	88.955	90.8203	88.9498	90.8203	88.9482	90.8203	88.9325	90.8203	88.93	90.8203	88.9038	90.8203	88.9017	90.8203	88.8653	90.8203	88.8652	90.8203	88.8186	90.8203	88.8227	90.8203	88.7661	90.8203	88.7767	90.8203	88.7102	90.8203	88.7295	90.8203	88.6535	90.8203	88.6832	90.8203	88.5985	90.8203	88.6396	90.8203	88.5474	90.8203	88.5997	90.8203	88.5023	90.8203	88.5642	90.8203	88.4646	90.8203	88.5329	90.8203	88.4355	90.8203	88.5056	90.8203	88.4154	90.8203	88.4817	90.8203	88.4041	90.8203	88.4607	90.8203	88.4009	90.8203	88.4423	90.8203	88.4044	90.8203	88.4263	90.8203	88.4134
95.2148	89.6087	95.2148	89.6253	95.2148	89.5651	95.2148	89.6151	95.2148	89.4951	95.2148	89.5793	95.2148	89.4006	95.2148	89.52	95.2148	89.2846	95.2148	89.4399	95.2148	89.1515	95.2148	89.3425	95.2148	89.0066	95.2148	89.2316	95.2148	88.8562	95.2148	89.1118	95.2148	88.7073	95.2148	88.9875	95.2148	88.5669	95.2148	88.8633	95.2148	88.4414	95.2148	88.7436	95.2148	88.3359	95.2148	88.6318	95.2148	88.2539	95.2148	88.5308	95.2148	88.1962	95.2148	88.4419	95.2148	88.1621	95.2148	88.3655	95.2148	88.149	95.2148	88.3012	95.2148	88.1539	95.2148	88.2479	95.2148	88.1734	95.2148	88.2053
98.1445	89.814	98.1445	89.8175	98.1445	89.7804	98.1445	89.7924	98.1445	89.7159	98.1445	89.7409	98.1445	89.6208	98.1445	89.6655	98.1445	89.4964	98.1445	89.5692	98.1445	89.3455	98.1445	89.4553	98.1445	89.1721	98.1445	89.3273	98.1445	88.9822	98.1445	89.1888	98.1445	88.7832	98.1445	89.0437	98.1445	88.5839	98.1445	88.8957	98.1445	88.3942	98.1445	88.7486	98.1445	88.2239	98.1445	88.6056	98.1445	88.0818	98.1445	88.4698	98.1445	87.9743	98.1445	88.3432	98.1445	87.9046	98.1445	88.2276	98.1445	87.8724	98.1445	88.1242	98.1445	87.8744	98.1445	88.0345	98.1445	87.9055	98.1445	87.9604
101.074	89.2597	101.074	89.2389	101.074	89.2547	101.074	89.1938	101.074	89.2232	101.074	89.1266	101.074	89.1654	101.074	89.0402	101.074	89.0826	101.074	88.9383	101.074	88.9768	101.074	88.8245	101.074	88.8512	101.074	88.7028	101.074	88.7099	101.074	88.5773	101.074	88.5581	101.074	88.4517	101.074	88.4015	101.074	88.3293	101.074	88.2469	101.074	88.213	101.074	88.1008	101.074	88.1049	101.074	87.9698	101.074	88.0066	101.074	87.8595	101.074	87.9188	101.074	87.7741	101.074	87.8425	101.074	87.7156	101.074	87.7783	101.074	87.684	101.074	87.7279	101.074	87.6775	101.074	87.6933
105.469	89.3464	105.469	89.2911	105.469	89.3671	105.469	89.2019	105.469	89.3537	105.469	89.0808	105.469	89.3073	105.469	88.9313	105.469	89.2296	105.469	88.7586	105.469	89.1229	105.469	88.5695	105.469	88.9903	105.469	88.3726	105.469	88.8355	105.469	88.1771	105.469	88.6635	105.469	87.9928	105.469	88.4807	105.469	87.8282	105.469	88.2945	105.469	87.69	105.469	88.1137	105.469	87.5819	105.469	87.9466	105.469	87.5043	105.469	87.8007	105.469	87.4546	105.469	87.6807	105.469	87.4282	105.469	87.5878	105.469	87.4198	105.469	87.5201	105.469	87.4254	105.469	87.4734	105.469	87.443
108.398	89.6275	108.398	89.6011	108.398	89.6177	108.398	89.5379	108.398	89.5736	108.398	89.4383	108.398	89.4977	108.398	89.3044	108.398	89.3934	108.398	89.1396	108.398	89.2647	108.398	88.9492	108.398	89.1157	108.398	88.7407	108.398	88.9508	108.398	88.523	108.398	88.7748	108.398	88.3071	108.398	88.593	108.398	88.104	108.398	88.4111	108.398	87.9246	108.398	88.2357	108.398	87.7769	108.398	88.0732	108.398	87.6655	108.398	87.9297	108.398	87.5901	108.398	87.809	108.398	87.547	108.398	87.7129	108.398	87.5301	108.398	87.6403	108.398	87.5335	108.398	87.5881	108.398	87.5531
112.793	89.7671	112.793	89.7391	112.793	89.7529	112.793	89.6698	112.793	89.6963	112.793	89.5609	112.793	89.5985	112.793	89.4149	112.793	89.4616	112.793	89.2354	112.793	89.2895	112.793	89.0269	112.793	89.0873	112.793	88.7957	112.793	88.8621	112.793	88.5497	112.793	88.6227	112.793	88.2988	112.793	88.3791	112.793	88.0545	112.793	88.1421	112.793	87.8287	112.793	87.9222	112.793	87.6327	112.793	87.7286	112.793	87.4745	112.793	87.5673	112.793	87.3574	112.793	87.4408	112.793	87.2796	112.793	87.3477	112.793	87.2356	112.793	87.2836	112.793	87.2183	112.793	87.243	112.793	87.2216
117.188	89.6971	117.188	89.6859	117.188	89.6667	117.188	89.6341	117.188	89.5947	117.188	89.5435	117.188	89.4819	117.188	89.4166	117.188	89.3306	117.188	89.2562	117.188	89.1442	117.188	89.066	117.188	88.9276	117.188	88.8504	117.188	88.6876	117.188	88.6149	117.188	88.4325	117.188	88.3668	117.188	88.1724	117.188	88.1147	117.188	87.9182	117.188	87.8693	117.188	87.6813	117.188	87.6414	117.188	87.4716	117.188	87.4412	117.188	87.2969	117.188	87.2759	117.188	87.1611	117.188	87.1486	117.188	87.0644	117.188	87.0583	117.188	87.0038	117.188	87.0016	117.188	86.9749	117.188	86.9745
120.117	89.7935	120.117	89.7826	120.117	89.7661	120.117	89.7351	120.117	89.6994	120.117	89.653	120.117	89.5927	120.117	89.5384	120.117	89.4461	120.117	89.3942	120.117	89.261	120.117	89.2232	120.117	89.0405	120.117	89.0291	120.117	88.7895	120.117	88.8159	120.117	88.516	120.117	88.5888	120.117	88.2304	120.117	88.3537	120.117	87.9461	120.117	88.1177	120.117	87.6779	120.117	87.8889	120.117	87.4406	120.117	87.6752	120.117	87.2464	120.117	87.4838	120.117	87.1028	120.117	87.3196	120.117	87.0116	120.117	87.1854	120.117	86.9696	120.117	87.082	120.117	86.971	120.117	87.0099
124.512	89.9204	124.512	89.8636	124.512	89.942	124.512	89.7732	124.512	89.927	124.512	89.6517	124.512	89.8745	124.512	89.502	124.512	89.784	124.512	89.328	124.512	89.6553	124.512	89.1348	124.512	89.4893	124.512	88.9283	124.512	89.2881	124.512	88.7157	124.512	89.0558	124.512	88.5046	124.512	88.799	124.512	88.3025	124.512	88.5278	124.512	88.1157	124.512	88.2556	124.512	87.9484	124.512	87.9982	124.512	87.8026	124.512	87.772	124.512	87.6782	124.512	87.5908	124.512	87.5735	124.512	87.4626	124.512	87.4875	124.512	87.3884	124.512	87.4206	124.512	87.3628	124.512	87.3767
128.906	90.172	128.906	90.086	128.906	90.2153	128.906	89.9579	128.906	90.216	128.906	89.7894	128.906	90.1747	128.906	89.5832	128.906	90.0926	128.906	89.3439	128.906	89.9713	128.906	89.0776	128.906	89.813	128.906	88.793	128.906	89.6205	128.906	88.5013	128.906	89.3981	128.906	88.2159	128.906	89.1514	128.906	87.9515	128.906	88.888	128.906	87.7222	128.906	88.6179	128.906	87.5386	128.906	88.3528	128.906	87.4059	128.906	88.1046	128.906	87.3231	128.906	87.8844	128.906	87.2842	128.906	87.6992	128.906	87.2812	128.906	87.5518	128.906	87.3076	128.906	87.4403	128.906	87.3602
133.301	90.2217	133.301	90.1885	133.301	90.2154	133.301	90.1144	133.301	90.1717	133.301	89.9991	133.301	90.0935	133.301	89.8436	133.301	89.9842	133.301	89.6499	133.301	89.8476	133.301	89.4221	133.301	89.6879	133.301	89.166	133.301	89.5091	133.301	88.8905	133.301	89.3158	133.301	88.6075	133.301	89.1126	133.301	88.3318	133.301	88.9048	133.301	88.0801	133.301	88.6979	133.301	87.8686	133.301	88.498	133.301	87.7092	133.301	88.3108	133.301	87.6074	133.301	88.1409	133.301	87.5609	133.301	87.9911	133.301	87.5618	133.301	87.8623	133.301	87.5997	133.301	87.7538	133.301	87.6656
139.16	89.7788	139.16	89.7828	139.16	89.7356	139.16	89.7487	139.16	89.6535	139.16	89.6783	139.16	89.5337	139.16	89.5744	139.16	89.3792	139.16	89.4402	139.16	89.1945	139.16	89.2798	139.16	88.9856	139.16	89.0978	139.16	88.7608	139.16	88.8998	139.16	88.5301	139.16	88.6928	139.16	88.3051	139.16	88.4852	139.16	88.0982	139.16	88.2866	139.16	87.9206	139.16	88.107	139.16	87.7809	139.16	87.9546	139.16	87.6825	139.16	87.8344	139.16	87.6233	139.16	87.7466	139.16	87.5963	139.16	87.6865	139.16	87.592	139.16	87.6467	139.16	87.6016	139.16	87.6199
143.555	89.4659	143.555	89.4203	143.555	89.4668	143.555	89.3329	143.555	89.4216	143.555	89.2081	143.555	89.3308	143.555	89.0517	143.555	89.1961	143.555	88.8711	143.555	89.0214	143.555	88.6753	143.555	88.8123	143.555	88.4742	143.555	88.577	143.555	88.2784	143.555	88.3261	143.555	88.0984	143.555	88.0732	143.555	87.9429	143.555	87.8345	143.555	87.8179	143.555	87.6271	143.555	87.725	143.555	87.4665	143.555	87.661	143.555	87.3626	143.555	87.6186	143.555	87.3166	143.555	87.5875	143.555	87.3204	143.555	87.5573	143.555	87.3588	143.555	87.5196	143.555	87.4141	143.555	87.4709
147.949	89.2952	147.949	89.2191	147.949	89.318	147.949	89.0909	147.949	89.2873	147.949	88.9139	147.949	89.2046	147.949	88.6932	147.949	89.0726	147.949	88.4364	147.949	88.8958	147.949	88.1544	147.949	88.6804	147.949	87.8617	147.949	88.435	147.949	87.5765	147.949	88.1707	147.949	87.3194	147.949	87.9011	147.949	87.1105	147.949	87.6422	147.949	86.9644	147.949	87.4107	147.949	86.886	147.949	87.222	147.949	86.8678	147.949	87.0866	147.949	86.892	147.949	87.007	147.949	86.936	147.949	86.9761	147.949	86.9785	147.949	86.979	147.949	87.0046	147.949	86.9961	147.949	87.009
153.809	89.3479	153.809	89.298	153.809	89.332	153.809	89.181	153.809	89.252	153.809	88.9965	153.809	89.1102	153.809	88.7453	153.809	88.9101	153.809	88.4305	153.809	88.6567	153.809	88.0587	153.809	88.3576	153.809	87.6422	153.809	88.0236	153.809	87.2011	153.809	87.6701	153.809	86.7648	153.809	87.3171	153.809	86.3711	153.809	86.9881	153.809	86.0603	153.809	86.7069	153.809	85.8635	153.809	86.4926	153.809	85.7895	153.809	86.3533	153.809	85.8202	153.809	86.2829	153.809	85.9178	153.809	86.2617	153.809	86.0386	153.809	86.2621	153.809	86.1466	153.809	86.2557	153.809	86.2206
159.668	90.2905	159.668	90.257	159.668	90.2586	159.668	90.1577	159.668	90.1615	159.668	89.9922	159.668	89.9998	159.668	89.7607	159.668	89.7738	159.668	89.4644	159.668	89.485	159.668	89.106	159.668	89.1363	159.668	88.6916	159.668	88.7339	159.668	88.2317	159.668	88.2886	159.668	87.7438	159.668	87.8177	159.668	87.2536	159.668	87.3454	159.668	86.7942	159.668	86.9019	159.668	86.4014	159.668	86.5183	159.668	86.1034	159.668	86.219	159.668	85.9108	159.668	86.0133	159.668	85.8117	159.668	85.8921	159.668	85.7783	159.668	85.8322	159.668	85.7792	159.668	85.8058	159.668	85.791
165.527	90.647	165.527	90.6339	165.527	90.5939	165.527	90.5553	165.527	90.4744	165.527	90.4113	165.527	90.2882	165.527	90.2015	165.527	90.0358	165.527	89.9249	165.527	89.719	165.527	89.5808	165.527	89.3414	165.527	89.1701	165.527	88.9099	165.527	88.6979	165.527	88.4362	165.527	88.1771	165.527	87.9392	165.527	87.6318	165.527	87.4453	165.527	87.0998	165.527	86.9868	165.527	86.6284	165.527	86.5965	165.527	86.2623	165.527	86.2988	165.527	86.0252	165.527	86.101	165.527	85.9084	165.527	85.9908	165.527	85.8765	165.527	85.941	165.527	85.8862	165.527	85.9205	165.527	85.9051
171.387	90.5645	171.387	90.5033	171.387	90.5727	171.387	90.3952	171.387	90.522	171.387	90.2466	171.387	90.4073	171.387	90.0635	171.387	90.2237	171.387	89.8511	171.387	89.9672	171.387	89.6131	171.387	89.6349	171.387	89.3516	171.387	89.2268	171.387	89.0681	171.387	88.748	171.387	88.7641	171.387	88.2123	171.387	88.4441	171.387	87.6469	171.387	88.1162	171.387	87.0944	171.387	87.7926	171.387	86.6106	171.387	87.4876	171.387	86.2503	171.387	87.2124	171.387	86.0467	171.387	86.9711	171.387	85.9969	171.387	86.7586	171.387	86.0656	171.387	86.564	171.387	86.2059	171.387	86.3789
177.246	90.4123	177.246	90.3022	177.246	90.4626	177.246	90.1311	177.246	90.4551	177.246	89.8992	177.246	90.3917	177.246	89.6088	177.246	90.2746	177.246	89.2648	177.246	90.1048	177.246	88.8762	177.246	89.8829	177.246	88.4579	177.246	89.6091	177.246	88.0314	177.246	89.2853	177.246	87.6255	177.246	88.917	177.246	87.2725	177.246	88.5164	177.246	87.0015	177.246	88.1053	177.246	86.8293	177.246	87.7149	177.246	86.7532	177.246	87.3809	177.246	86.7519	177.246	87.1324	177.246	86.7926	177.246	86.9803	177.246	86.8424	177.246	86.911	177.246	86.8778	177.246	86.8932	177.246	86.8912
183.105	90.2287	183.105	90.1903	183.105	90.1987	183.105	90.0811	183.105	90.1034	183.105	89.8994	183.105	89.9464	183.105	89.645	183.105	89.7325	183.105	89.3198	183.105	89.4674	183.105	88.9299	183.105	89.1585	183.105	88.4881	183.105	88.8153	183.105	88.0176	183.105	88.4507	183.105	87.5539	183.105	88.0822	183.105	87.1436	183.105	87.7319	183.105	86.834	183.105	87.4255	183.105	86.6572	183.105	87.1878	183.105	86.6142	183.105	87.0348	183.105	86.6741	183.105	86.9669	183.105	86.7882	183.105	86.9659	183.105	86.9079	183.105	87.0004	183.105	86.9976	183.105	87.0348	183.105	87.0396
188.965	90.7154	188.965	90.6591	188.965	90.6864	188.965	90.5171	188.965	90.5721	188.965	90.2885	188.965	90.3725	188.965	89.9725	188.965	90.0873	188.965	89.5688	188.965	89.717	188.965	89.0803	188.965	89.2642	188.965	88.5162	188.965	88.7364	188.965	87.8991	188.965	88.1504	188.965	87.2726	188.965	87.5385	188.965	86.7057	188.965	86.9543	188.965	86.2824	188.965	86.4706	188.965	86.0695	188.965	86.1602	188.965	86.0753	188.965	86.0608	188.965	86.2409	188.965	86.1492	188.965	86.4733	188.965	86.3514	188.965	86.6862	188.965	86.5792	188.965	86.8207	188.965	86.7596	188.965	86.8467
196.289	92.1604	196.289	92.1168	196.289	92.1264	196.289	91.9937	196.289	92.0152	196.289	91.7875	196.289	91.8258	196.289	91.4929	196.289	91.5564	196.289	91.1028	196.289	91.205	196.289	90.6095	196.289	90.77	196.289	90.0071	196.289	90.252	196.289	89.2965	196.289	89.6566	196.289	88.4942	196.289	88.9988	196.289	87.6461	196.289	88.309	196.289	86.8397	196.289	87.6373	196.289	86.1972	196.289	87.0521	196.289	85.8263	196.289	86.6211	196.289	85.7469	196.289	86.3798	196.289	85.874	196.289	86.3067	196.289	86.0794	196.289	86.3321	196.289	86.2592	196.289	86.3719	196.289	86.359
203.613	92.0425	203.613	91.9956	203.613	92.0237	203.613	91.8847	203.613	91.9365	203.613	91.7102	203.613	91.7774	203.613	91.4717	203.613	91.5422	203.613	91.1669	203.613	91.2255	203.613	90.7926	203.613	90.822	203.613	90.3452	203.613	90.3273	203.613	89.8243	203.613	89.7416	203.613	89.2373	203.613	89.0745	203.613	88.6073	203.613	88.3534	203.613	87.98	203.613	87.6319	203.613	87.4226	203.613	86.9915	203.613	87.0048	203.613	86.5232	203.613	86.7628	203.613	86.2843	203.613	86.6744	203.613	86.2592	203.613	86.6702	203.613	86.3681	203.613	86.672	203.613	86.514	203.613	86.625
210.938	91.6919	210.938	91.5978	210.938	91.7042	210.938	91.4194	210.938	91.6376	210.938	91.1562	210.938	91.4948	210.938	90.8103	210.938	91.2773	210.938	90.387	210.938	90.9849	210.938	89.896	210.938	90.6158	210.938	89.3521	210.938	90.1679	210.938	88.7782	210.938	89.6422	210.938	88.2089	210.938	89.0497	210.938	87.6948	210.938	88.421	210.938	87.2982	210.938	87.8164	210.938	87.0763	210.938	87.325	210.938	87.0494	210.938	87.0363	210.938	87.1817	210.938	86.9875	210.938	87.3929	210.938	87.1319	210.938	87.5932	210.938	87.3658	210.938	87.7118	210.938	87.5829	210.938	87.7096
218.262	92.0775	218.262	92.0042	218.262	92.0701	218.262	91.8496	218.262	91.9816	218.262	91.6113	218.262	91.8109	218.262	91.2841	218.262	91.5564	218.262	90.8598	218.262	91.2161	218.262	90.3279	218.262	90.7869	218.262	89.6776	218.262	90.2639	218.262	88.9038	218.262	89.6416	218.262	88.018	218.262	88.9172	218.262	87.0694	218.262	88.0996	218.262	86.1691	218.262	87.2256	218.262	85.4909	218.262	86.3802	218.262	85.1888	218.262	85.702	218.262	85.2644	218.262	85.3329	218.262	85.5523	218.262	85.3124	218.262	85.8496	218.262	85.5311	218.262	86.0176	218.262	85.8099	218.262	85.9996
225.586	92.0845	225.586	92.0372	225.586	92.0523	225.586	91.9111	225.586	91.9399	225.586	91.7061	225.586	91.7473	225.586	91.4203	225.586	91.4756	225.586	91.0498	225.586	91.1269	225.586	90.5885	225.586	90.7047	225.586	90.0302	225.586	90.214	225.586	89.3709	225.586	89.6628	225.586	88.6163	225.586	89.0639	225.586	87.7924	225.586	88.4386	225.586	86.9602	225.586	87.8202	225.586	86.2246	225.586	87.2562	225.586	85.7117	225.586	86.7998	225.586	85.5	225.586	86.4897	225.586	85.5562	225.586	86.3254	225.586	85.7583	225.586	86.2599	225.586	85.978	225.586	86.2197	225.586	86.1373
232.91	91.7565	232.91	91.7287	232.91	91.6975	232.91	91.6153	232.91	91.5505	232.91	91.417	232.91	91.3138	232.91	91.1331	232.91	90.9856	232.91	90.7617	232.91	90.5641	232.91	90.299	232.91	90.0488	232.91	89.7417	232.91	89.443	232.91	89.0907	232.91	88.7585	232.91	88.3599	232.91	88.0224	232.91	87.589	232.91	87.2868	232.91	86.8588	232.91	86.6347	232.91	86.2898	232.91	86.1685	232.91	85.9974	232.91	85.9669	232.91	86.0097	232.91	86.0288	232.91	86.2351	232.91	86.2641	232.91	86.5241	232.91	86.5441	232.91	86.7484	232.91	86.7571	232.91	86.8334
241.699	91.9574	241.699	91.8818	241.699	91.9693	241.699	91.7466	241.699	91.9105	241.699	91.5534	241.699	91.7712	241.699	91.2993	241.699	91.5383	241.699	90.9766	241.699	91.195	241.699	90.5729	241.699	90.7219	241.699	90.0729	241.699	90.0993	241.699	89.463	241.699	89.3116	241.699	88.74	241.699	88.3563	241.699	87.9234	241.699	87.2611	241.699	87.0716	241.699	86.1124	241.699	86.2923	241.699	85.0852	241.699	85.7191	241.699	84.4143	241.699	85.436	241.699	84.2422	241.699	85.4071	241.699	84.478	241.699	85.4976	241.699	84.886	241.699	85.5607	241.699	85.2615	241.699	85.4952
250.488	91.6013	250.488	91.4792	250.488	91.6584	250.488	91.2906	250.488	91.6527	250.488	91.0349	250.488	91.5859	250.488	90.7124	250.488	91.4576	250.488	90.3241	250.488	91.2628	250.488	89.8701	250.488	90.9901	250.488	89.3501	250.488	90.6201	250.488	88.7649	250.488	90.1277	250.488	88.1234	250.488	89.4887	250.488	87.4555	250.488	88.6923	250.488	86.8264	250.488	87.7636	250.488	86.3365	250.488	86.796	250.488	86.0807	250.488	85.9733	250.488	86.0769	250.488	85.5129	250.488	86.2363	250.488	85.4968	250.488	86.4173	250.488	85.7845	250.488	86.4971	250.488	86.1449	250.488	86.4074
259.277	92.2935	259.277	92.2194	259.277	92.2775	259.277	92.0539	259.277	92.1716	259.277	91.7945	259.277	91.9756	259.277	91.4357	259.277	91.6882	259.277	90.9686	259.277	91.3069	259.277	90.3797	259.277	90.8271	259.277	89.6538	259.277	90.2426	259.277	88.7801	259.277	89.5473	259.277	87.7683	259.277	88.741	259.277	86.6784	259.277	87.8431	259.277	85.663	259.277	86.9171	259.277	84.9731	259.277	86.0969	259.277	84.8176	259.277	85.5721	259.277	85.1505	259.277	85.4718	259.277	85.708	259.277	85.7331	259.277	86.231	259.277	86.144	259.277	86.5674	259.277	86.4952	259.277	86.6555
268.066	92.3841	268.066	92.3353	268.066	92.3778	268.066	92.228	268.066	92.3177	268.066	92.0574	268.066	92.2037	268.066	91.815	268.066	92.0317	268.066	91.4874	268.066	91.7933	268.066	91.0552	268.066	91.4741	268.066	90.4936	268.066	91.0548	268.066	89.7767	268.066	90.5133	268.066	88.8872	268.066	89.8297	268.066	87.8344	268.066	88.9948	268.066	86.6863	268.066	88.0257	268.066	85.6094	268.066	86.9904	268.066	84.8539	268.066	86.0308	268.066	84.5921	268.066	85.3396	268.066	84.7381	268.066	85.0405	268.066	85.0348	268.066	85.069	268.066	85.264	268.066	85.2265	268.066	85.3256
276.855	91.312	276.855	91.2659	276.855	91.2957	276.855	91.16	276.855	91.2148	276.855	90.9969	276.855	91.0685	276.855	90.7758	276.855	90.8554	276.855	90.491	276.855	90.5712	276.855	90.1298	276.855	90.2055	276.855	89.6732	276.855	89.7412	276.855	89.0992	276.855	89.157	276.855	88.3938	276.855	88.437	276.855	87.5695	276.855	87.5888	276.855	86.6975	276.855	86.6724	276.855	85.9352	276.855	85.8329	276.855	85.4886	276.855	85.2847	276.855	85.461	276.855	85.1767	276.855	85.739	276.855	85.4423	276.855	86.095	276.855	85.8581	276.855	86.3441	276.855	86.2148	276.855	86.3911
287.109	91.443	287.109	91.3859	287.109	91.4178	287.109	91.2494	287.109	91.3131	287.109	91.0407	287.109	91.1369	287.109	90.7678	287.109	90.8994	287.109	90.4341	287.109	90.6096	287.109	90.033	287.109	90.2688	287.109	89.5442	287.109	89.8655	287.109	88.9356	287.109	89.3739	287.109	88.1728	287.109	88.7606	287.109	87.2414	287.109	87.9998	287.109	86.1915	287.109	87.101	287.109	85.2005	287.109	86.1487	287.109	84.5773	287.109	85.3379	287.109	84.5416	287.109	84.9174	287.109	84.9563	287.109	84.98	287.109	85.4753	287.109	85.3443	287.109	85.8346	287.109	85.7255	287.109	85.9195
297.363	91.2842	297.363	91.227	297.363	91.2385	297.363	91.0729	297.363	91.0872	297.363	90.8313	297.363	90.8304	297.363	90.5134	297.363	90.4723	297.363	90.128	297.363	90.0215	297.363	89.6747	297.363	89.492	297.363	89.1385	297.363	88.9	297.363	88.4915	297.363	88.2579	297.363	87.7041	297.363	87.5697	297.363	86.7686	297.363	86.8382	297.363	85.7421	297.363	86.0915	297.363	84.8011	297.363	85.4201	297.363	84.2351	297.363	84.9811	297.363	84.2412	297.363	84.9033	297.363	84.6909	297.363	85.1487	297.363	85.2627	297.363	85.5226	297.363	85.7035	297.363	85.8162	297.363	85.8947
307.617	91.6768	307.617	91.504	307.617	91.7486	307.617	91.2353	307.617	91.721	307.617	90.8833	307.617	91.5997	307.617	90.4666	307.617	91.3893	307.617	90.007	307.617	91.088	307.617	89.5228	307.617	90.6851	307.617	89.0203	307.617	90.1612	307.617	88.4858	307.617	89.4896	307.617	87.8872	307.617	88.6389	307.617	87.1897	307.617	87.5794	307.617	86.3879	307.617	86.3049	307.617	85.5499	307.617	84.8953	307.617	84.8489	307.617	83.6312	307.617	84.4985	307.617	82.9955	307.617	84.5531	307.617	83.211	307.617	84.8172	307.617	83.8992	307.617	85.0152	307.617	84.5655	307.617	84.9558
319.336	90.7775	319.336	90.7063	319.336	90.7354	319.336	90.5156	319.336	90.5924	319.336	90.204	319.336	90.3679	319.336	89.7722	319.336	90.0877	319.336	89.2215	319.336	89.7774	319.336	88.5523	319.336	89.4496	319.336	87.7664	319.336	89.0885	319.336	86.871	319.336	88.647	319.336	85.8909	319.336	88.0624	319.336	84.8965	319.336	87.2851	319.336	84.0485	319.336	86.3136	319.336	83.5943	319.336	85.2448	319.336	83.6979	319.336	84.3277	319.336	84.2362	319.336	83.9067	319.336	84.9019	319.336	84.1147	319.336	85.4375	319.336	84.6954	319.336	85.7046	319.336	85.2835	319.336	85.6502
329.59	91.1401	329.59	91.1211	329.59	91.0433	329.59	90.9896	329.59	90.8348	329.59	90.7556	329.59	90.5279	329.59	90.432	329.59	90.1465	329.59	90.0286	329.59	89.7252	329.59	89.5429	329.59	89.3024	329.59	88.9537	329.59	88.9032	329.59	88.2205	329.59	88.5174	329.59	87.2924	329.59	88.0933	329.59	86.1301	329.59	87.5556	329.59	84.7578	329.59	86.8438	329.59	83.375	329.59	85.9624	329.59	82.4663	329.59	85.0389	329.59	82.4823	329.59	84.3441	329.59	83.1997	329.59	84.127	329.59	84.0263	329.59	84.3346	329.59	84.5948	329.59	84.6539	329.59	84.7928
341.309	90.6023	341.309	90.5204	341.309	90.5495	341.309	90.3245	341.309	90.3542	341.309	90.0473	341.309	90.0219	341.309	89.7309	341.309	89.5723	341.309	89.4166	341.309	89.0392	341.309	89.1253	341.309	88.4659	341.309	88.8384	341.309	87.8948	341.309	88.4948	341.309	87.3505	341.309	88.0117	341.309	86.832	341.309	87.3184	341.309	86.3255	341.309	86.404	341.309	85.8416	341.309	85.3898	341.309	85.4478	341.309	84.5966	341.309	85.2563	341.309	84.3981	341.309	85.3364	341.309	84.8014	341.309	85.6289	341.309	85.434	341.309	85.9743	341.309	85.9569	341.309	86.2094	341.309	86.2216
353.027	91.905	353.027	91.7228	353.027	91.9109	353.027	91.365	353.027	91.7453	353.027	90.8397	353.027	91.4174	353.027	90.165	353.027	90.9401	353.027	89.3717	353.027	90.3304	353.027	88.5024	353.027	89.6074	353.027	87.6023	353.027	88.7855	353.027	86.6995	353.027	87.8593	353.027	85.79	353.027	86.7878	353.027	84.857	353.027	85.4944	353.027	83.947	353.027	83.9205	353.027	83.2775	353.027	82.2264	353.027	83.2023	353.027	81.1983	353.027	83.8253	353.027	81.769	353.027	84.7912	353.027	83.3281	353.027	85.6638	353.027	84.8052	353.027	86.1882	353.027	85.7991	353.027	86.2514
366.211	91.9084	366.211	91.7713	366.211	91.8964	366.211	91.4889	366.211	91.7377	366.211	91.0718	366.211	91.4395	366.211	90.5385	366.211	91.0133	366.211	89.9151	366.211	90.4778	366.211	89.2362	366.211	89.8605	366.211	88.5379	366.211	89.1962	366.211	87.8378	366.211	88.5131	366.211	87.1085	366.211	87.8071	366.211	86.2716	366.211	87.0215	366.211	85.233	366.211	86.0567	366.211	83.9544	366.211	84.8138	366.211	82.5637	366.211	83.2777	366.211	81.4574	366.211	81.6721	366.211	81.075	366.211	80.6024	366.211	81.3037	366.211	80.5538	366.211	81.5934	366.211	81.1023	366.211	81.5496
379.395	91.5727	379.395	91.5169	379.395	91.4821	379.395	91.3211	379.395	91.2507	379.395	90.9985	379.395	90.8987	379.395	90.5636	379.395	90.4587	379.395	90.0248	379.395	89.9673	379.395	89.3776	379.395	89.4485	379.395	88.5989	379.395	88.8959	379.395	87.6463	379.395	88.267	379.395	86.4657	379.395	87.4985	379.395	85.0138	379.395	86.5332	379.395	83.3227	379.395	85.3536	379.395	81.6696	379.395	84.0239	379.395	80.7402	379.395	82.7512	379.395	81.0059	379.395	81.8982	379.395	81.9128	379.395	81.7453	379.395	82.7253	379.395	82.1553	379.395	83.1371	379.395	82.7208	379.395	83.1093
392.578	90.9469	392.578	90.7821	392.578	90.9549	392.578	90.4791	392.578	90.7972	392.578	90.0696	392.578	90.4713	392.578	89.5987	392.578	89.983	392.578	89.1192	392.578	89.354	392.578	88.6736	392.578	88.6314	392.578	88.2641	392.578	87.8894	392.578	87.8315	392.578	87.205	392.578	87.2664	392.578	86.6094	392.578	86.4507	392.578	86.0592	392.578	85.3101	392.578	85.4729	392.578	83.8922	392.578	84.81	392.578	82.5114	392.578	84.1398	392.578	81.7943	392.578	83.6437	392.578	82.0624	392.578	83.4867	392.578	82.8278	392.578	83.6277	392.578	83.5012	392.578	83.8279	392.578	83.835
405.762	91.4586	405.762	91.3071	405.762	91.4711	405.762	91.012	405.762	91.3508	405.762	90.5772	405.762	91.1029	405.762	90.0232	405.762	90.7309	405.762	89.3947	405.762	90.2386	405.762	88.758	405.762	89.6338	405.762	88.175	405.762	88.9298	405.762	87.6554	405.762	88.1364	405.762	87.1257	405.762	87.2391	405.762	86.4514	405.762	86.1813	405.762	85.4968	405.762	84.8842	405.762	84.2006	405.762	83.3412	405.762	82.7093	405.762	81.8295	405.762	81.5666	405.762	81.0421	405.762	81.4015	405.762	81.3403	405.762	81.9901	405.762	82.1144	405.762	82.6185	405.762	82.7145	405.762	82.8942
420.41	91.0821	420.41	90.9759	420.41	91.0314	420.41	90.7076	420.41	90.8324	420.41	90.2719	420.41	90.4985	420.41	89.66	420.41	90.0465	420.41	88.8576	420.41	89.4879	420.41	87.852	420.41	88.8211	420.41	86.6542	420.41	88.0332	420.41	85.3342	420.41	87.116	420.41	84.0402	420.41	86.0816	420.41	82.9442	420.41	84.9528	420.41	82.1259	420.41	83.724	420.41	81.5781	420.41	82.3653	420.41	81.3655	420.41	81.0076	420.41	81.6133	420.41	80.2674	420.41	82.247	420.41	80.7668	420.41	82.9575	420.41	81.9619	420.41	83.4356	420.41	82.982	420.41	83.48
435.059	90.9888	435.059	90.8415	435.059	90.9592	435.059	90.5344	435.059	90.7519	435.059	90.0983	435.059	90.3872	435.059	89.5777	435.059	89.9114	435.059	89.0263	435.059	89.3918	435.059	88.4895	435.059	88.8904	435.059	87.9743	435.059	88.4188	435.059	87.4326	435.059	87.9147	435.059	86.7761	435.059	87.271	435.059	85.9105	435.059	86.3934	435.059	84.7747	435.059	85.2486	435.059	83.4109	435.059	83.8986	435.059	82.1034	435.059	82.5488	435.059	81.4273	435.059	81.5982	435.059	81.6862	435.059	81.4551	435.059	82.4099	435.059	82.0187	435.059	82.9838	435.059	82.722	435.059	83.1035
451.172	91.957	451.172	91.8999	451.172	91.8487	451.172	91.6857	451.172	91.5803	451.172	91.3348	451.172	91.165	451.172	90.8721	451.172	90.6203	451.172	90.3198	451.172	89.9741	451.172	89.6971	451.172	89.2769	451.172	89.0146	451.172	88.5995	451.172	88.2533	451.172	87.9885	451.172	87.34	451.172	87.3993	451.172	86.1556	451.172	86.6858	451.172	84.6126	451.172	85.6793	451.172	82.8787	451.172	84.3204	451.172	81.7571	451.172	82.8597	451.172	82.1013	451.172	82.0132	451.172	83.2704	451.172	82.3071	451.172	84.2731	451.172	83.2504	451.172	84.7578	451.172	84.1539	451.172	84.6974
465.82	92.4812	465.82	92.2714	465.82	92.4922	465.82	91.8701	465.82	92.2986	465.82	91.2923	465.82	91.9029	465.82	90.5755	465.82	91.3285	465.82	89.7926	465.82	90.628	465.82	89.0413	465.82	89.8827	465.82	88.3951	465.82	89.1825	465.82	87.8356	465.82	88.5745	465.82	87.2257	465.82	87.9936	465.82	86.3439	465.82	87.2413	465.82	84.9314	465.82	86.0325	465.82	82.7376	465.82	84.0541	465.82	79.7984	465.82	81.1155	465.82	77.9502	465.82	78.347	465.82	79.5126	465.82	79.1422	465.82	81.7309	465.82	81.4858	465.82	83.0798	465.82	82.988	465.82	83.4905
483.398	91.4706	483.398	91.3103	483.398	91.4199	483.398	90.926	483.398	91.1734	483.398	90.3155	483.398	90.7414	483.398	89.4954	483.398	90.1238	483.398	88.5094	483.398	89.3112	483.398	87.4445	483.398	88.3015	483.398	86.4535	483.398	87.1544	483.398	85.7163	483.398	86.0735	483.398	85.2735	483.398	85.372	483.398	84.9158	483.398	85.141	483.398	84.3455	483.398	85.0437	483.398	83.4035	483.398	84.6415	483.398	82.2375	483.398	83.7075	483.398	81.4607	483.398	82.3698	483.398	81.6938	483.398	81.3339	483.398	82.5354	483.398	81.4757	483.398	83.1481	483.398	82.4009	483.398	83.1086
499.512	92.0815	499.512	91.9793	499.512	92.0098	499.512	91.7052	499.512	91.7665	499.512	91.255	499.512	91.361	499.512	90.6099	499.512	90.802	499.512	89.7487	499.512	90.0921	499.512	88.6872	499.512	89.236	499.512	87.5337	499.512	88.2582	499.512	86.4855	499.512	87.2125	499.512	85.6508	499.512	86.1549	499.512	84.8444	499.512	85.0752	499.512	83.6751	499.512	83.8456	499.512	81.769	499.512	82.2532	499.512	79.0095	499.512	80.1482	499.512	76.6493	499.512	77.964	499.512	77.411	499.512	77.4789	499.512	79.4422	499.512	78.9603	499.512	80.7323	499.512	80.42	499.512	81.0472
517.09	90.7759	517.09	90.6461	517.09	90.7177	517.09	90.323	517.09	90.4964	517.09	89.8258	517.09	90.1421	517.09	89.1918	517.09	89.6743	517.09	88.4618	517.09	89.0935	517.09	87.6741	517.09	88.3952	517.09	86.8733	517.09	87.6038	517.09	86.1147	517.09	86.7958	517.09	85.4369	517.09	86.0604	517.09	84.8131	517.09	85.4002	517.09	84.1325	517.09	84.6814	517.09	83.2524	517.09	83.7053	517.09	82.1338	517.09	82.3391	517.09	81.0689	517.09	80.7171	517.09	80.7043	517.09	79.585	517.09	81.1558	517.09	79.8275	517.09	81.6668	517.09	80.8647	517.09	81.6136
536.133	92.2353	536.133	92.1003	536.133	92.187	536.133	91.7961	536.133	91.9309	536.133	91.3212	536.133	91.4517	536.133	90.6624	536.133	90.7608	536.133	89.795	536.133	89.8916	536.133	88.6885	536.133	88.8753	536.133	87.3449	536.133	87.731	536.133	85.8902	536.133	86.5095	536.133	84.6578	536.133	85.3609	536.133	83.9797	536.133	84.486	536.133	83.7114	536.133	83.891	536.133	83.4103	536.133	83.313	536.133	82.9534	536.133	82.5846	536.133	82.7205	536.133	82.0404	536.133	83.0947	536.133	82.2916	536.133	83.8195	536.133	83.201	536.133	84.3794	536.133	84.0674	536.133	84.4886
555.176	92.7237	555.176	92.6545	555.176	92.6881	555.176	92.4184	555.176	92.5647	555.176	91.9536	555.176	92.3061	555.176	91.2431	555.176	91.8324	555.176	90.3388	555.176	91.0962	555.176	89.3532	555.176	90.1402	555.176	88.3987	555.176	89.1037	555.176	87.495	555.176	88.1326	555.176	86.5239	555.176	87.2244	555.176	85.2649	555.176	86.1738	555.176	83.4283	555.176	84.6716	555.176	80.6472	555.176	82.4082	555.176	76.9409	555.176	79.2563	555.176	76.2024	555.176	76.5801	555.176	79.4936	555.176	77.6177	555.176	81.924	555.176	80.1059	555.176	82.9664	555.176	81.93	555.176	82.9025
574.219	92.3874	574.219	92.2294	574.219	92.3238	574.219	91.8798	574.219	92.0505	574.219	91.3856	574.219	91.6055	574.219	90.7678	574.219	91.0145	574.219	90.0082	574.219	90.2618	574.219	89.0953	574.219	89.3039	574.219	88.0936	574.219	88.1446	574.219	87.1479	574.219	86.966	574.219	86.3554	574.219	86.1572	574.219	85.6008	574.219	85.8898	574.219	84.5641	574.219	85.7194	574.219	82.8685	574.219	84.9685	574.219	80.3583	574.219	83.0658	574.219	78.3389	574.219	79.5889	574.219	79.488	574.219	76.2372	574.219	81.6899	574.219	78.5833	574.219	82.9475	574.219	81.5673	574.219	82.9577
594.727	91.9342	594.727	91.7942	594.727	91.8407	594.727	91.4435	594.727	91.5182	594.727	90.9076	594.727	90.9961	594.727	90.1934	594.727	90.3037	594.727	89.291	594.727	89.4594	594.727	88.2021	594.727	88.4912	594.727	86.9937	594.727	87.4626	594.727	85.8499	594.727	86.4687	594.727	84.9905	594.727	85.5991	594.727	84.3958	594.727	84.8793	594.727	83.7344	594.727	84.2027	594.727	82.652	594.727	83.3232	594.727	80.9871	594.727	81.9659	594.727	79.0765	594.727	80.1005	594.727	78.5557	594.727	78.7391	594.727	80.1482	594.727	79.5856	594.727	81.7425	594.727	81.3223	594.727	82.1857
615.234	91.4101	615.234	91.3248	615.234	91.2949	615.234	91.0215	615.234	91.01	615.234	90.5079	615.234	90.594	615.234	89.8172	615.234	90.0868	615.234	88.9851	615.234	89.4939	615.234	88.0176	615.234	88.7409	615.234	86.883	615.234	87.6831	615.234	85.564	615.234	86.2092	615.234	84.1725	615.234	84.4345	615.234	82.9628	615.234	82.8956	615.234	81.9881	615.234	82.1473	615.234	80.8473	615.234	81.8357	615.234	79.0963	615.234	81.1652	615.234	77.1555	615.234	79.8213	615.234	77.1935	615.234	78.5189	615.234	79.0629	615.234	78.8204	615.234	80.516	615.234	80.1384	615.234	80.8768
637.207	92.0292	637.207	91.7482	637.207	92.053	637.207	91.2698	637.207	91.777	637.207	90.6376	637.207	91.2131	637.207	89.8792	637.207	90.43	637.207	89.0102	637.207	89.5201	637.207	88.0149	637.207	88.5604	637.207	86.8679	637.207	87.5863	637.207	85.6601	637.207	86.6092	637.207	84.6674	637.207	85.6936	637.207	84.0541	637.207	84.9779	637.207	83.5071	637.207	84.4462	637.207	82.4668	637.207	83.7374	637.207	80.572	637.207	82.3776	637.207	78.403	637.207	80.2022	637.207	78.3837	637.207	78.3974	637.207	80.1712	637.207	79.1512	637.207	81.4421	637.207	80.8106	637.207	81.6578
659.18	92.0114	659.18	91.8736	659.18	91.9052	659.18	91.4971	659.18	91.6212	659.18	90.959	659.18	91.2072	659.18	90.3086	659.18	90.6435	659.18	89.5085	659.18	89.8928	659.18	88.5047	659.18	88.9572	659.18	87.3026	659.18	87.8591	659.18	85.9637	659.18	86.6156	659.18	84.5965	659.18	85.3179	659.18	83.3456	659.18	84.2086	659.18	82.219	659.18	83.409	659.18	80.9039	659.18	82.5191	659.18	79.2262	659.18	80.8434	659.18	78.5709	659.18	78.1842	659.18	80.3813	659.18	77.1878	659.18	82.4796	659.18	79.7108	659.18	83.5183	659.18	82.099	659.18	83.3724
682.617	92.205	682.617	92.0327	682.617	92.1657	682.617	91.637	682.617	91.8971	682.617	91.0103	682.617	91.4016	682.617	90.2123	682.617	90.743	682.617	89.3312	682.617	89.9876	682.617	88.3387	682.617	89.0908	682.617	87.0524	682.617	87.8805	682.617	85.3899	682.617	86.2022	682.617	83.8151	682.617	84.1914	682.617	83.1817	682.617	82.6182	682.617	83.1953	682.617	82.3357	682.617	82.582	682.617	82.529	682.617	80.2971	682.617	81.7338	682.617	75.4708	682.617	79.1868	682.617	73.8261	682.617	76.1021	682.617	78.8137	682.617	77.9423	682.617	81.479	682.617	80.8894	682.617	82.0847
707.52	91.5312	707.52	91.3095	707.52	91.4922	707.52	90.8606	707.52	91.2394	707.52	90.2998	707.52	90.8254	707.52	89.7444	707.52	90.2526	707.52	89.217	707.52	89.5273	707.52	88.6165	707.52	88.7553	707.52	87.7672	707.52	88.075	707.52	86.5074	707.52	87.418	707.52	84.7934	707.52	86.4465	707.52	82.8755	707.52	84.8542	707.52	81.4341	707.52	82.8761	707.52	80.4821	707.52	81.3854	707.52	78.5949	707.52	80.3398	707.52	74.6851	707.52	78.3785	707.52	74.669	707.52	74.576	707.52	79.1612	707.52	74.7462	707.52	81.409	707.52	79.2225	707.52	81.4344
732.422	92.368	732.422	92.0057	732.422	92.3351	732.422	91.333	732.422	91.8238	732.422	90.3922	732.422	90.8705	732.422	89.2516	732.422	89.7113	732.422	88.0633	732.422	88.6991	732.422	86.9675	732.422	87.9708	732.422	85.9423	732.422	87.2284	732.422	84.859	732.422	86.0791	732.422	83.7371	732.422	84.4579	732.422	82.8311	732.422	82.8373	732.422	82.1604	732.422	81.9637	732.422	81.3447	732.422	81.6811	732.422	80.0913	732.422	81.1217	732.422	78.4539	732.422	79.9288	732.422	77.3542	732.422	78.5763	732.422	78.0064	732.422	78.2557	732.422	79.2592	732.422	79.092	732.422	79.6915
757.324	92.4905	757.324	92.371	757.324	92.4028	757.324	91.9631	757.324	92.1901	757.324	91.2716	757.324	91.8103	757.324	90.362	757.324	91.1317	757.324	89.3235	757.324	90.1142	757.324	88.2678	757.324	88.9148	757.324	87.2742	757.324	87.7432	757.324	86.2791	757.324	86.6005	757.324	85.09	757.324	85.3392	757.324	83.596	757.324	84.017	757.324	82.0022	757.324	82.8977	757.324	80.6128	757.324	81.8206	757.324	79.17	757.324	80.0121	757.324	77.3706	757.324	77.0736	757.324	77.0556	757.324	76.1971	757.324	79.2838	757.324	78.8776	757.324	81.1275	757.324	80.8994	757.324	81.6382
785.156	92.8684	785.156	92.7197	785.156	92.7898	785.156	92.2639	785.156	92.4402	785.156	91.4243	785.156	91.7172	785.156	90.3006	785.156	90.6372	785.156	89.1385	785.156	89.4411	785.156	88.0521	785.156	88.4094	785.156	86.855	785.156	87.4915	785.156	85.2902	785.156	86.3546	785.156	83.4745	785.156	84.8918	785.156	82.2825	785.156	83.5618	785.156	82.3568	785.156	83.0064	785.156	82.4014	785.156	82.9772	785.156	80.7104	785.156	82.3767	785.156	76.1681	785.156	80.2359	785.156	74.892	785.156	76.2176	785.156	79.5796	785.156	75.7933	785.156	81.8019	785.156	79.8261	785.156	81.8699
811.523	91.884	811.523	91.5372	811.523	91.7253	811.523	90.7527	811.523	91.1594	811.523	89.6962	811.523	90.3917	811.523	88.5303	811.523	89.4992	811.523	87.4425	811.523	88.3947	811.523	86.7618	811.523	87.0797	811.523	86.4231	811.523	86.0302	811.523	85.793	811.523	85.6413	811.523	84.3575	811.523	85.1827	811.523	82.0983	811.523	83.6083	811.523	80.1134	811.523	80.7726	811.523	79.7569	811.523	78.953	811.523	79.2069	811.523	78.8621	811.523	76.1785	811.523	77.5402	811.523	72.35	811.523	74.2069	811.523	76.714	811.523	75.5263	811.523	79.9044	811.523	79.3253	811.523	80.7098
840.82	91.8589	840.82	91.5173	840.82	91.9398	840.82	91.0612	840.82	91.662	840.82	90.5582	840.82	90.9884	840.82	89.8356	840.82	89.951	840.82	88.6362	840.82	88.7413	840.82	87.0412	840.82	87.556	840.82	85.4994	840.82	86.2839	840.82	84.21	840.82	84.8125	840.82	82.9382	840.82	83.5197	840.82	81.8952	840.82	82.8341	840.82	81.525	840.82	82.3563	840.82	81.0463	840.82	81.552	840.82	79.554	840.82	80.2903	840.82	77.0843	840.82	78.2586	840.82	75.2558	840.82	75.2202	840.82	76.6772	840.82	75.3537	840.82	79.125	840.82	78.6581	840.82	80.0323
870.117	92.1349	870.117	91.886	870.117	92.0425	870.117	91.3207	870.117	91.483	870.117	90.3347	870.117	90.4949	870.117	89.0094	870.117	89.3115	870.117	87.7233	870.117	88.0845	870.117	86.7157	870.117	86.8417	870.117	85.8148	870.117	85.7793	870.117	84.8368	870.117	84.9788	870.117	83.754	870.117	83.8445	870.117	82.4063	870.117	81.7124	870.117	80.7732	870.117	79.2166	870.117	79.3367	870.117	79.0486	870.117	77.7001	870.117	79.6579	870.117	74.6058	870.117	77.333	870.117	75.4103	870.117	71.2289	870.117	80.2713	870.117	73.9859	870.117	82.1711	870.117	78.7648	870.117	81.4524
900.879	91.5102	900.879	91.6274	900.879	91.2444	900.879	91.1871	900.879	91.0893	900.879	90.0837	900.879	90.743	900.879	88.6258	900.879	89.6298	900.879	87.2351	900.879	87.653	900.879	86.1006	900.879	85.6096	900.879	85.2304	900.879	84.4382	900.879	84.391	900.879	83.8864	900.879	83.0075	900.879	83.1358	900.879	80.9009	900.879	82.0499	900.879	79.9031	900.879	80.7084	900.879	81.0641	900.879	79.9189	900.879	81.3403	900.879	80.0104	900.879	78.0469	900.879	79.3658	900.879	66.2838	900.879	75.8485	900.879	73.3795	900.879	67.0439	900.879	78.2474	900.879	77.4938	900.879	79.7792
933.105	91.8421	933.105	91.1795	933.105	91.9854	933.105	90.4199	933.105	91.3217	933.105	89.7353	933.105	90.0693	933.105	88.9	933.105	88.9438	933.105	87.5001	933.105	88.239	933.105	85.5425	933.105	87.2649	933.105	84.0241	933.105	85.6111	933.105	83.701	933.105	84.215	933.105	83.5391	933.105	83.6997	933.105	82.5243	933.105	82.7321	933.105	80.2805	933.105	80.4029	933.105	77.6906	933.105	77.8089	933.105	77.3866	933.105	77.1364	933.105	77.1101	933.105	78.378	933.105	75.4397	933.105	78.9874	933.105	75.1398	933.105	77.2454	933.105	77.3878	933.105	75.8534	933.105	77.4827
965.332	91.8119	965.332	91.6339	965.332	91.5294	965.332	91.0755	965.332	91.0017	965.332	90.298	965.332	90.4084	965.332	89.1886	965.332	89.65	965.332	87.7662	965.332	88.5248	965.332	86.4997	965.332	87.0003	965.332	85.5234	965.332	85.5888	965.332	84.3696	965.332	84.8335	965.332	82.7558	965.332	84.1495	965.332	80.6453	965.332	82.4633	965.332	78.5126	965.332	79.7612	965.332	78.4234	965.332	78.2599	965.332	78.6513	965.332	79.0107	965.332	76.893	965.332	77.9315	965.332	74.5217	965.332	72.2748	965.332	78.5127	965.332	72.1565	965.332	81.401	965.332	78.3187	965.332	81.2151
1,000.49	91.4276	1,000.49	91.5297	1,000.49	91.2865	1,000.49	91.08	1,000.49	91.1613	1,000.49	89.9375	1,000.49	90.7484	1,000.49	88.8031	1,000.49	89.8005	1,000.49	88.0378	1,000.49	88.331	1,000.49	86.7202	1,000.49	86.9101	1,000.49	84.5495	1,000.49	85.7733	1,000.49	83.3061	1,000.49	84.0791	1,000.49	83.4515	1,000.49	82.0175	1,000.49	82.3943	1,000.49	81.412	1,000.49	79.4256	1,000.49	81.458	1,000.49	77.9632	1,000.49	79.9004	1,000.49	78.4934	1,000.49	78.1377	1,000.49	75.3828	1,000.49	77.5543	1,000.49	74.207	1,000.49	74.2431	1,000.49	79.0798	1,000.49	73.568	1,000.49	80.9758	1,000.49	80.3281	1,000.49	81.7854
1,035.64	91.7968	1,035.64	91.1412	1,035.64	91.8561	1,035.64	90.3243	1,035.64	91.3029	1,035.64	89.6646	1,035.64	90.4408	1,035.64	88.8675	1,035.64	89.4575	1,035.64	87.3893	1,035.64	88.3907	1,035.64	85.3758	1,035.64	87.0203	1,035.64	83.9701	1,035.64	84.9969	1,035.64	83.4595	1,035.64	83.0814	1,035.64	82.7957	1,035.64	83.2818	1,035.64	81.5308	1,035.64	83.8792	1,035.64	79.6079	1,035.64	82.342	1,035.64	77.1973	1,035.64	78.4067	1,035.64	76.895	1,035.64	75.5209	1,035.64	76.7161	1,035.64	76.8796	1,035.64	72.0209	1,035.64	74.8918	1,035.64	67.6334	1,035.64	67.2668	1,035.64	77.0358	1,035.64	72.4728	1,035.64	77.519
1,072.27	90.8164	1,072.27	90.4203	1,072.27	90.8374	1,072.27	90.034	1,072.27	90.106	1,072.27	89.3942	1,072.27	89.0689	1,072.27	88.2911	1,072.27	88.2806	1,072.27	86.9425	1,072.27	87.5762	1,072.27	85.6428	1,072.27	86.6042	1,072.27	84.1818	1,072.27	85.375	1,072.27	82.1737	1,072.27	84.148	1,072.27	80.6805	1,072.27	82.7467	1,072.27	80.2774	1,072.27	81.2544	1,072.27	79.1874	1,072.27	80.2964	1,072.27	77.4582	1,072.27	79.2121	1,072.27	77.4212	1,072.27	78.5955	1,072.27	76.7865	1,072.27	79.2022	1,072.27	72.8022	1,072.27	76.9997	1,072.27	72.3952	1,072.27	71.6739	1,072.27	76.8927	1,072.27	75.6645	1,072.27	77.876
1,108.89	91.0478	1,108.89	91.165	1,108.89	90.5229	1,108.89	90.3616	1,108.89	90.5086	1,108.89	89.4596	1,108.89	90.2211	1,108.89	88.6518	1,108.89	89.1055	1,108.89	87.5185	1,108.89	87.9302	1,108.89	86.2912	1,108.89	86.787	1,108.89	84.7927	1,108.89	85.1154	1,108.89	82.9255	1,108.89	83.2839	1,108.89	81.6381	1,108.89	82.082	1,108.89	80.8393	1,108.89	81.6516	1,108.89	79.4188	1,108.89	80.9773	1,108.89	77.9958	1,108.89	79.7887	1,108.89	77.8971	1,108.89	78.6115	1,108.89	76.7447	1,108.89	76.9942	1,108.89	72.0739	1,108.89	73.8623	1,108.89	75.6565	1,108.89	69.891	1,108.89	79.7303	1,108.89	76.2515	1,108.89	80.0429
1,148.44	90.7816	1,148.44	90.7144	1,148.44	90.6645	1,148.44	89.8145	1,148.44	90.6792	1,148.44	88.7832	1,148.44	90.0763	1,148.44	88.2051	1,148.44	88.8415	1,148.44	87.3551	1,148.44	87.8311	1,148.44	86.0167	1,148.44	86.9918	1,148.44	84.5467	1,148.44	85.7685	1,148.44	82.7436	1,148.44	84.2534	1,148.44	81.2957	1,148.44	82.8403	1,148.44	80.9664	1,148.44	81.8097	1,148.44	79.3428	1,148.44	80.7982	1,148.44	76.2484	1,148.44	77.9788	1,148.44	77.7479	1,148.44	75.4326	1,148.44	78.0853	1,148.44	78.5188	1,148.44	73.1236	1,148.44	78.0437	1,148.44	65.3716	1,148.44	69.7614	1,148.44	76.9632	1,148.44	72.2475	1,148.44	77.9648
1,189.45	91.2	1,189.45	90.7258	1,189.45	91.4415	1,189.45	90.2912	1,189.45	90.8966	1,189.45	89.5918	1,189.45	89.9875	1,189.45	88.8726	1,189.45	89.2623	1,189.45	88.1045	1,189.45	88.2628	1,189.45	86.5169	1,189.45	86.9674	1,189.45	84.3745	1,189.45	85.6926	1,189.45	82.7676	1,189.45	83.9886	1,189.45	82.2828	1,189.45	82.3517	1,189.45	82.3535	1,189.45	81.6992	1,189.45	80.8957	1,189.45	80.443	1,189.45	76.9572	1,189.45	77.5963	1,189.45	76.7068	1,189.45	77.3281	1,189.45	78.1421	1,189.45	78.8869	1,189.45	76.6714	1,189.45	77.6112	1,189.45	75.6973	1,189.45	73.5928	1,189.45	78.3501	1,189.45	76.1935	1,189.45	78.8604
1,230.47	91.1929	1,230.47	90.7532	1,230.47	91.3289	1,230.47	90.6978	1,230.47	90.3583	1,230.47	90.0549	1,230.47	89.5906	1,230.47	88.7843	1,230.47	89.312	1,230.47	87.5003	1,230.47	88.2015	1,230.47	86.542	1,230.47	86.8263	1,230.47	86.1478	1,230.47	85.7848	1,230.47	85.0354	1,230.47	84.4075	1,230.47	82.6935	1,230.47	82.9869	1,230.47	80.9786	1,230.47	81.649	1,230.47	79.6501	1,230.47	80.6655	1,230.47	76.7887	1,230.47	79.2679	1,230.47	77.4228	1,230.47	76.3649	1,230.47	78.5544	1,230.47	77.9084	1,230.47	72.335	1,230.47	76.4893	1,230.47	73.1013	1,230.47	64.5489	1,230.47	80.2773	1,230.47	76.5393	1,230.47	80.8426
1,274.41	90.3558	1,274.41	90.3976	1,274.41	90.2109	1,274.41	89.9646	1,274.41	90.2048	1,274.41	89.5014	1,274.41	89.8505	1,274.41	88.9745	1,274.41	89.1168	1,274.41	88.0902	1,274.41	88.4762	1,274.41	86.9919	1,274.41	87.6702	1,274.41	85.6805	1,274.41	86.6892	1,274.41	84.1897	1,274.41	85.5068	1,274.41	82.5093	1,274.41	83.3363	1,274.41	81.5744	1,274.41	81.6203	1,274.41	80.6943	1,274.41	80.8744	1,274.41	77.5614	1,274.41	78.0366	1,274.41	77.3541	1,274.41	75.3322	1,274.41	79.3348	1,274.41	78.4072	1,274.41	76.9873	1,274.41	79.6932	1,274.41	68.4815	1,274.41	75.3623	1,274.41	71.7369	1,274.41	70.9095	1,274.41	74.797
1,319.82	91.4029	1,319.82	91.4313	1,319.82	91.0449	1,319.82	90.971	1,319.82	90.8816	1,319.82	90.3442	1,319.82	90.6793	1,319.82	89.7609	1,319.82	90.0385	1,319.82	88.9812	1,319.82	89.2446	1,319.82	87.8303	1,319.82	88.1088	1,319.82	86.4873	1,319.82	86.5324	1,319.82	84.8735	1,319.82	85.107	1,319.82	82.8153	1,319.82	83.407	1,319.82	81.8654	1,319.82	81.412	1,319.82	80.9081	1,319.82	81.0816	1,319.82	77.7414	1,319.82	80.1892	1,319.82	76.8586	1,319.82	76.303	1,319.82	78.6274	1,319.82	77.587	1,319.82	76.6415	1,319.82	78.4655	1,319.82	76.4942	1,319.82	71.404	1,319.82	81.9762	1,319.82	77.0037	1,319.82	81.9494
1,366.7	90.2096	1,366.7	90.2745	1,366.7	90.0351	1,366.7	89.9662	1,366.7	90.2626	1,366.7	89.825	1,366.7	90.1154	1,366.7	89.3899	1,366.7	89.7429	1,366.7	88.7032	1,366.7	89.2124	1,366.7	87.792	1,366.7	88.3659	1,366.7	86.3749	1,366.7	87.2324	1,366.7	84.5158	1,366.7	85.9807	1,366.7	82.9724	1,366.7	84.7527	1,366.7	81.6592	1,366.7	82.5378	1,366.7	80.2979	1,366.7	80.7257	1,366.7	78.8587	1,366.7	79.5381	1,366.7	76.6103	1,366.7	76.2932	1,366.7	78.4851	1,366.7	76.7753	1,366.7	74.5019	1,366.7	78.1222	1,366.7	65.0463	1,366.7	74.6027	1,366.7	76.4586	1,366.7	70.7556	1,366.7	78.1506
1,413.57	90.8883	1,413.57	90.7756	1,413.57	90.8099	1,413.57	90.5258	1,413.57	90.6009	1,413.57	90.2644	1,413.57	90.2008	1,413.57	89.7025	1,413.57	89.8406	1,413.57	88.718	1,413.57	89.234	1,413.57	87.4591	1,413.57	88.0767	1,413.57	86.0637	1,413.57	86.8399	1,413.57	84.6717	1,413.57	85.6516	1,413.57	83.2	1,413.57	83.8123	1,413.57	80.9077	1,413.57	81.9365	1,413.57	79.9039	1,413.57	81.1604	1,413.57	78.6807	1,413.57	79.9837	1,413.57	76.8223	1,413.57	76.6787	1,413.57	78.142	1,413.57	76.1115	1,413.57	76.9979	1,413.57	77.4694	1,413.57	74.0877	1,413.57	71.8137	1,413.57	79.166	1,413.57	72.6942	1,413.57	78.9651
1,463.38	90.0636	1,463.38	90.2032	1,463.38	89.9751	1,463.38	89.8196	1,463.38	90.1955	1,463.38	89.671	1,463.38	90.2088	1,463.38	89.5724	1,463.38	89.9286	1,463.38	88.9071	1,463.38	89.4603	1,463.38	88.1146	1,463.38	88.7922	1,463.38	86.7644	1,463.38	87.5211	1,463.38	85.5393	1,463.38	85.8974	1,463.38	83.6961	1,463.38	84.6928	1,463.38	80.458	1,463.38	82.9868	1,463.38	80.18	1,463.38	80.2375	1,463.38	78.8118	1,463.38	79.8596	1,463.38	75.0859	1,463.38	78.0553	1,463.38	78.9778	1,463.38	76.6181	1,463.38	74.491	1,463.38	78.7394	1,463.38	67.736	1,463.38	75.9246	1,463.38	77.0284	1,463.38	69.5325	1,463.38	78.5007
1,516.11	90.9547	1,516.11	91.126	1,516.11	90.8741	1,516.11	91.297	1,516.11	91.0844	1,516.11	91.0421	1,516.11	91.0752	1,516.11	90.372	1,516.11	90.7111	1,516.11	89.4629	1,516.11	90.0975	1,516.11	88.1407	1,516.11	88.9946	1,516.11	86.8727	1,516.11	87.726	1,516.11	85.4188	1,516.11	86.3865	1,516.11	84.0459	1,516.11	84.8204	1,516.11	81.6418	1,516.11	82.7015	1,516.11	79.5558	1,516.11	80.9704	1,516.11	78.7778	1,516.11	79.1521	1,516.11	76.4468	1,516.11	76.7083	1,516.11	77.4313	1,516.11	77.1028	1,516.11	78.5479	1,516.11	78.7304	1,516.11	75.9114	1,516.11	74.4056	1,516.11	77.1827	1,516.11	71.6157	1,516.11	76.9659
1,568.85	90.3637	1,568.85	90.3726	1,568.85	90.3657	1,568.85	90.7111	1,568.85	90.8139	1,568.85	90.9689	1,568.85	91.0698	1,568.85	90.6802	1,568.85	90.8746	1,568.85	89.7397	1,568.85	90.1881	1,568.85	88.3116	1,568.85	89.1808	1,568.85	86.7896	1,568.85	87.7144	1,568.85	85.339	1,568.85	85.8533	1,568.85	84.1956	1,568.85	84.3978	1,568.85	82.0544	1,568.85	82.8702	1,568.85	80.7258	1,568.85	80.6326	1,568.85	78.4382	1,568.85	79.859	1,568.85	74.1348	1,568.85	78.8446	1,568.85	79.4285	1,568.85	76.7454	1,568.85	78.0629	1,568.85	79.2841	1,568.85	60.9582	1,568.85	76.1447	1,568.85	77.6925	1,568.85	71.2053	1,568.85	79.6851
1,624.51	90.7438	1,624.51	90.9136	1,624.51	91.0138	1,624.51	91.1245	1,624.51	91.1252	1,624.51	91.3265	1,624.51	91.1602	1,624.51	90.8572	1,624.51	90.9661	1,624.51	89.8581	1,624.51	90.1724	1,624.51	88.5038	1,624.51	88.7105	1,624.51	86.5391	1,624.51	87.2177	1,624.51	84.7811	1,624.51	85.3525	1,624.51	82.9082	1,624.51	83.1553	1,624.51	82.2236	1,624.51	82.1801	1,624.51	79.8175	1,624.51	80.5853	1,624.51	78.3487	1,624.51	79.0311	1,624.51	75.7751	1,624.51	76.0632	1,624.51	75.6129	1,624.51	74.3046	1,624.51	78.1608	1,624.51	78.0344	1,624.51	75.1843	1,624.51	75.4366	1,624.51	74.7086	1,624.51	68.3634	1,624.51	74.6916
1,681.64	89.362	1,681.64	89.9105	1,681.64	89.5416	1,681.64	90.5109	1,681.64	90.3119	1,681.64	90.8624	1,681.64	90.9049	1,681.64	90.6795	1,681.64	90.6023	1,681.64	89.6805	1,681.64	90.0085	1,681.64	88.1381	1,681.64	88.7553	1,681.64	86.5213	1,681.64	87.2398	1,681.64	84.5999	1,681.64	85.3305	1,681.64	82.4914	1,681.64	83.3924	1,681.64	81.2076	1,681.64	81.7757	1,681.64	79.8757	1,681.64	80.4775	1,681.64	79.6811	1,681.64	78.552	1,681.64	76.592	1,681.64	77.9311	1,681.64	78.2583	1,681.64	74.2265	1,681.64	77.3505	1,681.64	77.5746	1,681.64	65.0753	1,681.64	75.6834	1,681.64	76.9278	1,681.64	66.7291	1,681.64	78.0563
1,741.7	90.1208	1,741.7	90.4742	1,741.7	90.0294	1,741.7	90.7641	1,741.7	90.5137	1,741.7	90.7617	1,741.7	90.4921	1,741.7	90.4722	1,741.7	90.5492	1,741.7	89.3116	1,741.7	89.6954	1,741.7	87.4	1,741.7	88.535	1,741.7	85.2913	1,741.7	86.6074	1,741.7	83.0249	1,741.7	84.3359	1,741.7	80.6153	1,741.7	82.0769	1,741.7	80.0023	1,741.7	80.6564	1,741.7	78.1373	1,741.7	78.9466	1,741.7	77.614	1,741.7	78.0475	1,741.7	77.0555	1,741.7	76.8564	1,741.7	73.6849	1,741.7	72.726	1,741.7	78.0635	1,741.7	77.1506	1,741.7	75.6726	1,741.7	75.0791	1,741.7	74.3534	1,741.7	66.6891	1,741.7	72.4392
1,803.22	89.1012	1,803.22	89.6498	1,803.22	89.1882	1,803.22	90.3363	1,803.22	89.9741	1,803.22	90.4854	1,803.22	90.7922	1,803.22	90.0109	1,803.22	90.7116	1,803.22	89.0791	1,803.22	90.0219	1,803.22	87.5456	1,803.22	88.7639	1,803.22	85.2571	1,803.22	86.6605	1,803.22	83.4133	1,803.22	85.1263	1,803.22	81.3967	1,803.22	83.2284	1,803.22	79.5135	1,803.22	80.9029	1,803.22	76.4131	1,803.22	79.1663	1,803.22	76.9219	1,803.22	77.4112	1,803.22	76.2829	1,803.22	78.0268	1,803.22	75.4331	1,803.22	76.5058	1,803.22	76.1521	1,803.22	73.8781	1,803.22	53.7361	1,803.22	75.5485	1,803.22	74.4384	1,803.22	65.4434	1,803.22	76.6261
1,866.21	90.2	1,866.21	90.6934	1,866.21	90.3567	1,866.21	90.9569	1,866.21	90.7612	1,866.21	90.93	1,866.21	91.1085	1,866.21	90.2192	1,866.21	90.8446	1,866.21	89.1164	1,866.21	89.8118	1,866.21	87.3276	1,866.21	88.2109	1,866.21	85.1439	1,866.21	86.4071	1,866.21	82.8067	1,866.21	84.048	1,866.21	80.4576	1,866.21	82.675	1,866.21	78.3303	1,866.21	80.019	1,866.21	76.7139	1,866.21	78.6383	1,866.21	75.8998	1,866.21	76.2939	1,866.21	74.1545	1,866.21	76.9219	1,866.21	73.422	1,866.21	74.6061	1,866.21	77.1823	1,866.21	77.3346	1,866.21	76.2421	1,866.21	75.544	1,866.21	76.0574	1,866.21	68.6702	1,866.21	73.4484
1,932.13	90.2339	1,932.13	90.5352	1,932.13	90.3575	1,932.13	91.2782	1,932.13	90.9591	1,932.13	91.3243	1,932.13	91.1718	1,932.13	90.6245	1,932.13	90.9708	1,932.13	89.1897	1,932.13	89.8913	1,932.13	87.6878	1,932.13	88.3872	1,932.13	85.1818	1,932.13	86.4601	1,932.13	82.9709	1,932.13	84.3292	1,932.13	81.6109	1,932.13	82.2808	1,932.13	78.3746	1,932.13	79.768	1,932.13	78.5263	1,932.13	78.0873	1,932.13	75.9189	1,932.13	77.6292	1,932.13	76.5238	1,932.13	75.7809	1,932.13	70.5269	1,932.13	74.7966	1,932.13	74.6508	1,932.13	73.4514	1,932.13	72.7377	1,932.13	77.3526	1,932.13	63.3471	1,932.13	70.616	1,932.13	67.7837
1,999.51	89.4982	1,999.51	90.5341	1,999.51	89.9078	1,999.51	91.0384	1,999.51	90.4155	1,999.51	91.1326	1,999.51	91.1098	1,999.51	90.3372	1,999.51	90.5812	1,999.51	89.1741	1,999.51	89.547	1,999.51	87.2331	1,999.51	87.7338	1,999.51	85.3745	1,999.51	85.8709	1,999.51	83.26	1,999.51	83.5692	1,999.51	80.7365	1,999.51	81.3592	1,999.51	78.5358	1,999.51	80.237	1,999.51	77.0912	1,999.51	76.8533	1,999.51	76.1568	1,999.51	75.8468	1,999.51	76.3246	1,999.51	76.5574	1,999.51	74.6668	1,999.51	74.2467	1,999.51	76.5897	1,999.51	72.4383	1,999.51	73.1511	1,999.51	74.018	1,999.51	75.2512	1,999.51	67.6151	1,999.51	75.4134
2,069.82	90.2427	2,069.82	90.5282	2,069.82	89.9222	2,069.82	90.9017	2,069.82	90.55	2,069.82	90.8651	2,069.82	90.7193	2,069.82	90.074	2,069.82	90.2961	2,069.82	87.9392	2,069.82	88.9417	2,069.82	85.9636	2,069.82	87.2566	2,069.82	84.4593	2,069.82	85.236	2,069.82	81.8837	2,069.82	83.7309	2,069.82	81.0067	2,069.82	81.2131	2,069.82	78.431	2,069.82	77.9251	2,069.82	77.6794	2,069.82	78.3992	2,069.82	76.3965	2,069.82	75.042	2,069.82	75.4394	2,069.82	74.8765	2,069.82	74.1061	2,069.82	74.9455	2,069.82	74.7356	2,069.82	72.8423	2,069.82	78.6625	2,069.82	76.3536	2,069.82	75.0786	2,069.82	71.4603	2,069.82	69.9781
2,143.07	90.5533	2,143.07	90.9784	2,143.07	90.9034	2,143.07	91.4143	2,143.07	91.4248	2,143.07	91.4463	2,143.07	91.6346	2,143.07	90.5656	2,143.07	91.2154	2,143.07	89.2864	2,143.07	90.2408	2,143.07	87.117	2,143.07	88.8504	2,143.07	85.2409	2,143.07	86.7872	2,143.07	82.9456	2,143.07	84.5066	2,143.07	80.7815	2,143.07	81.9986	2,143.07	79.4339	2,143.07	81.6684	2,143.07	76.3048	2,143.07	78.3279	2,143.07	75.2241	2,143.07	78.0049	2,143.07	76.1499	2,143.07	75.6289	2,143.07	73.6885	2,143.07	77.4218	2,143.07	74.6493	2,143.07	72.8389	2,143.07	70.383	2,143.07	74.6102	2,143.07	69.8113	2,143.07	71.7018	2,143.07	72.4809
2,219.24	90.4879	2,219.24	91.2033	2,219.24	91.0449	2,219.24	91.8308	2,219.24	91.4103	2,219.24	91.6098	2,219.24	91.9834	2,219.24	91.1771	2,219.24	91.7148	2,219.24	89.3753	2,219.24	90.3918	2,219.24	87.5525	2,219.24	88.6847	2,219.24	85.8015	2,219.24	86.8509	2,219.24	84.3787	2,219.24	84.1154	2,219.24	80.6041	2,219.24	82.3345	2,219.24	79.216	2,219.24	79.1109	2,219.24	77.5984	2,219.24	77.8585	2,219.24	75.566	2,219.24	76.0669	2,219.24	77.5804	2,219.24	75.8088	2,219.24	76.0441	2,219.24	77.1201	2,219.24	78.0116	2,219.24	76.2049	2,219.24	74.0747	2,219.24	76.8498	2,219.24	74.0017	2,219.24	71.1081	2,219.24	73.8285
2,296.88	91.2151	2,296.88	91.5252	2,296.88	91.0935	2,296.88	91.6443	2,296.88	91.5862	2,296.88	91.7082	2,296.88	91.6067	2,296.88	91.0946	2,296.88	90.9155	2,296.88	89.6777	2,296.88	89.557	2,296.88	87.5342	2,296.88	87.7367	2,296.88	85.3716	2,296.88	86.0105	2,296.88	82.7134	2,296.88	84.3235	2,296.88	80.8156	2,296.88	80.4881	2,296.88	78.8938	2,296.88	78.2304	2,296.88	77.4082	2,296.88	75.7994	2,296.88	77.2115	2,296.88	75.2883	2,296.88	76.5146	2,296.88	74.4406	2,296.88	74.8563	2,296.88	77.3903	2,296.88	75.5516	2,296.88	74.1201	2,296.88	79.3724	2,296.88	78.1924	2,296.88	76.3923	2,296.88	69.8862	2,296.88	72.1768
2,378.91	90.3328	2,378.91	90.6797	2,378.91	90.1877	2,378.91	91.1004	2,378.91	90.3439	2,378.91	90.6387	2,378.91	90.0526	2,378.91	90.0905	2,378.91	90.2629	2,378.91	88.4023	2,378.91	89.072	2,378.91	86.5379	2,378.91	88.2126	2,378.91	84.5133	2,378.91	85.3488	2,378.91	82.7071	2,378.91	83.3664	2,378.91	80.8184	2,378.91	82.5422	2,378.91	79.3068	2,378.91	80.5777	2,378.91	76.5138	2,378.91	77.0207	2,378.91	76.1372	2,378.91	76.899	2,378.91	76.1028	2,378.91	73.9846	2,378.91	76.9491	2,378.91	74.3593	2,378.91	71.6112	2,378.91	73.8753	2,378.91	75.8672	2,378.91	75.1227	2,378.91	74.9537	2,378.91	74.3785	2,378.91	64.1774
2,462.4	90.2239	2,462.4	89.6111	2,462.4	90.1846	2,462.4	89.9383	2,462.4	90.4557	2,462.4	90.6527	2,462.4	90.0943	2,462.4	89.6318	2,462.4	89.9797	2,462.4	87.9726	2,462.4	89.5552	2,462.4	86.47	2,462.4	87.6877	2,462.4	84.3488	2,462.4	85.8299	2,462.4	81.8875	2,462.4	84.0116	2,462.4	79.3778	2,462.4	82.1676	2,462.4	78.4481	2,462.4	79.2875	2,462.4	74.9192	2,462.4	78.6168	2,462.4	75.6557	2,462.4	74.7143	2,462.4	75.1654	2,462.4	73.8071	2,462.4	75.6526	2,462.4	74.8405	2,462.4	74.8301	2,462.4	74.1354	2,462.4	72.8461	2,462.4	76.1326	2,462.4	65.4087	2,462.4	70.7642	2,462.4	57.0678
2,548.83	91.9692	2,548.83	92.0014	2,548.83	91.8481	2,548.83	91.7199	2,548.83	91.8349	2,548.83	90.9336	2,548.83	92.0172	2,548.83	90.3054	2,548.83	91.5115	2,548.83	89.171	2,548.83	89.7979	2,548.83	87.131	2,548.83	88.4346	2,548.83	85.3317	2,548.83	86.4342	2,548.83	82.3526	2,548.83	84.2746	2,548.83	79.9417	2,548.83	81.6445	2,548.83	78.1206	2,548.83	80.0824	2,548.83	78.7123	2,548.83	77.5864	2,548.83	75.5322	2,548.83	76.9762	2,548.83	75.136	2,548.83	77.0133	2,548.83	75.4181	2,548.83	76.6191	2,548.83	74.5003	2,548.83	75.605	2,548.83	73.5405	2,548.83	76.7163	2,548.83	66.7535	2,548.83	72.6732	2,548.83	68.031
2,639.65	91.4326	2,639.65	90.9952	2,639.65	91.5597	2,639.65	91.4882	2,639.65	90.9443	2,639.65	91.3367	2,639.65	90.5478	2,639.65	90.6294	2,639.65	90.1953	2,639.65	89.5433	2,639.65	89.9786	2,639.65	87.9845	2,639.65	88.3819	2,639.65	85.5457	2,639.65	86.5929	2,639.65	83.7444	2,639.65	84.2351	2,639.65	82.0632	2,639.65	81.5445	2,639.65	78.6918	2,639.65	79.9693	2,639.65	76.6495	2,639.65	77.3501	2,639.65	75.7509	2,639.65	77.3966	2,639.65	74.3833	2,639.65	76.5256	2,639.65	76.2744	2,639.65	75.4879	2,639.65	74.4772	2,639.65	75.6664	2,639.65	75.0035	2,639.65	75.9711	2,639.65	69.327	2,639.65	74.2121	2,639.65	67.446
2,731.93	91.9253	2,731.93	91.5849	2,731.93	91.4871	2,731.93	90.3804	2,731.93	91.4214	2,731.93	90.4245	2,731.93	91.0129	2,731.93	90.3902	2,731.93	90.4339	2,731.93	89.3339	2,731.93	89.6252	2,731.93	87.4906	2,731.93	88.8161	2,731.93	85.2155	2,731.93	86.5342	2,731.93	83.1566	2,731.93	84.5122	2,731.93	80.2338	2,731.93	82.4329	2,731.93	78.9302	2,731.93	79.6491	2,731.93	76.1851	2,731.93	78.0029	2,731.93	77.0288	2,731.93	74.8077	2,731.93	75.899	2,731.93	75.5883	2,731.93	77.5207	2,731.93	75.3545	2,731.93	74.1062	2,731.93	76.6318	2,731.93	77.9516	2,731.93	75.5396	2,731.93	57.8729	2,731.93	73.355	2,731.93	63.8202
2,828.61	90.5537	2,828.61	90.2624	2,828.61	90.715	2,828.61	90.5602	2,828.61	89.0593	2,828.61	89.5576	2,828.61	89.4212	2,828.61	89.0035	2,828.61	90.1552	2,828.61	88.8046	2,828.61	89.7547	2,828.61	87.2303	2,828.61	87.8454	2,828.61	85.1525	2,828.61	86.3846	2,828.61	82.0793	2,828.61	83.436	2,828.61	80.2795	2,828.61	80.6633	2,828.61	77.5804	2,828.61	78.4421	2,828.61	78.299	2,828.61	76.1544	2,828.61	74.9916	2,828.61	76.7139	2,828.61	75.7018	2,828.61	75.445	2,828.61	75.3688	2,828.61	74.5246	2,828.61	76.7609	2,828.61	75.8037	2,828.61	75.0853	2,828.61	74.7754	2,828.61	59.5358	2,828.61	74.4731	2,828.61	65.958
2,928.22	91.4211	2,928.22	89.8802	2,928.22	90.9107	2,928.22	88.3878	2,928.22	90.5296	2,928.22	90.3461	2,928.22	89.3074	2,928.22	90.0768	2,928.22	89.143	2,928.22	89.1328	2,928.22	89.3193	2,928.22	87.6442	2,928.22	88.7648	2,928.22	84.6046	2,928.22	86.6419	2,928.22	83.0251	2,928.22	84.5918	2,928.22	81.0638	2,928.22	82.721	2,928.22	78.5704	2,928.22	79.769	2,928.22	73.4643	2,928.22	77.1187	2,928.22	73.9065	2,928.22	76.8288	2,928.22	75.3357	2,928.22	74.59	2,928.22	77.9811	2,928.22	73.2676	2,928.22	72.7496	2,928.22	76.5342	2,928.22	74.5771	2,928.22	75.7591	2,928.22	66.8553	2,928.22	73.61	2,928.22	67.4538
3,030.76	92.3359	3,030.76	91.5454	3,030.76	92.0292	3,030.76	90.6613	3,030.76	90.6021	3,030.76	89.3694	3,030.76	90.8248	3,030.76	90.5982	3,030.76	90.9219	3,030.76	89.7559	3,030.76	90.4139	3,030.76	88.1151	3,030.76	89.4008	3,030.76	85.9097	3,030.76	86.7273	3,030.76	82.935	3,030.76	84.2338	3,030.76	77.6723	3,030.76	79.8375	3,030.76	76.8977	3,030.76	78.9533	3,030.76	77.7543	3,030.76	78.8879	3,030.76	75.6055	3,030.76	76.0413	3,030.76	73.792	3,030.76	77.9115	3,030.76	72.2844	3,030.76	76.9609	3,030.76	74.6832	3,030.76	77.6201	3,030.76	77.1015	3,030.76	74.0152	3,030.76	49.1171	3,030.76	74.2453	3,030.76	48.8245
3,137.7	91.1042	3,137.7	90.1888	3,137.7	90.9917	3,137.7	90.0786	3,137.7	89.3002	3,137.7	90.6642	3,137.7	89.0262	3,137.7	90.4474	3,137.7	90.4164	3,137.7	90.2185	3,137.7	90.4189	3,137.7	88.2274	3,137.7	88.6894	3,137.7	85.6496	3,137.7	87.4512	3,137.7	83.6394	3,137.7	84.8727	3,137.7	82.219	3,137.7	82.887	3,137.7	78.4911	3,137.7	79.5314	3,137.7	75.7303	3,137.7	74.9684	3,137.7	76.6645	3,137.7	76.0477	3,137.7	77.2575	3,137.7	69.8594	3,137.7	77.2421	3,137.7	72.7805	3,137.7	76.9717	3,137.7	74.5133	3,137.7	73.1561	3,137.7	76.0391	3,137.7	64.5741	3,137.7	75.3096	3,137.7	65.8391
3,249.02	92.0878	3,249.02	89.7079	3,249.02	91.2107	3,249.02	88.1421	3,249.02	89.9892	3,249.02	89.7307	3,249.02	88.6786	3,249.02	89.4106	3,249.02	89.4458	3,249.02	88.9685	3,249.02	89.7691	3,249.02	86.9154	3,249.02	88.0311	3,249.02	85.1325	3,249.02	85.5371	3,249.02	81.2259	3,249.02	82.0175	3,249.02	79.0951	3,249.02	80.2128	3,249.02	78.178	3,249.02	77.7634	3,249.02	74.667	3,249.02	77.3489	3,249.02	73.2152	3,249.02	75.6342	3,249.02	75.8961	3,249.02	76.9648	3,249.02	76.3074	3,249.02	76.0934	3,249.02	73.8345	3,249.02	77.6689	3,249.02	76.5145	3,249.02	74.0843	3,249.02	68.5174	3,249.02	73.781	3,249.02	62.0523
3,363.28	90.6303	3,363.28	90.5023	3,363.28	90.6533	3,363.28	88.7272	3,363.28	89.3641	3,363.28	88.1944	3,363.28	89.5055	3,363.28	90.0035	3,363.28	88.7413	3,363.28	88.1163	3,363.28	88.1675	3,363.28	86.2651	3,363.28	87.725	3,363.28	82.4734	3,363.28	85.4466	3,363.28	80.3621	3,363.28	83.5214	3,363.28	77.3234	3,363.28	79.9362	3,363.28	73.5686	3,363.28	77.3741	3,363.28	74.5216	3,363.28	74.8761	3,363.28	74.8304	3,363.28	72.3711	3,363.28	69.8986	3,363.28	74.576	3,363.28	69.4804	3,363.28	74.4856	3,363.28	75.2963	3,363.28	72.2913	3,363.28	74.4115	3,363.28	72.3757	3,363.28	57.5766	3,363.28	72.6395	3,363.28	55.5383
3,481.93	90.8589	3,481.93	89.4575	3,481.93	89.8594	3,481.93	88.9689	3,481.93	88.5883	3,481.93	88.8018	3,481.93	87.7151	3,481.93	87.9966	3,481.93	89.8647	3,481.93	87.4986	3,481.93	88.5606	3,481.93	86.4573	3,481.93	86.8286	3,481.93	84.3585	3,481.93	83.7647	3,481.93	81.9661	3,481.93	81.577	3,481.93	80.268	3,481.93	80.1946	3,481.93	77.6525	3,481.93	76.2771	3,481.93	73.0512	3,481.93	73.9564	3,481.93	71.9494	3,481.93	74.0597	3,481.93	75.721	3,481.93	72.0968	3,481.93	75.1001	3,481.93	72.4792	3,481.93	72.0984	3,481.93	75.7103	3,481.93	70.3297	3,481.93	72.9612	3,481.93	68.559	3,481.93	74.0956	3,481.93	61.2166
3,604.98	90.2368	3,604.98	89.4807	3,604.98	90.6567	3,604.98	88.7755	3,604.98	88.7124	3,604.98	88.3279	3,604.98	88.0989	3,604.98	89.1326	3,604.98	86.9433	3,604.98	88.2521	3,604.98	88.2161	3,604.98	85.3252	3,604.98	85.9253	3,604.98	82.7584	3,604.98	85.5092	3,604.98	80.5026	3,604.98	83.2393	3,604.98	76.3524	3,604.98	78.7716	3,604.98	74.7429	3,604.98	77.5248	3,604.98	74.8907	3,604.98	76.3282	3,604.98	73.0505	3,604.98	73.6253	3,604.98	70.0443	3,604.98	75.6326	3,604.98	71.0497	3,604.98	75.3684	3,604.98	76.0145	3,604.98	72.816	3,604.98	74.7381	3,604.98	72.6189	3,604.98	60.3978	3,604.98	71.2464	3,604.98	59.4137
3,732.42	91.4854	3,732.42	89.7398	3,732.42	90.8145	3,732.42	88.6045	3,732.42	90.421	3,732.42	89.0631	3,732.42	88.7977	3,732.42	87.2921	3,732.42	89.3892	3,732.42	87.6509	3,732.42	88.5104	3,732.42	86.0162	3,732.42	87.3297	3,732.42	84.2338	3,732.42	85.4969	3,732.42	81.9915	3,732.42	82.4406	3,732.42	80.1299	3,732.42	81.2907	3,732.42	76.2156	3,732.42	76.6516	3,732.42	72.2299	3,732.42	73.928	3,732.42	73.1693	3,732.42	72.7718	3,732.42	74.5748	3,732.42	69.4197	3,732.42	74.1546	3,732.42	70.9011	3,732.42	73.5848	3,732.42	74.3188	3,732.42	71.76	3,732.42	73.3766	3,732.42	56.4653	3,732.42	72.9805	3,732.42	62.4115
3,864.26	89.7218	3,864.26	90.1467	3,864.26	90.2322	3,864.26	88.51	3,864.26	89.0179	3,864.26	87.6913	3,864.26	87.8677	3,864.26	88.5412	3,864.26	86.0126	3,864.26	87.7646	3,864.26	86.832	3,864.26	85.8254	3,864.26	85.8647	3,864.26	84.4785	3,864.26	84.2067	3,864.26	80.5023	3,864.26	81.6577	3,864.26	76.3481	3,864.26	77.9665	3,864.26	75.5475	3,864.26	76.9174	3,864.26	74.2893	3,864.26	74.302	3,864.26	70.3102	3,864.26	73.0261	3,864.26	71.2933	3,864.26	74.0158	3,864.26	73.9556	3,864.26	73.5726	3,864.26	73.4716	3,864.26	71.5722	3,864.26	71.1612	3,864.26	71.2587	3,864.26	62.8804	3,864.26	70.1932	3,864.26	52.1475
4,000.49	89.7729	4,000.49	89.5074	4,000.49	89.4483	4,000.49	88.6427	4,000.49	89.9739	4,000.49	87.0542	4,000.49	88.4354	4,000.49	86.1883	4,000.49	88.4081	4,000.49	86.4408	4,000.49	87.1129	4,000.49	85.342	4,000.49	87.236	4,000.49	82.7084	4,000.49	85.1469	4,000.49	80.9951	4,000.49	82.2921	4,000.49	79.3417	4,000.49	80.4597	4,000.49	75.2465	4,000.49	75.7696	4,000.49	72.8642	4,000.49	73.724	4,000.49	73.8286	4,000.49	72.1075	4,000.49	72.6342	4,000.49	69.2193	4,000.49	71.5121	4,000.49	69.544	4,000.49	75.0566	4,000.49	72.4294	4,000.49	71.716	4,000.49	73.7088	4,000.49	59.6442	4,000.49	71.431	4,000.49	65.684
4,141.11	90.0351	4,141.11	90.8633	4,141.11	90.8735	4,141.11	89.5348	4,141.11	89.642	4,141.11	87.4048	4,141.11	88.1267	4,141.11	88.3625	4,141.11	86.9267	4,141.11	88.4327	4,141.11	87.4523	4,141.11	86.606	4,141.11	86.9401	4,141.11	84.7244	4,141.11	84.752	4,141.11	80.9616	4,141.11	82.0621	4,141.11	75.9985	4,141.11	78.396	4,141.11	74.1436	4,141.11	77.1417	4,141.11	71.9057	4,141.11	73.441	4,141.11	68.4871	4,141.11	73.1912	4,141.11	72.0472	4,141.11	72.5614	4,141.11	74.3903	4,141.11	73.7724	4,141.11	70.5441	4,141.11	72.6214	4,141.11	66.9569	4,141.11	71.9082	4,141.11	62.9276	4,141.11	69.8466	4,141.11	62.6605
4,287.6	89.0913	4,287.6	89.2524	4,287.6	88.999	4,287.6	88.8397	4,287.6	89.8383	4,287.6	86.5778	4,287.6	87.7158	4,287.6	86.5484	4,287.6	86.5674	4,287.6	86.6405	4,287.6	87.0485	4,287.6	85.908	4,287.6	86.6152	4,287.6	82.6922	4,287.6	84.9665	4,287.6	80.5793	4,287.6	81.2299	4,287.6	78.4912	4,287.6	79.2235	4,287.6	75.2545	4,287.6	74.6419	4,287.6	73.9152	4,287.6	72.8271	4,287.6	73.6066	4,287.6	70.6689	4,287.6	71.7133	4,287.6	69.3236	4,287.6	71.8431	4,287.6	68.9162	4,287.6	74.4145	4,287.6	71.5947	4,287.6	70.248	4,287.6	72.7091	4,287.6	55.1909	4,287.6	69.3587	4,287.6	66.6535
4,438.48	89.9864	4,438.48	90.4486	4,438.48	90.5681	4,438.48	88.8854	4,438.48	89.9621	4,438.48	86.9911	4,438.48	87.4462	4,438.48	87.034	4,438.48	87.0524	4,438.48	87.7621	4,438.48	86.9705	4,438.48	85.0688	4,438.48	86.086	4,438.48	82.5762	4,438.48	84.051	4,438.48	79.0886	4,438.48	81.8473	4,438.48	74.7789	4,438.48	77.7987	4,438.48	72.9059	4,438.48	76.7338	4,438.48	69.1544	4,438.48	72.6348	4,438.48	68.2352	4,438.48	71.6545	4,438.48	71.6722	4,438.48	71.4089	4,438.48	72.8393	4,438.48	72.2838	4,438.48	69.6876	4,438.48	72.9794	4,438.48	66.8819	4,438.48	72.2677	4,438.48	59.8964	4,438.48	68.0252	4,438.48	61.4113
4,595.21	90.009	4,595.21	90.5345	4,595.21	90.518	4,595.21	89.2706	4,595.21	90.4895	4,595.21	87.1346	4,595.21	88.6008	4,595.21	87.6681	4,595.21	86.9157	4,595.21	86.9375	4,595.21	87.7059	4,595.21	86.5106	4,595.21	87.0695	4,595.21	83.9164	4,595.21	84.7016	4,595.21	80.4766	4,595.21	81.4908	4,595.21	78.622	4,595.21	79.1316	4,595.21	74.6698	4,595.21	74.5921	4,595.21	72.7414	4,595.21	73.3433	4,595.21	72.0938	4,595.21	70.7292	4,595.21	70.1546	4,595.21	70.2259	4,595.21	71.234	4,595.21	70.1922	4,595.21	73.2175	4,595.21	71.8822	4,595.21	65.8451	4,595.21	72.5627	4,595.21	56.7237	4,595.21	67.0964	4,595.21	66.4864
4,756.35	89.7593	4,756.35	89.9675	4,756.35	90.0574	4,756.35	88.622	4,756.35	90.0672	4,756.35	87.4592	4,756.35	87.2487	4,756.35	86.3214	4,756.35	86.8005	4,756.35	87.3019	4,756.35	86.4091	4,756.35	84.8023	4,756.35	85.6063	4,756.35	81.7598	4,756.35	84.2424	4,756.35	79.9523	4,756.35	81.6212	4,756.35	76.2215	4,756.35	78.0944	4,756.35	74.7918	4,756.35	76.2752	4,756.35	71.3379	4,756.35	73.273	4,756.35	69.2745	4,756.35	71.1147	4,756.35	71.7862	4,756.35	69.9512	4,756.35	71.7551	4,756.35	70.7856	4,756.35	70.4963	4,756.35	73.4418	4,756.35	68.101	4,756.35	71.4363	4,756.35	54.0711	4,756.35	66.6453	4,756.35	65.9932
4,924.8	90.0634	4,924.8	90.0622	4,924.8	90.353	4,924.8	89.0932	4,924.8	89.4056	4,924.8	87.3005	4,924.8	88.8405	4,924.8	87.0752	4,924.8	86.9295	4,924.8	86.469	4,924.8	86.8112	4,924.8	85.2928	4,924.8	86.1781	4,924.8	84.0405	4,924.8	83.9195	4,924.8	79.9915	4,924.8	81.3927	4,924.8	77.805	4,924.8	79.4104	4,924.8	73.2171	4,924.8	75.213	4,924.8	71.2001	4,924.8	72.7361	4,924.8	70.7442	4,924.8	70.665	4,924.8	69.9914	4,924.8	69.6805	4,924.8	71.5092	4,924.8	70.2394	4,924.8	72.6731	4,924.8	72.1934	4,924.8	64.2264	4,924.8	73.3423	4,924.8	53.2672	4,924.8	62.5249	4,924.8	67.6843
5,097.66	90.2691	5,097.66	90.1737	5,097.66	90.4129	5,097.66	89.3477	5,097.66	90.2797	5,097.66	88.0543	5,097.66	88.9551	5,097.66	86.5929	5,097.66	87.2694	5,097.66	86.6652	5,097.66	87.0459	5,097.66	85.9255	5,097.66	86.9016	5,097.66	82.9326	5,097.66	85.8124	5,097.66	80.7139	5,097.66	82.7643	5,097.66	76.5911	5,097.66	79.5158	5,097.66	75.0493	5,097.66	76.1272	5,097.66	71.8461	5,097.66	74.3006	5,097.66	70.0848	5,097.66	70.6869	5,097.66	69.5219	5,097.66	69.9822	5,097.66	69.9085	5,097.66	71.8405	5,097.66	70.6769	5,097.66	72.1988	5,097.66	66.4707	5,097.66	69.0975	5,097.66	53.53	5,097.66	63.7482	5,097.66	64.5865
5,277.83	91.0284	5,277.83	90.074	5,277.83	90.5128	5,277.83	90.1404	5,277.83	90.1661	5,277.83	89.0009	5,277.83	89.3672	5,277.83	87.4578	5,277.83	87.4486	5,277.83	87.5748	5,277.83	87.3068	5,277.83	86.7464	5,277.83	87.0504	5,277.83	84.7225	5,277.83	85.5955	5,277.83	81.0038	5,277.83	82.6106	5,277.83	77.2118	5,277.83	78.1659	5,277.83	73.6668	5,277.83	76.1731	5,277.83	71.9167	5,277.83	72.0704	5,277.83	70.1407	5,277.83	71.2645	5,277.83	71.3066	5,277.83	68.5292	5,277.83	71.5823	5,277.83	68.9781	5,277.83	72.7894	5,277.83	73.4776	5,277.83	66.6893	5,277.83	71.9572	5,277.83	49.1183	5,277.83	57.8332	5,277.83	67.5236
5,463.87	90.7697	5,463.87	89.5074	5,463.87	90.1776	5,463.87	90.2611	5,463.87	89.5378	5,463.87	88.5045	5,463.87	90.487	5,463.87	87.0132	5,463.87	87.8878	5,463.87	87.351	5,463.87	87.3457	5,463.87	85.9056	5,463.87	87.4495	5,463.87	83.1119	5,463.87	85.5459	5,463.87	80.2615	5,463.87	81.579	5,463.87	77.1677	5,463.87	78.9788	5,463.87	74.1732	5,463.87	75.7502	5,463.87	71.9397	5,463.87	72.1322	5,463.87	70.1621	5,463.87	71.8164	5,463.87	67.7479	5,463.87	69.5861	5,463.87	71.4817	5,463.87	71.4266	5,463.87	70.3943	5,463.87	70.2318	5,463.87	64.8943	5,463.87	68.9517	5,463.87	51.3891	5,463.87	63.6172	5,463.87	64.1402
5,657.23	91.2913	5,657.23	90.8471	5,657.23	90.638	5,657.23	91.1259	5,657.23	90.8029	5,657.23	89.8608	5,657.23	90.5934	5,657.23	87.8124	5,657.23	89.0149	5,657.23	87.9479	5,657.23	88.2112	5,657.23	86.8602	5,657.23	87.8495	5,657.23	83.827	5,657.23	85.2477	5,657.23	80.5374	5,657.23	81.8075	5,657.23	76.626	5,657.23	79.0636	5,657.23	74.3104	5,657.23	73.6469	5,657.23	68.6111	5,657.23	72.8908	5,657.23	67.8198	5,657.23	65.9985	5,657.23	68.6211	5,657.23	68.7268	5,657.23	71.1394	5,657.23	69.0243	5,657.23	70.5844	5,657.23	72.1679	5,657.23	63.6225	5,657.23	69.1887	5,657.23	53.9539	5,657.23	54.4433	5,657.23	67.3757
5,856.45	90.989	5,856.45	90.25	5,856.45	90.2266	5,856.45	90.8394	5,856.45	90.4886	5,856.45	89.2979	5,856.45	90.6316	5,856.45	87.5847	5,856.45	88.9174	5,856.45	87.4942	5,856.45	87.9634	5,856.45	85.4131	5,856.45	86.5577	5,856.45	82.9393	5,856.45	84.8299	5,856.45	79.7389	5,856.45	82.0009	5,856.45	76.6996	5,856.45	77.667	5,856.45	73.4103	5,856.45	75.3768	5,856.45	71.4803	5,856.45	70.6627	5,856.45	69.313	5,856.45	70.7418	5,856.45	70.6864	5,856.45	67.8856	5,856.45	72.0062	5,856.45	69.3343	5,856.45	72.3343	5,856.45	70.8518	5,856.45	67.1976	5,856.45	69.4096	5,856.45	62.356	5,856.45	58.669	5,856.45	63.7813
6,062.99	90.7598	6,062.99	89.9943	6,062.99	90.1678	6,062.99	90.9281	6,062.99	90.2046	6,062.99	89.4158	6,062.99	90.512	6,062.99	87.6475	6,062.99	88.7977	6,062.99	86.545	6,062.99	87.3463	6,062.99	85.1059	6,062.99	86.2918	6,062.99	83.3053	6,062.99	84.3956	6,062.99	80.4849	6,062.99	81.0627	6,062.99	76.881	6,062.99	78.4692	6,062.99	73.1047	6,062.99	76.1272	6,062.99	71.0277	6,062.99	72.2763	6,062.99	68.2464	6,062.99	71.3961	6,062.99	65.67	6,062.99	67.3154	6,062.99	69.9158	6,062.99	69.2599	6,062.99	70.3738	6,062.99	69.8984	6,062.99	62.4414	6,062.99	68.9099	6,062.99	62.1576	6,062.99	60.1546	6,062.99	60.8346
6,276.86	89.9913	6,276.86	90.4254	6,276.86	89.7966	6,276.86	90.4355	6,276.86	89.9163	6,276.86	89.8449	6,276.86	90.4891	6,276.86	87.1914	6,276.86	89.0623	6,276.86	86.0449	6,276.86	86.7643	6,276.86	84.96	6,276.86	85.4327	6,276.86	83.0288	6,276.86	84.9557	6,276.86	79.7228	6,276.86	82.3498	6,276.86	76.6347	6,276.86	78.9671	6,276.86	73.8096	6,276.86	74.7353	6,276.86	70.4614	6,276.86	72.0982	6,276.86	67.0086	6,276.86	69.348	6,276.86	67.831	6,276.86	67.5831	6,276.86	70.3612	6,276.86	67.2899	6,276.86	71.7305	6,276.86	70.6526	6,276.86	65.7241	6,276.86	68.9675	6,276.86	63.1218	6,276.86	52.4791	6,276.86	65.8009
6,498.05	89.1582	6,498.05	89.9977	6,498.05	89.3793	6,498.05	89.8653	6,498.05	89.6906	6,498.05	89.6354	6,498.05	90.2361	6,498.05	86.6828	6,498.05	88.306	6,498.05	86.0663	6,498.05	86.4484	6,498.05	85.4739	6,498.05	86.0445	6,498.05	82.8991	6,498.05	85.1914	6,498.05	79.6825	6,498.05	81.9714	6,498.05	75.9372	6,498.05	78.3281	6,498.05	72.6707	6,498.05	74.8043	6,498.05	68.1986	6,498.05	71.7125	6,498.05	66.8047	6,498.05	67.797	6,498.05	69.3294	6,498.05	67.2077	6,498.05	70.6418	6,498.05	68.8997	6,498.05	69.7392	6,498.05	70.4914	6,498.05	62.4353	6,498.05	70.2295	6,498.05	64.283	6,498.05	60.0556	6,498.05	66.1614
6,726.56	88.8195	6,726.56	89.838	6,726.56	89.6751	6,726.56	89.9469	6,726.56	89.6788	6,726.56	89.8614	6,726.56	89.8225	6,726.56	86.8528	6,726.56	88.6987	6,726.56	86.2709	6,726.56	86.1088	6,726.56	85.7595	6,726.56	86.6553	6,726.56	83.5269	6,726.56	85.613	6,726.56	80.0166	6,726.56	82.6644	6,726.56	76.0637	6,726.56	78.2501	6,726.56	71.6611	6,726.56	75.0236	6,726.56	68.6837	6,726.56	72.7837	6,726.56	68.4421	6,726.56	69.4016	6,726.56	67.5271	6,726.56	66.585	6,726.56	69.2688	6,726.56	68.8449	6,726.56	69.8064	6,726.56	70.2086	6,726.56	60.7014	6,726.56	69.7297	6,726.56	65.3291	6,726.56	58.7358	6,726.56	63.0084
6,963.87	87.4883	6,963.87	89.3128	6,963.87	88.3115	6,963.87	88.7276	6,963.87	88.5297	6,963.87	89.0204	6,963.87	89.2956	6,963.87	86.7901	6,963.87	87.778	6,963.87	86.2495	6,963.87	86.3419	6,963.87	84.8775	6,963.87	85.914	6,963.87	82.3819	6,963.87	84.5389	6,963.87	79.5597	6,963.87	81.4871	6,963.87	75.6958	6,963.87	77.6065	6,963.87	72.1255	6,963.87	74.8524	6,963.87	69.3491	6,963.87	70.3757	6,963.87	67.0547	6,963.87	68.4209	6,963.87	66.7208	6,963.87	65.0354	6,963.87	69.3393	6,963.87	67.7863	6,963.87	69.7396	6,963.87	69.4928	6,963.87	63.0515	6,963.87	66.2411	6,963.87	65.4264	6,963.87	50.8468	6,963.87	54.9873
7,209.96	88.3907	7,209.96	88.9961	7,209.96	89.16	7,209.96	89.5247	7,209.96	89.1449	7,209.96	89.5379	7,209.96	89.3919	7,209.96	87.602	7,209.96	88.807	7,209.96	86.6821	7,209.96	86.9384	7,209.96	85.7409	7,209.96	86.4836	7,209.96	83.7511	7,209.96	85.075	7,209.96	80.2739	7,209.96	81.7092	7,209.96	76.2495	7,209.96	77.9306	7,209.96	72.45	7,209.96	74.525	7,209.96	69.6282	7,209.96	70.6115	7,209.96	64.6414	7,209.96	67.9844	7,209.96	66.6208	7,209.96	66.1414	7,209.96	68.9599	7,209.96	68.8147	7,209.96	69.1377	7,209.96	70.0084	7,209.96	56.3965	7,209.96	68.029	7,209.96	65.1471	7,209.96	57.2553	7,209.96	59.7614
7,464.84	87.6521	7,464.84	88.5647	7,464.84	87.6061	7,464.84	88.6357	7,464.84	88.5526	7,464.84	88.8633	7,464.84	88.8558	7,464.84	87.1386	7,464.84	88.1607	7,464.84	85.7056	7,464.84	86.5777	7,464.84	84.685	7,464.84	85.2854	7,464.84	82.4439	7,464.84	84.1332	7,464.84	78.6244	7,464.84	80.6632	7,464.84	74.7814	7,464.84	76.8265	7,464.84	71.6935	7,464.84	72.9309	7,464.84	68.5278	7,464.84	69.1223	7,464.84	64.1161	7,464.84	66.92	7,464.84	65.0455	7,464.84	64.5514	7,464.84	67.6367	7,464.84	66.0277	7,464.84	68.4509	7,464.84	68.8319	7,464.84	53.2954	7,464.84	67.8455	7,464.84	64.8618	7,464.84	59.0168	7,464.84	58.5106
7,727.05	88.6577	7,727.05	88.8697	7,727.05	88.5978	7,727.05	89.1081	7,727.05	89.2243	7,727.05	89.0443	7,727.05	88.4932	7,727.05	87.0952	7,727.05	88.674	7,727.05	85.5245	7,727.05	86.4453	7,727.05	84.6681	7,727.05	85.1101	7,727.05	82.249	7,727.05	83.8744	7,727.05	78.4884	7,727.05	80.7608	7,727.05	74.4301	7,727.05	76.3849	7,727.05	70.5441	7,727.05	72.8857	7,727.05	67.6128	7,727.05	68.2144	7,727.05	63.3539	7,727.05	65.6761	7,727.05	64.4934	7,727.05	64.5506	7,727.05	67.1491	7,727.05	66.2008	7,727.05	66.8331	7,727.05	68.5121	7,727.05	55.9018	7,727.05	67.6241	7,727.05	64.0513	7,727.05	52.863	7,727.05	59.0825
7,999.51	89.9577	7,999.51	89.6794	7,999.51	89.5349	7,999.51	88.8533	7,999.51	89.7819	7,999.51	88.2596	7,999.51	88.3083	7,999.51	86.7887	7,999.51	88.0496	7,999.51	85.0894	7,999.51	85.5722	7,999.51	84.1522	7,999.51	84.8035	7,999.51	81.4331	7,999.51	83.1837	7,999.51	77.9674	7,999.51	80.0918	7,999.51	73.6517	7,999.51	75.8191	7,999.51	70.1824	7,999.51	72.3371	7,999.51	65.6163	7,999.51	67.0293	7,999.51	62.578	7,999.51	65.6511	7,999.51	63.9074	7,999.51	61.9855	7,999.51	67.8837	7,999.51	64.9093	7,999.51	66.0378	7,999.51	66.8485	7,999.51	55.7721	7,999.51	66.0858	7,999.51	65.6307	7,999.51	49.3772	7,999.51	60.0248
8,282.23	90.237	8,282.23	89.8664	8,282.23	89.7145	8,282.23	89.0061	8,282.23	89.63	8,282.23	88.4991	8,282.23	88.2034	8,282.23	87.0418	8,282.23	87.9044	8,282.23	85.5668	8,282.23	86.3418	8,282.23	83.8384	8,282.23	84.6263	8,282.23	81.2757	8,282.23	82.6997	8,282.23	77.1469	8,282.23	79.4977	8,282.23	72.9032	8,282.23	75.3344	8,282.23	69.4457	8,282.23	71.7479	8,282.23	64.2977	8,282.23	67.5028	8,282.23	62.7829	8,282.23	64.7201	8,282.23	61.7448	8,282.23	60.6821	8,282.23	66.3561	8,282.23	64.794	8,282.23	65.8459	8,282.23	66.7016	8,282.23	49.5428	8,282.23	65.8698	8,282.23	66.3395	8,282.23	55.1418	8,282.23	57.0172
8,573.73	89.9664	8,573.73	89.486	8,573.73	89.8536	8,573.73	88.8445	8,573.73	89.2668	8,573.73	88.2926	8,573.73	88.2762	8,573.73	87.2067	8,573.73	88.1579	8,573.73	85.2671	8,573.73	86.7335	8,573.73	83.039	8,573.73	84.1502	8,573.73	80.7061	8,573.73	82.4019	8,573.73	76.2338	8,573.73	79.2749	8,573.73	72.236	8,573.73	74.9059	8,573.73	68.0142	8,573.73	71.2277	8,573.73	64.0257	8,573.73	66.6936	8,573.73	60.7084	8,573.73	62.9024	8,573.73	60.2233	8,573.73	59.3899	8,573.73	65.5006	8,573.73	63.4464	8,573.73	66.4578	8,573.73	66.7706	8,573.73	40.6114	8,573.73	64.9138	8,573.73	65.1461	8,573.73	59.1526	8,573.73	56.6184
8,876.95	89.6817	8,876.95	89.0479	8,876.95	89.6686	8,876.95	88.938	8,876.95	88.83	8,876.95	88.4068	8,876.95	88.4455	8,876.95	87.321	8,876.95	88.0294	8,876.95	84.8546	8,876.95	86.2932	8,876.95	82.9136	8,876.95	83.423	8,876.95	80.0017	8,876.95	81.675	8,876.95	76.1404	8,876.95	78.4435	8,876.95	71.335	8,876.95	74.5433	8,876.95	68.5694	8,876.95	70.3323	8,876.95	62.766	8,876.95	66.6381	8,876.95	61.6685	8,876.95	64.0753	8,876.95	58.5437	8,876.95	58.0388	8,876.95	65.8501	8,876.95	63.774	8,876.95	66.5098	8,876.95	66.7812	8,876.95	45.1207	8,876.95	64.6804	8,876.95	64.6036	8,876.95	57.3862	8,876.95	55.6136
9,188.96	89.9791	9,188.96	89.3469	9,188.96	89.9213	9,188.96	89.5322	9,188.96	89.227	9,188.96	88.5215	9,188.96	89.0265	9,188.96	87.4608	9,188.96	88.2659	9,188.96	84.7201	9,188.96	86.1889	9,188.96	82.9734	9,188.96	83.8772	9,188.96	80.1756	9,188.96	81.919	9,188.96	76.0846	9,188.96	78.7779	9,188.96	71.9752	9,188.96	74.638	9,188.96	67.8874	9,188.96	70.981	9,188.96	64.4301	9,188.96	66.4189	9,188.96	59.8666	9,188.96	63.6113	9,188.96	53.3201	9,188.96	54.0163	9,188.96	64.4039	9,188.96	60.1278	9,188.96	65.5437	9,188.96	66.9281	9,188.96	46.1389	9,188.96	63.7786	9,188.96	63.5221	9,188.96	57.665	9,188.96	48.9663
9,514.16	89.9602	9,514.16	89.3592	9,514.16	89.9226	9,514.16	89.3928	9,514.16	89.0373	9,514.16	88.6703	9,514.16	88.9853	9,514.16	86.9376	9,514.16	87.9749	9,514.16	84.4375	9,514.16	85.7091	9,514.16	82.3925	9,514.16	83.7085	9,514.16	80.3669	9,514.16	81.5181	9,514.16	77.0316	9,514.16	79.2751	9,514.16	72.3991	9,514.16	75.1643	9,514.16	68.2498	9,514.16	70.7528	9,514.16	65.2125	9,514.16	66.9587	9,514.16	61.0301	9,514.16	62.7412	9,514.16	56.161	9,514.16	54.4901	9,514.16	63.5645	9,514.16	58.9311	9,514.16	65.9369	9,514.16	65.9789	9,514.16	49.1037	9,514.16	62.286	9,514.16	62.9895	9,514.16	55.42	9,514.16	43.7505
9,849.61	90.1242	9,849.61	89.3328	9,849.61	89.8298	9,849.61	89.3636	9,849.61	89.0322	9,849.61	89.0497	9,849.61	89.042	9,849.61	87.0767	9,849.61	87.9165	9,849.61	84.5383	9,849.61	85.5444	9,849.61	82.9151	9,849.61	82.9603	9,849.61	81.0967	9,849.61	81.6792	9,849.61	77.1301	9,849.61	78.7362	9,849.61	73.4052	9,849.61	75.12	9,849.61	68.7889	9,849.61	70.3118	9,849.61	65.1627	9,849.61	66.4197	9,849.61	61.8484	9,849.61	62.8979	9,849.61	57.4599	9,849.61	57.5119	9,849.61	64.1573	9,849.61	57.9175	9,849.61	66.0029	9,849.61	65.6736	9,849.61	48.1852	9,849.61	61.7392	9,849.61	61.3175	9,849.61	57.0827	9,849.61	50.2867
10,196.8	90.1039	10,196.8	89.5675	10,196.8	89.834	10,196.8	89.4084	10,196.8	89.2823	10,196.8	88.8751	10,196.8	89.4052	10,196.8	86.8808	10,196.8	87.5188	10,196.8	84.3413	10,196.8	85.4043	10,196.8	82.7744	10,196.8	82.542	10,196.8	80.7065	10,196.8	81.3864	10,196.8	76.9242	10,196.8	78.1001	10,196.8	72.5392	10,196.8	74.2326	10,196.8	68.5029	10,196.8	70.1337	10,196.8	64.4609	10,196.8	65.6008	10,196.8	60.3243	10,196.8	61.639	10,196.8	55.6539	10,196.8	58.4449	10,196.8	62.7072	10,196.8	55.5496	10,196.8	64.3855	10,196.8	64.1374	10,196.8	51.3109	10,196.8	60.3961	10,196.8	59.4988	10,196.8	58.3415	10,196.8	52.3085
10,555.7	89.8388	10,555.7	89.4101	10,555.7	89.3971	10,555.7	89.2549	10,555.7	89.0347	10,555.7	88.3321	10,555.7	89.1722	10,555.7	86.1296	10,555.7	86.7987	10,555.7	83.5172	10,555.7	85.106	10,555.7	82.4983	10,555.7	82.6914	10,555.7	80.6758	10,555.7	81.0201	10,555.7	76.6323	10,555.7	78.54	10,555.7	72.0356	10,555.7	74.0712	10,555.7	67.7955	10,555.7	69.8438	10,555.7	64.2198	10,555.7	65.6716	10,555.7	60.3748	10,555.7	60.6524	10,555.7	56.4889	10,555.7	56.241	10,555.7	61.2221	10,555.7	54.7682	10,555.7	62.8601	10,555.7	62.6726	10,555.7	49.8722	10,555.7	58.8348	10,555.7	55.8036	10,555.7	59.5607	10,555.7	50.7237
10,927.7	89.3307	10,927.7	89.103	10,927.7	88.9769	10,927.7	88.9849	10,927.7	88.6604	10,927.7	88.1113	10,927.7	88.8874	10,927.7	85.99	10,927.7	86.8117	10,927.7	83.66	10,927.7	85.1865	10,927.7	81.8044	10,927.7	82.5218	10,927.7	79.9887	10,927.7	80.9995	10,927.7	75.616	10,927.7	78.2997	10,927.7	71.299	10,927.7	72.7295	10,927.7	66.8068	10,927.7	67.6108	10,927.7	63.2784	10,927.7	65.5187	10,927.7	60.0106	10,927.7	59.5605	10,927.7	51.331	10,927.7	55.4891	10,927.7	60.4971	10,927.7	54.7934	10,927.7	61.4976	10,927.7	59.7651	10,927.7	50.9046	10,927.7	53.5415	10,927.7	58.744	10,927.7	60.3386	10,927.7	42.1788
11,313	89.2855	11,313	89.2799	11,313	89.1012	11,313	88.9037	11,313	89.2535	11,313	88.1528	11,313	88.5835	11,313	85.8649	11,313	86.8324	11,313	83.8506	11,313	85.4855	11,313	81.8931	11,313	81.9368	11,313	77.9353	11,313	80.5031	11,313	74.367	11,313	75.3658	11,313	69.7044	11,313	71.1489	11,313	63.513	11,313	67.3847	11,313	60.7314	11,313	63.9154	11,313	58.6047	11,313	57.6866	11,313	44.6877	11,313	54.583	11,313	58.8601	11,313	44.8794	11,313	60.1621	11,313	61.1071	11,313	52.6188	11,313	54.0365	11,313	59.0087	11,313	58.9852	11,313	43.916
11,712.9	89.5954	11,712.9	89.7064	11,712.9	89.6422	11,712.9	88.9067	11,712.9	89.3575	11,712.9	87.8077	11,712.9	88.2875	11,712.9	86.3284	11,712.9	86.6359	11,712.9	84.0444	11,712.9	85.7234	11,712.9	81.0382	11,712.9	82.6636	11,712.9	77.491	11,712.9	79.4067	11,712.9	72.84	11,712.9	75.1992	11,712.9	68.0296	11,712.9	71.0693	11,712.9	65.1964	11,712.9	65.9448	11,712.9	60.2438	11,712.9	63.9102	11,712.9	58.1934	11,712.9	57.722	11,712.9	45.9592	11,712.9	55.1137	11,712.9	56.6112	11,712.9	45.6238	11,712.9	58.9545	11,712.9	61.0485	11,712.9	50.216	11,712.9	52.6574	11,712.9	55.9852	11,712.9	54.8245	11,712.9	46.9105
12,126	90.1262	12,126	90.0251	12,126	90.106	12,126	88.8121	12,126	89.5144	12,126	87.8002	12,126	88.1476	12,126	86.6749	12,126	86.9093	12,126	84.1264	12,126	85.83	12,126	80.1188	12,126	81.7197	12,126	75.9994	12,126	78.857	12,126	72.8569	12,126	75.4023	12,126	68.1314	12,126	70.7489	12,126	62.4792	12,126	66.5783	12,126	59.3586	12,126	63.783	12,126	58.6657	12,126	61.6198	12,126	47.1763	12,126	57.3606	12,126	56.1092	12,126	43.3123	12,126	58.2859	12,126	57.7431	12,126	47.0042	12,126	53.1706	12,126	56.9277	12,126	57.7656	12,126	44.0752
12,553.7	90.2753	12,553.7	90.3526	12,553.7	90.5347	12,553.7	88.5627	12,553.7	89.274	12,553.7	87.6704	12,553.7	87.6791	12,553.7	86.9195	12,553.7	87.1254	12,553.7	83.8232	12,553.7	85.657	12,553.7	79.4534	12,553.7	80.5081	12,553.7	77.2309	12,553.7	79.2427	12,553.7	73.822	12,553.7	76.3369	12,553.7	69.8277	12,553.7	71.8524	12,553.7	64.9899	12,553.7	67.6822	12,553.7	62.2375	12,553.7	65.7148	12,553.7	61.1742	12,553.7	61.7622	12,553.7	50.1456	12,553.7	60.9467	12,553.7	55.8899	12,553.7	54.4756	12,553.7	58.2892	12,553.7	56.7164	12,553.7	54.5229	12,553.7	52.5611	12,553.7	56.1927	12,553.7	56.247	12,553.7	53.1613
12,996.1	90.5229	12,996.1	90.4677	12,996.1	90.6435	12,996.1	88.4375	12,996.1	89.2486	12,996.1	87.7808	12,996.1	87.5946	12,996.1	86.8532	12,996.1	87.1997	12,996.1	82.9604	12,996.1	85.4261	12,996.1	79.6527	12,996.1	80.5233	12,996.1	78.0351	12,996.1	79.7878	12,996.1	74.6716	12,996.1	77.238	12,996.1	69.6084	12,996.1	72.8782	12,996.1	64.5004	12,996.1	67.7705	12,996.1	61.1159	12,996.1	64.6842	12,996.1	59.4072	12,996.1	62.3101	12,996.1	54.2584	12,996.1	59.4958	12,996.1	52.8535	12,996.1	48.0996	12,996.1	57.3995	12,996.1	55.2729	12,996.1	52.8247	12,996.1	52.3146	12,996.1	54.9339	12,996.1	56.3391	12,996.1	46.051
13,454.6	90.5604	13,454.6	90.0844	13,454.6	90.4564	13,454.6	88.0648	13,454.6	88.9462	13,454.6	87.503	13,454.6	87.776	13,454.6	86.5454	13,454.6	86.8198	13,454.6	82.7162	13,454.6	84.3386	13,454.6	79.731	13,454.6	80.7742	13,454.6	78.555	13,454.6	80.1609	13,454.6	74.4853	13,454.6	76.6878	13,454.6	69.161	13,454.6	72.457	13,454.6	63.6674	13,454.6	65.7783	13,454.6	59.6041	13,454.6	63.1378	13,454.6	59.7809	13,454.6	61.5295	13,454.6	52.131	13,454.6	56.1453	13,454.6	52.2289	13,454.6	45.1651	13,454.6	53.0035	13,454.6	54.8533	13,454.6	52.127	13,454.6	51.4983	13,454.6	52.5024	13,454.6	49.0466	13,454.6	52.7262
13,929.2	90.6319	13,929.2	89.6721	13,929.2	90.4549	13,929.2	87.9467	13,929.2	88.3865	13,929.2	87.5605	13,929.2	87.7233	13,929.2	85.6035	13,929.2	86.5039	13,929.2	82.788	13,929.2	84.0206	13,929.2	80.2079	13,929.2	81.0601	13,929.2	77.6504	13,929.2	79.6641	13,929.2	72.5533	13,929.2	75.2358	13,929.2	67.7422	13,929.2	70.0797	13,929.2	61.8197	13,929.2	64.7679	13,929.2	60.2656	13,929.2	60.5888	13,929.2	55.2387	13,929.2	59.6801	13,929.2	45.2638	13,929.2	54.7989	13,929.2	52.2823	13,929.2	41.7238	13,929.2	50.6185	13,929.2	52.9655	13,929.2	48.6895	13,929.2	51.3617	13,929.2	50.2124	13,929.2	51.2558	13,929.2	50.5545
14,419.9	90.7584	14,419.9	89.4187	14,419.9	90.2638	14,419.9	88.3392	14,419.9	88.6169	14,419.9	87.6849	14,419.9	87.9334	14,419.9	84.9849	14,419.9	86.1981	14,419.9	83.7438	14,419.9	84.4103	14,419.9	80.4087	14,419.9	82.1604	14,419.9	76.7252	14,419.9	79.0721	14,419.9	71.1311	14,419.9	73.9909	14,419.9	67.5419	14,419.9	69.8882	14,419.9	61.1334	14,419.9	64.5915	14,419.9	58.544	14,419.9	60.7144	14,419.9	55.7489	14,419.9	58.4773	14,419.9	45.5339	14,419.9	50.7226	14,419.9	50.7797	14,419.9	40.8423	14,419.9	52.3076	14,419.9	51.4071	14,419.9	45.0333	14,419.9	52.3271	14,419.9	51.8052	14,419.9	39.2116	14,419.9	52.4241
14,928.2	90.9927	14,928.2	89.5152	14,928.2	90.4452	14,928.2	88.5866	14,928.2	89.2169	14,928.2	87.3727	14,928.2	88.2394	14,928.2	85.1818	14,928.2	85.9127	14,928.2	84.0348	14,928.2	85.1227	14,928.2	79.7162	14,928.2	82.1744	14,928.2	76.7919	14,928.2	78.4196	14,928.2	72.1017	14,928.2	75.1954	14,928.2	67.8191	14,928.2	71.8143	14,928.2	61.9013	14,928.2	65.637	14,928.2	60.2311	14,928.2	61.8006	14,928.2	53.034	14,928.2	60.6542	14,928.2	41.6121	14,928.2	55.1289	14,928.2	51.6316	14,928.2	49.6072	14,928.2	49.8366	14,928.2	40.0986	14,928.2	53.3469	14,928.2	57.0199	14,928.2	45.7677	14,928.2	51.1213	14,928.2	53.0694
15,455.6	91.0947	15,455.6	89.7834	15,455.6	90.6869	15,455.6	88.7975	15,455.6	89.5721	15,455.6	86.7975	15,455.6	88.0947	15,455.6	85.3691	15,455.6	85.9074	15,455.6	83.9033	15,455.6	85.6029	15,455.6	79.3816	15,455.6	81.1597	15,455.6	77.3746	15,455.6	78.4893	15,455.6	73.2658	15,455.6	76.7377	15,455.6	69.1946	15,455.6	72.8949	15,455.6	63.0629	15,455.6	66.2813	15,455.6	61.736	15,455.6	62.083	15,455.6	52.2076	15,455.6	60.5964	15,455.6	41.5505	15,455.6	58.0112	15,455.6	46.1031	15,455.6	50.3832	15,455.6	50.0435	15,455.6	43.6119	15,455.6	55.0037	15,455.6	54.5369	15,455.6	50.1253	15,455.6	48.4614	15,455.6	42.1754
16,000.5	90.813	16,000.5	89.6738	16,000.5	90.5603	16,000.5	88.6845	16,000.5	89.4509	16,000.5	86.2762	16,000.5	87.4469	16,000.5	85.4864	16,000.5	85.5429	16,000.5	83.3169	16,000.5	85.0317	16,000.5	78.9829	16,000.5	80.7451	16,000.5	78.0114	16,000.5	78.8694	16,000.5	73.4106	16,000.5	76.4652	16,000.5	68.7661	16,000.5	71.8016	16,000.5	63.0559	16,000.5	65.8004	16,000.5	60.4508	16,000.5	62.0725	16,000.5	50.6384	16,000.5	59.6225	16,000.5	38.5023	16,000.5	60.8558	16,000.5	45.9825	16,000.5	51.1596	16,000.5	47.675	16,000.5	50.1712	16,000.5	51.27	16,000.5	50.3872	16,000.5	43.8855	16,000.5	45.0547	16,000.5	35.0207
16,564.5	90.1353	16,564.5	89.3954	16,564.5	90.1915	16,564.5	88.0631	16,564.5	89.0728	16,564.5	85.1884	16,564.5	86.5397	16,564.5	84.6981	16,564.5	85.1786	16,564.5	82.1311	16,564.5	83.798	16,564.5	78.8266	16,564.5	80.0152	16,564.5	77.4541	16,564.5	78.0082	16,564.5	72.9617	16,564.5	75.2461	16,564.5	68.1905	16,564.5	69.8433	16,564.5	62.7519	16,564.5	65.3395	16,564.5	60.4193	16,564.5	60.4193	16,564.5	50.8904	16,564.5	59.2582	16,564.5	32.6004	16,564.5	56.226	16,564.5	42.9413	16,564.5	38.984	16,564.5	47.5275	16,564.5	48.1753	16,564.5	50.0212	16,564.5	50.6686	16,564.5	47.3499	16,564.5	41.8759	16,564.5	44.1787
17,148.9	89.4177	17,148.9	89.2221	17,148.9	89.9239	17,148.9	87.2029	17,148.9	88.603	17,148.9	84.3753	17,148.9	85.4307	17,148.9	83.2975	17,148.9	84.2526	17,148.9	81.1327	17,148.9	82.0164	17,148.9	77.9326	17,148.9	79.254	17,148.9	76.2759	17,148.9	76.5166	17,148.9	70.612	17,148.9	73.3397	17,148.9	66.2307	17,148.9	68.1314	17,148.9	61.0856	17,148.9	63.5899	17,148.9	57.4172	17,148.9	58.7695	17,148.9	44.4637	17,148.9	58.181	17,148.9	35.5784	17,148.9	43.698	17,148.9	40.3217	17,148.9	43.0407	17,148.9	44.1202	17,148.9	48.7439	17,148.9	48.7313	17,148.9	49.1391	17,148.9	46.9417	17,148.9	39.9849	17,148.9	45.9984
17,752.4	89.3347	17,752.4	89.071	17,752.4	89.7851	17,752.4	86.6801	17,752.4	88.3965	17,752.4	84.0563	17,752.4	85.1993	17,752.4	81.7798	17,752.4	83.1751	17,752.4	80.1464	17,752.4	80.79	17,752.4	76.6579	17,752.4	78.2736	17,752.4	74.2196	17,752.4	74.6964	17,752.4	69.3131	17,752.4	71.4925	17,752.4	64.8449	17,752.4	67.3472	17,752.4	60.3542	17,752.4	62.3747	17,752.4	57.1529	17,752.4	56.4379	17,752.4	37.4273	17,752.4	56.2682	17,752.4	42.1992	17,752.4	55.0985	17,752.4	26.121	17,752.4	44.1143	17,752.4	39.1589	17,752.4	49.9727	17,752.4	39.4663	17,752.4	46.2727	17,752.4	44.7771	17,752.4	36.5187	17,752.4	45.0896
18,379.4	89.4941	18,379.4	88.9219	18,379.4	89.8	18,379.4	86.3138	18,379.4	88.1385	18,379.4	83.4634	18,379.4	85.2271	18,379.4	80.2946	18,379.4	81.8303	18,379.4	78.9273	18,379.4	79.8094	18,379.4	74.682	18,379.4	76.6147	18,379.4	73.0918	18,379.4	72.8568	18,379.4	68.1551	18,379.4	71.3578	18,379.4	65.2942	18,379.4	67.212	18,379.4	59.6608	18,379.4	60.8941	18,379.4	56.2119	18,379.4	54.7026	18,379.4	49.1287	18,379.4	54.6561	18,379.4	35.8773	18,379.4	54.9096	18,379.4	38.9191	18,379.4	43.2383	18,379.4	39.8267	18,379.4	51.3853	18,379.4	41.954	18,379.4	43.8967	18,379.4	44.7981	18,379.4	41.1586	18,379.4	44.1256
19,026.9	89.5284	19,026.9	88.5975	19,026.9	89.4221	19,026.9	85.9602	19,026.9	87.7769	19,026.9	82.3746	19,026.9	84.379	19,026.9	78.2297	19,026.9	80.1135	19,026.9	76.5247	19,026.9	78.0396	19,026.9	71.7095	19,026.9	74.0892	19,026.9	71.267	19,026.9	71.5666	19,026.9	67.3581	19,026.9	70.4562	19,026.9	63.1662	19,026.9	65.2007	19,026.9	57.4802	19,026.9	57.7851	19,026.9	53.3612	19,026.9	54.4218	19,026.9	50.9827	19,026.9	51.6593	19,026.9	40.2012	19,026.9	54.6604	19,026.9	37.6158	19,026.9	47.4527	19,026.9	41.0778	19,026.9	42.1734	19,026.9	45.8404	19,026.9	43.3271	19,026.9	42.4132	19,026.9	45.0719	19,026.9	36.8512
19,697.8	89.0804	19,697.8	87.7453	19,697.8	88.7666	19,697.8	84.9042	19,697.8	86.6207	19,697.8	80.1014	19,697.8	83.1369	19,697.8	76.5004	19,697.8	78.3353	19,697.8	73.0451	19,697.8	75.463	19,697.8	69.5031	19,697.8	72.5728	19,697.8	69.4961	19,697.8	70.3563	19,697.8	65.4359	19,697.8	68.4846	19,697.8	60.2867	19,697.8	63.3491	19,697.8	58.7171	19,697.8	56.883	19,697.8	51.5548	19,697.8	56.4445	19,697.8	52.4855	19,697.8	53.7378	19,697.8	43.4999	19,697.8	52.2011	19,697.8	41.7174	19,697.8	46.5108	19,697.8	37.0019	19,697.8	39.8819	19,697.8	47.2942	19,697.8	40.393	19,697.8	32.4836	19,697.8	46.3032	19,697.8	33.9068
19,999.5	88.7235	19,999.5	86.7972	19,999.5	88.7764	19,999.5	85.0484	19,999.5	85.185	19,999.5	79.4626	19,999.5	82.1544	19,999.5	75.9971	19,999.5	78.1441	19,999.5	72.2352	19,999.5	74.7994	19,999.5	65.8586	19,999.5	72.0783	19,999.5	65.8231	19,999.5	70.2705	19,999.5	63.9697	19,999.5	67.8023	19,999.5	61.2462	19,999.5	65.4224	19,999.5	62.6541	19,999.5	56.7676	19,999.5	54.0196	19,999.5	55.9991	19,999.5	43.8676	19,999.5	50.8132	19,999.5	50.8584	19,999.5	58.9146	19,999.5	45.9946	19,999.5	59.7322	19,999.5	47.9467	19,999.5	52.3266	19,999.5	41.5441	19,999.5	47.9332	19,999.5	42.8643	19,999.5	54.4118	19,999.5	52.4658
