"SPL Vertical"
"On-Axis"		"10°"		"-10°"		"20°"		"-20°"		"30°"		"-30°"		"40°"		"-40°"		"50°"		"-50°"		"60°"		"-60°"		"70°"		"-70°"		"80°"		"-80°"		"90°"		"-90°"		"100°"		"-100°"		"110°"		"-110°"		"120°"		"-120°"		"130°"		"-130°"		"140°"		"-140°"		"150°"		"-150°"		"160°"		"-160°"		"170°"		"-170°"		"180°"
"Frequency [Hz]"	"Sound Pessure Level [dB]  / [2.83V 1m] "	"Frequency [Hz]"	"Sound Pessure Level [dB]  / [2.83V 1m] "	"Frequency [Hz]"	"Sound Pessure Level [dB]  / [2.83V 1m] "	"Frequency [Hz]"	"Sound Pessure Level [dB]  / [2.83V 1m] "	"Frequency [Hz]"	"Sound Pessure Level [dB]  / [2.83V 1m] "	"Frequency [Hz]"	"Sound Pessure Level [dB]  / [2.83V 1m] "	"Frequency [Hz]"	"Sound Pessure Level [dB]  / [2.83V 1m] "	"Frequency [Hz]"	"Sound Pessure Level [dB]  / [2.83V 1m] "	"Frequency [Hz]"	"Sound Pessure Level [dB]  / [2.83V 1m] "	"Frequency [Hz]"	"Sound Pessure Level [dB]  / [2.83V 1m] "	"Frequency [Hz]"	"Sound Pessure Level [dB]  / [2.83V 1m] "	"Frequency [Hz]"	"Sound Pessure Level [dB]  / [2.83V 1m] "	"Frequency [Hz]"	"Sound Pessure Level [dB]  / [2.83V 1m] "	"Frequency [Hz]"	"Sound Pessure Level [dB]  / [2.83V 1m] "	"Frequency [Hz]"	"Sound Pessure Level [dB]  / [2.83V 1m] "	"Frequency [Hz]"	"Sound Pessure Level [dB]  / [2.83V 1m] "	"Frequency [Hz]"	"Sound Pessure Level [dB]  / [2.83V 1m] "	"Frequency [Hz]"	"Sound Pessure Level [dB]  / [2.83V 1m] "	"Frequency [Hz]"	"Sound Pessure Level [dB]  / [2.83V 1m] "	"Frequency [Hz]"	"Sound Pessure Level [dB]  / [2.83V 1m] "	"Frequency [Hz]"	"Sound Pessure Level [dB]  / [2.83V 1m] "	"Frequency [Hz]"	"Sound Pessure Level [dB]  / [2.83V 1m] "	"Frequency [Hz]"	"Sound Pessure Level [dB]  / [2.83V 1m] "	"Frequency [Hz]"	"Sound Pessure Level [dB]  / [2.83V 1m] "	"Frequency [Hz]"	"Sound Pessure Level [dB]  / [2.83V 1m] "	"Frequency [Hz]"	"Sound Pessure Level [dB]  / [2.83V 1m] "	"Frequency [Hz]"	"Sound Pessure Level [dB]  / [2.83V 1m] "	"Frequency [Hz]"	"Sound Pessure Level [dB]  / [2.83V 1m] "	"Frequency [Hz]"	"Sound Pessure Level [dB]  / [2.83V 1m] "	"Frequency [Hz]"	"Sound Pessure Level [dB]  / [2.83V 1m] "	"Frequency [Hz]"	"Sound Pessure Level [dB]  / [2.83V 1m] "	"Frequency [Hz]"	"Sound Pessure Level [dB]  / [2.83V 1m] "	"Frequency [Hz]"	"Sound Pessure Level [dB]  / [2.83V 1m] "	"Frequency [Hz]"	"Sound Pessure Level [dB]  / [2.83V 1m] "	"Frequency [Hz]"	"Sound Pessure Level [dB]  / [2.83V 1m] "	"Frequency [Hz]"	"Sound Pessure Level [dB]  / [2.83V 1m] "
20.5078	59.7016	20.5078	59.5868	20.5078	59.635	20.5078	59.3314	20.5078	59.33	20.5078	58.9628	20.5078	58.7085	20.5078	58.4971	20.5078	57.6643	20.5078	57.9417	20.5078	56.0555	20.5078	57.2957	20.5078	53.7403	20.5078	56.5512	20.5078	50.9859	20.5078	55.693	20.5078	50.0732	20.5078	54.6982	20.5078	52.3824	20.5078	53.536	20.5078	55.0104	20.5078	52.173	20.5078	56.8749	20.5078	50.6005	20.5078	57.9937	20.5078	48.9427	20.5078	58.4901	20.5078	47.7439	20.5078	58.4578	20.5078	47.9824	20.5078	57.9593	20.5078	49.7117	20.5078	57.0341	20.5078	51.9274	20.5078	55.7053	20.5078	53.9889
21.9727	55.0164	21.9727	55.2108	21.9727	54.6979	21.9727	55.2524	21.9727	54.4086	21.9727	55.1647	21.9727	54.5341	21.9727	55.0003	21.9727	55.5608	21.9727	54.8407	21.9727	57.4998	21.9727	54.7965	21.9727	59.8339	21.9727	54.99	21.9727	62.1041	21.9727	55.5079	21.9727	64.0967	21.9727	56.3537	21.9727	65.741	21.9727	57.4511	21.9727	67.0236	21.9727	58.6942	21.9727	67.954	21.9727	59.9923	21.9727	68.5515	21.9727	61.2844	21.9727	68.8416	21.9727	62.5342	21.9727	68.8534	21.9727	63.7208	21.9727	68.6187	21.9727	64.8295	21.9727	68.1702	21.9727	65.8469	21.9727	67.54	21.9727	66.7572
23.4375	62.0983	23.4375	62.0069	23.4375	62.1954	23.4375	61.8977	23.4375	62.3494	23.4375	61.7668	23.4375	62.646	23.4375	61.6238	23.4375	63.1899	23.4375	61.4894	23.4375	64.0498	23.4375	61.3939	23.4375	65.1958	23.4375	61.3752	23.4375	66.5004	23.4375	61.4738	23.4375	67.8052	23.4375	61.7247	23.4375	68.9808	23.4375	62.1477	23.4375	69.9444	23.4375	62.7409	23.4375	70.6534	23.4375	63.4821	23.4375	71.0932	23.4375	64.3358	23.4375	71.2678	23.4375	65.2623	23.4375	71.194	23.4375	66.2233	23.4375	70.8971	23.4375	67.1846	23.4375	70.4074	23.4375	68.1147	23.4375	69.7581	23.4375	68.983
24.9023	66.396	24.9023	66.2	24.9023	66.6378	24.9023	66.0291	24.9023	66.9587	24.9023	65.8739	24.9023	67.3998	24.9023	65.7349	24.9023	67.9983	24.9023	65.6208	24.9023	68.7661	24.9023	65.5473	24.9023	69.6733	24.9023	65.5351	24.9023	70.6509	24.9023	65.6077	24.9023	71.6117	24.9023	65.787	24.9023	72.4737	24.9023	66.089	24.9023	73.1748	24.9023	66.5195	24.9023	73.6756	24.9023	67.0724	24.9023	73.9576	24.9023	67.7313	24.9023	74.0192	24.9023	68.4723	24.9023	73.8718	24.9023	69.268	24.9023	73.5365	24.9023	70.0898	24.9023	73.0407	24.9023	70.9084	24.9023	72.4157	24.9023	71.6941
26.3672	69.5057	26.3672	69.2955	26.3672	69.7766	26.3672	69.1296	26.3672	70.1315	26.3672	68.9996	26.3672	70.5959	26.3672	68.904	26.3672	71.1889	26.3672	68.8478	26.3672	71.9117	26.3672	68.8408	26.3672	72.7383	26.3672	68.8959	26.3672	73.6168	26.3672	69.027	26.3672	74.4807	26.3672	69.2467	26.3672	75.2637	26.3672	69.564	26.3672	75.9109	26.3672	69.9815	26.3672	76.3845	26.3672	70.4953	26.3672	76.6633	26.3672	71.0947	26.3672	76.7421	26.3672	71.7635	26.3672	76.628	26.3672	72.4811	26.3672	76.3382	26.3672	73.2241	26.3672	75.8971	26.3672	73.9665	26.3672	75.3339	26.3672	74.6798
27.832	73.6206	27.832	73.3383	27.832	73.9591	27.832	73.1055	27.832	74.3608	27.832	72.9174	27.832	74.8314	27.832	72.7717	27.832	75.3716	27.832	72.669	27.832	75.9731	27.832	72.6123	27.832	76.6156	27.832	72.6073	27.832	77.266	27.832	72.6611	27.832	77.8823	27.832	72.7813	27.832	78.4206	27.832	72.9752	27.832	78.8421	27.832	73.2478	27.832	79.1177	27.832	73.6012	27.832	79.2313	27.832	74.0335	27.832	79.1791	27.832	74.5382	27.832	78.9692	27.832	75.1041	27.832	78.6189	27.832	75.7153	27.832	78.1526	27.832	76.3516	27.832	77.599	27.832	76.9887
29.2969	75.8214	29.2969	75.5944	29.2969	76.0934	29.2969	75.4072	29.2969	76.4174	29.2969	75.2563	29.2969	76.8004	29.2969	75.1403	29.2969	77.2467	29.2969	75.0599	29.2969	77.7534	29.2969	75.0176	29.2969	78.3062	29.2969	75.0172	29.2969	78.8772	29.2969	75.0639	29.2969	79.428	29.2969	75.1633	29.2969	79.9159	29.2969	75.3208	29.2969	80.302	29.2969	75.541	29.2969	80.5567	29.2969	75.8268	29.2969	80.663	29.2969	76.1782	29.2969	80.6173	29.2969	76.5921	29.2969	80.4276	29.2969	77.0615	29.2969	80.1116	29.2969	77.5753	29.2969	79.694	29.2969	78.1177	29.2969	79.2032	29.2969	78.6685
30.7617	77.8834	30.7617	77.5784	30.7617	78.2394	30.7617	77.3195	30.7617	78.65	30.7617	77.1023	30.7617	79.1156	30.7617	76.9238	30.7617	79.6303	30.7617	76.7828	30.7617	80.1799	30.7617	76.6804	30.7617	80.7408	30.7617	76.6195	30.7617	81.2818	30.7617	76.6048	30.7617	81.7673	30.7617	76.6421	30.7617	82.1625	30.7617	76.7381	30.7617	82.438	30.7617	76.8997	30.7617	82.573	30.7617	77.1328	30.7617	82.5575	30.7617	77.4414	30.7617	82.3923	30.7617	77.8264	30.7617	82.0887	30.7617	78.2844	30.7617	81.6669	30.7617	78.8065	30.7617	81.1537	30.7617	79.3781	30.7617	80.5801	30.7617	79.9781
32.2266	78.1537	32.2266	77.8551	32.2266	78.4999	32.2266	77.6026	32.2266	78.8937	32.2266	77.3944	32.2266	79.3321	32.2266	77.229	32.2266	79.8077	32.2266	77.1059	32.2266	80.3074	32.2266	77.0258	32.2266	80.8113	32.2266	76.9909	32.2266	81.2939	32.2266	77.004	32.2266	81.7258	32.2266	77.0692	32.2266	82.078	32.2266	77.1904	32.2266	82.3254	32.2266	77.3715	32.2266	82.4498	32.2266	77.6152	32.2266	82.4424	32.2266	77.9221	32.2266	82.3041	32.2266	78.2906	32.2266	82.045	32.2266	78.7156	32.2266	81.6829	32.2266	79.1884	32.2266	81.2411	32.2266	79.6964	32.2266	80.7455	32.2266	80.2224
33.6914	79.2404	33.6914	78.9353	33.6914	79.5913	33.6914	78.6758	33.6914	79.9861	33.6914	78.4608	33.6914	80.4199	33.6914	78.2892	33.6914	80.8836	33.6914	78.1603	33.6914	81.3628	33.6914	78.0741	33.6914	81.8373	33.6914	78.0316	33.6914	82.2824	33.6914	78.0346	33.6914	82.6711	33.6914	78.0858	33.6914	82.9767	33.6914	78.1881	33.6914	83.1772	33.6914	78.3446	33.6914	83.2573	33.6914	78.5578	33.6914	83.2106	33.6914	78.8292	33.6914	83.0401	33.6914	79.1584	33.6914	82.7576	33.6914	79.5428	33.6914	82.3821	33.6914	79.9763	33.6914	81.9378	33.6914	80.4491	33.6914	81.4508	33.6914	80.9469
35.1562	79.6047	35.1562	79.2994	35.1562	79.953	35.1562	79.0381	35.1562	80.3414	35.1562	78.8205	35.1562	80.7636	35.1562	78.646	35.1562	81.2098	35.1562	78.5138	35.1562	81.665	35.1562	78.4239	35.1562	82.1097	35.1562	78.3767	35.1562	82.5205	35.1562	78.3734	35.1562	82.8721	35.1562	78.4158	35.1562	83.1405	35.1562	78.5062	35.1562	83.3059	35.1562	78.6469	35.1562	83.3554	35.1562	78.8401	35.1562	83.2843	35.1562	79.0871	35.1562	83.0971	35.1562	79.3881	35.1562	82.8067	35.1562	79.7413	35.1562	82.4325	35.1562	80.1421	35.1562	81.9983	35.1562	80.5826	35.1562	81.5296	35.1562	81.0507
36.6211	79.9996	36.6211	79.6927	36.6211	80.3471	36.6211	79.4282	36.6211	80.7314	36.6211	79.2062	36.6211	81.1454	36.6211	79.0265	36.6211	81.5783	36.6211	78.8883	36.6211	82.0149	36.6211	78.7915	36.6211	82.4357	36.6211	78.7361	36.6211	82.8178	36.6211	78.723	36.6211	83.1374	36.6211	78.7534	36.6211	83.372	36.6211	78.8291	36.6211	83.5039	36.6211	78.9522	36.6211	83.5221	36.6211	79.1245	36.6211	83.4239	36.6211	79.3477	36.6211	83.2155	36.6211	79.6224	36.6211	82.911	36.6211	79.9477	36.6211	82.5309	36.6211	80.3205	36.6211	82.0992	36.6211	80.7345	36.6211	81.6411	36.6211	81.1797
38.0859	80.3246	38.0859	80.0167	38.0859	80.672	38.0859	79.7503	38.0859	81.0543	38.0859	79.5261	38.0859	81.4638	38.0859	79.3438	38.0859	81.8892	38.0859	79.203	38.0859	82.3147	38.0859	79.1031	38.0859	82.7205	38.0859	79.0439	38.0859	83.0841	38.0859	79.026	38.0859	83.3822	38.0859	79.0502	38.0859	83.5936	38.0859	79.1177	38.0859	83.7018	38.0859	79.2303	38.0859	83.6975	38.0859	79.3897	38.0859	83.5797	38.0859	79.5975	38.0859	83.356	38.0859	79.8544	38.0859	83.0418	38.0859	80.1602	38.0859	82.6582	38.0859	80.5126	38.0859	82.2298	38.0859	80.9068	38.0859	81.7809	38.0859	81.3339
39.5508	81.7368	39.5508	81.3964	39.5508	82.1239	39.5508	81.1038	39.5508	82.555	39.5508	80.859	39.5508	83.0239	39.5508	80.6614	39.5508	83.5202	39.5508	80.5101	39.5508	84.0272	39.5508	80.4043	39.5508	84.5212	39.5508	80.3435	39.5508	84.9731	39.5508	80.3273	39.5508	85.3506	39.5508	80.356	39.5508	85.6235	39.5508	80.4305	39.5508	85.7677	39.5508	80.5524	39.5508	85.7692	39.5508	80.7238	39.5508	85.6261	39.5508	80.9472	39.5508	85.3487	39.5508	81.2253	39.5508	84.9585	39.5508	81.5603	39.5508	84.485	39.5508	81.9526	39.5508	83.9618	39.5508	82.3996	39.5508	83.422	39.5508	82.8941
41.0156	81.9649	41.0156	81.6191	41.0156	82.3569	41.0156	81.3215	41.0156	82.7911	41.0156	81.0726	41.0156	83.2604	41.0156	80.872	41.0156	83.7535	41.0156	80.7188	41.0156	84.2534	41.0156	80.6118	41.0156	84.7366	41.0156	80.5498	41.0156	85.1748	41.0156	80.5321	41.0156	85.5369	41.0156	80.5583	41.0156	85.7938	41.0156	80.6286	41.0156	85.9225	41.0156	80.744	41.0156	85.9097	41.0156	80.9066	41.0156	85.7541	41.0156	81.1188	41.0156	85.4665	41.0156	81.384	41.0156	85.0684	41.0156	81.705	41.0156	84.5898	41.0156	82.0836	41.0156	84.0647	41.0156	82.5188	41.0156	83.5266	41.0156	83.0042
42.4805	82.19	42.4805	81.8366	42.4805	82.5861	42.4805	81.5287	42.4805	83.0202	42.4805	81.2676	42.4805	83.4846	42.4805	81.0536	42.4805	83.9674	42.4805	80.8864	42.4805	84.4514	42.4805	80.7651	42.4805	84.9136	42.4805	80.689	42.4805	85.3264	42.4805	80.6575	42.4805	85.6603	42.4805	80.6704	42.4805	85.888	42.4805	80.7281	42.4805	85.9886	42.4805	80.8317	42.4805	85.9508	42.4805	80.9831	42.4805	85.775	42.4805	81.1851	42.4805	85.4732	42.4805	81.4405	42.4805	85.0676	42.4805	81.7523	42.4805	84.5878	42.4805	82.1216	42.4805	84.0667	42.4805	82.5472	42.4805	83.536	42.4805	83.0229
43.9453	82.4203	43.9453	82.0687	43.9453	82.8146	43.9453	81.7626	43.9453	83.2464	43.9453	81.5035	43.9453	83.7073	43.9453	81.2914	43.9453	84.1847	43.9453	81.1259	43.9453	84.6607	43.9453	81.0059	43.9453	85.1117	43.9453	80.9305	43.9453	85.5102	43.9453	80.8988	43.9453	85.8275	43.9453	80.9104	43.9453	86.0375	43.9453	80.9654	43.9453	86.1207	43.9453	81.0648	43.9453	86.0678	43.9453	81.2102	43.9453	85.8803	43.9453	81.4039	43.9453	85.5718	43.9453	81.6488	43.9453	85.1651	43.9453	81.9474	43.9453	84.6901	43.9453	82.3013	43.9453	84.1792	43.9453	82.7096	43.9453	83.6632	43.9453	83.1672
45.4102	82.7697	45.4102	82.416	45.4102	83.1655	45.4102	82.1081	45.4102	83.5975	45.4102	81.8477	45.4102	84.0567	45.4102	81.6353	45.4102	84.5299	45.4102	81.4705	45.4102	84.9988	45.4102	81.3523	45.4102	85.4403	45.4102	81.2793	45.4102	85.8273	45.4102	81.2505	45.4102	86.1322	45.4102	81.2649	45.4102	86.3299	45.4102	81.3223	45.4102	86.4022	45.4102	81.423	45.4102	86.3406	45.4102	81.5682	45.4102	86.1475	45.4102	81.7597	45.4102	85.837	45.4102	82	45.4102	85.4325	45.4102	82.2915	45.4102	84.9638	45.4102	82.6357	45.4102	84.4627	45.4102	83.032	45.4102	83.9589	45.4102	83.4764
46.875	83.0476	46.875	82.689	46.875	83.4482	46.875	82.3764	46.875	83.8846	46.875	82.1119	46.875	84.3472	46.875	81.8961	46.875	84.8222	46.875	81.7288	46.875	85.2911	46.875	81.6089	46.875	85.7305	46.875	81.5351	46.875	86.1134	46.875	81.5059	46.875	86.412	46.875	81.5204	46.875	86.6017	46.875	81.5778	46.875	86.6648	46.875	81.6782	46.875	86.5932	46.875	81.8223	46.875	86.3904	46.875	82.0117	46.875	86.0711	46.875	82.2486	46.875	85.6597	46.875	82.5355	46.875	85.1866	46.875	82.8741	46.875	84.6842	46.875	83.2646	46.875	84.182	46.875	83.7035
48.3398	83.3737	48.3398	83.0141	48.3398	83.7736	48.3398	82.6992	48.3398	84.2071	48.3398	82.4313	48.3398	84.6639	48.3398	82.2114	48.3398	85.13	48.3398	82.0392	48.3398	85.5865	48.3398	81.9138	48.3398	86.0098	48.3398	81.834	48.3398	86.3737	48.3398	81.7982	48.3398	86.6512	48.3398	81.8054	48.3398	86.8191	48.3398	81.8547	48.3398	86.8611	48.3398	81.9462	48.3398	86.7707	48.3398	82.0804	48.3398	86.5528	48.3398	82.2588	48.3398	86.2234	48.3398	82.4836	48.3398	85.8075	48.3398	82.7573	48.3398	85.3356	48.3398	83.0818	48.3398	84.8395	48.3398	83.4576	48.3398	84.3476	48.3398	83.8822
51.2695	83.9879	51.2695	83.6269	51.2695	84.3867	51.2695	83.3091	51.2695	84.8156	51.2695	83.0372	51.2695	85.2632	51.2695	82.8126	51.2695	85.7143	51.2695	82.635	51.2695	86.1496	51.2695	82.5035	51.2695	86.5458	51.2695	82.4166	51.2695	86.8773	51.2695	82.3726	51.2695	87.1188	51.2695	82.3699	51.2695	87.2492	51.2695	82.4074	51.2695	87.2547	51.2695	82.4849	51.2695	87.1312	51.2695	82.6024	51.2695	86.8864	51.2695	82.7613	51.2695	86.5383	51.2695	82.9635	51.2695	86.1136	51.2695	83.2115	51.2695	85.6438	51.2695	83.5079	51.2695	85.1599	51.2695	83.8541	51.2695	84.6887	51.2695	84.2495
52.7344	84.3157	52.7344	83.9528	52.7344	84.7154	52.7344	83.6327	52.7344	85.1435	52.7344	83.3586	52.7344	85.5881	52.7344	83.1318	52.7344	86.0332	52.7344	82.9523	52.7344	86.4594	52.7344	82.819	52.7344	86.8433	52.7344	82.7301	52.7344	87.1597	52.7344	82.6838	52.7344	87.3842	52.7344	82.6783	52.7344	87.4965	52.7344	82.7123	52.7344	87.4839	52.7344	82.7849	52.7344	87.3437	52.7344	82.8962	52.7344	87.0849	52.7344	83.0471	52.7344	86.7269	52.7344	83.2393	52.7344	86.2977	52.7344	83.4753	52.7344	85.8292	52.7344	83.7577	52.7344	85.3524	52.7344	84.0886	52.7344	84.8928	52.7344	84.4682
54.1992	84.6559	54.1992	84.291	54.1992	85.0565	54.1992	83.9683	54.1992	85.4838	54.1992	83.6916	54.1992	85.9257	54.1992	83.4625	54.1992	86.3662	54.1992	83.2812	54.1992	86.786	54.1992	83.1466	54.1992	87.162	54.1992	83.0568	54.1992	87.4694	54.1992	83.0098	54.1992	87.6841	54.1992	83.0033	54.1992	87.7861	54.1992	83.0357	54.1992	87.7631	54.1992	83.1059	54.1992	87.6128	54.1992	83.2134	54.1992	87.3447	54.1992	83.359	54.1992	86.9792	54.1992	83.5441	54.1992	86.5452	54.1992	83.7713	54.1992	86.0754	54.1992	84.0435	54.1992	85.6012	54.1992	84.3634	54.1992	85.1479	54.1992	84.7324
55.6641	84.9596	55.6641	84.5961	55.6641	85.3588	55.6641	84.2749	55.6641	85.7846	55.6641	83.9998	55.6641	86.2247	55.6641	83.773	55.6641	86.6635	55.6641	83.5944	55.6641	87.0816	55.6641	83.463	55.6641	87.456	55.6641	83.3767	55.6641	87.762	55.6641	83.3332	55.6641	87.9753	55.6641	83.3301	55.6641	88.0755	55.6641	83.3653	55.6641	88.0503	55.6641	83.4373	55.6641	87.8976	55.6641	83.5454	55.6641	87.6272	55.6641	83.69	55.6641	87.2601	55.6641	83.8724	55.6641	86.8259	55.6641	84.095	55.6641	86.358	55.6641	84.3608	55.6641	85.8881	55.6641	84.673	55.6641	85.4413	55.6641	85.0337
58.5938	85.5173	58.5938	85.1498	58.5938	85.9207	58.5938	84.8247	58.5938	86.3509	58.5938	84.5458	58.5938	86.7953	58.5938	84.3149	58.5938	87.2377	58.5938	84.132	58.5938	87.6577	58.5938	83.996	58.5938	88.0313	58.5938	83.9047	58.5938	88.3327	58.5938	83.8555	58.5938	88.5375	58.5938	83.8459	58.5938	88.6256	58.5938	83.8737	58.5938	88.5856	58.5938	83.9373	58.5938	88.4166	58.5938	84.0362	58.5938	88.1297	58.5938	84.1709	58.5938	87.747	58.5938	84.3433	58.5938	87.299	58.5938	84.5565	58.5938	86.8197	58.5938	84.8145	58.5938	86.3413	58.5938	85.1215	58.5938	85.8892	58.5938	85.4801
60.0586	85.7343	60.0586	85.363	60.0586	86.1421	60.0586	85.0352	60.0586	86.5761	60.0586	84.7553	60.0586	87.0229	60.0586	84.525	60.0586	87.465	60.0586	84.3443	60.0586	87.8816	60.0586	84.2115	60.0586	88.2486	60.0586	84.124	60.0586	88.5406	60.0586	84.079	60.0586	88.7338	60.0586	84.0735	60.0586	88.8096	60.0586	84.105	60.0586	88.7579	60.0586	84.1719	60.0586	88.5793	60.0586	84.2732	60.0586	88.2865	60.0586	84.4092	60.0586	87.9029	60.0586	84.5813	60.0586	87.4594	60.0586	84.7922	60.0586	86.9897	60.0586	85.0452	60.0586	86.5245	60.0586	85.3441	60.0586	86.087	60.0586	85.6915
62.9883	86.2511	62.9883	85.8729	62.9883	86.664	62.9883	85.5376	62.9883	87.1005	62.9883	85.2504	62.9883	87.5463	62.9883	85.0138	62.9883	87.9838	62.9883	84.8283	62.9883	88.3915	62.9883	84.6924	62.9883	88.7455	62.9883	84.6034	62.9883	89.0208	62.9883	84.5583	62.9883	89.1943	62.9883	84.5536	62.9883	89.2486	62.9883	84.5861	62.9883	89.175	62.9883	84.6535	62.9883	88.9763	62.9883	84.754	62.9883	88.6671	62.9883	84.8872	62.9883	88.273	62.9883	85.0537	62.9883	87.8264	62.9883	85.2557	62.9883	87.3613	62.9883	85.4963	62.9883	86.9075	62.9883	85.7795	62.9883	86.4862	62.9883	86.1089
64.4531	86.7446	64.4531	86.3533	64.4531	87.1748	64.4531	86.0088	64.4531	87.6326	64.4531	85.7158	64.4531	88.1027	64.4531	85.4762	64.4531	88.5658	64.4531	85.2901	64.4531	88.9988	64.4531	85.1556	64.4531	89.3754	64.4531	85.0699	64.4531	89.6686	64.4531	85.0293	64.4531	89.8532	64.4531	85.0301	64.4531	89.91	64.4531	85.0687	64.4531	89.8291	64.4531	85.142	64.4531	89.6134	64.4531	85.2479	64.4531	89.2796	64.4531	85.3851	64.4531	88.8563	64.4531	85.554	64.4531	88.3806	64.4531	85.7563	64.4531	87.8905	64.4531	85.9957	64.4531	87.4189	64.4531	86.2772	64.4531	86.9874	64.4531	86.6065
67.3828	87.157	67.3828	86.7624	67.3828	87.5883	67.3828	86.4128	67.3828	88.0447	67.3828	86.1132	67.3828	88.5107	67.3828	85.8662	67.3828	88.9667	67.3828	85.672	67.3828	89.3893	67.3828	85.5294	67.3828	89.7522	67.3828	85.4356	67.3828	90.028	67.3828	85.3871	67.3828	90.1919	67.3828	85.3799	67.3828	90.2254	67.3828	85.4101	67.3828	90.1199	67.3828	85.4742	67.3828	89.88	67.3828	85.5696	67.3828	89.5242	67.3828	85.6948	67.3828	89.0833	67.3828	85.8501	67.3828	88.5961	67.3828	86.0374	67.3828	88.1016	67.3828	86.2607	67.3828	87.6322	67.3828	86.5262	67.3828	87.209	67.3828	86.8404
68.8477	87.3901	68.8477	86.9893	68.8477	87.8269	68.8477	86.6331	68.8477	88.2875	68.8477	86.3271	68.8477	88.7559	68.8477	86.0741	68.8477	89.2122	68.8477	85.8747	68.8477	89.6327	68.8477	85.7277	68.8477	89.9911	68.8477	85.6304	68.8477	90.2601	68.8477	85.5793	68.8477	90.4154	68.8477	85.5704	68.8477	90.4388	68.8477	85.5995	68.8477	90.3227	68.8477	85.663	68.8477	90.0726	68.8477	85.7582	68.8477	89.7082	68.8477	85.8834	68.8477	89.2614	68.8477	86.0385	68.8477	88.7713	68.8477	86.2254	68.8477	88.2768	68.8477	86.4479	68.8477	87.8095	68.8477	86.7118	68.8477	87.3892	68.8477	87.0237
71.7773	87.9037	71.7773	87.4958	71.7773	88.3442	71.7773	87.1297	71.7773	88.8043	71.7773	86.8117	71.7773	89.2678	71.7773	86.5454	71.7773	89.7145	71.7773	86.3322	71.7773	90.1204	71.7773	86.1714	71.7773	90.4592	71.7773	86.0607	71.7773	90.7038	71.7773	85.9968	71.7773	90.83	71.7773	85.9755	71.7773	90.8208	71.7773	85.9927	71.7773	90.67	71.7773	86.0443	71.7773	90.3852	71.7773	86.1271	71.7773	89.9893	71.7773	86.2391	71.7773	89.5173	71.7773	86.3797	71.7773	89.0111	71.7773	86.5504	71.7773	88.5112	71.7773	86.7551	71.7773	88.0487	71.7773	86.9999	71.7773	87.6409	71.7773	87.2926
74.707	88.3604	74.707	87.9552	74.707	88.7965	74.707	87.5901	74.707	89.251	74.707	87.2713	74.707	89.7076	74.707	87.0023	74.707	90.1461	74.707	86.7845	74.707	90.5426	74.707	86.6173	74.707	90.8705	74.707	86.4985	74.707	91.1024	74.707	86.4249	74.707	91.2142	74.707	86.3928	74.707	91.1886	74.707	86.3979	74.707	91.0202	74.707	86.4365	74.707	90.7176	74.707	86.5056	74.707	90.3048	74.707	86.6032	74.707	89.8186	74.707	86.7292	74.707	89.3023	74.707	86.8854	74.707	88.7972	74.707	87.0762	74.707	88.3344	74.707	87.3084	74.707	87.9309	74.707	87.5905
77.6367	88.6722	77.6367	88.2663	77.6367	89.1107	77.6367	87.9026	77.6367	89.569	77.6367	87.5873	77.6367	90.0302	77.6367	87.3236	77.6367	90.4736	77.6367	87.1127	77.6367	90.8744	77.6367	86.9532	77.6367	91.2055	77.6367	86.8426	77.6367	91.4391	77.6367	86.777	77.6367	91.5508	77.6367	86.7522	77.6367	91.5236	77.6367	86.764	77.6367	91.3527	77.6367	86.8083	77.6367	91.0481	77.6367	86.8821	77.6367	90.6352	77.6367	86.9835	77.6367	90.1519	77.6367	87.1123	77.6367	89.642	77.6367	87.2699	77.6367	89.1461	77.6367	87.4605	77.6367	88.6937	77.6367	87.6902	77.6367	88.2999	77.6367	87.9672
79.1016	88.7132	79.1016	88.3047	79.1016	89.155	79.1016	87.9395	79.1016	89.6167	79.1016	87.624	79.1016	90.0811	79.1016	87.362	79.1016	90.5269	79.1016	87.1543	79.1016	90.9293	79.1016	86.9999	79.1016	91.2608	79.1016	86.8959	79.1016	91.4937	79.1016	86.838	79.1016	91.6036	79.1016	86.8217	79.1016	91.5744	79.1016	86.8421	79.1016	91.4019	79.1016	86.8949	79.1016	91.0971	79.1016	86.9764	79.1016	90.6864	79.1016	87.0845	79.1016	90.2082	79.1016	87.2182	79.1016	89.7064	79.1016	87.3789	79.1016	89.2206	79.1016	87.5701	79.1016	88.779	79.1016	87.7978	79.1016	88.395	79.1016	88.0699
82.0312	88.9768	82.0312	88.5631	82.0312	89.4226	82.0312	88.1923	82.0312	89.886	82.0312	87.8719	82.0312	90.3493	82.0312	87.6064	82.0312	90.7906	82.0312	87.3976	82.0312	91.1848	82.0312	87.2446	82.0312	91.5046	82.0312	87.1446	82.0312	91.7226	82.0312	87.0932	82.0312	91.8152	82.0312	87.0852	82.0312	91.7674	82.0312	87.1149	82.0312	91.5773	82.0312	87.1772	82.0312	91.2585	82.0312	87.2674	82.0312	90.8408	82.0312	87.3822	82.0312	90.3652	82.0312	87.5197	82.0312	89.8763	82.0312	87.6801	82.0312	89.412	82.0312	87.8659	82.0312	88.9965	82.0312	88.0822	82.0312	88.6389	82.0312	88.3368
84.9609	89.1579	84.9609	88.7387	84.9609	89.6072	84.9609	88.3611	84.9609	90.0721	84.9609	88.0329	84.9609	90.5342	84.9609	87.7593	84.9609	90.9712	84.9609	87.5423	84.9609	91.3576	84.9609	87.3816	84.9609	91.6649	84.9609	87.2743	84.9609	91.865	84.9609	87.2163	84.9609	91.934	84.9609	87.2019	84.9609	91.8571	84.9609	87.2253	84.9609	91.6335	84.9609	87.2808	84.9609	91.2798	84.9609	87.3633	84.9609	90.8296	84.9609	87.4688	84.9609	90.3288	84.9609	87.5949	84.9609	89.826	84.9609	87.741	84.9609	89.361	84.9609	87.9094	84.9609	88.9564	84.9609	88.1054	84.9609	88.6175	84.9609	88.3377
87.8906	89.1136	87.8906	88.6845	87.8906	89.5743	87.8906	88.2993	87.8906	90.0501	87.8906	87.9669	87.8906	90.5213	87.8906	87.6924	87.8906	90.9644	87.8906	87.4777	87.8906	91.3525	87.8906	87.3215	87.8906	91.6568	87.8906	87.2199	87.8906	91.8487	87.8906	87.1674	87.8906	91.9043	87.8906	87.1575	87.8906	91.8088	87.8906	87.1831	87.8906	91.5623	87.8906	87.2379	87.8906	91.1823	87.8906	87.3162	87.8906	90.7048	87.8906	87.4135	87.8906	90.1791	87.8906	87.5273	87.8906	89.6576	87.8906	87.6573	87.8906	89.1834	87.8906	87.8062	87.8906	88.7805	87.8906	87.9807	87.8906	88.4531	87.8906	88.1915
90.8203	88.955	90.8203	88.5174	90.8203	89.4275	90.8203	88.128	90.8203	89.9177	90.8203	87.7965	90.8203	90.4049	90.8203	87.5292	90.8203	90.8644	90.8203	87.3288	90.8203	91.2687	90.8203	87.1943	90.8203	91.5883	90.8203	87.1217	90.8203	91.7951	90.8203	87.1043	90.8203	91.8662	90.8203	87.1339	90.8203	91.7888	90.8203	87.2012	90.8203	91.565	90.8203	87.2976	90.8203	91.2142	90.8203	87.4151	90.8203	90.7726	90.8203	87.5476	90.8203	90.2875	90.8203	87.6911	90.8203	89.8063	90.8203	87.8448	90.8203	89.3663	90.8203	88.0114	90.8203	88.9872	90.8203	88.1974	90.8203	88.6723	90.8203	88.4134
95.2148	89.6087	95.2148	89.1315	95.2148	90.1031	95.2148	88.6869	95.2148	90.5975	95.2148	88.2881	95.2148	91.0725	95.2148	87.9458	95.2148	91.5062	95.2148	87.6672	95.2148	91.8733	95.2148	87.4557	95.2148	92.1454	95.2148	87.3106	95.2148	92.2932	95.2148	87.228	95.2148	92.2913	95.2148	87.2009	95.2148	92.1245	95.2148	87.2206	95.2148	91.7947	95.2148	87.2776	95.2148	91.3262	95.2148	87.3629	95.2148	90.7657	95.2148	87.4682	95.2148	90.1748	95.2148	87.5876	95.2148	89.6154	95.2148	87.7176	95.2148	89.1319	95.2148	87.859	95.2148	88.742	95.2148	88.0177	95.2148	88.4395	95.2148	88.2053
98.1445	89.814	98.1445	89.3488	98.1445	90.2956	98.1445	88.9137	98.1445	90.7776	98.1445	88.5197	98.1445	91.2411	98.1445	88.1754	98.1445	91.6637	98.1445	87.886	98.1445	92.0189	98.1445	87.654	98.1445	92.2769	98.1445	87.4786	98.1445	92.407	98.1445	87.3564	98.1445	92.3825	98.1445	87.2823	98.1445	92.1876	98.1445	87.2501	98.1445	91.8245	98.1445	87.2534	98.1445	91.3183	98.1445	87.2856	98.1445	90.717	98.1445	87.3415	98.1445	90.0839	98.1445	87.4172	98.1445	89.4825	98.1445	87.5118	98.1445	88.9594	98.1445	87.6279	98.1445	88.5355	98.1445	87.7731	98.1445	88.2079	98.1445	87.9604
101.074	89.2597	101.074	88.7778	101.074	89.7635	101.074	88.3336	101.074	90.2709	101.074	87.9403	101.074	90.761	101.074	87.6074	101.074	91.2099	101.074	87.3403	101.074	91.59	101.074	87.1398	101.074	91.8708	101.074	87.0023	101.074	92.0212	101.074	86.9212	101.074	92.0148	101.074	86.8878	101.074	91.8365	101.074	86.8928	101.074	91.4896	101.074	86.9273	101.074	90.9998	101.074	86.9837	101.074	90.4152	101.074	87.0565	101.074	89.7978	101.074	87.1425	101.074	89.2087	101.074	87.2419	101.074	88.6928	101.074	87.3596	101.074	88.2708	101.074	87.5051	101.074	87.9422	101.074	87.6933
105.469	89.3464	105.469	88.8138	105.469	89.8838	105.469	88.3038	105.469	90.4078	105.469	87.8337	105.469	90.8991	105.469	87.4194	105.469	91.3359	105.469	87.0737	105.469	91.6932	105.469	86.8048	105.469	91.943	105.469	86.6147	105.469	92.0566	105.469	86.4995	105.469	92.0095	105.469	86.4508	105.469	91.789	105.469	86.4569	105.469	91.4008	105.469	86.5052	105.469	90.8739	105.469	86.5839	105.469	90.2593	105.469	86.6834	105.469	89.6202	105.469	86.7973	105.469	89.0162	105.469	86.9238	105.469	88.4884	105.469	87.0664	105.469	88.0537	105.469	87.2346	105.469	87.7099	105.469	87.443
108.398	89.6275	108.398	89.1117	108.398	90.1403	108.398	88.6082	108.398	90.6347	108.398	88.1325	108.398	91.0938	108.398	87.7004	108.398	91.4983	108.398	87.326	108.398	91.8245	108.398	87.0205	108.398	92.0456	108.398	86.7903	108.398	92.1333	108.398	86.636	108.398	92.0641	108.398	86.5529	108.398	91.8263	108.398	86.5318	108.398	91.428	108.398	86.5615	108.398	90.9013	108.398	86.6302	108.398	90.299	108.398	86.7276	108.398	89.6829	108.398	86.8464	108.398	89.1062	108.398	86.9837	108.398	88.6011	108.398	87.1416	108.398	88.1777	108.398	87.3275	108.398	87.832	108.398	87.5531
112.793	89.7671	112.793	89.2763	112.793	90.2498	112.793	88.7904	112.793	90.7105	112.793	88.3229	112.793	91.1336	112.793	87.8872	112.793	91.4999	112.793	87.4966	112.793	91.7854	112.793	87.1621	112.793	91.9618	112.793	86.8919	112.793	91.9991	112.793	86.6895	112.793	91.8718	112.793	86.5542	112.793	91.5674	112.793	86.4808	112.793	91.0964	112.793	86.4613	112.793	90.4977	112.793	86.4862	112.793	89.836	112.793	86.5461	112.793	89.1864	112.793	86.6332	112.793	88.6093	112.793	86.7429	112.793	88.1329	112.793	86.8743	112.793	87.7548	112.793	87.0312	112.793	87.4575	112.793	87.2216
117.188	89.6971	117.188	89.2278	117.188	90.1582	117.188	88.7625	117.188	90.5987	117.188	88.313	117.188	91.0032	117.188	87.8918	117.188	91.3525	117.188	87.5108	117.188	91.6223	117.188	87.1805	117.188	91.7829	117.188	86.9087	117.188	91.8029	117.188	86.6992	117.188	91.6551	117.188	86.5519	117.188	91.3262	117.188	86.4624	117.188	90.8264	117.188	86.4238	117.188	90.197	117.188	86.427	117.188	89.5073	117.188	86.4629	117.188	88.8386	117.188	86.5236	117.188	88.2566	117.188	86.6037	117.188	87.7908	117.188	86.7021	117.188	87.4367	117.188	86.8226	117.188	87.1726	117.188	86.9745
120.117	89.7935	120.117	89.3334	120.117	90.245	120.117	88.876	120.117	90.6762	120.117	88.4322	120.117	91.0724	120.117	88.0138	120.117	91.4148	120.117	87.6322	120.117	91.6792	120.117	87.2979	120.117	91.8356	120.117	87.0193	120.117	91.8519	120.117	86.8012	120.117	91.6996	120.117	86.6445	120.117	91.3643	120.117	86.5461	120.117	90.8556	120.117	86.4996	120.117	90.2157	120.117	86.4965	120.117	89.5163	120.117	86.5272	120.117	88.8418	120.117	86.5832	120.117	88.2599	120.117	86.6586	120.117	87.7995	120.117	86.7516	120.117	87.4539	120.117	86.8656	120.117	87.1991	120.117	87.0099
124.512	89.9204	124.512	89.488	124.512	90.3492	124.512	89.0629	124.512	90.762	124.512	88.6555	124.512	91.1437	124.512	88.2761	124.512	91.4749	124.512	87.9342	124.512	91.7304	124.512	87.6381	124.512	91.8796	124.512	87.3937	124.512	91.8894	124.512	87.204	124.512	91.7312	124.512	87.069	124.512	91.391	124.512	86.9856	124.512	90.8812	124.512	86.9479	124.512	90.2484	124.512	86.9482	124.512	89.5706	124.512	86.9779	124.512	88.936	124.512	87.0286	124.512	88.4098	124.512	87.0941	124.512	88.0125	124.512	87.1717	124.512	87.7276	124.512	87.2634	124.512	87.5247	124.512	87.3767
128.906	90.172	128.906	89.7455	128.906	90.5887	128.906	89.3212	128.906	90.9827	128.906	88.9115	128.906	91.3389	128.906	88.5282	128.906	91.639	128.906	88.1826	128.906	91.8589	128.906	87.8841	128.906	91.9688	128.906	87.6395	128.906	91.9352	128.906	87.4518	128.906	91.7277	128.906	87.3202	128.906	91.3298	128.906	87.2399	128.906	90.7528	128.906	87.2027	128.906	90.0471	128.906	87.1984	128.906	89.3023	128.906	87.2156	128.906	88.6254	128.906	87.2435	128.906	88.0978	128.906	87.2735	128.906	87.7428	128.906	87.3009	128.906	87.5324	128.906	87.3269	128.906	87.4189	128.906	87.3602
133.301	90.2217	133.301	89.8237	133.301	90.6151	133.301	89.4325	133.301	90.9921	133.301	89.0592	133.301	91.3393	133.301	88.7145	133.301	91.6396	133.301	88.4075	133.301	91.8699	133.301	88.1452	133.301	92.0001	133.301	87.9318	133.301	91.995	133.301	87.7689	133.301	91.8216	133.301	87.6549	133.301	91.4604	133.301	87.5856	133.301	90.9199	133.301	87.5541	133.301	90.2478	133.301	87.5514	133.301	89.5312	133.301	87.5673	133.301	88.8752	133.301	87.5913	133.301	88.3611	133.301	87.6146	133.301	88.0152	133.301	87.6324	133.301	87.8134	133.301	87.6461	133.301	87.711	133.301	87.6656
139.16	89.7788	139.16	89.38	139.16	90.1732	139.16	88.99	139.16	90.551	139.16	88.6225	139.16	90.8994	139.16	88.2915	139.16	91.2022	139.16	88.0086	139.16	91.4367	139.16	87.7819	139.16	91.5721	139.16	87.6153	139.16	91.5715	139.16	87.5077	139.16	91.3994	139.16	87.454	139.16	91.035	139.16	87.4456	139.16	90.4884	139.16	87.4715	139.16	89.8134	139.16	87.5186	139.16	89.1075	139.16	87.5731	139.16	88.4851	139.16	87.6217	139.16	88.029	139.16	87.6532	139.16	87.757	139.16	87.6612	139.16	87.6333	139.16	87.6466	139.16	87.6037	139.16	87.6199
143.555	89.4659	143.555	89.0625	143.555	89.8618	143.555	88.6663	143.555	90.2375	143.555	88.2937	143.555	90.5803	143.555	87.9611	143.555	90.8745	143.555	87.6826	143.555	91.0974	143.555	87.4678	143.555	91.2174	143.555	87.3207	143.555	91.196	143.555	87.2392	143.555	90.996	143.555	87.2163	143.555	90.5969	143.555	87.2411	143.555	90.0132	143.555	87.3001	143.555	89.3092	143.555	87.3778	143.555	88.5971	143.555	87.4578	143.555	88.0027	143.555	87.5245	143.555	87.6066	143.555	87.564	143.555	87.4115	143.555	87.5674	143.555	87.3649	143.555	87.5333	143.555	87.4024	143.555	87.4709
147.949	89.2952	147.949	88.86	147.949	89.7166	147.949	88.4285	147.949	90.1094	147.949	88.0212	147.949	90.4598	147.949	87.6593	147.949	90.7511	147.949	87.3608	147.949	90.9596	147.949	87.1374	147.949	91.0522	147.949	86.9928	147.949	90.9879	147.949	86.9226	147.949	90.7272	147.949	86.9161	147.949	90.2475	147.949	86.9582	147.949	89.564	147.949	87.0316	147.949	88.7494	147.949	87.1174	147.949	87.9358	147.949	87.1968	147.949	87.2769	147.949	87.2517	147.949	86.8713	147.949	87.2663	147.949	86.7168	147.949	87.23	147.949	86.7412	147.949	87.1408	147.949	86.8607	147.949	87.009
153.809	89.3479	153.809	88.8429	153.809	89.8077	153.809	88.3139	153.809	90.2075	153.809	87.7896	153.809	90.5365	153.809	87.3037	153.809	90.7828	153.809	86.8898	153.809	90.928	153.809	86.5744	153.809	90.9433	153.809	86.3704	153.809	90.7896	153.809	86.2752	153.809	90.4256	153.809	86.2723	153.809	89.8238	153.809	86.3367	153.809	88.995	153.809	86.4396	153.809	88.014	153.809	86.5523	153.809	87.032	153.809	86.6478	153.809	86.2413	153.809	86.7016	153.809	85.7766	153.809	86.6933	153.809	85.6415	153.809	86.6095	153.809	85.7418	153.809	86.4473	153.809	85.9649	153.809	86.2206
159.668	90.2905	159.668	89.8283	159.668	90.677	159.668	89.3031	159.668	90.9827	159.668	88.7361	159.668	91.2066	159.668	88.1577	159.668	91.3474	159.668	87.6047	159.668	91.3974	159.668	87.1161	159.668	91.3359	159.668	86.7253	159.668	91.1281	159.668	86.4516	159.668	90.7314	159.668	86.2955	159.668	90.1139	159.668	86.2389	159.668	89.2788	159.668	86.2507	159.668	88.2905	159.668	86.2944	159.668	87.2838	159.668	86.3344	159.668	86.4284	159.668	86.3403	159.668	85.8461	159.668	86.2899	159.668	85.5554	159.668	86.1733	159.668	85.5	159.668	85.9976	159.668	85.6032	159.668	85.791
165.527	90.647	165.527	90.2744	165.527	90.9343	165.527	89.823	165.527	91.1379	165.527	89.3078	165.527	91.2646	165.527	88.7524	165.527	91.321	165.527	88.1886	165.527	91.3057	165.527	87.6536	165.527	91.2001	165.527	87.1861	165.527	90.9643	165.527	86.8187	165.527	90.5455	165.527	86.5692	165.527	89.8988	165.527	86.4353	165.527	89.0181	165.527	86.3951	165.527	87.9698	165.527	86.4131	165.527	86.9115	165.527	86.4489	165.527	86.0525	165.527	86.4643	165.527	85.5391	165.527	86.4284	165.527	85.3698	165.527	86.322	165.527	85.444	165.527	86.1419	165.527	85.6514	165.527	85.9051
171.387	90.5645	171.387	90.2705	171.387	90.7798	171.387	89.9022	171.387	90.9206	171.387	89.4727	171.387	90.9985	171.387	89.0024	171.387	91.0269	171.387	88.5177	171.387	91.0107	171.387	88.0496	171.387	90.9337	171.387	87.6301	171.387	90.7532	171.387	87.2878	171.387	90.4099	171.387	87.0413	171.387	89.8553	171.387	86.8941	171.387	89.0859	171.387	86.8325	171.387	88.1745	171.387	86.8291	171.387	87.2754	171.387	86.849	171.387	86.567	171.387	86.8568	171.387	86.1475	171.387	86.8231	171.387	85.9953	171.387	86.7296	171.387	86.0312	171.387	86.5752	171.387	86.1799	171.387	86.3789
177.246	90.4123	177.246	90.1651	177.246	90.5777	177.246	89.8392	177.246	90.6688	177.246	89.4478	177.246	90.7019	177.246	89.0112	177.246	90.6944	177.246	88.5556	177.246	90.6507	177.246	88.1113	177.246	90.5486	177.246	87.7108	177.246	90.3363	177.246	87.3852	177.246	89.949	177.246	87.158	177.246	89.3435	177.246	87.039	177.246	88.5399	177.246	87.019	177.246	87.6547	177.246	87.0715	177.246	86.884	177.246	87.1576	177.246	86.3954	177.246	87.2349	177.246	86.214	177.246	87.2652	177.246	86.2534	177.246	87.2211	177.246	86.4207	177.246	87.0926	177.246	86.651	177.246	86.8912
183.105	90.2287	183.105	89.9035	183.105	90.4514	183.105	89.4921	183.105	90.566	183.105	89.0206	183.105	90.5778	183.105	88.5216	183.105	90.4983	183.105	88.0318	183.105	90.3342	183.105	87.5874	183.105	90.0702	183.105	87.2196	183.105	89.6567	183.105	86.9505	183.105	89.0215	183.105	86.7904	183.105	88.1156	183.105	86.737	183.105	86.9948	183.105	86.7755	183.105	85.9114	183.105	86.8806	183.105	85.2623	183.105	87.0192	183.105	85.226	183.105	87.1541	183.105	85.5784	183.105	87.2489	183.105	86.029	183.105	87.2728	183.105	86.4414	183.105	87.2052	183.105	86.7816	183.105	87.0396
188.965	90.7154	188.965	90.3554	188.965	90.9355	188.965	89.8743	188.965	91.0075	188.965	89.3007	188.965	90.9346	188.965	88.6726	188.965	90.7306	188.965	88.0362	188.965	90.4106	188.965	87.4436	188.965	89.9726	188.965	86.9462	188.965	89.3731	188.965	86.5857	188.965	88.523	188.965	86.3844	188.965	87.3225	188.965	86.3401	188.965	85.7495	188.965	86.4273	188.965	84.0428	188.965	86.6039	188.965	82.9014	188.965	86.82	188.965	82.9567	188.965	87.0241	188.965	83.8354	188.965	87.1681	188.965	84.8587	188.965	87.2092	188.965	85.7308	188.965	87.1117	188.965	86.392	188.965	86.8467
196.289	92.1604	196.289	91.8553	196.289	92.293	196.289	91.3932	196.289	92.2488	196.289	90.799	196.289	92.0391	196.289	90.1065	196.289	91.6925	196.289	89.359	196.289	91.2475	196.289	88.6096	196.289	90.7261	196.289	87.9188	196.289	90.0979	196.289	87.3471	196.289	89.2678	196.289	86.9415	196.289	88.1138	196.289	86.7216	196.289	86.5698	196.289	86.6722	196.289	84.7605	196.289	86.7478	196.289	83.1862	196.289	86.8855	196.289	82.5694	196.289	87.0176	196.289	82.9997	196.289	87.0808	196.289	83.9137	196.289	87.0198	196.289	84.879	196.289	86.7896	196.289	85.7162	196.289	86.359
203.613	92.0425	203.613	91.8375	203.613	92.0732	203.613	91.4717	203.613	91.9253	203.613	90.9654	203.613	91.6089	203.613	90.3456	203.613	91.1539	203.613	89.6474	203.613	90.6094	203.613	88.9158	203.613	90.0205	203.613	88.2073	203.613	89.3819	203.613	87.5864	203.613	88.6063	203.613	87.1157	203.613	87.56	203.613	86.8373	203.613	86.1639	203.613	86.7551	203.613	84.5484	203.613	86.8296	203.613	83.221	203.613	86.9912	203.613	82.8284	203.613	87.1598	203.613	83.3583	203.613	87.2609	203.613	84.2744	203.613	87.233	203.613	85.2077	203.613	87.0304	203.613	86.0107	203.613	86.625
210.938	91.6919	210.938	91.5667	210.938	91.6342	210.938	91.2815	210.938	91.3771	210.938	90.8624	210.938	90.9193	210.938	90.3368	210.938	90.2834	210.938	89.7338	210.938	89.5178	210.938	89.0863	210.938	88.6675	210.938	88.4341	210.938	87.71	210.938	87.8258	210.938	86.511	210.938	87.3189	210.938	84.8852	210.938	86.9715	210.938	82.8327	210.938	86.8239	210.938	81.1407	210.938	86.8777	210.938	81.3093	210.938	87.0879	210.938	82.8778	210.938	87.3761	210.938	84.4851	210.938	87.654	210.938	85.7415	210.938	87.8416	210.938	86.6668	210.938	87.8755	210.938	87.3136	210.938	87.7096
218.262	92.0775	218.262	91.8828	218.262	92.0733	218.262	91.5216	218.262	91.8441	218.262	91.0283	218.262	91.3761	218.262	90.4371	218.262	90.6778	218.262	89.781	218.262	89.7874	218.262	89.0914	218.262	88.7576	218.262	88.3993	218.262	87.5919	218.262	87.7384	218.262	86.1557	218.262	87.1473	218.262	84.1339	218.262	86.6683	218.262	81.0061	218.262	86.3398	218.262	75.9552	218.262	86.1808	218.262	71.6949	218.262	86.1761	218.262	76.5558	218.262	86.2728	218.262	80.4233	218.262	86.3905	218.262	82.7923	218.262	86.4399	218.262	84.3377	218.262	86.3353	218.262	85.361	218.262	85.9996
225.586	92.0845	225.586	91.8747	225.586	92.0747	225.586	91.4876	225.586	91.8043	225.586	90.9651	225.586	91.2392	225.586	90.3481	225.586	90.3626	225.586	89.6755	225.586	89.1965	225.586	88.985	225.586	87.8209	225.586	88.3139	225.586	86.3453	225.586	87.7	225.586	84.7769	225.586	87.1823	225.586	82.8729	225.586	86.7978	225.586	80.1421	225.586	86.5724	225.586	76.0053	225.586	86.5081	225.586	72.4481	225.586	86.5734	225.586	75.8444	225.586	86.7038	225.586	79.6747	225.586	86.8137	225.586	82.2696	225.586	86.8121	225.586	84.0652	225.586	86.6127	225.586	85.3141	225.586	86.1373
232.91	91.7565	232.91	91.6132	232.91	91.6369	232.91	91.2638	232.91	91.197	232.91	90.7645	232.91	90.3802	232.91	90.1705	232.91	89.1422	232.91	89.5347	232.91	87.4825	232.91	88.9043	232.91	85.5113	232.91	88.3182	232.91	83.4858	232.91	87.8069	232.91	81.5637	232.91	87.3943	232.91	79.3119	232.91	87.1001	232.91	75.4815	232.91	86.939	232.91	65.6298	232.91	86.9135	232.91	68.1008	232.91	87.0039	232.91	76.7899	232.91	87.1613	232.91	80.7836	232.91	87.3107	232.91	83.2554	232.91	87.3639	232.91	84.9395	232.91	87.232	232.91	86.0944	232.91	86.8334
241.699	91.9574	241.699	91.9077	241.699	91.7191	241.699	91.6292	241.699	91.1275	241.699	91.1775	241.699	90.1102	241.699	90.6073	241.699	88.5962	241.699	89.9727	241.699	86.5572	241.699	89.327	241.699	84.1508	241.699	88.7199	241.699	81.9686	241.699	88.1933	241.699	80.6629	241.699	87.7768	241.699	79.75	241.699	87.484	241.699	78.1423	241.699	87.3092	241.699	75.045	241.699	87.2275	241.699	70.7133	241.699	87.1962	241.699	72.2064	241.699	87.1575	241.699	76.8752	241.699	87.0437	241.699	80.2353	241.699	86.7809	241.699	82.6045	241.699	86.2918	241.699	84.3022	241.699	85.4952
250.488	91.6013	250.488	91.5467	250.488	91.3437	250.488	91.2536	250.488	90.691	250.488	90.7918	250.488	89.542	250.488	90.2299	250.488	87.7692	250.488	89.634	250.488	85.2334	250.488	89.064	250.488	81.9678	250.488	88.5684	250.488	79.0602	250.488	88.1815	250.488	78.5088	250.488	87.9221	250.488	78.9	250.488	87.7928	250.488	78.3181	250.488	87.7796	250.488	76.3354	250.488	87.85	250.488	73.6472	250.488	87.9533	250.488	74.0333	250.488	88.0236	250.488	77.5477	250.488	87.9855	250.488	80.7943	250.488	87.7585	250.488	83.2783	250.488	87.2605	250.488	85.1117	250.488	86.4074
259.277	92.2935	259.277	92.1711	259.277	92.068	259.277	91.7718	259.277	91.4105	259.277	91.1626	259.277	90.2114	259.277	90.413	259.277	88.3187	259.277	89.5978	259.277	85.5322	259.277	88.7967	259.277	81.7857	259.277	88.0883	259.277	78.5729	259.277	87.5395	259.277	78.8974	259.277	87.1938	259.277	80.0889	259.277	87.0614	259.277	80.1651	259.277	87.1172	259.277	79.2311	259.277	87.3056	259.277	78.1453	259.277	87.5498	259.277	78.2941	259.277	87.7634	259.277	79.9338	259.277	87.8595	259.277	82.0502	259.277	87.756	259.277	83.9874	259.277	87.3772	259.277	85.535	259.277	86.6555
268.066	92.3841	268.066	92.2042	268.066	92.2281	268.066	91.758	268.066	91.6512	268.066	91.1096	268.066	90.5374	268.066	90.3221	268.066	88.7082	268.066	89.4611	268.066	85.8498	268.066	88.5958	268.066	81.3393	268.066	87.799	268.066	74.6218	268.066	87.1445	268.066	75.0482	268.066	86.6974	268.066	78.7034	268.066	86.4972	268.066	79.777	268.066	86.5362	268.066	78.9803	268.066	86.7501	268.066	76.7954	268.066	87.0314	268.066	74.3598	268.066	87.255	268.066	74.9662	268.066	87.3003	268.066	78.2002	268.066	87.0589	268.066	81.2787	268.066	86.4324	268.066	83.6406	268.066	85.3256
276.855	91.312	276.855	91.1943	276.855	91.0702	276.855	90.7939	276.855	90.374	276.855	90.1807	276.855	89.0892	276.855	89.4232	276.855	86.9943	276.855	88.5906	276.855	83.6445	276.855	87.7526	276.855	77.8003	276.855	86.9786	276.855	59.6105	276.855	86.3376	276.855	72.7238	276.855	85.8971	276.855	77.4404	276.855	85.7129	276.855	78.4391	276.855	85.8053	276.855	77.6615	276.855	86.1323	276.855	76.274	276.855	86.5886	276.855	76.3466	276.855	87.0365	276.855	78.5628	276.855	87.3419	276.855	81.2291	276.855	87.3927	276.855	83.4903	276.855	87.0999	276.855	85.2048	276.855	86.3911
287.109	91.443	287.109	91.4228	287.109	91.102	287.109	91.1131	287.109	90.3158	287.109	90.5801	287.109	88.9749	287.109	89.8885	287.109	86.9241	287.109	89.1029	287.109	83.9371	287.109	88.286	287.109	79.806	287.109	87.4962	287.109	75.7087	287.109	86.7858	287.109	75.7939	287.109	86.2025	287.109	77.374	287.109	85.7917	287.109	77.9468	287.109	85.5922	287.109	77.8316	287.109	85.6172	287.109	77.8385	287.109	85.8298	287.109	78.637	287.109	86.1371	287.109	80.2162	287.109	86.4139	287.109	82.0652	287.109	86.5358	287.109	83.7417	287.109	86.398	287.109	85.0423	287.109	85.9195
297.363	91.2842	297.363	91.2915	297.363	90.8481	297.363	90.9562	297.363	89.8795	297.363	90.3602	297.363	88.2367	297.363	89.588	297.363	85.7251	297.363	88.728	297.363	82.2624	297.363	87.871	297.363	79.42	297.363	87.1053	297.363	80.5428	297.363	86.5096	297.363	82.6651	297.363	86.1407	297.363	83.7464	297.363	86.0191	297.363	83.8152	297.363	86.1182	297.363	83.205	297.363	86.3668	297.363	82.3719	297.363	86.667	297.363	81.8498	297.363	86.9163	297.363	81.9996	297.363	87.0235	297.363	82.7784	297.363	86.9171	297.363	83.873	297.363	86.548	297.363	84.975	297.363	85.8947
307.617	91.6768	307.617	91.5099	307.617	91.4495	307.617	91.0201	307.617	90.7468	307.617	90.2761	307.617	89.4677	307.617	89.3487	307.617	87.4969	307.617	88.3102	307.617	84.8147	307.617	87.2305	307.617	82.1346	307.617	86.1749	307.617	81.5712	307.617	85.2112	307.617	82.7952	307.617	84.4305	307.617	83.6801	307.617	83.9603	307.617	83.6454	307.617	83.9183	307.617	82.8219	307.617	84.299	307.617	81.6146	307.617	84.9257	307.617	80.6249	307.617	85.5516	307.617	80.3935	307.617	85.9717	307.617	81.0757	307.617	86.0538	307.617	82.3714	307.617	85.7242	307.617	83.785	307.617	84.9558
319.336	90.7775	319.336	90.8333	319.336	90.3145	319.336	90.5488	319.336	89.3837	319.336	89.9924	319.336	87.9559	319.336	89.2337	319.336	86.1476	319.336	88.3401	319.336	84.5342	319.336	87.3749	319.336	84.111	319.336	86.3988	319.336	84.7836	319.336	85.4791	319.336	85.4465	319.336	84.7095	319.336	85.4745	319.336	84.2221	319.336	84.7476	319.336	84.1482	319.336	83.4298	319.336	84.5094	319.336	81.9744	319.336	85.1534	319.336	81.0337	319.336	85.837	319.336	81.023	319.336	86.3442	319.336	81.8755	319.336	86.5302	319.336	83.2101	319.336	86.3109	319.336	84.5721	319.336	85.6502
329.59	91.1401	329.59	91.1402	329.59	90.7177	329.59	90.7921	329.59	89.8109	329.59	90.1793	329.59	88.3993	329.59	89.3945	329.59	86.6373	329.59	88.5299	329.59	85.1603	329.59	87.6603	329.59	84.8597	329.59	86.8266	329.59	85.4399	329.59	86.032	329.59	85.8515	329.59	85.2591	329.59	85.5424	329.59	84.5093	329.59	84.3873	329.59	83.8618	329.59	82.5083	329.59	83.5096	329.59	80.3591	329.59	83.6434	329.59	78.8471	329.59	84.2033	329.59	78.8431	329.59	84.8704	329.59	80.2062	329.59	85.3156	329.59	82.0494	329.59	85.3268	329.59	83.6773	329.59	84.7928
341.309	90.6023	341.309	90.5733	341.309	90.179	341.309	90.1582	341.309	89.2614	341.309	89.4433	341.309	87.8802	341.309	88.5374	341.309	86.3089	341.309	87.5664	341.309	85.2911	341.309	86.6474	341.309	85.4293	341.309	85.8534	341.309	86.1321	341.309	85.1995	341.309	86.5307	341.309	84.6724	341.309	86.2399	341.309	84.2909	341.309	85.2029	341.309	84.1515	341.309	83.5928	341.309	84.3843	341.309	81.8822	341.309	84.9963	341.309	80.8085	341.309	85.7896	341.309	80.9074	341.309	86.4863	341.309	82.0497	341.309	86.8669	341.309	83.6433	341.309	86.7997	341.309	85.1342	341.309	86.2216
353.027	91.905	353.027	91.8502	353.027	91.4607	353.027	91.3469	353.027	90.4752	353.027	90.4516	353.027	88.9515	353.027	89.2376	353.027	87.0786	353.027	87.8096	353.027	85.5147	353.027	86.3164	353.027	85.095	353.027	84.9395	353.027	85.5034	353.027	83.8357	353.027	85.7828	353.027	83.0567	353.027	85.4784	353.027	82.5421	353.027	84.5961	353.027	82.2271	353.027	83.4461	353.027	82.1763	353.027	82.5623	353.027	82.5716	353.027	82.4062	353.027	83.4563	353.027	83.0015	353.027	84.5662	353.027	84.0155	353.027	85.5412	353.027	85.0667	353.027	86.1386	353.027	85.8693	353.027	86.2514
366.211	91.9084	366.211	91.8256	366.211	91.6165	366.211	91.3911	366.211	90.9635	366.211	90.6538	366.211	90.0247	366.211	89.6872	366.211	88.9711	366.211	88.588	366.211	88.0437	366.211	87.4655	366.211	87.3643	366.211	86.4163	366.211	86.7488	366.211	85.4937	366.211	85.8375	366.211	84.6985	366.211	84.3872	366.211	84.0166	366.211	82.5454	366.211	83.4855	366.211	81.0362	366.211	83.2181	366.211	80.3651	366.211	83.2923	366.211	79.941	366.211	83.5843	366.211	79.2167	366.211	83.7972	366.211	78.4247	366.211	83.6365	366.211	78.4707	366.211	82.9059	366.211	79.8014	366.211	81.5496
379.395	91.5727	379.395	91.4002	379.395	91.4022	379.395	90.8928	379.395	90.9358	379.395	90.0988	379.395	90.2989	379.395	89.0978	379.395	89.693	379.395	87.9907	379.395	89.2874	379.395	86.8788	379.395	89.0305	379.395	85.8281	379.395	88.6237	379.395	84.8321	379.395	87.6908	379.395	83.8032	379.395	85.9072	379.395	82.6208	379.395	83.0949	379.395	81.2724	379.395	79.6177	379.395	80.1673	379.395	77.1198	379.395	80.2069	379.395	76.4154	379.395	81.4506	379.395	76.428	379.395	82.8542	379.395	77.444	379.395	83.7192	379.395	79.5065	379.395	83.8216	379.395	81.608	379.395	83.1093
392.578	90.9469	392.578	91.0233	392.578	90.6021	392.578	90.7877	392.578	90.1319	392.578	90.271	392.578	89.7691	392.578	89.561	392.578	89.696	392.578	88.7843	392.578	89.8414	392.578	88.0677	392.578	89.9046	392.578	87.477	392.578	89.5535	392.578	86.9718	392.578	88.5241	392.578	86.4183	392.578	86.6696	392.578	85.645	392.578	84.164	392.578	84.5123	392.578	81.8604	392.578	83.0459	392.578	80.5391	392.578	81.765	392.578	79.6471	392.578	81.6912	392.578	78.9506	392.578	82.7679	392.578	79.2916	392.578	83.8461	392.578	80.8397	392.578	84.2608	392.578	82.6039	392.578	83.835
405.762	91.4586	405.762	91.3948	405.762	91.0882	405.762	90.8537	405.762	90.4335	405.762	89.8536	405.762	89.811	405.762	88.4706	405.762	89.5895	405.762	86.8665	405.762	89.786	405.762	85.3202	405.762	89.9637	405.762	84.1838	405.762	89.5949	405.762	83.6682	405.762	88.2325	405.762	83.633	405.762	85.5092	405.762	83.6988	405.762	81.6812	405.762	83.5206	405.762	79.8419	405.762	82.9469	405.762	80.4936	405.762	82.1485	405.762	80.2375	405.762	81.7284	405.762	79.0375	405.762	82.1555	405.762	78.621	405.762	82.9345	405.762	79.9125	405.762	83.3036	405.762	81.6656	405.762	82.8942
420.41	91.0821	420.41	90.9444	420.41	90.8547	420.41	90.443	420.41	90.348	420.41	89.6306	420.41	89.7797	420.41	88.5934	420.41	89.4443	420.41	87.4398	420.41	89.4421	420.41	86.2889	420.41	89.5053	420.41	85.267	420.41	89.2027	420.41	84.4985	420.41	88.1416	420.41	84.0395	420.41	85.9871	420.41	83.7857	420.41	82.4764	420.41	83.5111	420.41	77.8748	420.41	83.0353	420.41	74.9931	420.41	82.3925	420.41	75.7086	420.41	81.9501	420.41	77.4139	420.41	82.1571	420.41	79.4179	420.41	82.864	420.41	81.3452	420.41	83.454	420.41	82.7706	420.41	83.48
435.059	90.9888	435.059	90.8982	435.059	90.698	435.059	90.4548	435.059	90.0749	435.059	89.7352	435.059	89.2949	435.059	88.8448	435.059	88.6601	435.059	87.8984	435.059	88.3971	435.059	86.9976	435.059	88.3777	435.059	86.214	435.059	88.2206	435.059	85.5811	435.059	87.5932	435.059	85.0934	435.059	86.3591	435.059	84.7103	435.059	84.6751	435.059	84.3727	435.059	83.067	435.059	84.0366	435.059	82.0549	435.059	83.7108	435.059	81.5711	435.059	83.466	435.059	81.3626	435.059	83.3713	435.059	81.4611	435.059	83.3883	435.059	81.9322	435.059	83.3559	435.059	82.5798	435.059	83.1035
451.172	91.957	451.172	91.6213	451.172	91.93	451.172	90.9464	451.172	91.5429	451.172	89.9855	451.172	90.8271	451.172	88.8278	451.172	89.8523	451.172	87.6016	451.172	88.7352	451.172	86.4591	451.172	87.6241	451.172	85.5272	451.172	86.6457	451.172	84.8416	451.172	85.871	451.172	84.3278	451.172	85.3734	451.172	83.8681	451.172	85.2568	451.172	83.417	451.172	85.4673	451.172	83.0857	451.172	85.7036	451.172	83.0861	451.172	85.6899	451.172	83.4777	451.172	85.3921	451.172	84.0415	451.172	84.9876	451.172	84.4965	451.172	84.702	451.172	84.7041	451.172	84.6341	451.172	84.6974
465.82	92.4812	465.82	91.898	465.82	92.8365	465.82	91.1219	465.82	92.9358	465.82	90.1982	465.82	92.7517	465.82	89.1818	465.82	92.2521	465.82	88.1324	465.82	91.3941	465.82	87.1121	465.82	90.1093	465.82	86.1867	465.82	88.2875	465.82	85.4172	465.82	85.8276	465.82	84.8247	465.82	83.0424	465.82	84.3515	465.82	81.575	465.82	83.876	465.82	82.2735	465.82	83.293	465.82	83.3451	465.82	82.6093	465.82	84.002	465.82	82.0133	465.82	84.3359	465.82	81.8119	465.82	84.4608	465.82	82.1396	465.82	84.3704	465.82	82.7966	465.82	84.0409	465.82	83.4905
483.398	91.4706	483.398	91.2142	483.398	91.664	483.398	90.8097	483.398	91.8309	483.398	90.1833	483.398	91.9255	483.398	89.3167	483.398	91.8448	483.398	88.273	483.398	91.4742	483.398	87.2138	483.398	90.6985	483.398	86.3619	483.398	89.3738	483.398	85.8514	483.398	87.3139	483.398	85.5837	483.398	84.4264	483.398	85.2969	483.398	81.3893	483.398	84.7508	483.398	80.1352	483.398	83.8617	483.398	80.3627	483.398	82.8357	483.398	80.4878	483.398	82.2411	483.398	80.463	483.398	82.4648	483.398	80.7125	483.398	83.0584	483.398	81.4051	483.398	83.3678	483.398	82.344	483.398	83.1086
499.512	92.0815	499.512	91.8042	499.512	92.1597	499.512	91.2067	499.512	92.1708	499.512	90.2312	499.512	92.1684	499.512	88.9025	499.512	92.073	499.512	87.3393	499.512	91.7088	499.512	85.7419	499.512	90.8773	499.512	84.3098	499.512	89.3917	499.512	83.1336	499.512	87.0958	499.512	82.2194	499.512	84.1924	499.512	81.6364	499.512	82.4363	499.512	81.5495	499.512	82.9561	499.512	81.9828	499.512	83.4833	499.512	82.6357	499.512	83.2788	499.512	83.0899	499.512	83.0122	499.512	83.0482	499.512	82.9567	499.512	82.4157	499.512	82.5803	499.512	81.4621	499.512	81.6999	499.512	81.0472
517.09	90.7759	517.09	90.7788	517.09	90.5212	517.09	90.4064	517.09	90.2757	517.09	89.6671	517.09	90.2822	517.09	88.6583	517.09	90.5065	517.09	87.5316	517.09	90.6539	517.09	86.4526	517.09	90.4105	517.09	85.5574	517.09	89.504	517.09	84.9222	517.09	87.5901	517.09	84.5091	517.09	84.3295	517.09	84.1069	517.09	80.8455	517.09	83.4239	517.09	80.5376	517.09	82.3299	517.09	80.5314	517.09	81.2286	517.09	78.4982	517.09	81.1762	517.09	75.1377	517.09	82.248	517.09	72.666	517.09	83.1787	517.09	74.0396	517.09	83.106	517.09	78.405	517.09	81.6136
536.133	92.2353	536.133	91.9133	536.133	92.1033	536.133	91.142	536.133	91.6277	536.133	90.0335	536.133	91.0261	536.133	88.7912	536.133	90.5208	536.133	87.6502	536.133	90.121	536.133	86.776	536.133	89.5229	536.133	86.2061	536.133	88.2373	536.133	85.8903	536.133	85.682	536.133	85.7504	536.133	81.2428	536.133	85.6913	536.133	77.0884	536.133	85.593	536.133	79.351	536.133	85.3376	536.133	81.4159	536.133	84.8746	536.133	82.0206	536.133	84.3167	536.133	81.9038	536.133	83.9842	536.133	81.9258	536.133	84.1217	536.133	82.7495	536.133	84.4684	536.133	83.862	536.133	84.4886
555.176	92.7237	555.176	92.1189	555.176	92.9377	555.176	91.1667	555.176	92.7614	555.176	89.9626	555.176	92.2255	555.176	88.6368	555.176	91.39	555.176	87.3038	555.176	90.3396	555.176	86.013	555.176	89.1446	555.176	84.7494	555.176	87.7928	555.176	83.4891	555.176	86.0898	555.176	82.3324	555.176	83.481	555.176	81.6796	555.176	78.9609	555.176	81.9641	555.176	75.9698	555.176	82.8759	555.176	80.7697	555.176	83.6575	555.176	83.6276	555.176	83.844	555.176	84.4976	555.176	83.3644	555.176	84.3799	555.176	82.5943	555.176	84.0247	555.176	82.3497	555.176	83.5811	555.176	82.9025
574.219	92.3874	574.219	92.1011	574.219	92.8245	574.219	91.802	574.219	93.3161	574.219	91.2645	574.219	93.572	574.219	90.366	574.219	93.3252	574.219	89.1134	574.219	92.4278	574.219	87.6347	574.219	90.8336	574.219	86.1859	574.219	88.5166	574.219	85.0992	574.219	85.4631	574.219	84.4906	574.219	82.6543	574.219	84.0137	574.219	82.4985	574.219	83.1853	574.219	83.3141	574.219	81.94	574.219	83.7349	574.219	81.2768	574.219	84.5201	574.219	82.3135	574.219	85.3243	574.219	83.8037	574.219	85.26	574.219	84.443	574.219	84.1879	574.219	83.979	574.219	82.9083	574.219	82.9577
594.727	91.9342	594.727	91.9429	594.727	91.5153	594.727	91.3676	594.727	91.1443	594.727	90.2916	594.727	91.2306	594.727	88.9916	594.727	91.6172	594.727	87.7998	594.727	91.8136	594.727	86.8041	594.727	91.3903	594.727	85.7513	594.727	89.8599	594.727	84.4396	594.727	86.2623	594.727	83.2385	594.727	77.9447	594.727	82.9682	594.727	77.0586	594.727	83.4801	594.727	81.7036	594.727	83.7786	594.727	80.7293	594.727	83.272	594.727	75.9318	594.727	81.9816	594.727	70.9628	594.727	80.952	594.727	72.0856	594.727	81.4884	594.727	76.3331	594.727	82.4052	594.727	80.2201	594.727	82.1857
615.234	91.4101	615.234	91.3806	615.234	91.2178	615.234	91.0563	615.234	90.9985	615.234	90.4697	615.234	90.9454	615.234	89.6763	615.234	91.0432	615.234	88.6802	615.234	91.0258	615.234	87.4516	615.234	90.5358	615.234	86.0781	615.234	89.2725	615.234	84.912	615.234	86.9888	615.234	84.2926	615.234	83.1616	615.234	84.0066	615.234	75.8284	615.234	83.531	615.234	71.4209	615.234	82.6297	615.234	77.9737	615.234	81.7588	615.234	79.0456	615.234	81.8431	615.234	78.0428	615.234	82.5867	615.234	78.2137	615.234	82.8601	615.234	79.2614	615.234	82.1842	615.234	79.8885	615.234	80.8768
637.207	92.0292	637.207	91.5413	637.207	92.0837	637.207	90.701	637.207	91.7413	637.207	89.6995	637.207	91.1255	637.207	88.7235	637.207	90.4046	637.207	87.7785	637.207	89.7144	637.207	86.6645	637.207	89.0642	637.207	85.1763	637.207	88.2547	637.207	83.4169	637.207	86.8824	637.207	82.1263	637.207	84.6517	637.207	82.0889	637.207	82.3934	637.207	82.7215	637.207	82.1718	637.207	83.0178	637.207	82.7762	637.207	82.6205	637.207	82.3661	637.207	81.843	637.207	80.8242	637.207	81.5322	637.207	79.0404	637.207	81.9497	637.207	78.7566	637.207	82.2289	637.207	80.1989	637.207	81.6578
659.18	92.0114	659.18	91.9443	659.18	92.1274	659.18	91.6561	659.18	92.42	659.18	91.0138	659.18	92.6843	659.18	90.0943	659.18	92.5975	659.18	89.0996	659.18	91.9578	659.18	88.165	659.18	90.6341	659.18	87.1715	659.18	88.3836	659.18	85.7817	659.18	85.043	659.18	83.7368	659.18	82.5623	659.18	81.4107	659.18	83.3933	659.18	80.2469	659.18	84.1742	659.18	80.5591	659.18	84.4277	659.18	81.0074	659.18	84.8584	659.18	81.2974	659.18	84.8246	659.18	81.9248	659.18	84.0402	659.18	82.8478	659.18	83.2034	659.18	83.4261	659.18	83.0516	659.18	83.3724
682.617	92.205	682.617	91.9777	682.617	92.0328	682.617	91.2853	682.617	91.7262	682.617	90.285	682.617	91.5671	682.617	89.2779	682.617	91.6129	682.617	88.4834	682.617	91.7068	682.617	87.9034	682.617	91.3723	682.617	87.4023	682.617	89.6258	682.617	86.7243	682.617	84.6957	682.617	85.5933	682.617	75.1254	682.617	83.9137	682.617	82.8591	682.617	81.853	682.617	84.7431	682.617	80.0079	682.617	82.3957	682.617	79.2813	682.617	76.8029	682.617	79.5016	682.617	75.3018	682.617	79.9604	682.617	78.708	682.617	80.6629	682.617	80.8319	682.617	81.5377	682.617	81.9035	682.617	82.0847
707.52	91.5312	707.52	91.6694	707.52	91.0768	707.52	91.3424	707.52	90.5559	707.52	90.5212	707.52	90.2092	707.52	89.2757	707.52	90.1589	707.52	87.7685	707.52	90.3129	707.52	86.2329	707.52	90.2594	707.52	84.9964	707.52	89.3688	707.52	84.5195	707.52	86.9088	707.52	84.7238	707.52	81.7267	707.52	84.7853	707.52	72.4143	707.52	84.1014	707.52	77.62	707.52	82.6294	707.52	81.472	707.52	81.1335	707.52	82.1559	707.52	80.8069	707.52	80.178	707.52	81.0818	707.52	77.6683	707.52	80.9543	707.52	79.7901	707.52	80.8691	707.52	81.5257	707.52	81.4344
732.422	92.368	732.422	92.0793	732.422	92.2173	732.422	91.3535	732.422	91.7854	732.422	90.3453	732.422	91.3097	732.422	89.2677	732.422	90.9099	732.422	88.2173	732.422	90.4292	732.422	87.1071	732.422	89.5367	732.422	85.8741	732.422	87.9197	732.422	84.7835	732.422	85.2923	732.422	84.3063	732.422	81.2543	732.422	84.4045	732.422	75.67	732.422	84.4745	732.422	75.7988	732.422	83.946	732.422	79.9391	732.422	82.598	732.422	81.5968	732.422	80.9149	732.422	80.9831	732.422	80.2113	732.422	78.8316	732.422	80.5638	732.422	77.1608	732.422	80.6116	732.422	78.021	732.422	79.6915
757.324	92.4905	757.324	92.4281	757.324	92.1359	757.324	91.7076	757.324	91.8416	757.324	90.4414	757.324	91.9118	757.324	89.0386	757.324	92.0971	757.324	87.8254	757.324	91.9477	757.324	86.7461	757.324	91.2442	757.324	85.6562	757.324	89.7853	757.324	84.4629	757.324	87.0326	757.324	83.2289	757.324	82.4055	757.324	82.5805	757.324	76.9048	757.324	83.0692	757.324	76.2264	757.324	83.9335	757.324	80.4097	757.324	84.1792	757.324	82.7842	757.324	83.4763	757.324	82.598	757.324	82.1995	757.324	80.8854	757.324	81.5344	757.324	79.7316	757.324	81.7991	757.324	80.5265	757.324	81.6382
785.156	92.8684	785.156	92.3063	785.156	93.019	785.156	91.7717	785.156	92.4702	785.156	91.4897	785.156	91.2025	785.156	91.2134	785.156	89.6	785.156	90.506	785.156	88.496	785.156	88.9912	785.156	88.402	785.156	86.4319	785.156	88.5451	785.156	83.0521	785.156	87.5594	785.156	81.1214	785.156	84.3215	785.156	82.6839	785.156	78.7816	785.156	84.3018	785.156	77.0321	785.156	84.3348	785.156	75.5178	785.156	82.6572	785.156	71.472	785.156	80.4596	785.156	77.1822	785.156	80.9912	785.156	80.1781	785.156	82.5107	785.156	80.8005	785.156	82.7281	785.156	81.0131	785.156	81.8699
811.523	91.884	811.523	91.5347	811.523	91.981	811.523	91.2425	811.523	91.5465	811.523	91.0027	811.523	90.6847	811.523	90.5998	811.523	89.8375	811.523	89.9231	811.523	89.1559	811.523	89.0037	811.523	88.3945	811.523	87.7969	811.523	87.4997	811.523	86.0323	811.523	86.4961	811.523	83.1964	811.523	84.9796	811.523	78.2274	811.523	82.4118	811.523	72.0864	811.523	79.5375	811.523	78.0847	811.523	78.0003	811.523	81.7746	811.523	76.0875	811.523	82.6619	811.523	71.6298	811.523	81.6006	811.523	69.5785	811.523	79.8155	811.523	76.5074	811.523	79.8083	811.523	79.9995	811.523	80.7098
840.82	91.8589	840.82	91.9155	840.82	91.6463	840.82	91.5311	840.82	91.6264	840.82	90.6843	840.82	91.8666	840.82	89.5795	840.82	92.0623	840.82	88.4156	840.82	91.8978	840.82	87.1758	840.82	91.2246	840.82	85.7446	840.82	89.6132	840.82	84.1684	840.82	86.59	840.82	82.8212	840.82	84.9058	840.82	82.356	840.82	86.0995	840.82	82.9253	840.82	85.6708	840.82	83.6576	840.82	83.913	840.82	83.6429	840.82	82.8746	840.82	82.6817	840.82	81.275	840.82	81.4542	840.82	77.9951	840.82	81.0123	840.82	75.8142	840.82	80.9715	840.82	77.731	840.82	80.0323
870.117	92.1349	870.117	92.113	870.117	91.5165	870.117	91.6218	870.117	90.4471	870.117	91.0014	870.117	89.526	870.117	90.2941	870.117	89.4162	870.117	89.1965	870.117	89.9465	870.117	87.5966	870.117	90.436	870.117	85.9	870.117	89.7607	870.117	84.6921	870.117	85.6017	870.117	83.7321	870.117	71.8142	870.117	81.5844	870.117	84.0003	870.117	77.1732	870.117	85.0786	870.117	77.4023	870.117	80.4506	870.117	80.5961	870.117	73.3301	870.117	81.2073	870.117	72.8044	870.117	79.7713	870.117	76.6454	870.117	78.6107	870.117	78.7684	870.117	80.487	870.117	80.3089	870.117	81.4524
900.879	91.5102	900.879	91.7506	900.879	91.5524	900.879	92.2904	900.879	91.2951	900.879	92.384	900.879	90.3601	900.879	91.5627	900.879	88.5961	900.879	89.9652	900.879	86.532	900.879	88.1218	900.879	85.7177	900.879	86.509	900.879	86.3347	900.879	85.0777	900.879	85.8831	900.879	84.4497	900.879	82.0768	900.879	84.7491	900.879	78.5042	900.879	83.9483	900.879	79.4268	900.879	80.814	900.879	80.3919	900.879	73.2603	900.879	82.0907	900.879	76.3772	900.879	80.9152	900.879	81.5198	900.879	79.3675	900.879	81.8788	900.879	81.2568	900.879	79.6607	900.879	81.675	900.879	79.7792
933.105	91.8421	933.105	92.0769	933.105	91.4891	933.105	91.9989	933.105	91.1535	933.105	91.5197	933.105	90.8867	933.105	90.661	933.105	90.8258	933.105	89.4171	933.105	90.9908	933.105	87.7277	933.105	90.8453	933.105	85.6447	933.105	89.7095	933.105	83.2426	933.105	87.315	933.105	80.6822	933.105	83.9297	933.105	79.3904	933.105	80.149	933.105	80.8857	933.105	74.3634	933.105	83.0878	933.105	72.044	933.105	83.6859	933.105	78.4728	933.105	82.3213	933.105	78.6865	933.105	80.3003	933.105	73.9689	933.105	79.9449	933.105	67.9762	933.105	79.8263	933.105	72.1482	933.105	77.4827
965.332	91.8119	965.332	92.7589	965.332	90.3595	965.332	92.922	965.332	89.161	965.332	92.359	965.332	89.0659	965.332	91.3082	965.332	90.0737	965.332	89.9872	965.332	91.2535	965.332	88.4041	965.332	91.6547	965.332	86.4507	965.332	90.777	965.332	84.2975	965.332	88.0611	965.332	82.8639	965.332	82.428	965.332	83.09	965.332	74.7756	965.332	83.826	965.332	75.2868	965.332	83.6884	965.332	74.9002	965.332	82.4871	965.332	73.0455	965.332	80.9077	965.332	71.395	965.332	80.4222	965.332	71.9221	965.332	81.3962	965.332	74.96	965.332	82.0564	965.332	78.6519	965.332	81.2151
1,000.49	91.4276	1,000.49	92.3935	1,000.49	90.6827	1,000.49	93.1264	1,000.49	90.48	1,000.49	93.1097	1,000.49	90.8832	1,000.49	91.9874	1,000.49	91.2113	1,000.49	89.7814	1,000.49	90.8536	1,000.49	87.2363	1,000.49	90.3333	1,000.49	85.7038	1,000.49	89.7862	1,000.49	85.4185	1,000.49	87.831	1,000.49	84.7626	1,000.49	83.8201	1,000.49	82.1674	1,000.49	78.8422	1,000.49	78.3142	1,000.49	75.5216	1,000.49	79.7705	1,000.49	78.8823	1,000.49	82.5536	1,000.49	82.5567	1,000.49	83.6331	1,000.49	83.2809	1,000.49	83.197	1,000.49	79.8428	1,000.49	81.8406	1,000.49	75.269	1,000.49	81.3705	1,000.49	80.1899	1,000.49	81.7854
1,035.64	91.7968	1,035.64	92.515	1,035.64	90.9027	1,035.64	92.6891	1,035.64	90.414	1,035.64	92.3124	1,035.64	90.4433	1,035.64	91.5015	1,035.64	90.4042	1,035.64	90.3704	1,035.64	90.4495	1,035.64	88.919	1,035.64	91.1132	1,035.64	86.7918	1,035.64	90.9109	1,035.64	84.7948	1,035.64	87.7988	1,035.64	84.3592	1,035.64	80.0786	1,035.64	83.6079	1,035.64	81.6569	1,035.64	82.0758	1,035.64	81.9736	1,035.64	81.1209	1,035.64	76.7332	1,035.64	81.1151	1,035.64	82.0517	1,035.64	81.5779	1,035.64	83.2253	1,035.64	82.2757	1,035.64	78.1548	1,035.64	82.4942	1,035.64	68.2899	1,035.64	81.1922	1,035.64	72.7601	1,035.64	77.519
1,072.27	90.8164	1,072.27	91.9193	1,072.27	89.0715	1,072.27	92.2071	1,072.27	87.5229	1,072.27	91.7304	1,072.27	87.421	1,072.27	90.5711	1,072.27	88.9073	1,072.27	88.9278	1,072.27	90.6471	1,072.27	87.3611	1,072.27	91.4628	1,072.27	86.3059	1,072.27	90.8685	1,072.27	85.3887	1,072.27	88.375	1,072.27	84.0969	1,072.27	81.9935	1,072.27	82.0569	1,072.27	62.5362	1,072.27	79.9155	1,072.27	78.6276	1,072.27	78.535	1,072.27	77.4036	1,072.27	77.6269	1,072.27	71.8379	1,072.27	78.7275	1,072.27	60.2582	1,072.27	80.2701	1,072.27	69.9669	1,072.27	80.5103	1,072.27	74.513	1,072.27	79.6435	1,072.27	75.4204	1,072.27	77.876
1,108.89	91.0478	1,108.89	92.1669	1,108.89	89.7133	1,108.89	92.4785	1,108.89	89.127	1,108.89	91.8797	1,108.89	89.7386	1,108.89	90.5634	1,108.89	90.6907	1,108.89	88.8784	1,108.89	90.7867	1,108.89	87.308	1,108.89	90.0858	1,108.89	86.2646	1,108.89	89.6403	1,108.89	85.4602	1,108.89	88.6488	1,108.89	83.5283	1,108.89	85.2418	1,108.89	78.9394	1,108.89	76.9	1,108.89	76.5063	1,108.89	71.9783	1,108.89	79.4176	1,108.89	78.295	1,108.89	80.4917	1,108.89	80.8072	1,108.89	80.3898	1,108.89	81.6153	1,108.89	80.6045	1,108.89	80.0313	1,108.89	81.5008	1,108.89	77.1457	1,108.89	81.4418	1,108.89	77.8824	1,108.89	80.0429
1,148.44	90.7816	1,148.44	91.971	1,148.44	89.4138	1,148.44	92.134	1,148.44	88.7585	1,148.44	91.1678	1,148.44	88.8181	1,148.44	89.9047	1,148.44	88.6202	1,148.44	89.2494	1,148.44	88.1981	1,148.44	88.4128	1,148.44	88.8403	1,148.44	86.0098	1,148.44	89.1204	1,148.44	82.683	1,148.44	86.8956	1,148.44	81.0284	1,148.44	80.7682	1,148.44	81.2532	1,148.44	75.1483	1,148.44	80.7281	1,148.44	74.5294	1,148.44	77.5213	1,148.44	67.6865	1,148.44	76.7783	1,148.44	70.0127	1,148.44	78.6476	1,148.44	74.1518	1,148.44	78.6019	1,148.44	70.6066	1,148.44	78.7216	1,148.44	68.9248	1,148.44	79.3023	1,148.44	74.1596	1,148.44	77.9648
1,189.45	91.2	1,189.45	91.8663	1,189.45	90.4019	1,189.45	91.92	1,189.45	90.1233	1,189.45	91.2375	1,189.45	90.5434	1,189.45	89.9894	1,189.45	91.1617	1,189.45	88.5339	1,189.45	91.4568	1,189.45	87.046	1,189.45	91.1463	1,189.45	85.1596	1,189.45	89.6898	1,189.45	82.487	1,189.45	85.8958	1,189.45	79.7678	1,189.45	77.6334	1,189.45	80.6003	1,189.45	45.9339	1,189.45	81.39	1,189.45	69.5652	1,189.45	79.7608	1,189.45	72.0767	1,189.45	77.8281	1,189.45	75.9947	1,189.45	78.5032	1,189.45	78.3808	1,189.45	79.3426	1,189.45	77.005	1,189.45	79.5232	1,189.45	74.0316	1,189.45	79.7048	1,189.45	75.9123	1,189.45	78.8604
1,230.47	91.1929	1,230.47	91.7958	1,230.47	90.2253	1,230.47	91.9497	1,230.47	89.2026	1,230.47	91.5623	1,230.47	88.5508	1,230.47	90.4709	1,230.47	88.6081	1,230.47	88.6047	1,230.47	89.3882	1,230.47	86.2499	1,230.47	89.9876	1,230.47	84.1303	1,230.47	89.6	1,230.47	82.6678	1,230.47	87.7189	1,230.47	81.0973	1,230.47	83.2341	1,230.47	78.8847	1,230.47	78.37	1,230.47	77.7103	1,230.47	78.3255	1,230.47	77.9242	1,230.47	75.6041	1,230.47	78.4639	1,230.47	74.3236	1,230.47	79.5857	1,230.47	77.7007	1,230.47	80.5852	1,230.47	77.2929	1,230.47	80.9838	1,230.47	75.6012	1,230.47	81.3777	1,230.47	77.8764	1,230.47	80.8426
1,274.41	90.3558	1,274.41	91.9114	1,274.41	88.9546	1,274.41	92.2749	1,274.41	89.1115	1,274.41	91.5134	1,274.41	89.9498	1,274.41	90.6884	1,274.41	90.2213	1,274.41	90.0736	1,274.41	89.9144	1,274.41	88.6079	1,274.41	89.6045	1,274.41	85.7542	1,274.41	89.7451	1,274.41	82.8842	1,274.41	88.9305	1,274.41	81.3698	1,274.41	84.0144	1,274.41	79.0817	1,274.41	74.4293	1,274.41	75.5583	1,274.41	78.5947	1,274.41	77.8204	1,274.41	76.3551	1,274.41	79.5446	1,274.41	75.0839	1,274.41	77.8172	1,274.41	75.8947	1,274.41	77.2099	1,274.41	74.6665	1,274.41	79.5647	1,274.41	68.759	1,274.41	79.0934	1,274.41	66.9253	1,274.41	74.797
1,319.82	91.4029	1,319.82	92.3742	1,319.82	89.9204	1,319.82	92.2075	1,319.82	89.1159	1,319.82	91.3714	1,319.82	89.398	1,319.82	90.6359	1,319.82	90.191	1,319.82	89.4038	1,319.82	90.8959	1,319.82	87.0714	1,319.82	91.0033	1,319.82	84.3336	1,319.82	90.1311	1,319.82	82.0897	1,319.82	87.3976	1,319.82	79.2972	1,319.82	81.9485	1,319.82	75.7482	1,319.82	80.3911	1,319.82	75.7776	1,319.82	77.373	1,319.82	76.6594	1,319.82	76.729	1,319.82	75.8648	1,319.82	71.7316	1,319.82	77.6253	1,319.82	75.5866	1,319.82	79.761	1,319.82	76.8846	1,319.82	80.2314	1,319.82	76.9056	1,319.82	81.5257	1,319.82	79.0953	1,319.82	81.9494
1,366.7	90.2096	1,366.7	91.6922	1,366.7	87.9955	1,366.7	91.8095	1,366.7	87.7311	1,366.7	91.2964	1,366.7	89.6093	1,366.7	90.5999	1,366.7	90.4438	1,366.7	88.9395	1,366.7	89.8482	1,366.7	86.6454	1,366.7	89.1667	1,366.7	85.6293	1,366.7	89.1691	1,366.7	85.5218	1,366.7	88.547	1,366.7	85.6236	1,366.7	81.6217	1,366.7	85.4123	1,366.7	79.4213	1,366.7	81.9326	1,366.7	81.3254	1,366.7	69.2386	1,366.7	75.4987	1,366.7	74.5312	1,366.7	78.2278	1,366.7	76.8651	1,366.7	78.0623	1,366.7	75.8633	1,366.7	72.963	1,366.7	80.0623	1,366.7	72.1665	1,366.7	80.4175	1,366.7	76.0647	1,366.7	78.1506
1,413.57	90.8883	1,413.57	91.1016	1,413.57	89.9324	1,413.57	91.0311	1,413.57	88.7494	1,413.57	90.6251	1,413.57	88.7558	1,413.57	89.1418	1,413.57	90.0422	1,413.57	87.7776	1,413.57	91.0677	1,413.57	87.3896	1,413.57	90.3205	1,413.57	85.2797	1,413.57	88.2586	1,413.57	81.275	1,413.57	87.0076	1,413.57	75.9304	1,413.57	82.991	1,413.57	75.5078	1,413.57	71.2177	1,413.57	78.929	1,413.57	76.8706	1,413.57	81.1239	1,413.57	77.5037	1,413.57	78.7803	1,413.57	74.86	1,413.57	77.5101	1,413.57	76.5823	1,413.57	79.2379	1,413.57	78.9607	1,413.57	78.5915	1,413.57	77.5238	1,413.57	79.0506	1,413.57	76.5616	1,413.57	78.9651
1,463.38	90.0636	1,463.38	90.717	1,463.38	88.7342	1,463.38	90.6842	1,463.38	88.0095	1,463.38	90.5592	1,463.38	88.4668	1,463.38	89.827	1,463.38	89.1252	1,463.38	87.7094	1,463.38	89.8075	1,463.38	85.6261	1,463.38	89.5819	1,463.38	85.3849	1,463.38	88.4874	1,463.38	84.7091	1,463.38	87.4721	1,463.38	80.8909	1,463.38	80.0748	1,463.38	70.2633	1,463.38	76.8806	1,463.38	70.8993	1,463.38	75.4482	1,463.38	75.5188	1,463.38	72.1865	1,463.38	75.9217	1,463.38	76.2516	1,463.38	74.6198	1,463.38	76.9609	1,463.38	76.1201	1,463.38	73.199	1,463.38	79.5921	1,463.38	72.7172	1,463.38	80.1427	1,463.38	76.2898	1,463.38	78.5007
1,516.11	90.9547	1,516.11	90.3985	1,516.11	90.8074	1,516.11	89.9926	1,516.11	89.3074	1,516.11	89.8005	1,516.11	87.2142	1,516.11	88.9506	1,516.11	87.3669	1,516.11	87.6311	1,516.11	88.5501	1,516.11	86.7874	1,516.11	88.7152	1,516.11	85.7029	1,516.11	88.3004	1,516.11	82.9678	1,516.11	86.7253	1,516.11	79.4582	1,516.11	80.9496	1,516.11	80.5017	1,516.11	79.5796	1,516.11	79.225	1,516.11	77.6227	1,516.11	70.1924	1,516.11	76.3388	1,516.11	76.4386	1,516.11	73.5377	1,516.11	79.9031	1,516.11	73.4717	1,516.11	77.5001	1,516.11	77.7086	1,516.11	76.622	1,516.11	76.4967	1,516.11	78.1162	1,516.11	74.9286	1,516.11	76.9659
1,568.85	90.3637	1,568.85	90.4402	1,568.85	89.9978	1,568.85	90.1487	1,568.85	88.8096	1,568.85	88.9477	1,568.85	87.7455	1,568.85	87.9284	1,568.85	88.1518	1,568.85	87.6246	1,568.85	89.071	1,568.85	85.773	1,568.85	89.3742	1,568.85	81.642	1,568.85	88.8332	1,568.85	80.9222	1,568.85	87.6545	1,568.85	83.5453	1,568.85	79.7275	1,568.85	80.8516	1,568.85	77.5375	1,568.85	67.3989	1,568.85	76.7338	1,568.85	75.2202	1,568.85	71.5255	1,568.85	75.447	1,568.85	75.2218	1,568.85	73.7614	1,568.85	77.8343	1,568.85	76.0535	1,568.85	77.2068	1,568.85	76.0067	1,568.85	74.501	1,568.85	78.9244	1,568.85	77.9844	1,568.85	79.6851
1,624.51	90.7438	1,624.51	90.2298	1,624.51	90.6664	1,624.51	89.7843	1,624.51	89.2698	1,624.51	89.1049	1,624.51	86.737	1,624.51	88.1454	1,624.51	84.4305	1,624.51	86.9173	1,624.51	86.1207	1,624.51	84.5019	1,624.51	88.0927	1,624.51	81.6596	1,624.51	87.7595	1,624.51	79.9501	1,624.51	86.5179	1,624.51	77.3747	1,624.51	82.3948	1,624.51	74.7977	1,624.51	76.3119	1,624.51	76.8143	1,624.51	72.8401	1,624.51	71.3119	1,624.51	71.7265	1,624.51	74.1091	1,624.51	72.6521	1,624.51	76.7787	1,624.51	63.5229	1,624.51	75.6341	1,624.51	68.3711	1,624.51	77.0634	1,624.51	72.8121	1,624.51	77.3774	1,624.51	72.661	1,624.51	74.6916
1,681.64	89.362	1,681.64	89.7872	1,681.64	88.5471	1,681.64	89.2206	1,681.64	87.7205	1,681.64	88.335	1,681.64	86.5574	1,681.64	88.0749	1,681.64	86.7495	1,681.64	87.3344	1,681.64	87.8798	1,681.64	84.9111	1,681.64	88.5979	1,681.64	81.0998	1,681.64	89.1864	1,681.64	77.2597	1,681.64	87.261	1,681.64	65.9336	1,681.64	75.7415	1,681.64	75.3442	1,681.64	77.3778	1,681.64	76.2433	1,681.64	73.402	1,681.64	76.6909	1,681.64	72.3271	1,681.64	73.3467	1,681.64	74.3848	1,681.64	75.1275	1,681.64	72.8192	1,681.64	74.6824	1,681.64	74.5226	1,681.64	76.8699	1,681.64	74.7426	1,681.64	77.8328	1,681.64	77.9477	1,681.64	78.0563
1,741.7	90.1208	1,741.7	89.6751	1,741.7	89.3252	1,741.7	88.613	1,741.7	87.4573	1,741.7	87.6906	1,741.7	85.8024	1,741.7	86.6886	1,741.7	85.785	1,741.7	84.561	1,741.7	86.2143	1,741.7	82.3108	1,741.7	87.3077	1,741.7	82.3052	1,741.7	87.4982	1,741.7	81.8389	1,741.7	87.0055	1,741.7	81.9527	1,741.7	80.6536	1,741.7	79.185	1,741.7	72.6978	1,741.7	68.7311	1,741.7	75.4495	1,741.7	70.7855	1,741.7	71.8269	1,741.7	71.8428	1,741.7	67.4669	1,741.7	73.5174	1,741.7	73.5215	1,741.7	76.9321	1,741.7	58.0993	1,741.7	73.5482	1,741.7	70.4053	1,741.7	72.7649	1,741.7	74.487	1,741.7	72.4392
1,803.22	89.1012	1,803.22	88.9022	1,803.22	88.2091	1,803.22	88.205	1,803.22	85.9502	1,803.22	87.3459	1,803.22	82.8029	1,803.22	85.7576	1,803.22	83.3541	1,803.22	84.4364	1,803.22	85.6784	1,803.22	82.7924	1,803.22	87.6242	1,803.22	78.9456	1,803.22	88.6414	1,803.22	78.9892	1,803.22	87.6903	1,803.22	75.1061	1,803.22	81.3001	1,803.22	64.1906	1,803.22	78.0931	1,803.22	74.803	1,803.22	72.3332	1,803.22	75.2698	1,803.22	68.8607	1,803.22	62.7052	1,803.22	65.6377	1,803.22	72.0314	1,803.22	64.4407	1,803.22	73.5245	1,803.22	73.3083	1,803.22	76.7513	1,803.22	74.9351	1,803.22	77.2387	1,803.22	76.1003	1,803.22	76.6261
1,866.21	90.2	1,866.21	89.0463	1,866.21	90.3336	1,866.21	88.0438	1,866.21	87.1061	1,866.21	85.6167	1,866.21	82.9566	1,866.21	83.681	1,866.21	83.8842	1,866.21	82.8632	1,866.21	86.0348	1,866.21	80.1863	1,866.21	87.3681	1,866.21	77.9719	1,866.21	88.3601	1,866.21	79.654	1,866.21	88.1334	1,866.21	79.502	1,866.21	80.6365	1,866.21	79.5949	1,866.21	79.667	1,866.21	75.0859	1,866.21	77.3992	1,866.21	65.086	1,866.21	74.1081	1,866.21	71.5594	1,866.21	72.734	1,866.21	75.1142	1,866.21	74.7295	1,866.21	75.9694	1,866.21	71.35	1,866.21	72.1607	1,866.21	69.1159	1,866.21	69.454	1,866.21	76.4664	1,866.21	73.4484
1,932.13	90.2339	1,932.13	89.2614	1,932.13	89.25	1,932.13	87.2696	1,932.13	85.6372	1,932.13	84.2056	1,932.13	82.3342	1,932.13	80.202	1,932.13	82.7387	1,932.13	79.8692	1,932.13	85.1731	1,932.13	82.1672	1,932.13	87.7116	1,932.13	80.916	1,932.13	88.3304	1,932.13	77.6418	1,932.13	88.3633	1,932.13	78.1321	1,932.13	83.4823	1,932.13	77.0287	1,932.13	71.3947	1,932.13	70.0081	1,932.13	76.8256	1,932.13	73.8205	1,932.13	73.0359	1,932.13	73.008	1,932.13	69.1904	1,932.13	73.6431	1,932.13	73.8754	1,932.13	77.2461	1,932.13	50.2884	1,932.13	77.4365	1,932.13	73.9759	1,932.13	75.0609	1,932.13	70.7228	1,932.13	67.7837
1,999.51	89.4982	1,999.51	89.8593	1,999.51	87.4001	1,999.51	87.7962	1,999.51	83.9591	1,999.51	83.9853	1,999.51	81.0832	1,999.51	78.5328	1,999.51	83.3297	1,999.51	77.5316	1,999.51	85.9453	1,999.51	80.0869	1,999.51	87.8428	1,999.51	78.3577	1,999.51	88.7153	1,999.51	77.4152	1,999.51	88.7502	1,999.51	82.3978	1,999.51	77.7761	1,999.51	82.8524	1,999.51	79.7925	1,999.51	71.9046	1,999.51	72.9236	1,999.51	72.15	1,999.51	71.7017	1,999.51	74.0298	1,999.51	63.3906	1,999.51	73.6801	1,999.51	66.5879	1,999.51	70.2805	1,999.51	63.2389	1,999.51	68.9313	1,999.51	71.9216	1,999.51	72.0686	1,999.51	78.2598	1,999.51	75.4134
2,069.82	90.2427	2,069.82	90.7885	2,069.82	88.0027	2,069.82	88.3594	2,069.82	82.791	2,069.82	82.1741	2,069.82	78.3849	2,069.82	72.5207	2,069.82	82.5785	2,069.82	78.7562	2,069.82	86.4093	2,069.82	81.0085	2,069.82	88.2978	2,069.82	79.9417	2,069.82	88.4774	2,069.82	77.1678	2,069.82	89.5106	2,069.82	80.3232	2,069.82	82.2596	2,069.82	81.746	2,069.82	74.9683	2,069.82	77.5659	2,069.82	74.5194	2,069.82	76.6455	2,069.82	67.3236	2,069.82	72.9554	2,069.82	69.4764	2,069.82	74.5737	2,069.82	67.6281	2,069.82	77.8366	2,069.82	60.4495	2,069.82	74.6734	2,069.82	68.8502	2,069.82	69.7924	2,069.82	69.8913	2,069.82	69.9781
2,143.07	90.5533	2,143.07	90.3712	2,143.07	88.2599	2,143.07	88.5868	2,143.07	81.7192	2,143.07	82.0715	2,143.07	80.2463	2,143.07	67.4182	2,143.07	81.8183	2,143.07	79.4894	2,143.07	86.7736	2,143.07	81.6042	2,143.07	88.4562	2,143.07	81.5549	2,143.07	89.9572	2,143.07	83.2292	2,143.07	90.133	2,143.07	82.7296	2,143.07	76.0934	2,143.07	73.3778	2,143.07	76.3175	2,143.07	73.8892	2,143.07	72.3971	2,143.07	77.8879	2,143.07	67.7983	2,143.07	70.3166	2,143.07	70.465	2,143.07	76.1199	2,143.07	73.3477	2,143.07	74.6331	2,143.07	68.5031	2,143.07	78.1095	2,143.07	71.4129	2,143.07	74.3252	2,143.07	74.4258	2,143.07	72.4809
2,219.24	90.4879	2,219.24	91.2282	2,219.24	88.1062	2,219.24	88.1478	2,219.24	83.2728	2,219.24	79.3972	2,219.24	80.6493	2,219.24	67.31	2,219.24	83.9193	2,219.24	79.7076	2,219.24	85.862	2,219.24	84.5643	2,219.24	87.7735	2,219.24	81.5783	2,219.24	88.6994	2,219.24	81.5597	2,219.24	87.5014	2,219.24	82.285	2,219.24	83.2845	2,219.24	80.5274	2,219.24	77.3347	2,219.24	77.9474	2,219.24	70.2657	2,219.24	58.7933	2,219.24	71.7654	2,219.24	76.3439	2,219.24	71.319	2,219.24	75.8943	2,219.24	64.539	2,219.24	76.7399	2,219.24	66.09	2,219.24	70.1207	2,219.24	69.63	2,219.24	70.1914	2,219.24	76.5889	2,219.24	73.8285
2,296.88	91.2151	2,296.88	91.8191	2,296.88	89.0674	2,296.88	87.9852	2,296.88	83.6391	2,296.88	79.8312	2,296.88	78.2651	2,296.88	75.2441	2,296.88	84.5263	2,296.88	84.208	2,296.88	85.4603	2,296.88	85.3566	2,296.88	88.6806	2,296.88	85.0371	2,296.88	89.2636	2,296.88	83.7939	2,296.88	88.3556	2,296.88	76.5632	2,296.88	82.3542	2,296.88	75.5288	2,296.88	72.0404	2,296.88	79.2923	2,296.88	69.3639	2,296.88	75.2657	2,296.88	66.2597	2,296.88	75.7706	2,296.88	72.5475	2,296.88	77.0619	2,296.88	62.9832	2,296.88	76.9151	2,296.88	63.2372	2,296.88	76.9473	2,296.88	75.5242	2,296.88	68.4963	2,296.88	74.1938	2,296.88	72.1768
2,378.91	90.3328	2,378.91	90.7674	2,378.91	87.1727	2,378.91	87.7554	2,378.91	81.4709	2,378.91	80.7452	2,378.91	76.6585	2,378.91	79.4911	2,378.91	84.9456	2,378.91	84.6781	2,378.91	87.1015	2,378.91	84.1175	2,378.91	88.3783	2,378.91	83.7563	2,378.91	88.7823	2,378.91	83.3035	2,378.91	87.8276	2,378.91	76.8426	2,378.91	80.1339	2,378.91	68.291	2,378.91	77.7885	2,378.91	77.7258	2,378.91	67.7672	2,378.91	76.668	2,378.91	72.8392	2,378.91	73.6886	2,378.91	66.0513	2,378.91	75.3631	2,378.91	59.3904	2,378.91	75.8659	2,378.91	65.7572	2,378.91	73.9064	2,378.91	65.6674	2,378.91	74.5393	2,378.91	71.0775	2,378.91	64.1774
2,462.4	90.2239	2,462.4	90.6967	2,462.4	85.3824	2,462.4	87.7507	2,462.4	78.8711	2,462.4	81.1078	2,462.4	77.9498	2,462.4	83.5795	2,462.4	86.5697	2,462.4	84.6544	2,462.4	87.7932	2,462.4	85.1359	2,462.4	88.2503	2,462.4	81.8071	2,462.4	89.729	2,462.4	82.8482	2,462.4	86.7178	2,462.4	83.6032	2,462.4	82.659	2,462.4	81.7018	2,462.4	79.3036	2,462.4	76.0591	2,462.4	73.7537	2,462.4	73.9088	2,462.4	72.2756	2,462.4	71.1047	2,462.4	72.7222	2,462.4	71.5329	2,462.4	64.5954	2,462.4	74.819	2,462.4	68.1252	2,462.4	73.3395	2,462.4	69.4644	2,462.4	68.4972	2,462.4	70.4921	2,462.4	57.0678
2,548.83	91.9692	2,548.83	91.4479	2,548.83	88.4801	2,548.83	88.8886	2,548.83	81.2893	2,548.83	84.4988	2,548.83	80.1895	2,548.83	84.7168	2,548.83	87.04	2,548.83	86.5132	2,548.83	87.0297	2,548.83	85.5499	2,548.83	88.5335	2,548.83	83.915	2,548.83	87.3528	2,548.83	85.3384	2,548.83	89.7396	2,548.83	82.8108	2,548.83	84.6064	2,548.83	80.8351	2,548.83	72.821	2,548.83	77.9311	2,548.83	60.3757	2,548.83	77.1326	2,548.83	71.1379	2,548.83	74.5823	2,548.83	70.7898	2,548.83	74.9975	2,548.83	71.4007	2,548.83	74.2854	2,548.83	67.9933	2,548.83	76.6289	2,548.83	72.6849	2,548.83	68.0807	2,548.83	74.5729	2,548.83	68.031
2,639.65	91.4326	2,639.65	91.3848	2,639.65	88.8851	2,639.65	89.0715	2,639.65	84.0195	2,639.65	84.8004	2,639.65	81.7847	2,639.65	85.5842	2,639.65	88.5696	2,639.65	86.5838	2,639.65	88.7993	2,639.65	84.5839	2,639.65	87.5844	2,639.65	86.33	2,639.65	88.1902	2,639.65	78.6051	2,639.65	87.9558	2,639.65	77.4608	2,639.65	78.2196	2,639.65	76.4168	2,639.65	78.3021	2,639.65	79.0736	2,639.65	66.0058	2,639.65	72.2084	2,639.65	71.2019	2,639.65	76.1309	2,639.65	73.6289	2,639.65	71.8823	2,639.65	65.4434	2,639.65	75.5054	2,639.65	64.4549	2,639.65	74.4541	2,639.65	73.2617	2,639.65	71.5267	2,639.65	73.4651	2,639.65	67.446
2,731.93	91.9253	2,731.93	92.2114	2,731.93	89.0759	2,731.93	89.477	2,731.93	86.3808	2,731.93	87.0916	2,731.93	86.0411	2,731.93	87.6	2,731.93	87.8222	2,731.93	86.2299	2,731.93	88.6824	2,731.93	86.6817	2,731.93	88.0034	2,731.93	83.1629	2,731.93	87.0655	2,731.93	83.2617	2,731.93	88.058	2,731.93	83.684	2,731.93	83.5154	2,731.93	79.4976	2,731.93	73.7808	2,731.93	78.1526	2,731.93	68.1551	2,731.93	77.8042	2,731.93	73.3912	2,731.93	74.0911	2,731.93	69.4598	2,731.93	73.8683	2,731.93	72.6175	2,731.93	76.2996	2,731.93	62.6488	2,731.93	72.847	2,731.93	74.7885	2,731.93	62.5418	2,731.93	74.4258	2,731.93	63.8202
2,828.61	90.5537	2,828.61	90.8972	2,828.61	88.4029	2,828.61	89.3268	2,828.61	86.7522	2,828.61	88.3738	2,828.61	88.012	2,828.61	87.7554	2,828.61	88.3672	2,828.61	87.0919	2,828.61	88.3545	2,828.61	86.7769	2,828.61	87.7239	2,828.61	84.097	2,828.61	87.6462	2,828.61	86.3461	2,828.61	87.6521	2,828.61	81.6042	2,828.61	75.7075	2,828.61	82.4363	2,828.61	75.7783	2,828.61	72.8056	2,828.61	73.3791	2,828.61	78.3327	2,828.61	69.5618	2,828.61	70.0335	2,828.61	71.7275	2,828.61	73.8552	2,828.61	69.7057	2,828.61	75.1663	2,828.61	62.4409	2,828.61	74.5439	2,828.61	74.5599	2,828.61	62.5996	2,828.61	74.3255	2,828.61	65.958
2,928.22	91.4211	2,928.22	92.2528	2,928.22	89.4695	2,928.22	90.6167	2,928.22	87.8259	2,928.22	88.1889	2,928.22	88.8719	2,928.22	86.7283	2,928.22	87.9919	2,928.22	88.7157	2,928.22	86.7038	2,928.22	85.2628	2,928.22	86.3562	2,928.22	86.5617	2,928.22	87.2759	2,928.22	76.379	2,928.22	87.1607	2,928.22	79.5588	2,928.22	80.4096	2,928.22	75.5464	2,928.22	74.3343	2,928.22	82.6423	2,928.22	73.4253	2,928.22	68.2024	2,928.22	70.193	2,928.22	77.2787	2,928.22	71.1904	2,928.22	71.8227	2,928.22	72.0931	2,928.22	74.7996	2,928.22	61.2483	2,928.22	76.126	2,928.22	75.524	2,928.22	73.1686	2,928.22	72.3329	2,928.22	67.4538
3,030.76	92.3359	3,030.76	91.9646	3,030.76	89.5865	3,030.76	90.3985	3,030.76	89.1053	3,030.76	87.9449	3,030.76	90.4178	3,030.76	88.7715	3,030.76	89.197	3,030.76	87.1074	3,030.76	87.0163	3,030.76	87.4244	3,030.76	85.3201	3,030.76	82.6824	3,030.76	85.4493	3,030.76	85.2682	3,030.76	87.5761	3,030.76	84.0423	3,030.76	79.1259	3,030.76	81.5807	3,030.76	65.5011	3,030.76	70.6202	3,030.76	73.0861	3,030.76	78.9633	3,030.76	67.8659	3,030.76	72.6147	3,030.76	72.7751	3,030.76	72.0723	3,030.76	69.1463	3,030.76	76.812	3,030.76	63.4217	3,030.76	73.7926	3,030.76	71.5847	3,030.76	67.7623	3,030.76	71.3688	3,030.76	48.8245
3,137.7	91.1042	3,137.7	92.9166	3,137.7	89.9408	3,137.7	91.6289	3,137.7	90.1853	3,137.7	89.3245	3,137.7	90.7108	3,137.7	88.4882	3,137.7	88.2546	3,137.7	87.6421	3,137.7	86.5165	3,137.7	86.3246	3,137.7	84.1515	3,137.7	85.7495	3,137.7	84.6178	3,137.7	84.0413	3,137.7	88.5873	3,137.7	78.4522	3,137.7	80.3506	3,137.7	81.3435	3,137.7	60.0826	3,137.7	81.285	3,137.7	66.2773	3,137.7	73.0742	3,137.7	65.7448	3,137.7	73.0837	3,137.7	70.9297	3,137.7	72.4973	3,137.7	71.4536	3,137.7	74.1929	3,137.7	61.4714	3,137.7	76.2882	3,137.7	74.5106	3,137.7	67.5822	3,137.7	71.6889	3,137.7	65.8391
3,249.02	92.0878	3,249.02	92.2672	3,249.02	89.8279	3,249.02	91.6511	3,249.02	90.3472	3,249.02	89.0778	3,249.02	91.2322	3,249.02	87.715	3,249.02	87.3013	3,249.02	88.3779	3,249.02	86.0653	3,249.02	85.946	3,249.02	83.4257	3,249.02	84.6613	3,249.02	86.1207	3,249.02	79.8528	3,249.02	87.7216	3,249.02	81.4447	3,249.02	84.4128	3,249.02	76.073	3,249.02	70.8103	3,249.02	77.5998	3,249.02	72.6818	3,249.02	74.0775	3,249.02	67.4954	3,249.02	73.6809	3,249.02	70.2242	3,249.02	71.51	3,249.02	68.2257	3,249.02	73.0553	3,249.02	60.2107	3,249.02	75.4621	3,249.02	72.5772	3,249.02	71.4895	3,249.02	72.7048	3,249.02	62.0523
3,363.28	90.6303	3,363.28	91.5331	3,363.28	89.2307	3,363.28	89.4808	3,363.28	91.2959	3,363.28	88.0459	3,363.28	91.5735	3,363.28	89.2616	3,363.28	86.64	3,363.28	87.0149	3,363.28	85.7705	3,363.28	86.2191	3,363.28	82.4284	3,363.28	80.4947	3,363.28	86.162	3,363.28	84.7132	3,363.28	88.2769	3,363.28	79.4865	3,363.28	83.9867	3,363.28	82.5061	3,363.28	68.2479	3,363.28	76.9662	3,363.28	71.64	3,363.28	75.2005	3,363.28	65.8865	3,363.28	70.6143	3,363.28	67.7088	3,363.28	71.3362	3,363.28	70.0537	3,363.28	74.1534	3,363.28	64.6984	3,363.28	72.75	3,363.28	72.3985	3,363.28	69.5608	3,363.28	69.71	3,363.28	55.5383
3,481.93	90.8589	3,481.93	92.5379	3,481.93	88.4865	3,481.93	90.3536	3,481.93	91.6269	3,481.93	88.3157	3,481.93	91.5959	3,481.93	88.3774	3,481.93	86.7898	3,481.93	87.9147	3,481.93	85.8538	3,481.93	83.8286	3,481.93	80.2683	3,481.93	85.3237	3,481.93	87.1467	3,481.93	75.8189	3,481.93	85.0314	3,481.93	79.6996	3,481.93	84.6253	3,481.93	70.6132	3,481.93	72.3958	3,481.93	77.7119	3,481.93	70.3463	3,481.93	72.2379	3,481.93	72.2458	3,481.93	71.5528	3,481.93	66.7652	3,481.93	72.3009	3,481.93	70.783	3,481.93	72.453	3,481.93	63.3606	3,481.93	75.1545	3,481.93	73.413	3,481.93	70.1259	3,481.93	70.6512	3,481.93	61.2166
3,604.98	90.2368	3,604.98	92.0575	3,604.98	88.6199	3,604.98	90.1903	3,604.98	90.5848	3,604.98	88.2706	3,604.98	91.0509	3,604.98	88.127	3,604.98	86.5302	3,604.98	86.7792	3,604.98	83.9012	3,604.98	86.0051	3,604.98	81.3022	3,604.98	78.7079	3,604.98	84.4099	3,604.98	83.451	3,604.98	86.9164	3,604.98	78.6964	3,604.98	78.0168	3,604.98	80.5744	3,604.98	68.7805	3,604.98	72.6544	3,604.98	66.6468	3,604.98	73.2864	3,604.98	64.1299	3,604.98	70.3567	3,604.98	70.3173	3,604.98	70.7166	3,604.98	69.7556	3,604.98	70.2607	3,604.98	58.4746	3,604.98	74.7197	3,604.98	68.4737	3,604.98	73.7314	3,604.98	70.5497	3,604.98	59.4137
3,732.42	91.4854	3,732.42	91.5145	3,732.42	89.2157	3,732.42	88.58	3,732.42	90.9771	3,732.42	88.2157	3,732.42	90.4011	3,732.42	88.7983	3,732.42	86.693	3,732.42	85.689	3,732.42	84.0005	3,732.42	83.5872	3,732.42	80.8353	3,732.42	83.9611	3,732.42	85.3735	3,732.42	77.1576	3,732.42	82.1831	3,732.42	78.6353	3,732.42	79.232	3,732.42	73.1153	3,732.42	69.342	3,732.42	75.7932	3,732.42	53.2111	3,732.42	72.4455	3,732.42	66.5535	3,732.42	68.9808	3,732.42	63.7819	3,732.42	69.7463	3,732.42	69.3884	3,732.42	72.3545	3,732.42	63.8731	3,732.42	73.3364	3,732.42	71.3332	3,732.42	70.2191	3,732.42	68.9745	3,732.42	62.4115
3,864.26	89.7218	3,864.26	90.7298	3,864.26	88.2374	3,864.26	89.2055	3,864.26	91.4303	3,864.26	87.8924	3,864.26	90.1823	3,864.26	86.8791	3,864.26	86.6886	3,864.26	86.6693	3,864.26	82.0304	3,864.26	84.2	3,864.26	80.4983	3,864.26	78.1938	3,864.26	84.3214	3,864.26	82.6307	3,864.26	83.2455	3,864.26	77.9722	3,864.26	79.0137	3,864.26	78.8235	3,864.26	70.979	3,864.26	72.496	3,864.26	56.1074	3,864.26	70.1142	3,864.26	67.6437	3,864.26	70.7377	3,864.26	69.1356	3,864.26	69.8053	3,864.26	70.6726	3,864.26	71.0259	3,864.26	62.6567	3,864.26	74.6823	3,864.26	66.9811	3,864.26	71.6382	3,864.26	69.4271	3,864.26	52.1475
4,000.49	89.7729	4,000.49	89.5289	4,000.49	87.1684	4,000.49	88.1058	4,000.49	89.8889	4,000.49	88.1125	4,000.49	90.4291	4,000.49	87.4048	4,000.49	86.1966	4,000.49	84.6678	4,000.49	83.0374	4,000.49	83.4562	4,000.49	82.7818	4,000.49	83.022	4,000.49	84.1388	4,000.49	77.4498	4,000.49	84.9493	4,000.49	78.185	4,000.49	74.8907	4,000.49	75.1518	4,000.49	64.6699	4,000.49	76.6061	4,000.49	67.2905	4,000.49	72.2101	4,000.49	66.9461	4,000.49	67.653	4,000.49	67.8731	4,000.49	70.3488	4,000.49	67.18	4,000.49	68.9474	4,000.49	61.6796	4,000.49	72.4322	4,000.49	70.6367	4,000.49	71.0227	4,000.49	66.705	4,000.49	65.684
4,141.11	90.0351	4,141.11	90.7568	4,141.11	87.8591	4,141.11	88.5412	4,141.11	89.874	4,141.11	87.523	4,141.11	89.3816	4,141.11	86.8165	4,141.11	87.1581	4,141.11	85.8561	4,141.11	83.1167	4,141.11	83.8626	4,141.11	81.7051	4,141.11	79.6848	4,141.11	80.2606	4,141.11	83.1315	4,141.11	80.8417	4,141.11	78.9719	4,141.11	78.8738	4,141.11	79.2426	4,141.11	65.3642	4,141.11	70.8351	4,141.11	58.4455	4,141.11	71.7327	4,141.11	65.5464	4,141.11	70.8909	4,141.11	67.7944	4,141.11	68.1909	4,141.11	65.5717	4,141.11	71.2018	4,141.11	65.8364	4,141.11	73.8219	4,141.11	64.1477	4,141.11	71.2026	4,141.11	64.7928	4,141.11	62.6605
4,287.6	89.0913	4,287.6	88.9562	4,287.6	88.5995	4,287.6	88.3559	4,287.6	89.5403	4,287.6	86.5576	4,287.6	88.3889	4,287.6	86.7478	4,287.6	87.4551	4,287.6	84.8512	4,287.6	82.4966	4,287.6	83.6257	4,287.6	82.8097	4,287.6	83.6588	4,287.6	78.3147	4,287.6	76.8754	4,287.6	78.1632	4,287.6	76.9496	4,287.6	77.1651	4,287.6	71.9679	4,287.6	71.4171	4,287.6	76.4101	4,287.6	55.2101	4,287.6	67.9549	4,287.6	68.4497	4,287.6	68.4458	4,287.6	63.5117	4,287.6	71.68	4,287.6	66.888	4,287.6	65.4023	4,287.6	57.3178	4,287.6	71.7852	4,287.6	67.7206	4,287.6	71.581	4,287.6	67.9165	4,287.6	66.6535
4,438.48	89.9864	4,438.48	89.8251	4,438.48	87.5562	4,438.48	87.3433	4,438.48	89.2385	4,438.48	86.6628	4,438.48	88.4164	4,438.48	86.322	4,438.48	86.0673	4,438.48	85.2091	4,438.48	83.9376	4,438.48	84.3585	4,438.48	84.6571	4,438.48	78.654	4,438.48	75.5049	4,438.48	80.6561	4,438.48	78.1301	4,438.48	75.7536	4,438.48	77.9924	4,438.48	78.4089	4,438.48	65.6734	4,438.48	69.3891	4,438.48	63.0269	4,438.48	71.2211	4,438.48	61.604	4,438.48	67.9287	4,438.48	64.3399	4,438.48	64.9709	4,438.48	62.1795	4,438.48	67.6789	4,438.48	66.7201	4,438.48	72.3151	4,438.48	60.7245	4,438.48	70.0996	4,438.48	65.8115	4,438.48	61.4113
4,595.21	90.009	4,595.21	89.8576	4,595.21	88.5035	4,595.21	87.8207	4,595.21	88.9937	4,595.21	87.0917	4,595.21	88.7338	4,595.21	86.4541	4,595.21	86.0604	4,595.21	85.4394	4,595.21	84.1525	4,595.21	82.3975	4,595.21	82.1349	4,595.21	81.5335	4,595.21	78.3822	4,595.21	75.4822	4,595.21	80.1554	4,595.21	77.4375	4,595.21	76.7457	4,595.21	72.9612	4,595.21	59.3169	4,595.21	73.5115	4,595.21	56.9754	4,595.21	69.0634	4,595.21	63.2384	4,595.21	68.0625	4,595.21	68.5161	4,595.21	70.6895	4,595.21	65.1481	4,595.21	64.6443	4,595.21	62.7629	4,595.21	68.2599	4,595.21	64.2995	4,595.21	71.2425	4,595.21	65.7725	4,595.21	66.4864
4,756.35	89.7593	4,756.35	89.7158	4,756.35	89.1137	4,756.35	86.5469	4,756.35	88.4664	4,756.35	86.6035	4,756.35	87.454	4,756.35	86.9912	4,756.35	86.2614	4,756.35	85.2357	4,756.35	83.848	4,756.35	83.0172	4,756.35	83.3959	4,756.35	80.612	4,756.35	77.3129	4,756.35	80.7496	4,756.35	82.0779	4,756.35	76.1841	4,756.35	77.2178	4,756.35	77.3053	4,756.35	62.251	4,756.35	72.0416	4,756.35	65.1947	4,756.35	68.7004	4,756.35	53.4144	4,756.35	68.8503	4,756.35	64.412	4,756.35	67.7125	4,756.35	61.9323	4,756.35	65.614	4,756.35	65.2416	4,756.35	71.9705	4,756.35	64.7075	4,756.35	70.8252	4,756.35	58.0812	4,756.35	65.9932
4,924.8	90.0634	4,924.8	90.2293	4,924.8	89.4212	4,924.8	87.5963	4,924.8	88.9554	4,924.8	86.8512	4,924.8	87.3511	4,924.8	87.0358	4,924.8	86.6328	4,924.8	84.6303	4,924.8	83.4856	4,924.8	83.1982	4,924.8	83.0141	4,924.8	81.9047	4,924.8	76.5867	4,924.8	79.5802	4,924.8	84.71	4,924.8	77.2447	4,924.8	77.3326	4,924.8	76.2997	4,924.8	59.9779	4,924.8	74.2191	4,924.8	63.9497	4,924.8	69.9516	4,924.8	64.807	4,924.8	65.4656	4,924.8	67.0816	4,924.8	69.0694	4,924.8	61.0771	4,924.8	66.1267	4,924.8	65.8166	4,924.8	67.7474	4,924.8	58.9641	4,924.8	70.5601	4,924.8	64.9726	4,924.8	67.6843
5,097.66	90.2691	5,097.66	90.0376	5,097.66	89.588	5,097.66	86.9867	5,097.66	88.3128	5,097.66	86.6726	5,097.66	87.9039	5,097.66	87.0943	5,097.66	86.0706	5,097.66	84.3385	5,097.66	82.9901	5,097.66	84.1067	5,097.66	84.7398	5,097.66	82.3673	5,097.66	80.6317	5,097.66	79.0386	5,097.66	83.0878	5,097.66	76.6669	5,097.66	80.2748	5,097.66	75.2929	5,097.66	67.0052	5,097.66	72.4099	5,097.66	61.9168	5,097.66	69.5766	5,097.66	61.1638	5,097.66	68.6603	5,097.66	67.2806	5,097.66	65.9675	5,097.66	58.5898	5,097.66	64.7706	5,097.66	61.4138	5,097.66	70.7718	5,097.66	64.3371	5,097.66	69.9194	5,097.66	63.5234	5,097.66	64.5865
5,277.83	91.0284	5,277.83	90.6911	5,277.83	90.7934	5,277.83	87.9565	5,277.83	88.9949	5,277.83	87.8844	5,277.83	87.9011	5,277.83	86.1007	5,277.83	86.6819	5,277.83	85.1402	5,277.83	83.5843	5,277.83	84.2631	5,277.83	83.8242	5,277.83	81.1599	5,277.83	81.9857	5,277.83	78.4514	5,277.83	83.0531	5,277.83	77.5957	5,277.83	79.6606	5,277.83	75.8308	5,277.83	61.3852	5,277.83	70.8397	5,277.83	67.138	5,277.83	68.2339	5,277.83	64.9551	5,277.83	68.4956	5,277.83	65.6542	5,277.83	68.2166	5,277.83	55.6835	5,277.83	64.0577	5,277.83	64.4187	5,277.83	66.4819	5,277.83	59.5278	5,277.83	65.6008	5,277.83	61.5377	5,277.83	67.5236
5,463.87	90.7697	5,463.87	89.9983	5,463.87	89.7198	5,463.87	87.72	5,463.87	89.117	5,463.87	87.9926	5,463.87	87.0473	5,463.87	86.0699	5,463.87	87.2808	5,463.87	85.884	5,463.87	84.0551	5,463.87	83.8889	5,463.87	84.2243	5,463.87	81.206	5,463.87	82.2916	5,463.87	78.5217	5,463.87	80.4407	5,463.87	76.5828	5,463.87	78.8717	5,463.87	74.5426	5,463.87	61.4189	5,463.87	72.6198	5,463.87	61.0912	5,463.87	68.2403	5,463.87	63.5741	5,463.87	64.4294	5,463.87	67.8558	5,463.87	68.3713	5,463.87	60.2225	5,463.87	67.0723	5,463.87	64.7746	5,463.87	66.2341	5,463.87	50.1151	5,463.87	68.4389	5,463.87	62.2529	5,463.87	64.1402
5,657.23	91.2913	5,657.23	91.3269	5,657.23	90.081	5,657.23	88.3728	5,657.23	88.2972	5,657.23	87.9154	5,657.23	87.8258	5,657.23	86.9947	5,657.23	86.431	5,657.23	85.587	5,657.23	84.0682	5,657.23	83.5109	5,657.23	83.7688	5,657.23	80.5005	5,657.23	80.0581	5,657.23	78.6828	5,657.23	81.3135	5,657.23	76.1714	5,657.23	77.5807	5,657.23	74.658	5,657.23	67.9984	5,657.23	71.7564	5,657.23	56.5641	5,657.23	69.2423	5,657.23	63.0096	5,657.23	65.6175	5,657.23	62.9532	5,657.23	67.8865	5,657.23	63.2974	5,657.23	65.7562	5,657.23	60.8243	5,657.23	66.4821	5,657.23	52.9499	5,657.23	67.7229	5,657.23	49.6429	5,657.23	67.3757
5,856.45	90.989	5,856.45	90.5647	5,856.45	90.1632	5,856.45	88.8492	5,856.45	89.4647	5,856.45	87.7633	5,856.45	86.1423	5,856.45	86.8143	5,856.45	87.0028	5,856.45	86.0117	5,856.45	83.5257	5,856.45	83.2517	5,856.45	84.167	5,856.45	80.5973	5,856.45	78.3071	5,856.45	77.5106	5,856.45	79.7096	5,856.45	76.9139	5,856.45	74.3152	5,856.45	73.9881	5,856.45	69.7691	5,856.45	71.6965	5,856.45	48.873	5,856.45	67.5569	5,856.45	62.4987	5,856.45	66.1627	5,856.45	50.0888	5,856.45	66.1204	5,856.45	61.8598	5,856.45	65.6358	5,856.45	59.301	5,856.45	57.9717	5,856.45	53.1348	5,856.45	63.2861	5,856.45	61.7739	5,856.45	63.7813
6,062.99	90.7598	6,062.99	90.5778	6,062.99	89.7351	6,062.99	89.418	6,062.99	89.5874	6,062.99	87.3646	6,062.99	86.9299	6,062.99	87.5919	6,062.99	86.8859	6,062.99	85.4844	6,062.99	83.9487	6,062.99	83.6776	6,062.99	83.2162	6,062.99	79.9149	6,062.99	81.8577	6,062.99	76.1132	6,062.99	78.7515	6,062.99	78.3229	6,062.99	76.2125	6,062.99	72.8163	6,062.99	63.2661	6,062.99	72.5735	6,062.99	57.2969	6,062.99	67.7441	6,062.99	59.7267	6,062.99	64.4936	6,062.99	59.689	6,062.99	67.5513	6,062.99	55.6267	6,062.99	66.9781	6,062.99	60.2806	6,062.99	66.1668	6,062.99	55.0654	6,062.99	66.2735	6,062.99	57.8289	6,062.99	60.8346
6,276.86	89.9913	6,276.86	90.1907	6,276.86	89.7616	6,276.86	89.3421	6,276.86	89.6301	6,276.86	88.416	6,276.86	87.1885	6,276.86	87.0349	6,276.86	86.7343	6,276.86	86.0567	6,276.86	84.3183	6,276.86	83.1378	6,276.86	83.4297	6,276.86	81.117	6,276.86	83.4903	6,276.86	77.3775	6,276.86	80.1013	6,276.86	76.6631	6,276.86	79.4452	6,276.86	72.6852	6,276.86	70.3102	6,276.86	71.8478	6,276.86	59.7991	6,276.86	67.7894	6,276.86	64.7628	6,276.86	65.5486	6,276.86	54.9825	6,276.86	66.8293	6,276.86	52.943	6,276.86	66.957	6,276.86	60.8569	6,276.86	61.6899	6,276.86	50.4313	6,276.86	66.4572	6,276.86	52.9913	6,276.86	65.8009
6,498.05	89.1582	6,498.05	90.0031	6,498.05	89.0146	6,498.05	88.394	6,498.05	89.752	6,498.05	88.2963	6,498.05	86.9709	6,498.05	87.2593	6,498.05	87.287	6,498.05	85.5512	6,498.05	84.7535	6,498.05	83.3166	6,498.05	82.0755	6,498.05	80.6206	6,498.05	82.9507	6,498.05	79.2562	6,498.05	79.7159	6,498.05	74.7618	6,498.05	77.4719	6,498.05	73.5756	6,498.05	69.3951	6,498.05	71.0902	6,498.05	60.773	6,498.05	67.0714	6,498.05	64.9795	6,498.05	66.2859	6,498.05	57.5954	6,498.05	66.2158	6,498.05	47.8584	6,498.05	68.006	6,498.05	59.2586	6,498.05	61.8134	6,498.05	54.0089	6,498.05	65.1855	6,498.05	50.0705	6,498.05	66.1614
6,726.56	88.8195	6,726.56	90.2057	6,726.56	89.5253	6,726.56	88.7104	6,726.56	88.7332	6,726.56	88.0561	6,726.56	87.8651	6,726.56	86.9118	6,726.56	87.1424	6,726.56	85.5161	6,726.56	84.9786	6,726.56	83.4087	6,726.56	81.9836	6,726.56	81.1146	6,726.56	80.8633	6,726.56	78.9953	6,726.56	74.6686	6,726.56	75.0488	6,726.56	69.1557	6,726.56	74.3332	6,726.56	66.0735	6,726.56	70.9198	6,726.56	58.8575	6,726.56	65.9113	6,726.56	63.9755	6,726.56	64.5185	6,726.56	60.0287	6,726.56	66.1338	6,726.56	56.0638	6,726.56	66.6049	6,726.56	57.2146	6,726.56	65.8558	6,726.56	45.2545	6,726.56	59.2182	6,726.56	54.4302	6,726.56	63.0084
6,963.87	87.4883	6,963.87	89.3353	6,963.87	89.2492	6,963.87	88.7538	6,963.87	88.9668	6,963.87	87.6467	6,963.87	87.6351	6,963.87	86.8685	6,963.87	87.3762	6,963.87	85.2068	6,963.87	85.6956	6,963.87	83.5681	6,963.87	79.5738	6,963.87	81.2266	6,963.87	80.9486	6,963.87	77.6821	6,963.87	73.6109	6,963.87	74.8166	6,963.87	76.0737	6,963.87	72.7893	6,963.87	55.3684	6,963.87	69.6803	6,963.87	53.1596	6,963.87	65.4813	6,963.87	56.6339	6,963.87	64.6076	6,963.87	59.1362	6,963.87	65.1781	6,963.87	55.3375	6,963.87	67.9688	6,963.87	52.7777	6,963.87	60.2687	6,963.87	53.0683	6,963.87	63.189	6,963.87	58.9531	6,963.87	54.9873
7,209.96	88.3907	7,209.96	89.4091	7,209.96	90.0928	7,209.96	89.0882	7,209.96	88.0813	7,209.96	87.4782	7,209.96	88.3727	7,209.96	86.4147	7,209.96	87.368	7,209.96	84.9804	7,209.96	85.8009	7,209.96	83.7174	7,209.96	78.9182	7,209.96	80.4223	7,209.96	78.9352	7,209.96	76.4061	7,209.96	74.9502	7,209.96	74.2991	7,209.96	75.7202	7,209.96	71.8692	7,209.96	61.6861	7,209.96	70.0772	7,209.96	59.5013	7,209.96	64.8255	7,209.96	63.8939	7,209.96	63.1295	7,209.96	54.0003	7,209.96	64.5565	7,209.96	49.0794	7,209.96	67.6233	7,209.96	46.8236	7,209.96	62.8917	7,209.96	51.7436	7,209.96	66.2266	7,209.96	60.1374	7,209.96	59.7614
7,464.84	87.6521	7,464.84	89.0102	7,464.84	90.0296	7,464.84	88.9148	7,464.84	88.2123	7,464.84	87.6287	7,464.84	88.4422	7,464.84	86.4294	7,464.84	87.6884	7,464.84	85.0033	7,464.84	86.3466	7,464.84	83.1006	7,464.84	75.6779	7,464.84	80.0654	7,464.84	78.3278	7,464.84	76.6783	7,464.84	76.9604	7,464.84	73.9827	7,464.84	68.8145	7,464.84	71.0046	7,464.84	63.2464	7,464.84	70.2815	7,464.84	46.598	7,464.84	64.5694	7,464.84	62.131	7,464.84	62.9962	7,464.84	56.0335	7,464.84	63.2259	7,464.84	54.549	7,464.84	64.5903	7,464.84	53.4826	7,464.84	65.3135	7,464.84	44.2782	7,464.84	63.3691	7,464.84	58.5158	7,464.84	58.5106
7,727.05	88.6577	7,727.05	89.487	7,727.05	90.5395	7,727.05	89.0209	7,727.05	87.5802	7,727.05	88.4704	7,727.05	89.5623	7,727.05	85.7814	7,727.05	86.6177	7,727.05	85.8391	7,727.05	86.0442	7,727.05	82.2956	7,727.05	78.2419	7,727.05	79.2217	7,727.05	79.2873	7,727.05	75.2106	7,727.05	78.8708	7,727.05	73.3489	7,727.05	73.4361	7,727.05	71.0563	7,727.05	64.7172	7,727.05	68.519	7,727.05	55.7429	7,727.05	64.4016	7,727.05	65.0095	7,727.05	63.2697	7,727.05	53.9198	7,727.05	63.5536	7,727.05	39.7819	7,727.05	64.0939	7,727.05	52.152	7,727.05	62.8736	7,727.05	42.9065	7,727.05	62.439	7,727.05	59.4083	7,727.05	59.0825
7,999.51	89.9577	7,999.51	88.692	7,999.51	89.7101	7,999.51	89.6397	7,999.51	88.8498	7,999.51	87.8959	7,999.51	89.3542	7,999.51	86.6753	7,999.51	85.6289	7,999.51	85.4125	7,999.51	85.4476	7,999.51	81.5466	7,999.51	77.9445	7,999.51	79.0439	7,999.51	81.5473	7,999.51	75.325	7,999.51	78.0285	7,999.51	73.2458	7,999.51	74.7881	7,999.51	70.9065	7,999.51	51.971	7,999.51	70.0272	7,999.51	47.096	7,999.51	63.4603	7,999.51	66.054	7,999.51	64.5248	7,999.51	56.4195	7,999.51	63.6525	7,999.51	46.5052	7,999.51	62.9885	7,999.51	52.1466	7,999.51	63.1366	7,999.51	49.3846	7,999.51	64.7001	7,999.51	60.1857	7,999.51	60.0248
8,282.23	90.237	8,282.23	89.1022	8,282.23	89.3078	8,282.23	89.6971	8,282.23	89.4232	8,282.23	88.1247	8,282.23	89.2215	8,282.23	87.2779	8,282.23	85.5415	8,282.23	84.6628	8,282.23	85.0394	8,282.23	81.3169	8,282.23	79.8454	8,282.23	79.8177	8,282.23	79.6505	8,282.23	75.7866	8,282.23	76.1521	8,282.23	73.3989	8,282.23	72.6035	8,282.23	72.0704	8,282.23	35.9686	8,282.23	68.1986	8,282.23	55.0692	8,282.23	62.8319	8,282.23	64.4074	8,282.23	63.8387	8,282.23	55.2625	8,282.23	63.4095	8,282.23	55.6289	8,282.23	63.9075	8,282.23	52.4496	8,282.23	64.1499	8,282.23	54.6585	8,282.23	65.4045	8,282.23	57.6991	8,282.23	57.0172
8,573.73	89.9664	8,573.73	89.9775	8,573.73	89.3236	8,573.73	89.5639	8,573.73	89.8981	8,573.73	88.5858	8,573.73	88.6906	8,573.73	86.7603	8,573.73	84.9725	8,573.73	84.6587	8,573.73	85.1041	8,573.73	81.5107	8,573.73	78.9085	8,573.73	79.4739	8,573.73	74.5827	8,573.73	75.2641	8,573.73	72.3603	8,573.73	72.9961	8,573.73	68.7899	8,573.73	72.1244	8,573.73	61.1285	8,573.73	68.3558	8,573.73	56.2765	8,573.73	62.3079	8,573.73	62.5266	8,573.73	63.6426	8,573.73	59.3392	8,573.73	63.4845	8,573.73	58.4071	8,573.73	62.0956	8,573.73	44.3867	8,573.73	64.3678	8,573.73	60.4505	8,573.73	65.7447	8,573.73	56.8104	8,573.73	56.6184
8,876.95	89.6817	8,876.95	89.7791	8,876.95	89.5786	8,876.95	89.4437	8,876.95	89.6661	8,876.95	88.9761	8,876.95	88.3856	8,876.95	86.5033	8,876.95	85.6982	8,876.95	84.3367	8,876.95	85.1887	8,876.95	81.3517	8,876.95	80.1072	8,876.95	79.6068	8,876.95	75.3217	8,876.95	76.2116	8,876.95	70.223	8,876.95	73.2263	8,876.95	62.3266	8,876.95	70.8138	8,876.95	59.7614	8,876.95	68.0796	8,876.95	50.9248	8,876.95	61.6603	8,876.95	60.9447	8,876.95	63.9153	8,876.95	58.443	8,876.95	63.7418	8,876.95	50.4649	8,876.95	61.5801	8,876.95	54.951	8,876.95	63.5538	8,876.95	62.2223	8,876.95	65.9679	8,876.95	54.3104	8,876.95	55.6136
9,188.96	89.9791	9,188.96	89.9516	9,188.96	89.7001	9,188.96	89.6237	9,188.96	89.719	9,188.96	89.1142	9,188.96	87.794	9,188.96	86.3133	9,188.96	85.9711	9,188.96	84.2429	9,188.96	85.5788	9,188.96	80.9166	9,188.96	79.0601	9,188.96	79.5277	9,188.96	75.6656	9,188.96	74.8267	9,188.96	69.2817	9,188.96	72.227	9,188.96	63.9937	9,188.96	70.6152	9,188.96	65.9754	9,188.96	65.6226	9,188.96	54.0782	9,188.96	61.0055	9,188.96	60.0573	9,188.96	62.4725	9,188.96	56.1043	9,188.96	61.5935	9,188.96	46.4654	9,188.96	61.8611	9,188.96	57.4138	9,188.96	62.8088	9,188.96	61.7927	9,188.96	65.3586	9,188.96	45.7088	9,188.96	48.9663
9,514.16	89.9602	9,514.16	89.6094	9,514.16	89.8683	9,514.16	89.5106	9,514.16	89.7478	9,514.16	89.0685	9,514.16	87.827	9,514.16	86.0046	9,514.16	86.2093	9,514.16	84.4485	9,514.16	85.1127	9,514.16	80.7474	9,514.16	81.1089	9,514.16	78.6914	9,514.16	77.4542	9,514.16	73.1358	9,514.16	70.3374	9,514.16	70.8686	9,514.16	67.9589	9,514.16	69.3131	9,514.16	60.5763	9,514.16	62.997	9,514.16	53.4725	9,514.16	59.339	9,514.16	58.4469	9,514.16	62.1873	9,514.16	48.2125	9,514.16	62.5872	9,514.16	39.9283	9,514.16	62.4171	9,514.16	54.3319	9,514.16	60.7931	9,514.16	61.3962	9,514.16	63.5584	9,514.16	47.0258	9,514.16	43.7505
9,849.61	90.1242	9,849.61	89.4387	9,849.61	90.028	9,849.61	89.4735	9,849.61	89.763	9,849.61	88.8117	9,849.61	88.2027	9,849.61	85.9663	9,849.61	85.9483	9,849.61	84.5639	9,849.61	84.4014	9,849.61	80.6161	9,849.61	80.1201	9,849.61	77.1417	9,849.61	75.6842	9,849.61	71.2602	9,849.61	71.9717	9,849.61	71.5077	9,849.61	66.2446	9,849.61	69.7473	9,849.61	63.9427	9,849.61	63.2925	9,849.61	51.0576	9,849.61	57.5665	9,849.61	57.9547	9,849.61	61.8119	9,849.61	53.3897	9,849.61	62.4723	9,849.61	54.8498	9,849.61	62.6755	9,849.61	56.0633	9,849.61	59.6131	9,849.61	59.5577	9,849.61	62.673	9,849.61	48.1581	9,849.61	50.2867
10,196.8	90.1039	10,196.8	89.536	10,196.8	90.0793	10,196.8	89.5004	10,196.8	90.0429	10,196.8	88.4639	10,196.8	88.4619	10,196.8	86.2446	10,196.8	85.9824	10,196.8	84.6262	10,196.8	83.2723	10,196.8	79.9516	10,196.8	80.6633	10,196.8	76.9302	10,196.8	74.7811	10,196.8	74.2018	10,196.8	71.4307	10,196.8	70.8902	10,196.8	70.2059	10,196.8	70.1751	10,196.8	50.8464	10,196.8	63.3719	10,196.8	48.792	10,196.8	58.981	10,196.8	58.9003	10,196.8	61.2277	10,196.8	49.7051	10,196.8	62.1912	10,196.8	49.4427	10,196.8	61.79	10,196.8	56.7641	10,196.8	58.9305	10,196.8	57.8169	10,196.8	62.6545	10,196.8	47.2898	10,196.8	52.3085
10,555.7	89.8388	10,555.7	89.3127	10,555.7	89.8893	10,555.7	89.5523	10,555.7	89.8758	10,555.7	88.5195	10,555.7	88.7329	10,555.7	86.21	10,555.7	86.6966	10,555.7	84.9983	10,555.7	82.5122	10,555.7	79.4266	10,555.7	80.5225	10,555.7	77.4004	10,555.7	72.3773	10,555.7	73.8136	10,555.7	73.5369	10,555.7	70.0303	10,555.7	66.8363	10,555.7	70.6634	10,555.7	37.8442	10,555.7	64.1052	10,555.7	38.6123	10,555.7	57.8235	10,555.7	53.4014	10,555.7	60.8203	10,555.7	51.2948	10,555.7	63.6784	10,555.7	54.5131	10,555.7	61.2889	10,555.7	59.2564	10,555.7	60.1754	10,555.7	57.1181	10,555.7	61.2714	10,555.7	53.3118	10,555.7	50.7237
10,927.7	89.3307	10,927.7	89.6512	10,927.7	90.0753	10,927.7	89.0893	10,927.7	89.2174	10,927.7	88.5927	10,927.7	88.9204	10,927.7	86.4032	10,927.7	86.49	10,927.7	84.1509	10,927.7	83.0727	10,927.7	80.1716	10,927.7	80.4867	10,927.7	78.1377	10,927.7	72.2717	10,927.7	74.2036	10,927.7	71.7025	10,927.7	72.5743	10,927.7	66.5487	10,927.7	69.1247	10,927.7	53.5449	10,927.7	63.6695	10,927.7	46.8263	10,927.7	59.5732	10,927.7	58.7838	10,927.7	60.4318	10,927.7	55.3793	10,927.7	62.2937	10,927.7	48.449	10,927.7	59.0029	10,927.7	58.3807	10,927.7	61.0094	10,927.7	56.0395	10,927.7	60.3788	10,927.7	48.1945	10,927.7	42.1788
11,313	89.2855	11,313	89.9862	11,313	89.9155	11,313	89.147	11,313	88.7283	11,313	88.4071	11,313	88.3769	11,313	86.4728	11,313	85.9121	11,313	83.8792	11,313	83.3841	11,313	80.2938	11,313	81.1302	11,313	77.7948	11,313	75.3356	11,313	73.8318	11,313	68.5508	11,313	68.7165	11,313	63.2355	11,313	68.4837	11,313	53.8981	11,313	62.7942	11,313	48.9455	11,313	59.1229	11,313	58.5144	11,313	60.3793	11,313	56.4494	11,313	61.4385	11,313	57.8515	11,313	61.2331	11,313	60.6963	11,313	61.5969	11,313	55.2244	11,313	62.1163	11,313	44.6901	11,313	43.916
11,712.9	89.5954	11,712.9	90.0378	11,712.9	89.9341	11,712.9	89.2132	11,712.9	88.9133	11,712.9	88.6778	11,712.9	87.9047	11,712.9	85.9931	11,712.9	86.1278	11,712.9	84.0851	11,712.9	83.6835	11,712.9	81.0848	11,712.9	80.4293	11,712.9	77.1375	11,712.9	73.7391	11,712.9	73.0538	11,712.9	70.9929	11,712.9	70.0084	11,712.9	66.303	11,712.9	67.6276	11,712.9	58.7854	11,712.9	62.7617	11,712.9	49.1402	11,712.9	59.385	11,712.9	59.1854	11,712.9	57.4995	11,712.9	56.0767	11,712.9	61.0943	11,712.9	57.2892	11,712.9	59.6786	11,712.9	56.2705	11,712.9	62.0198	11,712.9	53.1653	11,712.9	63.784	11,712.9	50.0494	11,712.9	46.9105
12,126	90.1262	12,126	90.44	12,126	90.1492	12,126	88.9133	12,126	89.0547	12,126	88.7821	12,126	87.7134	12,126	86.2835	12,126	86.5773	12,126	84.4261	12,126	83.2752	12,126	80.5208	12,126	80.3518	12,126	76.7061	12,126	72.8867	12,126	73.2921	12,126	73.2876	12,126	69.3242	12,126	59.9824	12,126	67.3097	12,126	56.577	12,126	62.0392	12,126	54.4092	12,126	58.7924	12,126	59.7308	12,126	59.8628	12,126	55.8272	12,126	62.3344	12,126	51.4477	12,126	60.6101	12,126	58.0452	12,126	62.0684	12,126	54.0064	12,126	63.5161	12,126	47.7912	12,126	44.0752
12,553.7	90.2753	12,553.7	90.3325	12,553.7	90.4208	12,553.7	88.8106	12,553.7	89.1737	12,553.7	88.5992	12,553.7	87.6677	12,553.7	86.4292	12,553.7	85.8194	12,553.7	84.6776	12,553.7	83.3246	12,553.7	80.3066	12,553.7	80.4549	12,553.7	76.3942	12,553.7	72.5036	12,553.7	72.397	12,553.7	72.9033	12,553.7	68.2279	12,553.7	62.1299	12,553.7	66.6952	12,553.7	56.4714	12,553.7	61.7553	12,553.7	51.0348	12,553.7	57.2448	12,553.7	56.4967	12,553.7	58.0918	12,553.7	56.5917	12,553.7	60.1587	12,553.7	55.865	12,553.7	60.9409	12,553.7	57.5207	12,553.7	60.4653	12,553.7	47.3688	12,553.7	63.149	12,553.7	44.2723	12,553.7	53.1613
12,996.1	90.5229	12,996.1	90.2157	12,996.1	90.3533	12,996.1	88.7705	12,996.1	89.4436	12,996.1	88.1485	12,996.1	87.8719	12,996.1	86.647	12,996.1	85.5896	12,996.1	84.1881	12,996.1	83.089	12,996.1	79.7722	12,996.1	79.0136	12,996.1	75.5376	12,996.1	73.355	12,996.1	71.5224	12,996.1	69.0422	12,996.1	66.4993	12,996.1	59.602	12,996.1	65.3432	12,996.1	52.2863	12,996.1	61.0607	12,996.1	49.2164	12,996.1	56.8216	12,996.1	50.3873	12,996.1	57.5854	12,996.1	55.8044	12,996.1	60.0344	12,996.1	57.3377	12,996.1	60.1799	12,996.1	52.2032	12,996.1	58.9756	12,996.1	33.4909	12,996.1	59.2729	12,996.1	33.4387	12,996.1	46.051
13,454.6	90.5604	13,454.6	89.8934	13,454.6	90.1122	13,454.6	88.732	13,454.6	89.2069	13,454.6	87.8974	13,454.6	88.0269	13,454.6	86.4862	13,454.6	85.3579	13,454.6	83.5977	13,454.6	82.6025	13,454.6	79.2388	13,454.6	78.2341	13,454.6	74.4132	13,454.6	72.6135	13,454.6	71.3586	13,454.6	66.5616	13,454.6	67.8045	13,454.6	60.1351	13,454.6	64.315	13,454.6	52.7638	13,454.6	60.0095	13,454.6	49.3009	13,454.6	55.9478	13,454.6	47.1616	13,454.6	57.898	13,454.6	55.0608	13,454.6	59.4019	13,454.6	57.0455	13,454.6	57.5794	13,454.6	40.6804	13,454.6	58.8004	13,454.6	45.2567	13,454.6	59.6724	13,454.6	48.1061	13,454.6	52.7262
13,929.2	90.6319	13,929.2	89.46	13,929.2	89.8024	13,929.2	88.7043	13,929.2	88.4559	13,929.2	87.8029	13,929.2	87.899	13,929.2	86.3921	13,929.2	85.1059	13,929.2	82.9657	13,929.2	81.8529	13,929.2	78.8398	13,929.2	78.6185	13,929.2	73.8881	13,929.2	70.9265	13,929.2	71.5869	13,929.2	68.1484	13,929.2	67.9603	13,929.2	60.6376	13,929.2	65.2547	13,929.2	55.6008	13,929.2	59.9509	13,929.2	48.3796	13,929.2	56.2081	13,929.2	52.9319	13,929.2	55.7323	13,929.2	57.6708	13,929.2	59.672	13,929.2	57.7828	13,929.2	58.3053	13,929.2	40.9186	13,929.2	58.7435	13,929.2	45.9332	13,929.2	55.8847	13,929.2	48.6253	13,929.2	50.5545
14,419.9	90.7584	14,419.9	89.9379	14,419.9	89.5018	14,419.9	88.5005	14,419.9	88.1706	14,419.9	88.0575	14,419.9	87.7271	14,419.9	86.3972	14,419.9	85.0251	14,419.9	82.4126	14,419.9	81.1634	14,419.9	78.7971	14,419.9	78.2621	14,419.9	74.3175	14,419.9	72.5345	14,419.9	72.2699	14,419.9	69.0802	14,419.9	67.3395	14,419.9	61.7035	14,419.9	65.504	14,419.9	57.054	14,419.9	59.6432	14,419.9	51.9247	14,419.9	53.1945	14,419.9	49.9215	14,419.9	57.5273	14,419.9	55.6959	14,419.9	58.6149	14,419.9	55.7568	14,419.9	58.288	14,419.9	44.0626	14,419.9	58.9722	14,419.9	43.2855	14,419.9	59.4832	14,419.9	49.0933	14,419.9	52.4241
14,928.2	90.9927	14,928.2	90.3822	14,928.2	89.4526	14,928.2	88.635	14,928.2	88.0648	14,928.2	88.0305	14,928.2	87.245	14,928.2	86.1138	14,928.2	84.6054	14,928.2	81.8944	14,928.2	80.2719	14,928.2	78.0377	14,928.2	77.0009	14,928.2	74.2618	14,928.2	74.1032	14,928.2	71.3404	14,928.2	64.3044	14,928.2	66.3675	14,928.2	54.707	14,928.2	63.7174	14,928.2	51.6807	14,928.2	57.6313	14,928.2	53.4121	14,928.2	54.0071	14,928.2	53.3321	14,928.2	55.5804	14,928.2	56.062	14,928.2	58.0433	14,928.2	46.5884	14,928.2	58.4807	14,928.2	40.0684	14,928.2	59.2218	14,928.2	41.8652	14,928.2	58.1298	14,928.2	47.6614	14,928.2	53.0694
15,455.6	91.0947	15,455.6	90.5673	15,455.6	89.8157	15,455.6	88.9044	15,455.6	88.3163	15,455.6	88.1365	15,455.6	86.47	15,455.6	85.235	15,455.6	83.9417	15,455.6	80.8525	15,455.6	79.6333	15,455.6	77.0111	15,455.6	76.3407	15,455.6	72.4694	15,455.6	72.0297	15,455.6	68.2086	15,455.6	64.5064	15,455.6	63.2581	15,455.6	58.0491	15,455.6	60.1057	15,455.6	47.7	15,455.6	54.5688	15,455.6	52.5365	15,455.6	48.4149	15,455.6	49.97	15,455.6	53.8985	15,455.6	56.6456	15,455.6	54.0319	15,455.6	50.1361	15,455.6	55.6667	15,455.6	42.9265	15,455.6	54.5842	15,455.6	34.9238	15,455.6	57.2869	15,455.6	45.8464	15,455.6	42.1754
16,000.5	90.813	16,000.5	90.4961	16,000.5	90.1381	16,000.5	89.059	16,000.5	88.6285	16,000.5	87.6975	16,000.5	85.7478	16,000.5	84.1664	16,000.5	82.8674	16,000.5	79.0812	16,000.5	78.8625	16,000.5	75.318	16,000.5	74.7891	16,000.5	68.5163	16,000.5	71.4301	16,000.5	61.7968	16,000.5	60.4106	16,000.5	57.0936	16,000.5	52.7265	16,000.5	56.6509	16,000.5	44.2369	16,000.5	50.0597	16,000.5	50.7926	16,000.5	45.9207	16,000.5	45.2904	16,000.5	49.6904	16,000.5	53.78	16,000.5	52.738	16,000.5	52.2757	16,000.5	50.0193	16,000.5	46.4958	16,000.5	50.3	16,000.5	39.8626	16,000.5	55.5969	16,000.5	33.1694	16,000.5	35.0207
16,564.5	90.1353	16,564.5	90.1022	16,564.5	89.8454	16,564.5	88.5984	16,564.5	88.4343	16,564.5	86.3832	16,564.5	85.196	16,564.5	83.2128	16,564.5	81.5333	16,564.5	77.5752	16,564.5	77.3063	16,564.5	72.9227	16,564.5	72.0735	16,564.5	59.7243	16,564.5	68.6847	16,564.5	60.5614	16,564.5	55.808	16,564.5	56.5191	16,564.5	49.1624	16,564.5	55.3077	16,564.5	31.537	16,564.5	48.0719	16,564.5	49.1502	16,564.5	40.7593	16,564.5	34.7264	16,564.5	50.6301	16,564.5	52.8153	16,564.5	52.3958	16,564.5	49.4602	16,564.5	44.127	16,564.5	44.2042	16,564.5	43.0316	16,564.5	42.0742	16,564.5	51.7414	16,564.5	27.6866	16,564.5	44.1787
17,148.9	89.4177	17,148.9	90.0304	17,148.9	89.4736	17,148.9	88.1943	17,148.9	87.9033	17,148.9	85.2252	17,148.9	84.2517	17,148.9	81.5442	17,148.9	80.2875	17,148.9	75.5932	17,148.9	74.8514	17,148.9	67.9821	17,148.9	69.3952	17,148.9	61.6208	17,148.9	63.7923	17,148.9	62.9612	17,148.9	60.3655	17,148.9	59.0758	17,148.9	54.0677	17,148.9	55.0138	17,148.9	51.4374	17,148.9	48.0715	17,148.9	43.9949	17,148.9	47.2393	17,148.9	40.9274	17,148.9	50.3005	17,148.9	49.3926	17,148.9	53.1778	17,148.9	50.2389	17,148.9	44.571	17,148.9	35.0835	17,148.9	44.4059	17,148.9	38.1704	17,148.9	45.8687	17,148.9	40.3287	17,148.9	45.9984
17,752.4	89.3347	17,752.4	90.0586	17,752.4	89.1466	17,752.4	87.8579	17,752.4	86.9907	17,752.4	84.4245	17,752.4	83.0472	17,752.4	79.7349	17,752.4	78.881	17,752.4	71.877	17,752.4	71.6661	17,752.4	63.1555	17,752.4	69.1635	17,752.4	64.5702	17,752.4	66.0536	17,752.4	62.5116	17,752.4	60.9824	17,752.4	57.6995	17,752.4	53.8213	17,752.4	54.6928	17,752.4	53.9534	17,752.4	47.2711	17,752.4	35.5793	17,752.4	46.3947	17,752.4	47.7877	17,752.4	45.2653	17,752.4	48.4295	17,752.4	48.1432	17,752.4	49.3553	17,752.4	45.4586	17,752.4	41.3995	17,752.4	44.9478	17,752.4	36.5269	17,752.4	44.2263	17,752.4	43.36	17,752.4	45.0896
18,379.4	89.4941	18,379.4	89.8816	18,379.4	89.0612	18,379.4	86.8794	18,379.4	85.7503	18,379.4	83.5122	18,379.4	81.4839	18,379.4	77.9869	18,379.4	76.8518	18,379.4	65.9975	18,379.4	67.9532	18,379.4	65.8419	18,379.4	67.2578	18,379.4	63.8048	18,379.4	65.5158	18,379.4	60.9703	18,379.4	60.7649	18,379.4	54.9977	18,379.4	50.2001	18,379.4	54.8729	18,379.4	52.4392	18,379.4	47.5391	18,379.4	45.1725	18,379.4	45.8014	18,379.4	50.8309	18,379.4	44.2083	18,379.4	38.4294	18,379.4	48.9551	18,379.4	46.803	18,379.4	46.119	18,379.4	39.4905	18,379.4	43.3618	18,379.4	40.8569	18,379.4	47.7192	18,379.4	43.0491	18,379.4	44.1256
19,026.9	89.5284	19,026.9	89.2969	19,026.9	88.7961	19,026.9	85.5624	19,026.9	84.8763	19,026.9	81.8567	19,026.9	80.1869	19,026.9	74.7268	19,026.9	73.5338	19,026.9	57.7592	19,026.9	65.0721	19,026.9	62.7681	19,026.9	62.777	19,026.9	62.0903	19,026.9	63.581	19,026.9	59.6642	19,026.9	54.3968	19,026.9	54.5914	19,026.9	36.5927	19,026.9	52.4301	19,026.9	52.8736	19,026.9	43.0079	19,026.9	47.5358	19,026.9	46.4639	19,026.9	49.6776	19,026.9	47.5971	19,026.9	41.4521	19,026.9	44.452	19,026.9	38.9408	19,026.9	45.6452	19,026.9	34.0809	19,026.9	47.4477	19,026.9	42.9702	19,026.9	47.1197	19,026.9	43.9773	19,026.9	36.8512
19,697.8	89.0804	19,697.8	88.3812	19,697.8	88.0841	19,697.8	83.9966	19,697.8	83.8184	19,697.8	79.1959	19,697.8	77.3184	19,697.8	70.3184	19,697.8	69.8133	19,697.8	60.5682	19,697.8	61.934	19,697.8	63.4389	19,697.8	59.9864	19,697.8	62.2995	19,697.8	57.907	19,697.8	58.4638	19,697.8	46.2289	19,697.8	50.9501	19,697.8	40.4335	19,697.8	48.8859	19,697.8	49.2463	19,697.8	36.8838	19,697.8	45.1381	19,697.8	46.8177	19,697.8	49.3968	19,697.8	42.5824	19,697.8	46.061	19,697.8	36.542	19,697.8	31.5779	19,697.8	44.0495	19,697.8	37.9015	19,697.8	44.6786	19,697.8	40.2106	19,697.8	44.7986	19,697.8	42.0478	19,697.8	33.9068
19,999.5	88.7235	19,999.5	88.0455	19,999.5	87.474	19,999.5	82.7592	19,999.5	83.4112	19,999.5	77.9576	19,999.5	75.5586	19,999.5	70.0913	19,999.5	71.7862	19,999.5	64.2798	19,999.5	63.2764	19,999.5	63.1992	19,999.5	63.9938	19,999.5	60.5898	19,999.5	56.7521	19,999.5	59.8533	19,999.5	49.1878	19,999.5	50.3655	19,999.5	21.0406	19,999.5	46.1151	19,999.5	60.2485	19,999.5	56.1973	19,999.5	51.6224	19,999.5	53.6701	19,999.5	54.3429	19,999.5	56.8707	19,999.5	51.3902	19,999.5	54.6937	19,999.5	43.7019	19,999.5	48.8035	19,999.5	47.1882	19,999.5	59.549	19,999.5	48.6587	19,999.5	43.109	19,999.5	48.7901	19,999.5	52.4658
