"SPL Horizontal"
"On-Axis"		"10°"		"-10°"		"20°"		"-20°"		"30°"		"-30°"		"40°"		"-40°"		"50°"		"-50°"		"60°"		"-60°"		"70°"		"-70°"		"80°"		"-80°"		"90°"		"-90°"		"100°"		"-100°"		"110°"		"-110°"		"120°"		"-120°"		"130°"		"-130°"		"140°"		"-140°"		"150°"		"-150°"		"160°"		"-160°"		"170°"		"-170°"		"180°"
"Frequency / Hz"	"Sound Pressure Level / dB (re 20 µPa/V)  [2.83  V @ 1. m]"	"Frequency / Hz"	"Sound Pressure Level / dB (re 20 µPa/V)  [2.83  V @ 1. m]"	"Frequency / Hz"	"Sound Pressure Level / dB (re 20 µPa/V)  [2.83  V @ 1. m]"	"Frequency / Hz"	"Sound Pressure Level / dB (re 20 µPa/V)  [2.83  V @ 1. m]"	"Frequency / Hz"	"Sound Pressure Level / dB (re 20 µPa/V)  [2.83  V @ 1. m]"	"Frequency / Hz"	"Sound Pressure Level / dB (re 20 µPa/V)  [2.83  V @ 1. m]"	"Frequency / Hz"	"Sound Pressure Level / dB (re 20 µPa/V)  [2.83  V @ 1. m]"	"Frequency / Hz"	"Sound Pressure Level / dB (re 20 µPa/V)  [2.83  V @ 1. m]"	"Frequency / Hz"	"Sound Pressure Level / dB (re 20 µPa/V)  [2.83  V @ 1. m]"	"Frequency / Hz"	"Sound Pressure Level / dB (re 20 µPa/V)  [2.83  V @ 1. m]"	"Frequency / Hz"	"Sound Pressure Level / dB (re 20 µPa/V)  [2.83  V @ 1. m]"	"Frequency / Hz"	"Sound Pressure Level / dB (re 20 µPa/V)  [2.83  V @ 1. m]"	"Frequency / Hz"	"Sound Pressure Level / dB (re 20 µPa/V)  [2.83  V @ 1. m]"	"Frequency / Hz"	"Sound Pressure Level / dB (re 20 µPa/V)  [2.83  V @ 1. m]"	"Frequency / Hz"	"Sound Pressure Level / dB (re 20 µPa/V)  [2.83  V @ 1. m]"	"Frequency / Hz"	"Sound Pressure Level / dB (re 20 µPa/V)  [2.83  V @ 1. m]"	"Frequency / Hz"	"Sound Pressure Level / dB (re 20 µPa/V)  [2.83  V @ 1. m]"	"Frequency / Hz"	"Sound Pressure Level / dB (re 20 µPa/V)  [2.83  V @ 1. m]"	"Frequency / Hz"	"Sound Pressure Level / dB (re 20 µPa/V)  [2.83  V @ 1. m]"	"Frequency / Hz"	"Sound Pressure Level / dB (re 20 µPa/V)  [2.83  V @ 1. m]"	"Frequency / Hz"	"Sound Pressure Level / dB (re 20 µPa/V)  [2.83  V @ 1. m]"	"Frequency / Hz"	"Sound Pressure Level / dB (re 20 µPa/V)  [2.83  V @ 1. m]"	"Frequency / Hz"	"Sound Pressure Level / dB (re 20 µPa/V)  [2.83  V @ 1. m]"	"Frequency / Hz"	"Sound Pressure Level / dB (re 20 µPa/V)  [2.83  V @ 1. m]"	"Frequency / Hz"	"Sound Pressure Level / dB (re 20 µPa/V)  [2.83  V @ 1. m]"	"Frequency / Hz"	"Sound Pressure Level / dB (re 20 µPa/V)  [2.83  V @ 1. m]"	"Frequency / Hz"	"Sound Pressure Level / dB (re 20 µPa/V)  [2.83  V @ 1. m]"	"Frequency / Hz"	"Sound Pressure Level / dB (re 20 µPa/V)  [2.83  V @ 1. m]"	"Frequency / Hz"	"Sound Pressure Level / dB (re 20 µPa/V)  [2.83  V @ 1. m]"	"Frequency / Hz"	"Sound Pressure Level / dB (re 20 µPa/V)  [2.83  V @ 1. m]"	"Frequency / Hz"	"Sound Pressure Level / dB (re 20 µPa/V)  [2.83  V @ 1. m]"	"Frequency / Hz"	"Sound Pressure Level / dB (re 20 µPa/V)  [2.83  V @ 1. m]"	"Frequency / Hz"	"Sound Pressure Level / dB (re 20 µPa/V)  [2.83  V @ 1. m]"	"Frequency / Hz"	"Sound Pressure Level / dB (re 20 µPa/V)  [2.83  V @ 1. m]"	"Frequency / Hz"	"Sound Pressure Level / dB (re 20 µPa/V)  [2.83  V @ 1. m]"	"Frequency / Hz"	"Sound Pressure Level / dB (re 20 µPa/V)  [2.83  V @ 1. m]"
20.5078	54.0797	20.5078	54.0354	20.5078	54.0242	20.5078	53.8905	20.5078	53.8688	20.5078	53.6431	20.5078	53.6126	20.5078	53.291	20.5078	53.2545	20.5078	52.8323	20.5078	52.7937	20.5078	52.2661	20.5078	52.2304	20.5078	51.5936	20.5078	51.567	20.5078	50.8203	20.5078	50.8092	20.5078	49.9577	20.5078	49.9677	20.5078	49.0263	20.5078	49.0609	20.5078	48.0578	20.5078	48.117	20.5078	47.0956	20.5078	47.1749	20.5078	46.192	20.5078	46.2826	20.5078	45.3999	20.5078	45.4908	20.5078	44.7634	20.5078	44.8428	20.5078	44.3085	20.5078	44.3668	20.5078	44.0435	20.5078	44.0741	20.5078	43.9664
21.9727	54.7545	21.9727	54.6521	21.9727	54.7484	21.9727	54.4429	21.9727	54.6315	21.9727	54.1274	21.9727	54.4012	21.9727	53.7052	21.9727	54.0548	21.9727	53.1746	21.9727	53.5896	21.9727	52.5328	21.9727	53.0035	21.9727	51.7769	21.9727	52.2949	21.9727	50.9049	21.9727	51.4636	21.9727	49.9181	21.9727	50.5119	21.9727	48.8233	21.9727	49.447	21.9727	47.6363	21.9727	48.283	21.9727	46.3864	21.9727	47.0454	21.9727	45.1203	21.9727	45.7745	21.9727	43.907	21.9727	44.5284	21.9727	42.8369	21.9727	43.3833	21.9727	42.0129	21.9727	42.4285	21.9727	41.5282	21.9727	41.7552	21.9727	41.4405
23.4375	56.4161	23.4375	56.2374	23.4375	56.4925	23.4375	55.9557	23.4375	56.4657	23.4375	55.5691	23.4375	56.3335	23.4375	55.0751	23.4375	56.0928	23.4375	54.4709	23.4375	55.74	23.4375	53.7544	23.4375	55.2719	23.4375	52.9256	23.4375	54.6865	23.4375	51.9887	23.4375	53.9832	23.4375	50.955	23.4375	53.1643	23.4375	49.8475	23.4375	52.2365	23.4375	48.7053	23.4375	51.2133	23.4375	47.5866	23.4375	50.118	23.4375	46.5661	23.4375	48.9877	23.4375	45.7217	23.4375	47.8748	23.4375	45.1134	23.4375	46.8446	23.4375	44.7689	23.4375	45.966	23.4375	44.6889	23.4375	45.2957	23.4375	44.8662
24.9023	57.469	24.9023	57.3514	24.9023	57.4809	24.9023	57.1273	24.9023	57.387	24.9023	56.7949	24.9023	57.186	24.9023	56.3512	24.9023	56.8755	24.9023	55.793	24.9023	56.4528	24.9023	55.1165	24.9023	55.9147	24.9023	54.3183	24.9023	55.2584	24.9023	53.3968	24.9023	54.4819	24.9023	52.3544	24.9023	53.5846	24.9023	51.201	24.9023	52.5689	24.9023	49.9581	24.9023	51.4417	24.9023	48.6642	24.9023	50.2178	24.9023	47.3778	24.9023	48.9246	24.9023	46.1765	24.9023	47.6093	24.9023	45.1503	24.9023	46.3469	24.9023	44.3904	24.9023	45.2429	24.9023	43.9804	24.9023	44.4203	24.9023	43.9838
26.3672	57.1446	26.3672	57.0698	26.3672	57.1046	26.3672	56.8805	26.3672	56.9484	26.3672	56.5754	26.3672	56.6729	26.3672	56.1519	26.3672	56.2741	26.3672	55.6062	26.3672	55.7467	26.3672	54.9333	26.3672	55.0847	26.3672	54.1279	26.3672	54.282	26.3672	53.1849	26.3672	53.3329	26.3672	52.1009	26.3672	52.2332	26.3672	50.8764	26.3672	50.9821	26.3672	49.518	26.3672	49.5855	26.3672	48.0433	26.3672	48.0609	26.3672	46.4865	26.3672	46.4454	26.3672	44.9074	26.3672	44.8081	26.3672	43.4027	26.3672	43.2624	26.3672	42.1122	26.3672	41.9703	26.3672	41.2077	26.3672	41.1168	26.3672	40.8488
27.832	58.3794	27.832	58.2558	27.832	58.3781	27.832	58.0058	27.832	58.251	27.832	57.6264	27.832	57.9954	27.832	57.1125	27.832	57.6066	27.832	56.4574	27.832	57.0779	27.832	55.6525	27.832	56.4008	27.832	54.6877	27.832	55.565	27.832	53.5517	27.832	54.5589	27.832	52.2341	27.832	53.3691	27.832	50.7282	27.832	51.9817	27.832	49.0372	27.832	50.3831	27.832	47.1862	27.832	48.5651	27.832	45.2406	27.832	46.5367	27.832	43.3257	27.832	44.3535	27.832	41.6194	27.832	42.1776	27.832	40.2829	27.832	40.3385	27.832	39.3868	27.832	39.2313	27.832	38.9789
29.2969	58.4433	29.2969	58.3444	29.2969	58.4079	29.2969	58.1108	29.2969	58.2365	29.2969	57.7404	29.2969	57.9253	29.2969	57.2298	29.2969	57.4686	29.2969	56.5751	29.2969	56.8591	29.2969	55.7734	29.2969	56.0881	29.2969	54.8263	29.2969	55.1471	29.2969	53.7454	29.2969	54.031	29.2969	52.5635	29.2969	52.745	29.2969	51.3489	29.2969	51.3198	29.2969	50.217	29.2969	49.8407	29.2969	49.3127	29.2969	48.4848	29.2969	48.7411	29.2969	47.5093	29.2969	48.4906	29.2969	47.1008	29.2969	48.4413	29.2969	47.1951	29.2969	48.4468	29.2969	47.5468	29.2969	48.3964	29.2969	47.9326	29.2969	48.2295
30.7617	59.934	30.7617	59.8708	30.7617	59.8755	30.7617	59.6862	30.7617	59.6935	30.7617	59.3802	30.7617	59.3852	30.7617	58.9522	30.7617	58.9471	30.7617	58.4026	30.7617	58.3748	30.7617	57.7346	30.7617	57.6652	30.7617	56.9567	30.7617	56.818	30.7617	56.087	30.7617	55.8401	30.7617	55.1588	30.7617	54.7535	30.7617	54.2256	30.7617	53.6078	30.7617	53.3602	30.7617	52.4943	30.7617	52.64	30.7617	51.5472	30.7617	52.1166	30.7617	50.9024	30.7617	51.7891	30.7617	50.6176	30.7617	51.6059	30.7617	50.6301	30.7617	51.4927	30.7617	50.8089	30.7617	51.383	30.7617	51.0343	30.7617	51.2342
32.2266	59.6409	32.2266	59.5914	32.2266	59.567	32.2266	59.4224	32.2266	59.367	32.2266	59.1397	32.2266	59.0398	32.2266	58.7526	32.2266	58.5868	32.2266	58.277	32.2266	58.0157	32.2266	57.7389	32.2266	57.3456	32.2266	57.1781	32.2266	56.6153	32.2266	56.6497	32.2266	55.8924	32.2266	56.2175	32.2266	55.2737	32.2266	55.9375	32.2266	54.8647	32.2266	55.8345	32.2266	54.7313	32.2266	55.8898	32.2266	54.8592	32.2266	56.0508	32.2266	55.1653	32.2266	56.2539	32.2266	55.5474	32.2266	56.4437	32.2266	55.9228	32.2266	56.5801	32.2266	56.2395	32.2266	56.638	32.2266	56.4701	32.2266	56.6033
33.6914	61.5544	33.6914	61.5131	33.6914	61.5069	33.6914	61.3871	33.6914	61.3701	33.6914	61.1842	33.6914	61.1476	33.6914	60.917	33.6914	60.8488	33.6914	60.6038	33.6914	60.4908	33.6914	60.2701	33.6914	60.1007	33.6914	59.948	33.6914	59.7167	33.6914	59.6736	33.6914	59.3849	33.6914	59.4801	33.6914	59.1507	33.6914	59.3887	33.6914	59.0446	33.6914	59.4013	33.6914	59.0705	33.6914	59.4994	33.6914	59.2042	33.6914	59.6514	33.6914	59.4047	33.6914	59.8219	33.6914	59.6282	33.6914	59.9795	33.6914	59.838	33.6914	60.1007	33.6914	60.0087	33.6914	60.1702	33.6914	60.125	33.6914	60.1794
35.1562	64.1942	35.1562	64.1751	35.1562	64.1504	35.1562	64.0962	35.1562	64.0444	35.1562	63.9652	35.1562	63.8818	35.1562	63.794	35.1562	63.6732	35.1562	63.5993	35.1562	63.4353	35.1562	63.402	35.1562	63.1911	35.1562	63.2257	35.1562	62.9684	35.1562	63.0926	35.1562	62.796	35.1562	63.0199	35.1562	62.6971	35.1562	63.0143	35.1562	62.6835	35.1562	63.0709	35.1562	62.7512	35.1562	63.1743	35.1562	62.8823	35.1562	63.3035	35.1562	63.0511	35.1562	63.4361	35.1562	63.2306	35.1562	63.5528	35.1562	63.3976	35.1562	63.6386	35.1562	63.5351	35.1562	63.6835	35.1562	63.6318	35.1562	63.6819
36.6211	66.1557	36.6211	66.1502	36.6211	66.1241	36.6211	66.1106	36.6211	66.0569	36.6211	66.0433	36.6211	65.9597	36.6211	65.9585	36.6211	65.8423	36.6211	65.8693	36.6211	65.7189	36.6211	65.7905	36.6211	65.6067	36.6211	65.7366	36.6211	65.5238	36.6211	65.7197	36.6211	65.4862	36.6211	65.7464	36.6211	65.5036	36.6211	65.8168	36.6211	65.577	36.6211	65.9238	36.6211	65.6983	36.6211	66.0551	36.6211	65.8527	36.6211	66.1954	36.6211	66.0219	36.6211	66.3292	36.6211	66.1879	36.6211	66.4428	36.6211	66.3357	36.6211	66.5257	36.6211	66.4538	36.6211	66.5708	36.6211	66.5347	36.6211	66.5742
38.0859	68.802	38.0859	68.8	38.0859	68.7818	38.0859	68.7777	38.0859	68.7401	38.0859	68.7399	38.0859	68.6808	38.0859	68.6938	38.0859	68.6108	38.0859	68.6481	38.0859	68.5394	38.0859	68.6124	38.0859	68.4778	38.0859	68.5955	38.0859	68.4372	38.0859	68.6042	38.0859	68.427	38.0859	68.6416	38.0859	68.4529	38.0859	68.7069	38.0859	68.5149	38.0859	68.7946	38.0859	68.608	38.0859	68.896	38.0859	68.7226	38.0859	69.0007	38.0859	68.8469	38.0859	69.0981	38.0859	68.9689	38.0859	69.1788	38.0859	69.0783	38.0859	69.2359	38.0859	69.1671	38.0859	69.2645	38.0859	69.2296	38.0859	69.2626
39.5508	70.641	39.5508	70.6477	39.5508	70.6183	39.5508	70.6403	39.5508	70.5801	39.5508	70.6224	39.5508	70.5293	39.5508	70.5996	39.5508	70.471	39.5508	70.5783	39.5508	70.4125	39.5508	70.5652	39.5508	70.3625	39.5508	70.5664	39.5508	70.3298	39.5508	70.5862	39.5508	70.3221	39.5508	70.6265	39.5508	70.344	39.5508	70.6858	39.5508	70.3966	39.5508	70.76	39.5508	70.4762	39.5508	70.8421	39.5508	70.5758	39.5508	70.9242	39.5508	70.6859	39.5508	70.9978	39.5508	70.7966	39.5508	71.0558	39.5508	70.8988	39.5508	71.0927	39.5508	70.9851	39.5508	71.1048	39.5508	71.0501	39.5508	71.0906
41.0156	73.3377	41.0156	73.3405	41.0156	73.3279	41.0156	73.3368	41.0156	73.3124	41.0156	73.329	41.0156	73.2943	41.0156	73.3207	41.0156	73.2786	41.0156	73.3163	41.0156	73.2712	41.0156	73.3204	41.0156	73.2781	41.0156	73.3369	41.0156	73.3039	41.0156	73.3682	41.0156	73.3511	41.0156	73.4152	41.0156	73.4188	41.0156	73.4769	41.0156	73.5031	41.0156	73.5502	41.0156	73.5978	41.0156	73.631	41.0156	73.6954	41.0156	73.7141	41.0156	73.788	41.0156	73.7943	41.0156	73.8688	41.0156	73.8664	41.0156	73.9325	41.0156	73.9259	41.0156	73.9753	41.0156	73.9692	41.0156	73.9955	41.0156	73.9931
42.4805	74.891	42.4805	74.8904	42.4805	74.8849	42.4805	74.8835	42.4805	74.8727	42.4805	74.8723	42.4805	74.8565	42.4805	74.8597	42.4805	74.8394	42.4805	74.8493	42.4805	74.8255	42.4805	74.8447	42.4805	74.8188	42.4805	74.8495	42.4805	74.823	42.4805	74.8661	42.4805	74.8404	42.4805	74.8956	42.4805	74.8719	42.4805	74.9372	42.4805	74.9161	42.4805	74.9883	42.4805	74.9701	42.4805	75.0449	42.4805	75.0299	42.4805	75.1023	42.4805	75.0905	42.4805	75.1558	42.4805	75.1471	42.4805	75.2014	42.4805	75.1956	42.4805	75.236	42.4805	75.2326	42.4805	75.2574	42.4805	75.2559	42.4805	75.2642
43.9453	76.3933	43.9453	76.3941	43.9453	76.3894	43.9453	76.3922	43.9453	76.3829	43.9453	76.3888	43.9453	76.3751	43.9453	76.3856	43.9453	76.368	43.9453	76.385	43.9453	76.3639	43.9453	76.3891	43.9453	76.3655	43.9453	76.4003	43.9453	76.3751	43.9453	76.4198	43.9453	76.3943	43.9453	76.4481	43.9453	76.4236	43.9453	76.4844	43.9453	76.462	43.9453	76.5268	43.9453	76.5076	43.9453	76.5724	43.9453	76.5572	43.9453	76.6179	43.9453	76.6071	43.9453	76.6601	43.9453	76.6535	43.9453	76.6963	43.9453	76.6931	43.9453	76.7241	43.9453	76.723	43.9453	76.7417	43.9453	76.7416	43.9453	76.7478
45.4102	77.6656	45.4102	77.6631	45.4102	77.6657	45.4102	77.6587	45.4102	77.6639	45.4102	77.6534	45.4102	77.661	45.4102	77.6487	45.4102	77.6584	45.4102	77.6462	45.4102	77.6579	45.4102	77.648	45.4102	77.6614	45.4102	77.6556	45.4102	77.6705	45.4102	77.6702	45.4102	77.6863	45.4102	77.6921	45.4102	77.7092	45.4102	77.7206	45.4102	77.7385	45.4102	77.7542	45.4102	77.7728	45.4102	77.7908	45.4102	77.8099	45.4102	77.8278	45.4102	77.8469	45.4102	77.8629	45.4102	77.8809	45.4102	77.8937	45.4102	77.9094	45.4102	77.9184	45.4102	77.9301	45.4102	77.9353	45.4102	77.9416	45.4102	77.9433
46.875	78.7564	46.875	78.7561	46.875	78.7549	46.875	78.7541	46.875	78.7517	46.875	78.7512	46.875	78.7478	46.875	78.7486	46.875	78.7442	46.875	78.7476	46.875	78.7426	46.875	78.7496	46.875	78.7443	46.875	78.7562	46.875	78.7509	46.875	78.7682	46.875	78.7633	46.875	78.786	46.875	78.7818	46.875	78.8094	46.875	78.806	46.875	78.8374	46.875	78.8347	46.875	78.8681	46.875	78.8662	46.875	78.8996	46.875	78.8983	46.875	78.9293	46.875	78.9286	46.875	78.9552	46.875	78.9548	46.875	78.9752	46.875	78.9751	46.875	78.9879	46.875	78.9879	46.875	78.9923
48.3398	79.5095	48.3398	79.5091	48.3398	79.5081	48.3398	79.5072	48.3398	79.5054	48.3398	79.5044	48.3398	79.502	48.3398	79.5015	48.3398	79.4987	48.3398	79.4998	48.3398	79.4969	48.3398	79.5005	48.3398	79.4979	48.3398	79.5048	48.3398	79.5026	48.3398	79.5135	48.3398	79.5119	48.3398	79.5271	48.3398	79.5262	48.3398	79.5453	48.3398	79.5451	48.3398	79.5675	48.3398	79.5678	48.3398	79.5923	48.3398	79.593	48.3398	79.618	48.3398	79.619	48.3398	79.6427	48.3398	79.6437	48.3398	79.6645	48.3398	79.6653	48.3398	79.6815	48.3398	79.6821	48.3398	79.6924	48.3398	79.6927	48.3398	79.6962
51.2695	80.4206	51.2695	80.4165	51.2695	80.423	51.2695	80.411	51.2695	80.4239	51.2695	80.4046	51.2695	80.4235	51.2695	80.3978	51.2695	80.4223	51.2695	80.3917	51.2695	80.421	51.2695	80.387	51.2695	80.4204	51.2695	80.3848	51.2695	80.4212	51.2695	80.3857	51.2695	80.424	51.2695	80.3901	51.2695	80.429	51.2695	80.3982	51.2695	80.4363	51.2695	80.4097	51.2695	80.4454	51.2695	80.4239	51.2695	80.4559	51.2695	80.4397	51.2695	80.4669	51.2695	80.4557	51.2695	80.4775	51.2695	80.4706	51.2695	80.4867	51.2695	80.4829	51.2695	80.4935	51.2695	80.4918	51.2695	80.497	51.2695	80.4966
52.7344	80.7604	52.7344	80.7574	52.7344	80.7612	52.7344	80.7526	52.7344	80.76	52.7344	80.7463	52.7344	80.757	52.7344	80.7392	52.7344	80.7528	52.7344	80.7318	52.7344	80.7479	52.7344	80.725	52.7344	80.743	52.7344	80.7196	52.7344	80.7391	52.7344	80.716	52.7344	80.7366	52.7344	80.7149	52.7344	80.736	52.7344	80.7163	52.7344	80.7375	52.7344	80.7205	52.7344	80.7411	52.7344	80.7269	52.7344	80.7464	52.7344	80.7352	52.7344	80.7528	52.7344	80.7445	52.7344	80.7595	52.7344	80.7538	52.7344	80.7657	52.7344	80.762	52.7344	80.7703	52.7344	80.7683	52.7344	80.7726	52.7344	80.772
54.1992	80.9125	54.1992	80.9103	54.1992	80.9132	54.1992	80.9067	54.1992	80.9123	54.1992	80.9021	54.1992	80.9103	54.1992	80.8969	54.1992	80.9073	54.1992	80.8918	54.1992	80.9041	54.1992	80.8874	54.1992	80.9011	54.1992	80.8844	54.1992	80.8991	54.1992	80.8832	54.1992	80.8984	54.1992	80.8842	54.1992	80.8996	54.1992	80.8874	54.1992	80.9028	54.1992	80.8926	54.1992	80.9082	54.1992	80.8998	54.1992	80.9153	54.1992	80.9084	54.1992	80.9236	54.1992	80.9179	54.1992	80.9321	54.1992	80.9275	54.1992	80.9398	54.1992	80.9363	54.1992	80.9454	54.1992	80.9433	54.1992	80.9481	54.1992	80.9474
55.6641	81.1347	55.6641	81.1428	55.6641	81.1226	55.6641	81.1471	55.6641	81.1065	55.6641	81.1475	55.6641	81.0868	55.6641	81.1444	55.6641	81.0636	55.6641	81.138	55.6641	81.0377	55.6641	81.1286	55.6641	81.0098	55.6641	81.1164	55.6641	80.9812	55.6641	81.1017	55.6641	80.9535	55.6641	81.0851	55.6641	80.9281	55.6641	81.0668	55.6641	80.9069	55.6641	81.0475	55.6641	80.8911	55.6641	81.0277	55.6641	80.8816	55.6641	81.0082	55.6641	80.8784	55.6641	80.9895	55.6641	80.8811	55.6641	80.9719	55.6641	80.8884	55.6641	80.9555	55.6641	80.8991	55.6641	80.9401	55.6641	80.9118	55.6641	80.9256
58.5938	81.3173	58.5938	81.3116	58.5938	81.3195	58.5938	81.3024	58.5938	81.3183	58.5938	81.2899	58.5938	81.3137	58.5938	81.2743	58.5938	81.3059	58.5938	81.2562	58.5938	81.2953	58.5938	81.2361	58.5938	81.2822	58.5938	81.2148	58.5938	81.2669	58.5938	81.1932	58.5938	81.2499	58.5938	81.1722	58.5938	81.2316	58.5938	81.1528	58.5938	81.2124	58.5938	81.1356	58.5938	81.1931	58.5938	81.1213	58.5938	81.1743	58.5938	81.1103	58.5938	81.1567	58.5938	81.1025	58.5938	81.1409	58.5938	81.098	58.5938	81.1273	58.5938	81.0964	58.5938	81.1162	58.5938	81.0976	58.5938	81.1075	58.5938	81.1013
60.0586	81.5023	60.0586	81.5034	60.0586	81.4974	60.0586	81.5005	60.0586	81.4886	60.0586	81.4936	60.0586	81.476	60.0586	81.483	60.0586	81.4599	60.0586	81.4687	60.0586	81.4403	60.0586	81.4511	60.0586	81.4177	60.0586	81.4306	60.0586	81.3926	60.0586	81.4079	60.0586	81.3658	60.0586	81.3835	60.0586	81.3381	60.0586	81.3584	60.0586	81.3108	60.0586	81.3331	60.0586	81.2849	60.0586	81.3086	60.0586	81.2616	60.0586	81.2857	60.0586	81.2419	60.0586	81.265	60.0586	81.2266	60.0586	81.2472	60.0586	81.2161	60.0586	81.2325	60.0586	81.2107	60.0586	81.2212	60.0586	81.2099	60.0586	81.2136
62.9883	81.8845	62.9883	81.8758	62.9883	81.8879	62.9883	81.862	62.9883	81.8858	62.9883	81.8434	62.9883	81.8783	62.9883	81.8204	62.9883	81.8655	62.9883	81.7938	62.9883	81.8475	62.9883	81.7641	62.9883	81.8248	62.9883	81.7323	62.9883	81.7982	62.9883	81.6996	62.9883	81.7685	62.9883	81.6671	62.9883	81.737	62.9883	81.6361	62.9883	81.7049	62.9883	81.6079	62.9883	81.6735	62.9883	81.5835	62.9883	81.6441	62.9883	81.5638	62.9883	81.6176	62.9883	81.5493	62.9883	81.5947	62.9883	81.54	62.9883	81.5756	62.9883	81.5358	62.9883	81.5603	62.9883	81.5362	62.9883	81.5487	62.9883	81.5406
64.4531	82.0068	64.4531	81.9943	64.4531	82.0133	64.4531	81.976	64.4531	82.0138	64.4531	81.9522	64.4531	82.0082	64.4531	81.9235	64.4531	81.9966	64.4531	81.8905	64.4531	81.9795	64.4531	81.8544	64.4531	81.9571	64.4531	81.8163	64.4531	81.9301	64.4531	81.7777	64.4531	81.8994	64.4531	81.74	64.4531	81.866	64.4531	81.7047	64.4531	81.8312	64.4531	81.6734	64.4531	81.7962	64.4531	81.6472	64.4531	81.7623	64.4531	81.6271	64.4531	81.7304	64.4531	81.6136	64.4531	81.7015	64.4531	81.6066	64.4531	81.6758	64.4531	81.606	64.4531	81.6538	64.4531	81.611	64.4531	81.6354	64.4531	81.621
67.3828	82.2779	67.3828	82.2648	67.3828	82.2858	67.3828	82.2471	67.3828	82.2885	67.3828	82.2249	67.3828	82.2856	67.3828	82.199	67.3828	82.2772	67.3828	82.1698	67.3828	82.2634	67.3828	82.1382	67.3828	82.2445	67.3828	82.1052	67.3828	82.2212	67.3828	82.072	67.3828	82.1943	67.3828	82.04	67.3828	82.165	67.3828	82.0106	67.3828	82.1346	67.3828	81.9852	67.3828	82.1043	67.3828	81.9647	67.3828	82.0752	67.3828	81.9499	67.3828	82.0483	67.3828	81.9411	67.3828	82.024	67.3828	81.938	67.3828	82.0027	67.3828	81.9399	67.3828	81.9842	67.3828	81.9461	67.3828	81.9687	67.3828	81.9559
68.8477	82.3908	68.8477	82.3814	68.8477	82.3954	68.8477	82.3675	68.8477	82.395	68.8477	82.3493	68.8477	82.3897	68.8477	82.3274	68.8477	82.3795	68.8477	82.3023	68.8477	82.3647	68.8477	82.2748	68.8477	82.3459	68.8477	82.2459	68.8477	82.3237	68.8477	82.2168	68.8477	82.2992	68.8477	82.1888	68.8477	82.2734	68.8477	82.1632	68.8477	82.2476	68.8477	82.141	68.8477	82.2228	68.8477	82.1234	68.8477	82.2	68.8477	82.1108	68.8477	82.1796	68.8477	82.1033	68.8477	82.162	68.8477	82.1007	68.8477	82.1469	68.8477	82.1021	68.8477	82.1341	68.8477	82.1069	68.8477	82.1232	68.8477	82.1141
71.7773	82.7086	71.7773	82.6949	71.7773	82.7159	71.7773	82.675	71.7773	82.7167	71.7773	82.6493	71.7773	82.7112	71.7773	82.6183	71.7773	82.6997	71.7773	82.5828	71.7773	82.6825	71.7773	82.5439	71.7773	82.6602	71.7773	82.503	71.7773	82.6338	71.7773	82.4616	71.7773	82.6043	71.7773	82.4215	71.7773	82.5729	71.7773	82.3846	71.7773	82.5409	71.7773	82.3527	71.7773	82.5096	71.7773	82.3272	71.7773	82.4798	71.7773	82.3094	71.7773	82.4519	71.7773	82.2998	71.7773	82.4259	71.7773	82.2986	71.7773	82.4015	71.7773	82.3051	71.7773	82.3782	71.7773	82.318	71.7773	82.3561	71.7773	82.3356
74.707	83.0995	74.707	83.0856	74.707	83.1067	74.707	83.0652	74.707	83.1068	74.707	83.0389	74.707	83.0999	74.707	83.0074	74.707	83.0862	74.707	82.9717	74.707	83.0661	74.707	82.933	74.707	83.0403	74.707	82.8926	74.707	83.0099	74.707	82.8522	74.707	82.9762	74.707	82.8133	74.707	82.9406	74.707	82.7777	74.707	82.905	74.707	82.7469	74.707	82.8706	74.707	82.722	74.707	82.8388	74.707	82.7039	74.707	82.8101	74.707	82.6932	74.707	82.7849	74.707	82.6894	74.707	82.7629	74.707	82.6921	74.707	82.7435	74.707	82.7	74.707	82.7265	74.707	82.7118
77.6367	83.3913	77.6367	83.3828	77.6367	83.3914	77.6367	83.3661	77.6367	83.3833	77.6367	83.3417	77.6367	83.3675	77.6367	83.3103	77.6367	83.3444	77.6367	83.2732	77.6367	83.3151	77.6367	83.2318	77.6367	83.2806	77.6367	83.188	77.6367	83.242	77.6367	83.1437	77.6367	83.2009	77.6367	83.101	77.6367	83.1589	77.6367	83.062	77.6367	83.1177	77.6367	83.0283	77.6367	83.079	77.6367	83.001	77.6367	83.0445	77.6367	82.9805	77.6367	83.0155	77.6367	82.9665	77.6367	82.9925	77.6367	82.9579	77.6367	82.9757	77.6367	82.9535	77.6367	82.9642	77.6367	82.9522	77.6367	82.9571	77.6367	82.9533
79.1016	83.5471	79.1016	83.5393	79.1016	83.5457	79.1016	83.5224	79.1016	83.5352	79.1016	83.4969	79.1016	83.5162	79.1016	83.4636	79.1016	83.4893	79.1016	83.4237	79.1016	83.4556	79.1016	83.3791	79.1016	83.4161	79.1016	83.3315	79.1016	83.3722	79.1016	83.2831	79.1016	83.3256	79.1016	83.2361	79.1016	83.2779	79.1016	83.1926	79.1016	83.2313	79.1016	83.1543	79.1016	83.1876	79.1016	83.1224	79.1016	83.1487	79.1016	83.0973	79.1016	83.1162	79.1016	83.0789	79.1016	83.0907	79.1016	83.0662	79.1016	83.0724	79.1016	83.0581	79.1016	83.0606	79.1016	83.0536	79.1016	83.0543	79.1016	83.0522
82.0312	83.8486	82.0312	83.8381	82.0312	83.8497	82.0312	83.8181	82.0312	83.8416	82.0312	83.7892	82.0312	83.8246	82.0312	83.7519	82.0312	83.7993	82.0312	83.7074	82.0312	83.7666	82.0312	83.6573	82.0312	83.7274	82.0312	83.6034	82.0312	83.6831	82.0312	83.5484	82.0312	83.6352	82.0312	83.4948	82.0312	83.5856	82.0312	83.4453	82.0312	83.5363	82.0312	83.4022	82.0312	83.4893	82.0312	83.3672	82.0312	83.4464	82.0312	83.341	82.0312	83.4091	82.0312	83.3233	82.0312	83.3783	82.0312	83.3131	82.0312	83.3541	82.0312	83.309	82.0312	83.3359	82.0312	83.3098	82.0312	83.323	82.0312	83.3145
84.9609	84.128	84.9609	84.0974	84.9609	84.1493	84.9609	84.0585	84.9609	84.1605	84.9609	84.0125	84.9609	84.1612	84.9609	83.9607	84.9609	84.1513	84.9609	83.9051	84.9609	84.1311	84.9609	83.8477	84.9609	84.1015	84.9609	83.791	84.9609	84.0637	84.9609	83.7377	84.9609	84.0196	84.9609	83.6904	84.9609	83.9715	84.9609	83.6518	84.9609	83.9218	84.9609	83.6234	84.9609	83.8733	84.9609	83.606	84.9609	83.828	84.9609	83.5992	84.9609	83.7877	84.9609	83.6015	84.9609	83.753	84.9609	83.6106	84.9609	83.7237	84.9609	83.6243	84.9609	83.699	84.9609	83.6406	84.9609	83.6777	84.9609	83.6584
87.8906	84.1678	87.8906	84.1736	87.8906	84.1556	87.8906	84.1729	87.8906	84.1375	87.8906	84.1658	87.8906	84.114	87.8906	84.1528	87.8906	84.0863	87.8906	84.1352	87.8906	84.0556	87.8906	84.1142	87.8906	84.0233	87.8906	84.0917	87.8906	83.9916	87.8906	84.0697	87.8906	83.9625	87.8906	84.0501	87.8906	83.9384	87.8906	84.0347	87.8906	83.9214	87.8906	84.0244	87.8906	83.9129	87.8906	84.0195	87.8906	83.9135	87.8906	84.0192	87.8906	83.9224	87.8906	84.0218	87.8906	83.9382	87.8906	84.0248	87.8906	83.958	87.8906	84.0256	87.8906	83.979	87.8906	84.0221	87.8906	83.9981	87.8906	84.0129
90.8203	85.144	90.8203	85.1484	90.8203	85.119	90.8203	85.1328	90.8203	85.0735	90.8203	85.0979	90.8203	85.0084	90.8203	85.0452	90.8203	84.9249	90.8203	84.9764	90.8203	84.8256	90.8203	84.8936	90.8203	84.7136	90.8203	84.7996	90.8203	84.5932	90.8203	84.6973	90.8203	84.4695	90.8203	84.5902	90.8203	84.3479	90.8203	84.4822	90.8203	84.2339	90.8203	84.3769	90.8203	84.1325	90.8203	84.278	90.8203	84.0476	90.8203	84.1886	90.8203	83.9815	90.8203	84.1106	90.8203	83.9352	90.8203	84.0449	90.8203	83.9077	90.8203	83.9916	90.8203	83.8975	90.8203	83.9502	90.8203	83.9024	90.8203	83.9204
95.2148	84.9884	95.2148	84.9708	95.2148	84.995	95.2148	84.9432	95.2148	84.99	95.2148	84.9071	95.2148	84.9734	95.2148	84.8645	95.2148	84.9463	95.2148	84.8175	95.2148	84.91	95.2148	84.7686	95.2148	84.867	95.2148	84.7203	95.2148	84.82	95.2148	84.6751	95.2148	84.772	95.2148	84.6354	95.2148	84.7262	95.2148	84.6033	95.2148	84.6854	95.2148	84.5801	95.2148	84.6518	95.2148	84.5666	95.2148	84.6267	95.2148	84.5621	95.2148	84.6103	95.2148	84.5651	95.2148	84.6016	95.2148	84.5729	95.2148	84.5985	95.2148	84.5825	95.2148	84.5985	95.2148	84.5909	95.2148	84.5985	95.2148	84.5964
98.1445	85.4219	98.1445	85.418	98.1445	85.4117	98.1445	85.4005	98.1445	85.3874	98.1445	85.3707	98.1445	85.3496	98.1445	85.3303	98.1445	85.2999	98.1445	85.2814	98.1445	85.2402	98.1445	85.2264	98.1445	85.1734	98.1445	85.1678	98.1445	85.1027	98.1445	85.108	98.1445	85.0316	98.1445	85.0495	98.1445	84.9639	98.1445	84.9944	98.1445	84.9029	98.1445	84.9445	98.1445	84.8512	98.1445	84.9011	98.1445	84.8107	98.1445	84.8647	98.1445	84.7819	98.1445	84.8355	98.1445	84.7642	98.1445	84.8125	98.1445	84.7562	98.1445	84.7947	98.1445	84.7558	98.1445	84.7806	98.1445	84.7607	98.1445	84.7693
101.074	85.4306	101.074	85.4091	101.074	85.442	101.074	85.3781	101.074	85.4436	101.074	85.3382	101.074	85.4357	101.074	85.2914	101.074	85.4187	101.074	85.24	101.074	85.3932	101.074	85.1871	101.074	85.36	101.074	85.1362	101.074	85.3203	101.074	85.0907	101.074	85.276	101.074	85.0535	101.074	85.2297	101.074	85.0263	101.074	85.1845	101.074	85.0098	101.074	85.1437	101.074	85.0031	101.074	85.1099	101.074	85.0043	101.074	85.0845	101.074	85.011	101.074	85.0675	101.074	85.0204	101.074	85.0575	101.074	85.0301	101.074	85.052	101.074	85.0384	101.074	85.0485	101.074	85.0444
105.469	86.0082	105.469	85.9996	105.469	85.9995	105.469	85.9732	105.469	85.9745	105.469	85.9296	105.469	85.9353	105.469	85.8702	105.469	85.8847	105.469	85.7974	105.469	85.8261	105.469	85.7143	105.469	85.763	105.469	85.6251	105.469	85.699	105.469	85.5344	105.469	85.637	105.469	85.4476	105.469	85.5791	105.469	85.37	105.469	85.5267	105.469	85.3061	105.469	85.4801	105.469	85.2593	105.469	85.4391	105.469	85.2307	105.469	85.4031	105.469	85.219	105.469	85.3715	105.469	85.2213	105.469	85.3433	105.469	85.2332	105.469	85.3178	105.469	85.251	105.469	85.2942	105.469	85.2718
108.398	86.2137	108.398	86.1985	108.398	86.2105	108.398	86.1662	108.398	86.1886	108.398	86.1186	108.398	86.1487	108.398	86.0585	108.398	86.0926	108.398	85.989	108.398	86.0233	108.398	85.9137	108.398	85.9445	108.398	85.8361	108.398	85.8608	108.398	85.7598	108.398	85.7773	108.398	85.6884	108.398	85.6986	108.398	85.6248	108.398	85.6288	108.398	85.5715	108.398	85.5711	108.398	85.53	108.398	85.5267	108.398	85.5006	108.398	85.4957	108.398	85.4821	108.398	85.4765	108.398	85.4721	108.398	85.4666	108.398	85.4674	108.398	85.463	108.398	85.4653	108.398	85.4628	108.398	85.4639
112.793	86.6291	112.793	86.6068	112.793	86.6291	112.793	86.5633	112.793	86.6066	112.793	86.501	112.793	86.563	112.793	86.4235	112.793	86.5008	112.793	86.3352	112.793	86.4237	112.793	86.2412	112.793	86.3361	112.793	86.1469	112.793	86.2435	112.793	86.0572	112.793	86.1515	112.793	85.9769	112.793	86.0656	112.793	85.9094	112.793	85.9903	112.793	85.8568	112.793	85.9288	112.793	85.8197	112.793	85.8825	112.793	85.7971	112.793	85.8506	112.793	85.7869	112.793	85.8308	112.793	85.7859	112.793	85.8197	112.793	85.7905	112.793	85.8135	112.793	85.7972	112.793	85.8089	112.793	85.8037
117.188	87.0452	117.188	87.0317	117.188	87.0309	117.188	86.9913	117.188	86.989	117.188	86.9261	117.188	86.9207	117.188	86.8393	117.188	86.8284	117.188	86.735	117.188	86.7158	117.188	86.6186	117.188	86.5878	117.188	86.4958	117.188	86.4506	117.188	86.373	117.188	86.3114	117.188	86.2563	117.188	86.1777	117.188	86.1507	117.188	86.057	117.188	86.0603	117.188	85.9555	117.188	85.9867	117.188	85.8772	117.188	85.93	117.188	85.8233	117.188	85.8883	117.188	85.7922	117.188	85.8582	117.188	85.7797	117.188	85.8361	117.188	85.7807	117.188	85.8184	117.188	85.7898	117.188	85.8031
120.117	87.2671	120.117	87.2434	120.117	87.2645	120.117	87.1949	120.117	87.2349	120.117	87.1234	120.117	87.1779	120.117	87.0316	120.117	87.0946	120.117	86.9227	120.117	86.987	120.117	86.8008	120.117	86.8585	120.117	86.6709	120.117	86.7145	120.117	86.5386	120.117	86.5617	120.117	86.4098	120.117	86.4082	120.117	86.2899	120.117	86.2626	120.117	86.1835	120.117	86.133	120.117	86.0936	120.117	86.0259	120.117	86.0212	120.117	85.9449	120.117	85.9654	120.117	85.8901	120.117	85.9238	120.117	85.8587	120.117	85.8933	120.117	85.8458	120.117	85.8711	120.117	85.8462	120.117	85.8554
124.512	87.2991	124.512	87.2799	124.512	87.2958	124.512	87.2384	124.512	87.2707	124.512	87.1757	124.512	87.2249	124.512	87.0937	124.512	87.1603	124.512	86.9953	124.512	87.0795	124.512	86.8846	124.512	86.9856	124.512	86.7669	124.512	86.8827	124.512	86.648	124.512	86.7749	124.512	86.5345	124.512	86.6668	124.512	86.4321	124.512	86.5632	124.512	86.3456	124.512	86.4684	124.512	86.2777	124.512	86.386	124.512	86.2288	124.512	86.3183	124.512	86.1971	124.512	86.2659	124.512	86.1793	124.512	86.2281	124.512	86.1719	124.512	86.2025	124.512	86.1715	124.512	86.1861	124.512	86.1763
128.906	87.2957	128.906	87.2782	128.906	87.2925	128.906	87.241	128.906	87.2687	128.906	87.1858	128.906	87.2252	128.906	87.1155	128.906	87.1641	128.906	87.0339	128.906	87.0885	128.906	86.9455	128.906	87.0029	128.906	86.8556	128.906	86.9124	128.906	86.7699	128.906	86.8229	128.906	86.6935	128.906	86.7405	128.906	86.6309	128.906	86.6706	128.906	86.5847	128.906	86.6173	128.906	86.5559	128.906	86.5823	128.906	86.5431	128.906	86.5646	128.906	86.5432	128.906	86.5609	128.906	86.5515	128.906	86.5658	128.906	86.5633	128.906	86.5736	128.906	86.5738	128.906	86.5793	128.906	86.5796
133.301	87.6709	133.301	87.6602	133.301	87.6586	133.301	87.627	133.301	87.6236	133.301	87.5725	133.301	87.5672	133.301	87.4991	133.301	87.4914	133.301	87.4102	133.301	87.3993	133.301	87.3102	133.301	87.295	133.301	87.2046	133.301	87.1835	133.301	87.0995	133.301	87.0711	133.301	87.001	133.301	86.9642	133.301	86.9143	133.301	86.8694	133.301	86.8433	133.301	86.7921	133.301	86.7894	133.301	86.7357	133.301	86.752	133.301	86.7004	133.301	86.7285	133.301	86.6836	133.301	86.7153	133.301	86.6804	133.301	86.7082	133.301	86.6848	133.301	86.7035	133.301	86.6919	133.301	86.6984
139.16	87.8855	139.16	87.8677	139.16	87.877	139.16	87.8246	139.16	87.8423	139.16	87.7582	139.16	87.7829	139.16	87.6719	139.16	87.7014	139.16	87.5704	139.16	87.6016	139.16	87.4594	139.16	87.4887	139.16	87.3457	139.16	87.3688	139.16	87.2366	139.16	87.2491	139.16	87.1393	139.16	87.1371	139.16	87.0598	139.16	87.04	139.16	87.0018	139.16	86.9634	139.16	86.9656	139.16	86.9107	139.16	86.9483	139.16	86.8821	139.16	86.9442	139.16	86.8749	139.16	86.9465	139.16	86.8835	139.16	86.9489	139.16	86.9011	139.16	86.9465	139.16	86.9207	139.16	86.937
143.555	87.9976	143.555	87.9689	143.555	87.9995	143.555	87.9143	143.555	87.9747	143.555	87.8362	143.555	87.9248	143.555	87.7382	143.555	87.8527	143.555	87.6256	143.555	87.7622	143.555	87.5045	143.555	87.6581	143.555	87.3821	143.555	87.5466	143.555	87.2662	143.555	87.4342	143.555	87.1648	143.555	87.3282	143.555	87.0844	143.555	87.2354	143.555	87.0296	143.555	87.161	143.555	87.0013	143.555	87.1081	143.555	86.9966	143.555	87.0769	143.555	87.0094	143.555	87.0643	143.555	87.0312	143.555	87.0651	143.555	87.054	143.555	87.0723	143.555	87.0714	143.555	87.079	143.555	87.0797
147.949	88.1209	147.949	88.0921	147.949	88.1194	147.949	88.0343	147.949	88.0878	147.949	87.9503	147.949	88.0281	147.949	87.8441	147.949	87.9435	147.949	87.7215	147.949	87.8384	147.949	87.5889	147.949	87.7187	147.949	87.4538	147.949	87.5917	147.949	87.3244	147.949	87.4651	147.949	87.2087	147.949	87.3476	147.949	87.1143	147.949	87.2465	147.949	87.0466	147.949	87.1677	147.949	87.0079	147.949	87.1136	147.949	86.9963	147.949	87.0834	147.949	87.0059	147.949	87.0729	147.949	87.0283	147.949	87.0754	147.949	87.054	147.949	87.0833	147.949	87.0754	147.949	87.0892	147.949	87.0874
153.809	88.2688	153.809	88.237	153.809	88.2671	153.809	88.173	153.809	88.2316	153.809	88.0799	153.809	88.1636	153.809	87.9621	153.809	88.0659	153.809	87.8256	153.809	87.9429	153.809	87.678	153.809	87.8008	153.809	87.528	153.809	87.6474	153.809	87.3852	153.809	87.4922	153.809	87.2586	153.809	87.3459	153.809	87.1558	153.809	87.2186	153.809	87.0814	153.809	87.1187	153.809	87.0366	153.809	87.0503	153.809	87.0183	153.809	87.013	153.809	87.0198	153.809	87.0017	153.809	87.032	153.809	87.0085	153.809	87.0457	153.809	87.0244	153.809	87.0537	153.809	87.0411	153.809	87.0521
159.668	88.4323	159.668	88.41	159.668	88.4231	159.668	88.3572	159.668	88.3826	159.668	88.2764	159.668	88.3123	159.668	88.1709	159.668	88.2155	159.668	88.0456	159.668	88.0971	159.668	87.9066	159.668	87.9637	159.668	87.7617	159.668	87.8235	159.668	87.6197	159.668	87.6858	159.668	87.4906	159.668	87.5599	159.668	87.3832	159.668	87.4547	159.668	87.3045	159.668	87.3764	159.668	87.2572	159.668	87.3279	159.668	87.2399	159.668	87.3071	159.668	87.2466	159.668	87.3076	159.668	87.2688	159.668	87.3201	159.668	87.2971	159.668	87.3345	159.668	87.3225	159.668	87.3423	159.668	87.3387
165.527	88.4317	165.527	88.3949	165.527	88.4348	165.527	88.3266	165.527	88.4038	165.527	88.2309	165.527	88.34	165.527	88.1133	165.527	88.2466	165.527	87.9811	165.527	88.1284	165.527	87.8428	165.527	87.9928	165.527	87.708	165.527	87.8486	165.527	87.5865	165.527	87.7066	165.527	87.4873	165.527	87.5786	165.527	87.4173	165.527	87.4753	165.527	87.3799	165.527	87.4051	165.527	87.3739	165.527	87.3716	165.527	87.3932	165.527	87.3722	165.527	87.4286	165.527	87.399	165.527	87.4695	165.527	87.4403	165.527	87.5054	165.527	87.483	165.527	87.5281	165.527	87.5161	165.527	87.5322
171.387	88.5747	171.387	88.5202	171.387	88.5872	171.387	88.4251	171.387	88.5587	171.387	88.2928	171.387	88.492	171.387	88.1298	171.387	88.3914	171.387	87.9454	171.387	88.2632	171.387	87.7513	171.387	88.1152	171.387	87.5619	171.387	87.957	171.387	87.3922	171.387	87.7996	171.387	87.2564	171.387	87.6545	171.387	87.1656	171.387	87.533	171.387	87.1249	171.387	87.4439	171.387	87.1319	171.387	87.3917	171.387	87.1772	171.387	87.3749	171.387	87.2459	171.387	87.3863	171.387	87.3217	171.387	87.4138	171.387	87.3896	171.387	87.4438	171.387	87.4388	171.387	87.4636	171.387	87.4636
177.246	88.6648	177.246	88.6479	177.246	88.6382	177.246	88.5861	177.246	88.5703	177.246	88.4803	177.246	88.4652	177.246	88.3329	177.246	88.3281	177.246	88.1493	177.246	88.166	177.246	87.9381	177.246	87.9874	177.246	87.7117	177.246	87.8027	177.246	87.4861	177.246	87.6241	177.246	87.2799	177.246	87.4641	177.246	87.1117	177.246	87.3343	177.246	86.9959	177.246	87.2429	177.246	86.9389	177.246	87.1923	177.246	86.9373	177.246	87.1779	177.246	86.9782	177.246	87.1891	177.246	87.0437	177.246	87.2117	177.246	87.115	177.246	87.2314	177.246	87.1767	177.246	87.2361	177.246	87.2185
183.105	88.5041	183.105	88.5068	183.105	88.4634	183.105	88.472	183.105	88.3859	183.105	88.401	183.105	88.2738	183.105	88.2958	183.105	88.1317	183.105	88.1597	183.105	87.9657	183.105	87.9981	183.105	87.7841	183.105	87.8188	183.105	87.5967	183.105	87.633	183.105	87.415	183.105	87.4547	183.105	87.2514	183.105	87.299	183.105	87.118	183.105	87.1787	183.105	87.0244	183.105	87.101	183.105	86.9753	183.105	87.0656	183.105	86.9682	183.105	87.0645	183.105	86.9936	183.105	87.0846	183.105	87.0371	183.105	87.1113	183.105	87.083	183.105	87.1312	183.105	87.1183	183.105	87.135
188.965	88.4666	188.965	88.4539	188.965	88.4359	188.965	88.4017	188.965	88.3597	188.965	88.3156	188.965	88.2387	188.965	88.2018	188.965	88.0769	188.965	88.0667	188.965	87.8822	188.965	87.917	188.965	87.6668	188.965	87.7598	188.965	87.4464	188.965	87.6034	188.965	87.2391	188.965	87.4582	188.965	87.0628	188.965	87.3358	188.965	86.9322	188.965	87.2468	188.965	86.8557	188.965	87.1968	188.965	86.8343	188.965	87.1837	188.965	86.8615	188.965	87.1973	188.965	86.9249	188.965	87.2223	188.965	87.0083	188.965	87.2425	188.965	87.0947	188.965	87.2447	188.965	87.1691	188.965	87.2208
196.289	88.5944	196.289	88.5385	196.289	88.5956	196.289	88.4316	196.289	88.5414	196.289	88.2804	196.289	88.4334	196.289	88.0951	196.289	88.2759	196.289	87.8883	196.289	88.0752	196.289	87.6745	196.289	87.8405	196.289	87.4685	196.289	87.5849	196.289	87.2843	196.289	87.3252	196.289	87.1334	196.289	87.0826	196.289	87.0244	196.289	86.8798	196.289	86.9617	196.289	86.7365	196.289	86.9436	196.289	86.6639	196.289	86.9618	196.289	86.6606	196.289	87.0014	196.289	86.713	196.289	87.0446	196.289	86.7995	196.289	87.0741	196.289	86.8968	196.289	87.0771	196.289	86.9841	196.289	87.0469
203.613	88.5779	203.613	88.5264	203.613	88.5726	203.613	88.4187	203.613	88.5117	203.613	88.2584	203.613	88.3978	203.613	88.0518	203.613	88.2356	203.613	87.8095	203.613	88.0319	203.613	87.5456	203.613	87.7962	203.613	87.2784	203.613	87.5414	203.613	87.0283	203.613	87.2841	203.613	86.8156	203.613	87.0439	203.613	86.6568	203.613	86.8413	203.613	86.5613	203.613	86.6935	203.613	86.5286	203.613	86.6093	203.613	86.5481	203.613	86.5856	203.613	86.6019	203.613	86.6087	203.613	86.6685	203.613	86.6584	203.613	86.7284	203.613	86.7136	203.613	86.767	203.613	86.7571	203.613	86.7768
210.938	88.4177	210.938	88.3558	210.938	88.4317	210.938	88.2462	210.938	88.3985	210.938	88.0898	210.938	88.3187	210.938	87.8897	210.938	88.194	210.938	87.6525	210.938	88.0275	210.938	87.3891	210.938	87.8246	210.938	87.1153	210.938	87.5941	210.938	86.851	210.938	87.3494	210.938	86.6182	210.938	87.108	210.938	86.4384	210.938	86.8903	210.938	86.3276	210.938	86.7157	210.938	86.2915	210.938	86.5976	210.938	86.322	210.938	86.5396	210.938	86.3984	210.938	86.5344	210.938	86.4932	210.938	86.5652	210.938	86.5799	210.938	86.6104	210.938	86.6391	210.938	86.6484	210.938	86.6615
218.262	88.2171	218.262	88.1885	218.262	88.1915	218.262	88.1046	218.262	88.1145	218.262	87.9664	218.262	87.9906	218.262	87.7774	218.262	87.8262	218.262	87.5443	218.262	87.6298	218.262	87.2787	218.262	87.4117	218.262	86.9978	218.262	87.1854	218.262	86.7244	218.262	86.9674	218.262	86.485	218.262	86.7767	218.262	86.3047	218.262	86.6314	218.262	86.2018	218.262	86.5442	218.262	86.1813	218.262	86.517	218.262	86.2335	218.262	86.5392	218.262	86.3357	218.262	86.5917	218.262	86.4588	218.262	86.6524	218.262	86.5751	218.262	86.702	218.262	86.664	218.262	86.7261	218.262	86.715
225.586	88.3167	225.586	88.3123	225.586	88.2612	225.586	88.2493	225.586	88.1465	225.586	88.1305	225.586	87.9752	225.586	87.9607	225.586	87.7524	225.586	87.7468	225.586	87.4861	225.586	87.4982	225.586	87.1885	225.586	87.2285	225.586	86.8769	225.586	86.9566	225.586	86.5751	225.586	86.7067	225.586	86.3122	225.586	86.5062	225.586	86.1193	225.586	86.378	225.586	86.0208	225.586	86.3335	225.586	86.0247	225.586	86.3661	225.586	86.117	225.586	86.4532	225.586	86.2662	225.586	86.5632	225.586	86.4335	225.586	86.6636	225.586	86.5834	225.586	86.7282	225.586	86.6901	225.586	86.7395
232.91	88.2151	232.91	88.1575	232.91	88.2119	232.91	88.044	232.91	88.1443	232.91	87.8805	232.91	88.0106	232.91	87.675	232.91	87.8107	232.91	87.4371	232.91	87.5476	232.91	87.1785	232.91	87.2284	232.91	86.9132	232.91	86.8663	232.91	86.6577	232.91	86.4831	232.91	86.431	232.91	86.111	232.91	86.2528	232.91	85.7912	232.91	86.1397	232.91	85.5669	232.91	86.0988	232.91	85.4687	232.91	86.1229	232.91	85.5002	232.91	86.1902	232.91	85.6346	232.91	86.27	232.91	85.8253	232.91	86.3305	232.91	86.0233	232.91	86.3459	232.91	86.1897	232.91	86.3003
241.699	88.0372	241.699	87.9714	241.699	88.0396	241.699	87.8421	241.699	87.9803	241.699	87.6515	241.699	87.8616	241.699	87.4045	241.699	87.6867	241.699	87.11	241.699	87.4591	241.699	86.7817	241.699	87.1839	241.699	86.4389	241.699	86.8687	241.699	86.1068	241.699	86.5267	241.699	85.8144	241.699	86.179	241.699	85.5904	241.699	85.8559	241.699	85.4559	241.699	85.5938	241.699	85.4172	241.699	85.4259	241.699	85.4622	241.699	85.3691	241.699	85.5629	241.699	85.4139	241.699	85.6832	241.699	85.5266	241.699	85.7872	241.699	85.662	241.699	85.8463	241.699	85.7777	241.699	85.8438
250.488	88.2361	250.488	88.1943	250.488	88.2085	250.488	88.081	250.488	88.1135	250.488	87.8943	250.488	87.9533	250.488	87.6339	250.488	87.7316	250.488	87.304	250.488	87.4549	250.488	86.9152	250.488	87.1337	250.488	86.4882	250.488	86.7843	250.488	86.0538	250.488	86.4287	250.488	85.6513	250.488	86.0943	250.488	85.3215	250.488	85.8094	250.488	85.0964	250.488	85.5966	250.488	84.9881	250.488	85.4658	250.488	84.9852	250.488	85.4101	250.488	85.0579	250.488	85.4088	250.488	85.1691	250.488	85.4345	250.488	85.2847	250.488	85.4608	250.488	85.3803	250.488	85.4677	250.488	85.4425
259.277	88.0379	259.277	88.0071	259.277	88.0008	259.277	87.9104	259.277	87.8947	259.277	87.7496	259.277	87.7198	259.277	87.5263	259.277	87.4785	259.277	87.2427	259.277	87.1755	259.277	86.9033	259.277	86.82	259.277	86.5192	259.277	86.4267	259.277	86.1135	259.277	86.0192	259.277	85.725	259.277	85.6319	259.277	85.4043	259.277	85.3083	259.277	85.1977	259.277	85.0919	259.277	85.1247	259.277	85.0101	259.277	85.1672	259.277	85.0587	259.277	85.2821	259.277	85.2001	259.277	85.4227	259.277	85.378	259.277	85.552	259.277	85.5383	259.277	85.6437	259.277	85.6439	259.277	85.6785
268.066	87.9341	268.066	87.8502	268.066	87.9482	268.066	87.6995	268.066	87.889	268.066	87.4837	268.066	87.7543	268.066	87.2033	268.066	87.5432	268.066	86.86	268.066	87.2564	268.066	86.4595	268.066	86.8964	268.066	86.015	268.066	86.4708	268.066	85.5505	268.066	85.9974	268.066	85.1068	268.066	85.5101	268.066	84.7422	268.066	85.0587	268.066	84.5195	268.066	84.6999	268.066	84.474	268.066	84.4787	268.066	84.5852	268.066	84.4111	268.066	84.7849	268.066	84.4793	268.066	84.9914	268.066	84.6408	268.066	85.1414	268.066	84.8418	268.066	85.2	268.066	85.029	268.066	85.1584
276.855	87.7706	276.855	87.7104	276.855	87.7702	276.855	87.59	276.855	87.7119	276.855	87.413	276.855	87.5995	276.855	87.1839	276.855	87.4357	276.855	86.9054	276.855	87.2196	276.855	86.5779	276.855	86.9453	276.855	86.2025	276.855	86.6038	276.855	85.7858	276.855	86.1913	276.855	85.3468	276.855	85.7227	276.855	84.9219	276.855	85.2448	276.855	84.5657	276.855	84.8332	276.855	84.3386	276.855	84.5634	276.855	84.2776	276.855	84.4683	276.855	84.3682	276.855	84.5194	276.855	84.5473	276.855	84.6508	276.855	84.7365	276.855	84.7941	276.855	84.8744	276.855	84.898	276.855	84.9298
287.109	87.337	287.109	87.3251	287.109	87.2908	287.109	87.2526	287.109	87.1892	287.109	87.1151	287.109	87.0347	287.109	86.9072	287.109	86.8301	287.109	86.6262	287.109	86.578	287.109	86.2771	287.109	86.282	287.109	85.8785	287.109	85.9496	287.109	85.4641	287.109	85.5957	287.109	85.078	287.109	85.2455	287.109	84.7668	287.109	84.9358	287.109	84.5693	287.109	84.7108	287.109	84.5063	287.109	84.6086	287.109	84.5726	287.109	84.6401	287.109	84.7349	287.109	84.7773	287.109	84.94	287.109	84.9644	287.109	85.1311	287.109	85.1426	287.109	85.2633	287.109	85.2671	287.109	85.3107
297.363	87.7804	297.363	87.7601	297.363	87.7297	297.363	87.6749	297.363	87.6012	297.363	87.5306	297.363	87.3885	297.363	87.3329	297.363	87.0875	297.363	87.0851	297.363	86.7006	297.363	86.7855	297.363	86.2392	297.363	86.4304	297.363	85.7242	297.363	86.0228	297.363	85.1835	297.363	85.5867	297.363	84.649	297.363	85.1763	297.363	84.1604	297.363	84.865	297.363	83.7719	297.363	84.7104	297.363	83.5472	297.363	84.7147	297.363	83.5299	297.363	84.8213	297.363	83.7067	297.363	84.948	297.363	84.0086	297.363	85.0243	297.363	84.348	297.363	85.0073	297.363	84.6542	297.363	84.882
307.617	87.534	307.617	87.413	307.617	87.5803	307.617	87.2148	307.617	87.5574	307.617	86.9411	307.617	87.4715	307.617	86.5984	307.617	87.3258	307.617	86.1979	307.617	87.1177	307.617	85.7553	307.617	86.8379	307.617	85.2889	307.617	86.4753	307.617	84.8208	307.617	86.0245	307.617	84.3821	307.617	85.4966	307.617	84.0179	307.617	84.931	307.617	83.7822	307.617	84.3994	307.617	83.7154	307.617	83.9932	307.617	83.8137	307.617	83.7845	307.617	84.022	307.617	83.7843	307.617	84.2573	307.617	83.9372	307.617	84.443	307.617	84.1572	307.617	84.53	307.617	84.3643	307.617	84.5002
319.336	87.3019	319.336	87.218	319.336	87.2979	319.336	87.0415	319.336	87.2083	319.336	86.7673	319.336	87.034	319.336	86.3925	319.336	86.7758	319.336	85.9205	319.336	86.4369	319.336	85.3627	319.336	86.0261	319.336	84.7404	319.336	85.5615	319.336	84.086	319.336	85.0748	319.336	83.4516	319.336	84.6115	319.336	82.9199	319.336	84.2241	319.336	82.5972	319.336	83.9585	319.336	82.5596	319.336	83.8401	319.336	82.787	319.336	83.8644	319.336	83.1696	319.336	83.994	319.336	83.5823	319.336	84.1666	319.336	83.9393	319.336	84.3143	319.336	84.2	319.336	84.3847	319.336	84.3494
329.59	86.845	329.59	86.8201	329.59	86.8293	329.59	86.7535	329.59	86.7687	329.59	86.6359	329.59	86.6572	329.59	86.45	329.59	86.4899	329.59	86.1749	329.59	86.2614	329.59	85.7932	329.59	85.9638	329.59	85.2998	329.59	85.5845	329.59	84.7108	329.59	85.1119	329.59	84.0703	329.59	84.5485	329.59	83.4543	329.59	83.9298	329.59	82.9629	329.59	83.3398	329.59	82.692	329.59	82.9006	329.59	82.6837	329.59	82.7177	329.59	82.8927	329.59	82.8063	329.59	83.2079	329.59	83.0761	329.59	83.509	329.59	83.3925	329.59	83.7074	329.59	83.6417	329.59	83.7551
341.309	86.7331	341.309	86.7188	341.309	86.6689	341.309	86.6324	341.309	86.5219	341.309	86.4808	341.309	86.2908	341.309	86.268	341.309	85.9752	341.309	85.9912	341.309	85.5742	341.309	85.637	341.309	85.0895	341.309	85.1838	341.309	84.5344	341.309	84.6148	341.309	83.948	341.309	83.9414	341.309	83.4029	341.309	83.2325	341.309	82.9942	341.309	82.626	341.309	82.7995	341.309	82.2855	341.309	82.8343	341.309	82.291	341.309	83.0428	341.309	82.5744	341.309	83.3317	341.309	82.9834	341.309	83.6115	341.309	83.3821	341.309	83.8168	341.309	83.689	341.309	83.9087	341.309	83.8678
353.027	86.6505	353.027	86.6438	353.027	86.5972	353.027	86.5602	353.027	86.4969	353.027	86.3817	353.027	86.3585	353.027	86.0975	353.027	86.1849	353.027	85.7151	353.027	85.9692	353.027	85.2643	353.027	85.6879	353.027	84.7844	353.027	85.3011	353.027	84.2972	353.027	84.7634	353.027	83.7949	353.027	84.05	353.027	83.2683	353.027	83.1945	353.027	82.7616	353.027	82.3291	353.027	82.3971	353.027	81.6841	353.027	82.3103	353.027	81.4733	353.027	82.5222	353.027	81.718	353.027	82.905	353.027	82.239	353.027	83.2799	353.027	82.8113	353.027	83.5074	353.027	83.2668	353.027	83.51
366.211	86.7029	366.211	86.5498	366.211	86.7881	366.211	86.3349	366.211	86.8024	366.211	86.0671	366.211	86.742	366.211	85.7514	366.211	86.6001	366.211	85.3777	366.211	86.3696	366.211	84.9187	366.211	86.0464	366.211	84.3441	366.211	85.6285	366.211	83.6534	366.211	85.1088	366.211	82.9138	366.211	84.4728	366.211	82.2755	366.211	83.7161	366.211	81.9078	366.211	82.8901	366.211	81.8635	366.211	82.1476	366.211	82.0328	366.211	81.7008	366.211	82.2554	366.211	81.6423	366.211	82.4281	366.211	81.8446	366.211	82.5172	366.211	82.1102	366.211	82.5255	366.211	82.3248	366.211	82.4615
379.395	86.6276	379.395	86.6831	379.395	86.5334	379.395	86.6835	379.395	86.4097	379.395	86.6024	379.395	86.2622	379.395	86.4063	379.395	86.0914	379.395	86.0643	379.395	85.8868	379.395	85.5593	379.395	85.6248	379.395	84.893	379.395	85.2768	379.395	84.0818	379.395	84.8238	379.395	83.1527	379.395	84.2711	379.395	82.1656	379.395	83.6591	379.395	81.2827	379.395	83.0677	379.395	80.8093	379.395	82.6047	379.395	80.9799	379.395	82.3678	379.395	81.6307	379.395	82.3864	379.395	82.368	379.395	82.5964	379.395	82.9233	379.395	82.8816	379.395	83.2153	379.395	83.1325	379.395	83.266
392.578	86.0866	392.578	86.057	392.578	86.0483	392.578	85.975	392.578	85.9355	392.578	85.8575	392.578	85.7546	392.578	85.7139	392.578	85.5263	392.578	85.5351	392.578	85.2772	392.578	85.2888	392.578	85.023	392.578	84.9293	392.578	84.7499	392.578	84.416	392.578	84.4142	392.578	83.7348	392.578	83.966	392.578	82.9175	392.578	83.3882	392.578	82.0597	392.578	82.7372	392.578	81.335	392.578	82.1629	392.578	80.9656	392.578	81.8584	392.578	81.0807	392.578	81.917	392.578	81.5722	392.578	82.2397	392.578	82.1767	392.578	82.6218	392.578	82.664	392.578	82.882	392.578	82.9097
405.762	86.0775	405.762	86.0054	405.762	86.0605	405.762	85.8514	405.762	85.9537	405.762	85.6342	405.762	85.7566	405.762	85.3832	405.762	85.4651	405.762	85.1231	405.762	85.0722	405.762	84.8514	405.762	84.5735	405.762	84.5287	405.762	83.9777	405.762	84.0957	405.762	83.3202	405.762	83.5119	405.762	82.6694	405.762	82.7974	405.762	82.12	405.762	82.0597	405.762	81.7705	405.762	81.4812	405.762	81.6864	405.762	81.2283	405.762	81.8554	405.762	81.33	405.762	82.1744	405.762	81.6676	405.762	82.5016	405.762	82.0803	405.762	82.726	405.762	82.4463	405.762	82.7939	405.762	82.6958
420.41	85.7201	420.41	85.711	420.41	85.6815	420.41	85.6531	420.41	85.5982	420.41	85.5371	420.41	85.4796	420.41	85.3414	420.41	85.337	420.41	85.0407	420.41	85.1719	420.41	84.6185	420.41	84.9609	420.41	84.0675	420.41	84.6502	420.41	83.3762	420.41	84.1654	420.41	82.5306	420.41	83.437	420.41	81.5744	420.41	82.4382	420.41	80.722	420.41	81.2461	420.41	80.3526	420.41	80.1404	420.41	80.6444	420.41	79.6056	420.41	81.3222	420.41	79.9117	420.41	82.0082	420.41	80.7451	420.41	82.4988	420.41	81.6282	420.41	82.725	420.41	82.2952	420.41	82.6625
435.059	85.7304	435.059	85.6875	435.059	85.7037	435.059	85.5716	435.059	85.6119	435.059	85.38	435.059	85.4605	435.059	85.1118	435.059	85.2554	435.059	84.7658	435.059	84.9971	435.059	84.3332	435.059	84.6729	435.059	83.7906	435.059	84.2564	435.059	83.0977	435.059	83.7177	435.059	82.2101	435.059	83.0401	435.059	81.1148	435.059	82.2429	435.059	79.9196	435.059	81.4106	435.059	78.9977	435.059	80.7243	435.059	78.8999	435.059	80.4314	435.059	79.6914	435.059	80.6674	435.059	80.817	435.059	81.2856	435.059	81.7915	435.059	81.9737	435.059	82.4152	435.059	82.4721	435.059	82.6388
451.172	86.2169	451.172	86.0532	451.172	86.2556	451.172	85.7909	451.172	86.1541	451.172	85.4652	451.172	85.9132	451.172	85.1167	451.172	85.5528	451.172	84.7787	451.172	85.1109	451.172	84.4543	451.172	84.6356	451.172	84.1052	451.172	84.1596	451.172	83.6648	451.172	83.6645	451.172	83.0636	451.172	83.0722	451.172	82.2463	451.172	82.2934	451.172	81.1973	451.172	81.3146	451.172	80.0388	451.172	80.2896	451.172	79.1979	451.172	79.551	451.172	79.189	451.172	79.3699	451.172	79.8435	451.172	79.6626	451.172	80.527	451.172	80.1428	451.172	80.884	451.172	80.5916	451.172	80.8761
465.82	85.7687	465.82	85.8509	465.82	85.6438	465.82	85.8512	465.82	85.5088	465.82	85.7333	465.82	85.3802	465.82	85.4751	465.82	85.2527	465.82	85.078	465.82	85.1004	465.82	84.5647	465.82	84.883	465.82	83.9576	465.82	84.5572	465.82	83.2515	465.82	84.0837	465.82	82.4171	465.82	83.4322	465.82	81.4493	465.82	82.5903	465.82	80.4311	465.82	81.5946	465.82	79.5585	465.82	80.5917	465.82	79.0682	465.82	79.8672	465.82	79.0757	465.82	79.6832	465.82	79.4837	465.82	79.9864	465.82	80.0592	465.82	80.4541	465.82	80.5649	465.82	80.7874	465.82	80.833
483.398	84.9172	483.398	84.8177	483.398	84.9269	483.398	84.6765	483.398	84.8319	483.398	84.5535	483.398	84.6539	483.398	84.4844	483.398	84.4387	483.398	84.4487	483.398	84.2329	483.398	84.3694	483.398	84.0525	483.398	84.1419	483.398	83.8612	483.398	83.6611	483.398	83.5746	483.398	82.8333	483.398	83.0912	483.398	81.5895	483.398	82.3339	483.398	79.9557	483.398	81.3105	483.398	78.298	483.398	80.2212	483.398	77.5875	483.398	79.5205	483.398	78.3219	483.398	79.5629	483.398	79.5893	483.398	80.1281	483.398	80.609	483.398	80.7626	483.398	81.1912	483.398	81.2078	483.398	81.3692
499.512	85.499	499.512	85.3858	499.512	85.5013	499.512	85.1864	499.512	85.3536	499.512	84.8993	499.512	85.0361	499.512	84.5231	499.512	84.5731	499.512	84.0952	499.512	84.0306	499.512	83.6906	499.512	83.4872	499.512	83.3579	499.512	82.9945	499.512	83.0471	499.512	82.5469	499.512	82.6169	499.512	82.0703	499.512	81.9081	499.512	81.4481	499.512	80.8254	499.512	80.605	499.512	79.4423	499.512	79.6617	499.512	78.2094	499.512	79.0646	499.512	77.9612	499.512	79.2696	499.512	78.8752	499.512	80.0889	499.512	80.1357	499.512	80.9535	499.512	81.1	499.512	81.4927	499.512	81.5588
517.09	85.6051	517.09	85.3977	517.09	85.5839	517.09	84.9961	517.09	85.3473	517.09	84.4866	517.09	84.931	517.09	83.9735	517.09	84.3806	517.09	83.5324	517.09	83.7732	517.09	83.1937	517.09	83.2404	517.09	82.9473	517.09	82.9062	517.09	82.7334	517.09	82.746	517.09	82.4345	517.09	82.57	517.09	81.9074	517.09	82.1671	517.09	81.0343	517.09	81.4018	517.09	79.7734	517.09	80.2183	517.09	78.2719	517.09	78.7027	517.09	77.1251	517.09	77.3784	517.09	77.1962	517.09	77.2363	517.09	78.2645	517.09	78.2444	517.09	79.2918	517.09	79.2815	517.09	79.6811
536.133	86.7263	536.133	86.5558	536.133	86.7614	536.133	86.2437	536.133	86.6661	536.133	85.7808	536.133	86.434	536.133	85.1559	536.133	86.029	536.133	84.3661	536.133	85.3799	536.133	83.4298	536.133	84.4088	536.133	82.4109	536.133	83.085	536.133	81.4525	536.133	81.4927	536.133	80.7314	536.133	79.8839	536.133	80.2576	536.133	78.6334	536.133	79.823	536.133	77.9958	536.133	79.2945	536.133	77.8869	536.133	78.8178	536.133	78.0321	536.133	78.5666	536.133	78.2095	536.133	78.4123	536.133	78.2882	536.133	78.1769	536.133	78.205	536.133	77.9329	536.133	78.0077	536.133	77.8652
555.176	85.0762	555.176	85.0821	555.176	85.1227	555.176	85.1141	555.176	85.221	555.176	85.1114	555.176	85.3354	555.176	84.9732	555.176	85.3951	555.176	84.5955	555.176	85.3174	555.176	83.9331	555.176	85.042	555.176	83.0166	555.176	84.5508	555.176	81.8961	555.176	83.8498	555.176	80.5883	555.176	82.9132	555.176	79.1551	555.176	81.6562	555.176	77.8621	555.176	80.0404	555.176	77.0681	555.176	78.3663	555.176	76.8793	555.176	77.4084	555.176	77.2489	555.176	77.5093	555.176	78.0832	555.176	78.1217	555.176	79.039	555.176	78.8142	555.176	79.6822	555.176	79.4337	555.176	79.7945
574.219	85.2013	574.219	84.9958	574.219	85.2477	574.219	84.7267	574.219	85.1015	574.219	84.4885	574.219	84.8351	574.219	84.3417	574.219	84.5989	574.219	84.3026	574.219	84.4897	574.219	84.2907	574.219	84.4276	574.219	84.0938	574.219	84.2078	574.219	83.4605	574.219	83.6563	574.219	82.2478	574.219	82.735	574.219	80.518	574.219	81.5499	574.219	78.5883	574.219	80.286	574.219	77.0575	574.219	79.1837	574.219	76.6365	574.219	78.6026	574.219	77.3998	574.219	78.8237	574.219	78.6632	574.219	79.6464	574.219	79.8808	574.219	80.5695	574.219	80.8064	574.219	81.1851	574.219	81.2758
594.727	86.837	594.727	86.8657	594.727	86.6798	594.727	86.7283	594.727	86.4478	594.727	86.4499	594.727	86.1692	594.727	86.102	594.727	85.8426	594.727	85.7181	594.727	85.4605	594.727	85.2713	594.727	85.0363	594.727	84.7665	594.727	84.6014	594.727	84.2376	594.727	84.1452	594.727	83.5829	594.727	83.5406	594.727	82.5525	594.727	82.551	594.727	80.9693	594.727	80.9333	594.727	79.0465	594.727	78.6811	594.727	77.8935	594.727	76.8954	594.727	78.6301	594.727	77.6183	594.727	80.2203	594.727	79.5112	594.727	81.4483	594.727	80.8817	594.727	82.0083	594.727	81.6351	594.727	82.0081
615.234	86.6049	615.234	86.6048	615.234	86.5491	615.234	86.5495	615.234	86.4496	615.234	86.4215	615.234	86.3489	615.234	86.2366	615.234	86.275	615.234	86.0804	615.234	86.2327	615.234	85.9904	615.234	86.2172	615.234	85.8416	615.234	86.1408	615.234	85.4317	615.234	85.7908	615.234	84.6078	615.234	84.9494	615.234	83.2979	615.234	83.5348	615.234	81.5101	615.234	81.6698	615.234	79.3554	615.234	79.7234	615.234	77.2317	615.234	78.2332	615.234	76.3552	615.234	77.7451	615.234	77.4508	615.234	78.4934	615.234	79.0903	615.234	79.7517	615.234	80.2881	615.234	80.6355	615.234	80.8225
637.207	87.3823	637.207	87.1222	637.207	87.4616	637.207	86.7238	637.207	87.3437	637.207	86.2959	637.207	87.0333	637.207	85.9621	637.207	86.5766	637.207	85.7484	637.207	86.0349	637.207	85.6213	637.207	85.496	637.207	85.5922	637.207	85.1555	637.207	85.6099	637.207	85.1403	637.207	85.4076	637.207	85.1554	637.207	84.6367	637.207	84.6816	637.207	83.0882	637.207	83.4093	637.207	80.8376	637.207	81.4172	637.207	78.5517	637.207	79.3957	637.207	77.6704	637.207	78.6309	637.207	78.6619	637.207	79.3535	637.207	80.2409	637.207	80.5288	637.207	81.4031	637.207	81.4575	637.207	81.8089
659.18	87.9763	659.18	87.8316	659.18	87.8569	659.18	87.375	659.18	87.5429	659.18	86.7034	659.18	87.0566	659.18	86.1023	659.18	86.4128	659.18	85.768	659.18	85.7337	659.18	85.5115	659.18	85.2686	659.18	85.1036	659.18	85.1165	659.18	84.6255	659.18	85.0388	659.18	84.2279	659.18	84.7825	659.18	83.7185	659.18	84.2417	659.18	82.6529	659.18	83.2494	659.18	80.7387	659.18	81.535	659.18	78.5933	659.18	79.3168	659.18	78.6309	659.18	78.6131	659.18	80.5343	659.18	80.1628	659.18	82.0452	659.18	81.6386	659.18	82.7154	659.18	82.4211	659.18	82.7632
682.617	88.5042	682.617	88.4885	682.617	88.3289	682.617	88.2721	682.617	87.9563	682.617	87.7936	682.617	87.4259	682.617	87.0246	682.617	86.8238	682.617	86.1496	682.617	86.2234	682.617	85.5862	682.617	85.7008	682.617	85.471	682.617	85.3712	682.617	85.3594	682.617	85.1554	682.617	84.8171	682.617	84.6926	682.617	83.7291	682.617	83.7081	682.617	82.1622	682.617	82.2072	682.617	80.3346	682.617	80.2531	682.617	78.8694	682.617	77.8987	682.617	78.7436	682.617	76.4492	682.617	79.9514	682.617	78.0917	682.617	81.4078	682.617	80.7039	682.617	82.4586	682.617	82.3765	682.617	82.8757
707.52	88.4091	707.52	88.1408	707.52	88.4871	707.52	87.7555	707.52	88.3086	707.52	87.3137	707.52	87.8515	707.52	86.7891	707.52	87.1995	707.52	86.1169	707.52	86.5005	707.52	85.4166	707.52	85.829	707.52	84.9377	707.52	85.2185	707.52	84.6936	707.52	84.833	707.52	84.4961	707.52	84.6816	707.52	84.1153	707.52	84.2957	707.52	83.1839	707.52	83.17	707.52	81.272	707.52	81.121	707.52	78.3716	707.52	78.4675	707.52	76.578	707.52	76.9056	707.52	78.3035	707.52	78.1225	707.52	80.7847	707.52	80.316	707.52	82.4115	707.52	82.0531	707.52	82.8348
732.422	88.3413	732.422	88.3173	732.422	88.1355	732.422	87.9684	732.422	87.7963	732.422	87.387	732.422	87.2995	732.422	86.822	732.422	86.5854	732.422	86.3167	732.422	85.7752	732.422	85.746	732.422	85.1621	732.422	85.2429	732.422	84.8023	732.422	84.9259	732.422	84.5212	732.422	84.4542	732.422	84.2787	732.422	83.4409	732.422	83.9346	732.422	81.7905	732.422	83.0565	732.422	79.4068	732.422	81.2718	732.422	76.1582	732.422	78.6044	732.422	74.3941	732.422	76.3486	732.422	77.2541	732.422	77.0362	732.422	80.0406	732.422	78.9154	732.422	81.2248	732.422	80.2827	732.422	81.1243
757.324	88.8968	757.324	88.7099	757.324	88.7608	757.324	88.22	757.324	88.3447	757.324	87.4562	757.324	87.7356	757.324	86.5088	757.324	86.9694	757.324	85.6584	757.324	86.0451	757.324	85.1317	757.324	85.1527	757.324	84.8646	757.324	84.6976	757.324	84.8507	757.324	84.7293	757.324	84.9196	757.324	84.7601	757.324	84.5493	757.324	84.3392	757.324	83.3308	757.324	83.2435	757.324	81.0738	757.324	81.2673	757.324	77.978	757.324	78.0182	757.324	76.1844	757.324	73.6501	757.324	77.7335	757.324	74.8959	757.324	79.9787	757.324	79.1509	757.324	81.5686	757.324	81.4798	757.324	82.1619
785.156	89.2849	785.156	89.048	785.156	89.3538	785.156	88.6335	785.156	89.2008	785.156	87.9603	785.156	88.7858	785.156	86.9533	785.156	88.166	785.156	85.6165	785.156	87.4593	785.156	84.1238	785.156	86.6901	785.156	82.6513	785.156	85.8634	785.156	81.2099	785.156	85.0215	785.156	80.1514	785.156	84.0591	785.156	79.594	785.156	82.8216	785.156	78.4876	785.156	81.2686	785.156	75.0565	785.156	78.8352	785.156	62.9436	785.156	73.4167	785.156	70.2162	785.156	63.9783	785.156	76.7232	785.156	74.3831	785.156	78.7977	785.156	78.6552	785.156	79.4709	785.156	80.2537	785.156	80.1159
811.523	88.1447	811.523	87.9027	811.523	88.0855	811.523	87.4063	811.523	87.8623	811.523	86.7352	811.523	87.5844	811.523	85.8101	811.523	87.2284	811.523	84.6228	811.523	86.7007	811.523	83.0724	811.523	85.9018	811.523	81.2206	811.523	85.0037	811.523	80.4491	811.523	84.5887	811.523	80.6386	811.523	84.6547	811.523	80.0186	811.523	84.4622	811.523	78.6032	811.523	83.4652	811.523	76.6689	811.523	81.3154	811.523	72.4695	811.523	77.9526	811.523	58.1079	811.523	74.1977	811.523	71.6417	811.523	73.2954	811.523	77.6386	811.523	76.4324	811.523	80.1455	811.523	79.2984	811.523	80.5716
840.82	89.1906	840.82	88.9585	840.82	89.3549	840.82	88.7249	840.82	89.2816	840.82	88.3187	840.82	88.854	840.82	87.6051	840.82	87.9612	840.82	86.7307	840.82	86.5903	840.82	85.8551	840.82	85.1056	840.82	84.913	840.82	83.9814	840.82	83.9138	840.82	83.3507	840.82	83.3477	840.82	83.3537	840.82	83.7637	840.82	83.587	840.82	83.9336	840.82	83.2359	840.82	82.3515	840.82	81.5566	840.82	78.8702	840.82	76.9766	840.82	72.9968	840.82	58.3425	840.82	69.5181	840.82	73.0361	840.82	74.873	840.82	77.3482	840.82	77.2085	840.82	78.3211	840.82	78.2334
870.117	88.8208	870.117	88.7509	870.117	88.4114	870.117	88.288	870.117	87.8804	870.117	87.7027	870.117	87.485	870.117	86.9479	870.117	86.9578	870.117	85.8992	870.117	85.9252	870.117	84.6478	870.117	84.3562	870.117	83.7616	870.117	82.9144	870.117	83.9421	870.117	82.1634	870.117	84.3287	870.117	81.103	870.117	84.2179	870.117	80.6597	870.117	83.4256	870.117	81.0135	870.117	81.3461	870.117	80.4573	870.117	78.3007	870.117	79.0167	870.117	77.2284	870.117	77.2431	870.117	78.8364	870.117	75.92	870.117	80.4714	870.117	77.3522	870.117	81.4192	870.117	80.0335	870.117	81.4678
900.879	89.0653	900.879	88.898	900.879	89.2129	900.879	88.7335	900.879	89.1641	900.879	88.2734	900.879	88.8973	900.879	87.2704	900.879	88.4176	900.879	85.8801	900.879	87.6726	900.879	84.4958	900.879	86.5807	900.879	83.1455	900.879	85.0109	900.879	81.6782	900.879	83.9102	900.879	80.5677	900.879	84.2685	900.879	80.7949	900.879	84.051	900.879	81.6727	900.879	82.9033	900.879	81.5973	900.879	81.6624	900.879	80.1306	900.879	78.4202	900.879	76.6988	900.879	69.4424	900.879	66.4769	900.879	67.0605	900.879	68.556	900.879	76.1764	900.879	74.845	900.879	78.3507	900.879	77.3102
933.105	88.8489	933.105	88.7393	933.105	88.7204	933.105	88.5672	933.105	88.3555	933.105	88.2438	933.105	87.8925	933.105	87.277	933.105	87.2032	933.105	85.4311	933.105	86.0171	933.105	83.2981	933.105	84.5969	933.105	81.6045	933.105	83.3029	933.105	80.206	933.105	82.0063	933.105	79.2074	933.105	81.4874	933.105	79.1385	933.105	82.3459	933.105	79.4514	933.105	82.9537	933.105	79.0043	933.105	82.1611	933.105	76.2257	933.105	79.5243	933.105	64.9665	933.105	74.0903	933.105	70.2957	933.105	46.5411	933.105	75.9523	933.105	73.6257	933.105	77.6854	933.105	78.064	933.105	78.6463
965.332	89.8824	965.332	89.4197	965.332	90.0016	965.332	88.8792	965.332	90.0026	965.332	88.4957	965.332	89.8707	965.332	87.7624	965.332	89.276	965.332	86.2419	965.332	88.1198	965.332	83.9227	965.332	86.4721	965.332	81.1872	965.332	84.6482	965.332	79.7446	965.332	83.4628	965.332	80.4429	965.332	83.2778	965.332	82.1188	965.332	83.1281	965.332	83.4409	965.332	82.7744	965.332	83.2295	965.332	82.2438	965.332	81.859	965.332	80.2956	965.332	80.0879	965.332	76.9787	965.332	78.3234	965.332	74.1209	965.332	78.9713	965.332	76.0775	965.332	80.7574	965.332	80.3012	965.332	81.5694
1,000.49	87.4106	1,000.49	87.523	1,000.49	87.2295	1,000.49	87.3848	1,000.49	87.0754	1,000.49	87.0254	1,000.49	86.8305	1,000.49	86.5568	1,000.49	86.3515	1,000.49	85.9501	1,000.49	85.3799	1,000.49	85.0491	1,000.49	83.6523	1,000.49	83.737	1,000.49	81.8051	1,000.49	82.1137	1,000.49	80.3318	1,000.49	80.2356	1,000.49	78.8124	1,000.49	79.2147	1,000.49	79.1189	1,000.49	79.5339	1,000.49	79.3749	1,000.49	79.2447	1,000.49	78.8396	1,000.49	77.3166	1,000.49	78.1182	1,000.49	71.3687	1,000.49	74.2402	1,000.49	63.7581	1,000.49	56.6464	1,000.49	75.4027	1,000.49	71.8337	1,000.49	78.9108	1,000.49	77.5357	1,000.49	79.3929
1,035.64	87.4178	1,035.64	87.4051	1,035.64	87.2368	1,035.64	86.9465	1,035.64	87.06	1,035.64	86.356	1,035.64	86.4429	1,035.64	85.496	1,035.64	85.0837	1,035.64	84.1215	1,035.64	83.5526	1,035.64	82.7482	1,035.64	82.3488	1,035.64	81.7225	1,035.64	80.7002	1,035.64	81.345	1,035.64	79.1338	1,035.64	81.2232	1,035.64	78.7706	1,035.64	81.7914	1,035.64	78.956	1,035.64	82.5994	1,035.64	79.7904	1,035.64	82.2772	1,035.64	79.2727	1,035.64	80.4895	1,035.64	77.2414	1,035.64	77.321	1,035.64	73.9638	1,035.64	75.9982	1,035.64	65.4242	1,035.64	76.6041	1,035.64	71.4314	1,035.64	78.9946	1,035.64	78.4307	1,035.64	80.4254
1,072.27	85.6407	1,072.27	85.2472	1,072.27	85.5833	1,072.27	84.784	1,072.27	84.9298	1,072.27	84.3419	1,072.27	84.1153	1,072.27	83.3891	1,072.27	83.6699	1,072.27	82.4684	1,072.27	83.2105	1,072.27	81.6676	1,072.27	82.2829	1,072.27	79.4463	1,072.27	80.972	1,072.27	77.2853	1,072.27	79.2003	1,072.27	76.6939	1,072.27	78.5254	1,072.27	76.1186	1,072.27	80.2771	1,072.27	77.1485	1,072.27	81.2727	1,072.27	77.6192	1,072.27	82.038	1,072.27	76.2074	1,072.27	81.6341	1,072.27	70.7217	1,072.27	79.1501	1,072.27	71.3404	1,072.27	74.6608	1,072.27	77.6979	1,072.27	69.136	1,072.27	79.159	1,072.27	75.638	1,072.27	78.5098
1,108.89	87.1348	1,108.89	87.5831	1,108.89	86.8172	1,108.89	87.6038	1,108.89	86.0868	1,108.89	86.5372	1,108.89	85.0595	1,108.89	85.697	1,108.89	83.8808	1,108.89	84.8317	1,108.89	82.8404	1,108.89	82.8461	1,108.89	82.3619	1,108.89	80.5344	1,108.89	81.5058	1,108.89	77.3912	1,108.89	79.5274	1,108.89	74.6154	1,108.89	76.2948	1,108.89	74.3287	1,108.89	75.7844	1,108.89	73.9625	1,108.89	78.1645	1,108.89	74.3658	1,108.89	78.6459	1,108.89	72.8641	1,108.89	78.3757	1,108.89	62.4973	1,108.89	75.8663	1,108.89	70.6526	1,108.89	73.1633	1,108.89	75.9926	1,108.89	75.7403	1,108.89	79.6006	1,108.89	79.1805	1,108.89	81.2619
1,148.44	88.3069	1,148.44	87.7814	1,148.44	88.2116	1,148.44	87.2292	1,148.44	87.5112	1,148.44	86.8128	1,148.44	86.8408	1,148.44	85.6599	1,148.44	86.3678	1,148.44	84.4061	1,148.44	85.2087	1,148.44	83.7401	1,148.44	83.8787	1,148.44	82.892	1,148.44	82.5245	1,148.44	82.9071	1,148.44	80.8329	1,148.44	82.4148	1,148.44	80.2626	1,148.44	82.3494	1,148.44	80.2046	1,148.44	82.9031	1,148.44	79.596	1,148.44	82.7149	1,148.44	79.0142	1,148.44	81.2629	1,148.44	78.5477	1,148.44	77.2526	1,148.44	77.0399	1,148.44	70.4537	1,148.44	71.1566	1,148.44	65.3899	1,148.44	67.3875	1,148.44	73.7428	1,148.44	72.777	1,148.44	74.0709
1,189.45	87.8991	1,189.45	87.8133	1,189.45	88.0596	1,189.45	87.2975	1,189.45	87.1953	1,189.45	86.1592	1,189.45	85.5871	1,189.45	85.458	1,189.45	84.753	1,189.45	84.0702	1,189.45	84.1569	1,189.45	81.2079	1,189.45	83.076	1,189.45	77.2647	1,189.45	81.5609	1,189.45	71.1412	1,189.45	79.2356	1,189.45	69.0223	1,189.45	76.8755	1,189.45	75.6823	1,189.45	71.5433	1,189.45	78.0381	1,189.45	73.1033	1,189.45	77.7064	1,189.45	76.8889	1,189.45	76.9267	1,189.45	76.3535	1,189.45	71.264	1,189.45	72.7105	1,189.45	65.6337	1,189.45	54.234	1,189.45	74.5787	1,189.45	67.4747	1,189.45	77.8756	1,189.45	74.7825	1,189.45	77.8695
1,230.47	88.6097	1,230.47	88.3949	1,230.47	88.4067	1,230.47	87.8306	1,230.47	87.7498	1,230.47	86.68	1,230.47	86.9343	1,230.47	85.6824	1,230.47	85.8301	1,230.47	84.4342	1,230.47	84.6016	1,230.47	83.0978	1,230.47	83.4048	1,230.47	81.5715	1,230.47	82.1516	1,230.47	79.8016	1,230.47	80.5965	1,230.47	77.6463	1,230.47	79.7341	1,230.47	76.2824	1,230.47	79.1367	1,230.47	78.4455	1,230.47	78.3771	1,230.47	78.5176	1,230.47	77.9571	1,230.47	76.7071	1,230.47	78.4334	1,230.47	74.7625	1,230.47	76.8221	1,230.47	69.9355	1,230.47	67.6209	1,230.47	68.4479	1,230.47	67.6855	1,230.47	74.6464	1,230.47	73.6829	1,230.47	77.1161
1,274.41	87.8334	1,274.41	87.8803	1,274.41	87.9324	1,274.41	87.8954	1,274.41	87.8298	1,274.41	87.4445	1,274.41	87.7917	1,274.41	86.6931	1,274.41	87.6317	1,274.41	85.2724	1,274.41	86.8257	1,274.41	84.5141	1,274.41	85.3532	1,274.41	83.5897	1,274.41	84.1642	1,274.41	81.3912	1,274.41	82.9781	1,274.41	78.0185	1,274.41	81.0802	1,274.41	71.799	1,274.41	80.1788	1,274.41	71.5638	1,274.41	77.665	1,274.41	75.1261	1,274.41	75.3419	1,274.41	75.0405	1,274.41	74.6398	1,274.41	67.6639	1,274.41	71.2596	1,274.41	62.2569	1,274.41	51.1239	1,274.41	74.1278	1,274.41	71.2101	1,274.41	77.6823	1,274.41	74.2606	1,274.41	76.8489
1,319.82	88.0826	1,319.82	88.0179	1,319.82	87.9599	1,319.82	87.8376	1,319.82	87.9764	1,319.82	87.3818	1,319.82	87.6147	1,319.82	87.037	1,319.82	86.8306	1,319.82	86.3559	1,319.82	85.8428	1,319.82	84.9785	1,319.82	84.645	1,319.82	84.6998	1,319.82	84.2214	1,319.82	83.4439	1,319.82	83.6185	1,319.82	81.1916	1,319.82	81.9398	1,319.82	78.1385	1,319.82	81.6729	1,319.82	78.1621	1,319.82	81.0884	1,319.82	78.0882	1,319.82	80.766	1,319.82	77.4581	1,319.82	79.2461	1,319.82	74.9814	1,319.82	75.9166	1,319.82	66.36	1,319.82	69.1601	1,319.82	52.0345	1,319.82	60.9597	1,319.82	69.0182	1,319.82	71.5693	1,319.82	74.4551
1,366.7	88.385	1,366.7	87.9014	1,366.7	88.3312	1,366.7	87.3613	1,366.7	87.7342	1,366.7	85.7876	1,366.7	87.5122	1,366.7	84.4084	1,366.7	86.5408	1,366.7	83.9475	1,366.7	84.7772	1,366.7	82.6406	1,366.7	83.7113	1,366.7	82.3295	1,366.7	82.5826	1,366.7	81.1592	1,366.7	81.9208	1,366.7	79.9737	1,366.7	81.2588	1,366.7	79.4654	1,366.7	79.8848	1,366.7	77.2505	1,366.7	79.2914	1,366.7	76.9404	1,366.7	78.588	1,366.7	77.8102	1,366.7	77.9589	1,366.7	75.5805	1,366.7	74.7354	1,366.7	63.791	1,366.7	69.9906	1,366.7	67.5354	1,366.7	61.2063	1,366.7	72.9429	1,366.7	68.9377	1,366.7	74.4558
1,413.57	88.8196	1,413.57	88.6633	1,413.57	88.3262	1,413.57	87.9338	1,413.57	87.5851	1,413.57	86.7002	1,413.57	86.9904	1,413.57	85.3457	1,413.57	85.9952	1,413.57	84.2125	1,413.57	84.0648	1,413.57	82.4668	1,413.57	82.5175	1,413.57	83.0475	1,413.57	80.8535	1,413.57	82.2021	1,413.57	79.6052	1,413.57	80.0072	1,413.57	78.3815	1,413.57	78.0256	1,413.57	77.9394	1,413.57	77.2284	1,413.57	78.2711	1,413.57	78.13	1,413.57	78.9771	1,413.57	78.3152	1,413.57	78.9492	1,413.57	77.2738	1,413.57	77.4372	1,413.57	71.1638	1,413.57	73.699	1,413.57	62.7931	1,413.57	51.8395	1,413.57	74.0604	1,413.57	70.384	1,413.57	73.826
1,463.38	88.7293	1,463.38	88.2307	1,463.38	88.3938	1,463.38	87.1515	1,463.38	87.6209	1,463.38	86.5397	1,463.38	86.3674	1,463.38	84.2941	1,463.38	84.9026	1,463.38	82.8411	1,463.38	83.3505	1,463.38	81.4662	1,463.38	81.7629	1,463.38	79.6416	1,463.38	79.0568	1,463.38	79.6006	1,463.38	76.3991	1,463.38	76.7471	1,463.38	74.0774	1,463.38	73.1048	1,463.38	70.7348	1,463.38	74.9112	1,463.38	71.0154	1,463.38	76.5012	1,463.38	76.4502	1,463.38	77.6314	1,463.38	78.7845	1,463.38	76.5148	1,463.38	78.5028	1,463.38	71.6567	1,463.38	74.57	1,463.38	54.7391	1,463.38	67.9068	1,463.38	71.9099	1,463.38	73.6768	1,463.38	74.9315
1,516.11	86.6929	1,516.11	86.4425	1,516.11	87.0115	1,516.11	86.0591	1,516.11	86.3717	1,516.11	85.5597	1,516.11	84.88	1,516.11	83.7612	1,516.11	83.6544	1,516.11	81.8743	1,516.11	82.1711	1,516.11	80.5925	1,516.11	81.2787	1,516.11	78.2846	1,516.11	79.5472	1,516.11	76.3778	1,516.11	75.8461	1,516.11	72.8323	1,516.11	73.2838	1,516.11	72.5415	1,516.11	69.497	1,516.11	73.2051	1,516.11	69.9309	1,516.11	75.0285	1,516.11	71.2903	1,516.11	75.7471	1,516.11	75.0311	1,516.11	73.5707	1,516.11	75.056	1,516.11	69.4616	1,516.11	69.86	1,516.11	64.9497	1,516.11	68.6147	1,516.11	70.3319	1,516.11	73.1914	1,516.11	73.4429
1,568.85	86.2607	1,568.85	85.9017	1,568.85	86.1881	1,568.85	85.3043	1,568.85	85.6659	1,568.85	83.8777	1,568.85	84.3817	1,568.85	83.0512	1,568.85	83.1651	1,568.85	82.1355	1,568.85	81.1951	1,568.85	80.034	1,568.85	79.46	1,568.85	78.3562	1,568.85	79.9015	1,568.85	77.4419	1,568.85	77.6985	1,568.85	73.3692	1,568.85	75.3629	1,568.85	67.8637	1,568.85	74.3972	1,568.85	69.0432	1,568.85	73.9418	1,568.85	70.0673	1,568.85	72.655	1,568.85	72.6102	1,568.85	72.7788	1,568.85	71.0411	1,568.85	74.877	1,568.85	68.6103	1,568.85	72.8541	1,568.85	61.6296	1,568.85	68.1142	1,568.85	68.7485	1,568.85	68.3808	1,568.85	65.2912
1,624.51	86.4206	1,624.51	86.052	1,624.51	86.3952	1,624.51	85.3614	1,624.51	85.4147	1,624.51	83.6752	1,624.51	84.7128	1,624.51	81.9442	1,624.51	84.447	1,624.51	80.3184	1,624.51	82.3356	1,624.51	78.2428	1,624.51	79.3661	1,624.51	75.2667	1,624.51	80.578	1,624.51	76.0956	1,624.51	79.5419	1,624.51	75.1419	1,624.51	77.8415	1,624.51	70.2	1,624.51	74.3654	1,624.51	65.9994	1,624.51	73.8655	1,624.51	68.7894	1,624.51	73.9248	1,624.51	72.9644	1,624.51	75.2597	1,624.51	71.1574	1,624.51	76.7388	1,624.51	65.9482	1,624.51	76.07	1,624.51	62.8839	1,624.51	71.3213	1,624.51	53.7521	1,624.51	63.4737	1,624.51	67.117
1,681.64	87.6873	1,681.64	86.6674	1,681.64	87.6452	1,681.64	86.5693	1,681.64	87.1718	1,681.64	85.1453	1,681.64	86.4208	1,681.64	82.6592	1,681.64	85.0367	1,681.64	81.7995	1,681.64	82.669	1,681.64	79.4028	1,681.64	80.7094	1,681.64	78.4107	1,681.64	79.1858	1,681.64	78.0952	1,681.64	77.6565	1,681.64	76.28	1,681.64	77.9483	1,681.64	71.601	1,681.64	74.0883	1,681.64	71.4997	1,681.64	71.595	1,681.64	64.265	1,681.64	70.6203	1,681.64	74.162	1,681.64	71.6922	1,681.64	73.7807	1,681.64	72.2465	1,681.64	72.7884	1,681.64	70.5679	1,681.64	60.7306	1,681.64	61.4598	1,681.64	70.0729	1,681.64	63.8491	1,681.64	67.9469
1,741.7	88.246	1,741.7	87.9727	1,741.7	88.0801	1,741.7	86.5772	1,741.7	87.0635	1,741.7	85.3102	1,741.7	85.998	1,741.7	84.0663	1,741.7	85.1973	1,741.7	81.1877	1,741.7	83.1724	1,741.7	79.477	1,741.7	80.8304	1,741.7	76.753	1,741.7	78.9456	1,741.7	76.5088	1,741.7	78.9344	1,741.7	77.1129	1,741.7	77.0109	1,741.7	76.8762	1,741.7	72.4133	1,741.7	73.7984	1,741.7	72.0118	1,741.7	70.532	1,741.7	71.1106	1,741.7	69.7325	1,741.7	73.0977	1,741.7	70.4963	1,741.7	74.2662	1,741.7	68.3224	1,741.7	70.3748	1,741.7	54.9591	1,741.7	54.5844	1,741.7	67.9784	1,741.7	67.2964	1,741.7	70.3935
1,803.22	87.3395	1,803.22	87.1669	1,803.22	87.117	1,803.22	86.5761	1,803.22	86.3929	1,803.22	85.6119	1,803.22	85.5829	1,803.22	83.9548	1,803.22	84.284	1,803.22	83.2965	1,803.22	81.3687	1,803.22	80.5016	1,803.22	80.1381	1,803.22	79.5304	1,803.22	76.2716	1,803.22	77.1457	1,803.22	76.9164	1,803.22	76.4113	1,803.22	76.8321	1,803.22	75.1713	1,803.22	73.7079	1,803.22	71.3202	1,803.22	73.0017	1,803.22	71.6021	1,803.22	71.6517	1,803.22	71.1027	1,803.22	71.3187	1,803.22	71.7261	1,803.22	75.3212	1,803.22	70.4211	1,803.22	70.1829	1,803.22	68.4111	1,803.22	67.9764	1,803.22	66.3516	1,803.22	64.9726	1,803.22	63.0532
1,866.21	86.3112	1,866.21	86.6151	1,866.21	86.6415	1,866.21	85.6676	1,866.21	85.2725	1,866.21	84.2307	1,866.21	84.6072	1,866.21	84.2612	1,866.21	82.7973	1,866.21	82.57	1,866.21	81.2599	1,866.21	80.9401	1,866.21	79.1508	1,866.21	79.6493	1,866.21	77.3228	1,866.21	77.8915	1,866.21	76.521	1,866.21	75.5137	1,866.21	73.4857	1,866.21	74.1867	1,866.21	74.8649	1,866.21	70.417	1,866.21	70.0459	1,866.21	68.0187	1,866.21	64.9767	1,866.21	70.3165	1,866.21	73.0272	1,866.21	70.9113	1,866.21	74.4616	1,866.21	67.0565	1,866.21	75.3551	1,866.21	47.9035	1,866.21	72.7406	1,866.21	64.4647	1,866.21	67.1152	1,866.21	46.1299
1,932.13	85.2716	1,932.13	84.4193	1,932.13	85.4576	1,932.13	83.7949	1,932.13	85.6061	1,932.13	83.6294	1,932.13	84.9248	1,932.13	83.2441	1,932.13	82.4269	1,932.13	80.9103	1,932.13	80.8975	1,932.13	78.5243	1,932.13	79.9903	1,932.13	74.0712	1,932.13	77.5665	1,932.13	72.7214	1,932.13	76.4994	1,932.13	68.3995	1,932.13	74.9182	1,932.13	59.3249	1,932.13	72.0273	1,932.13	71.8249	1,932.13	71.9872	1,932.13	71.4479	1,932.13	69.0527	1,932.13	65.6647	1,932.13	67.3791	1,932.13	69.2292	1,932.13	74.5451	1,932.13	59.3136	1,932.13	73.6339	1,932.13	57.7555	1,932.13	72.9246	1,932.13	63.3964	1,932.13	63.7307	1,932.13	69.1702
1,999.51	85.9921	1,999.51	85.0979	1,999.51	85.9505	1,999.51	84.2092	1,999.51	85.4646	1,999.51	82.8274	1,999.51	84.3641	1,999.51	81.4789	1,999.51	82.7238	1,999.51	80.3911	1,999.51	81.5146	1,999.51	77.6343	1,999.51	79.8348	1,999.51	74.0476	1,999.51	77.7714	1,999.51	72.4816	1,999.51	75.1944	1,999.51	72.1217	1,999.51	73.711	1,999.51	69.9764	1,999.51	71.8061	1,999.51	70.8632	1,999.51	71.7695	1,999.51	69.8603	1,999.51	69.3246	1,999.51	70.8735	1,999.51	70.6825	1,999.51	72.7086	1,999.51	72.2989	1,999.51	71.3599	1,999.51	72.8898	1,999.51	65.8054	1,999.51	68.6391	1,999.51	60.2639	1,999.51	53.2042	1,999.51	59.8644
2,069.82	86.4777	2,069.82	85.922	2,069.82	86.3788	2,069.82	84.9416	2,069.82	85.8061	2,069.82	83.3266	2,069.82	84.5243	2,069.82	81.4735	2,069.82	83.0377	2,069.82	79.978	2,069.82	81.5933	2,069.82	78.2351	2,069.82	80.0444	2,069.82	74.7039	2,069.82	77.9522	2,069.82	72.4052	2,069.82	75.2069	2,069.82	71.9591	2,069.82	73.374	2,069.82	70.5151	2,069.82	72.5756	2,069.82	69.9815	2,069.82	71.3081	2,069.82	69.9336	2,069.82	70.4926	2,069.82	69.0812	2,069.82	71.2527	2,069.82	73.0571	2,069.82	73.0051	2,069.82	73.2871	2,069.82	73.6883	2,069.82	69.4191	2,069.82	69.1401	2,069.82	60.3904	2,069.82	58.09	2,069.82	55.051
2,143.07	86.5167	2,143.07	86.0542	2,143.07	86.4963	2,143.07	85.1366	2,143.07	85.5989	2,143.07	83.689	2,143.07	84.3833	2,143.07	81.732	2,143.07	82.6253	2,143.07	80.3544	2,143.07	81.1444	2,143.07	78.8195	2,143.07	79.319	2,143.07	76.4162	2,143.07	77.2314	2,143.07	74.0418	2,143.07	73.8701	2,143.07	72.883	2,143.07	73.0469	2,143.07	70.9361	2,143.07	72.511	2,143.07	70.7327	2,143.07	69.7583	2,143.07	71.0733	2,143.07	71.0792	2,143.07	70.2131	2,143.07	69.2085	2,143.07	72.6734	2,143.07	71.8926	2,143.07	74.9389	2,143.07	73.6527	2,143.07	71.0336	2,143.07	69.0906	2,143.07	58.9772	2,143.07	59.8755	2,143.07	60.563
2,219.24	85.9754	2,219.24	85.3837	2,219.24	85.8027	2,219.24	84.5293	2,219.24	85.0629	2,219.24	83.2505	2,219.24	83.6626	2,219.24	81.4867	2,219.24	81.7425	2,219.24	79.7903	2,219.24	79.9407	2,219.24	77.5451	2,219.24	78.3039	2,219.24	76.693	2,219.24	76.1199	2,219.24	73.6515	2,219.24	73.5821	2,219.24	73.9287	2,219.24	70.8992	2,219.24	72.048	2,219.24	71.1022	2,219.24	68.5704	2,219.24	69.0246	2,219.24	72.1393	2,219.24	69.5869	2,219.24	70.5706	2,219.24	68.2116	2,219.24	72.1029	2,219.24	70.538	2,219.24	73.7937	2,219.24	73.008	2,219.24	70.6538	2,219.24	69.9304	2,219.24	58.7161	2,219.24	57.1013	2,219.24	52.8969
2,296.88	85.5106	2,296.88	85.1942	2,296.88	85.3306	2,296.88	84.1674	2,296.88	84.8577	2,296.88	82.5637	2,296.88	83.4326	2,296.88	80.8227	2,296.88	82.0823	2,296.88	78.3522	2,296.88	80.3135	2,296.88	78.0011	2,296.88	78.1358	2,296.88	76.4412	2,296.88	76.3398	2,296.88	74.2847	2,296.88	74.2021	2,296.88	71.9911	2,296.88	71.3417	2,296.88	72.0515	2,296.88	72.2237	2,296.88	69.5387	2,296.88	69.5161	2,296.88	71.1887	2,296.88	69.4502	2,296.88	70.8727	2,296.88	69.0665	2,296.88	71.2184	2,296.88	66.3028	2,296.88	72.2855	2,296.88	73.4819	2,296.88	69.2294	2,296.88	71.7854	2,296.88	63.0278	2,296.88	61.8792	2,296.88	63.72
2,378.91	85.8046	2,378.91	85.2463	2,378.91	85.963	2,378.91	84.3417	2,378.91	85.367	2,378.91	82.629	2,378.91	84.2881	2,378.91	81.0933	2,378.91	82.8373	2,378.91	78.7931	2,378.91	81.3453	2,378.91	76.5695	2,378.91	79.6108	2,378.91	75.6399	2,378.91	77.9889	2,378.91	73.4633	2,378.91	76.2961	2,378.91	70.9364	2,378.91	72.2262	2,378.91	70.4411	2,378.91	72.7603	2,378.91	67.905	2,378.91	72.4559	2,378.91	71.1046	2,378.91	71.7585	2,378.91	70.2301	2,378.91	71.8109	2,378.91	69.934	2,378.91	69.5712	2,378.91	73.0654	2,378.91	72.8842	2,378.91	70.5517	2,378.91	72.2906	2,378.91	62.6498	2,378.91	67.9043	2,378.91	63.9415
2,462.4	86.898	2,462.4	86.5833	2,462.4	87.0028	2,462.4	85.6793	2,462.4	86.2686	2,462.4	84.2892	2,462.4	85.3114	2,462.4	82.5819	2,462.4	83.8391	2,462.4	81.0649	2,462.4	82.2266	2,462.4	79.6216	2,462.4	80.3186	2,462.4	77.2508	2,462.4	79.161	2,462.4	76.698	2,462.4	77.1544	2,462.4	72.7524	2,462.4	74.6804	2,462.4	72.3583	2,462.4	72.6347	2,462.4	70.6078	2,462.4	72.1497	2,462.4	69.852	2,462.4	72.1569	2,462.4	71.6049	2,462.4	72.4168	2,462.4	67.7956	2,462.4	70.5962	2,462.4	72.7285	2,462.4	72.8046	2,462.4	71.7834	2,462.4	72.5605	2,462.4	64.6528	2,462.4	68.7678	2,462.4	66.5278
2,548.83	86.2262	2,548.83	86.236	2,548.83	86.1043	2,548.83	85.6166	2,548.83	85.6568	2,548.83	84.7401	2,548.83	84.7204	2,548.83	83.3276	2,548.83	83.2335	2,548.83	82.0565	2,548.83	81.5439	2,548.83	80.9742	2,548.83	79.5768	2,548.83	79.5535	2,548.83	78.104	2,548.83	78.3938	2,548.83	76.3916	2,548.83	75.0471	2,548.83	73.1259	2,548.83	73.1481	2,548.83	70.2438	2,548.83	71.5217	2,548.83	70.9774	2,548.83	70.6496	2,548.83	69.475	2,548.83	72.9135	2,548.83	71.699	2,548.83	71.3978	2,548.83	68.6736	2,548.83	71.8175	2,548.83	71.8047	2,548.83	71.058	2,548.83	69.581	2,548.83	69.9744	2,548.83	64.4244	2,548.83	69.9625
2,639.65	85.0484	2,639.65	85.1954	2,639.65	84.5684	2,639.65	84.5015	2,639.65	84.1769	2,639.65	83.9713	2,639.65	82.8811	2,639.65	82.657	2,639.65	82.0884	2,639.65	81.3084	2,639.65	80.4579	2,639.65	80.1158	2,639.65	78.3222	2,639.65	78.7995	2,639.65	76.5311	2,639.65	77.0573	2,639.65	75.1742	2,639.65	75.0433	2,639.65	72.1188	2,639.65	72.8645	2,639.65	69.4545	2,639.65	69.874	2,639.65	69.21	2,639.65	70.6643	2,639.65	67.9667	2,639.65	73.3337	2,639.65	69.6406	2,639.65	71.8795	2,639.65	69.3422	2,639.65	72.7683	2,639.65	69.8626	2,639.65	71.8203	2,639.65	68.9768	2,639.65	68.0978	2,639.65	64.6061	2,639.65	68.8859
2,731.93	84.8945	2,731.93	84.5358	2,731.93	84.2619	2,731.93	84.3689	2,731.93	83.8094	2,731.93	83.8959	2,731.93	82.9273	2,731.93	82.7438	2,731.93	82.2049	2,731.93	80.6627	2,731.93	80.647	2,731.93	79.0565	2,731.93	79.0048	2,731.93	78.183	2,731.93	77.0893	2,731.93	74.0082	2,731.93	75.4013	2,731.93	73.1025	2,731.93	73.4504	2,731.93	70.1764	2,731.93	70.4406	2,731.93	69.9589	2,731.93	70.0676	2,731.93	69.4193	2,731.93	65.9997	2,731.93	71.4991	2,731.93	70.5215	2,731.93	69.3492	2,731.93	68.2073	2,731.93	68.7581	2,731.93	68.4248	2,731.93	68.1706	2,731.93	69.0467	2,731.93	64.015	2,731.93	62.6131	2,731.93	67.2165
2,828.61	85.2094	2,828.61	85.0181	2,828.61	85.4957	2,828.61	85.0064	2,828.61	84.4863	2,828.61	84.0441	2,828.61	84.1884	2,828.61	83.3683	2,828.61	83.099	2,828.61	82.3007	2,828.61	82.0712	2,828.61	79.6309	2,828.61	80.1471	2,828.61	77.0615	2,828.61	78.3942	2,828.61	75.3676	2,828.61	76.9176	2,828.61	72.4147	2,828.61	75.2368	2,828.61	70.618	2,828.61	71.7228	2,828.61	69.1707	2,828.61	68.4262	2,828.61	68.0011	2,828.61	68.371	2,828.61	70.6844	2,828.61	69.9487	2,828.61	69.8637	2,828.61	68.7955	2,828.61	69.7023	2,828.61	69.4755	2,828.61	67.1612	2,828.61	68.4404	2,828.61	65.1316	2,828.61	62.7769	2,828.61	70.2978
2,928.22	86.1925	2,928.22	86.0034	2,928.22	86.2457	2,928.22	85.9677	2,928.22	85.6866	2,928.22	85.1294	2,928.22	85.253	2,928.22	84.2705	2,928.22	84.0065	2,928.22	82.9742	2,928.22	82.7952	2,928.22	80.6303	2,928.22	81.2948	2,928.22	77.8519	2,928.22	78.99	2,928.22	77.2146	2,928.22	76.6342	2,928.22	74.0002	2,928.22	74.0523	2,928.22	71.4116	2,928.22	71.5166	2,928.22	70.8819	2,928.22	69.8734	2,928.22	66.4794	2,928.22	68.2256	2,928.22	69.8598	2,928.22	69.5056	2,928.22	68.8297	2,928.22	69.0252	2,928.22	69.5138	2,928.22	69.2754	2,928.22	67.4844	2,928.22	69.3148	2,928.22	60.6386	2,928.22	65.6987	2,928.22	67.8021
3,030.76	86.8001	3,030.76	86.7791	3,030.76	86.9221	3,030.76	86.3646	3,030.76	86.1445	3,030.76	85.6138	3,030.76	85.5994	3,030.76	84.4672	3,030.76	84.6452	3,030.76	83.5064	3,030.76	83.2037	3,030.76	81.2115	3,030.76	81.0832	3,030.76	79.1788	3,030.76	78.9914	3,030.76	78.231	3,030.76	76.8658	3,030.76	74.2157	3,030.76	74.8549	3,030.76	72.6917	3,030.76	72.449	3,030.76	71.4485	3,030.76	71.0738	3,030.76	68.9065	3,030.76	69.4716	3,030.76	69.9713	3,030.76	68.0117	3,030.76	70.7286	3,030.76	68.6901	3,030.76	70.8399	3,030.76	67.1464	3,030.76	68.4227	3,030.76	68.9892	3,030.76	68.0105	3,030.76	63.6852	3,030.76	69.1029
3,137.7	86.8313	3,137.7	87.1184	3,137.7	86.2188	3,137.7	86.7011	3,137.7	85.9778	3,137.7	85.9796	3,137.7	85.1011	3,137.7	84.9515	3,137.7	84.3305	3,137.7	83.5936	3,137.7	82.7289	3,137.7	81.3573	3,137.7	80.8382	3,137.7	79.6824	3,137.7	78.5518	3,137.7	77.1787	3,137.7	76.5684	3,137.7	74.8329	3,137.7	75.1091	3,137.7	71.7698	3,137.7	72.1103	3,137.7	71.105	3,137.7	70.2794	3,137.7	69.1663	3,137.7	69.5145	3,137.7	69.4369	3,137.7	68.8351	3,137.7	69.714	3,137.7	68.5096	3,137.7	70.0445	3,137.7	66.6366	3,137.7	68.7627	3,137.7	67.7732	3,137.7	66.0515	3,137.7	62.981	3,137.7	69.2995
3,249.02	86.6812	3,249.02	86.7464	3,249.02	86.2672	3,249.02	86.0829	3,249.02	85.9793	3,249.02	85.5675	3,249.02	85.188	3,249.02	84.1529	3,249.02	84.3811	3,249.02	82.5566	3,249.02	82.8062	3,249.02	80.6238	3,249.02	80.7772	3,249.02	78.9555	3,249.02	78.0755	3,249.02	76.2041	3,249.02	76.0537	3,249.02	73.0571	3,249.02	74.5907	3,249.02	71.2442	3,249.02	71.5718	3,249.02	70.0446	3,249.02	69.6828	3,249.02	68.2635	3,249.02	68.6173	3,249.02	67.6973	3,249.02	68.9658	3,249.02	68.7215	3,249.02	69.5437	3,249.02	69.3053	3,249.02	66.2103	3,249.02	68.9114	3,249.02	68.8083	3,249.02	64.8004	3,249.02	63.8912	3,249.02	67.0372
3,363.28	86.6891	3,363.28	86.6232	3,363.28	86.223	3,363.28	86.253	3,363.28	86.1341	3,363.28	85.6992	3,363.28	85.357	3,363.28	84.4486	3,363.28	83.9771	3,363.28	81.9541	3,363.28	82.4831	3,363.28	80.0308	3,363.28	81.0541	3,363.28	78.0193	3,363.28	78.2243	3,363.28	75.2219	3,363.28	75.9549	3,363.28	73.32	3,363.28	72.6928	3,363.28	70.4182	3,363.28	70.7534	3,363.28	68.3856	3,363.28	70.2235	3,363.28	66.8122	3,363.28	67.6699	3,363.28	64.466	3,363.28	67.6955	3,363.28	69.0767	3,363.28	68.9708	3,363.28	66.087	3,363.28	66.3918	3,363.28	67.9321	3,363.28	68.6642	3,363.28	63.198	3,363.28	64.1296	3,363.28	66.6578
3,481.93	87.1691	3,481.93	87.0111	3,481.93	87.1311	3,481.93	87.1503	3,481.93	86.2429	3,481.93	86.8307	3,481.93	85.828	3,481.93	85.42	3,481.93	84.7015	3,481.93	83.3895	3,481.93	83.8192	3,481.93	81.5249	3,481.93	81.7971	3,481.93	79.2991	3,481.93	79.4146	3,481.93	76.61	3,481.93	77.3011	3,481.93	74.458	3,481.93	74.5892	3,481.93	70.4318	3,481.93	70.9718	3,481.93	69.3771	3,481.93	70.269	3,481.93	69.6278	3,481.93	67.7844	3,481.93	68.2048	3,481.93	66.9198	3,481.93	71.0892	3,481.93	69.9594	3,481.93	68.1326	3,481.93	66.4544	3,481.93	69.7819	3,481.93	68.7061	3,481.93	66.5147	3,481.93	65.0948	3,481.93	69.5354
3,604.98	87.4154	3,604.98	87.4877	3,604.98	87.5092	3,604.98	87.562	3,604.98	87.1751	3,604.98	87.409	3,604.98	87.2473	3,604.98	86.4131	3,604.98	86.6037	3,604.98	84.9035	3,604.98	85.619	3,604.98	83.1977	3,604.98	83.9421	3,604.98	80.5879	3,604.98	81.5229	3,604.98	78.5518	3,604.98	80.1153	3,604.98	75.8754	3,604.98	77.0329	3,604.98	73.7971	3,604.98	74.0141	3,604.98	72.2181	3,604.98	72.2791	3,604.98	69.0901	3,604.98	70.0747	3,604.98	69.3156	3,604.98	69.4435	3,604.98	72.3242	3,604.98	71.3657	3,604.98	68.6782	3,604.98	70.1163	3,604.98	71.6481	3,604.98	70.9607	3,604.98	67.5122	3,604.98	65.6216	3,604.98	71.6017
3,732.42	87.519	3,732.42	88.0858	3,732.42	87.5333	3,732.42	88.6018	3,732.42	88.269	3,732.42	88.3407	3,732.42	88.3999	3,732.42	87.4895	3,732.42	88.0687	3,732.42	86.4159	3,732.42	86.8721	3,732.42	84.7161	3,732.42	84.984	3,732.42	82.4206	3,732.42	82.8468	3,732.42	80.2538	3,732.42	80.5944	3,732.42	77.3415	3,732.42	77.2572	3,732.42	75.2339	3,732.42	75.2468	3,732.42	72.5681	3,732.42	72.6009	3,732.42	70.1577	3,732.42	71.5065	3,732.42	70.8162	3,732.42	70.2967	3,732.42	72.8859	3,732.42	71.7264	3,732.42	71.1718	3,732.42	71.5343	3,732.42	72.2305	3,732.42	72.5938	3,732.42	67.4065	3,732.42	67.0257	3,732.42	71.9445
3,864.26	86.3623	3,864.26	87.5563	3,864.26	86.0517	3,864.26	88.349	3,864.26	87.1322	3,864.26	88.3649	3,864.26	87.3582	3,864.26	87.8595	3,864.26	87.0898	3,864.26	86.608	3,864.26	85.893	3,864.26	84.7094	3,864.26	84.4309	3,864.26	82.5741	3,864.26	82.8023	3,864.26	80.7268	3,864.26	80.6152	3,864.26	78.8771	3,864.26	77.4393	3,864.26	75.2285	3,864.26	75.7535	3,864.26	71.6532	3,864.26	72.7032	3,864.26	72.2879	3,864.26	69.4832	3,864.26	69.5933	3,864.26	70.2143	3,864.26	72.242	3,864.26	71.8889	3,864.26	70.8961	3,864.26	70.8553	3,864.26	72.2072	3,864.26	72.6876	3,864.26	64.6787	3,864.26	66.2017	3,864.26	70.4341
4,000.49	86.1295	4,000.49	87.1791	4,000.49	86.189	4,000.49	87.6812	4,000.49	86.5592	4,000.49	87.8202	4,000.49	87.1961	4,000.49	87.4506	4,000.49	87.2182	4,000.49	85.6981	4,000.49	85.9032	4,000.49	83.5506	4,000.49	85.0001	4,000.49	81.6033	4,000.49	83.4879	4,000.49	79.0066	4,000.49	80.3103	4,000.49	77.2777	4,000.49	78.4689	4,000.49	74.6865	4,000.49	77.0114	4,000.49	71.7066	4,000.49	72.9322	4,000.49	71.4976	4,000.49	72.106	4,000.49	67.1917	4,000.49	71.5388	4,000.49	70.9842	4,000.49	69.6739	4,000.49	70.7583	4,000.49	72.1323	4,000.49	72.4515	4,000.49	73.19	4,000.49	66.3285	4,000.49	66.1408	4,000.49	69.8876
4,141.11	86.2847	4,141.11	86.7797	4,141.11	86.8314	4,141.11	88.1065	4,141.11	86.8348	4,141.11	88.0619	4,141.11	87.4681	4,141.11	86.8317	4,141.11	87.4564	4,141.11	85.3115	4,141.11	86.5186	4,141.11	83.8761	4,141.11	85.1406	4,141.11	82.4966	4,141.11	83.8635	4,141.11	80.2094	4,141.11	80.493	4,141.11	77.384	4,141.11	78.8395	4,141.11	75.9545	4,141.11	76.402	4,141.11	71.83	4,141.11	73.803	4,141.11	71.3606	4,141.11	70.6206	4,141.11	68.8086	4,141.11	69.6124	4,141.11	70.2197	4,141.11	70.5849	4,141.11	72.0049	4,141.11	72.5187	4,141.11	73.0307	4,141.11	72.0955	4,141.11	68.0885	4,141.11	68.4416	4,141.11	71.5256
4,287.6	86.1517	4,287.6	86.9619	4,287.6	86.0122	4,287.6	87.3287	4,287.6	86.9408	4,287.6	87.2536	4,287.6	87.0959	4,287.6	85.8328	4,287.6	87.2856	4,287.6	84.8526	4,287.6	86.7211	4,287.6	83.5394	4,287.6	84.6048	4,287.6	82.4314	4,287.6	82.7903	4,287.6	80.6592	4,287.6	80.0318	4,287.6	78.4946	4,287.6	79.1786	4,287.6	74.9585	4,287.6	75.766	4,287.6	73.3052	4,287.6	74.0403	4,287.6	73.6121	4,287.6	71.7985	4,287.6	68.4931	4,287.6	71.3063	4,287.6	71.5161	4,287.6	71.3358	4,287.6	71.8776	4,287.6	72.1022	4,287.6	71.8534	4,287.6	71.807	4,287.6	67.6221	4,287.6	67.6996	4,287.6	71.671
4,438.48	87.1669	4,438.48	87.1133	4,438.48	86.7196	4,438.48	86.6152	4,438.48	86.6278	4,438.48	86.4762	4,438.48	87.2565	4,438.48	85.7755	4,438.48	86.6217	4,438.48	84.4069	4,438.48	85.6189	4,438.48	82.2736	4,438.48	83.868	4,438.48	80.5813	4,438.48	81.7563	4,438.48	78.8053	4,438.48	80.341	4,438.48	77.1162	4,438.48	78.6425	4,438.48	75.1536	4,438.48	75.9402	4,438.48	73.4462	4,438.48	73.6161	4,438.48	71.3637	4,438.48	71.9137	4,438.48	67.4578	4,438.48	68.9362	4,438.48	69.9785	4,438.48	68.0838	4,438.48	70.4727	4,438.48	72.3303	4,438.48	71.725	4,438.48	70.7881	4,438.48	65.7946	4,438.48	66.938	4,438.48	68.4162
4,595.21	88.041	4,595.21	87.2871	4,595.21	87.3685	4,595.21	87.2069	4,595.21	85.6845	4,595.21	86.1303	4,595.21	86.0527	4,595.21	85.5016	4,595.21	84.9211	4,595.21	84.386	4,595.21	83.1526	4,595.21	82.2632	4,595.21	82.1442	4,595.21	80.5453	4,595.21	80.7099	4,595.21	78.997	4,595.21	78.5273	4,595.21	76.3186	4,595.21	77.5207	4,595.21	76.3517	4,595.21	74.6605	4,595.21	71.854	4,595.21	73.1305	4,595.21	69.4543	4,595.21	69.8373	4,595.21	67.2175	4,595.21	67.6426	4,595.21	67.7827	4,595.21	66.3319	4,595.21	71.5911	4,595.21	71.0568	4,595.21	71.0221	4,595.21	71.263	4,595.21	66.4841	4,595.21	66.0064	4,595.21	68.7577
4,756.35	87.9248	4,756.35	87.3344	4,756.35	87.1689	4,756.35	86.0226	4,756.35	86.1982	4,756.35	85.3891	4,756.35	84.4036	4,756.35	83.4957	4,756.35	84.4121	4,756.35	82.1331	4,756.35	83.7578	4,756.35	81.4204	4,756.35	81.984	4,756.35	80.2793	4,756.35	80.221	4,756.35	78.1806	4,756.35	80.0027	4,756.35	73.7393	4,756.35	77.3876	4,756.35	72.7936	4,756.35	74.5816	4,756.35	70.1378	4,756.35	72.3965	4,756.35	71.0177	4,756.35	70.2339	4,756.35	63.6523	4,756.35	67.6347	4,756.35	66.5511	4,756.35	67.7181	4,756.35	69.826	4,756.35	69.7042	4,756.35	69.7443	4,756.35	69.4689	4,756.35	66.8618	4,756.35	68.3093	4,756.35	66.8326
4,924.8	86.8763	4,924.8	86.5854	4,924.8	86.7437	4,924.8	84.2832	4,924.8	85.2398	4,924.8	83.8952	4,924.8	83.8802	4,924.8	83.3263	4,924.8	83.3233	4,924.8	82.324	4,924.8	82.2709	4,924.8	80.8497	4,924.8	81.1466	4,924.8	80.4167	4,924.8	79.0817	4,924.8	76.5423	4,924.8	77.5178	4,924.8	75.5164	4,924.8	76.2018	4,924.8	70.774	4,924.8	73.4658	4,924.8	71.4554	4,924.8	72.4357	4,924.8	67.0123	4,924.8	68.4462	4,924.8	65.2926	4,924.8	65.4422	4,924.8	64.9669	4,924.8	64.6632	4,924.8	69.29	4,924.8	68.6227	4,924.8	68.4625	4,924.8	68.586	4,924.8	66.9327	4,924.8	65.8828	4,924.8	64.7397
5,097.66	86.2842	5,097.66	84.7186	5,097.66	86.5157	5,097.66	84.3014	5,097.66	84.2914	5,097.66	83.0152	5,097.66	83.5566	5,097.66	83.3214	5,097.66	82.2305	5,097.66	81.993	5,097.66	81.4001	5,097.66	80.2998	5,097.66	80.2922	5,097.66	77.6673	5,097.66	78.9368	5,097.66	74.9957	5,097.66	76.405	5,097.66	73.7619	5,097.66	75.4959	5,097.66	74.3559	5,097.66	73.0391	5,097.66	70.5738	5,097.66	69.8179	5,097.66	68.2518	5,097.66	68.9481	5,097.66	61.6506	5,097.66	66.9907	5,097.66	67.67	5,097.66	67.253	5,097.66	69.6331	5,097.66	67.984	5,097.66	66.6688	5,097.66	67.8873	5,097.66	66.5065	5,097.66	66.4539	5,097.66	66.5106
5,277.83	87.3079	5,277.83	86.0405	5,277.83	86.1866	5,277.83	85.5036	5,277.83	85.2561	5,277.83	85.1361	5,277.83	83.2558	5,277.83	84.7839	5,277.83	83.9723	5,277.83	83.6879	5,277.83	83.9704	5,277.83	81.6849	5,277.83	82.2522	5,277.83	78.0234	5,277.83	80.0565	5,277.83	76.573	5,277.83	78.9349	5,277.83	72.8495	5,277.83	75.9195	5,277.83	72.7788	5,277.83	73.8305	5,277.83	69.5995	5,277.83	71.4507	5,277.83	66.9091	5,277.83	68.3731	5,277.83	64.5937	5,277.83	68.456	5,277.83	63.8277	5,277.83	67.0159	5,277.83	66.967	5,277.83	68.618	5,277.83	66.8041	5,277.83	68.6493	5,277.83	63.8976	5,277.83	68.1018	5,277.83	66.7262
5,463.87	86.6454	5,463.87	85.9141	5,463.87	86.5115	5,463.87	84.3092	5,463.87	84.7567	5,463.87	84.2236	5,463.87	84.1412	5,463.87	84.1223	5,463.87	83.8355	5,463.87	83.7023	5,463.87	83.7998	5,463.87	82.2044	5,463.87	82.9359	5,463.87	81.1539	5,463.87	81.3194	5,463.87	78.1989	5,463.87	77.9056	5,463.87	77.1261	5,463.87	75.4597	5,463.87	71.3097	5,463.87	73.0673	5,463.87	71.496	5,463.87	71.7837	5,463.87	68.5268	5,463.87	67.8951	5,463.87	67.6795	5,463.87	66.8242	5,463.87	65.131	5,463.87	66.2329	5,463.87	69.3887	5,463.87	67.4774	5,463.87	67.1673	5,463.87	67.8298	5,463.87	66.197	5,463.87	66.1186	5,463.87	66.5586
5,657.23	85.9717	5,657.23	85.558	5,657.23	85.9128	5,657.23	84.6161	5,657.23	84.3098	5,657.23	84.0548	5,657.23	83.7315	5,657.23	84.0524	5,657.23	83.357	5,657.23	82.5775	5,657.23	82.9874	5,657.23	80.6139	5,657.23	82.432	5,657.23	77.804	5,657.23	79.8689	5,657.23	74.7881	5,657.23	76.4588	5,657.23	73.7442	5,657.23	73.8121	5,657.23	70.376	5,657.23	72.7416	5,657.23	69.0763	5,657.23	68.7028	5,657.23	67.2446	5,657.23	66.7766	5,657.23	62.9086	5,657.23	66.7953	5,657.23	66.6626	5,657.23	65.5451	5,657.23	67.5238	5,657.23	66.2589	5,657.23	64.6231	5,657.23	67.0279	5,657.23	65.5724	5,657.23	67.3068	5,657.23	64.0493
5,856.45	86.4765	5,856.45	85.478	5,856.45	86.1221	5,856.45	83.9844	5,856.45	85.3433	5,856.45	84.0664	5,856.45	83.9362	5,856.45	84.1845	5,856.45	83.8685	5,856.45	82.8766	5,856.45	84.1189	5,856.45	81.574	5,856.45	82.5536	5,856.45	77.8959	5,856.45	80.6806	5,856.45	77.2067	5,856.45	77.9358	5,856.45	73.9742	5,856.45	75.2705	5,856.45	72.1036	5,856.45	71.8431	5,856.45	69.2449	5,856.45	69.486	5,856.45	66.2141	5,856.45	66.5483	5,856.45	65.6762	5,856.45	68.5127	5,856.45	63.7181	5,856.45	64.6359	5,856.45	65.4935	5,856.45	67.1899	5,856.45	65.487	5,856.45	67.7052	5,856.45	65.2806	5,856.45	67.7828	5,856.45	64.4899
6,062.99	87.7237	6,062.99	86.4663	6,062.99	87.4866	6,062.99	85.2363	6,062.99	85.2772	6,062.99	84.6892	6,062.99	84.6703	6,062.99	84.1706	6,062.99	83.9786	6,062.99	82.9838	6,062.99	83.5061	6,062.99	81.0178	6,062.99	82.6742	6,062.99	79.5875	6,062.99	81.2922	6,062.99	76.3952	6,062.99	77.8258	6,062.99	72.4869	6,062.99	75.6965	6,062.99	69.8458	6,062.99	73.0321	6,062.99	68.2378	6,062.99	70.3842	6,062.99	65.9375	6,062.99	67.0204	6,062.99	64.9207	6,062.99	68.2639	6,062.99	61.3886	6,062.99	63.0091	6,062.99	64.6452	6,062.99	65.4299	6,062.99	64.2013	6,062.99	67.199	6,062.99	63.0297	6,062.99	67.0481	6,062.99	64.5706
6,276.86	86.7977	6,276.86	85.4791	6,276.86	86.4691	6,276.86	84.1963	6,276.86	85.0784	6,276.86	83.4013	6,276.86	83.4531	6,276.86	83.0013	6,276.86	83.9753	6,276.86	81.9498	6,276.86	82.9667	6,276.86	79.5495	6,276.86	81.0562	6,276.86	78.8205	6,276.86	78.178	6,276.86	74.95	6,276.86	76.0418	6,276.86	73.0827	6,276.86	74.6153	6,276.86	70.7055	6,276.86	71.6353	6,276.86	65.8679	6,276.86	68.699	6,276.86	64.0577	6,276.86	67.7082	6,276.86	65.782	6,276.86	66.8293	6,276.86	58.856	6,276.86	63.5518	6,276.86	66.8952	6,276.86	67.2165	6,276.86	66.2179	6,276.86	67.4436	6,276.86	63.1342	6,276.86	66.1779	6,276.86	61.904
6,498.05	86.8095	6,498.05	85.8549	6,498.05	86.8276	6,498.05	85.0262	6,498.05	85.3062	6,498.05	84.27	6,498.05	84.1239	6,498.05	83.5356	6,498.05	83.5644	6,498.05	81.9194	6,498.05	83.0661	6,498.05	80.5314	6,498.05	81.362	6,498.05	76.9943	6,498.05	79.1789	6,498.05	73.8188	6,498.05	76.374	6,498.05	71.3804	6,498.05	74.2654	6,498.05	70.9043	6,498.05	70.8683	6,498.05	67.075	6,498.05	68.3796	6,498.05	65.9308	6,498.05	65.5096	6,498.05	64.4223	6,498.05	64.8733	6,498.05	60.3831	6,498.05	61.3372	6,498.05	66.7705	6,498.05	64.4594	6,498.05	66.6169	6,498.05	66.7681	6,498.05	63.3725	6,498.05	66.9451	6,498.05	60.9194
6,726.56	87.0843	6,726.56	86.2079	6,726.56	86.8581	6,726.56	85.5374	6,726.56	85.5864	6,726.56	84.4483	6,726.56	84.528	6,726.56	83.5497	6,726.56	83.3646	6,726.56	83.0745	6,726.56	82.313	6,726.56	80.5927	6,726.56	80.9928	6,726.56	78.5657	6,726.56	78.9862	6,726.56	75.5543	6,726.56	76.2173	6,726.56	74.0077	6,726.56	73.8044	6,726.56	71.0205	6,726.56	71.4371	6,726.56	69.5491	6,726.56	68.5728	6,726.56	66.7957	6,726.56	65.4732	6,726.56	65.649	6,726.56	64.6148	6,726.56	60.0979	6,726.56	60.1509	6,726.56	65.8279	6,726.56	62.9099	6,726.56	65.4851	6,726.56	65.0271	6,726.56	64.6573	6,726.56	66.3799	6,726.56	61.5994
6,963.87	86.9986	6,963.87	86.649	6,963.87	87.0166	6,963.87	85.4455	6,963.87	86.2395	6,963.87	83.6554	6,963.87	84.5443	6,963.87	82.7995	6,963.87	83.3535	6,963.87	80.6828	6,963.87	82.866	6,963.87	79.6283	6,963.87	80.9441	6,963.87	77.5433	6,963.87	78.8323	6,963.87	74.4346	6,963.87	76.1692	6,963.87	71.7217	6,963.87	73.5197	6,963.87	69.9207	6,963.87	70.6828	6,963.87	65.941	6,963.87	68.6369	6,963.87	63.7485	6,963.87	66.171	6,963.87	62.4336	6,963.87	62.8879	6,963.87	61.5718	6,963.87	62.1053	6,963.87	65.2996	6,963.87	64.0027	6,963.87	63.2539	6,963.87	66.6197	6,963.87	62.335	6,963.87	64.3163	6,963.87	58.6883
7,209.96	87.0056	7,209.96	87.0648	7,209.96	87.3069	7,209.96	85.4725	7,209.96	86.5665	7,209.96	84.0577	7,209.96	85.1928	7,209.96	82.7751	7,209.96	83.3818	7,209.96	81.7772	7,209.96	82.4408	7,209.96	80.1778	7,209.96	81.4955	7,209.96	77.8358	7,209.96	79.9399	7,209.96	75.0962	7,209.96	76.3155	7,209.96	72.3804	7,209.96	74.0816	7,209.96	69.8973	7,209.96	70.9012	7,209.96	67.9385	7,209.96	69.9859	7,209.96	65.513	7,209.96	65.8451	7,209.96	61.7444	7,209.96	63.7493	7,209.96	57.0081	7,209.96	60.7446	7,209.96	64.9268	7,209.96	62.0524	7,209.96	64.5704	7,209.96	65.3617	7,209.96	63.4967	7,209.96	64.6127	7,209.96	59.6636
7,464.84	87.1651	7,464.84	87.0879	7,464.84	86.939	7,464.84	86.0965	7,464.84	86.5713	7,464.84	84.208	7,464.84	84.4814	7,464.84	83.2552	7,464.84	82.8544	7,464.84	81.7168	7,464.84	81.2807	7,464.84	78.9862	7,464.84	80.0506	7,464.84	76.3405	7,464.84	77.082	7,464.84	72.658	7,464.84	74.7529	7,464.84	70.9458	7,464.84	71.7772	7,464.84	67.7224	7,464.84	69.3852	7,464.84	64.4597	7,464.84	66.205	7,464.84	62.5938	7,464.84	63.8822	7,464.84	62.5986	7,464.84	63.0465	7,464.84	56.4924	7,464.84	61.375	7,464.84	60.9052	7,464.84	61.7617	7,464.84	62.9641	7,464.84	62.9361	7,464.84	62.4833	7,464.84	62.9476	7,464.84	57.9601
7,727.05	87.2953	7,727.05	87.1813	7,727.05	87.4779	7,727.05	86.0716	7,727.05	86.8607	7,727.05	84.2376	7,727.05	84.8821	7,727.05	82.9852	7,727.05	83.0223	7,727.05	81.2988	7,727.05	81.9521	7,727.05	79.3085	7,727.05	79.9034	7,727.05	76.5765	7,727.05	77.8195	7,727.05	73.2343	7,727.05	74.3517	7,727.05	71.5105	7,727.05	71.4969	7,727.05	69.3192	7,727.05	69.3988	7,727.05	66.8891	7,727.05	66.3397	7,727.05	63.8342	7,727.05	63.8238	7,727.05	61.9161	7,727.05	63.3954	7,727.05	55.9548	7,727.05	60.2975	7,727.05	60.217	7,727.05	59.0827	7,727.05	64.1579	7,727.05	63.9805	7,727.05	58.9603	7,727.05	62.6659	7,727.05	57.5906
7,999.51	86.7742	7,999.51	86.8665	7,999.51	87.0718	7,999.51	85.8934	7,999.51	86.6542	7,999.51	84.0564	7,999.51	84.8827	7,999.51	83.4322	7,999.51	82.8513	7,999.51	82.0821	7,999.51	81.6587	7,999.51	79.2853	7,999.51	79.9938	7,999.51	76.6927	7,999.51	77.4151	7,999.51	72.9946	7,999.51	75.2849	7,999.51	70.9736	7,999.51	71.958	7,999.51	66.6047	7,999.51	68.7068	7,999.51	65.6082	7,999.51	66.4213	7,999.51	62.0652	7,999.51	64.0831	7,999.51	59.9383	7,999.51	59.2976	7,999.51	56.9426	7,999.51	59.2985	7,999.51	55.9554	7,999.51	55.9686	7,999.51	63.0246	7,999.51	63.4555	7,999.51	60.3901	7,999.51	61.7367	7,999.51	54.0662
8,282.23	86.8665	8,282.23	86.9354	8,282.23	86.9531	8,282.23	85.9557	8,282.23	86.5351	8,282.23	84.204	8,282.23	84.9114	8,282.23	82.9435	8,282.23	82.811	8,282.23	81.0322	8,282.23	81.6251	8,282.23	78.4272	8,282.23	80.0116	8,282.23	75.2163	8,282.23	78.1259	8,282.23	72.3459	8,282.23	73.5971	8,282.23	69.5828	8,282.23	72.0255	8,282.23	67.25	8,282.23	69.0201	8,282.23	65.68	8,282.23	66.8119	8,282.23	61.3235	8,282.23	64.3597	8,282.23	54.5714	8,282.23	55.619	8,282.23	54.4678	8,282.23	56.8396	8,282.23	59.1551	8,282.23	56.6928	8,282.23	62.2121	8,282.23	63.6104	8,282.23	60.6871	8,282.23	61.3752	8,282.23	48.5277
8,573.73	87.1632	8,573.73	87.0924	8,573.73	87.1586	8,573.73	86.2317	8,573.73	86.4936	8,573.73	84.2173	8,573.73	85.0914	8,573.73	82.6214	8,573.73	82.9173	8,573.73	80.8346	8,573.73	81.4389	8,573.73	78.1581	8,573.73	79.8759	8,573.73	75.1874	8,573.73	77.0492	8,573.73	72.6618	8,573.73	73.8016	8,573.73	69.2669	8,573.73	71.7062	8,573.73	67.5083	8,573.73	68.2922	8,573.73	65.7797	8,573.73	66.6733	8,573.73	63.5197	8,573.73	63.1867	8,573.73	57.3456	8,573.73	58.8092	8,573.73	55.5621	8,573.73	57.5783	8,573.73	58.2353	8,573.73	51.0234	8,573.73	61.5849	8,573.73	62.2656	8,573.73	61.0077	8,573.73	61.2427	8,573.73	53.3283
8,876.95	87.2593	8,876.95	86.9295	8,876.95	87.273	8,876.95	86.0422	8,876.95	86.7445	8,876.95	84.3595	8,876.95	85.2228	8,876.95	82.429	8,876.95	82.9161	8,876.95	80.4572	8,876.95	81.529	8,876.95	78.206	8,876.95	79.6241	8,876.95	75.3322	8,876.95	77.1698	8,876.95	71.9232	8,876.95	73.7046	8,876.95	69.9195	8,876.95	71.5825	8,876.95	68.183	8,876.95	68.6307	8,876.95	64.8727	8,876.95	66.6458	8,876.95	62.4824	8,876.95	63.8911	8,876.95	57.1412	8,876.95	60.0096	8,876.95	53.7237	8,876.95	56.4722	8,876.95	55.8326	8,876.95	52.7896	8,876.95	59.981	8,876.95	62.2269	8,876.95	59.7793	8,876.95	60.1677	8,876.95	52.7461
9,188.96	87.2596	9,188.96	86.8471	9,188.96	87.1802	9,188.96	85.8209	9,188.96	86.2294	9,188.96	83.9136	9,188.96	84.7635	9,188.96	81.8245	9,188.96	82.5035	9,188.96	80.2317	9,188.96	80.7251	9,188.96	78.11	9,188.96	79.152	9,188.96	75.3827	9,188.96	76.9171	9,188.96	72.216	9,188.96	73.9625	9,188.96	69.6333	9,188.96	70.9095	9,188.96	67.6292	9,188.96	68.02	9,188.96	65.9473	9,188.96	65.7951	9,188.96	63.3396	9,188.96	64.0442	9,188.96	57.9761	9,188.96	60.5782	9,188.96	56.6606	9,188.96	55.4136	9,188.96	54.4285	9,188.96	49.6198	9,188.96	59.8651	9,188.96	61.9039	9,188.96	59.5145	9,188.96	59.5377	9,188.96	48.7154
9,514.16	87.3848	9,514.16	86.9121	9,514.16	87.1323	9,514.16	85.6937	9,514.16	86.2206	9,514.16	83.8089	9,514.16	84.3347	9,514.16	81.6683	9,514.16	81.9525	9,514.16	80.0685	9,514.16	79.8727	9,514.16	78.1316	9,514.16	78.7605	9,514.16	75.3327	9,514.16	77.1534	9,514.16	71.4261	9,514.16	73.2275	9,514.16	69.493	9,514.16	70.4422	9,514.16	66.9564	9,514.16	67.5305	9,514.16	65.8593	9,514.16	65.1727	9,514.16	62.5348	9,514.16	62.6078	9,514.16	58.3963	9,514.16	61.6545	9,514.16	54.8903	9,514.16	54.9593	9,514.16	55.2494	9,514.16	50.74	9,514.16	60.0141	9,514.16	62.0811	9,514.16	58.0222	9,514.16	57.4909	9,514.16	49.6961
9,849.61	87.5668	9,849.61	86.9601	9,849.61	87.1896	9,849.61	85.8379	9,849.61	86.0161	9,849.61	83.7311	9,849.61	84.2629	9,849.61	81.6484	9,849.61	81.6099	9,849.61	80.0809	9,849.61	79.0201	9,849.61	77.9701	9,849.61	78.2527	9,849.61	75.4229	9,849.61	76.9325	9,849.61	71.6184	9,849.61	72.9659	9,849.61	69.4038	9,849.61	70.2502	9,849.61	66.3232	9,849.61	66.8918	9,849.61	64.9357	9,849.61	64.1065	9,849.61	61.837	9,849.61	61.5536	9,849.61	57.3129	9,849.61	61.117	9,849.61	56.9502	9,849.61	56.9245	9,849.61	52.9754	9,849.61	51.1536	9,849.61	59.1414	9,849.61	60.6472	9,849.61	57.5999	9,849.61	57.1086	9,849.61	47.8776
10,196.8	87.4877	10,196.8	86.5649	10,196.8	87.0414	10,196.8	85.4624	10,196.8	85.7936	10,196.8	83.0511	10,196.8	83.9753	10,196.8	80.9853	10,196.8	81.4771	10,196.8	79.0248	10,196.8	79.7213	10,196.8	77.0721	10,196.8	78.2689	10,196.8	74.8697	10,196.8	76.6428	10,196.8	70.6811	10,196.8	73.2943	10,196.8	69.1486	10,196.8	70.3361	10,196.8	65.7641	10,196.8	66.8751	10,196.8	63.7659	10,196.8	64.9243	10,196.8	60.2146	10,196.8	63.0344	10,196.8	54.9945	10,196.8	62.3864	10,196.8	54.9587	10,196.8	57.9346	10,196.8	54.1078	10,196.8	49.8022	10,196.8	59.1102	10,196.8	60.2949	10,196.8	57.2825	10,196.8	57.3582	10,196.8	46.4634
10,555.7	87.5065	10,555.7	86.5059	10,555.7	87.2123	10,555.7	85.1974	10,555.7	85.7236	10,555.7	82.733	10,555.7	83.9932	10,555.7	80.4662	10,555.7	81.4685	10,555.7	78.8278	10,555.7	80.0446	10,555.7	76.1306	10,555.7	78.5489	10,555.7	73.1401	10,555.7	76.2281	10,555.7	70.3071	10,555.7	73.1525	10,555.7	66.9007	10,555.7	69.6032	10,555.7	64.7601	10,555.7	67.575	10,555.7	62.7725	10,555.7	64.3959	10,555.7	59.1155	10,555.7	63.24	10,555.7	54.8624	10,555.7	63.1151	10,555.7	51.2458	10,555.7	58.0347	10,555.7	49.5692	10,555.7	53.3267	10,555.7	57.6792	10,555.7	58.3304	10,555.7	56.8434	10,555.7	57.3802	10,555.7	50.0446
10,927.7	87.7908	10,927.7	86.8698	10,927.7	87.4076	10,927.7	85.3622	10,927.7	85.912	10,927.7	82.9169	10,927.7	84.1897	10,927.7	80.8127	10,927.7	81.3533	10,927.7	78.5488	10,927.7	79.6137	10,927.7	76.6272	10,927.7	78.1036	10,927.7	74.7861	10,927.7	76.1254	10,927.7	70.1215	10,927.7	73.1306	10,927.7	67.6789	10,927.7	69.3412	10,927.7	65.2	10,927.7	65.9823	10,927.7	61.1364	10,927.7	62.7478	10,927.7	60.8605	10,927.7	62.1747	10,927.7	59.6072	10,927.7	60.9187	10,927.7	55.7054	10,927.7	55.7325	10,927.7	48.3935	10,927.7	50.7049	10,927.7	57.4919	10,927.7	59.4094	10,927.7	54.8816	10,927.7	56.7729	10,927.7	43.5664
11,313	87.8641	11,313	87.0856	11,313	87.3792	11,313	85.5903	11,313	85.5194	11,313	83.2282	11,313	83.4234	11,313	80.695	11,313	80.8069	11,313	79.0863	11,313	78.7941	11,313	77.154	11,313	77.5154	11,313	74.963	11,313	75.6974	11,313	70.558	11,313	73.2281	11,313	68.427	11,313	68.6819	11,313	65.1827	11,313	65.9781	11,313	62.6171	11,313	62.8145	11,313	60.7265	11,313	62.2322	11,313	60.4291	11,313	59.2256	11,313	55.6073	11,313	55.29	11,313	50.3665	11,313	46.4901	11,313	58.5117	11,313	56.1581	11,313	54.9847	11,313	56.4636	11,313	45.135
11,712.9	88.2434	11,712.9	87.3842	11,712.9	87.8466	11,712.9	85.5925	11,712.9	85.6655	11,712.9	82.8526	11,712.9	83.4022	11,712.9	80.2989	11,712.9	80.5681	11,712.9	78.3068	11,712.9	78.5751	11,712.9	75.9974	11,712.9	77.1186	11,712.9	73.1097	11,712.9	75.4918	11,712.9	70.3309	11,712.9	72.1714	11,712.9	66.0929	11,712.9	68.6404	11,712.9	63.9078	11,712.9	65.2939	11,712.9	61.6851	11,712.9	62.9283	11,712.9	59.82	11,712.9	61.706	11,712.9	57.1134	11,712.9	60.6208	11,712.9	54.9838	11,712.9	55.6395	11,712.9	45.0776	11,712.9	43.2581	11,712.9	57.9924	11,712.9	53.426	11,712.9	56.0492	11,712.9	56.2524	11,712.9	39.4987
12,126	88.4896	12,126	87.731	12,126	88.0847	12,126	85.3859	12,126	86.0336	12,126	82.7382	12,126	84.1169	12,126	79.6698	12,126	81.4827	12,126	77.8889	12,126	79.7799	12,126	75.655	12,126	78.2046	12,126	72.2218	12,126	76.0677	12,126	70.238	12,126	73.3945	12,126	66.0817	12,126	69.8518	12,126	63.2239	12,126	66.0573	12,126	61.038	12,126	64.4439	12,126	59.6458	12,126	63.4156	12,126	56.0809	12,126	60.9488	12,126	55.3252	12,126	55.4077	12,126	43.7968	12,126	48.7819	12,126	55.7094	12,126	52.2582	12,126	56.2462	12,126	55.7532	12,126	42.371
12,553.7	88.6528	12,553.7	87.6816	12,553.7	88.2218	12,553.7	85.2684	12,553.7	86.1191	12,553.7	82.4398	12,553.7	84.0671	12,553.7	78.9312	12,553.7	81.5496	12,553.7	77.3303	12,553.7	79.0581	12,553.7	74.8529	12,553.7	78.292	12,553.7	72.0733	12,553.7	76.0886	12,553.7	69.4191	12,553.7	73.401	12,553.7	65.6919	12,553.7	69.573	12,553.7	62.9511	12,553.7	65.4912	12,553.7	61.207	12,553.7	63.362	12,553.7	59.0155	12,553.7	62.4566	12,553.7	56.0377	12,553.7	58.1218	12,553.7	54.5897	12,553.7	53.6038	12,553.7	45.4865	12,553.7	47.9414	12,553.7	55.7959	12,553.7	52.4972	12,553.7	56.7291	12,553.7	53.695	12,553.7	39.0924
12,996.1	88.7619	12,996.1	87.4423	12,996.1	88.5253	12,996.1	85.0984	12,996.1	86.578	12,996.1	81.8454	12,996.1	84.6013	12,996.1	78.6688	12,996.1	82.1651	12,996.1	76.8766	12,996.1	79.275	12,996.1	75.2071	12,996.1	78.374	12,996.1	73.028	12,996.1	76.436	12,996.1	70.1041	12,996.1	73.6897	12,996.1	66.4569	12,996.1	70.397	12,996.1	63.3127	12,996.1	66.0953	12,996.1	61.0409	12,996.1	64.1147	12,996.1	59.5789	12,996.1	62.9899	12,996.1	57.4099	12,996.1	57.7313	12,996.1	55.2579	12,996.1	54.7635	12,996.1	48.3082	12,996.1	50.8838	12,996.1	54.4511	12,996.1	53.8839	12,996.1	58.2792	12,996.1	54.5661	12,996.1	39.0249
13,454.6	88.9246	13,454.6	87.8597	13,454.6	88.5685	13,454.6	85.8418	13,454.6	86.8448	13,454.6	83.241	13,454.6	84.6143	13,454.6	80.2074	13,454.6	81.7924	13,454.6	78.0652	13,454.6	78.6611	13,454.6	76.6445	13,454.6	77.4166	13,454.6	74.528	13,454.6	75.9105	13,454.6	70.9074	13,454.6	72.8223	13,454.6	67.6148	13,454.6	69.5959	13,454.6	63.3323	13,454.6	65.3036	13,454.6	62.457	13,454.6	63.2046	13,454.6	60.4049	13,454.6	61.3297	13,454.6	59.1304	13,454.6	56.6531	13,454.6	53.1815	13,454.6	53.9986	13,454.6	49.039	13,454.6	44.8927	13,454.6	54.4703	13,454.6	53.8997	13,454.6	56.0534	13,454.6	53.0861	13,454.6	36.5584
13,929.2	88.9206	13,929.2	87.9503	13,929.2	88.4822	13,929.2	86.0535	13,929.2	86.8219	13,929.2	83.2894	13,929.2	84.3256	13,929.2	79.9197	13,929.2	81.2227	13,929.2	77.2445	13,929.2	77.8374	13,929.2	75.5778	13,929.2	76.6656	13,929.2	73.0841	13,929.2	75.6547	13,929.2	69.6442	13,929.2	72.1368	13,929.2	66.2186	13,929.2	68.8589	13,929.2	62.6879	13,929.2	64.1808	13,929.2	61.0103	13,929.2	61.5567	13,929.2	58.5371	13,929.2	60.177	13,929.2	56.6402	13,929.2	52.888	13,929.2	52.4404	13,929.2	52.8035	13,929.2	46.8571	13,929.2	44.9096	13,929.2	50.3171	13,929.2	52.8002	13,929.2	57.0711	13,929.2	53.6762	13,929.2	43.0321
14,419.9	88.44	14,419.9	87.5377	14,419.9	88.1837	14,419.9	85.7136	14,419.9	86.6828	14,419.9	82.8712	14,419.9	84.2699	14,419.9	78.6934	14,419.9	80.8692	14,419.9	76.0467	14,419.9	77.1592	14,419.9	74.8416	14,419.9	76.611	14,419.9	73.146	14,419.9	75.4256	14,419.9	69.4748	14,419.9	71.9892	14,419.9	66.3826	14,419.9	68.2807	14,419.9	61.5876	14,419.9	63.1695	14,419.9	60.1698	14,419.9	61.0579	14,419.9	57.3378	14,419.9	59.7966	14,419.9	56.1899	14,419.9	53.5021	14,419.9	52.2288	14,419.9	52.8635	14,419.9	47.9858	14,419.9	49.5486	14,419.9	48.6728	14,419.9	52.8557	14,419.9	55.582	14,419.9	51.3669	14,419.9	44.54
14,928.2	87.9457	14,928.2	87.2691	14,928.2	87.6302	14,928.2	85.7563	14,928.2	86.319	14,928.2	82.818	14,928.2	83.6199	14,928.2	78.7355	14,928.2	80.0836	14,928.2	76.0357	14,928.2	76.4637	14,928.2	74.7397	14,928.2	75.6851	14,928.2	72.4667	14,928.2	73.8098	14,928.2	68.5603	14,928.2	69.9129	14,928.2	65.2428	14,928.2	66.0035	14,928.2	60.8686	14,928.2	60.7983	14,928.2	58.6909	14,928.2	58.7541	14,928.2	56.742	14,928.2	57.0475	14,928.2	53.0888	14,928.2	51.2713	14,928.2	51.2399	14,928.2	50.7387	14,928.2	46.3664	14,928.2	48.7246	14,928.2	44.3038	14,928.2	49.803	14,928.2	53.0445	14,928.2	48.2621	14,928.2	40.927
15,455.6	87.3583	15,455.6	86.6837	15,455.6	87.2931	15,455.6	85.1215	15,455.6	86.0246	15,455.6	81.6017	15,455.6	83.2691	15,455.6	77.2177	15,455.6	79.6795	15,455.6	73.8187	15,455.6	76.344	15,455.6	71.9184	15,455.6	74.6632	15,455.6	69.054	15,455.6	72.0682	15,455.6	64.2876	15,455.6	68.0034	15,455.6	60.4831	15,455.6	63.7734	15,455.6	56.0733	15,455.6	59.7275	15,455.6	53.7895	15,455.6	56.9677	15,455.6	51.2961	15,455.6	55.1214	15,455.6	47.6605	15,455.6	47.51	15,455.6	47.7939	15,455.6	48.9998	15,455.6	43.2583	15,455.6	46.0837	15,455.6	34.445	15,455.6	41.1707	15,455.6	49.9059	15,455.6	42.6651	15,455.6	36.9305
16,000.5	86.521	16,000.5	85.4154	16,000.5	86.6312	16,000.5	83.3137	16,000.5	85.3754	16,000.5	78.9871	16,000.5	82.4019	16,000.5	74.0856	16,000.5	78.6802	16,000.5	69.9576	16,000.5	75.212	16,000.5	66.03	16,000.5	72.6486	16,000.5	60.4367	16,000.5	69.5915	16,000.5	51.9313	16,000.5	66.0555	16,000.5	49.4151	16,000.5	61.1839	16,000.5	45.4132	16,000.5	57.0627	16,000.5	42.7769	16,000.5	54.8245	16,000.5	41.9153	16,000.5	52.2594	16,000.5	32.7829	16,000.5	41.2669	16,000.5	42.9749	16,000.5	47.1187	16,000.5	38.9942	16,000.5	44.372	16,000.5	32.6177	16,000.5	44.7904	16,000.5	44.9929	16,000.5	37.9146	16,000.5	27.3673
16,564.5	85.847	16,564.5	84.6782	16,564.5	85.934	16,564.5	82.2523	16,564.5	84.3562	16,564.5	77.6478	16,564.5	80.9417	16,564.5	72.3571	16,564.5	76.7531	16,564.5	67.1765	16,564.5	72.6258	16,564.5	61.1614	16,564.5	69.6205	16,564.5	54.0337	16,564.5	66.5632	16,564.5	51.5556	16,564.5	62.5429	16,564.5	50.7552	16,564.5	58.8685	16,564.5	47.762	16,564.5	55.8016	16,564.5	44.7885	16,564.5	52.6038	16,564.5	44.96	16,564.5	49.0543	16,564.5	29.4384	16,564.5	38.9523	16,564.5	30.2551	16,564.5	44.5251	16,564.5	29.7973	16,564.5	42.0567	16,564.5	36.3438	16,564.5	40.9864	16,564.5	43.9496	16,564.5	36.8529	16,564.5	10.5939
17,148.9	87.031	17,148.9	85.7051	17,148.9	86.9635	17,148.9	82.9076	17,148.9	85.0757	17,148.9	78.2935	17,148.9	81.8674	17,148.9	73.6792	17,148.9	78.4435	17,148.9	68.2347	17,148.9	74.3384	17,148.9	62.8422	17,148.9	71.0355	17,148.9	62.5441	17,148.9	68.5225	17,148.9	61.9345	17,148.9	65.8908	17,148.9	58.2639	17,148.9	61.2571	17,148.9	54.1001	17,148.9	57.4759	17,148.9	53.6301	17,148.9	54.2661	17,148.9	49.3219	17,148.9	49.5858	17,148.9	44.9796	17,148.9	45.7584	17,148.9	43.0498	17,148.9	44.6046	17,148.9	43.1401	17,148.9	46.6037	17,148.9	38.6629	17,148.9	40.9797	17,148.9	43.6379	17,148.9	39.5113	17,148.9	20.6529
17,752.4	86.8735	17,752.4	85.3557	17,752.4	86.4886	17,752.4	82.3548	17,752.4	84.4851	17,752.4	78.3904	17,752.4	81.5669	17,752.4	73.7742	17,752.4	78.231	17,752.4	66.8984	17,752.4	73.5766	17,752.4	63.7613	17,752.4	69.9565	17,752.4	63.6309	17,752.4	68.0105	17,752.4	62.1374	17,752.4	65.2008	17,752.4	57.2758	17,752.4	60.7195	17,752.4	54.6244	17,752.4	56.107	17,752.4	51.8046	17,752.4	53.3262	17,752.4	49.6416	17,752.4	46.4291	17,752.4	44.8522	17,752.4	49.6332	17,752.4	45.7436	17,752.4	36.7287	17,752.4	44.4704	17,752.4	44.439	17,752.4	35.0893	17,752.4	42.6504	17,752.4	43.6079	17,752.4	42.6213	17,752.4	27.8507
18,379.4	86.1712	18,379.4	84.7219	18,379.4	85.9641	18,379.4	81.8527	18,379.4	83.8478	18,379.4	77.6949	18,379.4	81.0334	18,379.4	70.8614	18,379.4	77.4249	18,379.4	60.7544	18,379.4	73.1486	18,379.4	60.1166	18,379.4	69.006	18,379.4	59.2113	18,379.4	65.9417	18,379.4	58.5922	18,379.4	60.7882	18,379.4	53.4951	18,379.4	56.3018	18,379.4	51.9409	18,379.4	51.0244	18,379.4	47.712	18,379.4	48.8524	18,379.4	40.9624	18,379.4	42.5717	18,379.4	35.8836	18,379.4	48.4386	18,379.4	40.755	18,379.4	37.3559	18,379.4	40.0317	18,379.4	41.9812	18,379.4	34.1337	18,379.4	35.9857	18,379.4	38.8417	18,379.4	43.9696	18,379.4	34.4558
19,026.9	85.6702	19,026.9	84.2661	19,026.9	85.2475	19,026.9	81.4861	19,026.9	82.7943	19,026.9	75.9101	19,026.9	79.1908	19,026.9	66.795	19,026.9	75.5279	19,026.9	60.1412	19,026.9	70.9868	19,026.9	61.7607	19,026.9	65.3599	19,026.9	62.125	19,026.9	59.3881	19,026.9	60.4756	19,026.9	52.2612	19,026.9	56.4992	19,026.9	45.6446	19,026.9	53.331	19,026.9	26.5554	19,026.9	48.6887	19,026.9	37.4184	19,026.9	43.9724	19,026.9	26.1287	19,026.9	36.3557	19,026.9	33.3337	19,026.9	40.1063	19,026.9	26.1786	19,026.9	40.3009	19,026.9	38.4981	19,026.9	33.4632	19,026.9	31.0002	19,026.9	37.834	19,026.9	40.1094	19,026.9	29.3818
19,697.8	84.9672	19,697.8	83.5167	19,697.8	84.4028	19,697.8	79.8622	19,697.8	81.6125	19,697.8	73.7178	19,697.8	77.7546	19,697.8	64.9508	19,697.8	72.8808	19,697.8	57.5551	19,697.8	67.2659	19,697.8	60.0239	19,697.8	60.0229	19,697.8	61.067	19,697.8	58.275	19,697.8	58.7088	19,697.8	56.4721	19,697.8	55.1172	19,697.8	52.5794	19,697.8	50.8629	19,697.8	49.2211	19,697.8	46.0927	19,697.8	43.995	19,697.8	40.6101	19,697.8	39.8976	19,697.8	38.6883	19,697.8	41.2451	19,697.8	34.7852	19,697.8	35.117	19,697.8	30.4838	19,697.8	30.3802	19,697.8	36.5798	19,697.8	32.8146	19,697.8	6.2854	19,697.8	33.6372	19,697.8	29.8962
19,999.5	84.879	19,999.5	83.082	19,999.5	84.1325	19,999.5	79.0953	19,999.5	81.0042	19,999.5	72.345	19,999.5	76.9574	19,999.5	63.4858	19,999.5	71.136	19,999.5	55.2895	19,999.5	64.8499	19,999.5	59.4127	19,999.5	58.1851	19,999.5	61.4995	19,999.5	60.6394	19,999.5	59.546	19,999.5	59.8802	19,999.5	55.505	19,999.5	56.6667	19,999.5	49.2113	19,999.5	51.7266	19,999.5	44.8139	19,999.5	47.0746	19,999.5	42.4736	19,999.5	46.2184	19,999.5	35.1328	19,999.5	44.8315	19,999.5	51.3685	19,999.5	47.1496	19,999.5	43.9684	19,999.5	50.1169	19,999.5	30.3587	19,999.5	52.4024	19,999.5	40.8872	19,999.5	47.6105	19,999.5	45.9735
