"SPL Vertical"
"On-Axis"		"10°"		"-10°"		"20°"		"-20°"		"30°"		"-30°"		"40°"		"-40°"		"50°"		"-50°"		"60°"		"-60°"		"70°"		"-70°"		"80°"		"-80°"		"90°"		"-90°"		"100°"		"-100°"		"110°"		"-110°"		"120°"		"-120°"		"130°"		"-130°"		"140°"		"-140°"		"150°"		"-150°"		"160°"		"-160°"		"170°"		"-170°"		"180°"
"Frequency / Hz"	"Sound Pressure Level / dB (re 20 µPa/V)  [2.83  V @ 1. m]"	"Frequency / Hz"	"Sound Pressure Level / dB (re 20 µPa/V)  [2.83  V @ 1. m]"	"Frequency / Hz"	"Sound Pressure Level / dB (re 20 µPa/V)  [2.83  V @ 1. m]"	"Frequency / Hz"	"Sound Pressure Level / dB (re 20 µPa/V)  [2.83  V @ 1. m]"	"Frequency / Hz"	"Sound Pressure Level / dB (re 20 µPa/V)  [2.83  V @ 1. m]"	"Frequency / Hz"	"Sound Pressure Level / dB (re 20 µPa/V)  [2.83  V @ 1. m]"	"Frequency / Hz"	"Sound Pressure Level / dB (re 20 µPa/V)  [2.83  V @ 1. m]"	"Frequency / Hz"	"Sound Pressure Level / dB (re 20 µPa/V)  [2.83  V @ 1. m]"	"Frequency / Hz"	"Sound Pressure Level / dB (re 20 µPa/V)  [2.83  V @ 1. m]"	"Frequency / Hz"	"Sound Pressure Level / dB (re 20 µPa/V)  [2.83  V @ 1. m]"	"Frequency / Hz"	"Sound Pressure Level / dB (re 20 µPa/V)  [2.83  V @ 1. m]"	"Frequency / Hz"	"Sound Pressure Level / dB (re 20 µPa/V)  [2.83  V @ 1. m]"	"Frequency / Hz"	"Sound Pressure Level / dB (re 20 µPa/V)  [2.83  V @ 1. m]"	"Frequency / Hz"	"Sound Pressure Level / dB (re 20 µPa/V)  [2.83  V @ 1. m]"	"Frequency / Hz"	"Sound Pressure Level / dB (re 20 µPa/V)  [2.83  V @ 1. m]"	"Frequency / Hz"	"Sound Pressure Level / dB (re 20 µPa/V)  [2.83  V @ 1. m]"	"Frequency / Hz"	"Sound Pressure Level / dB (re 20 µPa/V)  [2.83  V @ 1. m]"	"Frequency / Hz"	"Sound Pressure Level / dB (re 20 µPa/V)  [2.83  V @ 1. m]"	"Frequency / Hz"	"Sound Pressure Level / dB (re 20 µPa/V)  [2.83  V @ 1. m]"	"Frequency / Hz"	"Sound Pressure Level / dB (re 20 µPa/V)  [2.83  V @ 1. m]"	"Frequency / Hz"	"Sound Pressure Level / dB (re 20 µPa/V)  [2.83  V @ 1. m]"	"Frequency / Hz"	"Sound Pressure Level / dB (re 20 µPa/V)  [2.83  V @ 1. m]"	"Frequency / Hz"	"Sound Pressure Level / dB (re 20 µPa/V)  [2.83  V @ 1. m]"	"Frequency / Hz"	"Sound Pressure Level / dB (re 20 µPa/V)  [2.83  V @ 1. m]"	"Frequency / Hz"	"Sound Pressure Level / dB (re 20 µPa/V)  [2.83  V @ 1. m]"	"Frequency / Hz"	"Sound Pressure Level / dB (re 20 µPa/V)  [2.83  V @ 1. m]"	"Frequency / Hz"	"Sound Pressure Level / dB (re 20 µPa/V)  [2.83  V @ 1. m]"	"Frequency / Hz"	"Sound Pressure Level / dB (re 20 µPa/V)  [2.83  V @ 1. m]"	"Frequency / Hz"	"Sound Pressure Level / dB (re 20 µPa/V)  [2.83  V @ 1. m]"	"Frequency / Hz"	"Sound Pressure Level / dB (re 20 µPa/V)  [2.83  V @ 1. m]"	"Frequency / Hz"	"Sound Pressure Level / dB (re 20 µPa/V)  [2.83  V @ 1. m]"	"Frequency / Hz"	"Sound Pressure Level / dB (re 20 µPa/V)  [2.83  V @ 1. m]"	"Frequency / Hz"	"Sound Pressure Level / dB (re 20 µPa/V)  [2.83  V @ 1. m]"	"Frequency / Hz"	"Sound Pressure Level / dB (re 20 µPa/V)  [2.83  V @ 1. m]"	"Frequency / Hz"	"Sound Pressure Level / dB (re 20 µPa/V)  [2.83  V @ 1. m]"	"Frequency / Hz"	"Sound Pressure Level / dB (re 20 µPa/V)  [2.83  V @ 1. m]"
20.5078	54.0797	20.5078	53.7646	20.5078	54.3096	20.5078	53.3713	20.5078	54.4459	20.5078	52.9054	20.5078	54.479	20.5078	52.3711	20.5078	54.3985	20.5078	51.7717	20.5078	54.1941	20.5078	51.1103	20.5078	53.8561	20.5078	50.3906	20.5078	53.3767	20.5078	49.6186	20.5078	52.7507	20.5078	48.8036	20.5078	51.9779	20.5078	47.9608	20.5078	51.0654	20.5078	47.1127	20.5078	50.0315	20.5078	46.2906	20.5078	48.9094	20.5078	45.533	20.5078	47.7521	20.5078	44.8815	20.5078	46.632	20.5078	44.3737	20.5078	45.6329	20.5078	44.0381	20.5078	44.8311	20.5078	43.8957	20.5078	44.2727	20.5078	43.9664
21.9727	54.7545	21.9727	54.4979	21.9727	54.9253	21.9727	54.159	21.9727	55.0046	21.9727	53.7394	21.9727	54.9847	21.9727	53.2391	21.9727	54.8556	21.9727	52.6568	21.9727	54.606	21.9727	51.9903	21.9727	54.2235	21.9727	51.2367	21.9727	53.6961	21.9727	50.3931	21.9727	53.013	21.9727	49.4577	21.9727	52.166	21.9727	48.4313	21.9727	51.152	21.9727	47.3203	21.9727	49.9749	21.9727	46.1413	21.9727	48.6504	21.9727	44.9285	21.9727	47.2114	21.9727	43.7419	21.9727	45.7162	21.9727	42.6749	21.9727	44.2572	21.9727	41.852	21.9727	42.9624	21.9727	41.4067	21.9727	41.9803	21.9727	41.4405
23.4375	56.4161	23.4375	56.1262	23.4375	56.6166	23.4375	55.7526	23.4375	56.7202	23.4375	55.2995	23.4375	56.7184	23.4375	54.7698	23.4375	56.6016	23.4375	54.1654	23.4375	56.3595	23.4375	53.4876	23.4375	55.9819	23.4375	52.7375	23.4375	55.4595	23.4375	51.9179	23.4375	54.785	23.4375	51.0337	23.4375	53.9549	23.4375	50.095	23.4375	52.9717	23.4375	49.1198	23.4375	51.8477	23.4375	48.1366	23.4375	50.6103	23.4375	47.1875	23.4375	49.308	23.4375	46.3265	23.4375	48.0164	23.4375	45.6135	23.4375	46.8357	23.4375	45.1038	23.4375	45.872	23.4375	44.8425	23.4375	45.2054	23.4375	44.8662
24.9023	57.469	24.9023	57.1965	24.9023	57.6499	24.9023	56.8375	24.9023	57.7326	24.9023	56.3953	24.9023	57.7093	24.9023	55.8718	24.9023	57.5707	24.9023	55.2671	24.9023	57.3065	24.9023	54.5803	24.9023	56.9063	24.9023	53.8091	24.9023	56.3592	24.9023	52.9512	24.9023	55.6558	24.9023	52.0045	24.9023	54.7889	24.9023	50.9693	24.9023	53.7556	24.9023	49.8514	24.9023	52.5603	24.9023	48.6665	24.9023	51.2189	24.9023	47.4481	24.9023	49.7653	24.9023	46.2572	24.9023	48.2601	24.9023	45.1894	24.9023	46.7975	24.9023	44.3724	24.9023	45.5053	24.9023	43.939	24.9023	44.5267	24.9023	43.9838
26.3672	57.1446	26.3672	56.8348	26.3672	57.3575	26.3672	56.4322	26.3672	57.4669	26.3672	55.9389	26.3672	57.4642	26.3672	55.3548	26.3672	57.3387	26.3672	54.678	26.3672	57.0781	26.3672	53.9047	26.3672	56.6688	26.3672	53.0297	26.3672	56.0971	26.3672	52.0468	26.3672	55.3495	26.3672	50.9494	26.3672	54.4141	26.3672	49.7321	26.3672	53.2817	26.3672	48.3934	26.3672	51.9482	26.3672	46.9418	26.3672	50.4178	26.3672	45.4058	26.3672	48.7101	26.3672	43.8513	26.3672	46.8699	26.3672	42.4054	26.3672	44.9849	26.3672	41.2707	26.3672	43.2041	26.3672	40.6919	26.3672	41.7439	26.3672	40.8488
27.832	58.3794	27.832	58.0699	27.832	58.5799	27.832	57.6548	27.832	58.6654	27.832	57.1352	27.832	58.6274	27.832	56.5097	27.832	58.4554	27.832	55.7741	27.832	58.1366	27.832	54.9217	27.832	57.6563	27.832	53.9425	27.832	56.9983	27.832	52.8234	27.832	56.1451	27.832	51.5484	27.832	55.0785	27.832	50.099	27.832	53.7804	27.832	48.4574	27.832	52.2346	27.832	46.6152	27.832	50.4318	27.832	44.5945	27.832	48.3793	27.832	42.4959	27.832	46.1255	27.832	40.5698	27.832	43.8	27.832	39.2078	27.832	41.6508	27.832	38.6876	27.832	39.9829	27.832	38.9789
29.2969	58.4433	29.2969	58.114	29.2969	58.6565	29.2969	57.6721	29.2969	58.7474	29.2969	57.1188	29.2969	58.7073	29.2969	56.4532	29.2969	58.5254	29.2969	55.6724	29.2969	58.1887	29.2969	54.7733	29.2969	57.6831	29.2969	53.754	29.2969	56.9946	29.2969	52.6187	29.2969	56.1118	29.2969	51.3869	29.2969	55.0313	29.2969	50.1095	29.2969	53.767	29.2969	48.8919	29.2969	52.3698	29.2969	47.9025	29.2969	50.954	29.2969	47.3159	29.2969	49.7114	29.2969	47.1863	29.2969	48.8465	29.2969	47.3904	29.2969	48.4255	29.2969	47.7273	29.2969	48.3135	29.2969	48.0353	29.2969	48.2999	29.2969	48.2295
30.7617	59.934	30.7617	59.6126	30.7617	60.1477	30.7617	59.1884	30.7617	60.2472	30.7617	58.6649	30.7617	60.2247	30.7617	58.0447	30.7617	60.0713	30.7617	57.3301	30.7617	59.7776	30.7617	56.5252	30.7617	59.3347	30.7617	55.6376	30.7617	58.736	30.7617	54.6836	30.7617	57.9798	30.7617	53.6945	30.7617	57.0741	30.7617	52.7241	30.7617	56.0443	30.7617	51.8531	30.7617	54.9431	30.7617	51.1763	30.7617	53.8589	30.7617	50.7664	30.7617	52.9076	30.7617	50.6298	30.7617	52.1922	30.7617	50.7	30.7617	51.7435	30.7617	50.8765	30.7617	51.5017	30.7617	51.0713	30.7617	51.3622	30.7617	51.2342
32.2266	59.6409	32.2266	59.3579	32.2266	59.8211	32.2266	58.9799	32.2266	59.8912	32.2266	58.5165	32.2266	59.8444	32.2266	57.9801	32.2266	59.6745	32.2266	57.3889	32.2266	59.3783	32.2266	56.77	32.2266	58.9579	32.2266	56.1626	32.2266	58.4264	32.2266	55.619	32.2266	57.8149	32.2266	55.1989	32.2266	57.1801	32.2266	54.9543	32.2266	56.6059	32.2266	54.9087	32.2266	56.1853	32.2266	55.0452	32.2266	55.9809	32.2266	55.3127	32.2266	55.9878	32.2266	55.6458	32.2266	56.1376	32.2266	55.983	32.2266	56.3385	32.2266	56.2756	32.2266	56.5124	32.2266	56.4894	32.2266	56.6091	32.2266	56.6033
33.6914	61.5544	33.6914	61.3286	33.6914	61.7082	33.6914	61.0408	33.6914	61.7819	33.6914	60.704	33.6914	61.7699	33.6914	60.3341	33.6914	61.6698	33.6914	59.9517	33.6914	61.4841	33.6914	59.5816	33.6914	61.2228	33.6914	59.2526	33.6914	60.9061	33.6914	58.9941	33.6914	60.5666	33.6914	58.8312	33.6914	60.248	33.6914	58.7782	33.6914	59.9973	33.6914	58.8341	33.6914	59.85	33.6914	58.9822	33.6914	59.8156	33.6914	59.195	33.6914	59.8738	33.6914	59.4397	33.6914	59.9838	33.6914	59.6846	33.6914	60.1006	33.6914	59.9026	33.6914	60.1865	33.6914	60.0723	33.6914	60.2169	33.6914	60.1794
35.1562	64.1942	35.1562	64.0096	35.1562	64.3294	35.1562	63.7853	35.1562	64.4081	35.1562	63.5337	35.1562	64.4261	35.1562	63.2697	35.1562	64.383	35.1562	63.0107	35.1562	64.2836	35.1562	62.7755	35.1562	64.1386	35.1562	62.5835	35.1562	63.9655	35.1562	62.4516	35.1562	63.7883	35.1562	62.3915	35.1562	63.6342	35.1562	62.4077	35.1562	63.5272	35.1562	62.4953	35.1562	63.4813	35.1562	62.6418	35.1562	63.495	35.1562	62.8287	35.1562	63.5526	35.1562	63.0352	35.1562	63.6291	35.1562	63.2405	35.1562	63.6986	35.1562	63.4259	35.1562	63.7391	35.1562	63.5767	35.1562	63.7359	35.1562	63.6819
36.6211	66.1557	36.6211	66.0191	36.6211	66.2658	36.6211	65.8647	36.6211	66.3437	36.6211	65.7028	36.6211	66.3862	36.6211	65.5452	36.6211	66.394	36.6211	65.4047	36.6211	66.3718	36.6211	65.2937	36.6211	66.3289	36.6211	65.2231	36.6211	66.2784	36.6211	65.2012	36.6211	66.2361	36.6211	65.2318	36.6211	66.2166	36.6211	65.3138	36.6211	66.2302	36.6211	65.4414	36.6211	66.279	36.6211	65.6044	36.6211	66.3559	36.6211	65.7898	36.6211	66.447	36.6211	65.9834	36.6211	66.5347	36.6211	66.1707	36.6211	66.6022	36.6211	66.3387	36.6211	66.6362	36.6211	66.4761	36.6211	66.628	36.6211	66.5742
38.0859	68.802	38.0859	68.6844	38.0859	68.9055	38.0859	68.5589	38.0859	68.9903	38.0859	68.4328	38.0859	69.0539	38.0859	68.3143	38.0859	69.096	38.0859	68.212	38.0859	69.1192	38.0859	68.1339	38.0859	69.1285	38.0859	68.0872	38.0859	69.1314	38.0859	68.0769	38.0859	69.1359	38.0859	68.1057	38.0859	69.1496	38.0859	68.1731	38.0859	69.1769	38.0859	68.2754	38.0859	69.2179	38.0859	68.4064	38.0859	69.2679	38.0859	68.5573	38.0859	69.3184	38.0859	68.7181	38.0859	69.3591	38.0859	68.8785	38.0859	69.3801	38.0859	69.0284	38.0859	69.3736	38.0859	69.1588	38.0859	69.3348	38.0859	69.2626
39.5508	70.641	39.5508	70.537	39.5508	70.7362	39.5508	70.4292	39.5508	70.819	39.5508	70.3232	39.5508	70.8871	39.5508	70.2252	39.5508	70.9401	39.5508	70.1419	39.5508	70.9794	39.5508	70.0791	39.5508	71.0083	39.5508	70.0423	39.5508	71.0315	39.5508	70.0355	39.5508	71.0541	39.5508	70.0607	39.5508	71.0804	39.5508	70.1177	39.5508	71.1125	39.5508	70.2043	39.5508	71.1498	39.5508	70.3156	39.5508	71.1881	39.5508	70.4453	39.5508	71.2212	39.5508	70.5856	39.5508	71.2417	39.5508	70.7283	39.5508	71.2428	39.5508	70.8649	39.5508	71.2193	39.5508	70.9878	39.5508	71.1686	39.5508	71.0906
41.0156	73.3377	41.0156	73.2408	41.0156	73.4353	41.0156	73.1493	41.0156	73.5296	41.0156	73.068	41.0156	73.6177	41.0156	73.0017	41.0156	73.6976	41.0156	72.9547	41.0156	73.7688	41.0156	72.9304	41.0156	73.8319	41.0156	72.9312	41.0156	73.8883	41.0156	72.9579	41.0156	73.9398	41.0156	73.0101	41.0156	73.988	41.0156	73.0858	41.0156	74.0333	41.0156	73.1819	41.0156	74.0749	41.0156	73.294	41.0156	74.1103	41.0156	73.417	41.0156	74.1359	41.0156	73.545	41.0156	74.1475	41.0156	73.6723	41.0156	74.1413	41.0156	73.7929	41.0156	74.1141	41.0156	73.9013	41.0156	74.0647	41.0156	73.9931
42.4805	74.891	42.4805	74.8061	42.4805	74.9746	42.4805	74.7233	42.4805	75.0539	42.4805	74.6463	42.4805	75.1266	42.4805	74.5791	42.4805	75.1914	42.4805	74.5251	42.4805	75.2478	42.4805	74.4875	42.4805	75.2961	42.4805	74.4687	42.4805	75.3375	42.4805	74.4703	42.4805	75.3732	42.4805	74.4929	42.4805	75.4041	42.4805	74.5362	42.4805	75.4305	42.4805	74.5986	42.4805	75.4516	42.4805	74.6775	42.4805	75.4656	42.4805	74.7694	42.4805	75.4697	42.4805	74.87	42.4805	75.4611	42.4805	74.9747	42.4805	75.4372	42.4805	75.0785	42.4805	75.3964	42.4805	75.1764	42.4805	75.3384	42.4805	75.2642
43.9453	76.3933	43.9453	76.3139	43.9453	76.4739	43.9453	76.2386	43.9453	76.5533	43.9453	76.1702	43.9453	76.6292	43.9453	76.1114	43.9453	76.6998	43.9453	76.0649	43.9453	76.7639	43.9453	76.0328	43.9453	76.8207	43.9453	76.017	43.9453	76.8699	43.9453	76.0186	43.9453	76.9116	43.9453	76.0383	43.9453	76.9455	43.9453	76.0759	43.9453	76.9715	43.9453	76.1302	43.9453	76.9886	43.9453	76.1995	43.9453	76.9954	43.9453	76.2812	43.9453	76.9903	43.9453	76.3721	43.9453	76.9716	43.9453	76.4683	43.9453	76.9379	43.9453	76.5657	43.9453	76.8888	43.9453	76.6602	43.9453	76.8249	43.9453	76.7478
45.4102	77.6656	45.4102	77.5863	45.4102	77.7468	45.4102	77.5115	45.4102	77.8276	45.4102	77.4435	45.4102	77.9057	45.4102	77.3846	45.4102	77.979	45.4102	77.3371	45.4102	78.0459	45.4102	77.3028	45.4102	78.105	45.4102	77.2833	45.4102	78.1553	45.4102	77.2796	45.4102	78.1959	45.4102	77.2925	45.4102	78.2263	45.4102	77.3219	45.4102	78.2459	45.4102	77.3671	45.4102	78.2539	45.4102	77.4268	45.4102	78.2495	45.4102	77.499	45.4102	78.2319	45.4102	77.5812	45.4102	78.2004	45.4102	77.6702	45.4102	78.1548	45.4102	77.7627	45.4102	78.0958	45.4102	77.8549	45.4102	78.0246	45.4102	77.9433
46.875	78.7564	46.875	78.6776	46.875	78.8373	46.875	78.6033	46.875	78.9181	46.875	78.5357	46.875	78.9965	46.875	78.477	46.875	79.0703	46.875	78.429	46.875	79.1377	46.875	78.3935	46.875	79.1969	46.875	78.3721	46.875	79.2465	46.875	78.3657	46.875	79.2856	46.875	78.3751	46.875	79.3133	46.875	78.4002	46.875	79.329	46.875	78.4407	46.875	79.332	46.875	78.4955	46.875	79.3219	46.875	78.5627	46.875	79.2982	46.875	78.6402	46.875	79.261	46.875	78.7252	46.875	79.2105	46.875	78.8144	46.875	79.1478	46.875	78.9046	46.875	79.0743	46.875	78.9923
48.3398	79.5095	48.3398	79.4281	48.3398	79.5926	48.3398	79.351	48.3398	79.6751	48.3398	79.2803	48.3398	79.7547	48.3398	79.2183	48.3398	79.8291	48.3398	79.1671	48.3398	79.8965	48.3398	79.1283	48.3398	79.9549	48.3398	79.1034	48.3398	80.003	48.3398	79.0935	48.3398	80.0395	48.3398	79.0992	48.3398	80.0637	48.3398	79.1206	48.3398	80.0747	48.3398	79.1573	48.3398	80.0722	48.3398	79.2083	48.3398	80.0559	48.3398	79.2721	48.3398	80.0257	48.3398	79.3467	48.3398	79.9821	48.3398	79.4294	48.3398	79.9258	48.3398	79.5174	48.3398	79.858	48.3398	79.6074	48.3398	79.7807	48.3398	79.6962
51.2695	80.4206	51.2695	80.3388	51.2695	80.5039	51.2695	80.2608	51.2695	80.5862	51.2695	80.1889	51.2695	80.6651	51.2695	80.1251	51.2695	80.7383	51.2695	80.0713	51.2695	80.8036	51.2695	80.0289	51.2695	80.859	51.2695	79.9992	51.2695	80.9027	51.2695	79.983	51.2695	80.9333	51.2695	79.9807	51.2695	80.9496	51.2695	79.9927	51.2695	80.9508	51.2695	80.0186	51.2695	80.9368	51.2695	80.058	51.2695	80.9077	51.2695	80.1099	51.2695	80.8645	51.2695	80.173	51.2695	80.8083	51.2695	80.2455	51.2695	80.7411	51.2695	80.3252	51.2695	80.665	51.2695	80.4098	51.2695	80.5826	51.2695	80.4966
52.7344	80.7604	52.7344	80.6812	52.7344	80.8406	52.7344	80.6052	52.7344	80.9197	52.7344	80.5343	52.7344	80.9955	52.7344	80.4704	52.7344	81.0656	52.7344	80.4152	52.7344	81.1279	52.7344	80.3702	52.7344	81.1802	52.7344	80.3365	52.7344	81.2204	52.7344	80.3152	52.7344	81.247	52.7344	80.3069	52.7344	81.2587	52.7344	80.3122	52.7344	81.2547	52.7344	80.331	52.7344	81.2351	52.7344	80.3632	52.7344	81.2003	52.7344	80.408	52.7344	81.1516	52.7344	80.4645	52.7344	81.0907	52.7344	80.5312	52.7344	81.0196	52.7344	80.6062	52.7344	80.941	52.7344	80.6873	52.7344	80.8575	52.7344	80.772
54.1992	80.9125	54.1992	80.8316	54.1992	80.9957	54.1992	80.755	54.1992	81.0787	54.1992	80.6846	54.1992	81.1592	54.1992	80.622	54.1992	81.2346	54.1992	80.5686	54.1992	81.3021	54.1992	80.5258	54.1992	81.3592	54.1992	80.4945	54.1992	81.4033	54.1992	80.4756	54.1992	81.4327	54.1992	80.4696	54.1992	81.4459	54.1992	80.477	54.1992	81.4424	54.1992	80.4977	54.1992	81.4221	54.1992	80.5314	54.1992	81.386	54.1992	80.5776	54.1992	81.3355	54.1992	80.6353	54.1992	81.2726	54.1992	80.7031	54.1992	81.1997	54.1992	80.7792	54.1992	81.1193	54.1992	80.8615	54.1992	81.0343	54.1992	80.9474
55.6641	81.1347	55.6641	81.0435	55.6641	81.2252	55.6641	80.9542	55.6641	81.3122	55.6641	80.8691	55.6641	81.3929	55.6641	80.7902	55.6641	81.4642	55.6641	80.7194	55.6641	81.5235	55.6641	80.6581	55.6641	81.568	55.6641	80.6078	55.6641	81.5958	55.6641	80.5696	55.6641	81.6054	55.6641	80.5443	55.6641	81.5962	55.6641	80.5327	55.6641	81.5684	55.6641	80.5352	55.6641	81.523	55.6641	80.5522	55.6641	81.4619	55.6641	80.5835	55.6641	81.3875	55.6641	80.6287	55.6641	81.3029	55.6641	80.6869	55.6641	81.2111	55.6641	80.7571	55.6641	81.1154	55.6641	80.8373	55.6641	81.0192	55.6641	80.9256
58.5938	81.3173	58.5938	81.2303	58.5938	81.4039	58.5938	81.145	58.5938	81.4877	58.5938	81.0632	58.5938	81.5663	58.5938	80.9869	58.5938	81.6368	58.5938	80.9175	58.5938	81.6967	58.5938	80.8565	58.5938	81.7431	58.5938	80.8054	58.5938	81.7738	58.5938	80.7653	58.5938	81.7867	58.5938	80.7372	58.5938	81.7807	58.5938	80.7221	58.5938	81.7556	58.5938	80.7208	58.5938	81.712	58.5938	80.7339	58.5938	81.6515	58.5938	80.7617	58.5938	81.5765	58.5938	80.8042	58.5938	81.4901	58.5938	80.8607	58.5938	81.3956	58.5938	80.9303	58.5938	81.2969	58.5938	81.0113	58.5938	81.1976	58.5938	81.1013
60.0586	81.5023	60.0586	81.4116	60.0586	81.5927	60.0586	81.3229	60.0586	81.6799	60.0586	81.2383	60.0586	81.761	60.0586	81.1595	60.0586	81.833	60.0586	81.088	60.0586	81.8927	60.0586	81.0249	60.0586	81.9372	60.0586	80.9714	60.0586	81.9641	60.0586	80.9283	60.0586	81.9715	60.0586	80.8966	60.0586	81.9584	60.0586	80.877	60.0586	81.9247	60.0586	80.8704	60.0586	81.8715	60.0586	80.8774	60.0586	81.8009	60.0586	80.8985	60.0586	81.7159	60.0586	80.9342	60.0586	81.6201	60.0586	80.9843	60.0586	81.5177	60.0586	81.0484	60.0586	81.4132	60.0586	81.1254	60.0586	81.3105	60.0586	81.2136
62.9883	81.8845	62.9883	81.7945	62.9883	81.9723	62.9883	81.705	62.9883	82.0553	62.9883	81.6179	62.9883	82.1307	62.9883	81.5355	62.9883	82.1958	62.9883	81.4595	62.9883	82.2478	62.9883	81.3915	62.9883	82.2845	62.9883	81.3328	62.9883	82.3037	62.9883	81.2848	62.9883	82.3042	62.9883	81.2486	62.9883	82.2854	62.9883	81.225	62.9883	82.2474	62.9883	81.2149	62.9883	82.1915	62.9883	81.2189	62.9883	82.1194	62.9883	81.2375	62.9883	82.0342	62.9883	81.2707	62.9883	81.9392	62.9883	81.3185	62.9883	81.8383	62.9883	81.3802	62.9883	81.7357	62.9883	81.4548	62.9883	81.6353	62.9883	81.5406
64.4531	82.0068	64.4531	81.9141	64.4531	82.0969	64.4531	81.8212	64.4531	82.1815	64.4531	81.7304	64.4531	82.2579	64.4531	81.6441	64.4531	82.3234	64.4531	81.564	64.4531	82.3753	64.4531	81.4919	64.4531	82.4112	64.4531	81.4293	64.4531	82.4291	64.4531	81.3776	64.4531	82.4276	64.4531	81.3379	64.4531	82.406	64.4531	81.3111	64.4531	82.3646	64.4531	81.2982	64.4531	82.3045	64.4531	81.2997	64.4531	82.2277	64.4531	81.3163	64.4531	82.1373	64.4531	81.3482	64.4531	82.037	64.4531	81.3953	64.4531	81.9309	64.4531	81.4572	64.4531	81.8234	64.4531	81.533	64.4531	81.7189	64.4531	81.621
67.3828	82.2779	67.3828	82.1831	67.3828	82.3709	67.3828	82.0891	67.3828	82.4592	67.3828	81.9982	67.3828	82.5401	67.3828	81.9127	67.3828	82.6105	67.3828	81.8342	67.3828	82.6678	67.3828	81.7646	67.3828	82.7093	67.3828	81.7053	67.3828	82.7331	67.3828	81.6576	67.3828	82.7377	67.3828	81.6225	67.3828	82.7223	67.3828	81.6009	67.3828	82.6869	67.3828	81.5936	67.3828	82.6324	67.3828	81.6011	67.3828	82.5606	67.3828	81.6239	67.3828	82.4741	67.3828	81.6619	67.3828	82.3763	67.3828	81.7151	67.3828	82.2713	67.3828	81.7827	67.3828	82.1634	67.3828	81.8636	67.3828	82.0569	67.3828	81.9559
68.8477	82.3908	68.8477	82.2965	68.8477	82.4835	68.8477	82.203	68.8477	82.5716	68.8477	82.1129	68.8477	82.6525	68.8477	82.0283	68.8477	82.7233	68.8477	81.9512	68.8477	82.7813	68.8477	81.8833	68.8477	82.8244	68.8477	81.8262	68.8477	82.8505	68.8477	81.7812	68.8477	82.8584	68.8477	81.7492	68.8477	82.8471	68.8477	81.7312	68.8477	82.8166	68.8477	81.7278	68.8477	82.7675	68.8477	81.7395	68.8477	82.7012	68.8477	81.7665	68.8477	82.6201	68.8477	81.8087	68.8477	82.5271	68.8477	81.8658	68.8477	82.4259	68.8477	81.9368	68.8477	82.3206	68.8477	82.0203	68.8477	82.2154	68.8477	82.1141
71.7773	82.7086	71.7773	82.6127	71.7773	82.8012	71.7773	82.5162	71.7773	82.8876	71.7773	82.4219	71.7773	82.9649	71.7773	82.3322	71.7773	83.0303	71.7773	82.2491	71.7773	83.0815	71.7773	82.1747	71.7773	83.1164	71.7773	82.1105	71.7773	83.1333	71.7773	82.058	71.7773	83.1313	71.7773	82.0184	71.7773	83.1101	71.7773	81.9928	71.7773	83.0701	71.7773	81.9819	71.7773	83.0123	71.7773	81.9865	71.7773	82.9386	71.7773	82.0069	71.7773	82.8514	71.7773	82.0434	71.7773	82.7538	71.7773	82.0956	71.7773	82.6494	71.7773	82.1627	71.7773	82.5422	71.7773	82.2434	71.7773	82.4363	71.7773	82.3356
74.707	83.0995	74.707	83.006	74.707	83.1894	74.707	82.9118	74.707	83.2726	74.707	82.8197	74.707	83.3461	74.707	82.7323	74.707	83.4071	74.707	82.6518	74.707	83.4533	74.707	82.5799	74.707	83.4829	74.707	82.5183	74.707	83.4945	74.707	82.4682	74.707	83.4876	74.707	82.4303	74.707	83.4621	74.707	82.4056	74.707	83.4188	74.707	82.3946	74.707	83.3591	74.707	82.3977	74.707	83.2849	74.707	82.4152	74.707	83.1989	74.707	82.4474	74.707	83.1043	74.707	82.4939	74.707	83.0046	74.707	82.5544	74.707	82.9035	74.707	82.6275	74.707	82.8048	74.707	82.7118
77.6367	83.3913	77.6367	83.2964	77.6367	83.4817	77.6367	83.2001	77.6367	83.5646	77.6367	83.1054	77.6367	83.637	77.6367	83.0148	77.6367	83.696	77.6367	82.9307	77.6367	83.7393	77.6367	82.8551	77.6367	83.7651	77.6367	82.7897	77.6367	83.7721	77.6367	82.7359	77.6367	83.7598	77.6367	82.6947	77.6367	83.7284	77.6367	82.6669	77.6367	83.679	77.6367	82.6532	77.6367	83.6132	77.6367	82.6538	77.6367	83.5336	77.6367	82.6691	77.6367	83.4431	77.6367	82.6989	77.6367	83.3452	77.6367	82.7431	77.6367	83.2437	77.6367	82.8009	77.6367	83.1423	77.6367	82.8715	77.6367	83.0445	77.6367	82.9533
79.1016	83.5471	79.1016	83.4485	79.1016	83.6405	79.1016	83.3479	79.1016	83.7255	79.1016	83.2483	79.1016	83.799	79.1016	83.1525	79.1016	83.8581	79.1016	83.0628	79.1016	83.9003	79.1016	82.9817	79.1016	83.924	79.1016	82.9107	79.1016	83.9278	79.1016	82.8516	79.1016	83.9114	79.1016	82.8055	79.1016	83.8752	79.1016	82.7734	79.1016	83.8204	79.1016	82.7559	79.1016	83.7488	79.1016	82.7535	79.1016	83.663	79.1016	82.7665	79.1016	83.5663	79.1016	82.7948	79.1016	83.4623	79.1016	82.8383	79.1016	83.3551	79.1016	82.8964	79.1016	83.2487	79.1016	82.9682	79.1016	83.1466	79.1016	83.0522
82.0312	83.8486	82.0312	83.7432	82.0312	83.9481	82.0312	83.6354	82.0312	84.0382	82.0312	83.5286	82.0312	84.1154	82.0312	83.4258	82.0312	84.1768	82.0312	83.3297	82.0312	84.22	82.0312	83.2426	82.0312	84.2433	82.0312	83.1665	82.0312	84.2458	82.0312	83.103	82.0312	84.2274	82.0312	83.0534	82.0312	84.1886	82.0312	83.0186	82.0312	84.1306	82.0312	82.9995	82.0312	84.0551	82.0312	82.9965	82.0312	83.9647	82.0312	83.0099	82.0312	83.8625	82.0312	83.0399	82.0312	83.7522	82.0312	83.086	82.0312	83.6381	82.0312	83.1479	82.0312	83.5245	82.0312	83.2246	82.0312	83.4154	82.0312	83.3145
84.9609	84.128	84.9609	84.0329	84.9609	84.2161	84.9609	83.934	84.9609	84.2943	84.9609	83.8344	84.9609	84.3603	84.9609	83.7373	84.9609	84.412	84.9609	83.6457	84.9609	84.4482	84.9609	83.5622	84.9609	84.468	84.9609	83.4892	84.9609	84.4711	84.9609	83.4285	84.9609	84.4572	84.9609	83.3817	84.9609	84.4267	84.9609	83.3499	84.9609	84.3801	84.9609	83.334	84.9609	84.3183	84.9609	83.3344	84.9609	84.2428	84.9609	83.3512	84.9609	84.1558	84.9609	83.3841	84.9609	84.0599	84.9609	83.4325	84.9609	83.9585	84.9609	83.4954	84.9609	83.8553	84.9609	83.5714	84.9609	83.7541	84.9609	83.6584
87.8906	84.1678	87.8906	84.0709	87.8906	84.2615	87.8906	83.9737	87.8906	84.3493	87.8906	83.8792	87.8906	84.4286	87.8906	83.7903	87.8906	84.4971	87.8906	83.7099	87.8906	84.553	87.8906	83.6408	87.8906	84.5945	87.8906	83.5851	87.8906	84.6207	87.8906	83.5449	87.8906	84.6311	87.8906	83.5214	87.8906	84.6255	87.8906	83.5154	87.8906	84.6044	87.8906	83.5274	87.8906	84.5685	87.8906	83.5568	87.8906	84.5187	87.8906	83.6029	87.8906	84.4562	87.8906	83.6641	87.8906	84.3823	87.8906	83.7384	87.8906	84.2986	87.8906	83.8232	87.8906	84.2074	87.8906	83.9158	87.8906	84.1111	87.8906	84.0129
90.8203	85.144	90.8203	85.041	90.8203	85.2311	90.8203	84.9253	90.8203	85.2992	90.8203	84.8001	90.8203	85.3455	90.8203	84.6686	90.8203	85.3678	90.8203	84.5341	90.8203	85.3645	90.8203	84.3998	90.8203	85.335	90.8203	84.2692	90.8203	85.2799	90.8203	84.1456	90.8203	85.2005	90.8203	84.0325	90.8203	85.0996	90.8203	83.9335	90.8203	84.9805	90.8203	83.8517	90.8203	84.8474	90.8203	83.7902	90.8203	84.7048	90.8203	83.7511	90.8203	84.5577	90.8203	83.7363	90.8203	84.4111	90.8203	83.7463	90.8203	84.2699	90.8203	83.7811	90.8203	84.1385	90.8203	83.8397	90.8203	84.0209	90.8203	83.9204
95.2148	84.9884	95.2148	84.8817	95.2148	85.0883	95.2148	84.7719	95.2148	85.1779	95.2148	84.663	95.2148	85.2546	95.2148	84.5592	95.2148	85.3165	95.2148	84.4641	95.2148	85.3621	95.2148	84.3807	95.2148	85.3908	95.2148	84.3116	95.2148	85.4021	95.2148	84.2583	95.2148	85.396	95.2148	84.2216	95.2148	85.3725	95.2148	84.2018	95.2148	85.3322	95.2148	84.1986	95.2148	85.2755	95.2148	84.2117	95.2148	85.2035	95.2148	84.2406	95.2148	85.1179	95.2148	84.2846	95.2148	85.0211	95.2148	84.3433	95.2148	84.9165	95.2148	84.4157	95.2148	84.808	95.2148	84.5007	95.2148	84.7	95.2148	84.5964
98.1445	85.4219	98.1445	85.3172	98.1445	85.5177	98.1445	85.2072	98.1445	85.6009	98.1445	85.0956	98.1445	85.6686	98.1445	84.986	98.1445	85.7181	98.1445	84.8818	98.1445	85.7477	98.1445	84.7859	98.1445	85.7564	98.1445	84.7008	98.1445	85.744	98.1445	84.6285	98.1445	85.7112	98.1445	84.5705	98.1445	85.6592	98.1445	84.528	98.1445	85.5899	98.1445	84.5015	98.1445	85.5056	98.1445	84.4915	98.1445	85.409	98.1445	84.4981	98.1445	85.3034	98.1445	84.5212	98.1445	85.1922	98.1445	84.5606	98.1445	85.0795	98.1445	84.6157	98.1445	84.969	98.1445	84.6857	98.1445	84.8646	98.1445	84.7693
101.074	85.4306	101.074	85.3234	101.074	85.5304	101.074	85.2131	101.074	85.6193	101.074	85.1038	101.074	85.6939	101.074	84.9997	101.074	85.7521	101.074	84.9046	101.074	85.7923	101.074	84.8216	101.074	85.814	101.074	84.7533	101.074	85.8175	101.074	84.7014	101.074	85.8036	101.074	84.6668	101.074	85.7737	101.074	84.6498	101.074	85.7289	101.074	84.65	101.074	85.6705	101.074	84.6667	101.074	85.6001	101.074	84.6987	101.074	85.5192	101.074	84.745	101.074	85.4299	101.074	84.8042	101.074	85.3347	101.074	84.875	101.074	85.2367	101.074	84.9556	101.074	85.139	101.074	85.0444
105.469	86.0082	105.469	85.9035	105.469	86.0969	105.469	85.7867	105.469	86.1663	105.469	85.6624	105.469	86.2145	105.469	85.5357	105.469	86.2406	105.469	85.4115	105.469	86.2449	105.469	85.2949	105.469	86.229	105.469	85.1902	105.469	86.1952	105.469	85.1014	105.469	86.1463	105.469	85.0314	105.469	86.0849	105.469	84.9822	105.469	86.0137	105.469	84.9546	105.469	85.9342	105.469	84.9485	105.469	85.848	105.469	84.9629	105.469	85.7561	105.469	84.9961	105.469	85.6598	105.469	85.046	105.469	85.561	105.469	85.1102	105.469	85.4617	105.469	85.1862	105.469	85.3645	105.469	85.2718
108.398	86.2137	108.398	86.1151	108.398	86.2979	108.398	86.006	108.398	86.364	108.398	85.8907	108.398	86.4094	108.398	85.7737	108.398	86.4325	108.398	85.659	108.398	86.4328	108.398	85.5507	108.398	86.4114	108.398	85.4523	108.398	86.3706	108.398	85.3669	108.398	86.3139	108.398	85.2971	108.398	86.2448	108.398	85.2449	108.398	86.1671	108.398	85.2116	108.398	86.0838	108.398	85.1976	108.398	85.9968	108.398	85.2028	108.398	85.9076	108.398	85.2261	108.398	85.817	108.398	85.2662	108.398	85.7259	108.398	85.3207	108.398	85.6354	108.398	85.3875	108.398	85.5474	108.398	85.4639
112.793	86.6291	112.793	86.5222	112.793	86.7186	112.793	86.4024	112.793	86.7868	112.793	86.2746	112.793	86.831	112.793	86.1441	112.793	86.8499	112.793	86.0159	112.793	86.8435	112.793	85.895	112.793	86.8135	112.793	85.7855	112.793	86.763	112.793	85.6913	112.793	86.696	112.793	85.6152	112.793	86.6171	112.793	85.5593	112.793	86.5306	112.793	85.5248	112.793	86.4399	112.793	85.5119	112.793	86.3476	112.793	85.5199	112.793	86.255	112.793	85.5474	112.793	86.1626	112.793	85.5924	112.793	86.0706	112.793	85.652	112.793	85.9793	112.793	85.7235	112.793	85.8897	112.793	85.8037
117.188	87.0452	117.188	86.9313	117.188	87.1363	117.188	86.7992	117.188	87.2008	117.188	86.654	117.188	87.2355	117.188	86.5011	117.188	87.2389	117.188	86.346	117.188	87.2109	117.188	86.1941	117.188	87.153	117.188	86.0506	117.188	87.0686	117.188	85.9204	117.188	86.9624	117.188	85.8079	117.188	86.8404	117.188	85.7163	117.188	86.7089	117.188	85.6483	117.188	86.5741	117.188	85.6051	117.188	86.4412	117.188	85.5869	117.188	86.314	117.188	85.5926	117.188	86.1946	117.188	85.6201	117.188	86.0838	117.188	85.6665	117.188	85.9816	117.188	85.7284	117.188	85.8879	117.188	85.8031
120.117	87.2671	120.117	87.16	120.117	87.3515	120.117	87.0345	120.117	87.4097	120.117	86.8951	120.117	87.4387	120.117	86.7466	120.117	87.4369	120.117	86.5936	120.117	87.4039	120.117	86.441	120.117	87.3407	120.117	86.2933	120.117	87.25	120.117	86.1548	120.117	87.1357	120.117	86.0298	120.117	87.0029	120.117	85.9218	120.117	86.8574	120.117	85.834	120.117	86.7055	120.117	85.7686	120.117	86.5534	120.117	85.7271	120.117	86.4065	120.117	85.7096	120.117	86.269	120.117	85.7155	120.117	86.144	120.117	85.7431	120.117	86.0329	120.117	85.7904	120.117	85.9365	120.117	85.8554
124.512	87.2991	124.512	87.1896	124.512	87.3867	124.512	87.0629	124.512	87.4492	124.512	86.9246	124.512	87.4847	124.512	86.7806	124.512	87.4928	124.512	86.6369	124.512	87.4749	124.512	86.4989	124.512	87.4333	124.512	86.3714	124.512	87.3709	124.512	86.2582	124.512	87.2912	124.512	86.162	124.512	87.1971	124.512	86.0846	124.512	87.0916	124.512	86.0271	124.512	86.9772	124.512	85.9897	124.512	86.8565	124.512	85.9727	124.512	86.7322	124.512	85.9758	124.512	86.6078	124.512	85.9984	124.512	86.4866	124.512	86.0401	124.512	86.3722	124.512	86.0998	124.512	86.2678	124.512	86.1763
128.906	87.2957	128.906	87.1763	128.906	87.3962	128.906	87.0429	128.906	87.4742	128.906	86.9016	128.906	87.5275	128.906	86.7595	128.906	87.5552	128.906	86.6233	128.906	87.558	128.906	86.4996	128.906	87.5375	128.906	86.3937	128.906	87.4966	128.906	86.3096	128.906	87.4388	128.906	86.2496	128.906	87.368	128.906	86.2143	128.906	87.2881	128.906	86.203	128.906	87.2024	128.906	86.2136	128.906	87.1137	128.906	86.2436	128.906	87.0236	128.906	86.29	128.906	86.9332	128.906	86.3497	128.906	86.8431	128.906	86.4196	128.906	86.7537	128.906	86.497	128.906	86.6656	128.906	86.5796
133.301	87.6709	133.301	87.5466	133.301	87.7761	133.301	87.4083	133.301	87.858	133.301	87.2616	133.301	87.9131	133.301	87.1125	133.301	87.9396	133.301	86.9668	133.301	87.9369	133.301	86.8302	133.301	87.9061	133.301	86.7078	133.301	87.8499	133.301	86.6037	133.301	87.7722	133.301	86.5208	133.301	87.6773	133.301	86.4607	133.301	87.5702	133.301	86.4241	133.301	87.4553	133.301	86.4103	133.301	87.3367	133.301	86.4179	133.301	87.218	133.301	86.4448	133.301	87.1021	133.301	86.4887	133.301	86.9909	133.301	86.547	133.301	86.886	133.301	86.6176	133.301	86.7882	133.301	86.6984
139.16	87.8855	139.16	87.7546	139.16	87.9931	139.16	87.6062	139.16	88.0728	139.16	87.4472	139.16	88.1218	139.16	87.2849	139.16	88.1391	139.16	87.1267	139.16	88.1258	139.16	86.9796	139.16	88.0849	139.16	86.8496	139.16	88.0206	139.16	86.7416	139.16	87.9382	139.16	86.659	139.16	87.8432	139.16	86.6036	139.16	87.7404	139.16	86.5754	139.16	87.6342	139.16	86.5733	139.16	87.5276	139.16	86.5949	139.16	87.4227	139.16	86.637	139.16	87.3203	139.16	86.6959	139.16	87.2207	139.16	86.7678	139.16	87.1236	139.16	86.8492	139.16	87.0289	139.16	86.937
143.555	87.9976	143.555	87.8656	143.555	88.1043	143.555	87.714	143.555	88.1814	143.555	87.5501	143.555	88.2268	143.555	87.3821	143.555	88.2405	143.555	87.2182	143.555	88.2246	143.555	87.0664	143.555	88.1828	143.555	86.9336	143.555	88.1198	143.555	86.8253	143.555	88.0408	143.555	86.7452	143.555	87.9509	143.555	86.6947	143.555	87.8544	143.555	86.6736	143.555	87.7547	143.555	86.68	143.555	87.6541	143.555	86.7105	143.555	87.5544	143.555	86.7611	143.555	87.4562	143.555	86.8274	143.555	87.3599	143.555	86.905	143.555	87.2651	143.555	86.9902	143.555	87.1717	143.555	87.0797
147.949	88.1209	147.949	87.9789	147.949	88.2341	147.949	87.8138	147.949	88.3149	147.949	87.6328	147.949	88.3613	147.949	87.4442	147.949	88.3738	147.949	87.2572	147.949	88.3544	147.949	87.0809	147.949	88.3072	147.949	86.924	147.949	88.237	147.949	86.7939	147.949	88.1495	147.949	86.6961	147.949	88.05	147.949	86.6338	147.949	87.9432	147.949	86.6075	147.949	87.8327	147.949	86.6152	147.949	87.7213	147.949	86.6528	147.949	87.6111	147.949	86.7147	147.949	87.5029	147.949	86.7948	147.949	87.3971	147.949	86.8868	147.949	87.2931	147.949	86.9856	147.949	87.1901	147.949	87.0874
153.809	88.2688	153.809	88.1277	153.809	88.3791	153.809	87.9616	153.809	88.4542	153.809	87.7775	153.809	88.4918	153.809	87.5831	153.809	88.4917	153.809	87.3866	153.809	88.4562	153.809	87.1963	153.809	88.3902	153.809	87.0201	153.809	88.3003	153.809	86.8655	153.809	88.1943	153.809	86.739	153.809	88.0797	153.809	86.6461	153.809	87.9628	153.809	86.59	153.809	87.8475	153.809	86.572	153.809	87.7353	153.809	86.5909	153.809	87.6254	153.809	86.6428	153.809	87.5159	153.809	86.7219	153.809	87.4046	153.809	86.8212	153.809	87.2901	153.809	86.9334	153.809	87.1721	153.809	87.0521
159.668	88.4323	159.668	88.3031	159.668	88.531	159.668	88.1493	159.668	88.5955	159.668	87.9782	159.668	88.6244	159.668	87.798	159.668	88.6187	159.668	87.6174	159.668	88.582	159.668	87.4445	159.668	88.5199	159.668	87.2869	159.668	88.4392	159.668	87.1506	159.668	88.3469	159.668	87.0406	159.668	88.2494	159.668	86.9601	159.668	88.151	159.668	86.9114	159.668	88.0541	159.668	86.8953	159.668	87.9591	159.668	86.911	159.668	87.8646	159.668	86.9566	159.668	87.7686	159.668	87.028	159.668	87.6687	159.668	87.1199	159.668	87.5634	159.668	87.2258	159.668	87.4526	159.668	87.3387
165.527	88.4317	165.527	88.3029	165.527	88.5288	165.527	88.149	165.527	88.5898	165.527	87.9785	165.527	88.6128	165.527	87.8009	165.527	88.5987	165.527	87.6263	165.527	88.5515	165.527	87.4641	165.527	88.4777	165.527	87.323	165.527	88.3857	165.527	87.2092	165.527	88.285	165.527	87.1272	165.527	88.1842	165.527	87.0784	165.527	88.0901	165.527	87.0625	165.527	88.0067	165.527	87.0771	165.527	87.9344	165.527	87.1184	165.527	87.871	165.527	87.1817	165.527	87.8122	165.527	87.2611	165.527	87.7528	165.527	87.3502	165.527	87.688	165.527	87.4425	165.527	87.6147	165.527	87.5322
171.387	88.5747	171.387	88.4282	171.387	88.6835	171.387	88.2516	171.387	88.7494	171.387	88.0541	171.387	88.7693	171.387	87.8463	171.387	88.7435	171.387	87.6395	171.387	88.6757	171.387	87.445	171.387	88.5728	171.387	87.2735	171.387	88.445	171.387	87.1339	171.387	88.3044	171.387	87.0324	171.387	88.1634	171.387	86.972	171.387	88.0329	171.387	86.9526	171.387	87.9206	171.387	86.9709	171.387	87.8298	171.387	87.021	171.387	87.7589	171.387	87.0955	171.387	87.7023	171.387	87.1855	171.387	87.6519	171.387	87.2821	171.387	87.5994	171.387	87.3771	171.387	87.5378	171.387	87.4636
177.246	88.6648	177.246	88.5167	177.246	88.7697	177.246	88.3318	177.246	88.8273	177.246	88.1188	177.246	88.8364	177.246	87.8878	177.246	88.7986	177.246	87.6506	177.246	88.7185	177.246	87.4196	177.246	88.6028	177.246	87.2073	177.246	88.4602	177.246	87.0253	177.246	88.3006	177.246	86.8834	177.246	88.1341	177.246	86.7881	177.246	87.9706	177.246	86.7418	177.246	87.819	177.246	86.7422	177.246	87.6865	177.246	86.7828	177.246	87.5768	177.246	86.8538	177.246	87.4893	177.246	86.9435	177.246	87.4185	177.246	87.0403	177.246	87.3556	177.246	87.1341	177.246	87.2914	177.246	87.2185
183.105	88.5041	183.105	88.3687	183.105	88.6017	183.105	88.201	183.105	88.6584	183.105	88.0087	183.105	88.6739	183.105	87.8005	183.105	88.6504	183.105	87.5861	183.105	88.5933	183.105	87.3752	183.105	88.5097	183.105	87.1774	183.105	88.4075	183.105	87.001	183.105	88.2942	183.105	86.8538	183.105	88.1753	183.105	86.742	183.105	88.0544	183.105	86.6704	183.105	87.9336	183.105	86.6417	183.105	87.8142	183.105	86.6555	183.105	87.6976	183.105	86.7081	183.105	87.5846	183.105	86.7921	183.105	87.4744	183.105	86.8979	183.105	87.3646	183.105	87.0151	183.105	87.252	183.105	87.135
188.965	88.4666	188.965	88.3312	188.965	88.5546	188.965	88.1555	188.965	88.591	188.965	87.9495	188.965	88.5758	188.965	87.725	188.965	88.5133	188.965	87.4953	188.965	88.4124	188.965	87.274	188.965	88.2862	188.965	87.0737	188.965	88.15	188.965	86.9054	188.965	88.0187	188.965	86.777	188.965	87.9035	188.965	86.693	188.965	87.809	188.965	86.6544	188.965	87.7337	188.965	86.6591	188.965	87.6714	188.965	86.7026	188.965	87.6145	188.965	86.7781	188.965	87.5559	188.965	86.8772	188.965	87.4902	188.965	86.9902	188.965	87.4136	188.965	87.1076	188.965	87.3238	188.965	87.2208
196.289	88.5944	196.289	88.4528	196.289	88.6846	196.289	88.2671	196.289	88.7187	196.289	88.0473	196.289	88.6955	196.289	87.8048	196.289	88.6178	196.289	87.5525	196.289	88.4927	196.289	87.3038	196.289	88.3315	196.289	87.0723	196.289	88.1494	196.289	86.8705	196.289	87.9631	196.289	86.7087	196.289	87.7889	196.289	86.5944	196.289	87.6392	196.289	86.5312	196.289	87.52	196.289	86.5186	196.289	87.4308	196.289	86.5517	196.289	87.3653	196.289	86.6223	196.289	87.3135	196.289	86.7193	196.289	87.2641	196.289	86.8302	196.289	87.2072	196.289	86.9428	196.289	87.1357	196.289	87.0469
203.613	88.5779	203.613	88.4329	203.613	88.6652	203.613	88.2383	203.613	88.6893	203.613	88.005	203.613	88.6484	203.613	87.7457	203.613	88.5449	203.613	87.4744	203.613	88.3856	203.613	87.2059	203.613	88.1827	203.613	86.9541	203.613	87.953	203.613	86.7319	203.613	87.7167	203.613	86.5497	203.613	87.4947	203.613	86.4147	203.613	87.3048	203.613	86.3311	203.613	87.1586	203.613	86.2996	203.613	87.0587	203.613	86.3169	203.613	86.9985	203.613	86.3759	203.613	86.9641	203.613	86.4655	203.613	86.9385	203.613	86.5718	203.613	86.9052	203.613	86.68	203.613	86.8529	203.613	86.7768
210.938	88.4177	210.938	88.2878	210.938	88.4941	210.938	88.1112	210.938	88.5128	210.938	87.897	210.938	88.4725	210.938	87.656	210.938	88.3749	210.938	87.4008	210.938	88.226	210.938	87.1449	210.938	88.0356	210.938	86.9021	210.938	87.818	210.938	86.6858	210.938	87.5903	210.938	86.5076	210.938	87.371	210.938	86.3761	210.938	87.1769	210.938	86.2959	210.938	87.02	210.938	86.267	210.938	86.9058	210.938	86.2845	210.938	86.832	210.938	86.339	210.938	86.7898	210.938	86.4177	210.938	86.7655	210.938	86.5063	210.938	86.7439	210.938	86.5911	210.938	86.7119	210.938	86.6615
218.262	88.2171	218.262	88.0697	218.262	88.3105	218.262	87.8771	218.262	88.3442	218.262	87.6507	218.262	88.316	218.262	87.4037	218.262	88.2282	218.262	87.1501	218.262	88.0875	218.262	86.9039	218.262	87.9055	218.262	86.678	218.262	87.6984	218.262	86.4833	218.262	87.4857	218.262	86.3284	218.262	87.2875	218.262	86.2197	218.262	87.1216	218.262	86.1607	218.262	86.9992	218.262	86.1521	218.262	86.9224	218.262	86.1909	218.262	86.8839	218.262	86.2697	218.262	86.8686	218.262	86.3766	218.262	86.8583	218.262	86.4966	218.262	86.8361	218.262	86.6141	218.262	86.7899	218.262	86.715
225.586	88.3167	225.586	88.1578	225.586	88.4101	225.586	87.942	225.586	88.4327	225.586	87.6812	225.586	88.3831	225.586	87.3905	225.586	88.2641	225.586	87.0876	225.586	88.0838	225.586	86.7921	225.586	87.8559	225.586	86.5239	225.586	87.5995	225.586	86.3006	225.586	87.3387	225.586	86.1353	225.586	87.0991	225.586	86.0354	225.586	86.9043	225.586	86.0018	225.586	86.7712	225.586	86.0299	225.586	86.705	225.586	86.1104	225.586	86.6977	225.586	86.2298	225.586	86.7288	225.586	86.3713	225.586	86.7715	225.586	86.5159	225.586	86.799	225.586	86.6441	225.586	86.7915	225.586	86.7395
232.91	88.2151	232.91	88.0718	232.91	88.2916	232.91	87.8702	232.91	88.2958	232.91	87.6213	232.91	88.2258	232.91	87.3387	232.91	88.0832	232.91	87.0381	232.91	87.8742	232.91	86.7369	232.91	87.6103	232.91	86.4529	232.91	87.3083	232.91	86.203	232.91	86.9911	232.91	86.0013	232.91	86.6866	232.91	85.8582	232.91	86.4246	232.91	85.7792	232.91	86.2322	232.91	85.7639	232.91	86.1256	232.91	85.8065	232.91	86.1036	232.91	85.8945	232.91	86.1458	232.91	86.0101	232.91	86.2183	232.91	86.131	232.91	86.2849	232.91	86.2344	232.91	86.3171	232.91	86.3003
241.699	88.0372	241.699	87.8519	241.699	88.1559	241.699	87.6086	241.699	88.2022	241.699	87.3188	241.699	88.1733	241.699	86.9976	241.699	88.0689	241.699	86.6627	241.699	87.8916	241.699	86.3344	241.699	87.647	241.699	86.0337	241.699	87.3442	241.699	85.7794	241.699	86.9969	241.699	85.5857	241.699	86.6255	241.699	85.4602	241.699	86.2592	241.699	85.4032	241.699	85.9362	241.699	85.4087	241.699	85.697	241.699	85.4651	241.699	85.57	241.699	85.5563	241.699	85.5557	241.699	85.6622	241.699	85.6228	241.699	85.7598	241.699	85.7218	241.699	85.8262	241.699	85.8056	241.699	85.8438
250.488	88.2361	250.488	88.0203	250.488	88.3773	250.488	87.7384	250.488	88.4381	250.488	87.4015	250.488	88.4155	250.488	87.0237	250.488	88.3103	250.488	86.6216	250.488	88.1277	250.488	86.2147	250.488	87.878	250.488	85.8245	250.488	87.5767	250.488	85.4729	250.488	87.2428	250.488	85.181	250.488	86.897	250.488	84.966	250.488	86.5603	250.488	84.8388	250.488	86.2522	250.488	84.801	250.488	85.9907	250.488	84.8436	250.488	85.7899	250.488	84.9471	250.488	85.655	250.488	85.0848	250.488	85.5775	250.488	85.2279	250.488	85.5352	250.488	85.352	250.488	85.4987	250.488	85.4425
259.277	88.0379	259.277	87.8486	259.277	88.1506	259.277	87.5896	259.277	88.1835	259.277	87.2712	259.277	88.1365	259.277	86.908	259.277	88.0137	259.277	86.5197	259.277	87.8232	259.277	86.131	259.277	87.5762	259.277	85.7706	259.277	87.2864	259.277	85.4669	259.277	86.9688	259.277	85.242	259.277	86.6399	259.277	85.1068	259.277	86.3189	259.277	85.0587	259.277	86.0297	259.277	85.0851	259.277	85.7995	259.277	85.1671	259.277	85.651	259.277	85.2841	259.277	85.5905	259.277	85.4147	259.277	85.6	259.277	85.5367	259.277	85.6429	259.277	85.6298	259.277	85.6789	259.277	85.6785
268.066	87.9341	268.066	87.7556	268.066	88.0352	268.066	87.5053	268.066	88.055	268.066	87.1898	268.066	87.9926	268.066	86.8166	268.066	87.852	268.066	86.3954	268.066	87.6426	268.066	85.9407	268.066	87.3791	268.066	85.4751	268.066	87.0797	268.066	85.0307	268.066	86.7639	268.066	84.6478	268.066	86.4488	268.066	84.3674	268.066	86.1486	268.066	84.2183	268.066	85.8749	268.066	84.2056	268.066	85.6404	268.066	84.3084	268.066	85.4579	268.066	84.4869	268.066	85.3363	268.066	84.6958	268.066	85.271	268.066	84.8943	268.066	85.2412	268.066	85.053	268.066	85.2143	268.066	85.1584
276.855	87.7706	276.855	87.6081	276.855	87.8561	276.855	87.3736	276.855	87.8635	276.855	87.0746	276.855	87.7951	276.855	86.722	276.855	87.657	276.855	86.3283	276.855	87.4593	276.855	85.9086	276.855	87.2155	276.855	85.4798	276.855	86.9415	276.855	85.0616	276.855	86.6546	276.855	84.6781	276.855	86.3709	276.855	84.3573	276.855	86.1039	276.855	84.1283	276.855	85.8642	276.855	84.014	276.855	85.6592	276.855	84.0213	276.855	85.4932	276.855	84.1356	276.855	85.3648	276.855	84.323	276.855	85.264	276.855	84.5412	276.855	85.1724	276.855	84.7518	276.855	85.0674	276.855	84.9298
287.109	87.337	287.109	87.1751	287.109	87.42	287.109	86.9386	287.109	87.4234	287.109	86.6354	287.109	87.3505	287.109	86.277	287.109	87.208	287.109	85.8785	287.109	87.006	287.109	85.4595	287.109	86.7576	287.109	85.0442	287.109	86.4793	287.109	84.6602	287.109	86.1915	287.109	84.3371	287.109	85.9183	287.109	84.1027	287.109	85.6863	287.109	83.9789	287.109	85.5197	287.109	83.9762	287.109	85.4317	287.109	84.0898	287.109	85.4163	287.109	84.298	287.109	85.4476	287.109	84.565	287.109	85.4865	287.109	84.8484	287.109	85.4939	287.109	85.1075	287.109	85.4402	287.109	85.3107
297.363	87.7804	297.363	87.6471	297.363	87.8166	297.363	87.4258	297.363	87.7478	297.363	87.1262	297.363	87.5693	297.363	86.7589	297.363	87.2829	297.363	86.3367	297.363	86.9002	297.363	85.876	297.363	86.4459	297.363	85.3978	297.363	85.9583	297.363	84.9295	297.363	85.4859	297.363	84.5038	297.363	85.0795	297.363	84.1567	297.363	84.7809	297.363	83.9214	297.363	84.6132	297.363	83.8196	297.363	84.5746	297.363	83.8535	297.363	84.6389	297.363	84.0025	297.363	84.7605	297.363	84.2273	297.363	84.8858	297.363	84.4791	297.363	84.9666	297.363	84.7103	297.363	84.9697	297.363	84.882
307.617	87.534	307.617	87.3353	307.617	87.6536	307.617	87.0692	307.617	87.6836	307.617	86.7475	307.617	87.6167	307.617	86.3815	307.617	87.4491	307.617	85.982	307.617	87.1819	307.617	85.5602	307.617	86.8201	307.617	85.1288	307.617	86.3735	307.617	84.7038	307.617	85.8577	307.617	84.3066	307.617	85.2991	307.617	83.9651	307.617	84.7432	307.617	83.7124	307.617	84.2615	307.617	83.5802	307.617	83.9405	307.617	83.5855	307.617	83.839	307.617	83.7179	307.617	83.9397	307.617	83.9366	307.617	84.1518	307.617	84.1806	307.617	84.3639	307.617	84.3859	307.617	84.493	307.617	84.5002
319.336	87.3019	319.336	87.1099	319.336	87.4053	319.336	86.8342	319.336	87.4175	319.336	86.4833	319.336	87.3385	319.336	86.0694	319.336	87.1702	319.336	85.61	319.336	86.917	319.336	85.1283	319.336	86.5847	319.336	84.6523	319.336	86.1818	319.336	84.2131	319.336	85.7216	319.336	83.8414	319.336	85.2277	319.336	83.5632	319.336	84.7409	319.336	83.3966	319.336	84.3216	319.336	83.349	319.336	84.0378	319.336	83.4154	319.336	83.9318	319.336	83.5759	319.336	83.988	319.336	83.7959	319.336	84.1356	319.336	84.0295	319.336	84.2857	319.336	84.228	319.336	84.3685	319.336	84.3494
329.59	86.845	329.59	86.6977	329.59	86.9195	329.59	86.4857	329.59	86.9149	329.59	86.2156	329.59	86.829	329.59	85.8915	329.59	86.6653	329.59	85.5151	329.59	86.4318	329.59	85.0891	329.59	86.1379	329.59	84.6216	329.59	85.7903	329.59	84.1308	329.59	85.3903	329.59	83.6488	329.59	84.9369	329.59	83.2208	329.59	84.4384	329.59	82.9001	329.59	83.9312	329.59	82.7328	329.59	83.4935	329.59	82.7392	329.59	83.2265	329.59	82.8996	329.59	83.189	329.59	83.1565	329.59	83.3382	329.59	83.4324	329.59	83.5544	329.59	83.6512	329.59	83.7173	329.59	83.7551
341.309	86.7331	341.309	86.5568	341.309	86.8153	341.309	86.2949	341.309	86.8008	341.309	85.9604	341.309	86.694	341.309	85.5691	341.309	86.5069	341.309	85.1396	341.309	86.2567	341.309	84.6921	341.309	85.9621	341.309	84.2488	341.309	85.6366	341.309	83.8333	341.309	85.2845	341.309	83.4696	341.309	84.9021	341.309	83.1813	341.309	84.4891	341.309	82.9902	341.309	84.0667	341.309	82.9144	341.309	83.6927	341.309	82.9617	341.309	83.4489	341.309	83.1198	341.309	83.392	341.309	83.3501	341.309	83.5001	341.309	83.5929	341.309	83.6804	341.309	83.7827	341.309	83.8266	341.309	83.8678
353.027	86.6505	353.027	86.4602	353.027	86.7448	353.027	86.1869	353.027	86.7369	353.027	85.8465	353.027	86.6288	353.027	85.4534	353.027	86.4315	353.027	85.0176	353.027	86.1629	353.027	84.5428	353.027	85.8446	353.027	84.0304	353.027	85.4958	353.027	83.4867	353.027	85.1265	353.027	82.9352	353.027	84.7356	353.027	82.4273	353.027	84.3188	353.027	82.0442	353.027	83.8876	353.027	81.8725	353.027	83.4896	353.027	81.9555	353.027	83.206	353.027	82.2545	353.027	83.1064	353.027	82.6648	353.027	83.1854	353.027	83.0666	353.027	83.3535	353.027	83.3659	353.027	83.4919	353.027	83.51
366.211	86.7029	366.211	86.5429	366.211	86.7615	366.211	86.286	366.211	86.7176	366.211	85.9395	366.211	86.5732	366.211	85.5127	366.211	86.3328	366.211	85.0171	366.211	86.0032	366.211	84.4682	366.211	85.5971	366.211	83.8874	366.211	85.1355	366.211	83.3032	366.211	84.6483	366.211	82.7491	366.211	84.1671	366.211	82.2594	366.211	83.7171	366.211	81.8652	366.211	83.3161	366.211	81.5942	366.211	82.9849	366.211	81.4712	366.211	82.7504	366.211	81.5088	366.211	82.6302	366.211	81.6904	366.211	82.605	366.211	81.9607	366.211	82.614	366.211	82.2415	366.211	82.5831	366.211	82.4615
379.395	86.6276	379.395	86.4475	379.395	86.7376	379.395	86.2062	379.395	86.7683	379.395	85.9112	379.395	86.7113	379.395	85.5659	379.395	86.558	379.395	85.1697	379.395	86.3017	379.395	84.7198	379.395	85.9389	379.395	84.2166	379.395	85.4711	379.395	83.671	379.395	84.9063	379.395	83.1118	379.395	84.2628	379.395	82.5901	379.395	83.5822	379.395	82.1756	379.395	82.951	379.395	81.9381	379.395	82.5053	379.395	81.9167	379.395	82.3669	379.395	82.0956	379.395	82.5302	379.395	82.4083	379.395	82.8471	379.395	82.7638	379.395	83.1398	379.395	83.0737	379.395	83.2927	379.395	83.266
392.578	86.0866	392.578	85.883	392.578	86.2041	392.578	85.6112	392.578	86.2224	392.578	85.2914	392.578	86.1343	392.578	84.9417	392.578	85.9411	392.578	84.5721	392.578	85.6548	392.578	84.182	392.578	85.2973	392.578	83.7626	392.578	84.8937	392.578	83.3053	392.578	84.4592	392.578	82.813	392.578	83.9903	392.578	82.3134	392.578	83.4709	392.578	81.8692	392.578	82.9023	392.578	81.5735	392.578	82.3488	392.578	81.5129	392.578	81.9585	392.578	81.7059	392.578	81.8834	392.578	82.0741	392.578	82.1224	392.578	82.4801	392.578	82.4973	392.578	82.7898	392.578	82.8013	392.578	82.9097
405.762	86.0775	405.762	85.9119	405.762	86.1275	405.762	85.6488	405.762	86.0528	405.762	85.3094	405.762	85.8597	405.762	84.913	405.762	85.5739	405.762	84.4724	405.762	85.2374	405.762	83.9924	405.762	84.8957	405.762	83.4727	405.762	84.5754	405.762	82.915	405.762	84.2664	405.762	82.3348	405.762	83.923	405.762	81.7725	405.762	83.4914	405.762	81.301	405.762	82.9558	405.762	81.0166	405.762	82.389	405.762	80.9987	405.762	81.9647	405.762	81.2515	405.762	81.8557	405.762	81.6835	405.762	82.0601	405.762	82.151	405.762	82.3915	405.762	82.5192	405.762	82.6434	405.762	82.6958
420.41	85.7201	420.41	85.5862	420.41	85.7504	420.41	85.3692	420.41	85.6724	420.41	85.0975	420.41	85.4994	420.41	84.797	420.41	85.2584	420.41	84.4817	420.41	84.9799	420.41	84.1471	420.41	84.6849	420.41	83.7737	420.41	84.3766	420.41	83.337	420.41	84.0387	420.41	82.8239	420.41	83.6433	420.41	82.251	420.41	83.1704	420.41	81.6815	420.41	82.638	420.41	81.232	420.41	82.1334	420.41	81.0395	420.41	81.808	420.41	81.1745	420.41	81.7854	420.41	81.5689	420.41	82.0343	420.41	82.0537	420.41	82.378	420.41	82.4567	420.41	82.6261	420.41	82.6625
435.059	85.7304	435.059	85.5063	435.059	85.8264	435.059	85.1718	435.059	85.7935	435.059	84.7585	435.059	85.6479	435.059	84.3079	435.059	85.4228	435.059	83.8614	435.059	85.1642	435.059	83.4483	435.059	84.9162	435.059	83.0744	435.059	84.6949	435.059	82.7209	435.059	84.4621	435.059	82.3568	435.059	84.1297	435.059	81.9616	435.059	83.6019	435.059	81.5491	435.059	82.843	435.059	81.1887	435.059	81.9672	435.059	81.0011	435.059	81.3034	435.059	81.0949	435.059	81.2093	435.059	81.4641	435.059	81.639	435.059	81.9653	435.059	82.1988	435.059	82.4076	435.059	82.572	435.059	82.6388
451.172	86.2169	451.172	85.9145	451.172	86.3633	451.172	85.478	451.172	86.3372	451.172	84.9359	451.172	86.1277	451.172	84.3212	451.172	85.7359	451.172	83.6676	451.172	85.188	451.172	83.0037	451.172	84.5514	451.172	82.3493	451.172	83.9352	451.172	81.713	451.172	83.4448	451.172	81.0927	451.172	83.0932	451.172	80.4872	451.172	82.7579	451.172	79.9211	451.172	82.249	451.172	79.4777	451.172	81.4322	451.172	79.2961	451.172	80.3669	451.172	79.475	451.172	79.4575	451.172	79.9446	451.172	79.2822	451.172	80.4827	451.172	79.8263	451.172	80.8495	451.172	80.4983	451.172	80.8761
465.82	85.7687	465.82	85.5624	465.82	85.827	465.82	85.2231	465.82	85.7333	465.82	84.7726	465.82	85.4969	465.82	84.2332	465.82	85.1408	465.82	83.6225	465.82	84.6978	465.82	82.9521	465.82	84.2041	465.82	82.2329	465.82	83.6963	465.82	81.4856	465.82	83.21	465.82	80.7468	465.82	82.7729	465.82	80.0684	465.82	82.3861	465.82	79.5167	465.82	82.0123	465.82	79.1743	465.82	81.6001	465.82	79.1236	465.82	81.1415	465.82	79.3857	465.82	80.7252	465.82	79.8613	465.82	80.5051	465.82	80.3639	465.82	80.5482	465.82	80.7186	465.82	80.7284	465.82	80.833
483.398	84.9172	483.398	84.7838	483.398	84.9178	483.398	84.5492	483.398	84.7692	483.398	84.2497	483.398	84.4801	483.398	83.9133	483.398	84.0894	483.398	83.5494	483.398	83.6635	483.398	83.1467	483.398	83.2823	483.398	82.6812	483.398	83.0106	483.398	82.1293	483.398	82.8612	483.398	81.4821	483.398	82.7734	483.398	80.7607	483.398	82.6333	483.398	80.0363	483.398	82.3339	483.398	79.4484	483.398	81.8439	483.398	79.1833	483.398	81.2702	483.398	79.3604	483.398	80.8584	483.398	79.8999	483.398	80.8148	483.398	80.5611	483.398	81.0647	483.398	81.1011	483.398	81.3272	483.398	81.3692
499.512	85.499	499.512	85.1624	499.512	85.6577	499.512	84.6957	499.512	85.6208	499.512	84.173	499.512	85.3974	499.512	83.6762	499.512	85.0187	499.512	83.2609	499.512	84.534	499.512	82.9276	499.512	84.0075	499.512	82.6207	499.512	83.5061	499.512	82.2541	499.512	83.0675	499.512	81.7399	499.512	82.6684	499.512	81.0098	499.512	82.2326	499.512	80.0513	499.512	81.69	499.512	78.9914	499.512	81.0621	499.512	78.2229	499.512	80.533	499.512	78.2652	499.512	80.3853	499.512	79.1168	499.512	80.7008	499.512	80.2167	499.512	81.2128	499.512	81.0963	499.512	81.5711	499.512	81.5588
517.09	85.6051	517.09	85.1186	517.09	85.7779	517.09	84.3671	517.09	85.6323	517.09	83.4692	517.09	85.2003	517.09	82.6307	517.09	84.5613	517.09	82.0851	517.09	83.8624	517.09	81.9327	517.09	83.3108	517.09	82.0535	517.09	83.0711	517.09	82.2156	517.09	83.1058	517.09	82.2049	517.09	83.1713	517.09	81.8599	517.09	82.9849	517.09	81.0664	517.09	82.3385	517.09	79.7771	517.09	81.1219	517.09	78.1403	517.09	79.4049	517.09	76.8463	517.09	77.7838	517.09	76.9348	517.09	77.4636	517.09	78.1059	517.09	78.4169	517.09	79.2118	517.09	79.376	517.09	79.6811
536.133	86.7263	536.133	86.2415	536.133	86.9018	536.133	85.4565	536.133	86.7642	536.133	84.3971	536.133	86.3122	536.133	83.1321	536.133	85.5441	536.133	81.8144	536.133	84.4621	536.133	80.7052	536.133	83.1213	536.133	80.083	536.133	81.7828	536.133	80.0122	536.133	81.0481	536.133	80.26	536.133	81.3253	536.133	80.5019	536.133	82.1246	536.133	80.5057	536.133	82.7244	536.133	80.1688	536.133	82.7521	536.133	79.5104	536.133	82.1045	536.133	78.6861	536.133	80.873	536.133	77.9904	536.133	79.4191	536.133	77.6923	536.133	78.3541	536.133	77.745	536.133	77.9589	536.133	77.8652
555.176	85.0762	555.176	84.8517	555.176	85.1175	555.176	84.418	555.176	85.0061	555.176	83.7709	555.176	84.7613	555.176	82.9451	555.176	84.3772	555.176	82.0219	555.176	83.8167	555.176	81.1217	555.176	83.0276	555.176	80.378	555.176	81.9949	555.176	79.8913	555.176	80.8437	555.176	79.6677	555.176	79.9635	555.176	79.601	555.176	79.8558	555.176	79.5403	555.176	80.4903	555.176	79.3845	555.176	81.2786	555.176	79.134	555.176	81.7378	555.176	78.9025	555.176	81.7031	555.176	78.8605	555.176	81.2585	555.176	79.0782	555.176	80.6602	555.176	79.4382	555.176	80.1617	555.176	79.7945
574.219	85.2013	574.219	84.7904	574.219	85.4152	574.219	84.2037	574.219	85.4348	574.219	83.4929	574.219	85.2714	574.219	82.7346	574.219	84.9331	574.219	82.0143	574.219	84.4234	574.219	81.407	574.219	83.7451	574.219	80.954	574.219	82.8968	574.219	80.6428	574.219	81.8752	574.219	80.4082	574.219	80.7279	574.219	80.1583	574.219	79.6838	574.219	79.8126	574.219	79.1769	574.219	79.3526	574.219	79.4139	574.219	78.8943	574.219	80.0617	574.219	78.721	574.219	80.7132	574.219	79.0821	574.219	81.2002	574.219	79.8616	574.219	81.4865	574.219	80.687	574.219	81.5331	574.219	81.2758
594.727	86.837	594.727	86.5971	594.727	86.7891	594.727	86.0707	594.727	86.4832	594.727	85.2971	594.727	85.9753	594.727	84.3642	594.727	85.3323	594.727	83.404	594.727	84.6127	594.727	82.5495	594.727	83.8794	594.727	81.8698	594.727	83.2387	594.727	81.3582	594.727	82.8101	594.727	80.981	594.727	82.5813	594.727	80.7008	594.727	82.3271	594.727	80.4436	594.727	81.7312	594.727	80.1126	594.727	80.6059	594.727	79.7116	594.727	79.2287	594.727	79.4894	594.727	78.7207	594.727	79.8127	594.727	79.6973	594.727	80.6512	594.727	81.0357	594.727	81.5277	594.727	81.8675	594.727	82.0081
615.234	86.6049	615.234	86.4131	615.234	86.5315	615.234	85.9522	615.234	86.2154	615.234	85.2387	615.234	85.6998	615.234	84.3252	615.234	85.0427	615.234	83.3379	615.234	84.2947	615.234	82.5104	615.234	83.4925	615.234	82.0888	615.234	82.708	615.234	82.0801	615.234	82.1133	615.234	82.2191	615.234	81.9314	615.234	82.2327	615.234	82.2115	615.234	81.9943	615.234	82.6859	615.234	81.5115	615.234	82.9418	615.234	80.9014	615.234	82.6652	615.234	80.3957	615.234	81.7879	615.234	80.2607	615.234	80.6764	615.234	80.5179	615.234	80.1433	615.234	80.8306	615.234	80.43	615.234	80.8225
637.207	87.3823	637.207	86.9612	637.207	87.5065	637.207	86.2477	637.207	87.3789	637.207	85.3036	637.207	87.0612	637.207	84.2301	637.207	86.5722	637.207	83.1289	637.207	85.8439	637.207	82.1003	637.207	84.7659	637.207	81.3362	637.207	83.3246	637.207	81.1341	637.207	81.8022	637.207	81.5247	637.207	80.9104	637.207	82.0797	637.207	81.1281	637.207	82.35	637.207	81.8334	637.207	82.1337	637.207	82.2426	637.207	81.4634	637.207	82.1272	637.207	80.6546	637.207	81.6768	637.207	80.3091	637.207	81.3282	637.207	80.7239	637.207	81.4138	637.207	81.416	637.207	81.7305	637.207	81.8089
659.18	87.9763	659.18	87.7543	659.18	87.8622	659.18	87.2086	659.18	87.4307	659.18	86.3789	659.18	86.7273	659.18	85.3267	659.18	85.8082	659.18	84.1336	659.18	84.7309	659.18	82.9255	659.18	83.5722	659.18	81.8975	659.18	82.4477	659.18	81.2383	659.18	81.481	659.18	80.9716	659.18	80.7707	659.18	80.9629	659.18	80.4348	659.18	81.0676	659.18	80.5415	659.18	81.1871	659.18	80.8568	659.18	81.2769	659.18	81.0213	659.18	81.3899	659.18	81.0324	659.18	81.6605	659.18	81.2668	659.18	82.1255	659.18	81.8748	659.18	82.5878	659.18	82.4961	659.18	82.7632
682.617	88.5042	682.617	88.3592	682.617	88.2518	682.617	87.7958	682.617	87.6997	682.617	86.86	682.617	86.9977	682.617	85.6605	682.617	86.2495	682.617	84.3783	682.617	85.4233	682.617	83.2517	682.617	84.4451	682.617	82.4656	682.617	83.4371	682.617	82.0356	682.617	82.7852	682.617	81.8596	682.617	82.6151	682.617	81.7793	682.617	82.4776	682.617	81.58	682.617	82.1715	682.617	81.1124	682.617	82.1639	682.617	80.5262	682.617	82.5481	682.617	80.3758	682.617	82.5689	682.617	81.0715	682.617	81.9338	682.617	82.1627	682.617	81.5286	682.617	82.902	682.617	82.1418	682.617	82.8757
707.52	88.4091	707.52	88.2506	707.52	88.3346	707.52	87.8019	707.52	88.116	707.52	87.0703	707.52	87.7995	707.52	86.1082	707.52	87.3397	707.52	84.9663	707.52	86.639	707.52	83.6909	707.52	85.6232	707.52	82.4139	707.52	84.275	707.52	81.441	707.52	82.6921	707.52	81.0871	707.52	81.2673	707.52	81.2968	707.52	80.6139	707.52	81.6334	707.52	80.6757	707.52	81.6195	707.52	80.71	707.52	80.9295	707.52	80.3737	707.52	79.577	707.52	80.069	707.52	78.6812	707.52	80.551	707.52	79.8809	707.52	81.749	707.52	81.79	707.52	82.7389	707.52	82.8348
732.422	88.3413	732.422	88.3544	732.422	87.8974	732.422	87.9188	732.422	87.1565	732.422	87.1245	732.422	86.3242	732.422	86.1419	732.422	85.5243	732.422	85.153	732.422	84.7016	732.422	84.253	732.422	83.758	732.422	83.3996	732.422	82.6502	732.422	82.5328	732.422	81.2924	732.422	81.7839	732.422	79.657	732.422	81.4563	732.422	78.577	732.422	81.6415	732.422	79.303	732.422	81.9825	732.422	80.5791	732.422	82.0074	732.422	80.9977	732.422	81.5349	732.422	80.4707	732.422	80.9142	732.422	79.705	732.422	80.8105	732.422	79.7175	732.422	81.1296	732.422	80.498	732.422	81.1243
757.324	88.8968	757.324	89.0388	757.324	88.2761	757.324	88.6206	757.324	87.5379	757.324	87.7235	757.324	87.0841	757.324	86.4319	757.324	86.8013	757.324	84.7755	757.324	86.2588	757.324	82.9306	757.324	85.3162	757.324	81.4586	757.324	84.2174	757.324	80.683	757.324	83.2923	757.324	80.1781	757.324	82.4582	757.324	79.8075	757.324	81.2578	757.324	79.9953	757.324	80.1364	757.324	80.597	757.324	80.9005	757.324	80.8853	757.324	82.4268	757.324	80.6214	757.324	82.7925	757.324	80.4375	757.324	81.9366	757.324	81.0696	757.324	81.17	757.324	81.9447	757.324	81.5953	757.324	82.1619
785.156	89.2849	785.156	88.7104	785.156	88.9224	785.156	87.3833	785.156	87.7403	785.156	86.0507	785.156	86.0448	785.156	85.8166	785.156	84.2081	785.156	86.4336	785.156	82.553	785.156	86.7011	785.156	81.3013	785.156	86.0704	785.156	80.1948	785.156	84.5497	785.156	78.0511	785.156	82.4756	785.156	72.8269	785.156	80.7929	785.156	70.2961	785.156	80.7399	785.156	77.0164	785.156	81.6214	785.156	80.533	785.156	82.0073	785.156	82.3513	785.156	81.6534	785.156	82.683	785.156	81.1095	785.156	80.8352	785.156	80.997	785.156	76.5754	785.156	81.0883	785.156	76.9732	785.156	80.1159
811.523	88.1447	811.523	86.966	811.523	89.4012	811.523	87.2154	811.523	89.6966	811.523	88.2074	811.523	88.7563	811.523	88.7059	811.523	86.5035	811.523	88.3758	811.523	82.8976	811.523	87.3952	811.523	78.636	811.523	86.1538	811.523	77.0119	811.523	84.9579	811.523	77.661	811.523	83.9129	811.523	76.809	811.523	83.287	811.523	71.0385	811.523	83.3584	811.523	65.9087	811.523	83.5319	811.523	77.3087	811.523	83.3787	811.523	80.4794	811.523	83.3293	811.523	81.3844	811.523	83.2961	811.523	81.2807	811.523	82.7794	811.523	80.512	811.523	81.7685	811.523	79.9599	811.523	80.5716
840.82	89.1906	840.82	89.2819	840.82	88.281	840.82	88.4799	840.82	86.9129	840.82	87.0036	840.82	85.7282	840.82	85.6523	840.82	85.1667	840.82	85.3991	840.82	85.0722	840.82	85.7228	840.82	85.172	840.82	85.6582	840.82	85.3352	840.82	85.1585	840.82	85.2696	840.82	84.655	840.82	84.3308	840.82	84.3653	840.82	81.6051	840.82	84.1164	840.82	75.015	840.82	83.636	840.82	65.5983	840.82	82.8878	840.82	78.5651	840.82	82.1916	840.82	82.4277	840.82	81.8637	840.82	82.7588	840.82	81.766	840.82	79.622	840.82	81.061	840.82	74.3642	840.82	78.2334
870.117	88.8208	870.117	89.7567	870.117	87.5878	870.117	89.7846	870.117	87.0822	870.117	88.8077	870.117	87.1945	870.117	86.8412	870.117	87.0059	870.117	83.7073	870.117	86.0931	870.117	78.8466	870.117	84.3415	870.117	75.1261	870.117	81.8338	870.117	79.052	870.117	79.4834	870.117	81.5658	870.117	79.0632	870.117	81.8501	870.117	80.3819	870.117	80.9354	870.117	82.0596	870.117	79.9277	870.117	82.8103	870.117	79.2047	870.117	81.5591	870.117	78.2838	870.117	77.6329	870.117	77.9697	870.117	76.441	870.117	79.0657	870.117	80.2259	870.117	80.4147	870.117	81.7378	870.117	81.4678
900.879	89.0653	900.879	87.5183	900.879	90.014	900.879	87.1415	900.879	89.4916	900.879	88.1966	900.879	87.0588	900.879	89.1371	900.879	82.146	900.879	89.2059	900.879	76.4391	900.879	88.3545	900.879	80.5347	900.879	87.0065	900.879	84.4578	900.879	85.6996	900.879	86.3101	900.879	84.2958	900.879	86.4278	900.879	82.7736	900.879	84.8145	900.879	83.3312	900.879	80.8144	900.879	85.1337	900.879	69.2833	900.879	85.682	900.879	74.498	900.879	84.5883	900.879	81.2777	900.879	82.4641	900.879	83.3815	900.879	81.0208	900.879	83.1441	900.879	79.3426	900.879	80.5106	900.879	77.3102
933.105	88.8489	933.105	89.1077	933.105	88.4838	933.105	88.9641	933.105	88.0425	933.105	88.3307	933.105	87.1274	933.105	87.3131	933.105	85.3937	933.105	85.8917	933.105	83.1846	933.105	83.8786	933.105	82.0285	933.105	81.3743	933.105	82.176	933.105	78.7845	933.105	82.2399	933.105	76.1212	933.105	81.696	933.105	73.7907	933.105	79.901	933.105	74.7068	933.105	76.2741	933.105	78.4857	933.105	72.2672	933.105	80.8933	933.105	75.3068	933.105	81.4681	933.105	80.3491	933.105	80.9211	933.105	82.2037	933.105	80.5441	933.105	80.4598	933.105	80.3943	933.105	76.9231	933.105	78.6463
965.332	89.8824	965.332	89.57	965.332	88.6932	965.332	87.86	965.332	86.2904	965.332	85.3701	965.332	84.6596	965.332	84.8203	965.332	85.7375	965.332	86.828	965.332	87.2743	965.332	88.2721	965.332	88.0348	965.332	88.7747	965.332	87.9642	965.332	88.9406	965.332	87.3675	965.332	89.1174	965.332	86.9862	965.332	89.2357	965.332	87.1778	965.332	88.9453	965.332	87.1012	965.332	88.473	965.332	85.8627	965.332	87.8226	965.332	82.7472	965.332	85.2929	965.332	73.6766	965.332	79.1738	965.332	77.0953	965.332	70.8115	965.332	84.4368	965.332	68.2875	965.332	85.3785	965.332	81.5694
1,000.49	87.4106	1,000.49	88.3925	1,000.49	87.5159	1,000.49	89.0968	1,000.49	87.9671	1,000.49	88.5971	1,000.49	87.2591	1,000.49	86.5231	1,000.49	84.8605	1,000.49	82.817	1,000.49	81.1471	1,000.49	77.6711	1,000.49	79.206	1,000.49	70.368	1,000.49	80.9348	1,000.49	60.4464	1,000.49	83.0281	1,000.49	65.1989	1,000.49	83.6383	1,000.49	64.2053	1,000.49	82.069	1,000.49	57.4773	1,000.49	78.3642	1,000.49	71.0859	1,000.49	71.2314	1,000.49	74.9895	1,000.49	70.1086	1,000.49	76.857	1,000.49	78.946	1,000.49	78.4839	1,000.49	79.4082	1,000.49	79.408	1,000.49	73.524	1,000.49	79.9674	1,000.49	75.0771	1,000.49	79.3929
1,035.64	87.4178	1,035.64	88.6587	1,035.64	86.155	1,035.64	88.753	1,035.64	86.4082	1,035.64	87.3403	1,035.64	86.8362	1,035.64	84.2432	1,035.64	86.0531	1,035.64	81.3081	1,035.64	84.0715	1,035.64	81.6644	1,035.64	81.1325	1,035.64	82.4928	1,035.64	77.2279	1,035.64	82.2245	1,035.64	72.8007	1,035.64	81.1349	1,035.64	73.0898	1,035.64	80.4142	1,035.64	75.9177	1,035.64	81.4561	1,035.64	77.6381	1,035.64	82.4312	1,035.64	79.4605	1,035.64	81.5798	1,035.64	81.2988	1,035.64	78.8857	1,035.64	80.8053	1,035.64	75.4699	1,035.64	76.2221	1,035.64	74.6308	1,035.64	75.8537	1,035.64	77.6565	1,035.64	80.299	1,035.64	80.4254
1,072.27	85.6407	1,072.27	87.1592	1,072.27	87.3253	1,072.27	89.1944	1,072.27	88.3576	1,072.27	89.4014	1,072.27	86.7544	1,072.27	87.2351	1,072.27	81.4346	1,072.27	82.0693	1,072.27	75.7683	1,072.27	71.4701	1,072.27	81.6832	1,072.27	62.8526	1,072.27	83.3939	1,072.27	70.2613	1,072.27	83.3024	1,072.27	67.3637	1,072.27	82.835	1,072.27	61.4505	1,072.27	81.1005	1,072.27	69.3666	1,072.27	79.6589	1,072.27	74.067	1,072.27	79.7292	1,072.27	77.6718	1,072.27	75.8836	1,072.27	77.7306	1,072.27	71.5157	1,072.27	77.1627	1,072.27	77.7606	1,072.27	77.985	1,072.27	77.4567	1,072.27	78.894	1,072.27	76.6828	1,072.27	78.5098
1,108.89	87.1348	1,108.89	85.7146	1,108.89	88.4167	1,108.89	87.1727	1,108.89	87.5104	1,108.89	88.7594	1,108.89	84.0049	1,108.89	88.2688	1,108.89	80.5234	1,108.89	85.2845	1,108.89	82.1071	1,108.89	80.3367	1,108.89	83.4004	1,108.89	76.3576	1,108.89	82.8629	1,108.89	77.1431	1,108.89	80.7209	1,108.89	80.8046	1,108.89	78.0184	1,108.89	83.1806	1,108.89	73.8683	1,108.89	83.06	1,108.89	64.3383	1,108.89	81.8807	1,108.89	77.0767	1,108.89	80.292	1,108.89	81.3876	1,108.89	75.1917	1,108.89	82.1549	1,108.89	68.7125	1,108.89	78.1165	1,108.89	71.8382	1,108.89	68.0112	1,108.89	77.6939	1,108.89	80.0699	1,108.89	81.2619
1,148.44	88.3069	1,148.44	87.6904	1,148.44	87.8142	1,148.44	87.3878	1,148.44	85.4991	1,148.44	87.7756	1,148.44	82.7525	1,148.44	87.343	1,148.44	84.1087	1,148.44	85.6615	1,148.44	86.087	1,148.44	84.1812	1,148.44	86.4151	1,148.44	84.0093	1,148.44	84.4456	1,148.44	83.7623	1,148.44	80.8536	1,148.44	82.826	1,148.44	80.3079	1,148.44	82.4264	1,148.44	81.6742	1,148.44	81.979	1,148.44	83.5014	1,148.44	79.8392	1,148.44	85.0941	1,148.44	81.3544	1,148.44	83.6038	1,148.44	81.7499	1,148.44	73.7347	1,148.44	78.8237	1,148.44	77.7697	1,148.44	76.2378	1,148.44	80.0723	1,148.44	76.2455	1,148.44	75.7811	1,148.44	74.0709
1,189.45	87.8991	1,189.45	87.4618	1,189.45	87.9902	1,189.45	87.1676	1,189.45	87.0306	1,189.45	86.8952	1,189.45	84.8538	1,189.45	85.6942	1,189.45	82.5469	1,189.45	82.3509	1,189.45	81.9509	1,189.45	77.1205	1,189.45	82.8608	1,189.45	79.2224	1,189.45	84.176	1,189.45	82.7635	1,189.45	85.1679	1,189.45	84.0819	1,189.45	84.7919	1,189.45	84.2566	1,189.45	82.789	1,189.45	82.3999	1,189.45	79.5588	1,189.45	78.0821	1,189.45	72.1986	1,189.45	74.224	1,189.45	71.6215	1,189.45	76.6256	1,189.45	78.8926	1,189.45	78.8244	1,189.45	79.4326	1,189.45	79.1998	1,189.45	75.9756	1,189.45	79.5399	1,189.45	73.5648	1,189.45	77.8695
1,230.47	88.6097	1,230.47	88.6444	1,230.47	87.2839	1,230.47	87.2553	1,230.47	86.2177	1,230.47	85.651	1,230.47	86.3933	1,230.47	85.7619	1,230.47	85.3766	1,230.47	86.2152	1,230.47	82.1637	1,230.47	86.1119	1,230.47	77.4223	1,230.47	85.6968	1,230.47	74.5736	1,230.47	84.9878	1,230.47	80.3565	1,230.47	83.6189	1,230.47	81.565	1,230.47	81.8302	1,230.47	78.5837	1,230.47	82.0314	1,230.47	71.2588	1,230.47	82.2352	1,230.47	76.0482	1,230.47	82.1657	1,230.47	81.942	1,230.47	81.3786	1,230.47	81.0449	1,230.47	78.3571	1,230.47	74.1024	1,230.47	75.1541	1,230.47	77.368	1,230.47	75.9251	1,230.47	78.9087	1,230.47	77.1161
1,274.41	87.8334	1,274.41	88.256	1,274.41	87.9714	1,274.41	88.1406	1,274.41	87.2714	1,274.41	86.4961	1,274.41	84.7273	1,274.41	83.8488	1,274.41	82.7423	1,274.41	80.8169	1,274.41	83.0974	1,274.41	77.2892	1,274.41	84.3226	1,274.41	80.8038	1,274.41	85.8871	1,274.41	84.8606	1,274.41	86.7494	1,274.41	85.3572	1,274.41	86.7513	1,274.41	84.8123	1,274.41	86.2534	1,274.41	84.1686	1,274.41	85.0539	1,274.41	82.0984	1,274.41	82.5544	1,274.41	76.6259	1,274.41	75.9321	1,274.41	73.3066	1,274.41	72.4436	1,274.41	76.8452	1,274.41	80.3355	1,274.41	75.2457	1,274.41	79.0031	1,274.41	77.1804	1,274.41	73.798	1,274.41	76.8489
1,319.82	88.0826	1,319.82	88.184	1,319.82	88.5562	1,319.82	88.1229	1,319.82	87.9995	1,319.82	86.2251	1,319.82	85.7387	1,319.82	82.3344	1,319.82	83.6833	1,319.82	80.4528	1,319.82	83.3724	1,319.82	80.5576	1,319.82	82.8732	1,319.82	77.4909	1,319.82	81.8061	1,319.82	77.769	1,319.82	80.3363	1,319.82	79.4635	1,319.82	78.9848	1,319.82	78.3398	1,319.82	78.8955	1,319.82	75.2077	1,319.82	79.3839	1,319.82	66.4802	1,319.82	78.8102	1,319.82	74.0915	1,319.82	78.3594	1,319.82	79.7296	1,319.82	78.3347	1,319.82	79.2925	1,319.82	72.3848	1,319.82	75.3932	1,319.82	77.5508	1,319.82	75.1815	1,319.82	79.1534	1,319.82	74.4551
1,366.7	88.385	1,366.7	88.5852	1,366.7	87.4741	1,366.7	88.0702	1,366.7	86.6222	1,366.7	86.2334	1,366.7	85.9946	1,366.7	83.8958	1,366.7	83.1708	1,366.7	84.3634	1,366.7	76.1818	1,366.7	85.1434	1,366.7	77.2051	1,366.7	83.8835	1,366.7	81.4471	1,366.7	84.0108	1,366.7	83.8764	1,366.7	84.0889	1,366.7	84.1047	1,366.7	82.645	1,366.7	81.8867	1,366.7	79.7926	1,366.7	77.0018	1,366.7	76.347	1,366.7	76.4815	1,366.7	76.1109	1,366.7	81.72	1,366.7	81.2137	1,366.7	81.0637	1,366.7	79.1956	1,366.7	72.2529	1,366.7	72.0961	1,366.7	76.2911	1,366.7	71.8724	1,366.7	78.3645	1,366.7	74.4558
1,413.57	88.8196	1,413.57	88.7433	1,413.57	87.3141	1,413.57	87.3911	1,413.57	86.6843	1,413.57	86.1309	1,413.57	87.0777	1,413.57	85.4799	1,413.57	84.4545	1,413.57	84.386	1,413.57	78.2099	1,413.57	81.5639	1,413.57	77.6117	1,413.57	78.7152	1,413.57	80.9812	1,413.57	79.8027	1,413.57	82.838	1,413.57	79.2109	1,413.57	82.8925	1,413.57	76.4077	1,413.57	81.0261	1,413.57	72.6915	1,413.57	77.5253	1,413.57	71.5317	1,413.57	69.3446	1,413.57	75.126	1,413.57	69.1457	1,413.57	80.6569	1,413.57	77.3576	1,413.57	79.4248	1,413.57	77.5985	1,413.57	71.386	1,413.57	70.4994	1,413.57	64.7156	1,413.57	76.5742	1,413.57	73.826
1,463.38	88.7293	1,463.38	88.5893	1,463.38	87.305	1,463.38	86.938	1,463.38	87.0638	1,463.38	86.0619	1,463.38	87.1456	1,463.38	85.4883	1,463.38	85.0901	1,463.38	81.8453	1,463.38	82.4595	1,463.38	76.4825	1,463.38	81.4918	1,463.38	76.2549	1,463.38	81.4536	1,463.38	76.9655	1,463.38	81.7001	1,463.38	76.2917	1,463.38	83.0536	1,463.38	77.9586	1,463.38	82.7879	1,463.38	79.1758	1,463.38	81.3773	1,463.38	80.3135	1,463.38	78.4521	1,463.38	76.7508	1,463.38	68.4541	1,463.38	81.0572	1,463.38	79.903	1,463.38	78.5851	1,463.38	80.867	1,463.38	65.3944	1,463.38	69.42	1,463.38	66.1163	1,463.38	75.3303	1,463.38	74.9315
1,516.11	86.6929	1,516.11	87.2092	1,516.11	87.7686	1,516.11	87.441	1,516.11	87.8305	1,516.11	85.8038	1,516.11	84.6879	1,516.11	81.4866	1,516.11	85.5469	1,516.11	80.5532	1,516.11	87.1595	1,516.11	82.2871	1,516.11	85.6737	1,516.11	84.991	1,516.11	83.4821	1,516.11	85.1144	1,516.11	81.3547	1,516.11	82.837	1,516.11	80.545	1,516.11	79.1774	1,516.11	80.7787	1,516.11	77.1326	1,516.11	80.9814	1,516.11	78.4798	1,516.11	78.622	1,516.11	73.5241	1,516.11	68.4567	1,516.11	73.718	1,516.11	76.4258	1,516.11	75.5094	1,516.11	77.2854	1,516.11	73.8043	1,516.11	73.6093	1,516.11	71.2264	1,516.11	70.731	1,516.11	73.4429
1,568.85	86.2607	1,568.85	85.6428	1,568.85	86.9636	1,568.85	85.5028	1,568.85	86.7944	1,568.85	84.7755	1,568.85	85.8276	1,568.85	81.1912	1,568.85	85.5787	1,568.85	74.5615	1,568.85	83.3795	1,568.85	73.1196	1,568.85	77.4826	1,568.85	78.9518	1,568.85	71.0205	1,568.85	81.7973	1,568.85	62.5985	1,568.85	82.5182	1,568.85	60.1583	1,568.85	82.2258	1,568.85	72.0327	1,568.85	81.148	1,568.85	78.598	1,568.85	82.5991	1,568.85	82.0852	1,568.85	75.7035	1,568.85	80.7949	1,568.85	71.7748	1,568.85	68.1313	1,568.85	70.454	1,568.85	75.845	1,568.85	74.6613	1,568.85	76.3243	1,568.85	69.9755	1,568.85	65.0225	1,568.85	65.2912
1,624.51	86.4206	1,624.51	86.2847	1,624.51	86.9292	1,624.51	85.3728	1,624.51	86.7896	1,624.51	83.7113	1,624.51	86.0225	1,624.51	82.1841	1,624.51	84.202	1,624.51	77.9969	1,624.51	79.3885	1,624.51	71.6485	1,624.51	78.725	1,624.51	71.5255	1,624.51	80.2916	1,624.51	77.2001	1,624.51	82.5701	1,624.51	75.7075	1,624.51	80.5156	1,624.51	75.0394	1,624.51	76.0136	1,624.51	67.2308	1,624.51	71.0432	1,624.51	71.2504	1,624.51	77.9236	1,624.51	75.897	1,624.51	78.2922	1,624.51	72.7704	1,624.51	67.4875	1,624.51	75.4761	1,624.51	75.4297	1,624.51	75.9741	1,624.51	64.3638	1,624.51	69.4632	1,624.51	70.0941	1,624.51	67.117
1,681.64	87.6873	1,681.64	85.8941	1,681.64	87.8864	1,681.64	85.4279	1,681.64	86.5087	1,681.64	84.0476	1,681.64	87.5958	1,681.64	78.7148	1,681.64	86.7853	1,681.64	73.1615	1,681.64	81.3186	1,681.64	77.4885	1,681.64	79.4984	1,681.64	79.7193	1,681.64	78.5273	1,681.64	78.3525	1,681.64	78.9263	1,681.64	78.8	1,681.64	77.291	1,681.64	78.5508	1,681.64	72.9142	1,681.64	74.1744	1,681.64	64.9375	1,681.64	68.8969	1,681.64	77.4396	1,681.64	74.3035	1,681.64	75.7754	1,681.64	76.4271	1,681.64	71.6527	1,681.64	74.9203	1,681.64	74.9266	1,681.64	74.039	1,681.64	72.2214	1,681.64	71.8889	1,681.64	68.5335	1,681.64	67.9469
1,741.7	88.246	1,741.7	87.0964	1,741.7	87.4275	1,741.7	85.3135	1,741.7	86.8237	1,741.7	83.6562	1,741.7	87.9156	1,741.7	80.697	1,741.7	84.2106	1,741.7	74.3641	1,741.7	79.1423	1,741.7	77.0007	1,741.7	84.4151	1,741.7	82.3246	1,741.7	84.3082	1,741.7	81.7375	1,741.7	82.5846	1,741.7	81.3431	1,741.7	82.346	1,741.7	80.331	1,741.7	79.925	1,741.7	78.442	1,741.7	68.9263	1,741.7	74.2663	1,741.7	76.3364	1,741.7	76.0637	1,741.7	80.1012	1,741.7	76.3582	1,741.7	69.0236	1,741.7	72.6303	1,741.7	75.1729	1,741.7	71.9431	1,741.7	74.2552	1,741.7	70.4923	1,741.7	67.5099	1,741.7	70.3935
1,803.22	87.3395	1,803.22	87.0472	1,803.22	87.8775	1,803.22	85.5082	1,803.22	88.1579	1,803.22	82.3007	1,803.22	87.2747	1,803.22	79.8507	1,803.22	85.3722	1,803.22	79.2166	1,803.22	82.642	1,803.22	78.0825	1,803.22	82.3906	1,803.22	76.3185	1,803.22	81.4908	1,803.22	78.441	1,803.22	80.7927	1,803.22	81.0632	1,803.22	80.9404	1,803.22	79.6207	1,803.22	79.759	1,803.22	79.8236	1,803.22	73.9962	1,803.22	76.652	1,803.22	69.7885	1,803.22	74.7893	1,803.22	77.3297	1,803.22	68.8108	1,803.22	76.3422	1,803.22	67.3145	1,803.22	69.958	1,803.22	74.2619	1,803.22	73.2934	1,803.22	70.4927	1,803.22	62.725	1,803.22	63.0532
1,866.21	86.3112	1,866.21	85.7209	1,866.21	86.8987	1,866.21	85.004	1,866.21	87.9524	1,866.21	83.3561	1,866.21	87.2307	1,866.21	81.4206	1,866.21	83.8985	1,866.21	78.4831	1,866.21	83.888	1,866.21	71.7548	1,866.21	84.9129	1,866.21	78.8811	1,866.21	81.437	1,866.21	79.826	1,866.21	79.9571	1,866.21	79.6719	1,866.21	77.7026	1,866.21	76.8512	1,866.21	73.2976	1,866.21	70.01	1,866.21	75.1853	1,866.21	74.2657	1,866.21	66.3805	1,866.21	68.0767	1,866.21	77.378	1,866.21	73.1164	1,866.21	73.8652	1,866.21	71.8569	1,866.21	72.1175	1,866.21	72.2455	1,866.21	71.5595	1,866.21	67.7488	1,866.21	65.0028	1,866.21	46.1299
1,932.13	85.2716	1,932.13	86.1203	1,932.13	86.4878	1,932.13	84.6644	1,932.13	87.2659	1,932.13	82.5821	1,932.13	86.3731	1,932.13	82.3777	1,932.13	86.4207	1,932.13	79.9613	1,932.13	84.81	1,932.13	69.0082	1,932.13	83.5072	1,932.13	78.5328	1,932.13	76.3528	1,932.13	81.6111	1,932.13	73.3133	1,932.13	81.1162	1,932.13	72.4196	1,932.13	78.6652	1,932.13	71.5835	1,932.13	73.1883	1,932.13	76.4003	1,932.13	73.7867	1,932.13	76.7174	1,932.13	57.398	1,932.13	73.2729	1,932.13	74.3339	1,932.13	69.4603	1,932.13	74.6191	1,932.13	77.0519	1,932.13	75.3671	1,932.13	66.3809	1,932.13	68.1233	1,932.13	73.3237	1,932.13	69.1702
1,999.51	85.9921	1,999.51	84.6562	1,999.51	87.259	1,999.51	85.278	1,999.51	87.1568	1,999.51	84.5261	1,999.51	86.7035	1,999.51	80.7088	1,999.51	85.0729	1,999.51	80.5752	1,999.51	82.3542	1,999.51	79.0285	1,999.51	80.6644	1,999.51	77.3124	1,999.51	77.5509	1,999.51	76.7101	1,999.51	75.7464	1,999.51	73.0678	1,999.51	72.9427	1,999.51	73.4915	1,999.51	66.7326	1,999.51	68.4338	1,999.51	71.9792	1,999.51	70.6485	1,999.51	69.3931	1,999.51	72.5639	1,999.51	70.5823	1,999.51	71.2278	1,999.51	66.2828	1,999.51	72.3273	1,999.51	70.7993	1,999.51	71.889	1,999.51	73.0209	1,999.51	67.3398	1,999.51	66.7455	1,999.51	59.8644
2,069.82	86.4777	2,069.82	85.0663	2,069.82	87.9376	2,069.82	84.0819	2,069.82	87.8292	2,069.82	82.4047	2,069.82	86.1237	2,069.82	81.4415	2,069.82	83.3612	2,069.82	81.2099	2,069.82	81.2304	2,069.82	80.0268	2,069.82	79.8428	2,069.82	79.6282	2,069.82	77.2645	2,069.82	77.0708	2,069.82	77.3396	2,069.82	73.8517	2,069.82	75.1991	2,069.82	74.7505	2,069.82	69.9018	2,069.82	73.0244	2,069.82	62.4079	2,069.82	67.2472	2,069.82	68.5009	2,069.82	72.7485	2,069.82	66.7626	2,069.82	71.8118	2,069.82	65.9532	2,069.82	72.3049	2,069.82	66.4222	2,069.82	72.7392	2,069.82	71.9581	2,069.82	65.0223	2,069.82	66.7448	2,069.82	55.051
2,143.07	86.5167	2,143.07	85.6927	2,143.07	87.975	2,143.07	83.4019	2,143.07	88.1603	2,143.07	81.087	2,143.07	86.7001	2,143.07	82.2028	2,143.07	82.9569	2,143.07	81.469	2,143.07	79.7458	2,143.07	80.2856	2,143.07	78.3106	2,143.07	77.4723	2,143.07	76.349	2,143.07	75.2585	2,143.07	78.331	2,143.07	76.0403	2,143.07	77.1017	2,143.07	71.289	2,143.07	74.0949	2,143.07	73.1921	2,143.07	64.4266	2,143.07	71.7769	2,143.07	59.9838	2,143.07	71.3023	2,143.07	59.7309	2,143.07	73.5945	2,143.07	66.981	2,143.07	71.9343	2,143.07	64.4886	2,143.07	71.9743	2,143.07	69.5402	2,143.07	65.2176	2,143.07	65.345	2,143.07	60.563
2,219.24	85.9754	2,219.24	85.4772	2,219.24	87.1282	2,219.24	83.8059	2,219.24	87.6879	2,219.24	81.7903	2,219.24	86.7703	2,219.24	81.7813	2,219.24	82.5942	2,219.24	81.2802	2,219.24	80.3185	2,219.24	80.2372	2,219.24	78.2015	2,219.24	78.39	2,219.24	73.8787	2,219.24	75.9635	2,219.24	73.5524	2,219.24	73.0308	2,219.24	77.3301	2,219.24	70.5838	2,219.24	76.4486	2,219.24	71.4343	2,219.24	70.4202	2,219.24	73.0289	2,219.24	61.3297	2,219.24	70.837	2,219.24	67.2583	2,219.24	73.3074	2,219.24	68.3113	2,219.24	71.4356	2,219.24	61.6059	2,219.24	72.3985	2,219.24	69.0524	2,219.24	63.4269	2,219.24	66.1314	2,219.24	52.8969
2,296.88	85.5106	2,296.88	84.4133	2,296.88	86.3207	2,296.88	83.6398	2,296.88	86.6387	2,296.88	82.9974	2,296.88	85.6383	2,296.88	81.7953	2,296.88	82.5856	2,296.88	81.4916	2,296.88	81.4993	2,296.88	81.0424	2,296.88	79.4179	2,296.88	77.8102	2,296.88	76.7439	2,296.88	75.7201	2,296.88	71.0324	2,296.88	74.2184	2,296.88	75.6868	2,296.88	72.5194	2,296.88	75.3489	2,296.88	72.8874	2,296.88	71.3641	2,296.88	74.1086	2,296.88	69.2425	2,296.88	69.8484	2,296.88	71.7363	2,296.88	73.9912	2,296.88	67.5796	2,296.88	71.232	2,296.88	63.0244	2,296.88	70.7612	2,296.88	64.615	2,296.88	64.892	2,296.88	66.9879	2,296.88	63.72
2,378.91	85.8046	2,378.91	83.253	2,378.91	86.3307	2,378.91	82.6003	2,378.91	84.6931	2,378.91	82.4523	2,378.91	82.8829	2,378.91	80.9646	2,378.91	81.0348	2,378.91	81.9139	2,378.91	81.2919	2,378.91	81.2754	2,378.91	80.2187	2,378.91	80.1386	2,378.91	78.6493	2,378.91	79.7984	2,378.91	74.8796	2,378.91	76.1313	2,378.91	75.6781	2,378.91	75.5561	2,378.91	75.8755	2,378.91	70.1581	2,378.91	66.7992	2,378.91	75.0817	2,378.91	68.6467	2,378.91	71.4664	2,378.91	72.2805	2,378.91	72.5654	2,378.91	69.3006	2,378.91	70.3025	2,378.91	63.5128	2,378.91	70.2338	2,378.91	62.4691	2,378.91	67.038	2,378.91	65.8457	2,378.91	63.9415
2,462.4	86.898	2,462.4	83.9642	2,462.4	87.3165	2,462.4	80.907	2,462.4	84.3764	2,462.4	80.8274	2,462.4	80.2171	2,462.4	82.1591	2,462.4	79.4005	2,462.4	81.9674	2,462.4	81.0167	2,462.4	81.7304	2,462.4	80.5624	2,462.4	80.6695	2,462.4	77.6346	2,462.4	77.5032	2,462.4	75.4128	2,462.4	74.4789	2,462.4	76.3357	2,462.4	73.9743	2,462.4	72.625	2,462.4	72.1496	2,462.4	67.0887	2,462.4	71.9972	2,462.4	63.8738	2,462.4	73.3751	2,462.4	70.5387	2,462.4	71.454	2,462.4	68.3501	2,462.4	69.4772	2,462.4	65.191	2,462.4	68.172	2,462.4	58.2508	2,462.4	63.5863	2,462.4	66.4242	2,462.4	66.5278
2,548.83	86.2262	2,548.83	83.7876	2,548.83	87.0701	2,548.83	79.0255	2,548.83	85.2843	2,548.83	78.2851	2,548.83	81.6723	2,548.83	81.8149	2,548.83	80.1105	2,548.83	81.7448	2,548.83	80.348	2,548.83	81.0724	2,548.83	78.6552	2,548.83	80.2667	2,548.83	74.8187	2,548.83	78.0838	2,548.83	76.558	2,548.83	75.6327	2,548.83	79.6986	2,548.83	72.0954	2,548.83	73.6293	2,548.83	72.0032	2,548.83	59.1723	2,548.83	72.092	2,548.83	63.1487	2,548.83	72.641	2,548.83	67.1862	2,548.83	71.1749	2,548.83	69.3588	2,548.83	70.4432	2,548.83	66.8221	2,548.83	65.4209	2,548.83	57.1037	2,548.83	64.3534	2,548.83	68.1102	2,548.83	69.9625
2,639.65	85.0484	2,639.65	83.0502	2,639.65	85.7446	2,639.65	80.2591	2,639.65	84.7713	2,639.65	78.3838	2,639.65	81.6306	2,639.65	80.7844	2,639.65	82.021	2,639.65	80.8003	2,639.65	81.9057	2,639.65	81.0674	2,639.65	81.0953	2,639.65	78.9977	2,639.65	76.3779	2,639.65	74.9182	2,639.65	72.8722	2,639.65	73.0028	2,639.65	78.7099	2,639.65	70.794	2,639.65	77.0919	2,639.65	73.054	2,639.65	71.7952	2,639.65	70.8474	2,639.65	56.743	2,639.65	72.6501	2,639.65	59.9804	2,639.65	71.0371	2,639.65	65.9446	2,639.65	70.3801	2,639.65	64.2168	2,639.65	63.9712	2,639.65	47.344	2,639.65	61.3841	2,639.65	66.2509	2,639.65	68.8859
2,731.93	84.8945	2,731.93	83.5205	2,731.93	84.4513	2,731.93	82.5253	2,731.93	81.7708	2,731.93	77.4779	2,731.93	78.3582	2,731.93	78.5451	2,731.93	81.3169	2,731.93	81.0541	2,731.93	82.1421	2,731.93	81.1226	2,731.93	80.39	2,731.93	78.6884	2,731.93	77.5314	2,731.93	77.1409	2,731.93	75.1569	2,731.93	73.9386	2,731.93	74.7159	2,731.93	70.9714	2,731.93	72.0442	2,731.93	70.0057	2,731.93	67.5162	2,731.93	71.9988	2,731.93	64.5498	2,731.93	71.061	2,731.93	64.4518	2,731.93	70.6577	2,731.93	62.294	2,731.93	67.6576	2,731.93	50.2628	2,731.93	60.9894	2,731.93	56.5877	2,731.93	61.5488	2,731.93	64.3471	2,731.93	67.2165
2,828.61	85.2094	2,828.61	85.4878	2,828.61	84.1033	2,828.61	82.8026	2,828.61	78.3172	2,828.61	75.1153	2,828.61	76.0681	2,828.61	76.8686	2,828.61	80.443	2,828.61	81.5377	2,828.61	82.0515	2,828.61	80.0556	2,828.61	80.1206	2,828.61	77.9381	2,828.61	78.3191	2,828.61	76.5327	2,828.61	76.631	2,828.61	74.8772	2,828.61	69.94	2,828.61	71.8292	2,828.61	71.1755	2,828.61	70.7387	2,828.61	69.3053	2,828.61	69.5982	2,828.61	68.5497	2,828.61	69.6126	2,828.61	61.4422	2,828.61	68.2262	2,828.61	63.8039	2,828.61	67.6033	2,828.61	57.5932	2,828.61	60.3812	2,828.61	58.168	2,828.61	65.362	2,828.61	66.6433	2,828.61	70.2978
2,928.22	86.1925	2,928.22	87.414	2,928.22	83.3961	2,928.22	83.6971	2,928.22	77.0668	2,928.22	72.6865	2,928.22	76.9177	2,928.22	75.8691	2,928.22	81.0376	2,928.22	80.5372	2,928.22	82.9768	2,928.22	79.9344	2,928.22	81.3436	2,928.22	79.0667	2,928.22	78.0828	2,928.22	76.4587	2,928.22	74.419	2,928.22	72.4735	2,928.22	70.7769	2,928.22	69.1532	2,928.22	76.1463	2,928.22	64.9272	2,928.22	70.6505	2,928.22	68.2461	2,928.22	66.238	2,928.22	67.333	2,928.22	60.7486	2,928.22	69.1428	2,928.22	59.7897	2,928.22	66.8566	2,928.22	40.7748	2,928.22	60.1095	2,928.22	60.0897	2,928.22	66.5785	2,928.22	67.8718	2,928.22	67.8021
3,030.76	86.8001	3,030.76	87.6518	3,030.76	82.6048	3,030.76	84.0374	3,030.76	74.4014	3,030.76	69.4954	3,030.76	76.717	3,030.76	75.2417	3,030.76	82.4956	3,030.76	78.7429	3,030.76	83.6114	3,030.76	78.9985	3,030.76	81.7616	3,030.76	77.1433	3,030.76	79.1089	3,030.76	70.4052	3,030.76	71.6251	3,030.76	69.4432	3,030.76	75.676	3,030.76	67.1937	3,030.76	77.0088	3,030.76	65.0434	3,030.76	59.2511	3,030.76	67.6732	3,030.76	65.5054	3,030.76	66.9845	3,030.76	64.4964	3,030.76	65.4697	3,030.76	62.9135	3,030.76	65.7297	3,030.76	59.1433	3,030.76	61.8991	3,030.76	62.8675	3,030.76	68.3933	3,030.76	67.2419	3,030.76	69.1029
3,137.7	86.8313	3,137.7	87.4581	3,137.7	82.0696	3,137.7	84.426	3,137.7	68.9492	3,137.7	70.9433	3,137.7	77.1294	3,137.7	76.5931	3,137.7	82.8945	3,137.7	78.7389	3,137.7	83.275	3,137.7	76.2985	3,137.7	81.1674	3,137.7	71.2892	3,137.7	79.923	3,137.7	72.8228	3,137.7	73.4476	3,137.7	72.2253	3,137.7	77.6071	3,137.7	68.7901	3,137.7	73.8221	3,137.7	66.4903	3,137.7	60.0046	3,137.7	65.1395	3,137.7	62.36	3,137.7	66.4718	3,137.7	64.6048	3,137.7	64.5916	3,137.7	61.2694	3,137.7	62.9952	3,137.7	61.7528	3,137.7	60.5925	3,137.7	64.9374	3,137.7	67.0308	3,137.7	67.1466	3,137.7	69.2995
3,249.02	86.6812	3,249.02	86.729	3,249.02	81.6712	3,249.02	83.135	3,249.02	59.8192	3,249.02	70.6738	3,249.02	79.8048	3,249.02	77.0452	3,249.02	82.5077	3,249.02	77.6483	3,249.02	82.0006	3,249.02	76.7384	3,249.02	81.2424	3,249.02	75.542	3,249.02	80.1055	3,249.02	73.9079	3,249.02	78.008	3,249.02	67.3618	3,249.02	78.9967	3,249.02	67.32	3,249.02	69.1243	3,249.02	67.0074	3,249.02	66.5966	3,249.02	66.804	3,249.02	56.7941	3,249.02	67.0025	3,249.02	65.0434	3,249.02	66.7371	3,249.02	64.3851	3,249.02	64.0055	3,249.02	65.1628	3,249.02	59.1355	3,249.02	66.5475	3,249.02	65.0478	3,249.02	68.1223	3,249.02	67.0372
3,363.28	86.6891	3,363.28	86.9921	3,363.28	81.6859	3,363.28	81.7878	3,363.28	66.4929	3,363.28	66.1372	3,363.28	80.1924	3,363.28	77.2474	3,363.28	82.642	3,363.28	78.6776	3,363.28	81.091	3,363.28	77.8699	3,363.28	81.979	3,363.28	76.7026	3,363.28	79.3312	3,363.28	73.9359	3,363.28	78.2761	3,363.28	73.4628	3,363.28	79.4202	3,363.28	71.0768	3,363.28	61.9536	3,363.28	67.7478	3,363.28	65.3372	3,363.28	69.5097	3,363.28	61.8392	3,363.28	67.0789	3,363.28	65.9217	3,363.28	68.3688	3,363.28	65.9564	3,363.28	66.7182	3,363.28	67.1252	3,363.28	59.0497	3,363.28	68.0845	3,363.28	66.5433	3,363.28	66.7189	3,363.28	66.6578
3,481.93	87.1691	3,481.93	87.045	3,481.93	82.5734	3,481.93	80.9571	3,481.93	53.0837	3,481.93	75.3393	3,481.93	80.1768	3,481.93	78.6504	3,481.93	82.0323	3,481.93	81.1267	3,481.93	80.9003	3,481.93	80.6965	3,481.93	82.7153	3,481.93	78.5561	3,481.93	78.2171	3,481.93	77.4654	3,481.93	79.026	3,481.93	74.8576	3,481.93	77.5352	3,481.93	69.1723	3,481.93	71.1088	3,481.93	67.5124	3,481.93	66.887	3,481.93	68.4223	3,481.93	66.2229	3,481.93	67.7834	3,481.93	66.4627	3,481.93	70.2509	3,481.93	67.4123	3,481.93	69.1182	3,481.93	68.4502	3,481.93	62.1656	3,481.93	68.3615	3,481.93	67.8662	3,481.93	67.1977	3,481.93	69.5354
3,604.98	87.4154	3,604.98	86.2556	3,604.98	82.6651	3,604.98	81.5356	3,604.98	71.8207	3,604.98	80.1854	3,604.98	81.3669	3,604.98	80.9732	3,604.98	83.2116	3,604.98	83.1696	3,604.98	83.2195	3,604.98	82.303	3,604.98	83.5228	3,604.98	80.2894	3,604.98	78.8816	3,604.98	75.6629	3,604.98	77.5383	3,604.98	73.8007	3,604.98	74.5409	3,604.98	69.3189	3,604.98	72.1816	3,604.98	68.8102	3,604.98	66.5076	3,604.98	68.693	3,604.98	63.3041	3,604.98	67.8608	3,604.98	65.9138	3,604.98	70.0878	3,604.98	69.1934	3,604.98	68.8782	3,604.98	70.8959	3,604.98	64.6859	3,604.98	67.4836	3,604.98	69.2927	3,604.98	69.2896	3,604.98	71.6017
3,732.42	87.519	3,732.42	86.4299	3,732.42	83.0484	3,732.42	84.5446	3,732.42	77.0469	3,732.42	80.9694	3,732.42	83.1931	3,732.42	82.9777	3,732.42	83.8589	3,732.42	84.2543	3,732.42	83.6296	3,732.42	82.7337	3,732.42	83.0471	3,732.42	77.8322	3,732.42	78.6271	3,732.42	74.4473	3,732.42	78.0239	3,732.42	73.3089	3,732.42	74.7458	3,732.42	65.4682	3,732.42	68.5279	3,732.42	65.2624	3,732.42	70.4642	3,732.42	64.2896	3,732.42	61.9654	3,732.42	68.0435	3,732.42	64.6886	3,732.42	68.4712	3,732.42	67.9793	3,732.42	68.8503	3,732.42	70.7958	3,732.42	66.0036	3,732.42	66.5548	3,732.42	68.1788	3,732.42	70.2078	3,732.42	71.9445
3,864.26	86.3623	3,864.26	86.9073	3,864.26	82.0841	3,864.26	85.8099	3,864.26	80.4946	3,864.26	79.5097	3,864.26	85.7454	3,864.26	83.7322	3,864.26	85.2715	3,864.26	84.3139	3,864.26	84.0361	3,864.26	80.3978	3,864.26	83.2159	3,864.26	76.7373	3,864.26	79.9793	3,864.26	75.2487	3,864.26	75.5647	3,864.26	71.1966	3,864.26	73.0739	3,864.26	71.0348	3,864.26	53.32	3,864.26	67.2903	3,864.26	64.9293	3,864.26	63.7492	3,864.26	67.9536	3,864.26	67.72	3,864.26	67.7693	3,864.26	65.5182	3,864.26	68.0724	3,864.26	69.6072	3,864.26	70.6493	3,864.26	66.2402	3,864.26	65.9088	3,864.26	62.7077	3,864.26	71.3795	3,864.26	70.4341
4,000.49	86.1295	4,000.49	87.0877	4,000.49	81.4839	4,000.49	85.5894	4,000.49	81.3916	4,000.49	80.5685	4,000.49	85.9944	4,000.49	84.5946	4,000.49	83.9784	4,000.49	82.9051	4,000.49	83.7735	4,000.49	78.6322	4,000.49	83.0697	4,000.49	75.8524	4,000.49	77.2895	4,000.49	74.284	4,000.49	76.9939	4,000.49	74.9146	4,000.49	76.5716	4,000.49	71.0585	4,000.49	70.0397	4,000.49	69.3742	4,000.49	70.6678	4,000.49	65.9798	4,000.49	58.7281	4,000.49	68.0246	4,000.49	63.0031	4,000.49	64.3999	4,000.49	68.2421	4,000.49	67.8199	4,000.49	70.4852	4,000.49	66.0543	4,000.49	65.9404	4,000.49	64.9113	4,000.49	71.6355	4,000.49	69.8876
4,141.11	86.2847	4,141.11	87.9225	4,141.11	82.1305	4,141.11	84.4635	4,141.11	81.6065	4,141.11	81.8401	4,141.11	87.5802	4,141.11	84.7982	4,141.11	83.6718	4,141.11	81.9214	4,141.11	83.1066	4,141.11	79.5465	4,141.11	81.2965	4,141.11	78.3138	4,141.11	73.89	4,141.11	80.2762	4,141.11	76.0031	4,141.11	76.1039	4,141.11	78.1281	4,141.11	72.649	4,141.11	74.4449	4,141.11	69.3648	4,141.11	74.7845	4,141.11	66.119	4,141.11	59.3172	4,141.11	69.0967	4,141.11	67.2113	4,141.11	65.432	4,141.11	69.2694	4,141.11	69.9371	4,141.11	70.9617	4,141.11	66.98	4,141.11	65.951	4,141.11	64.1466	4,141.11	71.2447	4,141.11	71.5256
4,287.6	86.1517	4,287.6	88.8963	4,287.6	80.9645	4,287.6	84.0241	4,287.6	82.5701	4,287.6	83.1173	4,287.6	87.7608	4,287.6	84.9852	4,287.6	84.0758	4,287.6	81.8349	4,287.6	81.9206	4,287.6	80.4171	4,287.6	77.9708	4,287.6	80.6026	4,287.6	77.7271	4,287.6	77.6117	4,287.6	78.2343	4,287.6	74.9268	4,287.6	76.2742	4,287.6	73.4051	4,287.6	75.3994	4,287.6	67.6605	4,287.6	76.3875	4,287.6	68.3126	4,287.6	62.2486	4,287.6	69.4424	4,287.6	70.004	4,287.6	66.7749	4,287.6	69.9545	4,287.6	68.6002	4,287.6	71.2003	4,287.6	68.1606	4,287.6	64.829	4,287.6	66.6947	4,287.6	71.5499	4,287.6	71.671
4,438.48	87.1669	4,438.48	87.3232	4,438.48	81.1228	4,438.48	80.5606	4,438.48	84.093	4,438.48	85.1353	4,438.48	87.7602	4,438.48	84.0453	4,438.48	83.2395	4,438.48	82.1067	4,438.48	78.7053	4,438.48	81.7606	4,438.48	74.944	4,438.48	79.6893	4,438.48	79.8871	4,438.48	78.3761	4,438.48	78.6212	4,438.48	75.4629	4,438.48	72.5432	4,438.48	70.1025	4,438.48	70.1132	4,438.48	68.2882	4,438.48	74.3261	4,438.48	66.2864	4,438.48	59.3549	4,438.48	68.3825	4,438.48	68.6408	4,438.48	58.0116	4,438.48	69.5999	4,438.48	67.8278	4,438.48	69.9553	4,438.48	66.4227	4,438.48	62.0686	4,438.48	64.3133	4,438.48	71.4921	4,438.48	68.4162
4,595.21	88.041	4,595.21	86.6244	4,595.21	81.2201	4,595.21	80.6489	4,595.21	83.466	4,595.21	84.0297	4,595.21	87.8649	4,595.21	81.6205	4,595.21	82.5842	4,595.21	82.3453	4,595.21	77.7071	4,595.21	81.2095	4,595.21	79.0263	4,595.21	79.7873	4,595.21	81.3763	4,595.21	73.8078	4,595.21	77.3819	4,595.21	69.3492	4,595.21	72.2943	4,595.21	68.473	4,595.21	65.8279	4,595.21	61.449	4,595.21	71.8108	4,595.21	63.2079	4,595.21	55.6476	4,595.21	64.196	4,595.21	64.8789	4,595.21	64.2492	4,595.21	64.4087	4,595.21	65.8484	4,595.21	68.0078	4,595.21	63.5402	4,595.21	59.1916	4,595.21	62.9783	4,595.21	71.0795	4,595.21	68.7577
4,756.35	87.9248	4,756.35	85.958	4,756.35	83.4156	4,756.35	82.9179	4,756.35	81.9535	4,756.35	83.5324	4,756.35	87.0622	4,756.35	81.6336	4,756.35	83.0773	4,756.35	81.9717	4,756.35	76.2583	4,756.35	79.4677	4,756.35	82.025	4,756.35	72.3514	4,756.35	78.6778	4,756.35	73.8422	4,756.35	73.2187	4,756.35	69.1874	4,756.35	69.0222	4,756.35	67.1316	4,756.35	66.4542	4,756.35	62.7208	4,756.35	69.5131	4,756.35	65.0932	4,756.35	60.0221	4,756.35	63.5045	4,756.35	64.4524	4,756.35	64.8889	4,756.35	64.2091	4,756.35	59.3651	4,756.35	65.6052	4,756.35	60.0988	4,756.35	58.7988	4,756.35	62.4731	4,756.35	70.0151	4,756.35	66.8326
4,924.8	86.8763	4,924.8	83.734	4,924.8	83.757	4,924.8	81.9531	4,924.8	81.2873	4,924.8	80.9165	4,924.8	84.6526	4,924.8	81.1855	4,924.8	82.4415	4,924.8	80.7346	4,924.8	75.2455	4,924.8	75.3541	4,924.8	81.8239	4,924.8	75.5722	4,924.8	77.2301	4,924.8	74.6987	4,924.8	71.5466	4,924.8	72.9202	4,924.8	70.9822	4,924.8	69.7307	4,924.8	64.1516	4,924.8	64.2237	4,924.8	69.5406	4,924.8	64.8975	4,924.8	62.2207	4,924.8	62.947	4,924.8	59.6376	4,924.8	65.4722	4,924.8	59.6268	4,924.8	65.0093	4,924.8	64.3187	4,924.8	61.6852	4,924.8	61.3493	4,924.8	57.8023	4,924.8	69.5303	4,924.8	64.7397
5,097.66	86.2842	5,097.66	83.1899	5,097.66	84.6821	5,097.66	81.5024	5,097.66	82.0884	5,097.66	80.6352	5,097.66	82.6746	5,097.66	83.4685	5,097.66	80.3314	5,097.66	80.3639	5,097.66	76.6665	5,097.66	79.4474	5,097.66	79.5987	5,097.66	78.4039	5,097.66	73.9717	5,097.66	77.4625	5,097.66	73.367	5,097.66	72.9905	5,097.66	71.1729	5,097.66	70.0669	5,097.66	60.5974	5,097.66	65.0164	5,097.66	66.5033	5,097.66	62.2836	5,097.66	52.478	5,097.66	63.1775	5,097.66	55.8245	5,097.66	67.0516	5,097.66	65.6605	5,097.66	65.1966	5,097.66	63.5948	5,097.66	64.1444	5,097.66	55.2136	5,097.66	55.8403	5,097.66	69.7444	5,097.66	66.5106
5,277.83	87.3079	5,277.83	84.8663	5,277.83	85.5614	5,277.83	82.2952	5,277.83	84.2004	5,277.83	83.644	5,277.83	84.4498	5,277.83	84.484	5,277.83	80.0747	5,277.83	81.1444	5,277.83	78.8381	5,277.83	80.5845	5,277.83	77.5792	5,277.83	78.7956	5,277.83	71.441	5,277.83	75.3439	5,277.83	71.9522	5,277.83	70.551	5,277.83	69.8767	5,277.83	66.4506	5,277.83	64.7996	5,277.83	63.48	5,277.83	62.0856	5,277.83	61.825	5,277.83	58.8584	5,277.83	61.6266	5,277.83	56.3391	5,277.83	65.0894	5,277.83	65.0662	5,277.83	63.9992	5,277.83	60.949	5,277.83	63.3015	5,277.83	56.2817	5,277.83	60.3532	5,277.83	67.9054	5,277.83	66.7262
5,463.87	86.6454	5,463.87	84.3536	5,463.87	85.4239	5,463.87	82.5861	5,463.87	85.6258	5,463.87	85.105	5,463.87	85.158	5,463.87	82.8004	5,463.87	80.8616	5,463.87	80.9253	5,463.87	79.2293	5,463.87	79.0672	5,463.87	75.9853	5,463.87	74.8231	5,463.87	74.7388	5,463.87	71.6526	5,463.87	67.9255	5,463.87	68.7883	5,463.87	69.8949	5,463.87	66.274	5,463.87	66.5805	5,463.87	59.9977	5,463.87	63.4489	5,463.87	58.5817	5,463.87	52.9732	5,463.87	57.1059	5,463.87	59.0617	5,463.87	60.2024	5,463.87	59.5563	5,463.87	56.8807	5,463.87	61.222	5,463.87	58.3792	5,463.87	60.8384	5,463.87	57.8451	5,463.87	66.3791	5,463.87	66.5586
5,657.23	85.9717	5,657.23	83.7231	5,657.23	85.0569	5,657.23	83.5786	5,657.23	85.5229	5,657.23	84.2827	5,657.23	84.2771	5,657.23	80.2499	5,657.23	81.0729	5,657.23	80.3199	5,657.23	77.7492	5,657.23	75.9131	5,657.23	74.5866	5,657.23	71.8184	5,657.23	76.0625	5,657.23	69.3056	5,657.23	70.8541	5,657.23	69.6595	5,657.23	67.5488	5,657.23	64.822	5,657.23	63.0945	5,657.23	61.1237	5,657.23	65.3201	5,657.23	58.4259	5,657.23	45.6027	5,657.23	60.229	5,657.23	61.0725	5,657.23	61.4327	5,657.23	60.2374	5,657.23	58.0755	5,657.23	60.7419	5,657.23	58.6765	5,657.23	60.3163	5,657.23	53.7545	5,657.23	66.1179	5,657.23	64.0493
5,856.45	86.4765	5,856.45	84.6185	5,856.45	83.7029	5,856.45	83.9674	5,856.45	84.1851	5,856.45	82.5882	5,856.45	83.8057	5,856.45	80.9941	5,856.45	81.3411	5,856.45	80.9401	5,856.45	78.1759	5,856.45	74.6725	5,856.45	75.922	5,856.45	77.0315	5,856.45	76.0197	5,856.45	73.8368	5,856.45	73.4796	5,856.45	72.0842	5,856.45	70.9414	5,856.45	67.3384	5,856.45	60.1108	5,856.45	64.1042	5,856.45	63.8746	5,856.45	60.1645	5,856.45	52.831	5,856.45	59.0238	5,856.45	54.3783	5,856.45	64.8255	5,856.45	52.7217	5,856.45	61.1357	5,856.45	58.2967	5,856.45	60.0412	5,856.45	58.9347	5,856.45	42.1171	5,856.45	65.9043	5,856.45	64.4899
6,062.99	87.7237	6,062.99	83.676	6,062.99	84.5635	6,062.99	84.6352	6,062.99	84.2165	6,062.99	81.9413	6,062.99	83.231	6,062.99	82.6078	6,062.99	82.6049	6,062.99	78.9794	6,062.99	78.6147	6,062.99	78.2915	6,062.99	77.0419	6,062.99	77.277	6,062.99	76.1389	6,062.99	73.4472	6,062.99	74.9691	6,062.99	68.5925	6,062.99	72.8233	6,062.99	63.8089	6,062.99	68.237	6,062.99	60.395	6,062.99	47.3671	6,062.99	56.0819	6,062.99	46.1217	6,062.99	52.0569	6,062.99	55.4188	6,062.99	60.645	6,062.99	63.9417	6,062.99	58.4825	6,062.99	63.4018	6,062.99	54.2186	6,062.99	46.0168	6,062.99	50.7914	6,062.99	61.9955	6,062.99	64.5706
6,276.86	86.7977	6,276.86	84.1166	6,276.86	85.2881	6,276.86	85.6773	6,276.86	86.8994	6,276.86	83.3487	6,276.86	83.7598	6,276.86	82.6289	6,276.86	81.9334	6,276.86	78.4267	6,276.86	77.5451	6,276.86	78.004	6,276.86	75.1584	6,276.86	71.241	6,276.86	74.3823	6,276.86	63.2253	6,276.86	73.4795	6,276.86	61.284	6,276.86	66.9881	6,276.86	59.3642	6,276.86	62.9521	6,276.86	58.659	6,276.86	66.0274	6,276.86	53.7339	6,276.86	54.7378	6,276.86	59.5482	6,276.86	56.3918	6,276.86	58.959	6,276.86	65.2758	6,276.86	53.7395	6,276.86	62.8901	6,276.86	57.14	6,276.86	57.0235	6,276.86	53.6459	6,276.86	61.5363	6,276.86	61.904
6,498.05	86.8095	6,498.05	85.7668	6,498.05	85.0584	6,498.05	85.9854	6,498.05	85.889	6,498.05	83.6802	6,498.05	84.8063	6,498.05	82.3538	6,498.05	81.0467	6,498.05	80.5118	6,498.05	78.8883	6,498.05	76.4852	6,498.05	72.4271	6,498.05	72.4014	6,498.05	75.2162	6,498.05	69.9553	6,498.05	68.2487	6,498.05	68.6454	6,498.05	64.7227	6,498.05	64.2846	6,498.05	55.4435	6,498.05	61.4474	6,498.05	65.7792	6,498.05	57.4202	6,498.05	43.5752	6,498.05	60.648	6,498.05	54.7552	6,498.05	62.8292	6,498.05	62.6155	6,498.05	57.4904	6,498.05	60.2586	6,498.05	61.3598	6,498.05	57.6933	6,498.05	50.7228	6,498.05	62.5495	6,498.05	60.9194
6,726.56	87.0843	6,726.56	86.2039	6,726.56	85.319	6,726.56	85.2973	6,726.56	84.024	6,726.56	83.912	6,726.56	84.932	6,726.56	81.8055	6,726.56	81.1782	6,726.56	81.0906	6,726.56	78.9864	6,726.56	74.4207	6,726.56	73.6757	6,726.56	74.6654	6,726.56	71.8675	6,726.56	69.955	6,726.56	55.6922	6,726.56	67.6102	6,726.56	64.5886	6,726.56	62.9373	6,726.56	52.0376	6,726.56	61.1039	6,726.56	61.7329	6,726.56	54.7704	6,726.56	52.758	6,726.56	58.4126	6,726.56	57.6459	6,726.56	60.8687	6,726.56	61.9321	6,726.56	57.2664	6,726.56	57.2711	6,726.56	59.0516	6,726.56	53.9649	6,726.56	53.4234	6,726.56	60.6411	6,726.56	61.5994
6,963.87	86.9986	6,963.87	85.666	6,963.87	86.0211	6,963.87	85.1985	6,963.87	85.4689	6,963.87	83.56	6,963.87	83.7735	6,963.87	82.1788	6,963.87	81.768	6,963.87	79.1775	6,963.87	78.9815	6,963.87	74.8467	6,963.87	72.6034	6,963.87	74.4588	6,963.87	66.6848	6,963.87	69.9289	6,963.87	65.9118	6,963.87	64.1007	6,963.87	66.548	6,963.87	60.0505	6,963.87	64.3479	6,963.87	56.2284	6,963.87	62.7001	6,963.87	52.1147	6,963.87	49.9559	6,963.87	58.0749	6,963.87	49.6428	6,963.87	60.6705	6,963.87	56.9223	6,963.87	57.0538	6,963.87	53.8191	6,963.87	53.9537	6,963.87	48.4824	6,963.87	55.9266	6,963.87	59.264	6,963.87	58.6883
7,209.96	87.0056	7,209.96	85.3715	7,209.96	85.4089	7,209.96	85.8172	7,209.96	85.3109	7,209.96	83.2887	7,209.96	83.1513	7,209.96	81.9728	7,209.96	81.9504	7,209.96	78.3245	7,209.96	78.9901	7,209.96	75.8977	7,209.96	70.0839	7,209.96	71.9154	7,209.96	73.1425	7,209.96	62.2769	7,209.96	65.3234	7,209.96	61.0317	7,209.96	64.6309	7,209.96	58.7915	7,209.96	61.4892	7,209.96	55.9565	7,209.96	51.3416	7,209.96	52.2697	7,209.96	45.8593	7,209.96	56.7719	7,209.96	43.3014	7,209.96	60.6527	7,209.96	60.0591	7,209.96	56.2967	7,209.96	56.2055	7,209.96	58.8255	7,209.96	52.9723	7,209.96	56.0698	7,209.96	58.4124	7,209.96	59.6636
7,464.84	87.1651	7,464.84	85.4014	7,464.84	85.2722	7,464.84	85.5703	7,464.84	85.1924	7,464.84	82.8876	7,464.84	83.9966	7,464.84	81.8193	7,464.84	81.0969	7,464.84	77.6092	7,464.84	78.2527	7,464.84	75.0772	7,464.84	66.6878	7,464.84	67.7026	7,464.84	71.6863	7,464.84	66.9411	7,464.84	61.2684	7,464.84	64.789	7,464.84	62.7788	7,464.84	61.6537	7,464.84	63.5611	7,464.84	52.0295	7,464.84	51.9558	7,464.84	41.429	7,464.84	48.9386	7,464.84	58.7079	7,464.84	51.8532	7,464.84	61.3814	7,464.84	60.0368	7,464.84	57.3391	7,464.84	57.5264	7,464.84	56.4207	7,464.84	52.942	7,464.84	56.5113	7,464.84	54.9277	7,464.84	57.9601
7,727.05	87.2953	7,727.05	85.5798	7,727.05	86.0214	7,727.05	85.6785	7,727.05	85.1969	7,727.05	82.6466	7,727.05	84.8659	7,727.05	80.6936	7,727.05	80.2335	7,727.05	77.5023	7,727.05	79.1777	7,727.05	69.8935	7,727.05	68.2387	7,727.05	71.6234	7,727.05	73.5222	7,727.05	65.589	7,727.05	57.1161	7,727.05	60.7529	7,727.05	66.2561	7,727.05	55.8851	7,727.05	63.1314	7,727.05	58.1005	7,727.05	62.2085	7,727.05	50.7987	7,727.05	54.049	7,727.05	53.4891	7,727.05	54.8443	7,727.05	58.6381	7,727.05	59.7038	7,727.05	56.8274	7,727.05	58.761	7,727.05	58.0553	7,727.05	50.3872	7,727.05	54.2051	7,727.05	53.5284	7,727.05	57.5906
7,999.51	86.7742	7,999.51	85.7781	7,999.51	86.1117	7,999.51	85.3809	7,999.51	85.0896	7,999.51	82.5402	7,999.51	84.3342	7,999.51	80.5479	7,999.51	80.0481	7,999.51	75.4276	7,999.51	77.5245	7,999.51	72.8827	7,999.51	71.1841	7,999.51	69.9548	7,999.51	68.8009	7,999.51	55.3163	7,999.51	60.555	7,999.51	61.3713	7,999.51	60.9419	7,999.51	56.8764	7,999.51	63.2383	7,999.51	51.2935	7,999.51	59.6458	7,999.51	41.7413	7,999.51	49.9959	7,999.51	54.0429	7,999.51	57.2218	7,999.51	58.8028	7,999.51	57.8272	7,999.51	58.3124	7,999.51	56.3651	7,999.51	60.3981	7,999.51	48.2692	7,999.51	60.4294	7,999.51	56.1274	7,999.51	54.0662
8,282.23	86.8665	8,282.23	86.4298	8,282.23	86.638	8,282.23	85.7816	8,282.23	84.6784	8,282.23	82.6024	8,282.23	82.9591	8,282.23	79.6297	8,282.23	79.4071	8,282.23	76.8289	8,282.23	74.9694	8,282.23	73.478	8,282.23	68.1123	8,282.23	67.5415	8,282.23	50.0086	8,282.23	66.6389	8,282.23	61.2095	8,282.23	62.0611	8,282.23	57.2581	8,282.23	58.7498	8,282.23	66.2812	8,282.23	56.2703	8,282.23	59.1119	8,282.23	44.4402	8,282.23	51.1096	8,282.23	55.1573	8,282.23	52.8513	8,282.23	58.7377	8,282.23	56.355	8,282.23	59.644	8,282.23	50.6522	8,282.23	60.8277	8,282.23	55.6405	8,282.23	59.1083	8,282.23	51.5336	8,282.23	48.5277
8,573.73	87.1632	8,573.73	86.752	8,573.73	87.16	8,573.73	85.7234	8,573.73	84.7876	8,573.73	82.3844	8,573.73	82.4742	8,573.73	80.0728	8,573.73	79.88	8,573.73	77.4752	8,573.73	73.8913	8,573.73	70.9904	8,573.73	69.0789	8,573.73	70.3576	8,573.73	57.9471	8,573.73	62.7782	8,573.73	52.263	8,573.73	60.1128	8,573.73	55.5152	8,573.73	54.7089	8,573.73	64.3459	8,573.73	54.3366	8,573.73	63.0884	8,573.73	42.9348	8,573.73	51.2953	8,573.73	49.6441	8,573.73	50.276	8,573.73	57.0578	8,573.73	54.6856	8,573.73	59.2371	8,573.73	50.8785	8,573.73	59.4322	8,573.73	54.1115	8,573.73	56.5573	8,573.73	50.1882	8,573.73	53.3283
8,876.95	87.2593	8,876.95	87.111	8,876.95	86.9602	8,876.95	85.5389	8,876.95	85.4248	8,876.95	82.7145	8,876.95	83.0516	8,876.95	79.8908	8,876.95	78.5799	8,876.95	75.2811	8,876.95	74.1019	8,876.95	70.9089	8,876.95	65.5349	8,876.95	66.0169	8,876.95	55.9442	8,876.95	59.0387	8,876.95	59.2058	8,876.95	60.3914	8,876.95	54.8905	8,876.95	58.323	8,876.95	64.7189	8,876.95	49.2248	8,876.95	63.9845	8,876.95	48.2556	8,876.95	42.5886	8,876.95	54.0865	8,876.95	45.4876	8,876.95	57.5296	8,876.95	51.2328	8,876.95	57.5962	8,876.95	48.9591	8,876.95	58.5543	8,876.95	51.7022	8,876.95	58.1521	8,876.95	50.1797	8,876.95	52.7461
9,188.96	87.2596	9,188.96	87.137	9,188.96	86.9766	9,188.96	85.4749	9,188.96	84.5925	9,188.96	82.38	9,188.96	82.9107	9,188.96	78.7282	9,188.96	75.9927	9,188.96	74.5769	9,188.96	74.903	9,188.96	70.5551	9,188.96	67.6183	9,188.96	63.9212	9,188.96	49.073	9,188.96	66.727	9,188.96	62.9501	9,188.96	61.4882	9,188.96	59.4668	9,188.96	58.9374	9,188.96	66.9678	9,188.96	53.2987	9,188.96	63.7867	9,188.96	49.6108	9,188.96	49.6626	9,188.96	52.5716	9,188.96	44.4632	9,188.96	57.8814	9,188.96	44.186	9,188.96	58.6949	9,188.96	45.4406	9,188.96	59.9008	9,188.96	50.5599	9,188.96	58.5354	9,188.96	50.8322	9,188.96	48.7154
9,514.16	87.3848	9,514.16	87.05	9,514.16	86.8088	9,514.16	85.2673	9,514.16	84.5814	9,514.16	81.1888	9,514.16	81.8982	9,514.16	77.7605	9,514.16	75.9997	9,514.16	73.0304	9,514.16	72.4804	9,514.16	67.1274	9,514.16	69.47	9,514.16	68.0647	9,514.16	58.2899	9,514.16	55.9089	9,514.16	63.7224	9,514.16	54.3861	9,514.16	56.713	9,514.16	47.4156	9,514.16	67.9358	9,514.16	49.6924	9,514.16	65.0597	9,514.16	46.2236	9,514.16	54.1344	9,514.16	28.5228	9,514.16	39.9652	9,514.16	50.5574	9,514.16	41.5146	9,514.16	54.5984	9,514.16	43.8565	9,514.16	57.4547	9,514.16	49.3122	9,514.16	57.7912	9,514.16	51.7527	9,514.16	49.6961
9,849.61	87.5668	9,849.61	86.8471	9,849.61	86.9223	9,849.61	84.6291	9,849.61	84.7694	9,849.61	80.8179	9,849.61	80.9442	9,849.61	76.9662	9,849.61	76.3498	9,849.61	70.5483	9,849.61	68.5666	9,849.61	70.7572	9,849.61	69.9762	9,849.61	62.8862	9,849.61	65.6261	9,849.61	67.01	9,849.61	61.3614	9,849.61	63.0747	9,849.61	54.9697	9,849.61	59.8609	9,849.61	66.2799	9,849.61	52.0336	9,849.61	62.3127	9,849.61	47.114	9,849.61	51.9036	9,849.61	53.0072	9,849.61	33.2835	9,849.61	56.1764	9,849.61	47.3386	9,849.61	57.8165	9,849.61	31.538	9,849.61	59.4352	9,849.61	50.8448	9,849.61	58.9539	9,849.61	50.8109	9,849.61	47.8776
10,196.8	87.4877	10,196.8	87.1091	10,196.8	86.4387	10,196.8	85.1424	10,196.8	84.1133	10,196.8	80.4344	10,196.8	81.4234	10,196.8	76.2736	10,196.8	74.4098	10,196.8	73.159	10,196.8	71.6449	10,196.8	70.0564	10,196.8	69.8804	10,196.8	68.8691	10,196.8	68.1262	10,196.8	65.7236	10,196.8	60.153	10,196.8	59.9196	10,196.8	49.9003	10,196.8	53.4797	10,196.8	67.6593	10,196.8	54.5634	10,196.8	63.4902	10,196.8	43.2916	10,196.8	47.6257	10,196.8	39.2553	10,196.8	30.4887	10,196.8	54.0073	10,196.8	40.964	10,196.8	56.6024	10,196.8	39.2146	10,196.8	58.4848	10,196.8	42.073	10,196.8	56.7616	10,196.8	51.4251	10,196.8	46.4634
10,555.7	87.5065	10,555.7	87.3165	10,555.7	86.8055	10,555.7	85.2078	10,555.7	84.2779	10,555.7	80.0201	10,555.7	80.9593	10,555.7	76.6199	10,555.7	72.3671	10,555.7	72.1908	10,555.7	73.0024	10,555.7	70.4005	10,555.7	67.1131	10,555.7	65.0134	10,555.7	70.5322	10,555.7	63.6893	10,555.7	58.2993	10,555.7	62.7605	10,555.7	52.581	10,555.7	58.5624	10,555.7	66.6913	10,555.7	55.5042	10,555.7	62.6512	10,555.7	45.0192	10,555.7	50.5315	10,555.7	50.1003	10,555.7	31.9924	10,555.7	54.9777	10,555.7	44.9225	10,555.7	54.4409	10,555.7	42.8867	10,555.7	57.0498	10,555.7	41.541	10,555.7	57.3537	10,555.7	51.6748	10,555.7	50.0446
10,927.7	87.7908	10,927.7	87.4512	10,927.7	87.1743	10,927.7	85.0981	10,927.7	84.3336	10,927.7	79.6598	10,927.7	79.9094	10,927.7	76.3828	10,927.7	73.5812	10,927.7	71.5998	10,927.7	73.2779	10,927.7	70.78	10,927.7	71.7747	10,927.7	67.7614	10,927.7	70.9035	10,927.7	66.7771	10,927.7	54.8704	10,927.7	60.1937	10,927.7	48.2402	10,927.7	57.9156	10,927.7	66.8868	10,927.7	48.2685	10,927.7	64.0438	10,927.7	44.2977	10,927.7	53.6525	10,927.7	50.6479	10,927.7	34.9176	10,927.7	56.1878	10,927.7	46.8326	10,927.7	56.9707	10,927.7	49.0257	10,927.7	57.4851	10,927.7	36.4048	10,927.7	57.0929	10,927.7	50.9589	10,927.7	43.5664
11,313	87.8641	11,313	87.6945	11,313	87.6181	11,313	84.8509	11,313	84.9518	11,313	79.5837	11,313	79.212	11,313	76.1167	11,313	75.5844	11,313	73.087	11,313	73.2764	11,313	70.9678	11,313	72.7487	11,313	68.5249	11,313	70.3221	11,313	60.9978	11,313	60.1383	11,313	62.1289	11,313	48.678	11,313	58.0211	11,313	66.524	11,313	45.5753	11,313	62.8915	11,313	40.4934	11,313	52.4053	11,313	48.6953	11,313	40.8215	11,313	53.8278	11,313	39.9294	11,313	57.1375	11,313	45.0095	11,313	57.1009	11,313	43.5163	11,313	57.2714	11,313	49.8236	11,313	45.135
11,712.9	88.2434	11,712.9	87.502	11,712.9	87.3474	11,712.9	84.8818	11,712.9	84.7391	11,712.9	79.8393	11,712.9	81.3279	11,712.9	76.0743	11,712.9	74.1132	11,712.9	72.0054	11,712.9	73.3861	11,712.9	71.769	11,712.9	73.4358	11,712.9	66.5693	11,712.9	72.0962	11,712.9	68.5054	11,712.9	56.267	11,712.9	61.3549	11,712.9	55.0488	11,712.9	56.2094	11,712.9	66.6091	11,712.9	52.2398	11,712.9	63.061	11,712.9	47.8104	11,712.9	50.7325	11,712.9	53.6786	11,712.9	44.7637	11,712.9	54.0839	11,712.9	38.0478	11,712.9	56.9078	11,712.9	40.2415	11,712.9	56.778	11,712.9	40.0752	11,712.9	53.6443	11,712.9	45.0609	11,712.9	39.4987
12,126	88.4896	12,126	87.7982	12,126	87.5718	12,126	84.9643	12,126	84.4393	12,126	79.9227	12,126	81.191	12,126	75.8525	12,126	76.6732	12,126	72.21	12,126	73.1422	12,126	70.7953	12,126	71.2812	12,126	66.2234	12,126	72.3182	12,126	60.233	12,126	49.0017	12,126	60.2893	12,126	50.625	12,126	54.9469	12,126	64.5846	12,126	53.6195	12,126	60.3451	12,126	37.9634	12,126	53.677	12,126	52.4369	12,126	32.2473	12,126	54.4952	12,126	6.80644	12,126	55.0867	12,126	34.382	12,126	54.5789	12,126	41.4536	12,126	52.2282	12,126	47.5944	12,126	42.371
12,553.7	88.6528	12,553.7	87.3453	12,553.7	87.5377	12,553.7	84.7213	12,553.7	84.6974	12,553.7	79.0439	12,553.7	80.4192	12,553.7	75.4054	12,553.7	76.3514	12,553.7	71.2634	12,553.7	75.6264	12,553.7	71.8879	12,553.7	71.0755	12,553.7	67.3978	12,553.7	71.1825	12,553.7	65.3275	12,553.7	59.6622	12,553.7	57.7649	12,553.7	54.2836	12,553.7	54.7737	12,553.7	65.0166	12,553.7	45.2786	12,553.7	62.2163	12,553.7	42.0735	12,553.7	51.6671	12,553.7	47.6481	12,553.7	33.4668	12,553.7	49.5579	12,553.7	46.16	12,553.7	53.4648	12,553.7	31.5841	12,553.7	53.9712	12,553.7	47.8226	12,553.7	52.3866	12,553.7	43.1145	12,553.7	39.0924
12,996.1	88.7619	12,996.1	87.6042	12,996.1	87.1978	12,996.1	85.0481	12,996.1	84.5277	12,996.1	80.2458	12,996.1	81.4456	12,996.1	76.3707	12,996.1	75.7935	12,996.1	73.0847	12,996.1	74.0184	12,996.1	71.1777	12,996.1	73.1573	12,996.1	65.5735	12,996.1	69.8794	12,996.1	62.3389	12,996.1	57.9703	12,996.1	61.6021	12,996.1	53.0099	12,996.1	57.4915	12,996.1	63.2717	12,996.1	47.8169	12,996.1	62.1312	12,996.1	45.4847	12,996.1	47.0061	12,996.1	52.5358	12,996.1	25.4135	12,996.1	53.3217	12,996.1	42.8783	12,996.1	54.2651	12,996.1	35.1705	12,996.1	54.1426	12,996.1	45.6797	12,996.1	55.0149	12,996.1	46.1008	12,996.1	39.0249
13,454.6	88.9246	13,454.6	87.6261	13,454.6	87.6527	13,454.6	85.3055	13,454.6	84.6384	13,454.6	80.1392	13,454.6	81.4715	13,454.6	75.6387	13,454.6	76.6674	13,454.6	71.5496	13,454.6	74.44	13,454.6	69.578	13,454.6	72.2672	13,454.6	64.8694	13,454.6	68.2291	13,454.6	62.2496	13,454.6	57.6707	13,454.6	54.5376	13,454.6	51.7734	13,454.6	48.4624	13,454.6	64.4438	13,454.6	46.4798	13,454.6	61.7728	13,454.6	33.1076	13,454.6	49.1308	13,454.6	49.427	13,454.6	44.2082	13,454.6	48.2222	13,454.6	23.3846	13,454.6	48.8947	13,454.6	30.0615	13,454.6	51.8086	13,454.6	46.6038	13,454.6	53.5649	13,454.6	40.716	13,454.6	36.5584
13,929.2	88.9206	13,929.2	87.6387	13,929.2	87.6194	13,929.2	85.4876	13,929.2	84.9213	13,929.2	80.0871	13,929.2	81.084	13,929.2	75.6668	13,929.2	76.1868	13,929.2	71.7767	13,929.2	73.69	13,929.2	70.4843	13,929.2	69.1467	13,929.2	65.3126	13,929.2	64.9523	13,929.2	64.4168	13,929.2	56.9131	13,929.2	61.058	13,929.2	50.7858	13,929.2	55.009	13,929.2	61.6845	13,929.2	52.0528	13,929.2	59.216	13,929.2	41.1233	13,929.2	39.2466	13,929.2	52.3536	13,929.2	40.2762	13,929.2	51.3072	13,929.2	38.9518	13,929.2	54.2075	13,929.2	39.3782	13,929.2	54.304	13,929.2	46.4707	13,929.2	54.6254	13,929.2	47.0173	13,929.2	43.0321
14,419.9	88.44	14,419.9	87.2026	14,419.9	87.4133	14,419.9	85.0628	14,419.9	84.627	14,419.9	79.975	14,419.9	81.173	14,419.9	75.308	14,419.9	75.3358	14,419.9	70.4403	14,419.9	72.1471	14,419.9	68.7706	14,419.9	68.2816	14,419.9	64.3768	14,419.9	59.4442	14,419.9	60.4924	14,419.9	56.2463	14,419.9	54.4028	14,419.9	50.4471	14,419.9	48.3696	14,419.9	61.3419	14,419.9	46.8457	14,419.9	54.6576	14,419.9	38.2415	14,419.9	48.2824	14,419.9	49.607	14,419.9	40.3435	14,419.9	48.5402	14,419.9	38.8463	14,419.9	50.5705	14,419.9	40.8814	14,419.9	52.6978	14,419.9	47.8993	14,419.9	54.7149	14,419.9	46.931	14,419.9	44.54
14,928.2	87.9457	14,928.2	86.781	14,928.2	87.2611	14,928.2	84.6053	14,928.2	84.447	14,928.2	79.4524	14,928.2	80.4336	14,928.2	74.0157	14,928.2	74.9798	14,928.2	67.8073	14,928.2	70.4072	14,928.2	66.1813	14,928.2	65.4638	14,928.2	60.4267	14,928.2	53.7602	14,928.2	59.2185	14,928.2	49.5967	14,928.2	53.5633	14,928.2	48.9163	14,928.2	49.3197	14,928.2	62.2668	14,928.2	41.7415	14,928.2	57.7507	14,928.2	32.2129	14,928.2	49.3049	14,928.2	43.7738	14,928.2	44.1606	14,928.2	42.3303	14,928.2	40.9155	14,928.2	45.4529	14,928.2	41.1908	14,928.2	49.3187	14,928.2	46.065	14,928.2	50.6923	14,928.2	43.2627	14,928.2	40.927
15,455.6	87.3583	15,455.6	86.4854	15,455.6	86.6371	15,455.6	84.1204	15,455.6	83.9449	15,455.6	78.6471	15,455.6	80.1748	15,455.6	72.4127	15,455.6	73.2188	15,455.6	65.6186	15,455.6	67.9128	15,455.6	63.9634	15,455.6	59.2148	15,455.6	58.3256	15,455.6	51.8662	15,455.6	54.3608	15,455.6	39.1945	15,455.6	49.5524	15,455.6	49.0257	15,455.6	46.7197	15,455.6	61.072	15,455.6	37.072	15,455.6	59.4031	15,455.6	34.3036	15,455.6	51.0992	15,455.6	39.2342	15,455.6	42.3223	15,455.6	36.5011	15,455.6	37.2489	15,455.6	42.7787	15,455.6	42.4112	15,455.6	46.5981	15,455.6	44.0145	15,455.6	47.2116	15,455.6	39.4726	15,455.6	36.9305
16,000.5	86.521	16,000.5	85.3824	16,000.5	85.4759	16,000.5	82.5901	16,000.5	82.4099	16,000.5	75.8433	16,000.5	77.635	16,000.5	67.4511	16,000.5	70.1954	16,000.5	55.6649	16,000.5	63.0076	16,000.5	56.3429	16,000.5	44.6048	16,000.5	49.6956	16,000.5	49.6517	16,000.5	49.6005	16,000.5	41.6425	16,000.5	40.2603	16,000.5	46.3076	16,000.5	38.9245	16,000.5	61.3476	16,000.5	30.1872	16,000.5	61.4613	16,000.5	37.6042	16,000.5	52.3734	16,000.5	25.3999	16,000.5	37.8082	16,000.5	37.1283	16,000.5	36.5297	16,000.5	34.6494	16,000.5	37.8543	16,000.5	44.4111	16,000.5	38.0283	16,000.5	45.0675	16,000.5	29.9434	16,000.5	27.3673
16,564.5	85.847	16,564.5	84.5698	16,564.5	84.8906	16,564.5	81.3539	16,564.5	81.459	16,564.5	72.3791	16,564.5	75.6034	16,564.5	62.7693	16,564.5	65.852	16,564.5	62.5569	16,564.5	56.2592	16,564.5	60.7724	16,564.5	50.4602	16,564.5	52.5245	16,564.5	55.7855	16,564.5	40.0445	16,564.5	52.1831	16,564.5	42.6916	16,564.5	49.3302	16,564.5	39.0322	16,564.5	63.3681	16,564.5	33.0124	16,564.5	63.3621	16,564.5	38.3805	16,564.5	53.1927	16,564.5	22.3102	16,564.5	40.2435	16,564.5	34.866	16,564.5	39.1117	16,564.5	34.2543	16,564.5	38.6776	16,564.5	37.7028	16,564.5	43.608	16,564.5	44.0085	16,564.5	37.0511	16,564.5	10.5939
17,148.9	87.031	17,148.9	85.5221	17,148.9	86.1201	17,148.9	81.6553	17,148.9	82.2086	17,148.9	71.7042	17,148.9	75.7123	17,148.9	64.7456	17,148.9	61.1242	17,148.9	62.8387	17,148.9	58.1092	17,148.9	55.499	17,148.9	52.9779	17,148.9	53.6632	17,148.9	59.284	17,148.9	48.2789	17,148.9	54.283	17,148.9	48.1581	17,148.9	51.1404	17,148.9	35.5641	17,148.9	65.7033	17,148.9	36.9919	17,148.9	66.1199	17,148.9	36.4858	17,148.9	54.9531	17,148.9	37.507	17,148.9	39.0151	17,148.9	35.2195	17,148.9	44.2176	17,148.9	41.7424	17,148.9	39.7951	17,148.9	35.0259	17,148.9	39.3225	17,148.9	43.8664	17,148.9	34.3151	17,148.9	20.6529
17,752.4	86.8735	17,752.4	84.9766	17,752.4	86.2238	17,752.4	79.7892	17,752.4	82.0183	17,752.4	70.5699	17,752.4	74.8279	17,752.4	64.2951	17,752.4	60.6735	17,752.4	59.7119	17,752.4	66.1199	17,752.4	60.8738	17,752.4	61.0275	17,752.4	61.7175	17,752.4	63.789	17,752.4	54.484	17,752.4	59.2362	17,752.4	50.9825	17,752.4	53.0134	17,752.4	43.9566	17,752.4	65.5703	17,752.4	33.6825	17,752.4	66.6267	17,752.4	25.5273	17,752.4	52.3689	17,752.4	39.1174	17,752.4	41.7072	17,752.4	32.4937	17,752.4	40.5054	17,752.4	44.6516	17,752.4	34.1762	17,752.4	41.1921	17,752.4	36.9413	17,752.4	43.0794	17,752.4	34.2489	17,752.4	27.8507
18,379.4	86.1712	18,379.4	84.4627	18,379.4	85.1751	18,379.4	79.1795	18,379.4	80.6368	18,379.4	69.7551	18,379.4	71.8135	18,379.4	59.4454	18,379.4	60.6498	18,379.4	58.1687	18,379.4	68.584	18,379.4	63.2054	18,379.4	66.535	18,379.4	60.7479	18,379.4	64.4392	18,379.4	55.8856	18,379.4	58.8398	18,379.4	50.1641	18,379.4	50.0307	18,379.4	42.1779	18,379.4	65.5712	18,379.4	35.2348	18,379.4	67.1341	18,379.4	20.4055	18,379.4	54.5208	18,379.4	24.1161	18,379.4	29.2973	18,379.4	24.1359	18,379.4	41.2672	18,379.4	41.2838	18,379.4	35.993	18,379.4	34.6417	18,379.4	38.7627	18,379.4	44.3363	18,379.4	40.8323	18,379.4	34.4558
19,026.9	85.6702	19,026.9	83.5931	19,026.9	84.4021	19,026.9	77.8604	19,026.9	79.9606	19,026.9	67.8974	19,026.9	69.1716	19,026.9	54.6199	19,026.9	57.2626	19,026.9	58.2825	19,026.9	68.8513	19,026.9	61.6297	19,026.9	65.675	19,026.9	57.3735	19,026.9	61.7609	19,026.9	51.0169	19,026.9	56.8455	19,026.9	47.6522	19,026.9	50.4735	19,026.9	37.4799	19,026.9	65.8253	19,026.9	37.3213	19,026.9	66.9098	19,026.9	30.6045	19,026.9	54.9293	19,026.9	25.5881	19,026.9	18.7724	19,026.9	30.7751	19,026.9	33.2285	19,026.9	36.1608	19,026.9	35.8854	19,026.9	37.3195	19,026.9	38.4091	19,026.9	42.384	19,026.9	34.1511	19,026.9	29.3818
19,697.8	84.9672	19,697.8	82.3421	19,697.8	83.7128	19,697.8	76.3724	19,697.8	79.3017	19,697.8	63.5724	19,697.8	69.1426	19,697.8	55.715	19,697.8	58.61	19,697.8	59.6472	19,697.8	65.9552	19,697.8	60.1646	19,697.8	64.9306	19,697.8	53.7697	19,697.8	60.9853	19,697.8	49.7239	19,697.8	52.9002	19,697.8	46.8381	19,697.8	49.0761	19,697.8	38.7154	19,697.8	64.6417	19,697.8	28.8169	19,697.8	65.4792	19,697.8	20.8855	19,697.8	54.1874	19,697.8	22.3165	19,697.8	34.3986	19,697.8	35.9049	19,697.8	32.5507	19,697.8	31.0066	19,697.8	37.2724	19,697.8	35.7049	19,697.8	38.9159	19,697.8	33.2171	19,697.8	28.1476	19,697.8	29.8962
19,999.5	84.879	19,999.5	81.8077	19,999.5	83.2413	19,999.5	75.9269	19,999.5	78.8546	19,999.5	63.3079	19,999.5	67.8907	19,999.5	55.2756	19,999.5	60.9014	19,999.5	61.4366	19,999.5	67.4981	19,999.5	60.7652	19,999.5	64.6576	19,999.5	52.0996	19,999.5	61.083	19,999.5	51.7172	19,999.5	48.8202	19,999.5	35.4924	19,999.5	52.9032	19,999.5	32.6029	19,999.5	64.371	19,999.5	43.5336	19,999.5	64.0772	19,999.5	39.3664	19,999.5	53.3129	19,999.5	36.6149	19,999.5	38.0998	19,999.5	43.592	19,999.5	35.2452	19,999.5	39.9534	19,999.5	42.4564	19,999.5	43.3433	19,999.5	51.3339	19,999.5	41.1188	19,999.5	45.502	19,999.5	45.9735
