"SPL Vertical"
"On-Axis"		"10°"		"-10°"		"20°"		"-20°"		"30°"		"-30°"		"40°"		"-40°"		"50°"		"-50°"		"60°"		"-60°"		"70°"		"-70°"		"80°"		"-80°"		"90°"		"-90°"		"100°"		"-100°"		"110°"		"-110°"		"120°"		"-120°"		"130°"		"-130°"		"140°"		"-140°"		"150°"		"-150°"		"160°"		"-160°"		"170°"		"-170°"		"180°"
"Frequency [Hz]"	"Sound Pessure Level [dB]  / [2.83V 1m] "	"Frequency [Hz]"	"Sound Pessure Level [dB]  / [2.83V 1m] "	"Frequency [Hz]"	"Sound Pessure Level [dB]  / [2.83V 1m] "	"Frequency [Hz]"	"Sound Pessure Level [dB]  / [2.83V 1m] "	"Frequency [Hz]"	"Sound Pessure Level [dB]  / [2.83V 1m] "	"Frequency [Hz]"	"Sound Pessure Level [dB]  / [2.83V 1m] "	"Frequency [Hz]"	"Sound Pessure Level [dB]  / [2.83V 1m] "	"Frequency [Hz]"	"Sound Pessure Level [dB]  / [2.83V 1m] "	"Frequency [Hz]"	"Sound Pessure Level [dB]  / [2.83V 1m] "	"Frequency [Hz]"	"Sound Pessure Level [dB]  / [2.83V 1m] "	"Frequency [Hz]"	"Sound Pessure Level [dB]  / [2.83V 1m] "	"Frequency [Hz]"	"Sound Pessure Level [dB]  / [2.83V 1m] "	"Frequency [Hz]"	"Sound Pessure Level [dB]  / [2.83V 1m] "	"Frequency [Hz]"	"Sound Pessure Level [dB]  / [2.83V 1m] "	"Frequency [Hz]"	"Sound Pessure Level [dB]  / [2.83V 1m] "	"Frequency [Hz]"	"Sound Pessure Level [dB]  / [2.83V 1m] "	"Frequency [Hz]"	"Sound Pessure Level [dB]  / [2.83V 1m] "	"Frequency [Hz]"	"Sound Pessure Level [dB]  / [2.83V 1m] "	"Frequency [Hz]"	"Sound Pessure Level [dB]  / [2.83V 1m] "	"Frequency [Hz]"	"Sound Pessure Level [dB]  / [2.83V 1m] "	"Frequency [Hz]"	"Sound Pessure Level [dB]  / [2.83V 1m] "	"Frequency [Hz]"	"Sound Pessure Level [dB]  / [2.83V 1m] "	"Frequency [Hz]"	"Sound Pessure Level [dB]  / [2.83V 1m] "	"Frequency [Hz]"	"Sound Pessure Level [dB]  / [2.83V 1m] "	"Frequency [Hz]"	"Sound Pessure Level [dB]  / [2.83V 1m] "	"Frequency [Hz]"	"Sound Pessure Level [dB]  / [2.83V 1m] "	"Frequency [Hz]"	"Sound Pessure Level [dB]  / [2.83V 1m] "	"Frequency [Hz]"	"Sound Pessure Level [dB]  / [2.83V 1m] "	"Frequency [Hz]"	"Sound Pessure Level [dB]  / [2.83V 1m] "	"Frequency [Hz]"	"Sound Pessure Level [dB]  / [2.83V 1m] "	"Frequency [Hz]"	"Sound Pessure Level [dB]  / [2.83V 1m] "	"Frequency [Hz]"	"Sound Pessure Level [dB]  / [2.83V 1m] "	"Frequency [Hz]"	"Sound Pessure Level [dB]  / [2.83V 1m] "	"Frequency [Hz]"	"Sound Pessure Level [dB]  / [2.83V 1m] "	"Frequency [Hz]"	"Sound Pessure Level [dB]  / [2.83V 1m] "	"Frequency [Hz]"	"Sound Pessure Level [dB]  / [2.83V 1m] "
20.5078	54.7538	20.5078	54.3629	20.5078	54.9993	20.5078	53.8286	20.5078	55.0908	20.5078	53.1455	20.5078	55.013	20.5078	52.2991	20.5078	54.7437	20.5078	51.2628	20.5078	54.2521	20.5078	49.9921	20.5078	53.4956	20.5078	48.413	20.5078	52.4137	20.5078	46.3964	20.5078	50.9134	20.5078	43.6916	20.5078	48.8376	20.5078	39.708	20.5078	45.8762	20.5078	32.3754	20.5078	41.2415	20.5078	25.2767	20.5078	31.4021	20.5078	36.4776	20.5078	31.5423	20.5078	41.0455	20.5078	39.9846	20.5078	43.6685	20.5078	43.5173	20.5078	45.2857	20.5078	45.381	20.5078	46.209	20.5078	46.3034	20.5078	46.5473
21.9727	51.9639	21.9727	51.3026	21.9727	52.3898	21.9727	50.3879	21.9727	52.579	21.9727	49.1781	21.9727	52.5117	21.9727	47.6004	21.9727	52.148	21.9727	45.5475	21.9727	51.4204	21.9727	42.9481	21.9727	50.2192	21.9727	40.3729	21.9727	48.3648	21.9727	40.4151	21.9727	45.5889	21.9727	43.2834	21.9727	42.0325	21.9727	46.2902	21.9727	41.7323	21.9727	48.7433	21.9727	45.685	21.9727	50.6947	21.9727	49.1295	21.9727	52.2498	21.9727	51.5816	21.9727	53.4814	21.9727	53.3044	21.9727	54.4324	21.9727	54.4868	21.9727	55.1244	21.9727	55.2436	21.9727	55.5635	21.9727	55.647	21.9727	55.7436
23.4375	53.2252	23.4375	52.6457	23.4375	53.5997	23.4375	51.8606	23.4375	53.7605	23.4375	50.8644	23.4375	53.6875	23.4375	49.6611	23.4375	53.3476	23.4375	48.3056	23.4375	52.6938	23.4375	47.011	23.4375	51.6693	23.4375	46.2882	23.4375	50.2369	23.4375	46.6924	23.4375	48.5266	23.4375	48.0864	23.4375	47.2974	23.4375	49.8485	23.4375	47.8833	23.4375	51.5651	23.4375	49.9576	23.4375	53.0873	23.4375	52.1812	23.4375	54.382	23.4375	54.0244	23.4375	55.4498	23.4375	55.4256	23.4375	56.2965	23.4375	56.4273	23.4375	56.9247	23.4375	57.0809	23.4375	57.3306	23.4375	57.4291	23.4375	57.5043
24.9023	54.5546	24.9023	53.9295	24.9023	54.9578	24.9023	53.0773	24.9023	55.1328	24.9023	51.9842	24.9023	55.0595	24.9023	50.6419	24.9023	54.7025	24.9023	49.097	24.9023	54.0093	24.9023	47.6012	24.9023	52.9104	24.9023	46.8416	24.9023	51.3465	24.9023	47.5166	24.9023	49.4293	24.9023	49.2535	24.9023	48.0535	24.9023	51.2354	24.9023	48.87	24.9023	53.0639	24.9023	51.2596	24.9023	54.6394	24.9023	53.6444	24.9023	55.9584	24.9023	55.5563	24.9023	57.0364	24.9023	56.9871	24.9023	57.8866	24.9023	58.0022	24.9023	58.5149	24.9023	58.6622	24.9023	58.9196	24.9023	59.0139	24.9023	59.0914
26.3672	55.4492	26.3672	54.8236	26.3672	55.854	26.3672	53.9748	26.3672	56.0301	26.3672	52.8967	26.3672	55.957	26.3672	51.5984	26.3672	55.5996	26.3672	50.166	26.3672	54.9071	26.3672	48.912	26.3672	53.8164	26.3672	48.4916	26.3672	52.2898	26.3672	49.3489	26.3672	50.5052	26.3672	51.0368	26.3672	49.4366	26.3672	52.8984	26.3672	50.4658	26.3672	54.6198	26.3672	52.8032	26.3672	56.115	26.3672	55.092	26.3672	57.3756	26.3672	56.936	26.3672	58.4112	26.3672	58.3248	26.3672	59.2306	26.3672	59.3153	26.3672	59.8369	26.3672	59.9625	26.3672	60.2267	26.3672	60.3099	26.3672	60.3899
27.832	53.957	27.832	53.2321	27.832	54.4082	27.832	52.233	27.832	54.5768	27.832	50.9722	27.832	54.4377	27.832	49.5458	27.832	53.9448	27.832	48.3182	27.832	53.0309	27.832	48.0558	27.832	51.6292	27.832	49.1909	27.832	49.83	27.832	51.1174	27.832	48.5361	27.832	53.1399	27.832	49.563	27.832	54.9798	27.832	52.2647	27.832	56.5786	27.832	54.9354	27.832	57.9434	27.832	57.1042	27.832	59.092	27.832	58.7769	27.832	60.0391	27.832	60.0265	27.832	60.7926	27.832	60.9177	27.832	61.3539	27.832	61.4996	27.832	61.7181	27.832	61.8094	27.832	61.8751
29.2969	56.212	29.2969	55.8752	29.2969	56.4396	29.2969	55.4715	29.2969	56.5298	29.2969	55.0655	29.2969	56.4653	29.2969	54.7519	29.2969	56.2445	29.2969	54.648	29.2969	55.8983	29.2969	54.8562	29.2969	55.5248	29.2969	55.4081	29.2969	55.3275	29.2969	56.2437	29.2969	55.5751	29.2969	57.2515	29.2969	56.3986	29.2969	58.3224	29.2969	57.6436	29.2969	59.3766	29.2969	59.0254	29.2969	60.3635	29.2969	60.3288	29.2969	61.2523	29.2969	61.4457	29.2969	62.0232	29.2969	62.3359	29.2969	62.6617	29.2969	62.9926	29.2969	63.1554	29.2969	63.4229	29.2969	63.4918	29.2969	63.6399	29.2969	63.658
30.7617	59.734	30.7617	59.3404	30.7617	60.0128	30.7617	58.8545	30.7617	60.1605	30.7617	58.3104	30.7617	60.165	30.7617	57.7636	30.7617	60.0202	30.7617	57.3003	30.7617	59.7337	30.7617	57.0344	30.7617	59.3432	30.7617	57.0759	30.7617	58.9416	30.7617	57.4715	30.7617	58.696	30.7617	58.1729	30.7617	58.8042	30.7617	59.0676	30.7617	59.3581	30.7617	60.0386	30.7617	60.2522	30.7617	60.9968	30.7617	61.2761	30.7617	61.8847	30.7617	62.2514	30.7617	62.6664	30.7617	63.0757	30.7617	63.3189	30.7617	63.7036	30.7617	63.8255	30.7617	64.1218	30.7617	64.1721	30.7617	64.3327	30.7617	64.3454
32.2266	60.2211	32.2266	59.754	32.2266	60.5554	32.2266	59.1852	32.2266	60.7352	32.2266	58.5651	32.2266	60.7432	32.2266	57.9782	32.2266	60.5675	32.2266	57.5533	32.2266	60.2097	32.2266	57.4417	32.2266	59.7064	32.2266	57.7444	32.2266	59.1701	32.2266	58.4391	32.2266	58.8325	32.2266	59.3979	32.2266	58.9873	32.2266	60.4722	32.2266	59.7482	32.2266	61.5495	32.2266	60.9146	32.2266	62.5609	32.2266	62.1809	32.2266	63.4675	32.2266	63.3393	32.2266	64.247	32.2266	64.2945	32.2266	64.8847	32.2266	65.0164	32.2266	65.3684	32.2266	65.5041	32.2266	65.6858	32.2266	65.7683	32.2266	65.8239
33.6914	61.4363	33.6914	61.0243	33.6914	61.7325	33.6914	60.527	33.6914	61.891	33.6914	59.9909	33.6914	61.895	33.6914	59.4893	33.6914	61.7343	33.6914	59.1274	33.6914	61.4133	33.6914	59.0259	33.6914	60.9702	33.6914	59.2703	33.6914	60.5116	33.6914	59.8577	33.6914	60.2413	33.6914	60.6983	33.6914	60.4054	33.6914	61.6707	33.6914	61.101	33.6914	62.6711	33.6914	62.1678	33.6914	63.6284	33.6914	63.344	33.6914	64.4988	33.6914	64.4359	33.6914	65.2548	33.6914	65.3459	33.6914	65.8781	33.6914	66.038	33.6914	66.3539	33.6914	66.5066	33.6914	66.6685	33.6914	66.7591	33.6914	66.8084
35.1562	62.5437	35.1562	62.2588	35.1562	62.7591	35.1562	61.9408	35.1562	62.8793	35.1562	61.6395	35.1562	62.8883	35.1562	61.4186	35.1562	62.7834	35.1562	61.349	35.1562	62.584	35.1562	61.4901	35.1562	62.348	35.1562	61.8661	35.1562	62.1889	35.1562	62.4543	35.1562	62.2644	35.1562	63.1964	35.1562	62.6999	35.1562	64.0222	35.1562	63.487	35.1562	64.8685	35.1562	64.4848	35.1562	65.6866	35.1562	65.521	35.1562	66.4411	35.1562	66.4691	35.1562	67.1064	35.1562	67.2593	35.1562	67.6626	35.1562	67.8615	35.1562	68.0931	35.1562	68.2682	35.1562	68.3829	35.1562	68.4836	35.1562	68.5176
36.6211	64.2743	36.6211	64.0125	36.6211	64.477	36.6211	63.722	36.6211	64.5985	36.6211	63.4436	36.6211	64.6254	36.6211	63.2284	36.6211	64.5553	36.6211	63.1336	36.6211	64.4045	36.6211	63.2107	36.6211	64.2196	36.6211	63.488	36.6211	64.0885	36.6211	63.9587	36.6211	64.1328	36.6211	64.5836	36.6211	64.4582	36.6211	65.3061	36.6211	65.0813	36.6211	66.0688	36.6211	65.9107	36.6211	66.8228	36.6211	66.8079	36.6211	67.5301	36.6211	67.6543	36.6211	68.1617	36.6211	68.3744	36.6211	68.6951	36.6211	68.93	36.6211	69.1115	36.6211	69.3069	36.6211	69.3948	36.6211	69.5046	36.6211	69.5303
38.0859	65.8244	38.0859	65.5845	38.0859	66.0139	38.0859	65.3216	38.0859	66.133	38.0859	65.0713	38.0859	66.1696	38.0859	64.877	38.0859	66.1216	38.0859	64.7867	38.0859	66.004	38.0859	64.844	38.0859	65.8573	38.0859	65.0752	38.0859	65.7559	38.0859	65.4793	38.0859	65.8009	38.0859	66.0282	38.0859	66.0819	38.0859	66.676	38.0859	66.6203	38.0859	67.3724	38.0859	67.3492	38.0859	68.0718	38.0859	68.1534	38.0859	68.7362	38.0859	68.9252	38.0859	69.3356	38.0859	69.5902	38.0859	69.8462	38.0859	70.1071	38.0859	70.248	38.0859	70.4584	38.0859	70.524	38.0859	70.6407	38.0859	70.6592
39.5508	67.206	39.5508	66.984	39.5508	67.3854	39.5508	66.7446	39.5508	67.5035	39.5508	66.5198	39.5508	67.5488	39.5508	66.3478	39.5508	67.5198	39.5508	66.27	39.5508	67.4298	39.5508	66.3236	39.5508	67.3152	39.5508	66.5319	39.5508	67.2408	39.5508	66.8959	39.5508	67.2931	39.5508	67.3939	39.5508	67.5497	39.5508	67.9877	39.5508	68.033	39.5508	68.633	39.5508	68.6911	39.5508	69.2878	39.5508	69.4261	39.5508	69.9155	39.5508	70.1402	39.5508	70.4861	39.5508	70.7614	39.5508	70.9753	39.5508	71.2475	39.5508	71.3625	39.5508	71.5785	39.5508	71.6302	39.5508	71.7492	39.5508	71.7633
41.0156	68.3336	41.0156	68.1224	41.0156	68.5059	41.0156	67.8965	41.0156	68.6211	41.0156	67.6866	41.0156	68.6685	41.0156	67.5288	41.0156	68.6468	41.0156	67.4614	41.0156	68.5697	41.0156	67.5187	41.0156	68.4726	41.0156	67.7222	41.0156	68.4171	41.0156	68.0732	41.0156	68.4842	41.0156	68.5519	41.0156	68.7444	41.0156	69.1235	41.0156	69.2173	41.0156	69.7467	41.0156	69.8539	41.0156	70.3815	41.0156	70.5628	41.0156	70.9924	41.0156	71.2516	41.0156	71.5501	41.0156	71.8514	41.0156	72.0299	41.0156	72.3205	41.0156	72.4113	41.0156	72.6391	41.0156	72.6768	41.0156	72.8014	41.0156	72.811
42.4805	69.7438	42.4805	69.5593	42.4805	69.9014	42.4805	69.3699	42.4805	70.0157	42.4805	69.2023	42.4805	70.0768	42.4805	69.0867	42.4805	70.0838	42.4805	69.054	42.4805	70.0494	42.4805	69.1308	42.4805	70.0045	42.4805	69.333	42.4805	70.0004	42.4805	69.6611	42.4805	70.102	42.4805	70.0995	42.4805	70.364	42.4805	70.6206	42.4805	70.8015	42.4805	71.1902	42.4805	71.3761	42.4805	71.7739	42.4805	72.0143	42.4805	72.3397	42.4805	72.6375	42.4805	72.8599	42.4805	73.1838	42.4805	73.3107	42.4805	73.613	42.4805	73.6715	42.4805	73.9046	42.4805	73.9247	42.4805	74.0513	42.4805	74.0553
43.9453	71.114	43.9453	70.9488	43.9453	71.2606	43.9453	70.7845	43.9453	71.3736	43.9453	70.6446	43.9453	71.4439	43.9453	70.5549	43.9453	71.4709	43.9453	70.5407	43.9453	71.466	43.9453	70.6238	43.9453	71.4564	43.9453	70.8169	43.9453	71.4858	43.9453	71.1206	43.9453	71.6081	43.9453	71.5227	43.9453	71.8674	43.9453	72.0006	43.9453	72.2756	43.9453	72.5256	43.9453	72.8014	43.9453	73.0672	43.9453	73.3828	43.9453	73.5964	43.9453	73.9518	43.9453	74.0867	43.9453	74.4519	43.9453	74.515	43.9453	74.8453	43.9453	74.8608	43.9453	75.111	43.9453	75.1065	43.9453	75.2412	43.9453	75.2372
45.4102	72.3779	45.4102	72.2213	45.4102	72.5206	45.4102	72.0686	45.4102	72.6351	45.4102	71.941	45.4102	72.713	45.4102	71.8613	45.4102	72.7531	45.4102	71.8517	45.4102	72.765	45.4102	71.9309	45.4102	72.7724	45.4102	72.1102	45.4102	72.8134	45.4102	72.3905	45.4102	72.9346	45.4102	72.762	45.4102	73.1755	45.4102	73.2052	45.4102	73.5481	45.4102	73.695	45.4102	74.0279	45.4102	74.2037	45.4102	74.5615	45.4102	74.7039	45.4102	75.0875	45.4102	75.1703	45.4102	75.5527	45.4102	75.58	45.4102	75.92	45.4102	75.9128	45.4102	76.1679	45.4102	76.1509	45.4102	76.2877	45.4102	76.2797
46.875	75.3402	46.875	75.2825	46.875	75.4193	46.875	75.2497	46.875	75.5164	46.875	75.2461	46.875	75.6292	46.875	75.2769	46.875	75.7561	46.875	75.348	46.875	75.8973	46.875	75.4652	46.875	76.0566	46.875	75.6334	46.875	76.2414	46.875	75.8549	46.875	76.4618	46.875	76.1288	46.875	76.7271	46.875	76.4495	46.875	77.0403	46.875	76.8069	46.875	77.3929	46.875	77.1867	46.875	77.7646	46.875	77.5715	46.875	78.1264	46.875	77.942	46.875	78.4473	46.875	78.2784	46.875	78.7002	46.875	78.5616	46.875	78.8659	46.875	78.7741	46.875	78.9337	46.875	78.9016
48.3398	76.4743	48.3398	76.4186	48.3398	76.5523	48.3398	76.388	48.3398	76.6499	48.3398	76.3861	48.3398	76.7643	48.3398	76.4169	48.3398	76.8936	48.3398	76.4854	48.3398	77.0374	48.3398	76.5964	48.3398	77.1978	48.3398	76.7543	48.3398	77.3804	48.3398	76.9614	48.3398	77.5937	48.3398	77.2173	48.3398	77.8458	48.3398	77.5175	48.3398	78.1395	48.3398	77.8533	48.3398	78.4682	48.3398	78.2119	48.3398	78.8139	48.3398	78.5771	48.3398	79.1505	48.3398	78.9308	48.3398	79.449	48.3398	79.2537	48.3398	79.684	48.3398	79.5272	48.3398	79.8365	48.3398	79.7342	48.3398	79.8961	48.3398	79.8605
51.2695	78.616	51.2695	78.5605	51.2695	78.6947	51.2695	78.5301	51.2695	78.7944	51.2695	78.527	51.2695	78.9125	51.2695	78.5539	51.2695	79.0461	51.2695	78.614	51.2695	79.1935	51.2695	78.711	51.2695	79.3544	51.2695	78.8484	51.2695	79.5317	51.2695	79.0286	51.2695	79.7309	51.2695	79.2519	51.2695	79.9581	51.2695	79.5156	51.2695	80.2161	51.2695	79.813	51.2695	80.5005	51.2695	80.1339	51.2695	80.7978	51.2695	80.4643	51.2695	81.0868	51.2695	80.788	51.2695	81.3426	51.2695	81.0871	51.2695	81.5424	51.2695	81.3439	51.2695	81.6687	51.2695	81.542	51.2695	81.7114	51.2695	81.6677
52.7344	79.5762	52.7344	79.5226	52.7344	79.6546	52.7344	79.4954	52.7344	79.756	52.7344	79.4959	52.7344	79.8777	52.7344	79.5259	52.7344	80.0166	52.7344	79.5876	52.7344	80.1697	52.7344	79.6838	52.7344	80.3359	52.7344	79.8174	52.7344	80.5163	52.7344	79.9904	52.7344	80.7147	52.7344	80.2032	52.7344	80.9358	52.7344	80.4535	52.7344	81.182	52.7344	80.7356	52.7344	81.4496	52.7344	81.0403	52.7344	81.727	52.7344	81.355	52.7344	81.9952	52.7344	81.6644	52.7344	82.2318	52.7344	81.9516	52.7344	82.4155	52.7344	82.1998	52.7344	82.5296	52.7344	82.3928	52.7344	82.5644	52.7344	82.5175
54.1992	80.5028	54.1992	80.4505	54.1992	80.5809	54.1992	80.4249	54.1992	80.683	54.1992	80.4266	54.1992	80.8063	54.1992	80.4567	54.1992	80.9473	54.1992	80.5167	54.1992	81.1023	54.1992	80.6086	54.1992	81.2691	54.1992	80.7347	54.1992	81.4474	54.1992	80.8969	54.1992	81.6398	54.1992	81.0955	54.1992	81.85	54.1992	81.329	54.1992	82.0802	54.1992	81.5927	54.1992	82.3277	54.1992	81.8785	54.1992	82.5826	54.1992	82.1749	54.1992	82.8283	54.1992	82.4679	54.1992	83.0444	54.1992	82.7417	54.1992	83.2111	54.1992	82.9798	54.1992	83.3127	54.1992	83.1669	54.1992	83.3398	54.1992	83.2899
55.6641	81.3173	55.6641	81.2667	55.6641	81.3943	55.6641	81.2431	55.6641	81.4963	55.6641	81.2465	55.6641	81.6205	55.6641	81.2771	55.6641	81.763	55.6641	81.3358	55.6641	81.9198	55.6641	81.424	55.6641	82.0875	55.6641	81.5434	55.6641	82.2647	55.6641	81.6957	55.6641	82.4528	55.6641	81.8815	55.6641	82.6546	55.6641	82.0997	55.6641	82.8718	55.6641	82.3465	55.6641	83.1024	55.6641	82.6149	55.6641	83.3379	55.6641	82.8947	55.6641	83.5635	55.6641	83.1728	55.6641	83.761	55.6641	83.4342	55.6641	83.9119	55.6641	83.6634	55.6641	84.0014	55.6641	83.8454	55.6641	84.0207	55.6641	83.9675
58.5938	82.6807	58.5938	82.6308	58.5938	82.758	58.5938	82.6081	58.5938	82.8617	58.5938	82.6116	58.5938	82.9889	58.5938	82.6403	58.5938	83.1352	58.5938	82.6938	58.5938	83.2952	58.5938	82.7725	58.5938	83.4638	58.5938	82.8773	58.5938	83.6377	58.5938	83.0097	58.5938	83.816	58.5938	83.1706	58.5938	83.9998	58.5938	83.3597	58.5938	84.1907	58.5938	83.5748	58.5938	84.3875	58.5938	83.8109	58.5938	84.5844	58.5938	84.0597	58.5938	84.7705	58.5938	84.3103	58.5938	84.931	58.5938	84.5494	58.5938	85.0502	58.5938	84.7626	58.5938	85.1154	58.5938	84.936	58.5938	85.1185	58.5938	85.0575
60.0586	83.2325	60.0586	83.1823	60.0586	83.3103	60.0586	83.1594	60.0586	83.4149	60.0586	83.1621	60.0586	83.5435	60.0586	83.1892	60.0586	83.6912	60.0586	83.2398	60.0586	83.8522	60.0586	83.3136	60.0586	84.0208	60.0586	83.4114	60.0586	84.1927	60.0586	83.5344	60.0586	84.3661	60.0586	83.6837	60.0586	84.5415	60.0586	83.8593	60.0586	84.72	60.0586	84.0596	60.0586	84.901	60.0586	84.2805	60.0586	85.0798	60.0586	84.5147	60.0586	85.2471	60.0586	84.7522	60.0586	85.3896	60.0586	84.9806	60.0586	85.4934	60.0586	85.1861	60.0586	85.5466	60.0586	85.3554	60.0586	85.5416	60.0586	85.4767
62.9883	84.0795	62.9883	84.0288	62.9883	84.1588	62.9883	84.0056	62.9883	84.266	62.9883	84.0078	62.9883	84.3981	62.9883	84.0329	62.9883	84.5499	62.9883	84.0792	62.9883	84.7145	62.9883	84.1456	62.9883	84.8847	62.9883	84.2322	62.9883	85.0548	62.9883	84.3396	62.9883	85.2212	62.9883	84.469	62.9883	85.3828	62.9883	84.6212	62.9883	85.5402	62.9883	84.7954	62.9883	85.6933	62.9883	84.9889	62.9883	85.8395	62.9883	85.1965	62.9883	85.9721	62.9883	85.4099	62.9883	86.0814	62.9883	85.6183	62.9883	86.156	62.9883	85.8096	62.9883	86.1861	62.9883	85.9713	62.9883	86.1654	62.9883	86.0926
64.4531	84.3713	64.4531	84.3201	64.4531	84.4515	64.4531	84.2966	64.4531	84.5602	64.4531	84.2984	64.4531	84.6943	64.4531	84.3225	64.4531	84.8483	64.4531	84.3668	64.4531	85.0148	64.4531	84.4298	64.4531	85.1861	64.4531	84.5111	64.4531	85.3555	64.4531	84.6114	64.4531	85.5186	64.4531	84.7317	64.4531	85.6738	64.4531	84.8728	64.4531	85.8213	64.4531	85.0347	64.4531	85.9612	64.4531	85.2153	64.4531	86.0917	64.4531	85.4101	64.4531	86.2076	64.4531	85.6117	64.4531	86.3005	64.4531	85.8104	64.4531	86.3607	64.4531	85.9946	64.4531	86.3793	64.4531	86.1527	64.4531	86.3507	64.4531	86.274
67.3828	84.7482	67.3828	84.6952	67.3828	84.8309	67.3828	84.6701	67.3828	84.9428	67.3828	84.67	67.3828	85.0806	67.3828	84.6914	67.3828	85.2382	67.3828	84.7312	67.3828	85.4075	67.3828	84.7871	67.3828	85.5795	67.3828	84.8584	67.3828	85.7462	67.3828	84.9451	67.3828	85.902	67.3828	85.0482	67.3828	86.044	67.3828	85.1688	67.3828	86.1719	67.3828	85.3077	67.3828	86.2864	67.3828	85.464	67.3828	86.3872	67.3828	85.6346	67.3828	86.4715	67.3828	85.814	67.3828	86.5338	67.3828	85.9941	67.3828	86.5668	67.3828	86.1648	67.3828	86.5639	67.3828	86.3156	67.3828	86.5207	67.3828	86.4366
68.8477	84.8558	68.8477	84.8026	68.8477	84.9389	68.8477	84.7775	68.8477	85.0515	68.8477	84.7771	68.8477	85.1902	68.8477	84.7977	68.8477	85.3487	68.8477	84.8359	68.8477	85.5185	68.8477	84.8893	68.8477	85.6902	68.8477	84.9565	68.8477	85.8554	68.8477	85.0375	68.8477	86.0077	68.8477	85.1332	68.8477	86.1439	68.8477	85.245	68.8477	86.2635	68.8477	85.3737	68.8477	86.3671	68.8477	85.519	68.8477	86.4553	68.8477	85.6785	68.8477	86.5262	68.8477	85.8475	68.8477	86.5754	68.8477	86.0185	68.8477	86.5969	68.8477	86.1824	68.8477	86.5849	68.8477	86.329	68.8477	86.5357	68.8477	86.4492
71.7773	85.0784	71.7773	85.028	71.7773	85.1592	71.7773	85.0055	71.7773	85.2699	71.7773	85.0073	71.7773	85.4073	71.7773	85.0288	71.7773	85.5649	71.7773	85.066	71.7773	85.7336	71.7773	85.116	71.7773	85.9034	71.7773	85.1768	71.7773	86.0648	71.7773	85.2479	71.7773	86.2105	71.7773	85.3302	71.7773	86.3364	71.7773	85.4251	71.7773	86.4413	71.7773	85.5338	71.7773	86.5261	71.7773	85.6571	71.7773	86.5923	71.7773	85.7938	71.7773	86.6396	71.7773	85.9407	71.7773	86.6659	71.7773	86.0922	71.7773	86.6675	71.7773	86.2404	71.7773	86.6403	71.7773	86.3768	71.7773	86.5819	71.7773	86.4929
74.707	85.2315	74.707	85.1833	74.707	85.3102	74.707	85.1628	74.707	85.4193	74.707	85.1658	74.707	85.5555	74.707	85.1874	74.707	85.7122	74.707	85.223	74.707	85.88	74.707	85.2689	74.707	86.0483	74.707	85.3229	74.707	86.2067	74.707	85.3842	74.707	86.347	74.707	85.4531	74.707	86.464	74.707	85.5314	74.707	86.5561	74.707	85.6209	74.707	86.6239	74.707	85.7229	74.707	86.6695	74.707	85.8378	74.707	86.6942	74.707	85.9638	74.707	86.6978	74.707	86.0969	74.707	86.6787	74.707	86.2309	74.707	86.635	74.707	86.3586	74.707	86.5658	74.707	86.4723
77.6367	85.259	77.6367	85.2109	77.6367	85.3382	77.6367	85.1909	77.6367	85.4487	77.6367	85.1944	77.6367	85.5872	77.6367	85.2158	77.6367	85.7465	77.6367	85.25	77.6367	85.9168	77.6367	85.2927	77.6367	86.0867	77.6367	85.3412	77.6367	86.2449	77.6367	85.3942	77.6367	86.382	77.6367	85.4519	77.6367	86.4922	77.6367	85.516	77.6367	86.5729	77.6367	85.5888	77.6367	86.6248	77.6367	85.6723	77.6367	86.6504	77.6367	85.7681	77.6367	86.6526	77.6367	85.8757	77.6367	86.6331	77.6367	85.9929	77.6367	86.5926	77.6367	86.1151	77.6367	86.5311	77.6367	86.2362	77.6367	86.4493	77.6367	86.3496
79.1016	85.2809	79.1016	85.2325	79.1016	85.3605	79.1016	85.2123	79.1016	85.4716	79.1016	85.2152	79.1016	85.6107	79.1016	85.2357	79.1016	85.7708	79.1016	85.2683	79.1016	85.9416	79.1016	85.3085	79.1016	86.1114	79.1016	85.3532	79.1016	86.2685	79.1016	85.4012	79.1016	86.4031	79.1016	85.4525	79.1016	86.5088	79.1016	85.5089	79.1016	86.5829	79.1016	85.5728	79.1016	86.626	79.1016	85.6467	79.1016	86.641	79.1016	85.7326	79.1016	86.6314	79.1016	85.8309	79.1016	86.5999	79.1016	85.94	79.1016	86.5483	79.1016	86.0561	79.1016	86.4778	79.1016	86.1738	79.1016	86.3897	79.1016	86.2869
82.0312	85.2083	82.0312	85.1603	82.0312	85.2744	82.0312	85.1285	82.0312	85.3601	82.0312	85.111	82.0312	85.4657	82.0312	85.1063	82.0312	85.59	82.0312	85.1135	82.0312	85.7291	82.0312	85.1322	82.0312	85.8768	82.0312	85.1626	82.0312	86.025	82.0312	85.2054	82.0312	86.1649	82.0312	85.2616	82.0312	86.2885	82.0312	85.3321	82.0312	86.3898	82.0312	85.4178	82.0312	86.4654	82.0312	85.5186	82.0312	86.5144	82.0312	85.6335	82.0312	86.537	82.0312	85.7598	82.0312	86.534	82.0312	85.8934	82.0312	86.5056	82.0312	86.0282	82.0312	86.4523	82.0312	86.1577	82.0312	86.3747	82.0312	86.2751
84.9609	85.2374	84.9609	85.1888	84.9609	85.3037	84.9609	85.1558	84.9609	85.389	84.9609	85.1366	84.9609	85.494	84.9609	85.1294	84.9609	85.617	84.9609	85.1332	84.9609	85.7543	84.9609	85.1474	84.9609	85.8995	84.9609	85.172	84.9609	86.0444	84.9609	85.2075	84.9609	86.1798	84.9609	85.2547	84.9609	86.2971	84.9609	85.3147	84.9609	86.3901	84.9609	85.3883	84.9609	86.4551	84.9609	85.4761	84.9609	86.4911	84.9609	85.5776	84.9609	86.4991	84.9609	85.6911	84.9609	86.4808	84.9609	85.8135	84.9609	86.438	84.9609	85.9401	84.9609	86.3724	84.9609	86.065	84.9609	86.2861	84.9609	86.1822
87.8906	85.1947	87.8906	85.1523	87.8906	85.2586	87.8906	85.1289	87.8906	85.3457	87.8906	85.1216	87.8906	85.4566	87.8906	85.1277	87.8906	85.5892	87.8906	85.1451	87.8906	85.739	87.8906	85.1721	87.8906	85.8983	87.8906	85.2073	87.8906	86.0574	87.8906	85.2504	87.8906	86.2056	87.8906	85.3012	87.8906	86.3329	87.8906	85.3605	87.8906	86.4314	87.8906	85.429	87.8906	86.4968	87.8906	85.5079	87.8906	86.5279	87.8906	85.5976	87.8906	86.5265	87.8906	85.6981	87.8906	86.4957	87.8906	85.8079	87.8906	86.4394	87.8906	85.9242	87.8906	86.3617	87.8906	86.0428	87.8906	86.2667	87.8906	86.1587
90.8203	85.3443	90.8203	85.304	90.8203	85.4052	90.8203	85.2815	90.8203	85.4888	90.8203	85.2735	90.8203	85.5955	90.8203	85.2771	90.8203	85.7234	90.8203	85.2896	90.8203	85.8678	90.8203	85.309	90.8203	86.0209	90.8203	85.3338	90.8203	86.1726	90.8203	85.3636	90.8203	86.3118	90.8203	85.3984	90.8203	86.4282	90.8203	85.4392	90.8203	86.5135	90.8203	85.4875	90.8203	86.5633	90.8203	85.5453	90.8203	86.5767	90.8203	85.6141	90.8203	86.556	90.8203	85.6951	90.8203	86.5056	90.8203	85.7884	90.8203	86.431	90.8203	85.8924	90.8203	86.338	90.8203	86.004	90.8203	86.2321	90.8203	86.1189
95.2148	85.4217	95.2148	85.3832	95.2148	85.4799	95.2148	85.3613	95.2148	85.5602	95.2148	85.3524	95.2148	85.6635	95.2148	85.3533	95.2148	85.788	95.2148	85.361	95.2148	85.929	95.2148	85.373	95.2148	86.0785	95.2148	85.3878	95.2148	86.2259	95.2148	85.4043	95.2148	86.3592	95.2148	85.4227	95.2148	86.4669	95.2148	85.4439	95.2148	86.5398	95.2148	85.4697	95.2148	86.5725	95.2148	85.5028	95.2148	86.564	95.2148	85.5461	95.2148	86.5177	95.2148	85.6024	95.2148	86.4397	95.2148	85.674	95.2148	86.3383	95.2148	85.7614	95.2148	86.2222	95.2148	85.8637	95.2148	86.0996	95.2148	85.978
98.1445	85.4853	98.1445	85.4461	98.1445	85.5441	98.1445	85.4232	98.1445	85.6248	98.1445	85.4131	98.1445	85.728	98.1445	85.4121	98.1445	85.8517	98.1445	85.4171	98.1445	85.9911	98.1445	85.4254	98.1445	86.1376	98.1445	85.4347	98.1445	86.2804	98.1445	85.444	98.1445	86.4069	98.1445	85.453	98.1445	86.5052	98.1445	85.4625	98.1445	86.5661	98.1445	85.4744	98.1445	86.584	98.1445	85.4918	98.1445	86.5586	98.1445	85.5182	98.1445	86.4938	98.1445	85.5576	98.1445	86.3974	98.1445	85.6136	98.1445	86.2791	98.1445	85.6883	98.1445	86.1494	98.1445	85.7822	98.1445	86.0181	98.1445	85.8936
101.074	85.5568	101.074	85.5196	101.074	85.6136	101.074	85.4986	101.074	85.6923	101.074	85.4901	101.074	85.7935	101.074	85.4902	101.074	85.9153	101.074	85.4954	101.074	86.0524	101.074	85.5027	101.074	86.1964	101.074	85.5097	101.074	86.3358	101.074	85.5147	101.074	86.458	101.074	85.5174	101.074	86.5508	101.074	85.5184	101.074	86.6043	101.074	85.5197	101.074	86.6132	101.074	85.5246	101.074	86.5772	101.074	85.5374	101.074	86.5006	101.074	85.5629	101.074	86.3922	101.074	85.6056	101.074	86.263	101.074	85.6692	101.074	86.1247	101.074	85.7553	101.074	85.9883	101.074	85.8629
105.469	85.6457	105.469	85.6167	105.469	85.6956	105.469	85.6047	105.469	85.769	105.469	85.6054	105.469	85.8665	105.469	85.6144	105.469	85.9859	105.469	85.6272	105.469	86.1216	105.469	85.6401	105.469	86.2646	105.469	85.6498	105.469	86.4026	105.469	85.6542	105.469	86.5222	105.469	85.6523	105.469	86.6105	105.469	85.6445	105.469	86.6573	105.469	85.6328	105.469	86.6571	105.469	85.621	105.469	86.6098	105.469	85.6142	105.469	86.5208	105.469	85.6185	105.469	86.3999	105.469	85.6401	105.469	86.2598	105.469	85.6847	105.469	86.114	105.469	85.7556	105.469	85.9752	105.469	85.8535
108.398	85.7776	108.398	85.7496	108.398	85.8254	108.398	85.7378	108.398	85.8958	108.398	85.7376	108.398	85.9897	108.398	85.7446	108.398	86.1051	108.398	85.7544	108.398	86.2367	108.398	85.7632	108.398	86.3757	108.398	85.7678	108.398	86.5101	108.398	85.7663	108.398	86.6266	108.398	85.7576	108.398	86.7122	108.398	85.7423	108.398	86.7564	108.398	85.7229	108.398	86.7533	108.398	85.7031	108.398	86.7024	108.398	85.6886	108.398	86.6087	108.398	85.686	108.398	86.4821	108.398	85.7023	108.398	86.3355	108.398	85.7435	108.398	86.1833	108.398	85.8135	108.398	86.0388	108.398	85.9131
112.793	85.9614	112.793	85.931	112.793	86.0104	112.793	85.9155	112.793	86.0807	112.793	85.9108	112.793	86.1732	112.793	85.9125	112.793	86.2862	112.793	85.9165	112.793	86.4149	112.793	85.919	112.793	86.5508	112.793	85.9166	112.793	86.6822	112.793	85.9072	112.793	86.7955	112.793	85.8898	112.793	86.8773	112.793	85.8649	112.793	86.9165	112.793	85.8347	112.793	86.9064	112.793	85.8036	112.793	86.8458	112.793	85.7776	112.793	86.7398	112.793	85.7642	112.793	86.5986	112.793	85.7715	112.793	86.4365	112.793	85.8068	112.793	86.2692	112.793	85.8753	112.793	86.1123	112.793	85.9782
117.188	86.1774	117.188	86.1467	117.188	86.2276	117.188	86.1316	117.188	86.3	117.188	86.1277	117.188	86.3954	117.188	86.1304	117.188	86.512	117.188	86.1349	117.188	86.6444	117.188	86.1371	117.188	86.7837	117.188	86.1333	117.188	86.9176	117.188	86.121	117.188	87.0319	117.188	86.099	117.188	87.1126	117.188	86.0676	117.188	87.1481	117.188	86.0294	117.188	87.1314	117.188	85.9889	117.188	87.0615	117.188	85.9527	117.188	86.9436	117.188	85.9293	117.188	86.7891	117.188	85.9278	117.188	86.6132	117.188	85.9567	117.188	86.4335	117.188	86.0223	117.188	86.2668	117.188	86.1268
120.117	86.2797	120.117	86.2491	120.117	86.3285	120.117	86.2326	120.117	86.398	120.117	86.2262	120.117	86.4895	120.117	86.2252	120.117	86.6015	120.117	86.2252	120.117	86.7292	120.117	86.2221	120.117	86.864	120.117	86.2125	120.117	86.9938	120.117	86.1939	120.117	87.1045	120.117	86.1651	120.117	87.1819	120.117	86.1268	120.117	87.214	120.117	86.0814	120.117	87.1935	120.117	86.0338	120.117	87.1188	120.117	85.9908	120.117	86.9951	120.117	85.9612	120.117	86.8339	120.117	85.9545	120.117	86.6511	120.117	85.9799	120.117	86.4648	120.117	86.0441	120.117	86.2928	120.117	86.1494
124.512	86.4045	124.512	86.368	124.512	86.4573	124.512	86.3446	124.512	86.5289	124.512	86.3304	124.512	86.6201	124.512	86.3212	124.512	86.7294	124.512	86.3128	124.512	86.8521	124.512	86.3013	124.512	86.9799	124.512	86.2831	124.512	87.1011	124.512	86.2559	124.512	87.2016	124.512	86.2182	124.512	87.2676	124.512	86.1706	124.512	87.2872	124.512	86.1155	124.512	87.253	124.512	86.0578	124.512	87.1639	124.512	86.0045	124.512	87.0255	124.512	85.9648	124.512	86.8499	124.512	85.9489	124.512	86.6539	124.512	85.9669	124.512	86.4569	124.512	86.0265	124.512	86.2776	124.512	86.131
128.906	86.4268	128.906	86.3882	128.906	86.4796	128.906	86.3611	128.906	86.549	128.906	86.3421	128.906	86.6358	128.906	86.3276	128.906	86.7391	128.906	86.314	128.906	86.8547	128.906	86.2976	128.906	86.975	128.906	86.275	128.906	87.0889	128.906	86.2438	128.906	87.1831	128.906	86.2026	128.906	87.2435	128.906	86.1516	128.906	87.2582	128.906	86.093	128.906	87.2196	128.906	86.0314	128.906	87.1263	128.906	85.9736	128.906	86.9836	128.906	85.9289	128.906	86.8038	128.906	85.9079	128.906	86.6042	128.906	85.9209	128.906	86.4045	128.906	85.9764	128.906	86.2241	128.906	86.0782
133.301	86.4617	133.301	86.4215	133.301	86.511	133.301	86.3892	133.301	86.5708	133.301	86.3633	133.301	86.6423	133.301	86.3419	133.301	86.7265	133.301	86.3221	133.301	86.8226	133.301	86.3008	133.301	86.927	133.301	86.2743	133.301	87.0319	133.301	86.2395	133.301	87.1257	133.301	86.1939	133.301	87.1938	133.301	86.1368	133.301	87.2215	133.301	86.0698	133.301	87.1972	133.301	85.9975	133.301	87.1151	133.301	85.9275	133.301	86.9772	133.301	85.8705	133.301	86.7942	133.301	85.8393	133.301	86.5839	133.301	85.8468	133.301	86.3688	133.301	85.903	133.301	86.1719	133.301	86.0126
139.16	86.4841	139.16	86.4384	139.16	86.5348	139.16	86.3971	139.16	86.5914	139.16	86.3598	139.16	86.6553	139.16	86.3253	139.16	86.7284	139.16	86.2915	139.16	86.8113	139.16	86.2559	139.16	86.9021	139.16	86.2152	139.16	86.9951	139.16	86.1665	139.16	87.0798	139.16	86.1075	139.16	87.1422	139.16	86.038	139.16	87.1672	139.16	85.9598	139.16	87.142	139.16	85.878	139.16	87.0592	139.16	85.8011	139.16	86.9193	139.16	85.7403	139.16	86.7315	139.16	85.7092	139.16	86.5133	139.16	85.7208	139.16	86.2874	139.16	85.7852	139.16	86.078	139.16	85.9059
143.555	86.5336	143.555	86.4871	143.555	86.5855	143.555	86.4456	143.555	86.6437	143.555	86.4081	143.555	86.7095	143.555	86.3732	143.555	86.7841	143.555	86.3384	143.555	86.8677	143.555	86.3005	143.555	86.9579	143.555	86.2559	143.555	87.0484	143.555	86.2013	143.555	87.1282	143.555	86.1344	143.555	87.1833	143.555	86.0548	143.555	87.1987	143.555	85.9649	143.555	87.1617	143.555	85.8703	143.555	87.0654	143.555	85.7801	143.555	86.9111	143.555	85.7067	143.555	86.709	143.555	85.6645	143.555	86.4775	143.555	85.6677	143.555	86.2405	143.555	85.7273	143.555	86.0232	143.555	85.8474
147.949	86.6585	147.949	86.6099	147.949	86.7111	147.949	86.5646	147.949	86.7686	147.949	86.5215	147.949	86.8325	147.949	86.4788	147.949	86.904	147.949	86.434	147.949	86.9833	147.949	86.3839	147.949	87.0678	147.949	86.3249	147.949	87.1509	147.949	86.254	147.949	87.2215	147.949	86.1694	147.949	87.2655	147.949	86.0714	147.949	87.2676	147.949	85.9631	147.949	87.2155	147.949	85.8509	147.949	87.1024	147.949	85.745	147.949	86.9301	147.949	85.6587	147.949	86.7095	147.949	85.6073	147.949	86.4601	147.949	85.6057	147.949	86.2068	147.949	85.6654	147.949	85.976	147.949	85.7905
153.809	86.7105	153.809	86.6547	153.809	86.7642	153.809	86.5971	153.809	86.8163	153.809	86.5378	153.809	86.8681	153.809	86.4765	153.809	86.9218	153.809	86.4116	153.809	86.979	153.809	86.341	153.809	87.0392	153.809	86.2618	153.809	87.0977	153.809	86.1716	153.809	87.1453	153.809	86.069	153.809	87.1686	153.809	85.9543	153.809	87.1528	153.809	85.8307	153.809	87.0853	153.809	85.7049	153.809	86.9588	153.809	85.5869	153.809	86.7747	153.809	85.4901	153.809	86.5436	153.809	85.4302	153.809	86.2853	153.809	85.4223	153.809	86.025	153.809	85.4781	153.809	85.7896	153.809	85.6022
159.668	86.62	159.668	86.5581	159.668	86.6806	159.668	86.4957	159.668	86.7407	159.668	86.4336	159.668	86.8022	159.668	86.3721	159.668	86.8684	159.668	86.3107	159.668	86.9423	159.668	86.2474	159.668	87.0242	159.668	86.1796	159.668	87.1099	159.668	86.1049	159.668	87.1893	159.668	86.0215	159.668	87.2475	159.668	85.9296	159.668	87.2676	159.668	85.832	159.668	87.2344	159.668	85.7348	159.668	87.1385	159.668	85.6477	159.668	86.9792	159.668	85.5832	159.668	86.7658	159.668	85.5559	159.668	86.5168	159.668	85.5793	159.668	86.2572	159.668	85.6631	159.668	86.0137	159.668	85.8102
165.527	86.7436	165.527	86.6911	165.527	86.7897	165.527	86.633	165.527	86.8301	165.527	86.5709	165.527	86.8677	165.527	86.5058	165.527	86.9077	165.527	86.4376	165.527	86.9555	165.527	86.3654	165.527	87.0147	165.527	86.2874	165.527	87.0841	165.527	86.2019	165.527	87.156	165.527	86.108	165.527	87.2163	165.527	86.0071	165.527	87.2475	165.527	85.903	165.527	87.2325	165.527	85.8029	165.527	87.1595	165.527	85.7172	165.527	87.0248	165.527	85.6585	165.527	86.835	165.527	85.6405	165.527	86.6061	165.527	85.6748	165.527	86.3609	165.527	85.7686	165.527	86.1249	165.527	85.9216
171.387	86.6879	171.387	86.6277	171.387	86.741	171.387	86.5622	171.387	86.7865	171.387	86.4935	171.387	86.8259	171.387	86.4227	171.387	86.8631	171.387	86.3496	171.387	86.9025	171.387	86.2723	171.387	86.9473	171.387	86.188	171.387	86.9965	171.387	86.0942	171.387	87.0432	171.387	85.9892	171.387	87.0748	171.387	85.8736	171.387	87.0754	171.387	85.7514	171.387	87.0296	171.387	85.63	171.387	86.9274	171.387	85.5208	171.387	86.7666	171.387	85.4378	171.387	86.5556	171.387	85.3962	171.387	86.3116	171.387	85.4091	171.387	86.0585	171.387	85.4851	171.387	85.822	171.387	85.6254
177.246	86.5429	177.246	86.474	177.246	86.6081	177.246	86.4025	177.246	86.6692	177.246	86.3299	177.246	86.7279	177.246	86.2567	177.246	86.7873	177.246	86.1819	177.246	86.8503	177.246	86.1031	177.246	86.9178	177.246	86.0167	177.246	86.9856	177.246	85.9196	177.246	87.044	177.246	85.8098	177.246	87.0779	177.246	85.6879	177.246	87.0705	177.246	85.5578	177.246	87.0065	177.246	85.4275	177.246	86.8775	177.246	85.3089	177.246	86.6841	177.246	85.2171	177.246	86.4378	177.246	85.1684	177.246	86.1595	177.246	85.1778	177.246	85.8763	177.246	85.2553	177.246	85.6162	177.246	85.4037
183.105	86.4087	183.105	86.3072	183.105	86.5095	183.105	86.2075	183.105	86.608	183.105	86.112	183.105	86.7041	183.105	86.022	183.105	86.7992	183.105	85.9365	183.105	86.8943	183.105	85.853	183.105	86.9884	183.105	85.7677	183.105	87.0757	183.105	85.6767	183.105	87.1455	183.105	85.5773	183.105	87.1826	183.105	85.4693	183.105	87.1703	183.105	85.3559	183.105	87.0948	183.105	85.2445	183.105	86.949	183.105	85.1462	183.105	86.7353	183.105	85.0756	183.105	86.4668	183.105	85.0483	183.105	86.1659	183.105	85.0787	183.105	85.8604	183.105	85.1769	183.105	85.5789	183.105	85.3458
188.965	86.3803	188.965	86.2955	188.965	86.4487	188.965	86.1982	188.965	86.4992	188.965	86.0932	188.965	86.5342	188.965	85.9848	188.965	86.5601	188.965	85.8755	188.965	86.5846	188.965	85.7652	188.965	86.6147	188.965	85.6524	188.965	86.6517	188.965	85.5348	188.965	86.6895	188.965	85.4108	188.965	86.7141	188.965	85.2806	188.965	86.7069	188.965	85.148	188.965	86.6498	188.965	85.0204	188.965	86.5308	188.965	84.9093	188.965	86.3477	188.965	84.829	188.965	86.1097	188.965	84.7945	188.965	85.8363	188.965	84.8189	188.965	85.554	188.965	84.9106	188.965	85.2906	188.965	85.0705
196.289	86.2309	196.289	86.1554	196.289	86.2989	196.289	86.0763	196.289	86.3578	196.289	85.9978	196.289	86.4093	196.289	85.9228	196.289	86.4582	196.289	85.8518	196.289	86.5101	196.289	85.7821	196.289	86.5685	196.289	85.709	196.289	86.6311	196.289	85.627	196.289	86.688	196.289	85.5313	196.289	86.7223	196.289	85.4195	196.289	86.714	196.289	85.293	196.289	86.6451	196.289	85.1581	196.289	86.5056	196.289	85.0259	196.289	86.2969	196.289	84.9122	196.289	86.033	196.289	84.8354	196.289	85.7391	196.289	84.8138	196.289	85.4468	196.289	84.8623	196.289	85.188	196.289	84.9881
203.613	86.0039	203.613	85.9098	203.613	86.0829	203.613	85.8077	203.613	86.1424	203.613	85.7051	203.613	86.1831	203.613	85.608	203.613	86.2109	203.613	85.5189	203.613	86.2358	203.613	85.4366	203.613	86.2676	203.613	85.3574	203.613	86.3112	203.613	85.276	203.613	86.3622	203.613	85.1883	203.613	86.4061	203.613	85.0925	203.613	86.4222	203.613	84.9906	203.613	86.39	203.613	84.8884	203.613	86.2951	203.613	84.7962	203.613	86.1338	203.613	84.7269	203.613	85.9149	203.613	84.6949	203.613	85.6584	203.613	84.714	203.613	85.3916	203.613	84.7942	203.613	85.1437	203.613	84.9393
210.938	85.1567	210.938	85.0292	210.938	85.2339	210.938	84.8617	210.938	85.2608	210.938	84.6716	210.938	85.2507	210.938	84.4795	210.938	85.2301	210.938	84.3058	210.938	85.2342	210.938	84.1675	210.938	85.2967	210.938	84.0764	210.938	85.4351	210.938	84.0381	210.938	85.6418	210.938	84.0527	210.938	85.8859	210.938	84.1158	210.938	86.125	210.938	84.2206	210.938	86.3188	210.938	84.3592	210.938	86.438	210.938	84.5244	210.938	86.468	210.938	84.7104	210.938	86.4087	210.938	84.9136	210.938	86.272	210.938	85.1322	210.938	86.0778	210.938	85.3643	210.938	85.849	210.938	85.6061
218.262	85.6892	218.262	85.5768	218.262	85.7544	218.262	85.4359	218.262	85.7564	218.262	85.2841	218.262	85.686	218.262	85.1358	218.262	85.546	218.262	84.9999	218.262	85.3564	218.262	84.8809	218.262	85.1577	218.262	84.7799	218.262	85.0067	218.262	84.6978	218.262	84.9615	218.262	84.6383	218.262	85.0557	218.262	84.6093	218.262	85.2795	218.262	84.6225	218.262	85.5825	218.262	84.6902	218.262	85.8971	218.262	84.8202	218.262	86.163	218.262	85.0113	218.262	86.3402	218.262	85.2519	218.262	86.4109	218.262	85.5216	218.262	86.3756	218.262	85.7951	218.262	86.2471	218.262	86.0456
225.586	86.227	225.586	86.1012	225.586	86.2989	225.586	85.9348	225.586	86.306	225.586	85.7421	225.586	86.2437	225.586	85.5357	225.586	86.1157	225.586	85.326	225.586	85.9375	225.586	85.121	225.586	85.7375	225.586	84.9271	225.586	85.5541	225.586	84.7511	225.586	85.4282	225.586	84.6015	225.586	85.3887	225.586	84.4898	225.586	85.4402	225.586	84.4296	225.586	85.5597	225.586	84.4332	225.586	85.7064	225.586	84.5078	225.586	85.8371	225.586	84.651	225.586	85.9182	225.586	84.85	225.586	85.9307	225.586	85.0833	225.586	85.8691	225.586	85.3256	225.586	85.7386	225.586	85.5515
232.91	86.502	232.91	86.3519	232.91	86.5933	232.91	86.1568	232.91	86.6136	232.91	85.9304	232.91	86.5551	232.91	85.6844	232.91	86.4161	232.91	85.4274	232.91	86.2043	232.91	85.165	232.91	85.9375	232.91	84.9016	232.91	85.6442	232.91	84.642	232.91	85.3602	232.91	84.3943	232.91	85.1214	232.91	84.172	232.91	84.953	232.91	83.9932	232.91	84.8611	232.91	83.878	232.91	84.8316	232.91	83.8418	232.91	84.8366	232.91	83.8887	232.91	84.8454	232.91	84.0078	232.91	84.832	232.91	84.1752	232.91	84.7794	232.91	84.361	232.91	84.6801	232.91	84.5365
241.699	86.2072	241.699	86.0427	241.699	86.3165	241.699	85.837	241.699	86.3588	241.699	85.6043	241.699	86.3276	241.699	85.3572	241.699	86.2228	241.699	85.1045	241.699	86.0527	241.699	84.8519	241.699	85.834	241.699	84.6027	241.699	85.5899	241.699	84.3599	241.699	85.3459	241.699	84.1297	241.699	85.1241	241.699	83.9228	241.699	84.938	241.699	83.7548	241.699	84.7907	241.699	83.6433	241.699	84.6769	241.699	83.6017	241.699	84.5872	241.699	83.6328	241.699	84.5113	241.699	83.7259	241.699	84.4391	241.699	83.859	241.699	84.3599	241.699	84.0061	241.699	84.264	241.699	84.1453
250.488	86.2512	250.488	86.0463	250.488	86.3875	250.488	85.7865	250.488	86.4448	250.488	85.4865	250.488	86.4178	250.488	85.1601	250.488	86.3083	250.488	84.819	250.488	86.1265	250.488	84.4722	250.488	85.892	250.488	84.1275	250.488	85.6311	250.488	83.7936	250.488	85.3726	250.488	83.4829	250.488	85.1399	250.488	83.2142	250.488	84.945	250.488	83.011	250.488	84.7859	250.488	82.8964	250.488	84.651	250.488	82.8841	250.488	84.5264	250.488	82.9709	250.488	84.4014	250.488	83.1351	250.488	84.2693	250.488	83.344	250.488	84.1246	250.488	83.5651	250.488	83.9614	250.488	83.7747
259.277	86.3059	259.277	86.1206	259.277	86.4313	259.277	85.8904	259.277	86.484	259.277	85.6302	259.277	86.4568	259.277	85.3526	259.277	86.3492	259.277	85.0661	259.277	86.1702	259.277	84.775	259.277	85.938	259.277	84.481	259.277	85.6787	259.277	84.1861	259.277	85.4214	259.277	83.8972	259.277	85.191	259.277	83.6291	259.277	85.0013	259.277	83.4052	259.277	84.8525	259.277	83.2539	259.277	84.7345	259.277	83.1982	259.277	84.6332	259.277	83.2449	259.277	84.5354	259.277	83.3796	259.277	84.4303	259.277	83.5708	259.277	84.3086	259.277	83.7825	259.277	84.1617	259.277	83.985
268.066	85.9493	268.066	85.7442	268.066	86.0925	268.066	85.492	268.066	86.1621	268.066	85.2077	268.066	86.1515	268.066	84.9046	268.066	86.061	268.066	84.5921	268.066	85.8998	268.066	84.2758	268.066	85.6857	268.066	83.9589	268.066	85.4431	268.066	83.6448	268.066	85.1973	268.066	83.3418	268.066	84.9683	268.066	83.0659	268.066	84.7652	268.066	82.8414	268.066	84.5855	268.066	82.6957	268.066	84.4209	268.066	82.6492	268.066	84.2635	268.066	82.7057	268.066	84.1095	268.066	82.8475	268.066	83.9575	268.066	83.0418	268.066	83.8035	268.066	83.2536	268.066	83.6395	268.066	83.4567
276.855	86.0522	276.855	85.843	276.855	86.1906	276.855	85.5754	276.855	86.2485	276.855	85.2623	276.855	86.2202	276.855	84.9152	276.855	86.1072	276.855	84.5439	276.855	85.9194	276.855	84.1561	276.855	85.6768	276.855	83.7599	276.855	85.4078	276.855	83.3667	276.855	85.1443	276.855	82.9956	276.855	84.9133	276.855	82.6762	276.855	84.7286	276.855	82.4455	276.855	84.5875	276.855	82.3384	276.855	84.4754	276.855	82.372	276.855	84.3742	276.855	82.5343	276.855	84.2693	276.855	82.7868	276.855	84.1507	276.855	83.0795	276.855	84.0099	276.855	83.3682	276.855	83.8375	276.855	83.6245
287.109	85.8207	287.109	85.6664	287.109	85.9143	287.109	85.4636	287.109	85.9367	287.109	85.2238	287.109	85.882	287.109	84.9552	287.109	85.7513	287.109	84.6609	287.109	85.5554	287.109	84.3394	287.109	85.3154	287.109	83.9865	287.109	85.061	287.109	83.6003	287.109	84.8237	287.109	83.1877	287.109	84.6269	287.109	82.7715	287.109	84.4775	287.109	82.3942	287.109	84.3653	287.109	82.1145	287.109	84.2702	287.109	81.9889	287.109	84.1721	287.109	82.0437	287.109	84.0565	287.109	82.2569	287.109	83.9139	287.109	82.5692	287.109	83.7356	287.109	82.9127	287.109	83.5118	287.109	83.2358
297.363	86.0991	297.363	85.9422	297.363	86.1715	297.363	85.7147	297.363	86.1476	297.363	85.4304	297.363	86.0208	297.363	85.1013	297.363	85.7929	297.363	84.7361	297.363	85.4782	297.363	84.3411	297.363	85.1068	297.363	83.9212	297.363	84.724	297.363	83.4843	297.363	84.3812	297.363	83.0457	297.363	84.1191	297.363	82.6333	297.363	83.9511	297.363	82.288	297.363	83.8602	297.363	82.0577	297.363	83.8127	297.363	81.98	297.363	83.7753	297.363	82.0627	297.363	83.7249	297.363	82.2758	297.363	83.6472	297.363	82.5638	297.363	83.531	297.363	82.8676	297.363	83.3652	297.363	83.1425
307.617	85.9524	307.617	85.7771	307.617	86.0648	307.617	85.556	307.617	86.0959	307.617	85.3021	307.617	86.0299	307.617	85.0215	307.617	85.8575	307.617	84.7132	307.617	85.5809	307.617	84.3715	307.617	85.2169	307.617	83.9898	307.617	84.7996	307.617	83.5667	307.617	84.3769	307.617	83.1133	307.617	84.0001	307.617	82.6602	307.617	83.7089	307.617	82.2602	307.617	83.5189	307.617	81.9814	307.617	83.4208	307.617	81.8817	307.617	83.3894	307.617	81.9769	307.617	83.3941	307.617	82.2253	307.617	83.4022	307.617	82.5489	307.617	83.3797	307.617	82.8675	307.617	83.2945	307.617	83.1246
319.336	85.5428	319.336	85.3332	319.336	85.6879	319.336	85.0794	319.336	85.749	319.336	84.7989	319.336	85.7113	319.336	84.5025	319.336	85.5669	319.336	84.1918	319.336	85.3179	319.336	83.8604	319.336	84.9781	319.336	83.4977	319.336	84.5747	319.336	83.0966	319.336	84.1465	319.336	82.6628	319.336	83.7398	319.336	82.2236	319.336	83.3985	319.336	81.8334	319.336	83.1538	319.336	81.5656	319.336	83.0157	319.336	81.4846	319.336	82.9713	319.336	81.6072	319.336	82.9898	319.336	81.8864	319.336	83.0281	319.336	82.2355	319.336	83.0393	319.336	82.5685	319.336	82.9811	319.336	82.8256
329.59	85.2311	329.59	85.0221	329.59	85.372	329.59	84.763	329.59	85.43	329.59	84.471	329.59	85.3956	329.59	84.1582	329.59	85.2665	329.59	83.8278	329.59	85.048	329.59	83.4736	329.59	84.7527	329.59	83.0835	329.59	84.3998	329.59	82.6469	329.59	84.0121	329.59	82.1651	329.59	83.6125	329.59	81.6627	329.59	83.2227	329.59	81.1964	329.59	82.8652	329.59	80.8512	329.59	82.5668	329.59	80.7106	329.59	82.3552	329.59	80.8056	329.59	82.2441	329.59	81.0862	329.59	82.2145	329.59	81.4486	329.59	82.2129	329.59	81.7884	329.59	82.1717	329.59	82.0371
341.309	85.1997	341.309	84.9661	341.309	85.3465	341.309	84.6681	341.309	85.3894	341.309	84.3304	341.309	85.3194	341.309	83.9749	341.309	85.1378	341.309	83.6157	341.309	84.8579	341.309	83.2564	341.309	84.5062	341.309	82.8914	341.309	84.1198	341.309	82.5129	341.309	83.7385	341.309	82.1206	341.309	83.3929	341.309	81.733	341.309	83.0964	341.309	81.3938	341.309	82.8491	341.309	81.1663	341.309	82.65	341.309	81.1082	341.309	82.5073	341.309	81.2348	341.309	82.432	341.309	81.501	341.309	82.4185	341.309	81.822	341.309	82.4309	341.309	82.1121	341.309	82.4132	341.309	82.3146
353.027	85.4162	353.027	85.1556	353.027	85.5784	353.027	84.8197	353.027	85.6238	353.027	84.4327	353.027	85.5413	353.027	84.0148	353.027	85.3303	353.027	83.5787	353.027	85.003	353.027	83.1263	353.027	84.5869	353.027	82.651	353.027	84.1232	353.027	82.1443	353.027	83.6593	353.027	81.608	353.027	83.2355	353.027	81.0689	353.027	82.8727	353.027	80.592	353.027	82.5724	353.027	80.2754	353.027	82.3304	353.027	80.2087	353.027	82.1511	353.027	80.4075	353.027	82.0464	353.027	80.7903	353.027	82.0134	353.027	81.2272	353.027	82.015	353.027	81.6053	353.027	81.986	353.027	81.8614
366.211	85.4606	366.211	85.2131	366.211	85.6095	366.211	84.8876	366.211	85.6417	366.211	84.5049	366.211	85.5448	366.211	84.0815	366.211	85.3154	366.211	83.6273	366.211	84.9643	366.211	83.1439	366.211	84.5207	366.211	82.626	366.211	84.0341	366.211	82.0686	366.211	83.5658	366.211	81.4773	366.211	83.1685	366.211	80.8823	366.211	82.8629	366.211	80.3505	366.211	82.6322	366.211	79.981	366.211	82.442	366.211	79.8669	366.211	82.2699	366.211	80.0306	366.211	82.1171	366.211	80.3974	366.211	81.9926	366.211	80.8407	366.211	81.8864	366.211	81.2479	366.211	81.7584	366.211	81.5567
379.395	85.5818	379.395	85.3697	379.395	85.7087	379.395	85.091	379.395	85.733	379.395	84.7616	379.395	85.6404	379.395	84.3917	379.395	85.423	379.395	83.9831	379.395	85.0814	379.395	83.5294	379.395	84.6294	379.395	83.0209	379.395	84.0975	379.395	82.4524	379.395	83.5343	379.395	81.8342	379.395	83.0027	379.395	81.2064	379.395	82.5672	379.395	80.6504	379.395	82.2748	379.395	80.2822	379.395	82.1389	379.395	80.2042	379.395	82.1366	379.395	80.4316	379.395	82.2186	379.395	80.8712	379.395	82.3223	379.395	81.3798	379.395	82.383	379.395	81.8354	379.395	82.3437	379.395	82.1651
392.578	85.0625	392.578	84.8305	392.578	85.2102	392.578	84.5374	392.578	85.255	392.578	84.2063	392.578	85.185	392.578	83.8535	392.578	84.9971	392.578	83.483	392.578	84.6983	392.578	83.0845	392.578	84.3076	392.578	82.6374	392.578	83.8538	392.578	82.1221	392.578	83.3699	392.578	81.5339	392.578	82.8846	392.578	80.9019	392.578	82.4188	392.578	80.3076	392.578	81.9939	392.578	79.886	392.578	81.648	392.578	79.7742	392.578	81.4382	392.578	80.0096	392.578	81.406	392.578	80.4838	392.578	81.5252	392.578	81.0186	392.578	81.6953	392.578	81.4623	392.578	81.7934	392.578	81.7281
405.762	85.177	405.762	84.9209	405.762	85.318	405.762	84.5725	405.762	85.3265	405.762	84.1571	405.762	85.1929	405.762	83.6976	405.762	84.9182	405.762	83.2091	405.762	84.5177	405.762	82.6946	405.762	84.0243	405.762	82.1471	405.762	83.487	405.762	81.5577	405.762	82.9612	405.762	80.9305	405.762	82.4904	405.762	80.3021	405.762	82.0917	405.762	79.7603	405.762	81.7605	405.762	79.4378	405.762	81.4961	405.762	79.4484	405.762	81.3243	405.762	79.7904	405.762	81.2836	405.762	80.3299	405.762	81.3745	405.762	80.8889	405.762	81.5267	405.762	81.3291	405.762	81.6274	405.762	81.5782
420.41	85.1892	420.41	84.9369	420.41	85.3403	420.41	84.612	420.41	85.3684	420.41	84.2439	420.41	85.2621	420.41	83.8549	420.41	85.021	420.41	83.4516	420.41	84.6578	420.41	83.0218	420.41	84.1977	420.41	82.5383	420.41	83.677	420.41	81.9698	420.41	83.1353	420.41	81.2965	420.41	82.6058	420.41	80.5327	420.41	82.1082	420.41	79.7582	420.41	81.6559	420.41	79.1431	420.41	81.2752	420.41	78.9023	420.41	81.018	420.41	79.1299	420.41	80.935	420.41	79.6892	420.41	81.0168	420.41	80.3311	420.41	81.1689	420.41	80.858	420.41	81.2572	420.41	81.1715
435.059	84.9271	435.059	84.6549	435.059	85.0804	435.059	84.2946	435.059	85.0949	435.059	83.8833	435.059	84.9628	435.059	83.4561	435.059	84.6905	435.059	83.0343	435.059	84.3011	435.059	82.617	435.059	83.8357	435.059	82.1831	435.059	83.3487	435.059	81.7053	435.059	82.8912	435.059	81.1699	435.059	82.4878	435.059	80.5994	435.059	82.1266	435.059	80.071	435.059	81.7787	435.059	79.7153	435.059	81.4425	435.059	79.6623	435.059	81.1765	435.059	79.9413	435.059	81.0757	435.059	80.4384	435.059	81.1775	435.059	80.972	435.059	81.3969	435.059	81.387	435.059	81.579	435.059	81.5949
451.172	85.5643	451.172	85.2634	451.172	85.7119	451.172	84.8338	451.172	85.6916	451.172	84.3082	451.172	85.4997	451.172	83.7217	451.172	85.1439	451.172	83.1012	451.172	84.6473	451.172	82.4552	451.172	84.0522	451.172	81.7709	451.172	83.4189	451.172	81.0214	451.172	82.8102	451.172	80.1859	451.172	82.2619	451.172	79.2827	451.172	81.7622	451.172	78.4175	451.172	81.2676	451.172	77.8194	451.172	80.7569	451.172	77.7469	451.172	80.2888	451.172	78.2304	451.172	80.0026	451.172	79.0053	451.172	80.0034	451.172	79.756	451.172	80.2232	451.172	80.2844	451.172	80.4575	451.172	80.5131
465.82	85.2787	465.82	85.0028	465.82	85.4239	465.82	84.6227	465.82	85.4174	465.82	84.1673	465.82	85.2463	465.82	83.6604	465.82	84.9082	465.82	83.1123	465.82	84.4165	465.82	82.5149	465.82	83.8079	465.82	81.8437	465.82	83.1449	465.82	81.0698	465.82	82.5045	465.82	80.1802	465.82	81.9469	465.82	79.2113	465.82	81.4832	465.82	78.3001	465.82	81.0781	465.82	77.716	465.82	80.6978	465.82	77.7291	465.82	80.368	465.82	78.3186	465.82	80.1837	465.82	79.166	465.82	80.2239	465.82	79.948	465.82	80.439	465.82	80.4828	465.82	80.6599	465.82	80.7107
483.398	84.8998	483.398	84.6444	483.398	85.0252	483.398	84.2926	483.398	84.9985	483.398	83.8848	483.398	84.8104	483.398	83.4558	483.398	84.4661	483.398	83.0205	483.398	83.9894	483.398	82.5635	483.398	83.4296	483.398	82.0434	483.398	82.8614	483.398	81.4057	483.398	82.3643	483.398	80.6003	483.398	81.9808	483.398	79.6045	483.398	81.6848	483.398	78.476	483.398	81.3991	483.398	77.4603	483.398	81.0605	483.398	77.035	483.398	80.6924	483.398	77.5054	483.398	80.4282	483.398	78.5429	483.398	80.4074	483.398	79.6043	483.398	80.5986	483.398	80.3766	483.398	80.7917	483.398	80.7624
499.512	85.2175	499.512	84.8758	499.512	85.3929	499.512	84.4087	499.512	85.3787	499.512	83.8739	499.512	85.1649	499.512	83.3342	499.512	84.7544	499.512	82.8332	499.512	84.1687	499.512	82.3722	499.512	83.4605	499.512	81.9072	499.512	82.7228	499.512	81.3668	499.512	82.0742	499.512	80.6753	499.512	81.6056	499.512	79.7769	499.512	81.3195	499.512	78.6805	499.512	81.1311	499.512	77.5649	499.512	80.9436	499.512	76.8981	499.512	80.7358	499.512	77.1569	499.512	80.5879	499.512	78.1568	499.512	80.5952	499.512	79.2941	499.512	80.7289	499.512	80.1761	499.512	80.82	499.512	80.6767
517.09	85.1237	517.09	84.7359	517.09	85.3363	517.09	84.2295	517.09	85.3441	517.09	83.6867	517.09	85.1403	517.09	83.1938	517.09	84.7389	517.09	82.8022	517.09	84.1798	517.09	82.4979	517.09	83.5361	517.09	82.2072	517.09	82.9083	517.09	81.8279	517.09	82.3863	517.09	81.2598	517.09	81.9939	517.09	80.4259	517.09	81.6663	517.09	79.3085	517.09	81.294	517.09	78.0478	517.09	80.8126	517.09	77.1134	517.09	80.2995	517.09	77.149	517.09	79.9949	517.09	78.1148	517.09	80.0924	517.09	79.3153	517.09	80.4615	517.09	80.2472	517.09	80.7634	517.09	80.7318
536.133	85.3015	536.133	84.7022	536.133	85.6085	536.133	83.8609	536.133	85.5994	536.133	82.8778	536.133	85.265	536.133	81.9241	536.133	84.6132	536.133	81.2123	536.133	83.6883	536.133	80.8705	536.133	82.6146	536.133	80.8258	536.133	81.6392	536.133	80.8652	536.133	81.0712	536.133	80.7785	536.133	81.0319	536.133	80.4254	536.133	81.3057	536.133	79.7478	536.133	81.5488	536.133	78.8084	536.133	81.5273	536.133	77.9106	536.133	81.2063	536.133	77.6313	536.133	80.7763	536.133	78.2605	536.133	80.5563	536.133	79.3327	536.133	80.6627	536.133	80.26	536.133	80.8447	536.133	80.7698
555.176	85.8992	555.176	85.3918	555.176	86.1664	555.176	84.6616	555.176	86.1791	555.176	83.7415	555.176	85.9189	555.176	82.6995	555.176	85.3625	555.176	81.6581	555.176	84.489	555.176	80.7849	555.176	83.3051	555.176	80.2141	555.176	81.9019	555.176	79.9399	555.176	80.5549	555.176	79.8126	555.176	79.7554	555.176	79.6452	555.176	79.8181	555.176	79.3066	555.176	80.4118	555.176	78.7751	555.176	80.9611	555.176	78.1919	555.176	81.149	555.176	77.8724	555.176	80.9618	555.176	78.082	555.176	80.5949	555.176	78.7036	555.176	80.2868	555.176	79.3719	555.176	80.0891	555.176	79.8384
574.219	86.1167	574.219	85.6716	574.219	86.3192	574.219	84.9925	574.219	86.2796	574.219	84.1062	574.219	85.9998	574.219	83.0692	574.219	85.4784	574.219	81.9763	574.219	84.7106	574.219	80.9563	574.219	83.6981	574.219	80.1324	574.219	82.4762	574.219	79.553	574.219	81.16	574.219	79.1484	574.219	79.9934	574.219	78.7742	574.219	79.3043	574.219	78.3153	574.219	79.246	574.219	77.7991	574.219	79.6222	574.219	77.4863	574.219	80.1366	574.219	77.758	574.219	80.643	574.219	78.6646	574.219	81.1063	574.219	79.8106	574.219	81.4676	574.219	80.7893	574.219	81.6063	574.219	81.4009
594.727	85.5914	594.727	85.2107	594.727	85.7416	594.727	84.6157	594.727	85.6586	594.727	83.8393	594.727	85.3533	594.727	82.9367	594.727	84.8489	594.727	81.9881	594.727	84.1754	594.727	81.0913	594.727	83.3592	594.727	80.3329	594.727	82.4204	594.727	79.7438	594.727	81.3908	594.727	79.2689	594.727	80.3492	594.727	78.789	594.727	79.4468	594.727	78.195	594.727	78.8769	594.727	77.5017	594.727	78.7717	594.727	76.9897	594.727	79.115	594.727	77.1578	594.727	79.7601	594.727	78.1365	594.727	80.4939	594.727	79.431	594.727	81.0911	594.727	80.5289	594.727	81.3639	594.727	81.1915
615.234	86.0429	615.234	85.6536	615.234	86.1625	615.234	85.0138	615.234	86.0106	615.234	84.1644	615.234	85.5997	615.234	83.1721	615.234	84.9491	615.234	82.133	615.234	84.0809	615.234	81.1683	615.234	83.0285	615.234	80.3963	615.234	81.8699	615.234	79.8758	615.234	80.7628	615.234	79.5543	615.234	79.9146	615.234	79.2845	615.234	79.4302	615.234	78.9095	615.234	79.1844	615.234	78.358	615.234	78.9403	615.234	77.7323	615.234	78.6101	615.234	77.3622	615.234	78.4056	615.234	77.5981	615.234	78.6252	615.234	78.3504	615.234	79.1684	615.234	79.1539	615.234	79.6054	615.234	79.6233
637.207	85.5984	637.207	85.0775	637.207	85.876	637.207	84.3491	637.207	85.8959	637.207	83.4761	637.207	85.6586	637.207	82.5471	637.207	85.1708	637.207	81.6672	637.207	84.4388	637.207	80.9309	637.207	83.4737	637.207	80.3813	637.207	82.3186	637.207	79.9783	637.207	81.0933	637.207	79.6079	637.207	80.0149	637.207	79.1334	637.207	79.3075	637.207	78.4596	637.207	79.0021	637.207	77.6126	637.207	78.912	637.207	76.8706	637.207	78.9038	637.207	76.7903	637.207	79.0805	637.207	77.6354	637.207	79.5742	637.207	78.9104	637.207	80.2155	637.207	80.0013	637.207	80.6452	637.207	80.6034
659.18	84.9862	659.18	84.6719	659.18	85.0748	659.18	84.156	659.18	84.9279	659.18	83.4743	659.18	84.5505	659.18	82.6728	659.18	83.9628	659.18	81.8064	659.18	83.1972	659.18	80.9382	659.18	82.2939	659.18	80.1357	659.18	81.3032	659.18	79.4525	659.18	80.2938	659.18	78.8974	659.18	79.3586	659.18	78.4165	659.18	78.5982	659.18	77.9292	659.18	78.0768	659.18	77.4148	659.18	77.7965	659.18	77.012	659.18	77.7577	659.18	77.0155	659.18	78.0251	659.18	77.5899	659.18	78.6035	659.18	78.495	659.18	79.277	659.18	79.3142	659.18	79.7324	659.18	79.7617
682.617	85.5778	682.617	85.1624	682.617	85.6668	682.617	84.4678	682.617	85.4119	682.617	83.5649	682.617	84.8321	682.617	82.5423	682.617	83.9838	682.617	81.4996	682.617	82.9457	682.617	80.5431	682.617	81.801	682.617	79.7724	682.617	80.6565	682.617	79.2414	682.617	79.6879	682.617	78.9101	682.617	79.0838	682.617	78.6546	682.617	78.849	682.617	78.3465	682.617	78.7602	682.617	77.9505	682.617	78.5937	682.617	77.6143	682.617	78.3755	682.617	77.6771	682.617	78.4518	682.617	78.3604	682.617	79.0942	682.617	79.4055	682.617	80.0052	682.617	80.327	682.617	80.6672	682.617	80.7911
707.52	85.7004	707.52	85.2979	707.52	85.8698	707.52	84.6929	707.52	85.7921	707.52	83.9307	707.52	85.4679	707.52	83.0645	707.52	84.9037	707.52	82.1497	707.52	84.1004	707.52	81.2427	707.52	83.0512	707.52	80.4052	707.52	81.7633	707.52	79.6992	707.52	80.3012	707.52	79.155	707.52	78.8426	707.52	78.7323	707.52	77.7047	707.52	78.3305	707.52	77.1749	707.52	77.871	707.52	77.2141	707.52	77.4115	707.52	77.5926	707.52	77.2207	707.52	78.2125	707.52	77.6041	707.52	79.003	707.52	78.4814	707.52	79.7323	707.52	79.4132	707.52	80.1238	707.52	80.0183
732.422	85.9139	732.422	85.6934	732.422	85.8802	732.422	85.2344	732.422	85.6082	732.422	84.5787	732.422	85.1411	732.422	83.7852	732.422	84.529	732.422	82.9136	732.422	83.791	732.422	82.008	732.422	82.8951	732.422	81.0892	732.422	81.7915	732.422	80.1584	732.422	80.4836	732.422	79.2077	732.422	79.0847	732.422	78.2303	732.422	77.8385	732.422	77.2535	732.422	77.0486	732.422	76.4196	732.422	76.8222	732.422	76.0691	732.422	77.0134	732.422	76.5595	732.422	77.5939	732.422	77.7712	732.422	78.6	732.422	79.1478	732.422	79.7241	732.422	80.2045	732.422	80.508	732.422	80.6872
757.324	86.5564	757.324	86.2621	757.324	86.587	757.324	85.7391	757.324	86.332	757.324	85.0222	757.324	85.7933	757.324	84.1356	757.324	85.0056	757.324	83.1017	757.324	84.0433	757.324	81.9757	757.324	83.0119	757.324	80.8775	757.324	82.017	757.324	79.951	757.324	81.1126	757.324	79.2326	757.324	80.2564	757.324	78.5886	757.324	79.3351	757.324	77.8261	757.324	78.3084	757.324	76.8657	757.324	77.4168	757.324	75.9902	757.324	77.1688	757.324	76.0291	757.324	77.7778	757.324	77.343	757.324	78.8792	757.324	79.0347	757.324	79.983	757.324	80.2989	757.324	80.723	757.324	80.8662
785.156	86.3864	785.156	86.1328	785.156	86.3957	785.156	85.6973	785.156	86.1193	785.156	85.1423	785.156	85.5542	785.156	84.507	785.156	84.7452	785.156	83.7918	785.156	83.7774	785.156	82.9677	785.156	82.7525	785.156	82.0174	785.156	81.7698	785.156	80.9836	785.156	80.9024	785.156	79.9744	785.156	80.1132	785.156	79.0922	785.156	79.1918	785.156	78.3353	785.156	77.849	785.156	77.6033	785.156	76.0238	785.156	76.8656	785.156	74.6631	785.156	76.4184	785.156	75.4394	785.156	76.7969	785.156	77.3844	785.156	77.9372	785.156	78.9566	785.156	79.1194	785.156	79.7691	785.156	79.8016
811.523	87.1339	811.523	86.8327	811.523	87.1564	811.523	86.284	811.523	86.8734	811.523	85.524	811.523	86.2762	811.523	84.6048	811.523	85.3904	811.523	83.5945	811.523	84.2655	811.523	82.5569	811.523	82.9466	811.523	81.5319	811.523	81.5315	811.523	80.5492	811.523	80.3297	811.523	79.6552	811.523	79.6906	811.523	78.8932	811.523	79.4034	811.523	78.2512	811.523	78.769	811.523	77.6779	811.523	77.1336	811.523	77.2543	811.523	74.6479	811.523	77.3748	811.523	74.9132	811.523	78.3622	811.523	78.1345	811.523	79.8194	811.523	80.5195	811.523	81.0841	811.523	81.6448	811.523	81.7629
840.82	88.4124	840.82	88.2284	840.82	88.286	840.82	87.7272	840.82	87.8631	840.82	86.9109	840.82	87.1754	840.82	85.7989	840.82	86.2779	840.82	84.4395	840.82	85.2163	840.82	82.9271	840.82	83.979	840.82	81.4342	840.82	82.5523	840.82	80.2268	840.82	81.1089	840.82	79.5541	840.82	80.0702	840.82	79.405	840.82	79.6565	840.82	79.4678	840.82	79.4022	840.82	79.3884	840.82	78.5664	840.82	79.0185	840.82	76.9914	840.82	78.6142	840.82	76.5552	840.82	78.8718	840.82	78.7558	840.82	80.0532	840.82	81.0155	840.82	81.4249	840.82	82.1797	840.82	82.2529
870.117	89.0919	870.117	88.8368	870.117	88.9109	870.117	88.1617	870.117	88.2983	870.117	87.1063	870.117	87.2979	870.117	85.7441	870.117	86.0202	870.117	84.1839	870.117	84.6108	870.117	82.5563	870.117	83.1339	870.117	81.0106	870.117	81.6262	870.117	79.7372	870.117	80.4389	870.117	78.9359	870.117	80.1011	870.117	78.6366	870.117	80.3881	870.117	78.604	870.117	80.4551	870.117	78.5435	870.117	79.5453	870.117	78.3806	870.117	77.1877	870.117	78.4498	870.117	74.9389	870.117	79.2553	870.117	77.3324	870.117	80.6385	870.117	80.4221	870.117	81.885	870.117	82.0693	870.117	82.4631
900.879	89.123	900.879	88.8278	900.879	89.0283	900.879	88.1332	900.879	88.5796	900.879	87.0568	900.879	87.8465	900.879	85.6516	900.879	86.9143	900.879	84.0045	900.879	85.796	900.879	82.2128	900.879	84.3549	900.879	80.3804	900.879	82.412	900.879	78.7108	900.879	80.0599	900.879	77.6368	900.879	78.1678	900.879	77.5589	900.879	78.1356	900.879	78.2044	900.879	79.272	900.879	78.8804	900.879	79.6848	900.879	79.1766	900.879	78.4694	900.879	79.1726	900.879	76.2769	900.879	79.4139	900.879	77.3056	900.879	80.3419	900.879	80.2518	900.879	81.5332	900.879	81.9284	900.879	82.2345
933.105	89.0133	933.105	88.6933	933.105	88.8836	933.105	87.9507	933.105	88.3096	933.105	86.8591	933.105	87.3359	933.105	85.5448	933.105	86.0608	933.105	84.1385	933.105	84.5922	933.105	82.6733	933.105	82.935	933.105	81.0457	933.105	81.0591	933.105	79.131	933.105	79.3161	933.105	77.0526	933.105	78.5664	933.105	75.6501	933.105	78.9271	933.105	75.8869	933.105	79.3121	933.105	76.9303	933.105	78.7252	933.105	77.6707	933.105	76.7846	933.105	78.0236	933.105	75.1383	933.105	78.5767	933.105	77.27	933.105	79.741	933.105	80.0495	933.105	81.0432	933.105	81.5402	933.105	81.7834
965.332	88.9668	965.332	88.738	965.332	88.7108	965.332	87.9927	965.332	88.0258	965.332	86.7484	965.332	87.0262	965.332	85.1456	965.332	85.9216	965.332	83.4946	965.332	84.8608	965.332	82.1144	965.332	83.6364	965.332	81.014	965.332	81.8164	965.332	79.9176	965.332	79.2794	965.332	78.5913	965.332	77.0373	965.332	77.1801	965.332	77.3534	965.332	76.4446	965.332	79.1664	965.332	76.8161	965.332	79.9286	965.332	77.5117	965.332	78.7298	965.332	77.9033	965.332	76.134	965.332	78.2047	965.332	76.8652	965.332	79.0543	965.332	79.8245	965.332	80.3876	965.332	81.3425	965.332	81.3784
1,000.49	88.8202	1,000.49	88.7031	1,000.49	88.4375	1,000.49	88.0469	1,000.49	87.6427	1,000.49	86.8324	1,000.49	86.6294	1,000.49	85.0911	1,000.49	85.6537	1,000.49	83.0118	1,000.49	84.7446	1,000.49	81.0527	1,000.49	83.5591	1,000.49	79.6961	1,000.49	81.7392	1,000.49	78.908	1,000.49	79.2536	1,000.49	78.3361	1,000.49	76.478	1,000.49	77.8191	1,000.49	74.6622	1,000.49	77.4315	1,000.49	75.4119	1,000.49	77.2445	1,000.49	76.6094	1,000.49	77.1822	1,000.49	76.016	1,000.49	77.338	1,000.49	73.6299	1,000.49	78.1887	1,000.49	75.1841	1,000.49	79.7879	1,000.49	79.3055	1,000.49	81.3447	1,000.49	81.5626	1,000.49	82.0959
1,035.64	88.4231	1,035.64	88.6139	1,035.64	87.8329	1,035.64	88.2438	1,035.64	87.0261	1,035.64	87.177	1,035.64	86.2277	1,035.64	85.3404	1,035.64	85.6481	1,035.64	82.8027	1,035.64	85.2267	1,035.64	79.8802	1,035.64	84.5378	1,035.64	77.1055	1,035.64	83.172	1,035.64	74.8421	1,035.64	81.1292	1,035.64	73.2828	1,035.64	79.0111	1,035.64	73.4942	1,035.64	78.0354	1,035.64	75.5756	1,035.64	78.5286	1,035.64	77.6354	1,035.64	78.6936	1,035.64	78.8333	1,035.64	77.0914	1,035.64	79.1833	1,035.64	74.1452	1,035.64	79.1326	1,035.64	75.6843	1,035.64	79.5264	1,035.64	79.2725	1,035.64	80.5764	1,035.64	81.1161	1,035.64	81.3818
1,072.27	87.6708	1,072.27	88.0254	1,072.27	86.9524	1,072.27	87.8235	1,072.27	86.1086	1,072.27	86.955	1,072.27	85.3623	1,072.27	85.4337	1,072.27	84.8434	1,072.27	83.455	1,072.27	84.467	1,072.27	81.3865	1,072.27	83.8212	1,072.27	79.548	1,072.27	82.328	1,072.27	77.9231	1,072.27	79.6702	1,072.27	76.3039	1,072.27	76.8455	1,072.27	75.0829	1,072.27	77.3899	1,072.27	75.3029	1,072.27	79.8198	1,072.27	76.5008	1,072.27	80.6017	1,072.27	77.4749	1,072.27	78.3783	1,072.27	77.9165	1,072.27	69.8542	1,072.27	78.3605	1,072.27	71.4966	1,072.27	79.5715	1,072.27	78.9186	1,072.27	81.1157	1,072.27	81.4797	1,072.27	81.9654
1,108.89	88.1647	1,108.89	88.372	1,108.89	87.5568	1,108.89	88.0906	1,108.89	86.6691	1,108.89	87.2755	1,108.89	85.7099	1,108.89	85.9935	1,108.89	84.9702	1,108.89	84.4589	1,108.89	84.5759	1,108.89	82.9153	1,108.89	84.2112	1,108.89	81.4317	1,108.89	83.2878	1,108.89	79.8196	1,108.89	81.3449	1,108.89	77.6717	1,108.89	78.1749	1,108.89	74.8006	1,108.89	75.7482	1,108.89	73.4378	1,108.89	79.1594	1,108.89	75.8322	1,108.89	81.8647	1,108.89	78.2017	1,108.89	81.4261	1,108.89	79.259	1,108.89	76.882	1,108.89	79.3567	1,108.89	68.588	1,108.89	79.432	1,108.89	76.9221	1,108.89	80.1635	1,108.89	80.2125	1,108.89	80.8184
1,148.44	88.1283	1,148.44	88.0418	1,148.44	87.8302	1,148.44	87.5936	1,148.44	87.1616	1,148.44	86.7958	1,148.44	86.2468	1,148.44	85.7143	1,148.44	85.3209	1,148.44	84.5498	1,148.44	84.6097	1,148.44	83.5325	1,148.44	84.0539	1,148.44	82.6669	1,148.44	83.1077	1,148.44	81.5769	1,148.44	80.9659	1,148.44	79.6037	1,148.44	76.9162	1,148.44	76.037	1,148.44	73.1969	1,148.44	70.743	1,148.44	78.0939	1,148.44	71.5446	1,148.44	81.5459	1,148.44	76.06	1,148.44	81.4341	1,148.44	78.24	1,148.44	77.0669	1,148.44	78.6262	1,148.44	69.7987	1,148.44	78.5584	1,148.44	77.0193	1,148.44	79.4021	1,148.44	80.0054	1,148.44	80.364
1,189.45	88.0747	1,189.45	87.7913	1,189.45	87.896	1,189.45	87.0718	1,189.45	87.2895	1,189.45	85.9342	1,189.45	86.3403	1,189.45	84.3681	1,189.45	85.1275	1,189.45	82.4957	1,189.45	83.8361	1,189.45	81.019	1,189.45	82.8556	1,189.45	80.8081	1,189.45	82.2741	1,189.45	80.9487	1,189.45	81.3944	1,189.45	79.9894	1,189.45	79.0038	1,189.45	77.1512	1,189.45	72.6747	1,189.45	71.8888	1,189.45	71.6774	1,189.45	69.9046	1,189.45	79.1751	1,189.45	74.3272	1,189.45	80.7989	1,189.45	76.7015	1,189.45	77.8219	1,189.45	77.4067	1,189.45	67.7479	1,189.45	77.6707	1,189.45	75.4294	1,189.45	78.7388	1,189.45	79.4101	1,189.45	79.871
1,230.47	88.2093	1,230.47	87.7703	1,230.47	88.1417	1,230.47	86.9762	1,230.47	87.5507	1,230.47	85.963	1,230.47	86.4862	1,230.47	84.6455	1,230.47	84.998	1,230.47	82.7376	1,230.47	83.3859	1,230.47	80.2073	1,230.47	82.3457	1,230.47	78.4185	1,230.47	82.0777	1,230.47	78.2143	1,230.47	81.5737	1,230.47	77.4161	1,230.47	79.6258	1,230.47	74.7683	1,230.47	75.007	1,230.47	70.4323	1,230.47	72.9155	1,230.47	72.4829	1,230.47	79.2871	1,230.47	77.0849	1,230.47	80.9381	1,230.47	79.1311	1,230.47	77.5624	1,230.47	79.3745	1,230.47	66.8625	1,230.47	79.1367	1,230.47	76.6658	1,230.47	79.6794	1,230.47	80.0942	1,230.47	80.4727
1,274.41	89.1925	1,274.41	88.4687	1,274.41	89.1363	1,274.41	87.1773	1,274.41	88.3451	1,274.41	85.7351	1,274.41	87.0229	1,274.41	84.3271	1,274.41	85.3901	1,274.41	82.5714	1,274.41	83.5854	1,274.41	79.823	1,274.41	81.8549	1,274.41	76.3525	1,274.41	80.76	1,274.41	75.6947	1,274.41	80.4198	1,274.41	76.7103	1,274.41	79.6965	1,274.41	75.9781	1,274.41	76.607	1,274.41	72.0098	1,274.41	66.6242	1,274.41	59.998	1,274.41	75.7052	1,274.41	71.8967	1,274.41	80.6392	1,274.41	76.8356	1,274.41	80.4183	1,274.41	78.81	1,274.41	73.6587	1,274.41	79.8332	1,274.41	69.8729	1,274.41	80.8294	1,274.41	79.2793	1,274.41	81.2214
1,319.82	90.3054	1,319.82	89.6031	1,319.82	90.3097	1,319.82	88.1979	1,319.82	89.6868	1,319.82	86.3638	1,319.82	88.3966	1,319.82	84.6609	1,319.82	86.4387	1,319.82	83.222	1,319.82	84.2263	1,319.82	81.1368	1,319.82	82.2425	1,319.82	76.8483	1,319.82	80.5209	1,319.82	71.8269	1,319.82	79.0285	1,319.82	73.4583	1,319.82	77.8326	1,319.82	73.964	1,319.82	76.0471	1,319.82	73.0139	1,319.82	70.5886	1,319.82	70.4024	1,319.82	70.5231	1,319.82	72.3461	1,319.82	78.5431	1,319.82	75.6171	1,319.82	80.8947	1,319.82	76.2169	1,319.82	78.6474	1,319.82	77.1422	1,319.82	68.9907	1,319.82	79.9548	1,319.82	77.3497	1,319.82	80.8225
1,366.7	90.3679	1,366.7	89.8738	1,366.7	90.2628	1,366.7	88.6206	1,366.7	89.6768	1,366.7	86.6426	1,366.7	88.6381	1,366.7	84.4726	1,366.7	87.0361	1,366.7	82.7716	1,366.7	84.5932	1,366.7	80.966	1,366.7	81.5189	1,366.7	77.1831	1,366.7	79.6623	1,366.7	70.1418	1,366.7	79.9061	1,366.7	68.783	1,366.7	79.7057	1,366.7	72.6178	1,366.7	77.2742	1,366.7	74.4566	1,366.7	71.9513	1,366.7	71.8073	1,366.7	67.3567	1,366.7	72.7271	1,366.7	75.0083	1,366.7	77.3307	1,366.7	78.7686	1,366.7	78.8354	1,366.7	78.2757	1,366.7	78.4126	1,366.7	74.9802	1,366.7	78.0398	1,366.7	76.6101	1,366.7	78.2812
1,413.57	90.4262	1,413.57	89.7771	1,413.57	90.1168	1,413.57	88.0897	1,413.57	89.1878	1,413.57	85.7214	1,413.57	88.2024	1,413.57	83.6165	1,413.57	87.2909	1,413.57	82.5644	1,413.57	85.6018	1,413.57	81.7347	1,413.57	82.5238	1,413.57	79.7792	1,413.57	78.822	1,413.57	77.3454	1,413.57	75.9729	1,413.57	75.9841	1,413.57	73.6624	1,413.57	75.952	1,413.57	71.2328	1,413.57	75.1863	1,413.57	71.1321	1,413.57	72.6761	1,413.57	71.3537	1,413.57	74.2084	1,413.57	70.0538	1,413.57	76.4812	1,413.57	75.4286	1,413.57	76.5449	1,413.57	78.2581	1,413.57	75.6498	1,413.57	78.4719	1,413.57	76.4159	1,413.57	78.4226	1,413.57	77.97
1,463.38	89.3095	1,463.38	89.0214	1,463.38	89.333	1,463.38	88.1153	1,463.38	89.242	1,463.38	86.5986	1,463.38	88.627	1,463.38	84.387	1,463.38	86.8278	1,463.38	80.9909	1,463.38	83.2023	1,463.38	77.6204	1,463.38	78.1837	1,463.38	76.138	1,463.38	75.7069	1,463.38	76.0918	1,463.38	76.0345	1,463.38	77.1902	1,463.38	76.6072	1,463.38	77.6552	1,463.38	75.1742	1,463.38	75.8692	1,463.38	69.6805	1,463.38	71.7144	1,463.38	63.7685	1,463.38	71.0475	1,463.38	68.8651	1,463.38	72.7802	1,463.38	70.9682	1,463.38	73.5385	1,463.38	72.1618	1,463.38	74.0067	1,463.38	75.5076	1,463.38	75.8152	1,463.38	77.9095	1,463.38	77.783
1,516.11	88.3284	1,516.11	87.5744	1,516.11	88.7763	1,516.11	86.7031	1,516.11	88.623	1,516.11	85.533	1,516.11	87.553	1,516.11	83.3892	1,516.11	85.2529	1,516.11	79.5262	1,516.11	81.9718	1,516.11	74.5851	1,516.11	79.5358	1,516.11	73.2283	1,516.11	78.029	1,516.11	75.2105	1,516.11	77.1772	1,516.11	76.5878	1,516.11	77.8241	1,516.11	77.0804	1,516.11	77.3464	1,516.11	76.0439	1,516.11	73.0968	1,516.11	72.6443	1,516.11	67.9212	1,516.11	69.4488	1,516.11	71.9797	1,516.11	71.8386	1,516.11	70.4439	1,516.11	73.5286	1,516.11	67.4987	1,516.11	73.8602	1,516.11	73.7776	1,516.11	74.1573	1,516.11	76.5948	1,516.11	75.9669
1,568.85	88.0131	1,568.85	86.777	1,568.85	88.4378	1,568.85	85.281	1,568.85	87.7744	1,568.85	83.7901	1,568.85	86.1957	1,568.85	82.1173	1,568.85	84.3151	1,568.85	80.2802	1,568.85	82.6561	1,568.85	79.0422	1,568.85	79.6857	1,568.85	78.734	1,568.85	71.2481	1,568.85	77.2595	1,568.85	63.6839	1,568.85	74.1204	1,568.85	66.119	1,568.85	72.3728	1,568.85	68.0342	1,568.85	73.5307	1,568.85	71.9876	1,568.85	74.3358	1,568.85	77.0565	1,568.85	73.8066	1,568.85	78.9387	1,568.85	75.8571	1,568.85	74.1808	1,568.85	77.6562	1,568.85	66.104	1,568.85	76.6948	1,568.85	75.8412	1,568.85	73.8894	1,568.85	75.0506	1,568.85	72.5636
1,624.51	88.5057	1,624.51	86.8686	1,624.51	88.9341	1,624.51	84.7257	1,624.51	87.8355	1,624.51	82.8055	1,624.51	85.2607	1,624.51	80.9228	1,624.51	81.7145	1,624.51	78.0142	1,624.51	78.4274	1,624.51	74.9874	1,624.51	77.0632	1,624.51	74.1138	1,624.51	76.3068	1,624.51	74.686	1,624.51	74.7608	1,624.51	72.8604	1,624.51	73.0344	1,624.51	67.4511	1,624.51	74.2342	1,624.51	66.9901	1,624.51	74.0902	1,624.51	71.6473	1,624.51	66.2542	1,624.51	72.6473	1,624.51	71.5307	1,624.51	72.1375	1,624.51	72.5623	1,624.51	73.0077	1,624.51	61.1898	1,624.51	74.018	1,624.51	74.1656	1,624.51	74.7722	1,624.51	76.5238	1,624.51	75.8065
1,681.64	89.0922	1,681.64	87.7551	1,681.64	88.9538	1,681.64	84.6964	1,681.64	87.3642	1,681.64	79.5005	1,681.64	85.151	1,681.64	77.7706	1,681.64	82.7695	1,681.64	79.259	1,681.64	79.0047	1,681.64	81.2224	1,681.64	72.3852	1,681.64	80.2114	1,681.64	69.0478	1,681.64	76.6455	1,681.64	76.8894	1,681.64	77.6287	1,681.64	79.0798	1,681.64	79.4123	1,681.64	77.4801	1,681.64	76.8656	1,681.64	68.7858	1,681.64	69.2213	1,681.64	73.5255	1,681.64	70.2997	1,681.64	76.2746	1,681.64	70.9059	1,681.64	74.78	1,681.64	72.6785	1,681.64	57.7654	1,681.64	72.8415	1,681.64	73.9152	1,681.64	71.1279	1,681.64	75.6399	1,681.64	72.6209
1,741.7	88.7985	1,741.7	86.6337	1,741.7	89.533	1,741.7	83.5693	1,741.7	88.0069	1,741.7	79.783	1,741.7	83.0723	1,741.7	75.1608	1,741.7	77.5163	1,741.7	72.3472	1,741.7	78.3785	1,741.7	66.2786	1,741.7	77.8037	1,741.7	74.0099	1,741.7	77.477	1,741.7	81.9138	1,741.7	77.413	1,741.7	83.415	1,741.7	76.6536	1,741.7	82.0476	1,741.7	77.5796	1,741.7	80.3272	1,741.7	81.2192	1,741.7	79.1064	1,741.7	81.5832	1,741.7	75.3144	1,741.7	75.0053	1,741.7	67.0023	1,741.7	69.1084	1,741.7	48.9259	1,741.7	74.546	1,741.7	66.646	1,741.7	65.6523	1,741.7	73.5344	1,741.7	73.4062	1,741.7	76.339
1,803.22	88.8036	1,803.22	87.3902	1,803.22	89.1946	1,803.22	84.0538	1,803.22	87.9429	1,803.22	78.0966	1,803.22	83.7156	1,803.22	72.9682	1,803.22	74.426	1,803.22	69.4155	1,803.22	68.8044	1,803.22	72.974	1,803.22	73.1391	1,803.22	73.1895	1,803.22	74.0046	1,803.22	71.2844	1,803.22	74.9898	1,803.22	72.5854	1,803.22	78.0966	1,803.22	74.03	1,803.22	77.8895	1,803.22	70.0877	1,803.22	74.2568	1,803.22	68.3352	1,803.22	72.8097	1,803.22	72.2704	1,803.22	67.2082	1,803.22	72.4359	1,803.22	71.4594	1,803.22	69.4358	1,803.22	63.8006	1,803.22	63.7012	1,803.22	71.0854	1,803.22	64.1194	1,803.22	74.2978	1,803.22	70.8956
1,866.21	88.4507	1,866.21	86.9692	1,866.21	88.7158	1,866.21	83.2042	1,866.21	87.4441	1,866.21	77.3804	1,866.21	82.9379	1,866.21	73.9536	1,866.21	74.0847	1,866.21	71.0388	1,866.21	76.2134	1,866.21	72.704	1,866.21	77.5397	1,866.21	72.0572	1,866.21	76.6915	1,866.21	71.1361	1,866.21	74.7105	1,866.21	71.2927	1,866.21	76.656	1,866.21	70.9115	1,866.21	77.1731	1,866.21	66.5594	1,866.21	75.4258	1,866.21	61.8192	1,866.21	75.4693	1,866.21	71.093	1,866.21	69.034	1,866.21	73.6117	1,866.21	74.393	1,866.21	71.7442	1,866.21	70.4537	1,866.21	67.5505	1,866.21	68.4876	1,866.21	67.6963	1,866.21	75.1232	1,866.21	72.8162
1,932.13	88.1546	1,932.13	85.3697	1,932.13	88.438	1,932.13	80.0358	1,932.13	86.8753	1,932.13	76.5873	1,932.13	82.3706	1,932.13	74.9322	1,932.13	74.5016	1,932.13	72.3496	1,932.13	78.0878	1,932.13	71.7141	1,932.13	79.6104	1,932.13	71.8353	1,932.13	78.398	1,932.13	75.129	1,932.13	75.7911	1,932.13	74.479	1,932.13	76.7994	1,932.13	73.1245	1,932.13	77.7751	1,932.13	71.7396	1,932.13	74.937	1,932.13	65.0764	1,932.13	75.9882	1,932.13	69.6586	1,932.13	71.2733	1,932.13	74.0493	1,932.13	74.0609	1,932.13	73.0345	1,932.13	72.2062	1,932.13	68.5329	1,932.13	65.8996	1,932.13	68.4233	1,932.13	74.3322	1,932.13	73.2226
1,999.51	88.4086	1,999.51	85.2283	1,999.51	88.4969	1,999.51	80.3023	1,999.51	85.7511	1,999.51	75.9444	1,999.51	79.8961	1,999.51	72.5898	1,999.51	72.4459	1,999.51	69.6826	1,999.51	78.5334	1,999.51	69.4482	1,999.51	80.3468	1,999.51	74.3975	1,999.51	79.5802	1,999.51	73.778	1,999.51	76.778	1,999.51	65.0518	1,999.51	75.478	1,999.51	67.4424	1,999.51	77.1284	1,999.51	73.7304	1,999.51	76.3883	1,999.51	70.1319	1,999.51	76.541	1,999.51	58.5084	1,999.51	71.923	1,999.51	71.6391	1,999.51	72.1967	1,999.51	72.4192	1,999.51	72.4495	1,999.51	66.1198	1,999.51	66.1148	1,999.51	64.3467	1,999.51	75.0702	1,999.51	72.8716
2,069.82	88.6714	2,069.82	85.4954	2,069.82	89.1976	2,069.82	80.6738	2,069.82	86.6131	2,069.82	72.3214	2,069.82	79.8529	2,069.82	72.9333	2,069.82	71.5549	2,069.82	71.6935	2,069.82	79.4384	2,069.82	69.7784	2,069.82	81.2386	2,069.82	74.0396	2,069.82	80.2104	2,069.82	75.5278	2,069.82	77.6518	2,069.82	76.185	2,069.82	76.6143	2,069.82	74.178	2,069.82	79.0105	2,069.82	70.6152	2,069.82	77.4054	2,069.82	71.9506	2,069.82	77.2483	2,069.82	68.1059	2,069.82	74.1638	2,069.82	68.2757	2,069.82	70.8482	2,069.82	72.8247	2,069.82	72.7525	2,069.82	66.7506	2,069.82	68.481	2,069.82	55.6655	2,069.82	73.9287	2,069.82	69.8697
2,143.07	88.1427	2,143.07	85.0982	2,143.07	88.9855	2,143.07	79.2708	2,143.07	86.5389	2,143.07	51.9508	2,143.07	78.7548	2,143.07	70.5174	2,143.07	72.1684	2,143.07	71.8861	2,143.07	80.3681	2,143.07	76.9497	2,143.07	81.805	2,143.07	76.9567	2,143.07	81.9751	2,143.07	73.4217	2,143.07	79.5819	2,143.07	73.3267	2,143.07	76.6193	2,143.07	74.4932	2,143.07	79.6494	2,143.07	71.1743	2,143.07	79.3665	2,143.07	71.7102	2,143.07	76.6514	2,143.07	70.8649	2,143.07	74.8288	2,143.07	65.532	2,143.07	68.8787	2,143.07	72.8084	2,143.07	71.974	2,143.07	68.1737	2,143.07	72.1592	2,143.07	58.5136	2,143.07	73.426	2,143.07	56.0261
2,219.24	86.8238	2,219.24	83.7732	2,219.24	88.0595	2,219.24	77.299	2,219.24	86.3123	2,219.24	67.0776	2,219.24	78.4111	2,219.24	68.1692	2,219.24	74.269	2,219.24	74.6368	2,219.24	81.3905	2,219.24	77.339	2,219.24	82.388	2,219.24	76.874	2,219.24	81.2135	2,219.24	76.317	2,219.24	77.6117	2,219.24	73.9741	2,219.24	75.7971	2,219.24	72.8083	2,219.24	79.7725	2,219.24	71.496	2,219.24	80.5274	2,219.24	70.5583	2,219.24	77.5921	2,219.24	71.9689	2,219.24	75.9264	2,219.24	67.3184	2,219.24	67.6486	2,219.24	70.2537	2,219.24	67.1292	2,219.24	66.7718	2,219.24	71.7308	2,219.24	62.4093	2,219.24	73.0014	2,219.24	48.8364
2,296.88	85.571	2,296.88	81.879	2,296.88	86.458	2,296.88	76.2954	2,296.88	84.5689	2,296.88	70.5539	2,296.88	76.9688	2,296.88	70.205	2,296.88	74.122	2,296.88	78.9733	2,296.88	82.6487	2,296.88	78.6704	2,296.88	82.8899	2,296.88	76.9271	2,296.88	80.9005	2,296.88	76.3223	2,296.88	76.8116	2,296.88	71.0133	2,296.88	74.1203	2,296.88	69.4949	2,296.88	77.6573	2,296.88	73.2783	2,296.88	78.7047	2,296.88	69.941	2,296.88	77.6936	2,296.88	71.321	2,296.88	75.9425	2,296.88	71.2808	2,296.88	71.892	2,296.88	68.4326	2,296.88	64.6835	2,296.88	64.6414	2,296.88	69.8692	2,296.88	66.2709	2,296.88	70.2861	2,296.88	66.6894
2,378.91	85.6648	2,378.91	82.5633	2,378.91	86.7589	2,378.91	78.4989	2,378.91	83.6596	2,378.91	53.7746	2,378.91	73.839	2,378.91	76.4727	2,378.91	75.9691	2,378.91	78.9423	2,378.91	82.5176	2,378.91	78.3398	2,378.91	84.378	2,378.91	77.3895	2,378.91	83.3587	2,378.91	76.5438	2,378.91	79.8145	2,378.91	77.5032	2,378.91	77.9636	2,378.91	75.1898	2,378.91	77.9878	2,378.91	72.4959	2,378.91	76.4888	2,378.91	74.5624	2,378.91	75.5204	2,378.91	73.7241	2,378.91	77.1733	2,378.91	71.5723	2,378.91	71.0305	2,378.91	70.5564	2,378.91	68.1451	2,378.91	66.0779	2,378.91	67.6595	2,378.91	63.4442	2,378.91	69.6365	2,378.91	68.5567
2,462.4	86.2764	2,462.4	84.9098	2,462.4	86.6635	2,462.4	78.6676	2,462.4	83.7169	2,462.4	73.0225	2,462.4	70.3551	2,462.4	77.7175	2,462.4	78.6922	2,462.4	76.8731	2,462.4	83.0259	2,462.4	79.697	2,462.4	84.294	2,462.4	80.027	2,462.4	83.0611	2,462.4	76.165	2,462.4	77.6999	2,462.4	75.4313	2,462.4	75.5616	2,462.4	76.3559	2,462.4	77.4333	2,462.4	72.65	2,462.4	78.2871	2,462.4	72.0009	2,462.4	73.6078	2,462.4	74.1917	2,462.4	76.4983	2,462.4	72.2023	2,462.4	69.9985	2,462.4	70.5234	2,462.4	68.0232	2,462.4	67.9434	2,462.4	68.3615	2,462.4	60.6025	2,462.4	72.249	2,462.4	70.4346
2,548.83	86.8071	2,548.83	85.3703	2,548.83	86.3046	2,548.83	78.8338	2,548.83	83.9223	2,548.83	76.4989	2,548.83	72.2345	2,548.83	78.8903	2,548.83	78.2391	2,548.83	80.7572	2,548.83	82.75	2,548.83	79.9189	2,548.83	83.505	2,548.83	78.8639	2,548.83	81.5383	2,548.83	78.6055	2,548.83	79.041	2,548.83	76.1361	2,548.83	77.9313	2,548.83	73.9414	2,548.83	76.6546	2,548.83	70.8679	2,548.83	76.9762	2,548.83	69.6329	2,548.83	75.1069	2,548.83	73.2238	2,548.83	74.9397	2,548.83	72.7482	2,548.83	71.5175	2,548.83	70.0698	2,548.83	60.3217	2,548.83	68.2041	2,548.83	68.3828	2,548.83	55.5802	2,548.83	73.7402	2,548.83	71.5323
2,639.65	86.5092	2,639.65	84.4332	2,639.65	85.7727	2,639.65	78.1997	2,639.65	83.5799	2,639.65	76.9244	2,639.65	76.0478	2,639.65	80.966	2,639.65	78.4855	2,639.65	81.6358	2,639.65	83.3598	2,639.65	79.4665	2,639.65	82.9894	2,639.65	77.3465	2,639.65	81.3536	2,639.65	74.4886	2,639.65	79.5098	2,639.65	71.5659	2,639.65	76.7149	2,639.65	70.9548	2,639.65	76.6138	2,639.65	71.9074	2,639.65	75.3206	2,639.65	68.222	2,639.65	74.5432	2,639.65	70.0273	2,639.65	72.7222	2,639.65	72.4691	2,639.65	72.1549	2,639.65	70.1002	2,639.65	63.1801	2,639.65	67.4428	2,639.65	68.1358	2,639.65	60.4229	2,639.65	72.8386	2,639.65	66.2528
2,731.93	85.8777	2,731.93	83.2864	2,731.93	85.3747	2,731.93	76.997	2,731.93	82.3248	2,731.93	76.8352	2,731.93	76.859	2,731.93	81.6289	2,731.93	78.5947	2,731.93	81.0615	2,731.93	82.3614	2,731.93	79.3151	2,731.93	82.3145	2,731.93	78.3035	2,731.93	79.3408	2,731.93	76.595	2,731.93	77.381	2,731.93	75.2016	2,731.93	74.6534	2,731.93	73.7671	2,731.93	73.3651	2,731.93	71.4393	2,731.93	74.6466	2,731.93	68.7999	2,731.93	73.7263	2,731.93	69.4931	2,731.93	71.846	2,731.93	69.6611	2,731.93	67.8421	2,731.93	68.3104	2,731.93	59.3503	2,731.93	65.9808	2,731.93	68.1982	2,731.93	63.3002	2,731.93	70.4008	2,731.93	67.049
2,828.61	85.9374	2,828.61	83.4553	2,828.61	85.0537	2,828.61	76.6342	2,828.61	81.3592	2,828.61	79.362	2,828.61	77.0099	2,828.61	81.1382	2,828.61	80.521	2,828.61	80.7066	2,828.61	81.9715	2,828.61	78.8359	2,828.61	81.2712	2,828.61	76.6037	2,828.61	79.15	2,828.61	76.4786	2,828.61	78.0978	2,828.61	74.3014	2,828.61	75.0722	2,828.61	71.356	2,828.61	64.6373	2,828.61	69.9507	2,828.61	71.5478	2,828.61	66.32	2,828.61	74.4318	2,828.61	69.2984	2,828.61	70.5226	2,828.61	70.3753	2,828.61	67.737	2,828.61	67.8513	2,828.61	52.7768	2,828.61	64.3244	2,828.61	66.7927	2,828.61	59.8584	2,828.61	69.8885	2,828.61	66.9547
2,928.22	86.5566	2,928.22	84.1979	2,928.22	85.3936	2,928.22	79.0513	2,928.22	81.6542	2,928.22	81.4743	2,928.22	75.4988	2,928.22	81.4848	2,928.22	80.217	2,928.22	80.2501	2,928.22	82.2924	2,928.22	79.3287	2,928.22	81.4005	2,928.22	77.7928	2,928.22	79.5393	2,928.22	74.4527	2,928.22	77.096	2,928.22	71.9419	2,928.22	71.9629	2,928.22	71.0847	2,928.22	62.201	2,928.22	72.3427	2,928.22	57.3815	2,928.22	69.1973	2,928.22	72.0604	2,928.22	68.8483	2,928.22	69.8083	2,928.22	71.4491	2,928.22	64.5893	2,928.22	68.8559	2,928.22	61.4141	2,928.22	64.9162	2,928.22	67.0531	2,928.22	63.3934	2,928.22	70.8789	2,928.22	67.5435
3,030.76	86.5278	3,030.76	83.8118	3,030.76	85.2173	3,030.76	80.5197	3,030.76	81.6046	3,030.76	81.6886	3,030.76	75.6251	3,030.76	81.1225	3,030.76	79.5008	3,030.76	79.8992	3,030.76	82.5667	3,030.76	79.0515	3,030.76	80.9565	3,030.76	76.7021	3,030.76	79.6386	3,030.76	74.9245	3,030.76	76.6485	3,030.76	76.2378	3,030.76	64.8819	3,030.76	73.2478	3,030.76	56.4091	3,030.76	70.952	3,030.76	65.886	3,030.76	69.8435	3,030.76	69.865	3,030.76	67.533	3,030.76	70.7758	3,030.76	71.1519	3,030.76	63.427	3,030.76	69.6676	3,030.76	58.9417	3,030.76	67.5191	3,030.76	67.8388	3,030.76	54.9272	3,030.76	70.7908	3,030.76	67.1716
3,137.7	86.2375	3,137.7	83.532	3,137.7	85.0449	3,137.7	80.1267	3,137.7	81.8335	3,137.7	81.0859	3,137.7	78.0496	3,137.7	81.5494	3,137.7	79.2322	3,137.7	80.8576	3,137.7	82.3074	3,137.7	79.4769	3,137.7	80.5675	3,137.7	78.1518	3,137.7	78.767	3,137.7	76.709	3,137.7	75.7912	3,137.7	74.2363	3,137.7	64.0369	3,137.7	69.8838	3,137.7	64.1081	3,137.7	69.6909	3,137.7	62.458	3,137.7	70.5079	3,137.7	71.7587	3,137.7	67.2766	3,137.7	71.0536	3,137.7	70.3907	3,137.7	66.7298	3,137.7	69.0962	3,137.7	55.5321	3,137.7	66.9717	3,137.7	67.8565	3,137.7	59.352	3,137.7	70.8015	3,137.7	66.4469
3,249.02	85.8233	3,249.02	82.5787	3,249.02	84.8543	3,249.02	80.4484	3,249.02	81.4232	3,249.02	81.3108	3,249.02	79.7182	3,249.02	82.337	3,249.02	79.1379	3,249.02	81.4319	3,249.02	81.1328	3,249.02	80.6782	3,249.02	79.9078	3,249.02	77.9065	3,249.02	78.7802	3,249.02	72.8405	3,249.02	72.9995	3,249.02	71.9851	3,249.02	64.2719	3,249.02	71	3,249.02	66.3134	3,249.02	69.8166	3,249.02	62.5591	3,249.02	69.4216	3,249.02	69.8711	3,249.02	67.6342	3,249.02	70.8333	3,249.02	70.4689	3,249.02	67.1187	3,249.02	68.0475	3,249.02	57.9507	3,249.02	65.1206	3,249.02	67.885	3,249.02	59.2961	3,249.02	69.8055	3,249.02	65.7046
3,363.28	85.6585	3,363.28	82.5937	3,363.28	84.8474	3,363.28	80.142	3,363.28	80.6842	3,363.28	81.6428	3,363.28	79.7845	3,363.28	82.9296	3,363.28	79.8205	3,363.28	81.606	3,363.28	80.3443	3,363.28	79.0445	3,363.28	80.2789	3,363.28	75.0564	3,363.28	80.3768	3,363.28	74.966	3,363.28	73.0055	3,363.28	74.1599	3,363.28	72.0192	3,363.28	70.9931	3,363.28	71.4109	3,363.28	67.7757	3,363.28	57.5782	3,363.28	67.0098	3,363.28	68.7923	3,363.28	66.681	3,363.28	69.8543	3,363.28	70.1997	3,363.28	65.7072	3,363.28	69.6342	3,363.28	53.8562	3,363.28	66.5546	3,363.28	67.9446	3,363.28	46.4821	3,363.28	68.7488	3,363.28	66.4036
3,481.93	85.7247	3,481.93	82.8416	3,481.93	85.1191	3,481.93	81.1911	3,481.93	80.6621	3,481.93	82.724	3,481.93	80.8897	3,481.93	82.92	3,481.93	81.032	3,481.93	80.7072	3,481.93	79.2758	3,481.93	79.0215	3,481.93	80.2908	3,481.93	77.3559	3,481.93	80.6371	3,481.93	74.8402	3,481.93	74.7861	3,481.93	70.3025	3,481.93	75.103	3,481.93	70.9664	3,481.93	72.6021	3,481.93	70.5565	3,481.93	56.206	3,481.93	67.8549	3,481.93	65.6626	3,481.93	64.6685	3,481.93	67.1607	3,481.93	69.6097	3,481.93	62.6749	3,481.93	69.869	3,481.93	53.2892	3,481.93	66.9352	3,481.93	68.0654	3,481.93	60.43	3,481.93	67.8163	3,481.93	65.4048
3,604.98	85.2942	3,604.98	82.9156	3,604.98	84.5128	3,604.98	81.2031	3,604.98	79.7329	3,604.98	83.0588	3,604.98	80.8222	3,604.98	82.8454	3,604.98	81.8654	3,604.98	80.074	3,604.98	79.943	3,604.98	79.0394	3,604.98	82.2648	3,604.98	76.719	3,604.98	80.5493	3,604.98	74.7553	3,604.98	75.0659	3,604.98	74.5632	3,604.98	77.5001	3,604.98	72.0533	3,604.98	73.4202	3,604.98	68.4957	3,604.98	61.1044	3,604.98	67.9442	3,604.98	66.9752	3,604.98	64.803	3,604.98	64.4324	3,604.98	68.842	3,604.98	63.7338	3,604.98	69.2158	3,604.98	57.8708	3,604.98	66.4675	3,604.98	67.2595	3,604.98	61.9924	3,604.98	67.405	3,604.98	64.0224
3,732.42	85.471	3,732.42	83.3136	3,732.42	85.3242	3,732.42	81.7049	3,732.42	80.7141	3,732.42	84.2638	3,732.42	81.0046	3,732.42	82.7922	3,732.42	81.9213	3,732.42	80.6873	3,732.42	79.6311	3,732.42	78.866	3,732.42	83.0317	3,732.42	75.4032	3,732.42	81.1909	3,732.42	75.9308	3,732.42	76.5185	3,732.42	73.0374	3,732.42	77.0137	3,732.42	70.9106	3,732.42	74.0372	3,732.42	69.1464	3,732.42	64.8992	3,732.42	68.1259	3,732.42	71.5364	3,732.42	61.1427	3,732.42	60.7692	3,732.42	66.7954	3,732.42	61.7212	3,732.42	67.3682	3,732.42	57.2538	3,732.42	65.0684	3,732.42	67.2306	3,732.42	60.9512	3,732.42	67.384	3,732.42	62.29
3,864.26	84.7352	3,864.26	82.8791	3,864.26	84.7167	3,864.26	82.5363	3,864.26	82.6894	3,864.26	84.7158	3,864.26	82.6041	3,864.26	82.3541	3,864.26	82.7957	3,864.26	81.6062	3,864.26	79.9775	3,864.26	78.7556	3,864.26	83.168	3,864.26	76.8873	3,864.26	80.6084	3,864.26	73.5128	3,864.26	76.0973	3,864.26	69.4347	3,864.26	74.75	3,864.26	70.4032	3,864.26	70.2332	3,864.26	68.5086	3,864.26	67.241	3,864.26	68.3947	3,864.26	70.3901	3,864.26	64.5773	3,864.26	64.1859	3,864.26	65.4461	3,864.26	62.5475	3,864.26	68.7801	3,864.26	60.4398	3,864.26	62.5999	3,864.26	66.9386	3,864.26	62.06	3,864.26	66.0585	3,864.26	59.5147
4,000.49	85.426	4,000.49	82.2373	4,000.49	83.6672	4,000.49	82.9785	4,000.49	81.7289	4,000.49	84.0034	4,000.49	83.7302	4,000.49	82.4935	4,000.49	82.5368	4,000.49	80.7827	4,000.49	79.3176	4,000.49	78.19	4,000.49	82.1203	4,000.49	75.2394	4,000.49	78.9495	4,000.49	75.2427	4,000.49	77.2672	4,000.49	74.4775	4,000.49	75.2234	4,000.49	70.5091	4,000.49	62.3316	4,000.49	68.9284	4,000.49	66.0299	4,000.49	67.4246	4,000.49	70.0456	4,000.49	64.9435	4,000.49	60.217	4,000.49	65.1126	4,000.49	63.2944	4,000.49	68.1986	4,000.49	64.827	4,000.49	62.3156	4,000.49	64.894	4,000.49	60.0114	4,000.49	61.3272	4,000.49	59.6424
4,141.11	85.9849	4,141.11	83.4081	4,141.11	85.0446	4,141.11	84.4001	4,141.11	80.7195	4,141.11	83.7928	4,141.11	84.6412	4,141.11	82.342	4,141.11	83.2	4,141.11	80.7251	4,141.11	79.5664	4,141.11	78.0294	4,141.11	81.568	4,141.11	77.0655	4,141.11	78.0697	4,141.11	75.5853	4,141.11	79.231	4,141.11	68.8784	4,141.11	73.0713	4,141.11	69.4188	4,141.11	60.3821	4,141.11	67.6877	4,141.11	57.7348	4,141.11	67.2232	4,141.11	69.0011	4,141.11	66.2916	4,141.11	65.4541	4,141.11	64.9984	4,141.11	61.6125	4,141.11	69.9953	4,141.11	64.6562	4,141.11	61.6246	4,141.11	64.6548	4,141.11	62.0675	4,141.11	60.8998	4,141.11	59.9555
4,287.6	85.6825	4,287.6	83.9212	4,287.6	85.5089	4,287.6	83.5976	4,287.6	80.5153	4,287.6	83.2945	4,287.6	84.6232	4,287.6	82.3214	4,287.6	84.5122	4,287.6	79.9269	4,287.6	80.6242	4,287.6	79.5214	4,287.6	82.1994	4,287.6	75.875	4,287.6	80.1294	4,287.6	74.0365	4,287.6	79.6558	4,287.6	73.7081	4,287.6	69.9232	4,287.6	69.7321	4,287.6	59.2144	4,287.6	66.7855	4,287.6	62.9599	4,287.6	63.9016	4,287.6	68.5089	4,287.6	65.0471	4,287.6	64.9884	4,287.6	59.6149	4,287.6	63.2732	4,287.6	67.8649	4,287.6	55.2771	4,287.6	64.7128	4,287.6	67.744	4,287.6	55.6891	4,287.6	66.7454	4,287.6	63.3214
4,438.48	85.7539	4,438.48	83.1084	4,438.48	86.1638	4,438.48	83.2113	4,438.48	81.5499	4,438.48	83.9915	4,438.48	83.3406	4,438.48	81.7743	4,438.48	84.2441	4,438.48	80.9279	4,438.48	81.3124	4,438.48	77.4803	4,438.48	82.3371	4,438.48	75.3784	4,438.48	82.3366	4,438.48	73.8261	4,438.48	78.264	4,438.48	68.7002	4,438.48	69.011	4,438.48	70.4195	4,438.48	64.7881	4,438.48	66.6593	4,438.48	67.0842	4,438.48	66.4713	4,438.48	69.2203	4,438.48	64.9282	4,438.48	63.3586	4,438.48	61.7048	4,438.48	66.4093	4,438.48	66.0808	4,438.48	59.0493	4,438.48	63.8395	4,438.48	67.6676	4,438.48	54.8011	4,438.48	65.3195	4,438.48	60.8606
4,595.21	85.4939	4,595.21	83.7508	4,595.21	85.4169	4,595.21	84.2349	4,595.21	82.2721	4,595.21	82.8171	4,595.21	84.2182	4,595.21	80.9491	4,595.21	83.3392	4,595.21	79.5022	4,595.21	80.5374	4,595.21	77.4944	4,595.21	82.5389	4,595.21	73.3537	4,595.21	82.1212	4,595.21	72.4352	4,595.21	76.5659	4,595.21	71.9598	4,595.21	69.7899	4,595.21	68.7923	4,595.21	63.0853	4,595.21	65.4777	4,595.21	69.2577	4,595.21	65.3596	4,595.21	70.7019	4,595.21	63.9148	4,595.21	66.5522	4,595.21	63.8382	4,595.21	63.8767	4,595.21	67.6418	4,595.21	58.3558	4,595.21	64.8963	4,595.21	66.9142	4,595.21	58.8144	4,595.21	62.4152	4,595.21	56.344
4,756.35	85.4929	4,756.35	83.697	4,756.35	85.6898	4,756.35	83.2563	4,756.35	81.1306	4,756.35	83.8922	4,756.35	83.6305	4,756.35	81.2947	4,756.35	82.411	4,756.35	79.1616	4,756.35	79.0467	4,756.35	74.686	4,756.35	81.3422	4,756.35	76.0817	4,756.35	80.9639	4,756.35	73.0272	4,756.35	74.3748	4,756.35	70.3494	4,756.35	69.633	4,756.35	70.7502	4,756.35	54.4147	4,756.35	66.2474	4,756.35	65.9077	4,756.35	65.6611	4,756.35	69.9301	4,756.35	64.1332	4,756.35	64.4086	4,756.35	61.3556	4,756.35	63.5649	4,756.35	67.7686	4,756.35	61.984	4,756.35	65.691	4,756.35	67.7431	4,756.35	59.4199	4,756.35	56.1715	4,756.35	52.7442
4,924.8	85.6009	4,924.8	83.697	4,924.8	86.7963	4,924.8	84.1284	4,924.8	82.3861	4,924.8	83.6666	4,924.8	82.6132	4,924.8	80.5406	4,924.8	82.7699	4,924.8	78.3387	4,924.8	77.0844	4,924.8	75.4328	4,924.8	80.154	4,924.8	73.8825	4,924.8	77.4025	4,924.8	72.0992	4,924.8	67.9091	4,924.8	71.4211	4,924.8	70.5723	4,924.8	66.796	4,924.8	54.8291	4,924.8	66.7865	4,924.8	52.6602	4,924.8	66.9498	4,924.8	68.7203	4,924.8	63.5185	4,924.8	65.6117	4,924.8	62.4338	4,924.8	63.4004	4,924.8	66.3982	4,924.8	58.8889	4,924.8	66.5048	4,924.8	67.1878	4,924.8	56.7676	4,924.8	54.9175	4,924.8	54.8143
5,097.66	85.1742	5,097.66	84.1303	5,097.66	86.5363	5,097.66	84.2203	5,097.66	83.9989	5,097.66	83.7081	5,097.66	82.2611	5,097.66	80.8349	5,097.66	83.0752	5,097.66	78.7322	5,097.66	77.6558	5,097.66	76.6734	5,097.66	77.0837	5,097.66	76.0244	5,097.66	75.3626	5,097.66	72.4893	5,097.66	72.2268	5,097.66	69.5496	5,097.66	70.7502	5,097.66	68.9505	5,097.66	59.2985	5,097.66	66.3877	5,097.66	61.4655	5,097.66	66.8688	5,097.66	69.7239	5,097.66	62.6581	5,097.66	63.7124	5,097.66	64.4818	5,097.66	59.7386	5,097.66	64.7391	5,097.66	58.1239	5,097.66	68.7505	5,097.66	67.6227	5,097.66	56.2614	5,097.66	59.1602	5,097.66	51.3818
5,277.83	84.9436	5,277.83	84.3381	5,277.83	85.8052	5,277.83	84.7417	5,277.83	84.8285	5,277.83	83.9199	5,277.83	83.9656	5,277.83	80.6557	5,277.83	83.2394	5,277.83	79.7284	5,277.83	78.1303	5,277.83	77.4935	5,277.83	73.5341	5,277.83	75.474	5,277.83	75.9477	5,277.83	73.3907	5,277.83	75.6873	5,277.83	71.8148	5,277.83	69.7664	5,277.83	68.5483	5,277.83	54.8321	5,277.83	67.2842	5,277.83	64.0659	5,277.83	65.742	5,277.83	67.7101	5,277.83	65.7649	5,277.83	62.5277	5,277.83	63.679	5,277.83	59.3481	5,277.83	66.5551	5,277.83	59.5968	5,277.83	67.3503	5,277.83	66.1284	5,277.83	63.638	5,277.83	53.5963	5,277.83	53.4055
5,463.87	84.618	5,463.87	84.2086	5,463.87	85.2799	5,463.87	85.1039	5,463.87	84.4482	5,463.87	83.4819	5,463.87	84.797	5,463.87	81.4165	5,463.87	84.2422	5,463.87	80.0841	5,463.87	78.4195	5,463.87	77.3949	5,463.87	72.2122	5,463.87	76.7719	5,463.87	76.8078	5,463.87	72.3378	5,463.87	75.2939	5,463.87	70.6043	5,463.87	69.0437	5,463.87	68.4855	5,463.87	56.1774	5,463.87	66.7371	5,463.87	62.5517	5,463.87	64.3196	5,463.87	65.7476	5,463.87	63.1842	5,463.87	65.1051	5,463.87	62.6302	5,463.87	60.8371	5,463.87	67.4083	5,463.87	57.9754	5,463.87	67.3395	5,463.87	65.8031	5,463.87	63.0892	5,463.87	55.2841	5,463.87	60.3266
5,657.23	84.0277	5,657.23	84.6076	5,657.23	85.3806	5,657.23	84.7824	5,657.23	83.6295	5,657.23	83.6679	5,657.23	83.496	5,657.23	82.1358	5,657.23	84.8498	5,657.23	80.4744	5,657.23	78.8573	5,657.23	78.1867	5,657.23	74.6986	5,657.23	76.5163	5,657.23	79.8816	5,657.23	73.7339	5,657.23	76.7398	5,657.23	71.2458	5,657.23	69.7732	5,657.23	67.8555	5,657.23	60.2606	5,657.23	66.452	5,657.23	60.6203	5,657.23	64.2391	5,657.23	63.5687	5,657.23	64.2645	5,657.23	62.5471	5,657.23	62.4813	5,657.23	63.3633	5,657.23	67.9192	5,657.23	62.3818	5,657.23	68.3878	5,657.23	62.7898	5,657.23	59.7711	5,657.23	53.9464	5,657.23	61.9323
5,856.45	84.0333	5,856.45	84.7111	5,856.45	84.4631	5,856.45	84.3766	5,856.45	83.6515	5,856.45	82.9434	5,856.45	82.8215	5,856.45	81.3983	5,856.45	83.8748	5,856.45	80.1608	5,856.45	78.2687	5,856.45	77.7507	5,856.45	76.2408	5,856.45	75.8929	5,856.45	80.1515	5,856.45	71.1257	5,856.45	76.4822	5,856.45	71.6643	5,856.45	68.6859	5,856.45	68.1414	5,856.45	58.5523	5,856.45	65.9053	5,856.45	62.0944	5,856.45	63.7097	5,856.45	60.4017	5,856.45	64.2647	5,856.45	58.8039	5,856.45	62.6487	5,856.45	64.1	5,856.45	66.2229	5,856.45	61.3157	5,856.45	68.447	5,856.45	59.0504	5,856.45	57.7333	5,856.45	45.6311	5,856.45	59.812
6,062.99	85.041	6,062.99	85.1275	6,062.99	85.8881	6,062.99	84.2795	6,062.99	84.4685	6,062.99	82.8802	6,062.99	82.6675	6,062.99	80.7336	6,062.99	83.159	6,062.99	80.0515	6,062.99	76.8021	6,062.99	76.9682	6,062.99	76.7011	6,062.99	76.0449	6,062.99	79.2112	6,062.99	71.8584	6,062.99	76.3345	6,062.99	69.6645	6,062.99	67.5021	6,062.99	68.3322	6,062.99	65.1863	6,062.99	66.341	6,062.99	57.3009	6,062.99	64.0471	6,062.99	63.0269	6,062.99	60.6422	6,062.99	55.0027	6,062.99	62.5524	6,062.99	60.3434	6,062.99	63.7824	6,062.99	60.0733	6,062.99	68.5822	6,062.99	56.3359	6,062.99	58.942	6,062.99	38.502	6,062.99	57.3497
6,276.86	84.9313	6,276.86	84.9807	6,276.86	85.7864	6,276.86	83.8721	6,276.86	85.5031	6,276.86	82.5371	6,276.86	82.7677	6,276.86	81.7601	6,276.86	82.3115	6,276.86	80.0503	6,276.86	74.7887	6,276.86	77.1469	6,276.86	76.6796	6,276.86	75.4869	6,276.86	78.0164	6,276.86	72.0223	6,276.86	73.6807	6,276.86	70.255	6,276.86	64.4387	6,276.86	67.5901	6,276.86	62.7417	6,276.86	65.5292	6,276.86	55.2384	6,276.86	62.8821	6,276.86	56.1897	6,276.86	62.3365	6,276.86	59.7384	6,276.86	61.8364	6,276.86	58.6899	6,276.86	62.7816	6,276.86	57.9013	6,276.86	68.2143	6,276.86	59.5118	6,276.86	62.0113	6,276.86	52.0992	6,276.86	55.5165
6,498.05	85.2208	6,498.05	85.5434	6,498.05	84.3348	6,498.05	83.9428	6,498.05	84.4836	6,498.05	82.6178	6,498.05	82.9042	6,498.05	82.1731	6,498.05	79.7362	6,498.05	80.1023	6,498.05	76.23	6,498.05	77.0728	6,498.05	75.0069	6,498.05	74.9786	6,498.05	76.4192	6,498.05	69.7735	6,498.05	75.1106	6,498.05	69.8433	6,498.05	68.1659	6,498.05	67.5814	6,498.05	59.5949	6,498.05	65.6265	6,498.05	59.5749	6,498.05	62.8804	6,498.05	43.6779	6,498.05	64.4912	6,498.05	51.9961	6,498.05	57.542	6,498.05	40.305	6,498.05	62.9055	6,498.05	53.634	6,498.05	67.1769	6,498.05	59.4782	6,498.05	62.3036	6,498.05	50.5137	6,498.05	60.4338
6,726.56	85.5923	6,726.56	84.721	6,726.56	84.3545	6,726.56	83.4097	6,726.56	83.6426	6,726.56	83.1699	6,726.56	82.803	6,726.56	81.8801	6,726.56	76.637	6,726.56	79.9148	6,726.56	77.7792	6,726.56	76.8419	6,726.56	74.9838	6,726.56	74.5123	6,726.56	74.5154	6,726.56	71.882	6,726.56	76.6498	6,726.56	69.584	6,726.56	69.6634	6,726.56	68.3739	6,726.56	64.2296	6,726.56	63.966	6,726.56	56.0459	6,726.56	61.8145	6,726.56	49.9253	6,726.56	63.8617	6,726.56	53.9374	6,726.56	57.1754	6,726.56	55.764	6,726.56	61.1013	6,726.56	60.4959	6,726.56	67.4726	6,726.56	59.2696	6,726.56	59.8397	6,726.56	52.0179	6,726.56	64.4686
6,963.87	84.9085	6,963.87	84.5579	6,963.87	85.2498	6,963.87	83.3956	6,963.87	85.2725	6,963.87	83.1857	6,963.87	81.6773	6,963.87	81.3593	6,963.87	78.8124	6,963.87	79.686	6,963.87	79.8902	6,963.87	76.6087	6,963.87	73.6844	6,963.87	74.8254	6,963.87	73.8328	6,963.87	71.7729	6,963.87	77.4226	6,963.87	68.375	6,963.87	72.1631	6,963.87	66.8917	6,963.87	64.4678	6,963.87	62.366	6,963.87	54.3374	6,963.87	61.1573	6,963.87	55.6704	6,963.87	62.4028	6,963.87	57.2278	6,963.87	57.7758	6,963.87	56.8794	6,963.87	60.0329	6,963.87	61.1368	6,963.87	66.7927	6,963.87	50.9585	6,963.87	61.4776	6,963.87	52.012	6,963.87	61.9365
7,209.96	85.3306	7,209.96	85.0764	7,209.96	84.5019	7,209.96	84.0414	7,209.96	84.0696	7,209.96	82.6935	7,209.96	82.6267	7,209.96	81.1147	7,209.96	82.3365	7,209.96	78.9207	7,209.96	80.3103	7,209.96	76.3308	7,209.96	73.2134	7,209.96	72.883	7,209.96	74.455	7,209.96	69.0683	7,209.96	76.2153	7,209.96	65.2358	7,209.96	66.7622	7,209.96	65.1232	7,209.96	62.0995	7,209.96	60.5055	7,209.96	56.9063	7,209.96	60.0741	7,209.96	56.9464	7,209.96	59.8313	7,209.96	57.7494	7,209.96	58.4986	7,209.96	54.475	7,209.96	55.4557	7,209.96	55.7795	7,209.96	65.7227	7,209.96	52.2409	7,209.96	60.4634	7,209.96	50.7593	7,209.96	60.6776
7,464.84	85.0478	7,464.84	84.792	7,464.84	84.8539	7,464.84	83.369	7,464.84	84.0544	7,464.84	82.6228	7,464.84	83.1185	7,464.84	81.7037	7,464.84	83.1619	7,464.84	77.9747	7,464.84	79.2793	7,464.84	75.9306	7,464.84	74.5291	7,464.84	71.5289	7,464.84	72.7233	7,464.84	68.5898	7,464.84	73.5214	7,464.84	65.5683	7,464.84	63.5864	7,464.84	64.8032	7,464.84	64.5573	7,464.84	62.6488	7,464.84	48.7206	7,464.84	60.0531	7,464.84	45.4174	7,464.84	58.4942	7,464.84	59.0377	7,464.84	55.0473	7,464.84	40.8409	7,464.84	53.1912	7,464.84	50.5857	7,464.84	62.9033	7,464.84	56.1907	7,464.84	62.7687	7,464.84	46.4623	7,464.84	61.6892
7,727.05	85.564	7,727.05	85.4387	7,727.05	85.1254	7,727.05	83.6947	7,727.05	84.1679	7,727.05	83.1816	7,727.05	83.3792	7,727.05	81.0892	7,727.05	83.0008	7,727.05	78.0474	7,727.05	79.028	7,727.05	75.2895	7,727.05	73.4221	7,727.05	71.2434	7,727.05	70.9495	7,727.05	69.4413	7,727.05	70.1655	7,727.05	65.0844	7,727.05	59.7443	7,727.05	64.7032	7,727.05	62.0798	7,727.05	62.1599	7,727.05	53.1687	7,727.05	61.6994	7,727.05	55.0798	7,727.05	60.2762	7,727.05	57.384	7,727.05	58.0919	7,727.05	46.585	7,727.05	57.3601	7,727.05	51.1835	7,727.05	63.5081	7,727.05	58.921	7,727.05	60.9282	7,727.05	44.9335	7,727.05	61.846
7,999.51	85.3789	7,999.51	84.7608	7,999.51	85.132	7,999.51	83.599	7,999.51	83.7693	7,999.51	82.7391	7,999.51	81.3563	7,999.51	80.8587	7,999.51	81.0248	7,999.51	77.4533	7,999.51	78.11	7,999.51	74.9783	7,999.51	74.2785	7,999.51	70.3572	7,999.51	67.5129	7,999.51	68.269	7,999.51	65.8699	7,999.51	63.6099	7,999.51	54.6856	7,999.51	62.7982	7,999.51	56.5321	7,999.51	59.2843	7,999.51	58.2853	7,999.51	59.4913	7,999.51	53.5496	7,999.51	55.4514	7,999.51	55.1254	7,999.51	57.0103	7,999.51	45.4334	7,999.51	51.6036	7,999.51	53.6772	7,999.51	59.483	7,999.51	55.9161	7,999.51	62.4242	7,999.51	45.7899	7,999.51	61.3927
8,282.23	85.7612	8,282.23	85.5266	8,282.23	85.2829	8,282.23	83.8488	8,282.23	83.8708	8,282.23	82.6764	8,282.23	79.6925	8,282.23	80.6667	8,282.23	78.6561	8,282.23	76.4194	8,282.23	77.0403	8,282.23	74.1186	8,282.23	73.3805	8,282.23	68.7565	8,282.23	56.0416	8,282.23	65.9736	8,282.23	65.3956	8,282.23	63.2421	8,282.23	62.3851	8,282.23	62.5969	8,282.23	61.0919	8,282.23	60.0467	8,282.23	57.3542	8,282.23	57.781	8,282.23	56.5758	8,282.23	56.7792	8,282.23	55.8542	8,282.23	54.41	8,282.23	46.5004	8,282.23	49.5191	8,282.23	52.138	8,282.23	59.1599	8,282.23	52.3741	8,282.23	61.1474	8,282.23	52.9578	8,282.23	60.8452
8,573.73	85.9066	8,573.73	85.4875	8,573.73	85.417	8,573.73	83.397	8,573.73	83.987	8,573.73	82.5575	8,573.73	81.3413	8,573.73	80.4025	8,573.73	78.5218	8,573.73	75.2887	8,573.73	77.004	8,573.73	73.2348	8,573.73	66.4299	8,573.73	66.9512	8,573.73	58.8805	8,573.73	66.1949	8,573.73	65.9556	8,573.73	62.7636	8,573.73	62.8398	8,573.73	60.0551	8,573.73	49.2042	8,573.73	58.4527	8,573.73	48.9531	8,573.73	56.2347	8,573.73	55.9262	8,573.73	54.913	8,573.73	55.3666	8,573.73	56.7375	8,573.73	52.3539	8,573.73	46.8677	8,573.73	47.7872	8,573.73	58.8005	8,573.73	57.2842	8,573.73	59.3161	8,573.73	34.6779	8,573.73	58.4842
8,876.95	86.6399	8,876.95	85.6202	8,876.95	85.4168	8,876.95	83.7315	8,876.95	84.1607	8,876.95	82.4712	8,876.95	82.5561	8,876.95	79.4627	8,876.95	77.4157	8,876.95	74.3278	8,876.95	75.6788	8,876.95	71.6578	8,876.95	66.315	8,876.95	65.7904	8,876.95	56.0269	8,876.95	63.3278	8,876.95	67.7878	8,876.95	60.5189	8,876.95	58.4657	8,876.95	55.4067	8,876.95	58.9131	8,876.95	57.5281	8,876.95	55.6894	8,876.95	54.0581	8,876.95	57.2797	8,876.95	51.6893	8,876.95	43.4043	8,876.95	53.4364	8,876.95	52.4413	8,876.95	42.3747	8,876.95	51.577	8,876.95	53.9389	8,876.95	58.0418	8,876.95	60.072	8,876.95	42.1218	8,876.95	58.7641
9,188.96	86.8336	9,188.96	85.6815	9,188.96	85.7365	9,188.96	83.8894	9,188.96	83.6604	9,188.96	82.0296	9,188.96	81.6886	9,188.96	78.7479	9,188.96	76.8351	9,188.96	72.9836	9,188.96	73.958	9,188.96	70.1417	9,188.96	60.0863	9,188.96	62.0057	9,188.96	66.8737	9,188.96	60.213	9,188.96	69.3852	9,188.96	60.4115	9,188.96	66.163	9,188.96	50.7785	9,188.96	61.1881	9,188.96	57.035	9,188.96	55.9868	9,188.96	47.072	9,188.96	56.6315	9,188.96	53.1593	9,188.96	43.0486	9,188.96	52.3878	9,188.96	50.5954	9,188.96	46.5259	9,188.96	49.2592	9,188.96	50.2752	9,188.96	58.0593	9,188.96	50.0466	9,188.96	41.9081	9,188.96	60.346
9,514.16	87.2774	9,514.16	85.8266	9,514.16	86.0646	9,514.16	83.9583	9,514.16	83.9685	9,514.16	81.2982	9,514.16	81.2339	9,514.16	78.3441	9,514.16	77.6705	9,514.16	70.3956	9,514.16	70.447	9,514.16	68.5705	9,514.16	69.4277	9,514.16	62.2885	9,514.16	67.2428	9,514.16	59.8168	9,514.16	68.7697	9,514.16	59.7441	9,514.16	62.8348	9,514.16	52.0794	9,514.16	63.975	9,514.16	56.1565	9,514.16	55.1183	9,514.16	44.515	9,514.16	56.1292	9,514.16	50.8128	9,514.16	48.4312	9,514.16	52.6549	9,514.16	48.8792	9,514.16	40.9802	9,514.16	47.8956	9,514.16	48.6858	9,514.16	51.7793	9,514.16	49.0524	9,514.16	49.1728	9,514.16	57.974
9,849.61	87.0058	9,849.61	85.6594	9,849.61	86.0139	9,849.61	83.3817	9,849.61	83.9882	9,849.61	80.8895	9,849.61	81.5235	9,849.61	76.2006	9,849.61	78.4533	9,849.61	69.3313	9,849.61	71.7854	9,849.61	65.0176	9,849.61	74.2463	9,849.61	63.0003	9,849.61	68.9662	9,849.61	59.0514	9,849.61	69.3073	9,849.61	59.34	9,849.61	66.2163	9,849.61	54.5719	9,849.61	63.392	9,849.61	55.4798	9,849.61	51.0081	9,849.61	49.7245	9,849.61	50.8516	9,849.61	49.3171	9,849.61	41.3661	9,849.61	52.0134	9,849.61	42.4384	9,849.61	40.3124	9,849.61	54.3634	9,849.61	51.3896	9,849.61	51.8094	9,849.61	48.3303	9,849.61	50.142	9,849.61	55.9318
10,196.8	87.0224	10,196.8	85.0805	10,196.8	86.0278	10,196.8	83.0765	10,196.8	84.0639	10,196.8	79.9649	10,196.8	82.7187	10,196.8	75.1223	10,196.8	80.3205	10,196.8	69.2681	10,196.8	75.4323	10,196.8	68.4948	10,196.8	77.3626	10,196.8	65.8399	10,196.8	70.6233	10,196.8	62.9239	10,196.8	68.5805	10,196.8	61.3737	10,196.8	61.6267	10,196.8	58.287	10,196.8	61.8381	10,196.8	56.7752	10,196.8	42.6787	10,196.8	52.49	10,196.8	29.9136	10,196.8	52.6502	10,196.8	50.8933	10,196.8	50.9605	10,196.8	50.2034	10,196.8	47.7654	10,196.8	52.1053	10,196.8	54.4552	10,196.8	46.4635	10,196.8	55.3351	10,196.8	48.7032	10,196.8	54.9112
10,555.7	86.642	10,555.7	84.9051	10,555.7	86.0485	10,555.7	82.8456	10,555.7	84.0266	10,555.7	79.6508	10,555.7	82.3446	10,555.7	75.5343	10,555.7	80.5005	10,555.7	71.3686	10,555.7	77.1096	10,555.7	69.0637	10,555.7	75.4824	10,555.7	68.6745	10,555.7	71.2781	10,555.7	65.1869	10,555.7	66.0842	10,555.7	63.7901	10,555.7	66.4199	10,555.7	59.6231	10,555.7	59.6682	10,555.7	58.4419	10,555.7	52.3442	10,555.7	56.2212	10,555.7	53.8341	10,555.7	54.4399	10,555.7	53.022	10,555.7	50.6213	10,555.7	50.3106	10,555.7	48.1956	10,555.7	54.7279	10,555.7	56.1693	10,555.7	46.7765	10,555.7	54.8269	10,555.7	46.6444	10,555.7	56.6941
10,927.7	86.9091	10,927.7	85.406	10,927.7	86.6152	10,927.7	82.8649	10,927.7	84.5104	10,927.7	80.0229	10,927.7	81.6846	10,927.7	75.709	10,927.7	79.3264	10,927.7	71.9671	10,927.7	77.6911	10,927.7	70.7395	10,927.7	69.3332	10,927.7	69.5063	10,927.7	71.1923	10,927.7	65.7281	10,927.7	62.98	10,927.7	63.1389	10,927.7	62.6341	10,927.7	58.7582	10,927.7	55.1026	10,927.7	57.0361	10,927.7	53.3838	10,927.7	55.9826	10,927.7	49.8341	10,927.7	54.5695	10,927.7	51.4544	10,927.7	54.7805	10,927.7	54.1031	10,927.7	50.4049	10,927.7	52.5635	10,927.7	55.309	10,927.7	42.3004	10,927.7	52.9659	10,927.7	49.2805	10,927.7	56.2119
11,313	87.3607	11,313	85.9472	11,313	86.6973	11,313	83.3239	11,313	84.8297	11,313	79.8157	11,313	81.7744	11,313	76.062	11,313	76.7069	11,313	72.8535	11,313	76.4113	11,313	71.8546	11,313	67.1111	11,313	70.0536	11,313	70.2067	11,313	67.076	11,313	60.2438	11,313	63.948	11,313	59.0919	11,313	58.9401	11,313	58.8034	11,313	57.812	11,313	56.9955	11,313	55.9608	11,313	52.3008	11,313	53.3896	11,313	48.1479	11,313	56.5341	11,313	55.3885	11,313	48.4801	11,313	53.0873	11,313	56.4347	11,313	48.7071	11,313	53.6109	11,313	53.4425	11,313	58.4951
11,712.9	87.4239	11,712.9	86.1153	11,712.9	86.6423	11,712.9	83.2014	11,712.9	84.6909	11,712.9	79.7057	11,712.9	82.054	11,712.9	75.6662	11,712.9	72.6362	11,712.9	75.2092	11,712.9	75.1409	11,712.9	72.9468	11,712.9	72.5301	11,712.9	71.5618	11,712.9	67.654	11,712.9	67.3857	11,712.9	59.7627	11,712.9	63.7196	11,712.9	61.1311	11,712.9	59.0954	11,712.9	59.9168	11,712.9	57.5784	11,712.9	57.787	11,712.9	55.9009	11,712.9	43.8548	11,712.9	52.6245	11,712.9	46.1506	11,712.9	57.2668	11,712.9	52.378	11,712.9	48.9505	11,712.9	47.4324	11,712.9	57.4561	11,712.9	52.0814	11,712.9	54.8985	11,712.9	55.3814	11,712.9	60.0789
12,126	87.1355	12,126	86.0305	12,126	86.2879	12,126	82.8937	12,126	83.9531	12,126	79.6241	12,126	79.9098	12,126	76.5653	12,126	77.4238	12,126	76.3957	12,126	75.3511	12,126	74.6361	12,126	73.4853	12,126	72.0562	12,126	71.7298	12,126	68.6852	12,126	66.715	12,126	64.8822	12,126	64.3315	12,126	60.2511	12,126	59.6667	12,126	57.0813	12,126	48.0278	12,126	56.6246	12,126	49.6785	12,126	51.3078	12,126	44.8416	12,126	57.3204	12,126	52.7151	12,126	51.5779	12,126	50.2483	12,126	59.0641	12,126	43.8502	12,126	57.4488	12,126	53.9809	12,126	60.5779
12,553.7	86.4814	12,553.7	85.6478	12,553.7	86.0284	12,553.7	82.7464	12,553.7	84.2995	12,553.7	79.0802	12,553.7	80.9063	12,553.7	78.0787	12,553.7	80.2347	12,553.7	78.0747	12,553.7	76.0612	12,553.7	75.6314	12,553.7	74.333	12,553.7	73.5254	12,553.7	75.8109	12,553.7	69.0641	12,553.7	69.7475	12,553.7	65.3948	12,553.7	65.2544	12,553.7	61.6343	12,553.7	57.849	12,553.7	56.409	12,553.7	57.1783	12,553.7	57.3606	12,553.7	56.244	12,553.7	50.3514	12,553.7	47.0772	12,553.7	57.8179	12,553.7	48.5234	12,553.7	54.4664	12,553.7	52.5152	12,553.7	59.4247	12,553.7	52.7681	12,553.7	58.0816	12,553.7	56.1419	12,553.7	59.1355
12,996.1	85.7559	12,996.1	85.3481	12,996.1	85.5164	12,996.1	83.2339	12,996.1	84.5613	12,996.1	79.5116	12,996.1	80.8377	12,996.1	79.7271	12,996.1	79.935	12,996.1	79.0887	12,996.1	78.8357	12,996.1	76.737	12,996.1	78.225	12,996.1	74.1298	12,996.1	75.4462	12,996.1	70.4646	12,996.1	66.5606	12,996.1	66.0063	12,996.1	62.224	12,996.1	62.0354	12,996.1	61.8376	12,996.1	57.9677	12,996.1	56.7224	12,996.1	58.4912	12,996.1	56.9934	12,996.1	52.1785	12,996.1	54.3439	12,996.1	57.8318	12,996.1	54.3285	12,996.1	56.731	12,996.1	55.8725	12,996.1	60.1114	12,996.1	52.2311	12,996.1	58.63	12,996.1	55.3747	12,996.1	59.3373
13,454.6	85.4413	13,454.6	85.688	13,454.6	85.298	13,454.6	84.0815	13,454.6	84.1167	13,454.6	81.212	13,454.6	79.0284	13,454.6	80.7436	13,454.6	79.1742	13,454.6	80.7295	13,454.6	81.0644	13,454.6	77.8399	13,454.6	80.6153	13,454.6	74.7981	13,454.6	74.9828	13,454.6	70.2604	13,454.6	66.8794	13,454.6	65.8505	13,454.6	63.8108	13,454.6	62.8851	13,454.6	61.9456	13,454.6	58.0103	13,454.6	60.8681	13,454.6	58.9274	13,454.6	59.5786	13,454.6	50.8962	13,454.6	55.8625	13,454.6	57.0286	13,454.6	56.9827	13,454.6	58.1039	13,454.6	52.8459	13,454.6	59.5102	13,454.6	52.604	13,454.6	59.6906	13,454.6	56.0259	13,454.6	59.0803
13,929.2	86.2819	13,929.2	86.928	13,929.2	86.5514	13,929.2	85.5377	13,929.2	86.0403	13,929.2	83.6402	13,929.2	84.4704	13,929.2	82.7324	13,929.2	82.6963	13,929.2	82.4214	13,929.2	82.7529	13,929.2	79.4544	13,929.2	82.2338	13,929.2	75.3191	13,929.2	76.1306	13,929.2	71.4461	13,929.2	73.8529	13,929.2	66.927	13,929.2	58.8737	13,929.2	64.273	13,929.2	68.0331	13,929.2	57.8489	13,929.2	67.7941	13,929.2	60.6256	13,929.2	61.2938	13,929.2	47.8131	13,929.2	51.5535	13,929.2	56.366	13,929.2	55.1012	13,929.2	58.2881	13,929.2	50.0644	13,929.2	57.951	13,929.2	54.3065	13,929.2	60.3355	13,929.2	58.3907	13,929.2	59.7927
14,419.9	87.9531	14,419.9	88.7789	14,419.9	88.8364	14,419.9	87.5204	14,419.9	88.0161	14,419.9	86.3956	14,419.9	86.8422	14,419.9	84.7895	14,419.9	84.5507	14,419.9	84.4275	14,419.9	84.2238	14,419.9	80.6695	14,419.9	84.5686	14,419.9	76.2527	14,419.9	72.045	14,419.9	72.5417	14,419.9	75.0079	14,419.9	68.7905	14,419.9	53.7971	14,419.9	65.2008	14,419.9	71.6852	14,419.9	61.4442	14,419.9	68.6805	14,419.9	62.1492	14,419.9	62.9686	14,419.9	47.5318	14,419.9	59.2022	14,419.9	56.6145	14,419.9	51.1852	14,419.9	58.35	14,419.9	48.0101	14,419.9	54.3307	14,419.9	54.6359	14,419.9	61.8472	14,419.9	60.3506	14,419.9	61.4813
14,928.2	90.4148	14,928.2	90.2761	14,928.2	90.2551	14,928.2	89.7672	14,928.2	88.8785	14,928.2	88.0252	14,928.2	89.197	14,928.2	86.5667	14,928.2	85.8311	14,928.2	85.1926	14,928.2	85.4376	14,928.2	81.026	14,928.2	83.7991	14,928.2	77.3495	14,928.2	74.2363	14,928.2	73.2709	14,928.2	73.0177	14,928.2	69.1459	14,928.2	62.2145	14,928.2	65.6971	14,928.2	69.6852	14,928.2	60.6834	14,928.2	64.8081	14,928.2	63.5468	14,928.2	62.2991	14,928.2	46.6635	14,928.2	59.7818	14,928.2	56.1852	14,928.2	53.2073	14,928.2	57.9453	14,928.2	55.6993	14,928.2	46.1368	14,928.2	50.3666	14,928.2	62.171	14,928.2	59.6219	14,928.2	62.7176
15,455.6	90.6818	15,455.6	89.8175	15,455.6	89.7138	15,455.6	89.9629	15,455.6	89.2603	15,455.6	87.5473	15,455.6	87.9943	15,455.6	85.5416	15,455.6	86.5643	15,455.6	83.4277	15,455.6	83.4754	15,455.6	79.4106	15,455.6	79.2344	15,455.6	75.7411	15,455.6	74.8472	15,455.6	70.8551	15,455.6	68.1551	15,455.6	65.9239	15,455.6	61.8494	15,455.6	62.0445	15,455.6	65.3537	15,455.6	56.6069	15,455.6	67.5231	15,455.6	61.2276	15,455.6	59.5032	15,455.6	43.173	15,455.6	54.4732	15,455.6	53.5882	15,455.6	49.4376	15,455.6	55.7358	15,455.6	55.3295	15,455.6	51.3041	15,455.6	50.4669	15,455.6	57.6418	15,455.6	54.4065	15,455.6	59.9895
16,000.5	88.7476	16,000.5	87.9543	16,000.5	87.8339	16,000.5	87.7192	16,000.5	87.4424	16,000.5	85.2132	16,000.5	85.5013	16,000.5	82.236	16,000.5	83.0203	16,000.5	79.9261	16,000.5	80.3088	16,000.5	75.7662	16,000.5	76.9707	16,000.5	70.9533	16,000.5	66.4991	16,000.5	66.3257	16,000.5	68.7706	16,000.5	60.5378	16,000.5	56.8924	16,000.5	57.7517	16,000.5	66.6411	16,000.5	52.646	16,000.5	66.243	16,000.5	56.6521	16,000.5	54.6057	16,000.5	40.52	16,000.5	51.9607	16,000.5	49.3055	16,000.5	46.4687	16,000.5	50.0397	16,000.5	52.0582	16,000.5	51.8456	16,000.5	50.0556	16,000.5	50.6565	16,000.5	47.8524	16,000.5	54.7878
16,564.5	86.712	16,564.5	85.8729	16,564.5	85.7141	16,564.5	85.2166	16,564.5	84.5321	16,564.5	82.3704	16,564.5	82.8087	16,564.5	78.4244	16,564.5	79.0135	16,564.5	76.3065	16,564.5	76.1906	16,564.5	71.8456	16,564.5	72.3684	16,564.5	66.9722	16,564.5	67.4869	16,564.5	62.279	16,564.5	65.0835	16,564.5	56.5491	16,564.5	55.213	16,564.5	53.7181	16,564.5	61.6993	16,564.5	44.0417	16,564.5	61.7486	16,564.5	51.9743	16,564.5	47.4703	16,564.5	34.8885	16,564.5	45.0902	16,564.5	42.8488	16,564.5	46.8526	16,564.5	42.5039	16,564.5	44.4538	16,564.5	48.5103	16,564.5	41.168	16,564.5	49.0152	16,564.5	52.1974	16,564.5	41.2084
17,148.9	85.4863	17,148.9	84.3989	17,148.9	84.3339	17,148.9	83.2941	17,148.9	82.8904	17,148.9	80.2257	17,148.9	80.9401	17,148.9	75.5378	17,148.9	77.4952	17,148.9	73.2214	17,148.9	72.7223	17,148.9	68.2973	17,148.9	66.4889	17,148.9	62.9231	17,148.9	61.1641	17,148.9	57.8575	17,148.9	59.1813	17,148.9	50.6486	17,148.9	56.7148	17,148.9	50.1472	17,148.9	59.033	17,148.9	41.6964	17,148.9	58.4663	17,148.9	46.2635	17,148.9	39.2314	17,148.9	36.6114	17,148.9	42.5742	17,148.9	37.2096	17,148.9	47.2065	17,148.9	43.5082	17,148.9	43.8348	17,148.9	46.4341	17,148.9	43.8044	17,148.9	46.0239	17,148.9	36.0312	17,148.9	37.3256
17,752.4	83.9423	17,752.4	82.8049	17,752.4	83.0048	17,752.4	81.3524	17,752.4	81.3286	17,752.4	77.6484	17,752.4	78.854	17,752.4	72.5161	17,752.4	74.9266	17,752.4	69.7838	17,752.4	70.5217	17,752.4	64.0931	17,752.4	64.4565	17,752.4	59.8246	17,752.4	57.7171	17,752.4	55.9927	17,752.4	56.8256	17,752.4	49.027	17,752.4	56.1828	17,752.4	49.3129	17,752.4	55.8859	17,752.4	41.715	17,752.4	55.3267	17,752.4	37.5094	17,752.4	39.6277	17,752.4	36.6858	17,752.4	43.0683	17,752.4	29.5148	17,752.4	45.6522	17,752.4	44.1313	17,752.4	43.2877	17,752.4	43.7034	17,752.4	44.6939	17,752.4	47.3423	17,752.4	44.5264	17,752.4	28.3378
18,379.4	82.8943	18,379.4	81.3675	18,379.4	81.8309	18,379.4	79.3983	18,379.4	79.5884	18,379.4	75.1504	18,379.4	76.6029	18,379.4	69.5019	18,379.4	70.8151	18,379.4	67.0385	18,379.4	68.2022	18,379.4	62.6093	18,379.4	61.176	18,379.4	59.4715	18,379.4	61.0238	18,379.4	55.5361	18,379.4	51.4589	18,379.4	48.2469	18,379.4	52.8572	18,379.4	47.3498	18,379.4	55.9047	18,379.4	42.3711	18,379.4	53.8332	18,379.4	35.8957	18,379.4	32.7079	18,379.4	36.9919	18,379.4	39.5993	18,379.4	26.9046	18,379.4	39.9394	18,379.4	41.6263	18,379.4	35.6466	18,379.4	39.6762	18,379.4	44.2633	18,379.4	48.1995	18,379.4	41.9857	18,379.4	37.0989
19,026.9	82.0586	19,026.9	80.1704	19,026.9	81.0244	19,026.9	77.5295	19,026.9	77.7653	19,026.9	72.2251	19,026.9	74.2716	19,026.9	66.6784	19,026.9	68.962	19,026.9	66.0419	19,026.9	65.8305	19,026.9	63.6521	19,026.9	62.3854	19,026.9	60.6852	19,026.9	55.6418	19,026.9	56.2013	19,026.9	53.1024	19,026.9	49.2332	19,026.9	51.0537	19,026.9	46.7299	19,026.9	56.0203	19,026.9	43.1648	19,026.9	53.0741	19,026.9	37.2061	19,026.9	32.444	19,026.9	38.4218	19,026.9	37.2224	19,026.9	27.8298	19,026.9	41.3474	19,026.9	42.1585	19,026.9	24.5886	19,026.9	39.0477	19,026.9	44.2409	19,026.9	48.9574	19,026.9	42.835	19,026.9	40.9114
19,697.8	81.1406	19,697.8	78.7182	19,697.8	80.0835	19,697.8	74.7505	19,697.8	75.9133	19,697.8	69.2667	19,697.8	71.5278	19,697.8	65.1285	19,697.8	67.2447	19,697.8	66.8234	19,697.8	62.7092	19,697.8	66.102	19,697.8	62.4707	19,697.8	62.7132	19,697.8	61.253	19,697.8	58.1671	19,697.8	52.8545	19,697.8	50.3011	19,697.8	51.5583	19,697.8	47.0017	19,697.8	56.7246	19,697.8	44.7622	19,697.8	53.7923	19,697.8	38.3448	19,697.8	36.8752	19,697.8	39.1612	19,697.8	38.5852	19,697.8	17.5894	19,697.8	43.8526	19,697.8	43.078	19,697.8	26.8195	19,697.8	40.1557	19,697.8	42.9539	19,697.8	49.3511	19,697.8	44.6937	19,697.8	44.2145
19,999.5	80.6477	19,999.5	77.8075	19,999.5	79.3711	19,999.5	72.4904	19,999.5	75.2468	19,999.5	67.61	19,999.5	70.5284	19,999.5	65.1202	19,999.5	65.8559	19,999.5	67.0072	19,999.5	61.4446	19,999.5	67.4811	19,999.5	63.2039	19,999.5	63.8035	19,999.5	63.2913	19,999.5	58.6466	19,999.5	50.3684	19,999.5	52.0539	19,999.5	52.7457	19,999.5	46.1879	19,999.5	54.9957	19,999.5	46.7061	19,999.5	49.1736	19,999.5	39.729	19,999.5	49.2035	19,999.5	38.2858	19,999.5	39.4205	19,999.5	40.6161	19,999.5	53.0674	19,999.5	46.1094	19,999.5	40.7234	19,999.5	41.3868	19,999.5	35.0247	19,999.5	44.9744	19,999.5	32.853	19,999.5	36.3334
