"SPL Horizontal"
"On-Axis"		"10°"		"-10°"		"20°"		"-20°"		"30°"		"-30°"		"40°"		"-40°"		"50°"		"-50°"		"60°"		"-60°"		"70°"		"-70°"		"80°"		"-80°"		"90°"		"-90°"		"100°"		"-100°"		"110°"		"-110°"		"120°"		"-120°"		"130°"		"-130°"		"140°"		"-140°"		"150°"		"-150°"		"160°"		"-160°"		"170°"		"-170°"		"180°"
"Frequency [Hz]"	"Sound Pessure Level [dB]  / [2.83V 1m] "	"Frequency [Hz]"	"Sound Pessure Level [dB]  / [2.83V 1m] "	"Frequency [Hz]"	"Sound Pessure Level [dB]  / [2.83V 1m] "	"Frequency [Hz]"	"Sound Pessure Level [dB]  / [2.83V 1m] "	"Frequency [Hz]"	"Sound Pessure Level [dB]  / [2.83V 1m] "	"Frequency [Hz]"	"Sound Pessure Level [dB]  / [2.83V 1m] "	"Frequency [Hz]"	"Sound Pessure Level [dB]  / [2.83V 1m] "	"Frequency [Hz]"	"Sound Pessure Level [dB]  / [2.83V 1m] "	"Frequency [Hz]"	"Sound Pessure Level [dB]  / [2.83V 1m] "	"Frequency [Hz]"	"Sound Pessure Level [dB]  / [2.83V 1m] "	"Frequency [Hz]"	"Sound Pessure Level [dB]  / [2.83V 1m] "	"Frequency [Hz]"	"Sound Pessure Level [dB]  / [2.83V 1m] "	"Frequency [Hz]"	"Sound Pessure Level [dB]  / [2.83V 1m] "	"Frequency [Hz]"	"Sound Pessure Level [dB]  / [2.83V 1m] "	"Frequency [Hz]"	"Sound Pessure Level [dB]  / [2.83V 1m] "	"Frequency [Hz]"	"Sound Pessure Level [dB]  / [2.83V 1m] "	"Frequency [Hz]"	"Sound Pessure Level [dB]  / [2.83V 1m] "	"Frequency [Hz]"	"Sound Pessure Level [dB]  / [2.83V 1m] "	"Frequency [Hz]"	"Sound Pessure Level [dB]  / [2.83V 1m] "	"Frequency [Hz]"	"Sound Pessure Level [dB]  / [2.83V 1m] "	"Frequency [Hz]"	"Sound Pessure Level [dB]  / [2.83V 1m] "	"Frequency [Hz]"	"Sound Pessure Level [dB]  / [2.83V 1m] "	"Frequency [Hz]"	"Sound Pessure Level [dB]  / [2.83V 1m] "	"Frequency [Hz]"	"Sound Pessure Level [dB]  / [2.83V 1m] "	"Frequency [Hz]"	"Sound Pessure Level [dB]  / [2.83V 1m] "	"Frequency [Hz]"	"Sound Pessure Level [dB]  / [2.83V 1m] "	"Frequency [Hz]"	"Sound Pessure Level [dB]  / [2.83V 1m] "	"Frequency [Hz]"	"Sound Pessure Level [dB]  / [2.83V 1m] "	"Frequency [Hz]"	"Sound Pessure Level [dB]  / [2.83V 1m] "	"Frequency [Hz]"	"Sound Pessure Level [dB]  / [2.83V 1m] "	"Frequency [Hz]"	"Sound Pessure Level [dB]  / [2.83V 1m] "	"Frequency [Hz]"	"Sound Pessure Level [dB]  / [2.83V 1m] "	"Frequency [Hz]"	"Sound Pessure Level [dB]  / [2.83V 1m] "	"Frequency [Hz]"	"Sound Pessure Level [dB]  / [2.83V 1m] "	"Frequency [Hz]"	"Sound Pessure Level [dB]  / [2.83V 1m] "	"Frequency [Hz]"	"Sound Pessure Level [dB]  / [2.83V 1m] "
20.5078	54.7538	20.5078	54.7026	20.5078	54.6645	20.5078	54.5072	20.5078	54.4324	20.5078	54.1572	20.5078	54.0482	20.5078	53.6346	20.5078	53.4955	20.5078	52.9115	20.5078	52.7476	20.5078	51.9459	20.5078	51.7641	20.5078	50.6734	20.5078	50.4823	20.5078	48.9896	20.5078	48.8	20.5078	46.7074	20.5078	46.5341	20.5078	43.4322	20.5078	43.2996	20.5078	38.0377	20.5078	38.0076	20.5078	22.6635	20.5078	23.1858	20.5078	34.0012	20.5078	33.4512	20.5078	40.4576	20.5078	40.1555	20.5078	43.5902	20.5078	43.3867	20.5078	45.3555	20.5078	45.2252	20.5078	46.2779	20.5078	46.2138	20.5078	46.5473
21.9727	51.9639	21.9727	51.8034	21.9727	51.9059	21.9727	51.4093	21.9727	51.6277	21.9727	50.7465	21.9727	51.1111	21.9727	49.7517	21.9727	50.3186	21.9727	48.3173	21.9727	49.1874	21.9727	46.2623	21.9727	47.6248	21.9727	43.3257	21.9727	45.5312	21.9727	39.838	21.9727	43.0557	21.9727	40.2142	21.9727	41.7552	21.9727	44.308	21.9727	43.655	21.9727	47.7874	21.9727	46.7051	21.9727	50.3539	21.9727	49.3422	21.9727	52.2554	21.9727	51.4064	21.9727	53.6598	21.9727	52.986	21.9727	54.6652	21.9727	54.1642	21.9727	55.3285	21.9727	54.9966	21.9727	55.6823	21.9727	55.517	21.9727	55.7436
23.4375	53.2252	23.4375	53.0716	23.4375	53.1783	23.4375	52.7053	23.4375	52.9326	23.4375	52.1038	23.4375	52.4802	23.4375	51.2352	23.4375	51.8058	23.4375	50.0689	23.4375	50.8924	23.4375	48.6226	23.4375	49.7439	23.4375	47.1321	23.4375	48.4572	23.4375	46.3781	23.4375	47.3929	23.4375	47.2315	23.4375	47.2533	23.4375	49.2013	23.4375	48.3757	23.4375	51.31	23.4375	50.1827	23.4375	53.1467	23.4375	52.0338	23.4375	54.6342	23.4375	53.6582	23.4375	55.7861	23.4375	54.9898	23.4375	56.6296	23.4375	56.0277	23.4375	57.1877	23.4375	56.7852	23.4375	57.4763	23.4375	57.2748	23.4375	57.5043
24.9023	54.5546	24.9023	54.4242	24.9023	54.4721	24.9023	54.0738	24.9023	54.1723	24.9023	53.4853	24.9023	53.6377	24.9023	52.6323	24.9023	52.8374	24.9023	51.4937	24.9023	51.7288	24.9023	50.1057	24.9023	50.276	24.9023	48.7325	24.9023	48.545	24.9023	48.1341	24.9023	47.0482	24.9023	49.0416	24.9023	47.0495	24.9023	50.9536	24.9023	48.8702	24.9023	52.9933	24.9023	51.2391	24.9023	54.7821	24.9023	53.3853	24.9023	56.2407	24.9023	55.1494	24.9023	57.3765	24.9023	56.5447	24.9023	58.2127	24.9023	57.6094	24.9023	58.7691	24.9023	58.3757	24.9023	59.0597	24.9023	58.8653	24.9023	59.0914
26.3672	55.4492	26.3672	55.3449	26.3672	55.3416	26.3672	55.0202	26.3672	55.0198	26.3672	54.4556	26.3672	54.4713	26.3672	53.6234	26.3672	53.6755	26.3672	52.4998	26.3672	52.6143	26.3672	51.1159	26.3672	51.3114	26.3672	49.7294	26.3672	49.9599	26.3672	49.1102	26.3672	49.164	26.3672	50.0296	26.3672	49.7086	26.3672	51.9832	26.3672	51.4152	26.3672	54.0655	26.3672	53.439	26.3672	55.8903	26.3672	55.2997	26.3672	57.3801	26.3672	56.8639	26.3672	58.5449	26.3672	58.1201	26.3672	59.4097	26.3672	59.0852	26.3672	59.9962	26.3672	59.7773	26.3672	60.3199	26.3672	60.2097	26.3672	60.3899
27.832	53.957	27.832	53.7997	27.832	53.8565	27.832	53.3705	27.832	53.4977	27.832	52.642	27.832	52.8692	27.832	51.5828	27.832	51.9583	27.832	50.2057	27.832	50.789	27.832	48.7595	27.832	49.5453	27.832	48.1337	27.832	48.8203	27.832	49.303	27.832	49.433	27.832	51.6101	27.832	51.2568	27.832	53.9873	27.832	53.4329	27.832	56.0519	27.832	55.4585	27.832	57.7542	27.832	57.1936	27.832	59.1213	27.832	58.627	27.832	60.1873	27.832	59.7772	27.832	60.9796	27.832	60.6643	27.832	61.5174	27.832	61.3038	27.832	61.8134	27.832	61.7056	27.832	61.8751
29.2969	56.212	29.2969	56.1091	29.2969	56.1941	29.2969	55.8909	29.2969	56.0607	29.2969	55.5791	29.2969	55.8294	29.2969	55.2251	29.2969	55.538	29.2969	54.9284	29.2969	55.2581	29.2969	54.8433	29.2969	55.1053	29.2969	55.1324	29.2969	55.2227	29.2969	55.8586	29.2969	55.7146	29.2969	56.9268	29.2969	56.5687	29.2969	58.1582	29.2969	57.662	29.2969	59.3939	29.2969	58.8418	29.2969	60.5328	29.2969	59.9877	29.2969	61.5209	29.2969	61.0249	29.2969	62.3318	29.2969	61.912	29.2969	62.9541	29.2969	62.6275	29.2969	63.3832	29.2969	63.1603	29.2969	63.6178	29.2969	63.5049	29.2969	63.658
30.7617	59.734	30.7617	59.6287	30.7617	59.7203	30.7617	59.4072	30.7617	59.5897	30.7617	59.0794	30.7617	59.3488	30.7617	58.6704	30.7617	59.0136	30.7617	58.2333	30.7617	58.6174	30.7617	57.8646	30.7617	58.2233	30.7617	57.7052	30.7617	57.9355	30.7617	57.8926	30.7617	57.887	30.7617	58.4708	30.7617	58.1839	30.7617	59.3498	30.7617	58.831	30.7617	60.3706	30.7617	59.7233	30.7617	61.3901	30.7617	60.715	30.7617	62.3139	30.7617	61.6839	30.7617	63.0893	30.7617	62.5502	30.7617	63.6896	30.7617	63.2685	30.7617	64.102	30.7617	63.8144	30.7617	64.3212	30.7617	64.1755	30.7617	64.3454
32.2266	60.2211	32.2266	60.1529	32.2266	60.1498	32.2266	59.947	32.2266	59.9426	32.2266	59.6132	32.2266	59.6098	32.2266	59.1787	32.2266	59.1758	32.2266	58.7061	32.2266	58.6933	32.2266	58.3161	32.2266	58.2633	32.2266	58.1881	32.2266	58.0439	32.2266	58.4888	32.2266	58.2045	32.2266	59.2435	32.2266	58.8144	32.2266	60.3079	32.2266	59.7798	32.2266	61.483	32.2266	60.9185	32.2266	62.6166	32.2266	62.0681	32.2266	63.621	32.2266	63.1252	32.2266	64.4534	32.2266	64.0345	32.2266	65.0947	32.2266	64.7688	32.2266	65.5379	32.2266	65.3154	32.2266	65.7809	32.2266	65.6681	32.2266	65.8239
33.6914	61.4363	33.6914	61.3433	33.6914	61.4086	33.6914	61.1328	33.6914	61.2622	33.6914	60.8175	33.6914	61.0055	33.6914	60.4276	33.6914	60.6576	33.6914	60.0262	33.6914	60.2593	33.6914	59.7243	33.6914	59.8867	33.6914	59.6727	33.6914	59.6611	33.6914	59.9992	33.6914	59.7257	33.6914	60.7144	33.6914	60.1718	33.6914	61.6982	33.6914	60.9674	33.6914	62.7847	33.6914	61.9774	33.6914	63.8398	33.6914	63.0493	33.6914	64.7806	33.6914	64.0686	33.6914	65.5625	33.6914	64.9659	33.6914	66.1636	33.6914	65.7034	33.6914	66.5739	33.6914	66.262	33.6914	66.7892	33.6914	66.6319	33.6914	66.8084
35.1562	62.5437	35.1562	62.5009	35.1562	62.5062	35.1562	62.3837	35.1562	62.3923	35.1562	62.2108	35.1562	62.2162	35.1562	62.0189	35.1562	62.0067	35.1562	61.8686	35.1562	61.8122	35.1562	61.8444	35.1562	61.7044	35.1562	62.0345	35.1562	61.7691	35.1562	62.4906	35.1562	62.0774	35.1562	63.1939	35.1562	62.6473	35.1562	64.0627	35.1562	63.4293	35.1562	64.9939	35.1562	64.3316	35.1562	65.8984	35.1562	65.2589	35.1562	66.7131	35.1562	66.1359	35.1562	67.3987	35.1562	66.9114	35.1562	67.9319	35.1562	67.553	35.1562	68.2999	35.1562	68.0414	35.1562	68.496	35.1562	68.3651	35.1562	68.5176
36.6211	64.2743	36.6211	64.2389	36.6211	64.242	36.6211	64.141	36.6211	64.145	36.6211	63.9959	36.6211	63.9954	36.6211	63.833	36.6211	63.8162	36.6211	63.7003	36.6211	63.6459	36.6211	63.6638	36.6211	63.5408	36.6211	63.7956	36.6211	63.5694	36.6211	64.1459	36.6211	63.794	36.6211	64.7149	36.6211	64.2419	36.6211	65.4488	36.6211	64.888	36.6211	66.2643	36.6211	65.6645	36.6211	67.0792	36.6211	66.4892	36.6211	67.829	36.6211	67.2888	36.6211	68.4695	36.6211	68.0088	36.6211	68.9729	36.6211	68.6122	36.6211	69.3227	36.6211	69.0755	36.6211	69.5098	36.6211	69.3843	36.6211	69.5303
38.0859	65.8244	38.0859	65.7984	38.0859	65.7926	38.0859	65.719	38.0859	65.706	38.0859	65.5996	38.0859	65.5754	38.0859	65.4657	38.0859	65.4216	38.0859	65.3576	38.0859	65.2778	38.0859	65.3301	38.0859	65.1912	38.0859	65.4435	38.0859	65.219	38.0859	65.7427	38.0859	65.4137	38.0859	66.2346	38.0859	65.8021	38.0859	66.8807	38.0859	66.369	38.0859	67.6128	38.0859	67.0617	38.0859	68.3576	38.0859	67.8102	38.0859	69.0529	38.0859	68.547	38.0859	69.6534	38.0859	69.2187	38.0859	70.1292	38.0859	69.7868	38.0859	70.4615	38.0859	70.2259	38.0859	70.6397	38.0859	70.5198	38.0859	70.6592
39.5508	67.206	39.5508	67.187	39.5508	67.1756	39.5508	67.1231	39.5508	67.0988	39.5508	67.0264	39.5508	66.9852	39.5508	66.9194	39.5508	66.8535	39.5508	66.8373	39.5508	66.733	39.5508	66.8266	39.5508	66.6647	39.5508	66.9384	39.5508	66.6977	39.5508	67.2116	39.5508	66.8776	39.5508	67.6548	39.5508	67.2292	39.5508	68.239	39.5508	67.7429	39.5508	68.9076	39.5508	68.3762	39.5508	69.5954	39.5508	69.0678	39.5508	70.2442	39.5508	69.756	39.5508	70.8094	39.5508	70.389	39.5508	71.2599	39.5508	70.9284	39.5508	71.5758	39.5508	71.3475	39.5508	71.7455	39.5508	71.6292	39.5508	71.7633
41.0156	68.3336	41.0156	68.3169	41.0156	68.3056	41.0156	68.2587	41.0156	68.2362	41.0156	68.1702	41.0156	68.1356	41.0156	68.0721	41.0156	68.0224	41.0156	67.9969	41.0156	67.9246	41.0156	67.9882	41.0156	67.8804	41.0156	68.0939	41.0156	67.934	41.0156	68.3521	41.0156	68.1255	41.0156	68.7733	41.0156	68.4755	41.0156	69.3328	41.0156	68.9743	41.0156	69.9784	41.0156	69.5826	41.0156	70.6479	41.0156	70.2447	41.0156	71.2842	41.0156	70.9031	41.0156	71.8424	41.0156	71.5087	41.0156	72.2907	41.0156	72.0243	41.0156	72.6087	41.0156	72.4236	41.0156	72.784	41.0156	72.6893	41.0156	72.811
42.4805	69.7438	42.4805	69.7286	42.4805	69.7265	42.4805	69.6846	42.4805	69.6793	42.4805	69.6226	42.4805	69.6108	42.4805	69.5612	42.4805	69.5364	42.4805	69.5289	42.4805	69.4795	42.4805	69.5614	42.4805	69.471	42.4805	69.6965	42.4805	69.546	42.4805	69.9622	42.4805	69.7362	42.4805	70.365	42.4805	70.059	42.4805	70.8835	42.4805	70.5089	42.4805	71.4746	42.4805	71.0563	42.4805	72.086	42.4805	71.6561	42.4805	72.6678	42.4805	72.2587	42.4805	73.1792	42.4805	72.8192	42.4805	73.5901	42.4805	73.3016	42.4805	73.8802	42.4805	73.6793	42.4805	74.0372	42.4805	73.9343	42.4805	74.0553
43.9453	71.114	43.9453	71.1097	43.9453	71.0949	43.9453	71.085	43.9453	71.0545	43.9453	71.0492	43.9453	71.0006	43.9453	71.0187	43.9453	70.947	43.9453	71.0171	43.9453	70.9138	43.9453	71.0738	43.9453	70.9269	43.9453	71.2193	43.9453	71.0156	43.9453	71.4762	43.9453	71.2055	43.9453	71.8498	43.9453	71.5111	43.9453	72.3235	43.9453	71.9281	43.9453	72.8622	43.9453	72.4324	43.9453	73.4212	43.9453	72.9857	43.9453	73.9559	43.9453	73.5444	43.9453	74.4283	43.9453	74.0675	43.9453	74.8093	43.9453	74.5205	43.9453	75.0785	43.9453	74.8775	43.9453	75.2232	43.9453	75.1202	43.9453	75.2372
45.4102	72.3779	45.4102	72.3798	45.4102	72.3577	45.4102	72.3661	45.4102	72.3214	45.4102	72.3447	45.4102	72.2759	45.4102	72.3297	45.4102	72.2333	45.4102	72.3413	45.4102	72.2113	45.4102	72.4048	45.4102	72.2325	45.4102	72.5462	45.4102	72.3217	45.4102	72.7856	45.4102	72.5017	45.4102	73.1287	45.4102	72.7854	45.4102	73.563	45.4102	73.1703	45.4102	74.0587	45.4102	73.6364	45.4102	74.5764	45.4102	74.1505	45.4102	75.0749	45.4102	74.6731	45.4102	75.5181	45.4102	75.1656	45.4102	75.8771	45.4102	75.5947	45.4102	76.1314	45.4102	75.9346	45.4102	76.2678	45.4102	76.1669	45.4102	76.2797
46.875	75.3402	46.875	75.3658	46.875	75.3367	46.875	75.4129	46.875	75.3557	46.875	75.4821	46.875	75.3982	46.875	75.5747	46.875	75.4658	46.875	75.6938	46.875	75.5611	46.875	75.8442	46.875	75.688	46.875	76.0322	46.875	75.8516	46.875	76.2635	46.875	76.0574	46.875	76.5416	46.875	76.3095	46.875	76.864	46.875	76.6083	46.875	77.2208	46.875	76.9482	46.875	77.5944	46.875	77.3161	46.875	77.9614	46.875	77.6927	46.875	78.2962	46.875	78.0544	46.875	78.5748	46.875	78.3765	46.875	78.777	46.875	78.6362	46.875	78.8885	46.875	78.8155	46.875	78.9016
48.3398	76.4743	48.3398	76.5012	48.3398	76.4706	48.3398	76.5507	48.3398	76.4907	48.3398	76.6226	48.3398	76.535	48.3398	76.7173	48.3398	76.6044	48.3398	76.8367	48.3398	76.7005	48.3398	76.9843	48.3398	76.8261	48.3398	77.165	48.3398	76.985	48.3398	77.3841	48.3398	77.1819	48.3398	77.6447	48.3398	77.4203	48.3398	77.9454	48.3398	77.701	48.3398	78.278	48.3398	78.0192	48.3398	78.6269	48.3398	78.3639	48.3398	78.971	48.3398	78.7174	48.3398	79.2864	48.3398	79.0581	48.3398	79.5499	48.3398	79.3624	48.3398	79.7418	48.3398	79.6086	48.3398	79.8479	48.3398	79.7788	48.3398	79.8605
51.2695	78.616	51.2695	78.6429	51.2695	78.6136	51.2695	78.6935	51.2695	78.6362	51.2695	78.7666	51.2695	78.6835	51.2695	78.8613	51.2695	78.7554	51.2695	78.9776	51.2695	78.8517	51.2695	79.1173	51.2695	78.9734	51.2695	79.2833	51.2695	79.1225	51.2695	79.4795	51.2695	79.3019	51.2695	79.709	51.2695	79.5144	51.2695	79.9715	51.2695	79.7611	51.2695	80.2614	51.2695	80.0391	51.2695	80.5669	51.2695	80.3403	51.2695	80.8702	51.2695	80.6506	51.2695	81.1505	51.2695	80.9514	51.2695	81.3864	51.2695	81.2219	51.2695	81.5594	51.2695	81.442	51.2695	81.6557	51.2695	81.5946	51.2695	81.6677
52.7344	79.5762	52.7344	79.6039	52.7344	79.5749	52.7344	79.6569	52.7344	79.6003	52.7344	79.7335	52.7344	79.6519	52.7344	79.8321	52.7344	79.7287	52.7344	79.9517	52.7344	79.8298	52.7344	80.0928	52.7344	79.955	52.7344	80.2572	52.7344	80.1051	52.7344	80.4481	52.7344	80.282	52.7344	80.6678	52.7344	80.4877	52.7344	80.9165	52.7344	80.7232	52.7344	81.1897	52.7344	80.9862	52.7344	81.4768	52.7344	81.2696	52.7344	81.7622	52.7344	81.561	52.7344	82.0264	52.7344	81.8436	52.7344	82.2495	52.7344	82.098	52.7344	82.4136	52.7344	82.3052	52.7344	82.5054	52.7344	82.4489	52.7344	82.5175
54.1992	80.5028	54.1992	80.5306	54.1992	80.5024	54.1992	80.5844	54.1992	80.5295	54.1992	80.6622	54.1992	80.5832	54.1992	80.7618	54.1992	80.6619	54.1992	80.8812	54.1992	80.7639	54.1992	81.0201	54.1992	80.8882	54.1992	81.1793	54.1992	81.0346	54.1992	81.361	54.1992	81.2043	54.1992	81.5676	54.1992	81.3988	54.1992	81.7993	54.1992	81.6192	54.1992	82.0526	54.1992	81.8637	54.1992	82.3188	54.1992	82.1265	54.1992	82.5838	54.1992	82.3969	54.1992	82.8299	54.1992	82.6597	54.1992	83.0384	54.1992	82.897	54.1992	83.1922	54.1992	83.0908	54.1992	83.2785	54.1992	83.2255	54.1992	83.2899
55.6641	81.3173	55.6641	81.3455	55.6641	81.3173	55.6641	81.4004	55.6641	81.3457	55.6641	81.4796	55.6641	81.4011	55.6641	81.5802	55.6641	81.4816	55.6641	81.6998	55.6641	81.5847	55.6641	81.8369	55.6641	81.7086	55.6641	81.9916	55.6641	81.8523	55.6641	82.1656	55.6641	82.0163	55.6641	82.3607	55.6641	82.2015	55.6641	82.5774	55.6641	82.4088	55.6641	82.8133	55.6641	82.6371	55.6641	83.0607	55.6641	82.8815	55.6641	83.3072	55.6641	83.1329	55.6641	83.5368	55.6641	83.3775	55.6641	83.7317	55.6641	83.599	55.6641	83.8759	55.6641	83.7805	55.6641	83.9568	55.6641	83.9069	55.6641	83.9675
58.5938	82.6807	58.5938	82.7099	58.5938	82.6811	58.5938	82.7669	58.5938	82.7109	58.5938	82.8483	58.5938	82.7685	58.5938	82.9503	58.5938	82.8509	58.5938	83.069	58.5938	82.9544	58.5938	83.2013	58.5938	83.0758	58.5938	83.346	58.5938	83.2127	58.5938	83.5034	58.5938	83.3641	58.5938	83.675	58.5938	83.5303	58.5938	83.862	58.5938	83.7121	58.5938	84.0633	58.5938	83.9092	58.5938	84.2741	58.5938	84.1188	58.5938	84.4849	58.5938	84.3342	58.5938	84.6824	58.5938	84.5446	58.5938	84.8513	58.5938	84.7362	58.5938	84.9771	58.5938	84.894	58.5938	85.0481	58.5938	85.0045	58.5938	85.0575
60.0586	83.2325	60.0586	83.2621	60.0586	83.2327	60.0586	83.3197	60.0586	83.2628	60.0586	83.4016	60.0586	83.3207	60.0586	83.5036	60.0586	83.4033	60.0586	83.6211	60.0586	83.5063	60.0586	83.7506	60.0586	83.626	60.0586	83.8902	60.0586	83.7594	60.0586	84.0397	60.0586	83.905	60.0586	84.2003	60.0586	84.0627	60.0586	84.3734	60.0586	84.233	60.0586	84.5586	60.0586	84.4161	60.0586	84.752	60.0586	84.6097	60.0586	84.9458	60.0586	84.8082	60.0586	85.1279	60.0586	85.0023	60.0586	85.2843	60.0586	85.1793	60.0586	85.4012	60.0586	85.3254	60.0586	85.4675	60.0586	85.4277	60.0586	85.4767
62.9883	84.0795	62.9883	84.1091	62.9883	84.0809	62.9883	84.1675	62.9883	84.1131	62.9883	84.2507	62.9883	84.1738	62.9883	84.3532	62.9883	84.2591	62.9883	84.4696	62.9883	84.3638	62.9883	84.5951	62.9883	84.4829	62.9883	84.7266	62.9883	84.6123	62.9883	84.8629	62.9883	84.7493	62.9883	85.0048	62.9883	84.893	62.9883	85.1538	62.9883	85.0434	62.9883	85.3104	62.9883	85.2012	62.9883	85.473	62.9883	85.3653	62.9883	85.6361	62.9883	85.5322	62.9883	85.7903	62.9883	85.695	62.9883	85.9239	62.9883	85.8436	62.9883	86.0249	62.9883	85.9665	62.9883	86.0831	62.9883	86.0523	62.9883	86.0926
64.4531	84.3713	64.4531	84.401	64.4531	84.3731	64.4531	84.4598	64.4531	84.4062	64.4531	84.5434	64.4531	84.4681	64.4531	84.646	64.4531	84.5544	64.4531	84.7618	64.4531	84.6598	64.4531	84.8854	64.4531	84.7786	64.4531	85.013	64.4531	84.9061	64.4531	85.1433	64.4531	85.0391	64.4531	85.2766	64.4531	85.1762	64.4531	85.4145	64.4531	85.3174	64.4531	85.558	64.4531	85.4631	64.4531	85.7062	64.4531	85.6132	64.4531	85.8546	64.4531	85.765	64.4531	85.9954	64.4531	85.9128	64.4531	86.1178	64.4531	86.0478	64.4531	86.2108	64.4531	86.1595	64.4531	86.2647	64.4531	86.2376	64.4531	86.274
67.3828	84.7482	67.3828	84.7771	67.3828	84.7515	67.3828	84.8358	67.3828	84.7867	67.3828	84.9194	67.3828	84.8509	67.3828	85.0217	67.3828	84.9392	67.3828	85.1357	67.3828	85.0452	67.3828	85.2553	67.3828	85.1626	67.3828	85.3758	67.3828	85.2855	67.3828	85.4948	67.3828	85.4098	67.3828	85.6121	67.3828	85.5335	67.3828	85.7293	67.3828	85.6562	67.3828	85.8482	67.3828	85.7789	67.3828	85.9691	67.3828	85.9021	67.3828	86.0899	67.3828	86.0251	67.3828	86.2048	67.3828	86.1444	67.3828	86.3055	67.3828	86.2535	67.3828	86.3827	67.3828	86.3441	67.3828	86.4281	67.3828	86.4075	67.3828	86.4366
68.8477	84.8558	68.8477	84.8832	68.8477	84.8609	68.8477	84.9406	68.8477	84.8981	68.8477	85.0231	68.8477	84.9642	68.8477	85.1244	68.8477	85.0539	68.8477	85.237	68.8477	85.1606	68.8477	85.3546	68.8477	85.2775	68.8477	85.4719	68.8477	85.3983	68.8477	85.5862	68.8477	85.5187	68.8477	85.6971	68.8477	85.6362	68.8477	85.8059	68.8477	85.7505	68.8477	85.9146	68.8477	85.8626	68.8477	86.0242	68.8477	85.9735	68.8477	86.1333	68.8477	86.0833	68.8477	86.2372	68.8477	86.1894	68.8477	86.3285	68.8477	86.2865	68.8477	86.3989	68.8477	86.3672	68.8477	86.4407	68.8477	86.4236	68.8477	86.4492
71.7773	85.0784	71.7773	85.1043	71.7773	85.0855	71.7773	85.1607	71.7773	85.125	71.7773	85.2424	71.7773	85.1934	71.7773	85.3425	71.7773	85.285	71.7773	85.4533	71.7773	85.3925	71.7773	85.5673	71.7773	85.5084	71.7773	85.6787	71.7773	85.6258	71.7773	85.784	71.7773	85.7397	71.7773	85.8822	71.7773	85.8469	71.7773	85.9745	71.7773	85.9468	71.7773	86.0634	71.7773	86.0403	71.7773	86.1507	71.7773	86.1293	71.7773	86.2368	71.7773	86.2149	71.7773	86.319	71.7773	86.2964	71.7773	86.392	71.7773	86.3706	71.7773	86.4492	71.7773	86.432	71.7773	86.4842	71.7773	86.4746	71.7773	86.4929
74.707	85.2315	74.707	85.2604	74.707	85.2358	74.707	85.3199	74.707	85.2729	74.707	85.4043	74.707	85.3392	74.707	85.5062	74.707	85.4289	74.707	85.6174	74.707	85.5343	74.707	85.7298	74.707	85.6473	74.707	85.837	74.707	85.7603	74.707	85.9348	74.707	85.8676	74.707	86.0216	74.707	85.9653	74.707	86.0983	74.707	86.0524	74.707	86.1677	74.707	86.1296	74.707	86.2324	74.707	86.1993	74.707	86.2942	74.707	86.2637	74.707	86.3524	74.707	86.3238	74.707	86.4039	74.707	86.3785	74.707	86.4439	74.707	86.4244	74.707	86.4678	74.707	86.4571	74.707	86.4723
77.6367	85.259	77.6367	85.2911	77.6367	85.2609	77.6367	85.3544	77.6367	85.2965	77.6367	85.4429	77.6367	85.362	77.6367	85.5485	77.6367	85.4511	77.6367	85.6624	77.6367	85.5556	77.6367	85.7758	77.6367	85.6669	77.6367	85.8814	77.6367	85.7766	77.6367	85.9741	77.6367	85.8782	77.6367	86.0519	77.6367	85.9674	77.6367	86.1153	77.6367	86.0427	77.6367	86.1672	77.6367	86.1049	77.6367	86.211	77.6367	86.1569	77.6367	86.2498	77.6367	86.202	77.6367	86.2848	77.6367	86.2427	77.6367	86.3151	77.6367	86.2798	77.6367	86.3379	77.6367	86.312	77.6367	86.3501	77.6367	86.3363	77.6367	86.3496
79.1016	85.2809	79.1016	85.3144	79.1016	85.2816	79.1016	85.3792	79.1016	85.316	79.1016	85.4691	79.1016	85.3806	79.1016	85.5758	79.1016	85.4686	79.1016	85.6902	79.1016	85.5718	79.1016	85.8031	79.1016	85.6811	79.1016	85.9068	79.1016	85.7881	79.1016	85.996	79.1016	85.8859	79.1016	86.0684	79.1016	85.97	79.1016	86.1243	79.1016	86.0387	79.1016	86.1667	79.1016	86.0929	79.1016	86.1994	79.1016	86.1357	79.1016	86.2262	79.1016	86.1708	79.1016	86.2494	79.1016	86.2017	79.1016	86.2689	79.1016	86.2298	79.1016	86.2831	79.1016	86.2549	79.1016	86.2897	79.1016	86.2748	79.1016	86.2869
82.0312	85.2083	82.0312	85.2302	82.0312	85.2051	82.0312	85.2702	82.0312	85.2206	82.0312	85.327	82.0312	85.2541	82.0312	85.3986	82.0312	85.3042	82.0312	85.482	82.0312	85.369	82.0312	85.5736	82.0312	85.4454	82.0312	85.6691	82.0312	85.5302	82.0312	85.7643	82.0312	85.6195	82.0312	85.8559	82.0312	85.7097	82.0312	85.941	82.0312	85.7977	82.0312	86.0186	82.0312	85.8817	82.0312	86.088	82.0312	85.9607	82.0312	86.1489	82.0312	86.0342	82.0312	86.2007	82.0312	86.1018	82.0312	86.2417	82.0312	86.1624	82.0312	86.2692	82.0312	86.2135	82.0312	86.2809	82.0312	86.252	82.0312	86.2751
84.9609	85.2374	84.9609	85.2556	84.9609	85.2373	84.9609	85.2911	84.9609	85.2552	84.9609	85.3426	84.9609	85.2904	84.9609	85.4081	84.9609	85.3417	84.9609	85.4845	84.9609	85.4068	84.9609	85.5683	84.9609	85.4827	84.9609	85.6553	84.9609	85.5657	84.9609	85.7414	84.9609	85.6515	84.9609	85.8229	84.9609	85.7363	84.9609	85.8975	84.9609	85.8165	84.9609	85.9639	84.9609	85.89	84.9609	86.0218	84.9609	85.9557	84.9609	86.0718	84.9609	86.0138	84.9609	86.1139	84.9609	86.0646	84.9609	86.1475	84.9609	86.108	84.9609	86.1711	84.9609	86.1432	84.9609	86.183	84.9609	86.1685	84.9609	86.1822
87.8906	85.1947	87.8906	85.2117	87.8906	85.1993	87.8906	85.25	87.8906	85.2252	87.8906	85.308	87.8906	85.2711	87.8906	85.3832	87.8906	85.3346	87.8906	85.4719	87.8906	85.4128	87.8906	85.5693	87.8906	85.5015	87.8906	85.6699	87.8906	85.5957	87.8906	85.768	87.8906	85.6903	87.8906	85.8587	87.8906	85.7803	87.8906	85.9381	87.8906	85.8617	87.8906	86.0044	87.8906	85.9319	87.8906	86.0572	87.8906	85.9901	87.8906	86.0977	87.8906	86.0373	87.8906	86.1273	87.8906	86.075	87.8906	86.1475	87.8906	86.1053	87.8906	86.1593	87.8906	86.1293	87.8906	86.1629	87.8906	86.1473	87.8906	86.1587
90.8203	85.3443	90.8203	85.3651	90.8203	85.3447	90.8203	85.4065	90.8203	85.3662	90.8203	85.4664	90.8203	85.4073	90.8203	85.5419	90.8203	85.4657	90.8203	85.6285	90.8203	85.538	90.8203	85.7209	90.8203	85.6197	90.8203	85.8133	90.8203	85.7056	90.8203	85.8998	90.8203	85.7901	90.8203	85.9753	90.8203	85.8681	90.8203	86.0363	90.8203	85.9354	90.8203	86.0814	90.8203	85.9897	90.8203	86.1112	90.8203	86.0305	90.8203	86.128	90.8203	86.0592	90.8203	86.1351	90.8203	86.0786	90.8203	86.1356	90.8203	86.092	90.8203	86.1321	90.8203	86.1022	90.8203	86.1262	90.8203	86.1109	90.8203	86.1189
95.2148	85.4217	95.2148	85.4414	95.2148	85.4226	95.2148	85.4814	95.2148	85.4438	95.2148	85.5397	95.2148	85.4835	95.2148	85.6133	95.2148	85.5392	95.2148	85.6974	95.2148	85.6072	95.2148	85.7863	95.2148	85.683	95.2148	85.8732	95.2148	85.7611	95.2148	85.9514	95.2148	85.8356	95.2148	86.0149	95.2148	85.901	95.2148	86.0597	95.2148	85.9527	95.2148	86.0841	95.2148	85.9882	95.2148	86.0892	95.2148	86.0068	95.2148	86.0786	95.2148	86.0109	95.2148	86.0575	95.2148	86.0045	95.2148	86.0321	95.2148	85.9931	95.2148	86.0078	95.2148	85.9821	95.2148	85.9889	95.2148	85.9761	95.2148	85.978
98.1445	85.4853	98.1445	85.5041	98.1445	85.4871	98.1445	85.5429	98.1445	85.5088	98.1445	85.5999	98.1445	85.5487	98.1445	85.6716	98.1445	85.6039	98.1445	85.7532	98.1445	85.6707	98.1445	85.8383	98.1445	85.7441	98.1445	85.9198	98.1445	85.8183	98.1445	85.9906	98.1445	85.8871	98.1445	86.0443	98.1445	85.9445	98.1445	86.0767	98.1445	85.9858	98.1445	86.0862	98.1445	86.0079	98.1445	86.0743	98.1445	86.0108	98.1445	86.0457	98.1445	85.9971	98.1445	86.0071	98.1445	85.972	98.1445	85.9661	98.1445	85.9424	98.1445	85.93	98.1445	85.9155	98.1445	85.9046	98.1445	85.8978	98.1445	85.8936
101.074	85.5568	101.074	85.5758	101.074	85.5585	101.074	85.6149	101.074	85.5804	101.074	85.6722	101.074	85.6205	101.074	85.7439	101.074	85.676	101.074	85.825	101.074	85.7428	101.074	85.9087	101.074	85.8156	101.074	85.9877	101.074	85.8881	101.074	86.0543	101.074	85.9538	101.074	86.1019	101.074	86.0063	101.074	86.126	101.074	86.0404	101.074	86.1251	101.074	86.0531	101.074	86.101	101.074	86.0445	101.074	86.0588	101.074	86.0175	101.074	86.0064	101.074	85.9784	101.074	85.9528	101.074	85.9352	101.074	85.9067	101.074	85.8968	101.074	85.8753	101.074	85.8709	101.074	85.8629
105.469	85.6457	105.469	85.6702	105.469	85.6437	105.469	85.7158	105.469	85.664	105.469	85.7794	105.469	85.705	105.469	85.8566	105.469	85.7636	105.469	85.9414	105.469	85.8348	105.469	86.0264	105.469	85.9123	105.469	86.1036	105.469	85.9888	105.469	86.1652	105.469	86.0565	105.469	86.2045	105.469	86.1079	105.469	86.2171	105.469	86.1372	105.469	86.2016	105.469	86.1412	105.469	86.1607	105.469	86.12	105.469	86.1006	105.469	86.0775	105.469	86.0305	105.469	86.0209	105.469	85.9612	105.469	85.9601	105.469	85.9033	105.469	85.9059	105.469	85.8657	105.469	85.868	105.469	85.8535
108.398	85.7776	108.398	85.8001	108.398	85.7766	108.398	85.8428	108.398	85.797	108.398	85.9029	108.398	85.8373	108.398	85.976	108.398	85.8942	108.398	86.0562	108.398	85.9632	108.398	86.1362	108.398	86.0381	108.398	86.2081	108.398	86.1115	108.398	86.2641	108.398	86.1758	108.398	86.2974	108.398	86.2235	108.398	86.3038	108.398	86.2486	108.398	86.282	108.398	86.2478	108.398	86.2348	108.398	86.221	108.398	86.1688	108.398	86.1718	108.398	86.0934	108.398	86.1078	108.398	86.0201	108.398	86.0391	108.398	85.9601	108.398	85.9772	108.398	85.9226	108.398	85.9325	108.398	85.9131
112.793	85.9614	112.793	85.9995	112.793	85.9429	112.793	86.0555	112.793	85.9443	112.793	86.1264	112.793	85.965	112.793	86.2078	112.793	86.0027	112.793	86.2938	112.793	86.0536	112.793	86.3771	112.793	86.1122	112.793	86.4498	112.793	86.1719	112.793	86.5038	112.793	86.2251	112.793	86.5322	112.793	86.2642	112.793	86.5303	112.793	86.283	112.793	86.4966	112.793	86.2779	112.793	86.4338	112.793	86.2484	112.793	86.3484	112.793	86.1984	112.793	86.2507	112.793	86.1355	112.793	86.153	112.793	86.0705	112.793	86.0684	112.793	86.0155	112.793	86.0077	112.793	85.982	112.793	85.9782
117.188	86.1774	117.188	86.1982	117.188	86.1774	117.188	86.2386	117.188	86.1979	117.188	86.2961	117.188	86.2372	117.188	86.3667	117.188	86.2922	117.188	86.4442	117.188	86.3583	117.188	86.5213	117.188	86.4291	117.188	86.5894	117.188	86.4971	117.188	86.6399	117.188	86.5542	117.188	86.6653	117.188	86.5922	117.188	86.6604	117.188	86.6049	117.188	86.6234	117.188	86.5883	117.188	86.557	117.188	86.5424	117.188	86.4682	117.188	86.4714	117.188	86.3683	117.188	86.3839	117.188	86.2711	117.188	86.2922	117.188	86.1911	117.188	86.2103	117.188	86.1404	117.188	86.1517	117.188	86.1268
120.117	86.2797	120.117	86.3026	120.117	86.2764	120.117	86.3438	120.117	86.2924	120.117	86.4008	120.117	86.3265	120.117	86.4695	120.117	86.3762	120.117	86.5443	120.117	86.4369	120.117	86.6177	120.117	86.5027	120.117	86.6813	120.117	86.5663	120.117	86.7265	120.117	86.6192	120.117	86.7457	120.117	86.6534	120.117	86.7337	120.117	86.6623	120.117	86.6889	120.117	86.6418	120.117	86.6141	120.117	86.5915	120.117	86.5166	120.117	86.5156	120.117	86.4083	120.117	86.4227	120.117	86.3037	120.117	86.3255	120.117	86.2179	120.117	86.2385	120.117	86.1638	120.117	86.1762	120.117	86.1494
124.512	86.4045	124.512	86.4241	124.512	86.402	124.512	86.4596	124.512	86.4168	124.512	86.509	124.512	86.448	124.512	86.5685	124.512	86.4933	124.512	86.6329	124.512	86.5487	124.512	86.6954	124.512	86.6085	124.512	86.748	124.512	86.6652	124.512	86.7823	124.512	86.7106	124.512	86.791	124.512	86.7363	124.512	86.7686	124.512	86.7355	124.512	86.7136	124.512	86.704	124.512	86.6285	124.512	86.6415	124.512	86.5211	124.512	86.5523	124.512	86.4035	124.512	86.4456	124.512	86.291	124.512	86.3349	124.512	86.1997	124.512	86.2358	124.512	86.1435	124.512	86.1638	124.512	86.131
128.906	86.4268	128.906	86.4476	128.906	86.4211	128.906	86.4827	128.906	86.4308	128.906	86.5301	128.906	86.4556	128.906	86.5868	128.906	86.4936	128.906	86.6479	128.906	86.5416	128.906	86.7069	128.906	86.5944	128.906	86.7561	128.906	86.6449	128.906	86.7868	128.906	86.6851	128.906	86.7916	128.906	86.7066	128.906	86.7649	128.906	86.7023	128.906	86.7047	128.906	86.6677	128.906	86.6134	128.906	86.602	128.906	86.4989	128.906	86.5095	128.906	86.3736	128.906	86.3994	128.906	86.2534	128.906	86.2853	128.906	86.1553	128.906	86.1835	128.906	86.0938	128.906	86.1103	128.906	86.0782
133.301	86.4617	133.301	86.4883	133.301	86.4446	133.301	86.524	133.301	86.438	133.301	86.5683	133.301	86.4429	133.301	86.6202	133.301	86.4598	133.301	86.6771	133.301	86.4876	133.301	86.7346	133.301	86.523	133.301	86.7859	133.301	86.5602	133.301	86.8225	133.301	86.5913	133.301	86.8356	133.301	86.6075	133.301	86.8173	133.301	86.6007	133.301	86.7628	133.301	86.5649	133.301	86.672	133.301	86.4986	133.301	86.5504	133.301	86.4055	133.301	86.4097	133.301	86.2952	133.301	86.267	133.301	86.1831	133.301	86.1419	133.301	86.0872	133.301	86.0527	133.301	86.0259	133.301	86.0126
139.16	86.4841	139.16	86.5041	139.16	86.4708	139.16	86.5307	139.16	86.4649	139.16	86.5642	139.16	86.4672	139.16	86.6042	139.16	86.4782	139.16	86.6493	139.16	86.4972	139.16	86.6955	139.16	86.5213	139.16	86.7366	139.16	86.5453	139.16	86.7646	139.16	86.5621	139.16	86.7705	139.16	86.5636	139.16	86.7464	139.16	86.5423	139.16	86.687	139.16	86.4931	139.16	86.5918	139.16	86.4148	139.16	86.4659	139.16	86.3117	139.16	86.3208	139.16	86.1939	139.16	86.1733	139.16	86.0767	139.16	86.0433	139.16	85.9785	139.16	85.9496	139.16	85.9171	139.16	85.9059
143.555	86.5336	143.555	86.5469	143.555	86.5265	143.555	86.5662	143.555	86.5265	143.555	86.5912	143.555	86.5347	143.555	86.6215	143.555	86.5513	143.555	86.6552	143.555	86.5753	143.555	86.6885	143.555	86.6032	143.555	86.7154	143.555	86.6294	143.555	86.7282	143.555	86.6461	143.555	86.7187	143.555	86.6447	143.555	86.6796	143.555	86.6177	143.555	86.6068	143.555	86.5597	143.555	86.5006	143.555	86.4697	143.555	86.3674	143.555	86.352	143.555	86.2198	143.555	86.217	143.555	86.0751	143.555	86.0805	143.555	85.9535	143.555	85.9615	143.555	85.8734	143.555	85.8789	143.555	85.8474
147.949	86.6585	147.949	86.667	147.949	86.6544	147.949	86.6801	147.949	86.6554	147.949	86.6979	147.949	86.662	147.949	86.7202	147.949	86.6749	147.949	86.7449	147.949	86.6928	147.949	86.7682	147.949	86.7129	147.949	86.7835	147.949	86.7295	147.949	86.7829	147.949	86.7352	147.949	86.758	147.949	86.7215	147.949	86.7021	147.949	86.6809	147.949	86.6113	147.949	86.6082	147.949	86.4871	147.949	86.5024	147.949	86.3369	147.949	86.3681	147.949	86.1747	147.949	86.216	147.949	86.0194	147.949	86.0626	147.949	85.892	147.949	85.9279	147.949	85.8115	147.949	85.8319	147.949	85.7905
153.809	86.7105	153.809	86.7106	153.809	86.7096	153.809	86.7118	153.809	86.707	153.809	86.716	153.809	86.7029	153.809	86.7247	153.809	86.6976	153.809	86.7369	153.809	86.6911	153.809	86.749	153.809	86.6818	153.809	86.7544	153.809	86.6661	153.809	86.7444	153.809	86.6389	153.809	86.7098	153.809	86.5938	153.809	86.643	153.809	86.5249	153.809	86.5398	153.809	86.4284	153.809	86.4015	153.809	86.3043	153.809	86.2356	153.809	86.1577	153.809	86.0563	153.809	85.9995	153.809	85.8829	153.809	85.8458	153.809	85.7373	153.809	85.7162	153.809	85.6393	153.809	85.6301	153.809	85.6022
159.668	86.62	159.668	86.6368	159.668	86.604	159.668	86.6547	159.668	86.5902	159.668	86.6746	159.668	86.5807	159.668	86.6976	159.668	86.5775	159.668	86.7234	159.668	86.5811	159.668	86.7492	159.668	86.5894	159.668	86.7693	159.668	86.5976	159.668	86.776	159.668	86.5986	159.668	86.7604	159.668	86.5842	159.668	86.7151	159.668	86.5469	159.668	86.6354	159.668	86.4818	159.668	86.5217	159.668	86.388	159.668	86.3804	159.668	86.2702	159.668	86.224	159.668	86.139	159.668	86.0702	159.668	86.0096	159.668	85.9387	159.668	85.9006	159.668	85.8479	159.668	85.8296	159.668	85.8102
165.527	86.7436	165.527	86.7467	165.527	86.7352	165.527	86.745	165.527	86.7229	165.527	86.741	165.527	86.7098	165.527	86.7381	165.527	86.6994	165.527	86.7387	165.527	86.6938	165.527	86.7429	165.527	86.6926	165.527	86.7475	165.527	86.6921	165.527	86.7463	165.527	86.686	165.527	86.7313	165.527	86.6665	165.527	86.6942	165.527	86.6262	165.527	86.6295	165.527	86.5603	165.527	86.5355	165.527	86.4679	165.527	86.4165	165.527	86.3539	165.527	86.2829	165.527	86.2285	165.527	86.1498	165.527	86.1065	165.527	86.035	165.527	86.005	165.527	85.9549	165.527	85.9396	165.527	85.9216
171.387	86.6879	171.387	86.688	171.387	86.6832	171.387	86.6837	171.387	86.675	171.387	86.677	171.387	86.666	171.387	86.67	171.387	86.6587	171.387	86.6641	171.387	86.6544	171.387	86.658	171.387	86.6516	171.387	86.6479	171.387	86.646	171.387	86.6272	171.387	86.6308	171.387	86.5879	171.387	86.5977	171.387	86.523	171.387	86.5392	171.387	86.4281	171.387	86.4505	171.387	86.3039	171.387	86.3317	171.387	86.157	171.387	86.1882	171.387	86.0003	171.387	86.0318	171.387	85.851	171.387	85.8793	171.387	85.7282	171.387	85.7495	171.387	85.6491	171.387	85.6606	171.387	85.6254
177.246	86.5429	177.246	86.5689	177.246	86.5128	177.246	86.589	177.246	86.4819	177.246	86.603	177.246	86.4545	177.246	86.6109	177.246	86.4346	177.246	86.6125	177.246	86.4241	177.246	86.6055	177.246	86.4218	177.246	86.5856	177.246	86.4223	177.246	86.5468	177.246	86.4175	177.246	86.4826	177.246	86.3972	177.246	86.3881	177.246	86.3522	177.246	86.2619	177.246	86.2755	177.246	86.1078	177.246	86.1653	177.246	85.9356	177.246	86.0257	177.246	85.761	177.246	85.8674	177.246	85.603	177.246	85.7068	177.246	85.4813	177.246	85.5635	177.246	85.4118	177.246	85.4572	177.246	85.4037
183.105	86.4087	183.105	86.4444	183.105	86.3705	183.105	86.4767	183.105	86.3329	183.105	86.5059	183.105	86.3003	183.105	86.5321	183.105	86.2776	183.105	86.5536	183.105	86.2681	183.105	86.5661	183.105	86.271	183.105	86.5627	183.105	86.2815	183.105	86.535	183.105	86.2903	183.105	86.4749	183.105	86.2861	183.105	86.3773	183.105	86.2576	183.105	86.2416	183.105	86.1967	183.105	86.0738	183.105	86.1002	183.105	85.8868	183.105	85.9715	183.105	85.6994	183.105	85.8206	183.105	85.5338	183.105	85.6633	183.105	85.4109	183.105	85.5188	183.105	85.346	183.105	85.4072	183.105	85.3458
188.965	86.3803	188.965	86.3963	188.965	86.3513	188.965	86.4022	188.965	86.3097	188.965	86.4036	188.965	86.2593	188.965	86.406	188.965	86.206	188.965	86.4125	188.965	86.1552	188.965	86.4218	188.965	86.1095	188.965	86.4276	188.965	86.0674	188.965	86.4194	188.965	86.0233	188.965	86.3855	188.965	85.9686	188.965	86.3154	188.965	85.8947	188.965	86.2028	188.965	85.7958	188.965	86.0479	188.965	85.6714	188.965	85.8588	188.965	85.5277	188.965	85.6512	188.965	85.3773	188.965	85.4466	188.965	85.2378	188.965	85.2687	188.965	85.129	188.965	85.1386	188.965	85.0689	188.965	85.0705
196.289	86.2309	196.289	86.238	196.289	86.2132	196.289	86.2375	196.289	86.1856	196.289	86.2357	196.289	86.1521	196.289	86.2392	196.289	86.118	196.289	86.2527	196.289	86.0875	196.289	86.2759	196.289	86.0612	196.289	86.3027	196.289	86.0353	196.289	86.3216	196.289	86.0016	196.289	86.3184	196.289	85.9499	196.289	86.2795	196.289	85.8711	196.289	86.1948	196.289	85.7595	196.289	86.0607	196.289	85.6163	196.289	85.882	196.289	85.4507	196.289	85.6722	196.289	85.2796	196.289	85.4524	196.289	85.1258	196.289	85.2487	196.289	85.0136	196.289	85.0869	196.289	84.9638	196.289	84.9881
203.613	86.0039	203.613	86.0092	203.613	85.9791	203.613	86.0012	203.613	85.9343	203.613	85.9906	203.613	85.8757	203.613	85.9888	203.613	85.8139	203.613	86.0043	203.613	85.7609	203.613	86.038	203.613	85.7258	203.613	86.0824	203.613	85.7102	203.613	86.1225	203.613	85.7079	203.613	86.1392	203.613	85.7055	203.613	86.115	203.613	85.6874	203.613	86.0383	203.613	85.6403	203.613	85.9067	203.613	85.5571	203.613	85.7284	203.613	85.4395	203.613	85.5219	203.613	85.2986	203.613	85.3131	203.613	85.1539	203.613	85.1306	203.613	85.0301	203.613	85.0003	203.613	84.9521	203.613	84.9393
210.938	85.1567	210.938	85.1134	210.938	85.149	210.938	85.0289	210.938	85.092	210.938	84.924	210.938	84.9981	210.938	84.8282	210.938	84.8884	210.938	84.7739	210.938	84.7893	210.938	84.7863	210.938	84.7272	210.938	84.8743	210.938	84.7218	210.938	85.0256	210.938	84.7794	210.938	85.212	210.938	84.8912	210.938	85.3991	210.938	85.0361	210.938	85.5577	210.938	85.1881	210.938	85.6698	210.938	85.3242	210.938	85.7298	210.938	85.4297	210.938	85.7429	210.938	85.5003	210.938	85.722	210.938	85.5413	210.938	85.683	210.938	85.564	210.938	85.6409	210.938	85.582	210.938	85.6061
218.262	85.6892	218.262	85.6798	218.262	85.6687	218.262	85.6374	218.262	85.6206	218.262	85.5595	218.262	85.5461	218.262	85.4469	218.262	85.4472	218.262	85.3066	218.262	85.328	218.262	85.1544	218.262	85.1968	218.262	85.0144	218.262	85.067	218.262	84.9164	218.262	84.9559	218.262	84.8874	218.262	84.882	218.262	84.9429	218.262	84.8612	218.262	85.0802	218.262	84.9028	218.262	85.2787	218.262	85.0075	218.262	85.5065	218.262	85.1666	218.262	85.728	218.262	85.3632	218.262	85.9115	218.262	85.5745	218.262	86.0332	218.262	85.775	218.262	86.0791	218.262	85.9392	218.262	86.0456
225.586	86.227	225.586	86.2288	225.586	86.1776	225.586	86.1814	225.586	86.0846	225.586	86.0863	225.586	85.9539	225.586	85.9491	225.586	85.7938	225.586	85.7796	225.586	85.6147	225.586	85.5919	225.586	85.4293	225.586	85.4033	225.586	85.2529	225.586	85.2328	225.586	85.1019	225.586	85.098	225.586	84.992	225.586	85.0133	225.586	84.9353	225.586	84.9864	225.586	84.9373	225.586	85.0171	225.586	84.995	225.586	85.0966	225.586	85.0965	225.586	85.2084	225.586	85.2227	225.586	85.331	225.586	85.3513	225.586	85.4416	225.586	85.4601	225.586	85.5198	225.586	85.5306	225.586	85.5515
232.91	86.502	232.91	86.4796	232.91	86.4665	232.91	86.4022	232.91	86.3721	232.91	86.2741	232.91	86.2195	232.91	86.102	232.91	86.0119	232.91	85.8948	232.91	85.7549	232.91	85.6643	232.91	85.4573	232.91	85.425	232.91	85.1317	232.91	85.1941	232.91	84.7951	232.91	84.9895	232.91	84.4697	232.91	84.8272	232.91	84.1822	232.91	84.7181	232.91	83.9614	232.91	84.6639	232.91	83.8318	232.91	84.6554	232.91	83.8058	232.91	84.6733	232.91	83.8774	232.91	84.6924	232.91	84.0221	232.91	84.6873	232.91	84.204	232.91	84.6384	232.91	84.3857	232.91	84.5365
241.699	86.2072	241.699	86.181	241.699	86.1793	241.699	86.1039	241.699	86.0971	241.699	85.9816	241.699	85.9631	241.699	85.8216	241.699	85.7828	241.699	85.6324	241.699	85.5636	241.699	85.4227	241.699	85.3147	241.699	85.2013	241.699	85.0462	241.699	84.9774	241.699	84.7698	241.699	84.7616	241.699	84.4989	241.699	84.5659	241.699	84.25	241.699	84.4036	241.699	84.0418	241.699	84.2858	241.699	83.893	241.699	84.2171	241.699	83.817	241.699	84.1921	241.699	83.8152	241.699	84.1944	241.699	83.8743	241.699	84.201	241.699	83.9683	241.699	84.1895	241.699	84.0671	241.699	84.1453
250.488	86.2512	250.488	86.2195	250.488	86.2169	250.488	86.1228	250.488	86.1186	250.488	85.9645	250.488	85.9605	250.488	85.7508	250.488	85.7493	250.488	85.4905	250.488	85.4937	250.488	85.1954	250.488	85.2045	250.488	84.8803	250.488	84.8943	250.488	84.5633	250.488	84.5775	250.488	84.2655	250.488	84.271	250.488	84.0094	250.488	83.9934	250.488	83.8151	250.488	83.7646	250.488	83.6952	250.488	83.6026	250.488	83.6498	250.488	83.5179	250.488	83.664	250.488	83.509	250.488	83.7114	250.488	83.559	250.488	83.7616	250.488	83.6401	250.488	83.7879	250.488	83.7207	250.488	83.7747
259.277	86.3059	259.277	86.2824	259.277	86.275	259.277	86.2065	259.277	86.1895	259.277	86.0816	259.277	86.0512	259.277	85.9118	259.277	85.8637	259.277	85.7016	259.277	85.632	259.277	85.4558	259.277	85.3628	259.277	85.1806	259.277	85.0648	259.277	84.8856	259.277	84.7495	259.277	84.5866	259.277	84.4333	259.277	84.3062	259.277	84.1381	259.277	84.0723	259.277	83.8901	259.277	83.9104	259.277	83.7155	259.277	83.8341	259.277	83.6316	259.277	83.836	259.277	83.6381	259.277	83.8886	259.277	83.7137	259.277	83.9533	259.277	83.8219	259.277	83.9934	259.277	83.9229	259.277	83.985
268.066	85.9493	268.066	85.8507	268.066	85.983	268.066	85.6957	268.066	85.9467	268.066	85.4953	268.066	85.8384	268.066	85.2623	268.066	85.6595	268.066	85.0102	268.066	85.4146	268.066	84.7517	268.066	85.1119	268.066	84.4979	268.066	84.7632	268.066	84.2582	268.066	84.3849	268.066	84.0411	268.066	83.9991	268.066	83.8556	268.066	83.6337	268.066	83.711	268.066	83.3218	268.066	83.6143	268.066	83.0959	268.066	83.5658	268.066	82.9788	268.066	83.5555	268.066	82.973	268.066	83.5631	268.066	83.0572	268.066	83.5631	268.066	83.1929	268.066	83.5323	268.066	83.3374	268.066	83.4567
276.855	86.0522	276.855	86.033	276.855	86.0178	276.855	85.9494	276.855	85.9392	276.855	85.7911	276.855	85.8217	276.855	85.5517	276.855	85.6664	276.855	85.2301	276.855	85.4708	276.855	84.8339	276.855	85.2315	276.855	84.3806	276.855	84.9475	276.855	83.9008	276.855	84.6248	276.855	83.4391	276.855	84.2793	276.855	83.0516	276.855	83.9387	276.855	82.7946	276.855	83.6398	276.855	82.704	276.855	83.4209	276.855	82.7758	276.855	83.3085	276.855	82.9647	276.855	83.3049	276.855	83.2016	276.855	83.3835	276.855	83.4189	276.855	83.4969	276.855	83.5677	276.855	83.5921	276.855	83.6245
287.109	85.8207	287.109	85.841	287.109	85.7536	287.109	85.8136	287.109	85.6401	287.109	85.736	287.109	85.4811	287.109	85.6037	287.109	85.2789	287.109	85.4111	287.109	85.0355	287.109	85.1533	287.109	84.7516	287.109	84.8297	287.109	84.4263	287.109	84.4484	287.109	84.0606	287.109	84.0309	287.109	83.6633	287.109	83.6165	287.109	83.2588	287.109	83.2607	287.109	82.891	287.109	83.0213	287.109	82.6167	287.109	82.9315	287.109	82.4856	287.109	82.977	287.109	82.5132	287.109	83.0985	287.109	82.6687	287.109	83.2197	287.109	82.887	287.109	83.277	287.109	83.0954	287.109	83.2358
297.363	86.0991	297.363	85.9605	297.363	86.1449	297.363	85.7529	297.363	86.0781	297.363	85.5022	297.363	85.8855	297.363	85.2337	297.363	85.5643	297.363	84.9697	297.363	85.1255	297.363	84.7245	297.363	84.5956	297.363	84.5012	297.363	84.0158	297.363	84.2919	297.363	83.4366	297.363	84.0836	297.363	82.9101	297.363	83.8679	297.363	82.4827	297.363	83.6499	297.363	82.1909	297.363	83.4507	297.363	82.0575	297.363	83.2995	297.363	82.0854	297.363	83.2168	297.363	82.25	297.363	83.1985	297.363	82.499	297.363	83.2116	297.363	82.7666	297.363	83.2076	297.363	82.9933	297.363	83.1425
307.617	85.9524	307.617	85.9231	307.617	85.9457	307.617	85.8364	307.617	85.9152	307.617	85.6679	307.617	85.8601	307.617	85.3972	307.617	85.7663	307.617	85.0138	307.617	85.6108	307.617	84.5237	307.617	85.3689	307.617	83.956	307.617	85.0218	307.617	83.3683	307.617	84.5645	307.617	82.8429	307.617	84.0141	307.617	82.4671	307.617	83.4186	307.617	82.2966	307.617	82.8596	307.617	82.3277	307.617	82.4382	307.617	82.5024	307.617	82.2339	307.617	82.7395	307.617	82.2592	307.617	82.9646	307.617	82.4522	307.617	83.123	307.617	82.7152	307.617	83.1811	307.617	82.9593	307.617	83.1246
319.336	85.5428	319.336	85.5377	319.336	85.5007	319.336	85.4778	319.336	85.4179	319.336	85.3538	319.336	85.3006	319.336	85.1528	319.336	85.1523	319.336	84.8587	319.336	84.9704	319.336	84.4542	319.336	84.7439	319.336	83.9275	319.336	84.4549	319.336	83.2844	319.336	84.0859	319.336	82.5685	319.336	83.6312	319.336	81.8827	319.336	83.1116	319.336	81.3862	319.336	82.5878	319.336	81.2215	319.336	82.1586	319.336	81.4029	319.336	81.9275	319.336	81.8006	319.336	81.9396	319.336	82.2423	319.336	82.1454	319.336	82.5986	319.336	82.433	319.336	82.8004	319.336	82.6875	319.336	82.8256
329.59	85.2311	329.59	85.2335	329.59	85.1875	329.59	85.1996	329.59	85.0968	329.59	85.129	329.59	84.9559	329.59	85.0114	329.59	84.7653	329.59	84.8249	329.59	84.5267	329.59	84.5396	329.59	84.2391	329.59	84.1239	329.59	83.8958	329.59	83.5564	329.59	83.4855	329.59	82.8422	329.59	82.9995	329.59	82.0359	329.59	82.446	329.59	81.2684	329.59	81.8672	329.59	80.7392	329.59	81.3523	329.59	80.6148	329.59	81.0215	329.59	80.8783	329.59	80.965	329.59	81.3336	329.59	81.1695	329.59	81.7596	329.59	81.5153	329.59	82.0127	329.59	81.8468	329.59	82.0371
341.309	85.1997	341.309	85.15	341.309	85.1652	341.309	85.0264	341.309	85.0409	341.309	84.8427	341.309	84.8276	341.309	84.6113	341.309	84.5318	341.309	84.3397	341.309	84.1651	341.309	84.0261	341.309	83.7441	341.309	83.6606	341.309	83.2892	341.309	83.2312	341.309	82.8249	341.309	82.736	341.309	82.3798	341.309	82.2005	341.309	81.9875	341.309	81.6931	341.309	81.6865	341.309	81.3234	341.309	81.514	341.309	81.1962	341.309	81.4922	341.309	81.3325	341.309	81.6123	341.309	81.6404	341.309	81.8283	341.309	81.9759	341.309	82.0676	341.309	82.2208	341.309	82.2514	341.309	82.3146
353.027	85.4162	353.027	85.3563	353.027	85.4071	353.027	85.2294	353.027	85.3269	353.027	85.0379	353.027	85.1712	353.027	84.7844	353.027	84.9319	353.027	84.4701	353.027	84.5968	353.027	84.0935	353.027	84.1501	353.027	83.651	353.027	83.5754	353.027	83.1414	353.027	82.8634	353.027	82.5755	353.027	82.0264	353.027	81.9908	353.027	81.1247	353.027	81.4634	353.027	80.2986	353.027	81.0996	353.027	79.7632	353.027	80.9856	353.027	79.6912	353.027	81.1201	353.027	80.0503	353.027	81.4025	353.027	80.6285	353.027	81.692	353.027	81.2038	353.027	81.8697	353.027	81.636	353.027	81.8614
366.211	85.4606	366.211	85.3321	366.211	85.5089	366.211	85.1266	366.211	85.4775	366.211	84.8508	366.211	85.3696	366.211	84.5123	366.211	85.1883	366.211	84.1155	366.211	84.9339	366.211	83.6582	366.211	84.6007	366.211	83.1331	366.211	84.1758	366.211	82.5364	366.211	83.6421	366.211	81.886	366.211	82.9857	366.211	81.2443	366.211	82.2126	366.211	80.7276	366.211	81.3747	366.211	80.4681	366.211	80.5996	366.211	80.5236	366.211	80.0854	366.211	80.8185	366.211	79.9924	366.211	81.1954	366.211	80.2925	366.211	81.5032	366.211	80.7845	366.211	81.6403	366.211	81.252	366.211	81.5567
379.395	85.5818	379.395	85.5475	379.395	85.5553	379.395	85.4393	379.395	85.4803	379.395	85.2453	379.395	85.3649	379.395	84.9548	379.395	85.2087	379.395	84.5577	379.395	85.0003	379.395	84.0446	379.395	84.7184	379.395	83.4092	379.395	84.3366	379.395	82.6571	379.395	83.8327	379.395	81.8231	379.395	83.2002	379.395	80.9989	379.395	82.4666	379.395	80.3519	379.395	81.7141	379.395	80.0781	379.395	81.0897	379.395	80.2562	379.395	80.7624	379.395	80.7575	379.395	80.8107	379.395	81.35	379.395	81.1484	379.395	81.8422	379.395	81.5912	379.395	82.1269	379.395	81.9676	379.395	82.1651
392.578	85.0625	392.578	85.0584	392.578	85.008	392.578	84.9957	392.578	84.8976	392.578	84.8733	392.578	84.7375	392.578	84.6859	392.578	84.5353	392.578	84.4206	392.578	84.295	392.578	84.0566	392.578	84.0111	392.578	83.5686	392.578	83.6656	392.578	82.9348	392.578	83.2328	392.578	82.1517	392.578	82.6921	392.578	81.261	392.578	82.0487	392.578	80.3883	392.578	81.3606	392.578	79.7619	392.578	80.7615	392.578	79.6108	392.578	80.4324	392.578	79.9519	392.578	80.4818	392.578	80.5567	392.578	80.8313	392.578	81.1552	392.578	81.2735	392.578	81.572	392.578	81.6124	392.578	81.7281
405.762	85.177	405.762	85.0386	405.762	85.2137	405.762	84.8187	405.762	85.1345	405.762	84.5391	405.762	84.9329	405.762	84.2163	405.762	84.6108	405.762	83.8536	405.762	84.1788	405.762	83.4364	405.762	83.654	405.762	82.9362	405.762	83.0581	405.762	82.325	405.762	82.4156	405.762	81.6009	405.762	81.7566	405.762	80.8236	405.762	81.1258	405.762	80.1452	405.762	80.5947	405.762	79.7796	405.762	80.2572	405.762	79.8516	405.762	80.1876	405.762	80.2658	405.762	80.3802	405.762	80.7957	405.762	80.7381	405.762	81.2481	405.762	81.1274	405.762	81.52	405.762	81.4331	405.762	81.5782
420.41	85.1892	420.41	85.1544	420.41	85.151	420.41	85.0423	420.41	85.0487	420.41	84.8531	420.41	84.8922	420.41	84.5884	420.41	84.6863	420.41	84.2439	420.41	84.4239	420.41	83.8036	420.41	84.0814	420.41	83.2372	420.41	83.6183	420.41	82.5072	420.41	82.983	420.41	81.5895	420.41	82.1274	420.41	80.5194	420.41	81.0369	420.41	79.4683	420.41	79.7915	420.41	78.7904	420.41	78.6636	420.41	78.8062	420.41	78.1143	420.41	79.4134	420.41	78.3957	420.41	80.2024	420.41	79.2136	420.41	80.8451	420.41	80.1076	420.41	81.186	420.41	80.7991	420.41	81.1715
435.059	84.9271	435.059	84.8969	435.059	84.8782	435.059	84.7775	435.059	84.7643	435.059	84.5652	435.059	84.597	435.059	84.2616	435.059	84.3799	435.059	83.8673	435.059	84.1048	435.059	83.3744	435.059	83.7521	435.059	82.7626	435.059	83.2944	435.059	82.0065	435.059	82.7043	435.059	81.0956	435.059	81.9658	435.059	80.0758	435.059	81.0944	435.059	79.1137	435.059	80.1724	435.059	78.536	435.059	79.3912	435.059	78.6455	435.059	79.0294	435.059	79.3611	435.059	79.2518	435.059	80.283	435.059	79.9114	435.059	81.0622	435.059	80.6817	435.059	81.52	435.059	81.2934	435.059	81.5949
451.172	85.5643	451.172	85.4846	451.172	85.5311	451.172	85.3057	451.172	85.3893	451.172	85.0518	451.172	85.1616	451.172	84.7468	451.172	84.881	451.172	84.4015	451.172	84.5736	451.172	84.0033	451.172	84.2407	451.172	83.5129	451.172	83.8508	451.172	82.8696	451.172	83.3449	451.172	82.009	451.172	82.6539	451.172	80.8979	451.172	81.7249	451.172	79.6071	451.172	80.5717	451.172	78.4336	451.172	79.3688	451.172	77.8989	451.172	78.5289	451.172	78.2403	451.172	78.4532	451.172	79.0582	451.172	79.0193	451.172	79.8504	451.172	79.7484	451.172	80.3624	451.172	80.2944	451.172	80.5131
465.82	85.2787	465.82	85.1781	465.82	85.2712	465.82	84.974	465.82	85.1641	465.82	84.6836	465.82	84.9753	465.82	84.3304	465.82	84.7248	465.82	83.9335	465.82	84.4262	465.82	83.4938	465.82	84.0777	465.82	82.9836	465.82	83.6563	465.82	82.349	465.82	83.1184	465.82	81.5305	465.82	82.4124	465.82	80.5068	465.82	81.5025	465.82	79.37	465.82	80.4123	465.82	78.4266	465.82	79.2992	465.82	78.1306	465.82	78.5132	465.82	78.6066	465.82	78.415	465.82	79.4509	465.82	78.9575	465.82	80.2121	465.82	79.7319	465.82	80.6573	465.82	80.378	465.82	80.7107
483.398	84.8998	483.398	84.8025	483.398	84.9394	483.398	84.6708	483.398	84.9026	483.398	84.523	483.398	84.781	483.398	84.3625	483.398	84.5766	483.398	84.1698	483.398	84.2954	483.398	83.9021	483.398	83.9371	483.398	83.4976	483.398	83.4839	483.398	82.8864	483.398	82.897	483.398	82.0063	483.398	82.1252	483.398	80.829	483.398	81.132	483.398	79.4228	483.398	79.9534	483.398	78.0903	483.398	78.8008	483.398	77.4447	483.398	78.1206	483.398	77.8619	483.398	78.2713	483.398	78.8897	483.398	79.0365	483.398	79.8914	483.398	79.9044	483.398	80.5481	483.398	80.53	483.398	80.7624
499.512	85.2175	499.512	85.0831	499.512	85.2183	499.512	84.8337	499.512	85.0886	499.512	84.5058	499.512	84.8518	499.512	84.1418	499.512	84.5441	499.512	83.7715	499.512	84.2014	499.512	83.3915	499.512	83.8411	499.512	82.9587	499.512	83.4472	499.512	82.4026	499.512	82.9661	499.512	81.6482	499.512	82.318	499.512	80.6486	499.512	81.4231	499.512	79.4506	499.512	80.2533	499.512	78.328	499.512	78.9406	499.512	77.8284	499.512	77.9331	499.512	78.2552	499.512	77.8208	499.512	79.1889	499.512	78.567	499.512	80.0625	499.512	79.5518	499.512	80.5889	499.512	80.315	499.512	80.6767
517.09	85.1237	517.09	85.052	517.09	85.0549	517.09	84.8251	517.09	84.8773	517.09	84.4544	517.09	84.6306	517.09	83.981	517.09	84.3518	517.09	83.4685	517.09	84.0668	517.09	82.9753	517.09	83.7811	517.09	82.5134	517.09	83.4729	517.09	82.0258	517.09	83.0924	517.09	81.4088	517.09	82.5705	517.09	80.5714	517.09	81.838	517.09	79.5198	517.09	80.8567	517.09	78.4867	517.09	79.6882	517.09	77.9895	517.09	78.6207	517.09	78.3773	517.09	78.1832	517.09	79.2973	517.09	78.6234	517.09	80.1734	517.09	79.5128	517.09	80.6866	517.09	80.3089	517.09	80.7318
536.133	85.3015	536.133	85.1686	536.133	85.298	536.133	84.9278	536.133	85.1359	536.133	84.6063	536.133	84.8092	536.133	84.2257	536.133	84.338	536.133	83.7981	536.133	83.7697	536.133	83.3211	536.133	83.1626	536.133	82.7712	536.133	82.552	536.133	82.0998	536.133	81.9219	536.133	81.2369	536.133	81.2098	536.133	80.113	536.133	80.3565	536.133	78.7294	536.133	79.3863	536.133	77.3453	536.133	78.5019	536.133	76.6973	536.133	78.0756	536.133	77.3388	536.133	78.3368	536.133	78.6562	536.133	79.0782	536.133	79.8376	536.133	79.9023	536.133	80.5582	536.133	80.5199	536.133	80.7698
555.176	85.8992	555.176	85.839	555.176	85.8909	555.176	85.6897	555.176	85.8238	555.176	85.4296	555.176	85.6913	555.176	85.0449	555.176	85.4741	555.176	84.5337	555.176	85.1489	555.176	83.9034	555.176	84.6961	555.176	83.1631	555.176	84.098	555.176	82.3146	555.176	83.3284	555.176	81.3468	555.176	82.3431	555.176	80.2461	555.176	81.0853	555.176	79.0379	555.176	79.5327	555.176	77.8821	555.176	77.8455	555.176	77.1599	555.176	76.6343	555.176	77.2455	555.176	76.6815	555.176	77.9988	555.176	77.7175	555.176	78.9086	555.176	78.8472	555.176	79.5841	555.176	79.5953	555.176	79.8384
574.219	86.1167	574.219	85.9321	574.219	86.121	574.219	85.6067	574.219	85.9436	574.219	85.2073	574.219	85.6185	574.219	84.8014	574.219	85.2012	574.219	84.4235	574.219	84.7465	574.219	84.0492	574.219	84.2856	574.219	83.5937	574.219	83.81	574.219	82.9323	574.219	83.2686	574.219	81.9313	574.219	82.5781	574.219	80.4844	574.219	81.6468	574.219	78.6125	574.219	80.4186	574.219	76.8157	574.219	78.9766	574.219	76.4139	574.219	77.7683	574.219	77.7393	574.219	77.5937	574.219	79.4336	574.219	78.5634	574.219	80.6928	574.219	79.865	574.219	81.3478	574.219	80.8842	574.219	81.4009
594.727	85.5914	594.727	85.5434	594.727	85.5305	594.727	85.388	594.727	85.3582	594.727	85.1205	594.727	85.0805	594.727	84.7362	594.727	84.7181	594.727	84.2449	594.727	84.3021	594.727	83.6822	594.727	83.8548	594.727	83.0992	594.727	83.3657	594.727	82.5211	594.727	82.7811	594.727	81.9041	594.727	82.0165	594.727	81.1362	594.727	80.9875	594.727	80.1066	594.727	79.6717	594.727	78.8748	594.727	78.2446	594.727	77.9672	594.727	77.2651	594.727	78.1833	594.727	77.3872	594.727	79.3226	594.727	78.4392	594.727	80.4703	594.727	79.6956	594.727	81.1308	594.727	80.6814	594.727	81.1915
615.234	86.0429	615.234	85.9438	615.234	85.9741	615.234	85.6823	615.234	85.7593	615.234	85.2944	615.234	85.4373	615.234	84.8352	615.234	85.048	615.234	84.3509	615.234	84.6163	615.234	83.8432	615.234	84.1412	615.234	83.2477	615.234	83.5876	615.234	82.4442	615.234	82.8853	615.234	81.295	615.234	81.9347	615.234	79.6986	615.234	80.6248	615.234	77.6774	615.234	78.8792	615.234	75.6275	615.234	76.8347	615.234	74.6608	615.234	75.3571	615.234	75.4594	615.234	75.7227	615.234	77.0058	615.234	77.256	615.234	78.3671	615.234	78.6328	615.234	79.2588	615.234	79.4291	615.234	79.6233
637.207	85.5984	637.207	85.4686	637.207	85.6088	637.207	85.2629	637.207	85.4687	637.207	85.0176	637.207	85.1796	637.207	84.7494	637.207	84.7859	637.207	84.4542	637.207	84.3629	637.207	84.108	637.207	83.9757	637.207	83.6667	637.207	83.6223	637.207	83.0593	637.207	83.2056	637.207	82.1795	637.207	82.5558	637.207	80.8785	637.207	81.4826	637.207	78.9733	637.207	79.8262	637.207	76.4099	637.207	77.5782	637.207	74.3065	637.207	75.4004	637.207	75.2868	637.207	75.1585	637.207	77.74	637.207	76.8892	637.207	79.5582	637.207	78.7422	637.207	80.4791	637.207	80.0131	637.207	80.6034
659.18	84.9862	659.18	84.854	659.18	84.9579	659.18	84.5703	659.18	84.7874	659.18	84.1815	659.18	84.5106	659.18	83.7669	659.18	84.1701	659.18	83.3978	659.18	83.8015	659.18	83.0802	659.18	83.4165	659.18	82.7409	659.18	82.9907	659.18	82.2611	659.18	82.4648	659.18	81.512	659.18	81.7501	659.18	80.3844	659.18	80.7305	659.18	78.8501	659.18	79.2749	659.18	77.1403	659.18	77.3441	659.18	76.0558	659.18	75.4343	659.18	76.4338	659.18	75.0482	659.18	77.7226	659.18	76.4557	659.18	78.9359	659.18	78.1068	659.18	79.6504	659.18	79.2484	659.18	79.7617
682.617	85.5778	682.617	85.4109	682.617	85.5275	682.617	85.0448	682.617	85.2567	682.617	84.5209	682.617	84.7895	682.617	83.9214	682.617	84.2026	682.617	83.3589	682.617	83.6274	682.617	82.9125	682.617	83.1861	682.617	82.5487	682.617	82.8789	682.617	82.1142	682.617	82.5457	682.617	81.4078	682.617	81.9511	682.617	80.2544	682.617	80.8806	682.617	78.566	682.617	79.1846	682.617	76.5574	682.617	76.8789	682.617	75.4162	682.617	74.7307	682.617	76.4553	682.617	74.8076	682.617	78.405	682.617	76.8443	682.617	79.9282	682.617	78.8348	682.617	80.7215	682.617	80.1643	682.617	80.7911
707.52	85.7004	707.52	85.5116	707.52	85.6372	707.52	85.0863	707.52	85.3542	707.52	84.4925	707.52	84.9162	707.52	83.8435	707.52	84.3941	707.52	83.2708	707.52	83.8437	707.52	82.8609	707.52	83.3059	707.52	82.5837	707.52	82.8067	707.52	82.2947	707.52	82.3236	707.52	81.8126	707.52	81.7494	707.52	80.9699	707.52	80.9044	707.52	79.5849	707.52	79.5567	707.52	77.4621	707.52	77.4397	707.52	74.8828	707.52	74.5726	707.52	74.2684	707.52	73.0957	707.52	76.4849	707.52	75.257	707.52	78.6102	707.52	77.8031	707.52	79.7746	707.52	79.3844	707.52	80.0183
732.422	85.9139	732.422	85.767	732.422	85.8551	732.422	85.4175	732.422	85.583	732.422	84.8737	732.422	85.1062	732.422	84.1835	732.422	84.4817	732.422	83.4521	732.422	83.8179	732.422	82.7943	732.422	83.2195	732.422	82.2315	732.422	82.7126	732.422	81.6387	732.422	82.2263	732.422	80.7954	732.422	81.6227	732.422	79.4862	732.422	80.7188	732.422	77.6306	732.422	79.2951	732.422	75.6444	732.422	77.136	732.422	75.0303	732.422	74.3985	732.422	76.5106	732.422	73.2494	732.422	78.507	732.422	75.4485	732.422	79.9974	732.422	78.0501	732.422	80.7394	732.422	79.8104	732.422	80.6872
757.324	86.5564	757.324	86.3367	757.324	86.5413	757.324	85.8802	757.324	86.2647	757.324	85.1967	757.324	85.6978	757.324	84.3869	757.324	84.8812	757.324	83.6699	757.324	83.9901	757.324	83.2456	757.324	83.3011	757.324	83.0591	757.324	82.965	757.324	82.7811	757.324	82.8167	757.324	82.0213	757.324	82.5138	757.324	80.448	757.324	81.7253	757.324	77.7068	757.324	80.1474	757.324	73.4171	757.324	77.4759	757.324	71.0857	757.324	73.7964	757.324	75.3065	757.324	72.4132	757.324	78.6738	757.324	75.2912	757.324	80.462	757.324	78.0443	757.324	81.1063	757.324	79.8558	757.324	80.8662
785.156	86.3864	785.156	86.1177	785.156	86.4344	785.156	85.6711	785.156	86.2006	785.156	85.0525	785.156	85.6557	785.156	84.2647	785.156	84.8538	785.156	83.3802	785.156	83.9613	785.156	82.5817	785.156	83.2171	785.156	82.052	785.156	82.7738	785.156	81.7632	785.156	82.5201	785.156	81.4465	785.156	82.1487	785.156	80.7168	785.156	81.3902	785.156	79.1421	785.156	80.0798	785.156	76.2859	785.156	78.0218	785.156	72.4789	785.156	75.0465	785.156	72.3897	785.156	73.0098	785.156	75.5433	785.156	75.3358	785.156	77.869	785.156	78.0765	785.156	79.23	785.156	79.5041	785.156	79.8016
811.523	87.1339	811.523	86.9257	811.523	87.07	811.523	86.4511	811.523	86.7204	811.523	85.7256	811.523	86.0843	811.523	84.8272	811.523	85.2178	811.523	83.9528	811.523	84.2817	811.523	83.3709	811.523	83.528	811.523	83.1616	811.523	83.1141	811.523	83.057	811.523	82.906	811.523	82.6664	811.523	82.5949	811.523	81.646	811.523	81.8781	811.523	79.608	811.523	80.4452	811.523	75.9807	811.523	77.9165	811.523	71.5389	811.523	74.1736	811.523	74.1965	811.523	72.8223	811.523	78.214	811.523	76.3096	811.523	80.5185	811.523	79.2908	811.523	81.6086	811.523	81.0289	811.523	81.7629
840.82	88.4124	840.82	88.2451	840.82	88.299	840.82	87.7421	840.82	87.9623	840.82	86.8897	840.82	87.4146	840.82	85.7421	840.82	86.6217	840.82	84.4714	840.82	85.5862	840.82	83.4204	840.82	84.4904	840.82	82.92	840.82	83.7415	840.82	82.8644	840.82	83.5838	840.82	82.7925	840.82	83.6577	840.82	82.2916	840.82	83.3585	840.82	80.9885	840.82	82.2283	840.82	78.2643	840.82	79.812	840.82	73.0646	840.82	75.257	840.82	71.7484	840.82	70.5207	840.82	77.4323	840.82	75.8317	840.82	80.5647	840.82	79.7111	840.82	81.9641	840.82	81.5877	840.82	82.2529
870.117	89.0919	870.117	88.858	870.117	89.1025	870.117	88.3777	870.117	88.8305	870.117	87.5592	870.117	88.187	870.117	86.3303	870.117	87.1313	870.117	84.7845	870.117	85.7466	870.117	83.3717	870.117	84.3252	870.117	82.7777	870.117	83.3754	870.117	83.0094	870.117	83.1777	870.117	83.2598	870.117	83.3283	870.117	82.8408	870.117	83.229	870.117	81.3648	870.117	82.482	870.117	78.4664	870.117	80.7315	870.117	73.9396	870.117	77.4811	870.117	73.2291	870.117	73.2459	870.117	77.7469	870.117	75.1048	870.117	80.779	870.117	79.1313	870.117	82.2479	870.117	81.4877	870.117	82.4631
900.879	89.123	900.879	88.9426	900.879	89.0413	900.879	88.496	900.879	88.6966	900.879	87.7625	900.879	88.083	900.879	86.7129	900.879	87.1831	900.879	85.3598	900.879	85.9922	900.879	83.8458	900.879	84.6108	900.879	82.545	900.879	83.4056	900.879	81.944	900.879	82.9039	900.879	82.0112	900.879	83.0199	900.879	82.0385	900.879	83.0079	900.879	81.2748	900.879	82.2357	900.879	79.0041	900.879	80.2236	900.879	73.7565	900.879	76.299	900.879	66.9828	900.879	71.2182	900.879	75.9975	900.879	74.7271	900.879	80.2481	900.879	78.9312	900.879	82.0049	900.879	81.2404	900.879	82.2345
933.105	89.0133	933.105	88.8353	933.105	88.9976	933.105	88.4484	933.105	88.7123	933.105	87.7414	933.105	88.0709	933.105	86.5829	933.105	87.047	933.105	84.9604	933.105	85.6956	933.105	83.2256	933.105	84.1768	933.105	82.2051	933.105	82.877	933.105	82.2452	933.105	82.3475	933.105	82.5927	933.105	82.5514	933.105	82.4942	933.105	82.7811	933.105	81.492	933.105	82.3761	933.105	79.0497	933.105	80.7406	933.105	74.118	933.105	76.9666	933.105	69.5276	933.105	69.806	933.105	75.7259	933.105	73.2174	933.105	79.5817	933.105	78.4429	933.105	81.3777	933.105	80.9118	933.105	81.7834
965.332	88.9668	965.332	88.7627	965.332	88.8989	965.332	88.3347	965.332	88.5216	965.332	87.6597	965.332	87.8617	965.332	86.6451	965.332	86.9623	965.332	85.2113	965.332	85.775	965.332	83.4134	965.332	84.156	965.332	81.6982	965.332	82.23	965.332	80.9215	965.332	81.0041	965.332	81.1322	965.332	81.2038	965.332	81.3941	965.332	81.712	965.332	80.9045	965.332	81.4469	965.332	78.9315	965.332	79.7564	965.332	74.281	965.332	75.7205	965.332	69.1685	965.332	69.1903	965.332	75.4912	965.332	74.0921	965.332	79.278	965.332	78.6072	965.332	80.9599	965.332	80.6998	965.332	81.3784
1,000.49	88.8202	1,000.49	88.7717	1,000.49	88.7182	1,000.49	88.4941	1,000.49	88.4415	1,000.49	87.8566	1,000.49	87.9016	1,000.49	86.7788	1,000.49	87.0145	1,000.49	85.2961	1,000.49	85.7378	1,000.49	83.5856	1,000.49	84.0967	1,000.49	82.1063	1,000.49	82.2928	1,000.49	81.4989	1,000.49	80.9453	1,000.49	81.5921	1,000.49	80.746	1,000.49	81.5435	1,000.49	81.1519	1,000.49	80.7668	1,000.49	80.9302	1,000.49	78.7347	1,000.49	79.2168	1,000.49	74.2917	1,000.49	75.0671	1,000.49	66.773	1,000.49	64.5434	1,000.49	74.4984	1,000.49	70.631	1,000.49	79.4475	1,000.49	77.6673	1,000.49	81.6634	1,000.49	80.8848	1,000.49	82.0959
1,035.64	88.4231	1,035.64	88.2376	1,035.64	88.4052	1,035.64	87.9275	1,035.64	88.1305	1,035.64	87.4845	1,035.64	87.6247	1,035.64	86.7881	1,035.64	86.9281	1,035.64	85.6939	1,035.64	85.9798	1,035.64	84.1469	1,035.64	84.5936	1,035.64	82.3804	1,035.64	82.7194	1,035.64	81.1428	1,035.64	81.0145	1,035.64	80.9628	1,035.64	80.5286	1,035.64	81.1384	1,035.64	80.8145	1,035.64	80.6277	1,035.64	80.7268	1,035.64	78.482	1,035.64	79.3888	1,035.64	72.9243	1,035.64	75.3849	1,035.64	64.6106	1,035.64	60.7728	1,035.64	74.9828	1,035.64	72.6531	1,035.64	79.0997	1,035.64	78.5175	1,035.64	80.8786	1,035.64	80.76	1,035.64	81.3818
1,072.27	87.6708	1,072.27	87.5456	1,072.27	87.6574	1,072.27	87.297	1,072.27	87.4675	1,072.27	86.8801	1,072.27	87.0803	1,072.27	86.1667	1,072.27	86.4616	1,072.27	84.9362	1,072.27	85.4825	1,072.27	82.9275	1,072.27	83.9309	1,072.27	80.316	1,072.27	81.7172	1,072.27	78.9938	1,072.27	79.5298	1,072.27	80.0337	1,072.27	79.4196	1,072.27	81.2014	1,072.27	81.0001	1,072.27	81.2543	1,072.27	81.808	1,072.27	79.5755	1,072.27	80.8751	1,072.27	74.8977	1,072.27	77.8556	1,072.27	54.6736	1,072.27	71.2188	1,072.27	73.5688	1,072.27	64.6373	1,072.27	79.291	1,072.27	76.2097	1,072.27	81.6074	1,072.27	80.4383	1,072.27	81.9654
1,108.89	88.1647	1,108.89	88.0005	1,108.89	88.1113	1,108.89	87.5695	1,108.89	87.8716	1,108.89	86.9396	1,108.89	87.4004	1,108.89	86.2049	1,108.89	86.6603	1,108.89	85.2322	1,108.89	85.6764	1,108.89	83.6637	1,108.89	84.4068	1,108.89	81.2975	1,108.89	82.505	1,108.89	78.8951	1,108.89	79.7421	1,108.89	78.7565	1,108.89	77.6378	1,108.89	80.2376	1,108.89	78.385	1,108.89	80.7608	1,108.89	79.9929	1,108.89	79.4323	1,108.89	80.4053	1,108.89	75.4124	1,108.89	78.4958	1,108.89	64.0362	1,108.89	72.1806	1,108.89	71.8389	1,108.89	61.9754	1,108.89	77.8766	1,108.89	75.7472	1,108.89	80.2758	1,108.89	79.6282	1,108.89	80.8184
1,148.44	88.1283	1,148.44	87.8953	1,148.44	88.1137	1,148.44	87.4156	1,148.44	87.8458	1,148.44	86.814	1,148.44	87.2624	1,148.44	86.1739	1,148.44	86.4404	1,148.44	85.2711	1,148.44	85.5906	1,148.44	83.71	1,148.44	84.6191	1,148.44	81.3017	1,148.44	82.9362	1,148.44	78.5831	1,148.44	80.08	1,148.44	77.9335	1,148.44	77.532	1,148.44	79.4042	1,148.44	78.3002	1,148.44	80.1605	1,148.44	79.7935	1,148.44	79.2033	1,148.44	79.9019	1,148.44	75.5418	1,148.44	78.0463	1,148.44	62.9226	1,148.44	72.9292	1,148.44	70.7946	1,148.44	51.3927	1,148.44	77.517	1,148.44	73.5707	1,148.44	80.0124	1,148.44	78.6225	1,148.44	80.364
1,189.45	88.0747	1,189.45	87.8394	1,189.45	87.9954	1,189.45	87.3217	1,189.45	87.6806	1,189.45	86.6699	1,189.45	87.2124	1,189.45	85.9112	1,189.45	86.6555	1,189.45	84.8471	1,189.45	85.9842	1,189.45	83.2709	1,189.45	84.9217	1,189.45	80.9995	1,189.45	83.0305	1,189.45	78.0277	1,189.45	80.1038	1,189.45	76.5195	1,189.45	77.1437	1,189.45	77.7962	1,189.45	77.2744	1,189.45	78.8548	1,189.45	78.8762	1,189.45	78.2265	1,189.45	79.2423	1,189.45	74.5029	1,189.45	77.8507	1,189.45	58.2343	1,189.45	73.194	1,189.45	72.1876	1,189.45	45.7576	1,189.45	78.0874	1,189.45	73.6442	1,189.45	79.9957	1,189.45	78.1847	1,189.45	79.871
1,230.47	88.2093	1,230.47	87.9076	1,230.47	88.1982	1,230.47	87.2242	1,230.47	87.9744	1,230.47	86.4206	1,230.47	87.5482	1,230.47	85.8823	1,230.47	86.9554	1,230.47	85.3634	1,230.47	86.2431	1,230.47	84.0994	1,230.47	85.312	1,230.47	81.5457	1,230.47	83.881	1,230.47	77.8895	1,230.47	81.5901	1,230.47	76.0346	1,230.47	78.84	1,230.47	78.2187	1,230.47	78.7073	1,230.47	79.84	1,230.47	80.4424	1,230.47	79.3511	1,230.47	81.0497	1,230.47	76.3882	1,230.47	79.7446	1,230.47	68.5379	1,230.47	75.3909	1,230.47	69.6642	1,230.47	59.0716	1,230.47	77.0992	1,230.47	73.7432	1,230.47	79.904	1,230.47	78.9453	1,230.47	80.4727
1,274.41	89.1925	1,274.41	88.6627	1,274.41	89.3017	1,274.41	88.0263	1,274.41	88.7328	1,274.41	87.1968	1,274.41	87.8359	1,274.41	86.2004	1,274.41	87.1455	1,274.41	85.4644	1,274.41	86.5824	1,274.41	84.8267	1,274.41	85.6956	1,274.41	83.2923	1,274.41	84.2741	1,274.41	79.9185	1,274.41	82.0066	1,274.41	75.1587	1,274.41	78.393	1,274.41	76.8641	1,274.41	76.6018	1,274.41	79.6782	1,274.41	79.5234	1,274.41	80.1941	1,274.41	81.2441	1,274.41	78.2979	1,274.41	80.5791	1,274.41	72.6827	1,274.41	76.8943	1,274.41	71.9799	1,274.41	68.1406	1,274.41	78.2819	1,274.41	74.4423	1,274.41	80.9479	1,274.41	79.3834	1,274.41	81.2214
1,319.82	90.3054	1,319.82	89.9677	1,319.82	90.1722	1,319.82	89.2094	1,319.82	89.6088	1,319.82	88.155	1,319.82	88.7169	1,319.82	87.0473	1,319.82	87.6237	1,319.82	86.1111	1,319.82	86.5708	1,319.82	85.2281	1,319.82	85.7696	1,319.82	84.0602	1,319.82	84.9399	1,319.82	82.1939	1,319.82	83.3269	1,319.82	78.7897	1,319.82	80.1121	1,319.82	75.8221	1,319.82	76.7234	1,319.82	79.161	1,319.82	79.0457	1,319.82	81.5179	1,319.82	81.7365	1,319.82	81.1397	1,319.82	81.674	1,319.82	77.5135	1,319.82	78.7537	1,319.82	70.4912	1,319.82	71.7698	1,319.82	75.992	1,319.82	68.9153	1,319.82	80.1014	1,319.82	78.1654	1,319.82	80.8225
1,366.7	90.3679	1,366.7	90.1388	1,366.7	90.2151	1,366.7	89.4393	1,366.7	89.7013	1,366.7	88.3517	1,366.7	88.783	1,366.7	87.0954	1,366.7	87.664	1,366.7	85.899	1,366.7	86.7307	1,366.7	84.8773	1,366.7	85.9423	1,366.7	83.7791	1,366.7	84.8513	1,366.7	82.0104	1,366.7	83.0492	1,366.7	79.1067	1,366.7	80.4587	1,366.7	77.205	1,366.7	77.9576	1,366.7	79.7645	1,366.7	78.8282	1,366.7	81.7989	1,366.7	80.6625	1,366.7	81.487	1,366.7	80.939	1,366.7	78.5034	1,366.7	78.8176	1,366.7	70.3581	1,366.7	71.1726	1,366.7	69.6807	1,366.7	65.8968	1,366.7	77.1231	1,366.7	75.6937	1,366.7	78.2812
1,413.57	90.4262	1,413.57	90.0101	1,413.57	90.2777	1,413.57	89.146	1,413.57	89.4488	1,413.57	87.8632	1,413.57	88.152	1,413.57	86.3215	1,413.57	86.7502	1,413.57	84.9118	1,413.57	85.3953	1,413.57	83.9313	1,413.57	84.1499	1,413.57	83.0763	1,413.57	83.1145	1,413.57	81.5864	1,413.57	81.9718	1,413.57	78.9286	1,413.57	79.4138	1,413.57	75.7673	1,413.57	75.0071	1,413.57	76.8588	1,413.57	76.1945	1,413.57	78.7734	1,413.57	79.668	1,413.57	78.5954	1,413.57	80.1916	1,413.57	76.0919	1,413.57	78.5416	1,413.57	67.4406	1,413.57	72.8762	1,413.57	68.0598	1,413.57	65.9235	1,413.57	75.9645	1,413.57	76.4485	1,413.57	77.97
1,463.38	89.3095	1,463.38	88.9813	1,463.38	89.1532	1,463.38	88.2306	1,463.38	88.5462	1,463.38	86.9235	1,463.38	87.5392	1,463.38	85.1221	1,463.38	85.8906	1,463.38	83.5433	1,463.38	83.7597	1,463.38	82.7888	1,463.38	82.0769	1,463.38	82.1593	1,463.38	81.0858	1,463.38	80.7129	1,463.38	79.9413	1,463.38	78.4497	1,463.38	78.0237	1,463.38	76.0959	1,463.38	74.44	1,463.38	74.5702	1,463.38	71.9909	1,463.38	75.364	1,463.38	75.6844	1,463.38	77.4457	1,463.38	77.7765	1,463.38	76.8123	1,463.38	76.5301	1,463.38	68.2058	1,463.38	70.5823	1,463.38	70.5615	1,463.38	66.4901	1,463.38	76.671	1,463.38	75.9194	1,463.38	77.783
1,516.11	88.3284	1,516.11	88.0852	1,516.11	88.1857	1,516.11	87.458	1,516.11	87.5739	1,516.11	86.318	1,516.11	86.4799	1,516.11	84.9034	1,516.11	84.8114	1,516.11	83.6193	1,516.11	82.66	1,516.11	82.4755	1,516.11	80.7896	1,516.11	81.4244	1,516.11	79.9082	1,516.11	80.2575	1,516.11	78.9897	1,516.11	78.1346	1,516.11	76.7691	1,516.11	75.5951	1,516.11	73.3342	1,516.11	75.4125	1,516.11	70.6073	1,516.11	76.7942	1,516.11	72.7513	1,516.11	77.1543	1,516.11	75.5843	1,516.11	74.787	1,516.11	74.77	1,516.11	68.1577	1,516.11	69.3974	1,516.11	70.2405	1,516.11	58.7882	1,516.11	75.2898	1,516.11	72.3609	1,516.11	75.9669
1,568.85	88.0131	1,568.85	87.9569	1,568.85	87.986	1,568.85	87.3562	1,568.85	87.4603	1,568.85	85.916	1,568.85	86.4841	1,568.85	84.574	1,568.85	85.2197	1,568.85	83.2473	1,568.85	83.5124	1,568.85	81.5051	1,568.85	81.8421	1,568.85	80.9202	1,568.85	80.3421	1,568.85	80.3437	1,568.85	79.1677	1,568.85	77.5757	1,568.85	77.9808	1,568.85	75.4563	1,568.85	75.0246	1,568.85	76.3105	1,568.85	73.2213	1,568.85	77.1447	1,568.85	75.4496	1,568.85	77.7174	1,568.85	76.563	1,568.85	75.1963	1,568.85	75.6778	1,568.85	65.3372	1,568.85	73.1141	1,568.85	68.9083	1,568.85	63.4849	1,568.85	71.4158	1,568.85	67.9911	1,568.85	72.5636
1,624.51	88.5057	1,624.51	88.1861	1,624.51	88.4146	1,624.51	87.7009	1,624.51	87.8723	1,624.51	86.7433	1,624.51	86.9981	1,624.51	84.875	1,624.51	85.4487	1,624.51	82.36	1,624.51	83.4387	1,624.51	80.49	1,624.51	81.7663	1,624.51	79.9228	1,624.51	80.4299	1,624.51	79.2289	1,624.51	79.6064	1,624.51	76.9437	1,624.51	78.6502	1,624.51	73.0228	1,624.51	75.9076	1,624.51	74.2757	1,624.51	72.4643	1,624.51	76.8948	1,624.51	73.5758	1,624.51	77.3077	1,624.51	75.666	1,624.51	73.913	1,624.51	75.2686	1,624.51	58.5211	1,624.51	69.6984	1,624.51	70.238	1,624.51	45.284	1,624.51	75.8417	1,624.51	70.6225	1,624.51	75.8065
1,681.64	89.0922	1,681.64	88.8036	1,681.64	89.3581	1,681.64	88.3774	1,681.64	88.8124	1,681.64	87.5049	1,681.64	87.51	1,681.64	86.1859	1,681.64	86.4793	1,681.64	84.1072	1,681.64	85.2254	1,681.64	81.5023	1,681.64	83.1695	1,681.64	80.3394	1,681.64	81.4411	1,681.64	80.0142	1,681.64	81.2905	1,681.64	78.2779	1,681.64	80.3975	1,681.64	74.7242	1,681.64	77.5433	1,681.64	74.4212	1,681.64	74.1097	1,681.64	77.4979	1,681.64	75.0342	1,681.64	78.2708	1,681.64	77.1328	1,681.64	77.1296	1,681.64	76.9794	1,681.64	71.1065	1,681.64	73.6155	1,681.64	66.146	1,681.64	60.9566	1,681.64	73.2356	1,681.64	71.8071	1,681.64	72.6209
1,741.7	88.7985	1,741.7	88.4003	1,741.7	88.6232	1,741.7	88.0232	1,741.7	87.6148	1,741.7	87.4579	1,741.7	86.6491	1,741.7	86.3059	1,741.7	85.8452	1,741.7	84.7206	1,741.7	84.5393	1,741.7	83.0165	1,741.7	82.9402	1,741.7	81.218	1,741.7	81.1496	1,741.7	80.079	1,741.7	80.003	1,741.7	79.68	1,741.7	79.3384	1,741.7	77.3918	1,741.7	77.2185	1,741.7	71.4483	1,741.7	73.3585	1,741.7	73.5586	1,741.7	70.64	1,741.7	76.0886	1,741.7	73.8361	1,741.7	75.0124	1,741.7	74.7149	1,741.7	70.8863	1,741.7	72.4147	1,741.7	56.3812	1,741.7	65.9742	1,741.7	74.5187	1,741.7	70.867	1,741.7	76.339
1,803.22	88.8036	1,803.22	88.6509	1,803.22	88.5531	1,803.22	87.8846	1,803.22	87.8118	1,803.22	86.8046	1,803.22	86.6587	1,803.22	85.4777	1,803.22	85.1502	1,803.22	83.8717	1,803.22	83.5658	1,803.22	82.3342	1,803.22	81.8739	1,803.22	80.6559	1,803.22	80.325	1,803.22	79.6062	1,803.22	79.633	1,803.22	78.4908	1,803.22	78.5816	1,803.22	76.2015	1,803.22	76.7662	1,803.22	73.1804	1,803.22	73.548	1,803.22	73.1952	1,803.22	71.073	1,803.22	75.6629	1,803.22	73.634	1,803.22	75.4482	1,803.22	75.8169	1,803.22	71.183	1,803.22	74.4743	1,803.22	62.8236	1,803.22	64.9338	1,803.22	70.3862	1,803.22	64.2905	1,803.22	70.8956
1,866.21	88.4507	1,866.21	88.1167	1,866.21	88.2671	1,866.21	87.3368	1,866.21	87.393	1,866.21	86.2108	1,866.21	86.4022	1,866.21	85.0397	1,866.21	85.0117	1,866.21	83.42	1,866.21	83.4333	1,866.21	81.2198	1,866.21	81.3415	1,866.21	79.7191	1,866.21	78.6863	1,866.21	79.2211	1,866.21	78.1011	1,866.21	78.5436	1,866.21	77.5614	1,866.21	76.847	1,866.21	76.1009	1,866.21	74.3643	1,866.21	73.1299	1,866.21	73.2186	1,866.21	71.2931	1,866.21	74.7733	1,866.21	72.8965	1,866.21	74.1297	1,866.21	73.2505	1,866.21	68.9508	1,866.21	72.8404	1,866.21	64.6872	1,866.21	62.8909	1,866.21	71.6552	1,866.21	68.8212	1,866.21	72.8162
1,932.13	88.1546	1,932.13	87.8552	1,932.13	88.0105	1,932.13	86.9093	1,932.13	87.497	1,932.13	85.6442	1,932.13	86.3202	1,932.13	84.0656	1,932.13	85.0128	1,932.13	82.4558	1,932.13	83.5462	1,932.13	80.4289	1,932.13	81.7879	1,932.13	78.2533	1,932.13	79.7176	1,932.13	77.8039	1,932.13	77.5247	1,932.13	78.0257	1,932.13	77.6481	1,932.13	75.9937	1,932.13	77.1546	1,932.13	73.4312	1,932.13	73.8213	1,932.13	74.0073	1,932.13	70.5405	1,932.13	75.0544	1,932.13	72.5693	1,932.13	74.0073	1,932.13	74.4901	1,932.13	67.6858	1,932.13	73.0245	1,932.13	64.052	1,932.13	62.7162	1,932.13	73.0784	1,932.13	65.1121	1,932.13	73.2226
1,999.51	88.4086	1,999.51	87.666	1,999.51	88.4962	1,999.51	86.6374	1,999.51	87.7029	1,999.51	85.271	1,999.51	86.4779	1,999.51	83.9752	1,999.51	84.9822	1,999.51	82.5846	1,999.51	83.5554	1,999.51	80.4192	1,999.51	82.2606	1,999.51	78.2183	1,999.51	80.3387	1,999.51	76.2962	1,999.51	78.5628	1,999.51	76.2241	1,999.51	77.695	1,999.51	76.0329	1,999.51	77.4322	1,999.51	73.6311	1,999.51	75.511	1,999.51	73.6629	1,999.51	72.1276	1,999.51	75.5551	1,999.51	74.1256	1,999.51	75.0936	1,999.51	75.6217	1,999.51	70.2657	1,999.51	75.155	1,999.51	60.0088	1,999.51	67.7065	1,999.51	72.7107	1,999.51	65.5494	1,999.51	72.8716
2,069.82	88.6714	2,069.82	88.1874	2,069.82	88.5034	2,069.82	87.1328	2,069.82	87.8029	2,069.82	85.7599	2,069.82	86.6423	2,069.82	83.9015	2,069.82	85.2663	2,069.82	82.1073	2,069.82	83.5327	2,069.82	80.8549	2,069.82	82.2029	2,069.82	78.9556	2,069.82	81.3192	2,069.82	76.2138	2,069.82	79.5655	2,069.82	75.4645	2,069.82	77.845	2,069.82	75.4171	2,069.82	76.7766	2,069.82	72.9917	2,069.82	75.726	2,069.82	69.6011	2,069.82	72.2253	2,069.82	74.4842	2,069.82	72.8214	2,069.82	76.379	2,069.82	76.3818	2,069.82	74.1054	2,069.82	76.6518	2,069.82	65.0168	2,069.82	72.3664	2,069.82	69.6613	2,069.82	60.6325	2,069.82	69.8697
2,143.07	88.1427	2,143.07	87.6372	2,143.07	87.8981	2,143.07	86.7146	2,143.07	87.0092	2,143.07	85.3786	2,143.07	85.9448	2,143.07	83.9814	2,143.07	84.4001	2,143.07	82.339	2,143.07	82.9525	2,143.07	80.7989	2,143.07	81.3353	2,143.07	79.0951	2,143.07	80.0242	2,143.07	77.7363	2,143.07	78.9586	2,143.07	75.9302	2,143.07	77.825	2,143.07	75.0228	2,143.07	76.3235	2,143.07	74.1251	2,143.07	75.5752	2,143.07	69.2448	2,143.07	73.1394	2,143.07	70.7577	2,143.07	71.328	2,143.07	75.9962	2,143.07	75.6887	2,143.07	76.236	2,143.07	76.795	2,143.07	70.546	2,143.07	73.43	2,143.07	41.9674	2,143.07	61.7711	2,143.07	56.0261
2,219.24	86.8238	2,219.24	86.3023	2,219.24	86.5013	2,219.24	85.3328	2,219.24	85.6855	2,219.24	84.3166	2,219.24	84.2775	2,219.24	82.9177	2,219.24	83.138	2,219.24	81.8949	2,219.24	81.5881	2,219.24	80.2384	2,219.24	80.1566	2,219.24	78.7832	2,219.24	78.6454	2,219.24	78.2659	2,219.24	77.5716	2,219.24	77.2175	2,219.24	76.3112	2,219.24	75.6631	2,219.24	74.5434	2,219.24	74.4273	2,219.24	74.5584	2,219.24	71.9157	2,219.24	72.3061	2,219.24	69.1285	2,219.24	68.971	2,219.24	74.3222	2,219.24	73.2764	2,219.24	74.9409	2,219.24	75.7788	2,219.24	69.276	2,219.24	74.4485	2,219.24	54.9826	2,219.24	65.1446	2,219.24	48.8364
2,296.88	85.571	2,296.88	84.918	2,296.88	85.5544	2,296.88	83.8932	2,296.88	84.7294	2,296.88	82.967	2,296.88	83.6902	2,296.88	82.2136	2,296.88	82.6861	2,296.88	81.5311	2,296.88	81.7438	2,296.88	80.6495	2,296.88	80.3721	2,296.88	79.1982	2,296.88	78.9106	2,296.88	77.7377	2,296.88	77.0759	2,296.88	76.5826	2,296.88	76.6642	2,296.88	75.2009	2,296.88	75.7259	2,296.88	75.8649	2,296.88	73.5574	2,296.88	74.5248	2,296.88	74.3224	2,296.88	69.7018	2,296.88	70.1896	2,296.88	73.9264	2,296.88	68.6641	2,296.88	75.0141	2,296.88	75.0092	2,296.88	70.9061	2,296.88	74.9206	2,296.88	68.133	2,296.88	69.1832	2,296.88	66.6894
2,378.91	85.6648	2,378.91	85.1101	2,378.91	85.4479	2,378.91	84.6102	2,378.91	85.1773	2,378.91	83.7743	2,378.91	84.6355	2,378.91	82.9115	2,378.91	84.107	2,378.91	82.1738	2,378.91	83.3937	2,378.91	81.1128	2,378.91	82.5689	2,378.91	79.0996	2,378.91	81.4906	2,378.91	76.4182	2,378.91	78.7526	2,378.91	75.0058	2,378.91	77.0445	2,378.91	72.6322	2,378.91	77.1611	2,378.91	73.9457	2,378.91	75.3987	2,378.91	75.2666	2,378.91	75.3011	2,378.91	68.9851	2,378.91	74.2598	2,378.91	72.4612	2,378.91	70.6905	2,378.91	76.0189	2,378.91	74.8926	2,378.91	72.1787	2,378.91	75.6299	2,378.91	67.134	2,378.91	72.0178	2,378.91	68.5567
2,462.4	86.2764	2,462.4	86.2273	2,462.4	86.2389	2,462.4	86.2168	2,462.4	86.1589	2,462.4	85.7118	2,462.4	86.1212	2,462.4	84.8775	2,462.4	85.6017	2,462.4	83.6747	2,462.4	84.5783	2,462.4	82.9828	2,462.4	83.5522	2,462.4	81.3922	2,462.4	82.4988	2,462.4	78.7976	2,462.4	80.293	2,462.4	76.9281	2,462.4	78.5108	2,462.4	75.7026	2,462.4	77.8841	2,462.4	72.8036	2,462.4	75.6928	2,462.4	75.7009	2,462.4	76.1943	2,462.4	72.9547	2,462.4	76.3783	2,462.4	70.3716	2,462.4	71.6067	2,462.4	74.9442	2,462.4	75.233	2,462.4	72.4582	2,462.4	76.1806	2,462.4	69.4269	2,462.4	73.0078	2,462.4	70.4346
2,548.83	86.8071	2,548.83	86.8539	2,548.83	86.6345	2,548.83	86.5761	2,548.83	86.4862	2,548.83	86.1149	2,548.83	86.1137	2,548.83	85.4602	2,548.83	85.614	2,548.83	84.311	2,548.83	84.526	2,548.83	82.8512	2,548.83	82.8788	2,548.83	82.4618	2,548.83	81.7368	2,548.83	79.4914	2,548.83	79.9372	2,548.83	77.4141	2,548.83	76.8954	2,548.83	76.5711	2,548.83	75.8988	2,548.83	72.6089	2,548.83	75.1447	2,548.83	74.0217	2,548.83	73.6592	2,548.83	73.8951	2,548.83	75.2493	2,548.83	69.7725	2,548.83	71.7815	2,548.83	72.6695	2,548.83	73.9829	2,548.83	71.1352	2,548.83	73.4868	2,548.83	71.1397	2,548.83	70.252	2,548.83	71.5323
2,639.65	86.5092	2,639.65	86.2627	2,639.65	86.0634	2,639.65	85.8807	2,639.65	85.9464	2,639.65	85.2734	2,639.65	85.1598	2,639.65	83.9538	2,639.65	84.6608	2,639.65	82.7798	2,639.65	83.4405	2,639.65	81.0235	2,639.65	82.0139	2,639.65	79.971	2,639.65	80.2903	2,639.65	77.4687	2,639.65	78.5699	2,639.65	76.5046	2,639.65	75.5692	2,639.65	75.3806	2,639.65	74.2676	2,639.65	72.2357	2,639.65	74.1222	2,639.65	72.9666	2,639.65	71.8728	2,639.65	73.463	2,639.65	73.0142	2,639.65	71.2269	2,639.65	71.2447	2,639.65	73.9483	2,639.65	72.103	2,639.65	70.2503	2,639.65	72.4324	2,639.65	64.6224	2,639.65	68.5847	2,639.65	66.2528
2,731.93	85.8777	2,731.93	85.5809	2,731.93	85.6229	2,731.93	85.2744	2,731.93	85.4583	2,731.93	84.4376	2,731.93	84.9825	2,731.93	83.0228	2,731.93	84.6151	2,731.93	80.9485	2,731.93	83.1561	2,731.93	79.3789	2,731.93	81.769	2,731.93	77.7755	2,731.93	79.8522	2,731.93	75.9097	2,731.93	78.015	2,731.93	73.9109	2,731.93	76.183	2,731.93	73.0778	2,731.93	74.1459	2,731.93	70.8763	2,731.93	72.0338	2,731.93	71.1873	2,731.93	70.6026	2,731.93	71.684	2,731.93	71.7261	2,731.93	68.8374	2,731.93	70.6062	2,731.93	71.5035	2,731.93	70.7228	2,731.93	67.3471	2,731.93	72.8342	2,731.93	65.5564	2,731.93	68.3891	2,731.93	67.049
2,828.61	85.9374	2,828.61	85.7143	2,828.61	86.449	2,828.61	85.4252	2,828.61	85.9056	2,828.61	84.4111	2,828.61	85.7847	2,828.61	83.2661	2,828.61	84.7808	2,828.61	82.2302	2,828.61	83.6821	2,828.61	79.76	2,828.61	81.6635	2,828.61	76.5645	2,828.61	79.7543	2,828.61	76.4819	2,828.61	78.3169	2,828.61	72.6735	2,828.61	77.0648	2,828.61	73.0515	2,828.61	74.6578	2,828.61	70.3412	2,828.61	72.4701	2,828.61	69.6528	2,828.61	69.4084	2,828.61	71.9072	2,828.61	72.4529	2,828.61	67.4045	2,828.61	71.1354	2,828.61	71.018	2,828.61	69.789	2,828.61	69.8083	2,828.61	72.23	2,828.61	65.1934	2,828.61	69.2752	2,828.61	66.9547
2,928.22	86.5566	2,928.22	86.4679	2,928.22	86.8923	2,928.22	85.9731	2,928.22	86.5226	2,928.22	85.1737	2,928.22	86.2885	2,928.22	84.0938	2,928.22	85.072	2,928.22	82.8965	2,928.22	83.7414	2,928.22	80.3493	2,928.22	82.0393	2,928.22	78.2628	2,928.22	79.7989	2,928.22	77.1278	2,928.22	77.8705	2,928.22	73.8146	2,928.22	76.2101	2,928.22	72.4872	2,928.22	73.6084	2,928.22	71.4885	2,928.22	73.6958	2,928.22	69.2246	2,928.22	70.6518	2,928.22	71.8814	2,928.22	71.9622	2,928.22	69.0889	2,928.22	71.5211	2,928.22	70.6384	2,928.22	69.6355	2,928.22	69.7131	2,928.22	72.3781	2,928.22	66.1622	2,928.22	68.346	2,928.22	67.5435
3,030.76	86.5278	3,030.76	86.3564	3,030.76	86.7591	3,030.76	85.9997	3,030.76	86.6695	3,030.76	85.0869	3,030.76	86.2217	3,030.76	83.9212	3,030.76	85.3299	3,030.76	82.4386	3,030.76	83.7274	3,030.76	80.11	3,030.76	81.9347	3,030.76	78.3945	3,030.76	79.8502	3,030.76	76.1406	3,030.76	77.6332	3,030.76	73.9272	3,030.76	76.658	3,030.76	71.5624	3,030.76	73.4072	3,030.76	71.5448	3,030.76	73.6149	3,030.76	67.8337	3,030.76	71.3476	3,030.76	72.5519	3,030.76	71.3461	3,030.76	69.6976	3,030.76	72.37	3,030.76	71.8623	3,030.76	69.8013	3,030.76	71.4862	3,030.76	72.3353	3,030.76	66.8091	3,030.76	69.1822	3,030.76	67.1716
3,137.7	86.2375	3,137.7	86.2193	3,137.7	86.1562	3,137.7	85.9684	3,137.7	86.2832	3,137.7	85.0997	3,137.7	85.8037	3,137.7	83.8411	3,137.7	85.0127	3,137.7	81.813	3,137.7	83.2772	3,137.7	79.964	3,137.7	81.5597	3,137.7	77.9089	3,137.7	79.5694	3,137.7	75.8445	3,137.7	77.3033	3,137.7	74.0485	3,137.7	75.9878	3,137.7	71.6574	3,137.7	73.2375	3,137.7	71.7874	3,137.7	72.0491	3,137.7	68.3445	3,137.7	70.7898	3,137.7	71.4107	3,137.7	70.3338	3,137.7	69.3498	3,137.7	72.4418	3,137.7	70.9268	3,137.7	69.5377	3,137.7	70.7899	3,137.7	72.5164	3,137.7	65.1778	3,137.7	69.3021	3,137.7	66.4469
3,249.02	85.8233	3,249.02	85.6108	3,249.02	85.7635	3,249.02	85.2013	3,249.02	85.7854	3,249.02	84.4458	3,249.02	85.417	3,249.02	83.1206	3,249.02	84.8611	3,249.02	81.0974	3,249.02	83.1083	3,249.02	78.8858	3,249.02	81.0489	3,249.02	77.0289	3,249.02	78.7221	3,249.02	75.0208	3,249.02	76.5659	3,249.02	73.4572	3,249.02	74.8138	3,249.02	71.1327	3,249.02	72.878	3,249.02	71.1804	3,249.02	71.4715	3,249.02	68.3348	3,249.02	70.304	3,249.02	71.0628	3,249.02	69.3418	3,249.02	70.1782	3,249.02	72.1088	3,249.02	70.6521	3,249.02	70.6686	3,249.02	70.3201	3,249.02	72.5151	3,249.02	63.4116	3,249.02	68.6229	3,249.02	65.7046
3,363.28	85.6585	3,363.28	85.5182	3,363.28	85.4044	3,363.28	85.1751	3,363.28	85.35	3,363.28	84.5202	3,363.28	85.0368	3,363.28	83.5759	3,363.28	83.9956	3,363.28	81.0483	3,363.28	82.2754	3,363.28	79.2254	3,363.28	80.3159	3,363.28	77.0029	3,363.28	78.174	3,363.28	74.2781	3,363.28	75.9898	3,363.28	72.6121	3,363.28	73.8385	3,363.28	71.5937	3,363.28	71.7264	3,363.28	69.5221	3,363.28	70.122	3,363.28	67.6684	3,363.28	68.8577	3,363.28	69.5715	3,363.28	66.2997	3,363.28	69.8578	3,363.28	70.3035	3,363.28	70.1902	3,363.28	69.2124	3,363.28	70.0846	3,363.28	71.4398	3,363.28	65.4606	3,363.28	68.01	3,363.28	66.4036
3,481.93	85.7247	3,481.93	85.2731	3,481.93	85.8504	3,481.93	85.2554	3,481.93	85.1663	3,481.93	84.5752	3,481.93	84.6928	3,481.93	83.1218	3,481.93	83.7692	3,481.93	81.7019	3,481.93	82.6776	3,481.93	79.7923	3,481.93	80.6234	3,481.93	77.9646	3,481.93	78.3599	3,481.93	75.5052	3,481.93	75.9577	3,481.93	73.6154	3,481.93	74.2982	3,481.93	72.2946	3,481.93	72.2198	3,481.93	69.87	3,481.93	69.9268	3,481.93	67.9195	3,481.93	68.8853	3,481.93	68.2206	3,481.93	65.1044	3,481.93	68.9589	3,481.93	69.469	3,481.93	70.6959	3,481.93	69.1622	3,481.93	70.7212	3,481.93	72.1756	3,481.93	64.597	3,481.93	69.3739	3,481.93	65.4048
3,604.98	85.2942	3,604.98	85.3446	3,604.98	85.5765	3,604.98	85.3	3,604.98	85.7942	3,604.98	84.6905	3,604.98	85.7749	3,604.98	83.2372	3,604.98	84.9048	3,604.98	82.1997	3,604.98	83.4174	3,604.98	80.0074	3,604.98	81.5331	3,604.98	78.2384	3,604.98	79.252	3,604.98	75.8178	3,604.98	78.0438	3,604.98	74.1553	3,604.98	75.5275	3,604.98	73.0059	3,604.98	74.1548	3,604.98	71.0002	3,604.98	71.4183	3,604.98	69.114	3,604.98	71.0064	3,604.98	69.4057	3,604.98	68.2397	3,604.98	70.6911	3,604.98	71.057	3,604.98	70.5488	3,604.98	70.0255	3,604.98	72.3137	3,604.98	72.5141	3,604.98	64.508	3,604.98	70.4909	3,604.98	64.0224
3,732.42	85.471	3,732.42	85.8333	3,732.42	85.5144	3,732.42	85.84	3,732.42	86.1208	3,732.42	85.6534	3,732.42	86.0379	3,732.42	84.4771	3,732.42	85.3413	3,732.42	82.9457	3,732.42	83.509	3,732.42	81.0327	3,732.42	81.6168	3,732.42	78.4498	3,732.42	79.5603	3,732.42	76.2367	3,732.42	77.759	3,732.42	74.0852	3,732.42	75.425	3,732.42	71.4873	3,732.42	73.3696	3,732.42	71.416	3,732.42	71.7708	3,732.42	69.3615	3,732.42	70.4119	3,732.42	67.704	3,732.42	67.4106	3,732.42	69.9481	3,732.42	68.9828	3,732.42	70.1218	3,732.42	69.1021	3,732.42	71.4813	3,732.42	72.1593	3,732.42	64.5694	3,732.42	69.231	3,732.42	62.29
3,864.26	84.7352	3,864.26	85.4242	3,864.26	84.7015	3,864.26	85.6228	3,864.26	84.9481	3,864.26	85.3517	3,864.26	85.0211	3,864.26	84.1833	3,864.26	83.8775	3,864.26	82.0488	3,864.26	81.5563	3,864.26	80.3571	3,864.26	79.8661	3,864.26	78.284	3,864.26	78.4568	3,864.26	76.07	3,864.26	76.1428	3,864.26	73.8203	3,864.26	73.3049	3,864.26	70.6861	3,864.26	71.8239	3,864.26	71.2481	3,864.26	69.9789	3,864.26	67.9696	3,864.26	69.4569	3,864.26	68.6146	3,864.26	66.9634	3,864.26	69.4698	3,864.26	68.4783	3,864.26	69.1061	3,864.26	67.0305	3,864.26	70.751	3,864.26	70.7114	3,864.26	63.9834	3,864.26	68.7979	3,864.26	59.5147
4,000.49	85.426	4,000.49	85.4311	4,000.49	85.5294	4,000.49	85.3853	4,000.49	85.4278	4,000.49	84.6719	4,000.49	85.2157	4,000.49	83.3548	4,000.49	84.3909	4,000.49	81.3374	4,000.49	82.7783	4,000.49	78.7699	4,000.49	81.2845	4,000.49	76.4798	4,000.49	79.4648	4,000.49	74.7351	4,000.49	76.2631	4,000.49	72.3629	4,000.49	74.0365	4,000.49	70.1306	4,000.49	73.1765	4,000.49	69.3345	4,000.49	70.8333	4,000.49	67.3372	4,000.49	70.4537	4,000.49	67.5113	4,000.49	66.7594	4,000.49	67.2832	4,000.49	69.8711	4,000.49	67.7853	4,000.49	68.4117	4,000.49	71.2957	4,000.49	69.9608	4,000.49	60.4561	4,000.49	68.7111	4,000.49	59.6424
4,141.11	85.9849	4,141.11	85.9666	4,141.11	86.2735	4,141.11	85.7735	4,141.11	85.9202	4,141.11	84.9864	4,141.11	84.9915	4,141.11	83.3329	4,141.11	84.1566	4,141.11	81.9207	4,141.11	82.7986	4,141.11	80.2669	4,141.11	80.7863	4,141.11	78.0367	4,141.11	79.0348	4,141.11	76.0737	4,141.11	76.6414	4,141.11	72.3641	4,141.11	74.4965	4,141.11	69.8434	4,141.11	71.2574	4,141.11	68.9456	4,141.11	69.8799	4,141.11	68.9109	4,141.11	69.5425	4,141.11	64.3845	4,141.11	65.7983	4,141.11	70.6502	4,141.11	69.8688	4,141.11	64.2402	4,141.11	69.2005	4,141.11	70.6352	4,141.11	68.6605	4,141.11	65.3457	4,141.11	70.2314	4,141.11	59.9555
4,287.6	85.6825	4,287.6	85.5599	4,287.6	85.637	4,287.6	85.2673	4,287.6	85.9772	4,287.6	84.3044	4,287.6	85.4426	4,287.6	83.3184	4,287.6	84.5359	4,287.6	81.7154	4,287.6	83.0655	4,287.6	79.6977	4,287.6	80.9943	4,287.6	77.978	4,287.6	78.9895	4,287.6	75.8353	4,287.6	76.2532	4,287.6	73.2933	4,287.6	74.9777	4,287.6	72.2951	4,287.6	71.9907	4,287.6	70.2172	4,287.6	71.0479	4,287.6	68.739	4,287.6	69.0808	4,287.6	67.2851	4,287.6	69.0356	4,287.6	70.8663	4,287.6	65.0277	4,287.6	67.959	4,287.6	70.9511	4,287.6	70.5438	4,287.6	65.6704	4,287.6	65.0935	4,287.6	67.1605	4,287.6	63.3214
4,438.48	85.7539	4,438.48	85.7901	4,438.48	85.9343	4,438.48	85.6401	4,438.48	85.6267	4,438.48	84.4205	4,438.48	85.6199	4,438.48	84.0124	4,438.48	83.8169	4,438.48	82.3337	4,438.48	82.5678	4,438.48	80.3527	4,438.48	81.2538	4,438.48	77.2019	4,438.48	79.2529	4,438.48	76.4489	4,438.48	77.7794	4,438.48	72.8186	4,438.48	74.5079	4,438.48	73.1851	4,438.48	73.2307	4,438.48	68.3801	4,438.48	70.2256	4,438.48	69.0076	4,438.48	69.8429	4,438.48	67.0839	4,438.48	66.9341	4,438.48	67.1836	4,438.48	66.7708	4,438.48	69.8907	4,438.48	70.4432	4,438.48	69.1589	4,438.48	67.6554	4,438.48	60.8154	4,438.48	67.3833	4,438.48	60.8606
4,595.21	85.4939	4,595.21	85.1136	4,595.21	85.2747	4,595.21	84.9526	4,595.21	84.64	4,595.21	83.9779	4,595.21	84.148	4,595.21	81.8555	4,595.21	83.2037	4,595.21	81.8273	4,595.21	82.0381	4,595.21	80.4469	4,595.21	81.1928	4,595.21	79.7802	4,595.21	79.638	4,595.21	76.2445	4,595.21	77.1658	4,595.21	73.4077	4,595.21	74.6682	4,595.21	70.3569	4,595.21	71.3892	4,595.21	68.6895	4,595.21	69.6878	4,595.21	68.8225	4,595.21	68.6992	4,595.21	67.3659	4,595.21	67.3584	4,595.21	67.624	4,595.21	67.8046	4,595.21	67.9966	4,595.21	68.6295	4,595.21	68.9682	4,595.21	67.5967	4,595.21	59.2869	4,595.21	68.0346	4,595.21	56.344
4,756.35	85.4929	4,756.35	85.3345	4,756.35	85.2001	4,756.35	83.8139	4,756.35	85.0895	4,756.35	83.6882	4,756.35	84.7874	4,756.35	83.4783	4,756.35	84.081	4,756.35	82.2564	4,756.35	83.9733	4,756.35	80.649	4,756.35	82.2618	4,756.35	78.7222	4,756.35	80.2821	4,756.35	74.9019	4,756.35	78.2209	4,756.35	73.5409	4,756.35	75.7357	4,756.35	72.4911	4,756.35	72.7004	4,756.35	69.4172	4,756.35	71.2209	4,756.35	69.669	4,756.35	69.5427	4,756.35	68.1346	4,756.35	68.0345	4,756.35	69.1031	4,756.35	66.2404	4,756.35	68.0686	4,756.35	70.5814	4,756.35	70.0164	4,756.35	68.4903	4,756.35	58.1248	4,756.35	68.3949	4,756.35	52.7442
4,924.8	85.6009	4,924.8	85.4421	4,924.8	85.8914	4,924.8	84.7389	4,924.8	84.6225	4,924.8	84.8087	4,924.8	84.8646	4,924.8	85.0049	4,924.8	84.4222	4,924.8	83.8232	4,924.8	83.55	4,924.8	82.0012	4,924.8	82.596	4,924.8	78.3137	4,924.8	80.155	4,924.8	76.7096	4,924.8	77.3415	4,924.8	72.3684	4,924.8	75.1875	4,924.8	73.5184	4,924.8	71.9744	4,924.8	68.9232	4,924.8	71.1253	4,924.8	69.1924	4,924.8	69.4698	4,924.8	66.87	4,924.8	69.0257	4,924.8	68.4401	4,924.8	67.3131	4,924.8	69.1783	4,924.8	70.0336	4,924.8	69.1422	4,924.8	68.7087	4,924.8	60.5851	4,924.8	67.3439	4,924.8	54.8143
5,097.66	85.1742	5,097.66	84.3829	5,097.66	84.9427	5,097.66	84.2909	5,097.66	84.4923	5,097.66	84.4928	5,097.66	84.2231	5,097.66	84.0476	5,097.66	84.6201	5,097.66	82.9473	5,097.66	84.2383	5,097.66	80.3988	5,097.66	82.2591	5,097.66	77.7759	5,097.66	80.6556	5,097.66	76.1255	5,097.66	78.9427	5,097.66	73.7941	5,097.66	74.7904	5,097.66	71.1084	5,097.66	72.6147	5,097.66	68.9715	5,097.66	69.6308	5,097.66	69.9425	5,097.66	69.1996	5,097.66	69.912	5,097.66	68.942	5,097.66	67.3475	5,097.66	67.3447	5,097.66	69.3061	5,097.66	70.2321	5,097.66	67.4073	5,097.66	66.1059	5,097.66	58.6483	5,097.66	67.598	5,097.66	51.3818
5,277.83	84.9436	5,277.83	84.7058	5,277.83	84.5532	5,277.83	84.2007	5,277.83	84.0986	5,277.83	84.793	5,277.83	84.4119	5,277.83	84.4973	5,277.83	84.9371	5,277.83	83.2661	5,277.83	84.1362	5,277.83	81.238	5,277.83	82.8197	5,277.83	79.0833	5,277.83	80.5023	5,277.83	75.2769	5,277.83	77.1967	5,277.83	73.8522	5,277.83	73.7265	5,277.83	67.9649	5,277.83	72.921	5,277.83	67.7861	5,277.83	71.0919	5,277.83	67.1386	5,277.83	68.0261	5,277.83	68.3649	5,277.83	68.5155	5,277.83	68.1998	5,277.83	67.3647	5,277.83	69.4202	5,277.83	68.9809	5,277.83	65.0915	5,277.83	67.9108	5,277.83	59.737	5,277.83	66.7901	5,277.83	53.4055
5,463.87	84.618	5,463.87	84.6889	5,463.87	84.7944	5,463.87	84.2764	5,463.87	83.8388	5,463.87	84.6822	5,463.87	85.1622	5,463.87	84.6503	5,463.87	85.3256	5,463.87	82.9123	5,463.87	84.1458	5,463.87	80.8652	5,463.87	82.5525	5,463.87	77.2241	5,463.87	79.4672	5,463.87	75.7205	5,463.87	76.2123	5,463.87	73.4668	5,463.87	74.1636	5,463.87	72.4663	5,463.87	71.7494	5,463.87	69.899	5,463.87	69.7785	5,463.87	68.1487	5,463.87	68.616	5,463.87	68.6275	5,463.87	69.5832	5,463.87	68.9999	5,463.87	68.1798	5,463.87	69.5928	5,463.87	68.6713	5,463.87	67.1324	5,463.87	68.9698	5,463.87	53.4819	5,463.87	67.0741	5,463.87	60.3266
5,657.23	84.0277	5,657.23	84.1852	5,657.23	83.6266	5,657.23	84.6485	5,657.23	84.6753	5,657.23	84.8711	5,657.23	84.887	5,657.23	84.2877	5,657.23	85.0587	5,657.23	82.6805	5,657.23	84.1484	5,657.23	80.9614	5,657.23	81.7047	5,657.23	77.4945	5,657.23	78.6585	5,657.23	75.9153	5,657.23	77.505	5,657.23	72.3472	5,657.23	73.485	5,657.23	69.4564	5,657.23	72.4353	5,657.23	68.508	5,657.23	68.3575	5,657.23	65.6183	5,657.23	66.472	5,657.23	68.2319	5,657.23	69.0381	5,657.23	67.1617	5,657.23	66.107	5,657.23	67.2565	5,657.23	68.4463	5,657.23	66.8042	5,657.23	67.8716	5,657.23	60.8854	5,657.23	66.6709	5,657.23	61.9323
5,856.45	84.0333	5,856.45	83.5117	5,856.45	84.3448	5,856.45	83.3359	5,856.45	83.9277	5,856.45	84.0032	5,856.45	84.7876	5,856.45	83.5846	5,856.45	84.2796	5,856.45	82.1092	5,856.45	83.5583	5,856.45	80.0407	5,856.45	81.7759	5,856.45	79.2804	5,856.45	79.658	5,856.45	75.1751	5,856.45	76.7459	5,856.45	72.7811	5,856.45	72.3537	5,856.45	67.8439	5,856.45	71.3418	5,856.45	66.4376	5,856.45	66.4112	5,856.45	63.346	5,856.45	65.5322	5,856.45	66.4141	5,856.45	66.078	5,856.45	66.4718	5,856.45	64.2219	5,856.45	68.2046	5,856.45	68.508	5,856.45	65.3557	5,856.45	63.4566	5,856.45	60.3164	5,856.45	68.0176	5,856.45	59.812
6,062.99	85.041	6,062.99	84.6453	6,062.99	84.9302	6,062.99	84.5843	6,062.99	84.178	6,062.99	84.5676	6,062.99	84.8955	6,062.99	84.2418	6,062.99	84.6465	6,062.99	82.421	6,062.99	82.8557	6,062.99	80.5487	6,062.99	81.6338	6,062.99	77.0694	6,062.99	78.5395	6,062.99	73.7395	6,062.99	76.0154	6,062.99	70.1518	6,062.99	73.7398	6,062.99	68.4007	6,062.99	71.3801	6,062.99	66.9224	6,062.99	67.9005	6,062.99	63.6903	6,062.99	66.9167	6,062.99	63.7226	6,062.99	67.2796	6,062.99	63.9115	6,062.99	67.7972	6,062.99	69.1004	6,062.99	68.1135	6,062.99	63.1363	6,062.99	66.4776	6,062.99	61.6007	6,062.99	67.6799	6,062.99	57.3497
6,276.86	84.9313	6,276.86	84.3098	6,276.86	84.4255	6,276.86	83.5936	6,276.86	84.5005	6,276.86	83.7526	6,276.86	83.8185	6,276.86	83.1077	6,276.86	84.2591	6,276.86	81.0537	6,276.86	82.9129	6,276.86	79.698	6,276.86	80.8746	6,276.86	75.6499	6,276.86	78.164	6,276.86	74.0155	6,276.86	76.2644	6,276.86	70.3916	6,276.86	73.0025	6,276.86	69.0507	6,276.86	69.946	6,276.86	66.5874	6,276.86	67.3436	6,276.86	63.1809	6,276.86	64.4503	6,276.86	67.7195	6,276.86	66.3553	6,276.86	68.0425	6,276.86	66.7592	6,276.86	68.9327	6,276.86	66.7743	6,276.86	60.8025	6,276.86	65.8996	6,276.86	58.0666	6,276.86	64.4031	6,276.86	55.5165
6,498.05	85.2208	6,498.05	84.7832	6,498.05	85.2631	6,498.05	84.3748	6,498.05	84.5102	6,498.05	84.2184	6,498.05	84.8166	6,498.05	83.6388	6,498.05	84.0782	6,498.05	82.4649	6,498.05	82.7426	6,498.05	79.7897	6,498.05	81.6833	6,498.05	76.6562	6,498.05	79.7315	6,498.05	73.8595	6,498.05	76.0885	6,498.05	71.2385	6,498.05	73.469	6,498.05	68.3713	6,498.05	71.2601	6,498.05	66.8848	6,498.05	67.4607	6,498.05	64.4992	6,498.05	65.4203	6,498.05	65.6467	6,498.05	65.4514	6,498.05	66.5097	6,498.05	65.7961	6,498.05	66.9708	6,498.05	66.3563	6,498.05	61.0236	6,498.05	64.8995	6,498.05	50.0968	6,498.05	61.6763	6,498.05	60.4338
6,726.56	85.5923	6,726.56	85.356	6,726.56	85.0177	6,726.56	84.7416	6,726.56	84.8135	6,726.56	84.5998	6,726.56	84.3533	6,726.56	83.8615	6,726.56	84.3963	6,726.56	81.5855	6,726.56	83.0253	6,726.56	80.8626	6,726.56	81.396	6,726.56	77.1029	6,726.56	79.3527	6,726.56	74.9808	6,726.56	75.4709	6,726.56	70.7424	6,726.56	73.6452	6,726.56	70.1666	6,726.56	69.4407	6,726.56	64.0125	6,726.56	68.1239	6,726.56	64.1407	6,726.56	65.4112	6,726.56	65.3446	6,726.56	65.4686	6,726.56	67.5045	6,726.56	66.2855	6,726.56	67.1964	6,726.56	66.7565	6,726.56	63.1998	6,726.56	67.0233	6,726.56	55.8409	6,726.56	62.8186	6,726.56	64.4686
6,963.87	84.9085	6,963.87	85.2345	6,963.87	85.0344	6,963.87	84.6098	6,963.87	84.9324	6,963.87	84.0429	6,963.87	84.349	6,963.87	82.8598	6,963.87	83.7536	6,963.87	82.335	6,963.87	83.0852	6,963.87	79.6269	6,963.87	81.3143	6,963.87	76.0191	6,963.87	79.5354	6,963.87	74.2332	6,963.87	74.8758	6,963.87	70.8425	6,963.87	73.2937	6,963.87	67.7908	6,963.87	69.142	6,963.87	66.4078	6,963.87	67.7257	6,963.87	62.3535	6,963.87	63.0995	6,963.87	64.0663	6,963.87	65.3831	6,963.87	64.9123	6,963.87	62.6932	6,963.87	65.9837	6,963.87	64.4292	6,963.87	61.1155	6,963.87	65.1736	6,963.87	55.5157	6,963.87	61.1001	6,963.87	61.9365
7,209.96	85.3306	7,209.96	85.7574	7,209.96	85.5441	7,209.96	85.2376	7,209.96	85.734	7,209.96	84.4326	7,209.96	85.2121	7,209.96	83.4724	7,209.96	84.1798	7,209.96	82.2871	7,209.96	83.111	7,209.96	80.2584	7,209.96	81.7109	7,209.96	76.6345	7,209.96	79.4978	7,209.96	75.2722	7,209.96	75.518	7,209.96	70.6611	7,209.96	73.3329	7,209.96	69.7007	7,209.96	70.4236	7,209.96	63.7496	7,209.96	67.4883	7,209.96	62.7623	7,209.96	64.8178	7,209.96	64.9991	7,209.96	64.9599	7,209.96	65.849	7,209.96	63.8408	7,209.96	66.9292	7,209.96	65.9371	7,209.96	62.9446	7,209.96	66.8448	7,209.96	46.7551	7,209.96	59.6984	7,209.96	60.6776
7,464.84	85.0478	7,464.84	85.7056	7,464.84	85.2903	7,464.84	85.2693	7,464.84	85.3424	7,464.84	84.2041	7,464.84	84.2879	7,464.84	83.089	7,464.84	83.3062	7,464.84	82.1473	7,464.84	82.6905	7,464.84	80.4254	7,464.84	80.5419	7,464.84	76.0807	7,464.84	77.9688	7,464.84	74.5053	7,464.84	74.139	7,464.84	69.1588	7,464.84	71.8818	7,464.84	67.8646	7,464.84	68.1959	7,464.84	61.8862	7,464.84	66.106	7,464.84	60.7896	7,464.84	60.8351	7,464.84	62.9498	7,464.84	63.8801	7,464.84	63.9847	7,464.84	62.6434	7,464.84	64.8639	7,464.84	61.3328	7,464.84	62.4864	7,464.84	64.788	7,464.84	48.5169	7,464.84	53.9252	7,464.84	61.6892
7,727.05	85.564	7,727.05	86.2442	7,727.05	86.0418	7,727.05	85.5002	7,727.05	85.987	7,727.05	84.034	7,727.05	84.9909	7,727.05	83.3798	7,727.05	83.6474	7,727.05	81.8472	7,727.05	83.0012	7,727.05	79.4708	7,727.05	81.0226	7,727.05	74.9927	7,727.05	78.4293	7,727.05	73.5234	7,727.05	74.7917	7,727.05	69.4553	7,727.05	72.0658	7,727.05	67.5963	7,727.05	68.4576	7,727.05	62.3085	7,727.05	65.5184	7,727.05	63.5091	7,727.05	62.3908	7,727.05	64.094	7,727.05	64.4613	7,727.05	63.464	7,727.05	62.0584	7,727.05	64.798	7,727.05	63.2752	7,727.05	61.5678	7,727.05	66.556	7,727.05	50.685	7,727.05	52.844	7,727.05	61.846
7,999.51	85.3789	7,999.51	86.227	7,999.51	85.7716	7,999.51	85.0306	7,999.51	85.8198	7,999.51	83.8179	7,999.51	84.5712	7,999.51	83.1033	7,999.51	83.4736	7,999.51	81.2532	7,999.51	82.6271	7,999.51	79.5122	7,999.51	80.5066	7,999.51	75.9107	7,999.51	77.9263	7,999.51	73.4482	7,999.51	73.8161	7,999.51	69.791	7,999.51	71.3894	7,999.51	66.4068	7,999.51	67.9535	7,999.51	61.6555	7,999.51	65.7721	7,999.51	62.0287	7,999.51	63.3451	7,999.51	62.8792	7,999.51	63.5724	7,999.51	61.576	7,999.51	59.7959	7,999.51	62.6816	7,999.51	61.3749	7,999.51	61.849	7,999.51	65.5056	7,999.51	48.3392	7,999.51	55.6992	7,999.51	61.3927
8,282.23	85.7612	8,282.23	86.2882	8,282.23	85.9891	8,282.23	85.3041	8,282.23	86.1964	8,282.23	83.9416	8,282.23	84.8069	8,282.23	83.001	8,282.23	83.5831	8,282.23	81.4241	8,282.23	82.4697	8,282.23	78.9132	8,282.23	80.4106	8,282.23	75.1612	8,282.23	77.5016	8,282.23	72.1708	8,282.23	74.5751	8,282.23	69.3299	8,282.23	71.6066	8,282.23	65.5515	8,282.23	68.975	8,282.23	62.2549	8,282.23	65.9449	8,282.23	63.8975	8,282.23	61.4624	8,282.23	63.2446	8,282.23	62.0296	8,282.23	60.8546	8,282.23	60.0373	8,282.23	62.9589	8,282.23	62.0465	8,282.23	61.0385	8,282.23	65.3961	8,282.23	43.5089	8,282.23	51.4041	8,282.23	60.8452
8,573.73	85.9066	8,573.73	86.5234	8,573.73	86.1826	8,573.73	85.3446	8,573.73	85.8456	8,573.73	84.396	8,573.73	84.4089	8,573.73	82.8432	8,573.73	83.1875	8,573.73	80.8187	8,573.73	82.0914	8,573.73	78.841	8,573.73	79.7329	8,573.73	73.7525	8,573.73	76.9491	8,573.73	71.9827	8,573.73	74.0986	8,573.73	69.2245	8,573.73	70.4187	8,573.73	64.8931	8,573.73	68.8427	8,573.73	63.421	8,573.73	64.6934	8,573.73	64.0573	8,573.73	63.6114	8,573.73	59.7396	8,573.73	61.4889	8,573.73	59.4295	8,573.73	59.2611	8,573.73	62.7218	8,573.73	61.5104	8,573.73	60.5059	8,573.73	65.0644	8,573.73	53.7868	8,573.73	51.077	8,573.73	58.4842
8,876.95	86.6399	8,876.95	86.7247	8,876.95	86.6371	8,876.95	85.3561	8,876.95	86.1722	8,876.95	84.0742	8,876.95	84.8973	8,876.95	82.2557	8,876.95	83.4606	8,876.95	80.2361	8,876.95	81.9293	8,876.95	77.8712	8,876.95	79.5588	8,876.95	73.5798	8,876.95	77.2036	8,876.95	71.3782	8,876.95	74.2633	8,876.95	68.5725	8,876.95	70.5675	8,876.95	64.9116	8,876.95	67.9682	8,876.95	64.3673	8,876.95	64.8268	8,876.95	63.4242	8,876.95	62.0588	8,876.95	59.3031	8,876.95	61.049	8,876.95	58.1467	8,876.95	58.9919	8,876.95	61.6122	8,876.95	62.6661	8,876.95	58.99	8,876.95	64.0023	8,876.95	55.2011	8,876.95	49.4427	8,876.95	58.7641
9,188.96	86.8336	9,188.96	86.4817	9,188.96	86.6759	9,188.96	85.3823	9,188.96	85.9774	9,188.96	83.9857	9,188.96	84.7534	9,188.96	81.9351	9,188.96	82.7746	9,188.96	79.4972	9,188.96	80.9393	9,188.96	78.023	9,188.96	79.0272	9,188.96	73.5649	9,188.96	76.7646	9,188.96	70.6143	9,188.96	73.4598	9,188.96	68.8585	9,188.96	69.5619	9,188.96	63.6251	9,188.96	67.0234	9,188.96	62.5242	9,188.96	63.8738	9,188.96	62.4219	9,188.96	60.1639	9,188.96	56.1349	9,188.96	61.5732	9,188.96	56.4286	9,188.96	59.4358	9,188.96	59.8071	9,188.96	61.9101	9,188.96	57.8871	9,188.96	59.1853	9,188.96	57.7241	9,188.96	51.963	9,188.96	60.346
9,514.16	87.2774	9,514.16	86.8127	9,514.16	86.9841	9,514.16	85.7251	9,514.16	86.3432	9,514.16	83.8914	9,514.16	85.0273	9,514.16	81.4934	9,514.16	82.8389	9,514.16	78.5409	9,514.16	80.3872	9,514.16	75.5462	9,514.16	77.8626	9,514.16	71.1805	9,514.16	74.6588	9,514.16	65.7279	9,514.16	71.3703	9,514.16	64.6295	9,514.16	66.5401	9,514.16	58.4693	9,514.16	63.8233	9,514.16	58.9969	9,514.16	59.9697	9,514.16	57.2695	9,514.16	55.5153	9,514.16	46.9117	9,514.16	57.7538	9,514.16	53.5822	9,514.16	54.0134	9,514.16	56.9697	9,514.16	59.1874	9,514.16	51.7573	9,514.16	56.0185	9,514.16	49.5568	9,514.16	52.577	9,514.16	57.974
9,849.61	87.0058	9,849.61	86.547	9,849.61	86.7511	9,849.61	85.4811	9,849.61	86.0562	9,849.61	83.7118	9,849.61	84.3871	9,849.61	80.4379	9,849.61	81.812	9,849.61	76.4872	9,849.61	78.9667	9,849.61	72.8875	9,849.61	75.3052	9,849.61	67.1039	9,849.61	70.341	9,849.61	61.4713	9,849.61	67.2438	9,849.61	61.1253	9,849.61	61.2	9,849.61	55.5274	9,849.61	59.9748	9,849.61	57.8783	9,849.61	54.9139	9,849.61	49.1814	9,849.61	50.9614	9,849.61	46.4298	9,849.61	56.5539	9,849.61	50.5301	9,849.61	50.7822	9,849.61	56.374	9,849.61	54.3399	9,849.61	50.764	9,849.61	55.6441	9,849.61	50.539	9,849.61	53.2835	9,849.61	55.9318
10,196.8	87.0224	10,196.8	86.602	10,196.8	86.9225	10,196.8	85.0465	10,196.8	85.7066	10,196.8	82.834	10,196.8	84.071	10,196.8	79.3153	10,196.8	80.9559	10,196.8	74.9142	10,196.8	77.2225	10,196.8	69.5411	10,196.8	72.2575	10,196.8	66.1854	10,196.8	65.4346	10,196.8	61.886	10,196.8	62.1287	10,196.8	62.9357	10,196.8	56.233	10,196.8	58.3823	10,196.8	55.2238	10,196.8	56.9891	10,196.8	46.1083	10,196.8	48.9274	10,196.8	50.4635	10,196.8	49.9878	10,196.8	46.6753	10,196.8	48.0306	10,196.8	46.6194	10,196.8	54.5029	10,196.8	52.2472	10,196.8	50.9419	10,196.8	52.1487	10,196.8	46.9239	10,196.8	50.8644	10,196.8	54.9112
10,555.7	86.642	10,555.7	86.1966	10,555.7	86.4332	10,555.7	85.0012	10,555.7	85.42	10,555.7	82.6674	10,555.7	83.4258	10,555.7	79.551	10,555.7	80.0915	10,555.7	75.7692	10,555.7	76.2358	10,555.7	72.3671	10,555.7	71.4447	10,555.7	70.9525	10,555.7	67.0655	10,555.7	66.9109	10,555.7	63.6418	10,555.7	65.4318	10,555.7	60.6937	10,555.7	60.2083	10,555.7	58.4677	10,555.7	60.2675	10,555.7	56.2141	10,555.7	55.7148	10,555.7	57.7904	10,555.7	52.1327	10,555.7	49.64	10,555.7	55.5642	10,555.7	48.7081	10,555.7	59.8321	10,555.7	54.7628	10,555.7	53.3805	10,555.7	56.1567	10,555.7	48.5565	10,555.7	46.9105	10,555.7	56.6941
10,927.7	86.9091	10,927.7	86.3494	10,927.7	86.5875	10,927.7	85.4983	10,927.7	85.7304	10,927.7	83.3682	10,927.7	84.0244	10,927.7	80.5152	10,927.7	80.7382	10,927.7	77.7572	10,927.7	77.1463	10,927.7	75.3427	10,927.7	73.4341	10,927.7	73.1319	10,927.7	70.6436	10,927.7	69.3603	10,927.7	67.3801	10,927.7	66.9619	10,927.7	65.9453	10,927.7	63.9847	10,927.7	61.9287	10,927.7	60.9069	10,927.7	60.8295	10,927.7	57.7194	10,927.7	59.488	10,927.7	54.5597	10,927.7	54.1819	10,927.7	55.8693	10,927.7	56.0758	10,927.7	59.684	10,927.7	57.7756	10,927.7	53.6825	10,927.7	56.9256	10,927.7	44.7092	10,927.7	48.5773	10,927.7	56.2119
11,313	87.3607	11,313	86.8506	11,313	86.9202	11,313	85.8784	11,313	86.4187	11,313	84.0598	11,313	84.6461	11,313	80.8877	11,313	81.6551	11,313	78.6848	11,313	78.3055	11,313	75.4854	11,313	74.9511	11,313	73.0837	11,313	72.8834	11,313	69.4998	11,313	69.4336	11,313	67.7157	11,313	67.9051	11,313	64.1077	11,313	64.2008	11,313	62.0975	11,313	61.296	11,313	57.8473	11,313	58.5767	11,313	55.5872	11,313	58.6684	11,313	57.1187	11,313	56.7641	11,313	60.0664	11,313	60.4543	11,313	53.6648	11,313	58.3929	11,313	54.0627	11,313	51.2782	11,313	58.4951
11,712.9	87.4239	11,712.9	86.7296	11,712.9	86.9777	11,712.9	86.0165	11,712.9	86.4219	11,712.9	84.1195	11,712.9	84.4739	11,712.9	81.0961	11,712.9	81.6723	11,712.9	78.3007	11,712.9	78.5582	11,712.9	75.8719	11,712.9	76.1547	11,712.9	73.7015	11,712.9	74.4217	11,712.9	70.7247	11,712.9	71.924	11,712.9	68.0113	11,712.9	69.2685	11,712.9	64.9588	11,712.9	65.5187	11,712.9	62.1794	11,712.9	63.1081	11,712.9	60.053	11,712.9	60.34	11,712.9	55.1383	11,712.9	58.9075	11,712.9	57.3852	11,712.9	57.58	11,712.9	61.2091	11,712.9	60.2739	11,712.9	52.243	11,712.9	59.3528	11,712.9	55.309	11,712.9	53.0411	11,712.9	60.0789
12,126	87.1355	12,126	86.4024	12,126	86.5729	12,126	85.5637	12,126	86.0567	12,126	83.6461	12,126	84.1968	12,126	81.0357	12,126	81.6231	12,126	78.5936	12,126	78.8366	12,126	76.5962	12,126	77.2935	12,126	74.9025	12,126	75.6227	12,126	71.5397	12,126	73.4134	12,126	68.9847	12,126	70.4652	12,126	65.7548	12,126	66.2295	12,126	62.1502	12,126	64.8674	12,126	60.3353	12,126	60.5987	12,126	55.7278	12,126	61.6863	12,126	57.973	12,126	58.4719	12,126	61.4244	12,126	63.5838	12,126	52.0996	12,126	61.0656	12,126	55.6703	12,126	56.0305	12,126	60.5779
12,553.7	86.4814	12,553.7	85.8361	12,553.7	85.7328	12,553.7	84.8559	12,553.7	85.7573	12,553.7	83.6287	12,553.7	84.1638	12,553.7	81.746	12,553.7	82.1491	12,553.7	79.3062	12,553.7	79.898	12,553.7	78.1004	12,553.7	78.4771	12,553.7	75.8619	12,553.7	76.675	12,553.7	72.6566	12,553.7	73.2889	12,553.7	68.5145	12,553.7	71.211	12,553.7	67.8816	12,553.7	68.3132	12,553.7	64.2858	12,553.7	64.7601	12,553.7	59.8755	12,553.7	60.1321	12,553.7	54.4091	12,553.7	64.3391	12,553.7	60.7273	12,553.7	59.8131	12,553.7	61.5201	12,553.7	63.791	12,553.7	52.8721	12,553.7	62.5581	12,553.7	57.9935	12,553.7	56.8142	12,553.7	59.1355
12,996.1	85.7559	12,996.1	85.5447	12,996.1	85.3502	12,996.1	84.684	12,996.1	85.0317	12,996.1	84.1316	12,996.1	84.2392	12,996.1	82.5203	12,996.1	82.8174	12,996.1	81.0927	12,996.1	81.7605	12,996.1	79.5661	12,996.1	80.7253	12,996.1	76.6096	12,996.1	79.2888	12,996.1	73.0039	12,996.1	75.0639	12,996.1	68.8794	12,996.1	72.3739	12,996.1	68.0866	12,996.1	68.7602	12,996.1	65.1303	12,996.1	65.2616	12,996.1	61.9658	12,996.1	62.1001	12,996.1	55.295	12,996.1	61.9617	12,996.1	58.9983	12,996.1	59.5971	12,996.1	62.5915	12,996.1	63.5297	12,996.1	52.3496	12,996.1	63.3676	12,996.1	57.3656	12,996.1	56.5703	12,996.1	59.3373
13,454.6	85.4413	13,454.6	85.601	13,454.6	85.5356	13,454.6	84.9318	13,454.6	85.0242	13,454.6	84.7534	13,454.6	84.4325	13,454.6	84.2691	13,454.6	84.22	13,454.6	82.8613	13,454.6	82.8575	13,454.6	81.0828	13,454.6	82.7596	13,454.6	78.4895	13,454.6	80.7101	13,454.6	74.7933	13,454.6	76.0114	13,454.6	71.2878	13,454.6	74.0094	13,454.6	68.8606	13,454.6	70.0526	13,454.6	67.6823	13,454.6	68.0886	13,454.6	62.0097	13,454.6	64.0017	13,454.6	54.3428	13,454.6	64.1598	13,454.6	57.4926	13,454.6	61.0781	13,454.6	63.1504	13,454.6	64.4799	13,454.6	50.3326	13,454.6	64.8584	13,454.6	60.0472	13,454.6	59.8854	13,454.6	59.0803
13,929.2	86.2819	13,929.2	86.4786	13,929.2	86.4505	13,929.2	85.9987	13,929.2	85.9749	13,929.2	86.3294	13,929.2	86.0263	13,929.2	85.8662	13,929.2	85.8867	13,929.2	84.4718	13,929.2	84.7446	13,929.2	82.4956	13,929.2	84.5777	13,929.2	80.0039	13,929.2	81.6635	13,929.2	76.6985	13,929.2	77.7272	13,929.2	71.918	13,929.2	76.1182	13,929.2	70.4738	13,929.2	71.5669	13,929.2	67.6082	13,929.2	68.9438	13,929.2	61.9993	13,929.2	65.9211	13,929.2	45.7369	13,929.2	66.1052	13,929.2	56.8673	13,929.2	62.9502	13,929.2	62.798	13,929.2	65.7572	13,929.2	49.6253	13,929.2	64.8307	13,929.2	63.3984	13,929.2	63.2309	13,929.2	59.7927
14,419.9	87.9531	14,419.9	88.063	14,419.9	88.1762	14,419.9	87.8314	14,419.9	87.7083	14,419.9	88.0236	14,419.9	87.4016	14,419.9	87.3772	14,419.9	87.8074	14,419.9	86.2656	14,419.9	87.2809	14,419.9	84.0341	14,419.9	86.1227	14,419.9	80.9744	14,419.9	83.4642	14,419.9	77.7623	14,419.9	79.8216	14,419.9	73.2341	14,419.9	77.2431	14,419.9	71.2996	14,419.9	72.4874	14,419.9	68.898	14,419.9	70.2999	14,419.9	64.135	14,419.9	66.8899	14,419.9	52.438	14,419.9	66.4877	14,419.9	61.1052	14,419.9	64.6806	14,419.9	63.3767	14,419.9	66.8101	14,419.9	51.2143	14,419.9	66.5176	14,419.9	64.1442	14,419.9	64.4647	14,419.9	61.4813
14,928.2	90.4148	14,928.2	90.134	14,928.2	90.3606	14,928.2	89.36	14,928.2	89.7499	14,928.2	89.1916	14,928.2	88.9311	14,928.2	88.6057	14,928.2	88.7682	14,928.2	86.9689	14,928.2	88.0289	14,928.2	85.0186	14,928.2	86.7494	14,928.2	81.5379	14,928.2	84.1662	14,928.2	78.2481	14,928.2	79.4662	14,928.2	72.9861	14,928.2	77.1091	14,928.2	71.1073	14,928.2	72.2991	14,928.2	68.5798	14,928.2	70.3084	14,928.2	63.6498	14,928.2	66.9154	14,928.2	54.2264	14,928.2	64.131	14,928.2	63.1325	14,928.2	65.0859	14,928.2	63.345	14,928.2	67.7725	14,928.2	49.9463	14,928.2	65.6189	14,928.2	66.136	14,928.2	65.8698	14,928.2	62.7176
15,455.6	90.6818	15,455.6	90.3811	15,455.6	90.455	15,455.6	88.8493	15,455.6	89.7301	15,455.6	88.3215	15,455.6	88.2518	15,455.6	87.0407	15,455.6	87.767	15,455.6	85.2178	15,455.6	86.2573	15,455.6	82.8454	15,455.6	84.9296	15,455.6	79.2509	15,455.6	81.8052	15,455.6	75.9858	15,455.6	76.3136	15,455.6	71.0654	15,455.6	74.0128	15,455.6	68.2074	15,455.6	69.2952	15,455.6	65.314	15,455.6	66.6655	15,455.6	58.2988	15,455.6	64.2243	15,455.6	54.9745	15,455.6	62.0876	15,455.6	60.6123	15,455.6	62.3037	15,455.6	61.9487	15,455.6	65.6581	15,455.6	50.2933	15,455.6	63.2282	15,455.6	64.3869	15,455.6	64.5183	15,455.6	59.9895
16,000.5	88.7476	16,000.5	88.2891	16,000.5	88.4762	16,000.5	86.9506	16,000.5	87.6906	16,000.5	85.2634	16,000.5	85.4422	16,000.5	83.7167	16,000.5	84.7369	16,000.5	81.5903	16,000.5	82.6373	16,000.5	79.0356	16,000.5	81.0198	16,000.5	74.4358	16,000.5	77.129	16,000.5	71.4946	16,000.5	72.2592	16,000.5	66.8847	16,000.5	70.3416	16,000.5	63.8358	16,000.5	63.8003	16,000.5	60.7661	16,000.5	63.0956	16,000.5	54.6338	16,000.5	60.8115	16,000.5	51.294	16,000.5	50.1657	16,000.5	54.8665	16,000.5	56.7051	16,000.5	58.0914	16,000.5	61.0883	16,000.5	43.7999	16,000.5	59.2485	16,000.5	58.587	16,000.5	59.5752	16,000.5	54.7878
16,564.5	86.712	16,564.5	86.4797	16,564.5	86.563	16,564.5	84.6866	16,564.5	85.535	16,564.5	82.6995	16,564.5	83.2787	16,564.5	80.4175	16,564.5	81.4854	16,564.5	77.1995	16,564.5	78.7324	16,564.5	73.8045	16,564.5	76.8657	16,564.5	70.535	16,564.5	73.1831	16,564.5	67.9487	16,564.5	68.9917	16,564.5	62.2849	16,564.5	66.5372	16,564.5	59.6903	16,564.5	60.5894	16,564.5	56.7663	16,564.5	58.6616	16,564.5	49.8564	16,564.5	56.7364	16,564.5	52.7749	16,564.5	50.3434	16,564.5	49.6904	16,564.5	53.7872	16,564.5	53.024	16,564.5	56.8205	16,564.5	29.4177	16,564.5	54.8428	16,564.5	56.1642	16,564.5	56.2284	16,564.5	41.2084
17,148.9	85.4863	17,148.9	85.0335	17,148.9	85.3274	17,148.9	83.2106	17,148.9	84.1182	17,148.9	80.0662	17,148.9	81.4369	17,148.9	76.5189	17,148.9	78.6334	17,148.9	74.0743	17,148.9	75.6025	17,148.9	71.6892	17,148.9	73.5886	17,148.9	68.4826	17,148.9	71.1895	17,148.9	65.1668	17,148.9	66.8122	17,148.9	59.7524	17,148.9	63.5827	17,148.9	55.1198	17,148.9	56.8943	17,148.9	52.6729	17,148.9	55.001	17,148.9	45.6723	17,148.9	53.5963	17,148.9	48.282	17,148.9	45.9946	17,148.9	47.6566	17,148.9	51.5694	17,148.9	49.348	17,148.9	54.0124	17,148.9	33.327	17,148.9	44.1776	17,148.9	52.558	17,148.9	49.1201	17,148.9	37.3256
17,752.4	83.9423	17,752.4	83.4038	17,752.4	83.7432	17,752.4	81.4135	17,752.4	82.5217	17,752.4	77.9474	17,752.4	79.973	17,752.4	73.8093	17,752.4	76.3496	17,752.4	70.3621	17,752.4	72.9	17,752.4	68.5478	17,752.4	70.7802	17,752.4	64.8992	17,752.4	68.7701	17,752.4	61.6442	17,752.4	63.5487	17,752.4	55.2527	17,752.4	60.8504	17,752.4	53.3962	17,752.4	54.5082	17,752.4	52.1184	17,752.4	53.0141	17,752.4	44.2015	17,752.4	50.2968	17,752.4	40.5484	17,752.4	37.0391	17,752.4	46.1717	17,752.4	48.0779	17,752.4	44.1937	17,752.4	51.3684	17,752.4	11.7133	17,752.4	42.8067	17,752.4	50.1322	17,752.4	49.1084	17,752.4	28.3378
18,379.4	82.8943	18,379.4	82.253	18,379.4	82.7932	18,379.4	79.9221	18,379.4	81.3271	18,379.4	75.849	18,379.4	78.7505	18,379.4	70.8852	18,379.4	74.4534	18,379.4	67.2729	18,379.4	70.7823	18,379.4	66.8657	18,379.4	69.2544	18,379.4	62.9197	18,379.4	67.0283	18,379.4	60.5782	18,379.4	63.0497	18,379.4	55.0369	18,379.4	59.716	18,379.4	53.1539	18,379.4	54.7661	18,379.4	51.2426	18,379.4	51.7895	18,379.4	41.7192	18,379.4	47.3593	18,379.4	38.4863	18,379.4	39.9281	18,379.4	45.2244	18,379.4	47.6737	18,379.4	41.1104	18,379.4	50.7145	18,379.4	20.4784	18,379.4	41.0941	18,379.4	48.6564	18,379.4	47.6212	18,379.4	37.0989
19,026.9	82.0586	19,026.9	81.3721	19,026.9	81.9461	19,026.9	79.0066	19,026.9	80.4729	19,026.9	74.2406	19,026.9	77.6678	19,026.9	67.2882	19,026.9	72.9341	19,026.9	65.6109	19,026.9	69.7093	19,026.9	66.2397	19,026.9	69.1736	19,026.9	63.6391	19,026.9	67.4186	19,026.9	61.3799	19,026.9	64.775	19,026.9	57.609	19,026.9	60.114	19,026.9	53.3173	19,026.9	56.6023	19,026.9	52.1505	19,026.9	52.2154	19,026.9	44.2846	19,026.9	48.072	19,026.9	32.2306	19,026.9	42.9817	19,026.9	45.7993	19,026.9	47.4533	19,026.9	40.4392	19,026.9	50.4182	19,026.9	24.6976	19,026.9	36.4547	19,026.9	49.0883	19,026.9	44.6599	19,026.9	40.9114
19,697.8	81.1406	19,697.8	80.5262	19,697.8	81.0169	19,697.8	78.1771	19,697.8	79.7532	19,697.8	73.9002	19,697.8	77.1023	19,697.8	65.5125	19,697.8	71.4001	19,697.8	65.0685	19,697.8	69.1955	19,697.8	66.8953	19,697.8	69.9271	19,697.8	65.7957	19,697.8	69.4968	19,697.8	63.0885	19,697.8	66.6743	19,697.8	59.2026	19,697.8	62.0205	19,697.8	54.572	19,697.8	58.9717	19,697.8	53.0749	19,697.8	53.7464	19,697.8	45.4983	19,697.8	51.4839	19,697.8	38.6667	19,697.8	47.1442	19,697.8	46.2239	19,697.8	49.4113	19,697.8	38.5231	19,697.8	51.7497	19,697.8	36.6291	19,697.8	40.2396	19,697.8	48.6595	19,697.8	46.3866	19,697.8	44.2145
19,999.5	80.6477	19,999.5	79.969	19,999.5	80.584	19,999.5	78.3795	19,999.5	79.2653	19,999.5	74.2718	19,999.5	76.7858	19,999.5	66.1858	19,999.5	71.235	19,999.5	65.9913	19,999.5	68.0532	19,999.5	68.1596	19,999.5	69.9745	19,999.5	65.7375	19,999.5	70.1785	19,999.5	63.8223	19,999.5	66.553	19,999.5	59.0921	19,999.5	63.0583	19,999.5	53.8661	19,999.5	61.3284	19,999.5	50.7208	19,999.5	54.0975	19,999.5	46.8271	19,999.5	46.3571	19,999.5	34.6668	19,999.5	49.3444	19,999.5	52.2531	19,999.5	53.0405	19,999.5	47.158	19,999.5	51.3718	19,999.5	45.1537	19,999.5	45.4325	19,999.5	47.6091	19,999.5	44.1435	19,999.5	36.3334
