"SPL Horizontal"
"On-Axis"		"10°"		"-10°"		"20°"		"-20°"		"30°"		"-30°"		"40°"		"-40°"		"50°"		"-50°"		"60°"		"-60°"		"70°"		"-70°"		"80°"		"-80°"		"90°"		"-90°"		"100°"		"-100°"		"110°"		"-110°"		"120°"		"-120°"		"130°"		"-130°"		"140°"		"-140°"		"150°"		"-150°"		"160°"		"-160°"		"170°"		"-170°"		"180°"
"Frequency / Hz"	"Sound Pressure Level / dB (re 20 µPa/V)  [2.83  V @ 1. m]"	"Frequency / Hz"	"Sound Pressure Level / dB (re 20 µPa/V)  [2.83  V @ 1. m]"	"Frequency / Hz"	"Sound Pressure Level / dB (re 20 µPa/V)  [2.83  V @ 1. m]"	"Frequency / Hz"	"Sound Pressure Level / dB (re 20 µPa/V)  [2.83  V @ 1. m]"	"Frequency / Hz"	"Sound Pressure Level / dB (re 20 µPa/V)  [2.83  V @ 1. m]"	"Frequency / Hz"	"Sound Pressure Level / dB (re 20 µPa/V)  [2.83  V @ 1. m]"	"Frequency / Hz"	"Sound Pressure Level / dB (re 20 µPa/V)  [2.83  V @ 1. m]"	"Frequency / Hz"	"Sound Pressure Level / dB (re 20 µPa/V)  [2.83  V @ 1. m]"	"Frequency / Hz"	"Sound Pressure Level / dB (re 20 µPa/V)  [2.83  V @ 1. m]"	"Frequency / Hz"	"Sound Pressure Level / dB (re 20 µPa/V)  [2.83  V @ 1. m]"	"Frequency / Hz"	"Sound Pressure Level / dB (re 20 µPa/V)  [2.83  V @ 1. m]"	"Frequency / Hz"	"Sound Pressure Level / dB (re 20 µPa/V)  [2.83  V @ 1. m]"	"Frequency / Hz"	"Sound Pressure Level / dB (re 20 µPa/V)  [2.83  V @ 1. m]"	"Frequency / Hz"	"Sound Pressure Level / dB (re 20 µPa/V)  [2.83  V @ 1. m]"	"Frequency / Hz"	"Sound Pressure Level / dB (re 20 µPa/V)  [2.83  V @ 1. m]"	"Frequency / Hz"	"Sound Pressure Level / dB (re 20 µPa/V)  [2.83  V @ 1. m]"	"Frequency / Hz"	"Sound Pressure Level / dB (re 20 µPa/V)  [2.83  V @ 1. m]"	"Frequency / Hz"	"Sound Pressure Level / dB (re 20 µPa/V)  [2.83  V @ 1. m]"	"Frequency / Hz"	"Sound Pressure Level / dB (re 20 µPa/V)  [2.83  V @ 1. m]"	"Frequency / Hz"	"Sound Pressure Level / dB (re 20 µPa/V)  [2.83  V @ 1. m]"	"Frequency / Hz"	"Sound Pressure Level / dB (re 20 µPa/V)  [2.83  V @ 1. m]"	"Frequency / Hz"	"Sound Pressure Level / dB (re 20 µPa/V)  [2.83  V @ 1. m]"	"Frequency / Hz"	"Sound Pressure Level / dB (re 20 µPa/V)  [2.83  V @ 1. m]"	"Frequency / Hz"	"Sound Pressure Level / dB (re 20 µPa/V)  [2.83  V @ 1. m]"	"Frequency / Hz"	"Sound Pressure Level / dB (re 20 µPa/V)  [2.83  V @ 1. m]"	"Frequency / Hz"	"Sound Pressure Level / dB (re 20 µPa/V)  [2.83  V @ 1. m]"	"Frequency / Hz"	"Sound Pressure Level / dB (re 20 µPa/V)  [2.83  V @ 1. m]"	"Frequency / Hz"	"Sound Pressure Level / dB (re 20 µPa/V)  [2.83  V @ 1. m]"	"Frequency / Hz"	"Sound Pressure Level / dB (re 20 µPa/V)  [2.83  V @ 1. m]"	"Frequency / Hz"	"Sound Pressure Level / dB (re 20 µPa/V)  [2.83  V @ 1. m]"	"Frequency / Hz"	"Sound Pressure Level / dB (re 20 µPa/V)  [2.83  V @ 1. m]"	"Frequency / Hz"	"Sound Pressure Level / dB (re 20 µPa/V)  [2.83  V @ 1. m]"	"Frequency / Hz"	"Sound Pressure Level / dB (re 20 µPa/V)  [2.83  V @ 1. m]"	"Frequency / Hz"	"Sound Pressure Level / dB (re 20 µPa/V)  [2.83  V @ 1. m]"	"Frequency / Hz"	"Sound Pressure Level / dB (re 20 µPa/V)  [2.83  V @ 1. m]"	"Frequency / Hz"	"Sound Pressure Level / dB (re 20 µPa/V)  [2.83  V @ 1. m]"
20.5078	44.9448	20.5078	44.9233	20.5078	44.8988	20.5078	44.8323	20.5078	44.7869	20.5078	44.6699	20.5078	44.6107	20.5078	44.4341	20.5078	44.3725	20.5078	44.1235	20.5078	44.0756	20.5078	43.7365	20.5078	43.7243	20.5078	43.2719	20.5078	43.3239	20.5078	42.7294	20.5078	42.8799	20.5078	42.1122	20.5078	42.3978	20.5078	41.431	20.5078	41.8829	20.5078	40.7093	20.5078	41.3413	20.5078	39.9863	20.5078	40.7809	20.5078	39.3146	20.5078	40.2148	20.5078	38.7512	20.5078	39.6631	20.5078	38.3416	20.5078	39.1527	20.5078	38.1077	20.5078	38.7126	20.5078	38.0463	20.5078	38.3682	20.5078	38.1399
21.9727	20.7718	21.9727	20.3897	21.9727	22.4385	21.9727	21.6193	21.9727	24.896	21.9727	24.1558	21.9727	27.6486	21.9727	27.1861	21.9727	30.3605	21.9727	30.1497	21.9727	32.881	21.9727	32.8442	21.9727	35.1656	21.9727	35.2317	21.9727	37.2127	21.9727	37.3267	21.9727	39.0332	21.9727	39.1555	21.9727	40.64	21.9727	40.7445	21.9727	42.0444	21.9727	42.1162	21.9727	43.2553	21.9727	43.2893	21.9727	44.2796	21.9727	44.2785	21.9727	45.1224	21.9727	45.0948	21.9727	45.7876	21.9727	45.7459	21.9727	46.2788	21.9727	46.2362	21.9727	46.599	21.9727	46.5679	21.9727	46.7518	21.9727	46.7404
23.4375	30.3867	23.4375	29.9613	23.4375	30.3127	23.4375	29.0536	23.4375	29.7925	23.4375	27.8932	23.4375	29.0696	23.4375	27.4413	23.4375	28.9136	23.4375	29.0195	23.4375	30.2991	23.4375	31.951	23.4375	32.8671	23.4375	34.9433	23.4375	35.6131	23.4375	37.5829	23.4375	38.0945	23.4375	39.84	23.4375	40.2337	23.4375	41.7567	23.4375	42.0529	23.4375	43.3754	23.4375	43.5888	23.4375	44.7282	23.4375	44.8729	23.4375	45.8388	23.4375	45.9294	23.4375	46.7246	23.4375	46.7758	23.4375	47.3992	23.4375	47.4244	23.4375	47.8731	23.4375	47.8833	23.4375	48.1541	23.4375	48.1572	23.4375	48.2477
24.9023	41.965	24.9023	41.7721	24.9023	42.034	24.9023	41.4674	24.9023	41.9905	24.9023	41.0947	24.9023	41.8703	24.9023	40.7456	24.9023	41.7407	24.9023	40.5711	24.9023	41.7039	24.9023	40.748	24.9023	41.8809	24.9023	41.3743	24.9023	42.3598	24.9023	42.3857	24.9023	43.1408	24.9023	43.6094	24.9023	44.1356	24.9023	44.878	24.9023	45.2228	24.9023	46.0811	24.9023	46.2993	24.9023	47.1602	24.9023	47.2959	24.9023	48.088	24.9023	48.172	24.9023	48.853	24.9023	48.905	24.9023	49.4505	24.9023	49.4825	24.9023	49.8791	24.9023	49.8977	24.9023	50.138	24.9023	50.1466	24.9023	50.227
26.3672	45.3967	26.3672	45.3454	26.3672	45.4104	26.3672	45.274	26.3672	45.3946	26.3672	45.2254	26.3672	45.3832	26.3672	45.2653	26.3672	45.4348	26.3672	45.4693	26.3672	45.6232	26.3672	45.8953	26.3672	46.0124	26.3672	46.5539	26.3672	46.6253	26.3672	47.4006	26.3672	47.4298	26.3672	48.358	26.3672	48.3555	26.3672	49.3467	26.3672	49.324	26.3672	50.303	26.3672	50.2698	26.3672	51.1825	26.3672	51.1462	26.3672	51.9564	26.3672	51.9222	26.3672	52.6065	26.3672	52.5778	26.3672	53.1213	26.3672	53.0995	26.3672	53.493	26.3672	53.4787	26.3672	53.7167	26.3672	53.7097	26.3672	53.7893
27.832	50.1298	27.832	50.0906	27.832	50.137	27.832	50.0316	27.832	50.115	27.832	49.9807	27.832	50.0817	27.832	49.9799	27.832	50.0697	27.832	50.0796	27.832	50.1235	27.832	50.3259	27.832	50.2907	27.832	50.7428	27.832	50.608	27.832	51.3202	27.832	51.0854	27.832	52.0174	27.832	51.7013	27.832	52.7775	27.832	52.4106	27.832	53.5443	27.832	53.1593	27.832	54.271	27.832	53.8973	27.832	54.9226	27.832	54.5837	27.832	55.4744	27.832	55.1875	27.832	55.9095	27.832	55.6863	27.832	56.2163	27.832	56.0642	27.832	56.3875	27.832	56.3106	27.832	56.4192
29.2969	53.2792	29.2969	53.2827	29.2969	53.2699	29.2969	53.2877	29.2969	53.2586	29.2969	53.3126	29.2969	53.2602	29.2969	53.3849	29.2969	53.2996	29.2969	53.5364	29.2969	53.4084	29.2969	53.7954	29.2969	53.6186	29.2969	54.1768	29.2969	53.9525	29.2969	54.6755	29.2969	54.4137	29.2969	55.2668	29.2969	54.9845	29.2969	55.9134	29.2969	55.6298	29.2969	56.5743	29.2969	56.3066	29.2969	57.2116	29.2969	56.9729	29.2969	57.794	29.2969	57.5924	29.2969	58.2969	29.2969	58.1364	29.2969	58.7018	29.2969	58.5832	29.2969	58.9952	29.2969	58.9175	29.2969	59.1675	29.2969	59.1292	29.2969	59.213
30.7617	55.1758	30.7617	55.158	30.7617	55.167	30.7617	55.1223	30.7617	55.1342	30.7617	55.0888	30.7617	55.0919	30.7617	55.088	30.7617	55.0667	30.7617	55.1574	30.7617	55.0948	30.7617	55.3338	30.7617	55.2164	30.7617	55.6418	30.7617	55.465	30.7617	56.0837	30.7617	55.8543	30.7617	56.6373	30.7617	56.3715	30.7617	57.2625	30.7617	56.9811	30.7617	57.9131	30.7617	57.636	30.7617	58.5458	30.7617	58.2894	30.7617	59.1256	30.7617	58.9016	30.7617	59.6257	30.7617	59.4415	30.7617	60.0268	30.7617	59.8868	30.7617	60.3155	30.7617	60.2217	30.7617	60.4829	30.7617	60.4358	30.7617	60.5235
32.2266	58.2949	32.2266	58.3131	32.2266	58.2846	32.2266	58.3439	32.2266	58.2867	32.2266	58.3999	32.2266	58.3144	32.2266	58.4997	32.2266	58.3881	32.2266	58.6643	32.2266	58.5314	32.2266	58.9115	32.2266	58.7656	32.2266	59.2506	32.2266	59.102	32.2266	59.6781	32.2266	59.5374	32.2266	60.1773	32.2266	60.0531	32.2266	60.7223	32.2266	60.6193	32.2266	61.2827	32.2266	61.2022	32.2266	61.8285	32.2266	61.769	32.2266	62.333	32.2266	62.2914	32.2266	62.7742	32.2266	62.7465	32.2266	63.1344	32.2266	63.1172	32.2266	63.4004	32.2266	63.3907	32.2266	63.563	32.2266	63.5587	32.2266	63.6166
33.6914	61.0234	33.6914	61.018	33.6914	61.0341	33.6914	61.0215	33.6914	61.0533	33.6914	61.0445	33.6914	61.0908	33.6914	61.1027	33.6914	61.1613	33.6914	61.2151	33.6914	61.2828	33.6914	61.3994	33.6914	61.4721	33.6914	61.6672	33.6914	61.7403	33.6914	62.0195	33.6914	62.0889	33.6914	62.4453	33.6914	62.5074	33.6914	62.923	33.6914	62.9756	33.6914	63.4252	33.6914	63.4673	33.6914	63.923	33.6914	63.9547	33.6914	64.3894	33.6914	64.4117	33.6914	64.8013	33.6914	64.8158	33.6914	65.1402	33.6914	65.1487	33.6914	65.3919	33.6914	65.3963	33.6914	65.5469	33.6914	65.5487	33.6914	65.5997
35.1562	63.4166	35.1562	63.4164	35.1562	63.432	35.1562	63.4349	35.1562	63.4646	35.1562	63.4812	35.1562	63.522	35.1562	63.5682	35.1562	63.616	35.1562	63.7102	35.1562	63.7598	35.1562	63.9191	35.1562	63.9651	35.1562	64.2009	35.1562	64.2386	35.1562	64.553	35.1562	64.5791	35.1562	64.9638	35.1562	64.9766	35.1562	65.4141	35.1562	65.4139	35.1562	65.8808	35.1562	65.8693	35.1562	66.3393	35.1562	66.3197	35.1562	66.7666	35.1562	66.7425	35.1562	67.1428	35.1562	67.118	35.1562	67.4511	35.1562	67.4291	35.1562	67.6789	35.1562	67.6626	35.1562	67.8172	35.1562	67.8085	35.1562	67.8609
36.6211	65.863	36.6211	65.8633	36.6211	65.8757	36.6211	65.8794	36.6211	65.9031	36.6211	65.9185	36.6211	65.9513	36.6211	65.9907	36.6211	66.0296	36.6211	66.1076	36.6211	66.1493	36.6211	66.2795	36.6211	66.3209	36.6211	66.5129	36.6211	66.5511	36.6211	66.8077	36.6211	66.8405	36.6211	67.1564	36.6211	67.1825	36.6211	67.5448	36.6211	67.5635	36.6211	67.9536	36.6211	67.9649	36.6211	68.3611	36.6211	68.366	36.6211	68.746	36.6211	68.7458	36.6211	69.0886	36.6211	69.0851	36.6211	69.3722	36.6211	69.3675	36.6211	69.5838	36.6211	69.5795	36.6211	69.7139	36.6211	69.7114	36.6211	69.7569
38.0859	68.1569	38.0859	68.1585	38.0859	68.1683	38.0859	68.1758	38.0859	68.1941	38.0859	68.2146	38.0859	68.2387	38.0859	68.2833	38.0859	68.3096	38.0859	68.3911	38.0859	68.4156	38.0859	68.5465	38.0859	68.5654	38.0859	68.7546	38.0859	68.7647	38.0859	69.0153	38.0859	69.015	38.0859	69.3226	38.0859	69.3116	38.0859	69.6646	38.0859	69.6443	38.0859	70.0251	38.0859	69.9981	38.0859	70.3856	38.0859	70.3551	38.0859	70.7272	38.0859	70.6965	38.0859	71.0323	38.0859	71.0044	38.0859	71.2856	38.0859	71.2628	38.0859	71.4746	38.0859	71.4585	38.0859	71.59	38.0859	71.5817	38.0859	71.6262
39.5508	70.3152	39.5508	70.3197	39.5508	70.3214	39.5508	70.3369	39.5508	70.3394	39.5508	70.3716	39.5508	70.3733	39.5508	70.4308	39.5508	70.4294	39.5508	70.5226	39.5508	70.5154	39.5508	70.6545	39.5508	70.6388	39.5508	70.8316	39.5508	70.8052	39.5508	71.0549	39.5508	71.0168	39.5508	71.3203	39.5508	71.271	39.5508	71.6182	39.5508	71.56	39.5508	71.9351	39.5508	71.8714	39.5508	72.2545	39.5508	72.1898	39.5508	72.5593	39.5508	72.498	39.5508	72.8329	39.5508	72.7789	39.5508	73.0604	39.5508	73.0171	39.5508	73.2297	39.5508	73.1995	39.5508	73.3317	39.5508	73.3162	39.5508	73.3611
41.0156	72.3764	41.0156	72.3746	41.0156	72.3897	41.0156	72.3856	41.0156	72.4158	41.0156	72.4132	41.0156	72.4579	41.0156	72.4632	41.0156	72.5214	41.0156	72.5422	41.0156	72.6122	41.0156	72.6568	41.0156	72.7358	41.0156	72.8115	41.0156	72.896	41.0156	73.0076	41.0156	73.0937	41.0156	73.2424	41.0156	73.3258	41.0156	73.5081	41.0156	73.5853	41.0156	73.7934	41.0156	73.8615	41.0156	74.084	41.0156	74.1412	41.0156	74.3643	41.0156	74.41	41.0156	74.6187	41.0156	74.6533	41.0156	74.8333	41.0156	74.8577	41.0156	74.9962	41.0156	75.0117	41.0156	75.099	41.0156	75.1064	41.0156	75.1362
42.4805	74.0276	42.4805	74.0294	42.4805	74.0363	42.4805	74.0436	42.4805	74.0558	42.4805	74.0736	42.4805	74.0885	42.4805	74.1246	42.4805	74.1384	42.4805	74.2023	42.4805	74.2105	42.4805	74.312	42.4805	74.3101	42.4805	74.4573	42.4805	74.4418	42.4805	74.6392	42.4805	74.6079	42.4805	74.8549	42.4805	74.8078	42.4805	75.0978	42.4805	75.037	42.4805	75.3577	42.4805	75.2871	42.4805	75.6217	42.4805	75.5465	42.4805	75.8756	42.4805	75.8016	42.4805	76.1048	42.4805	76.0376	42.4805	76.2959	42.4805	76.2407	42.4805	76.4378	42.4805	76.3986	42.4805	76.522	42.4805	76.5017	42.4805	76.5437
43.9453	75.7341	43.9453	75.7399	43.9453	75.7392	43.9453	75.7576	43.9453	75.7555	43.9453	75.7902	43.9453	75.7855	43.9453	75.8417	43.9453	75.8327	43.9453	75.9169	43.9453	75.9017	43.9453	76.0204	43.9453	75.9973	43.9453	76.1553	43.9453	76.1234	43.9453	76.3229	43.9453	76.2819	43.9453	76.5211	43.9453	76.4716	43.9453	76.7446	43.9453	76.6882	43.9453	76.9843	43.9453	76.9235	43.9453	77.2289	43.9453	77.1667	43.9453	77.465	43.9453	77.4051	43.9453	77.6789	43.9453	77.6251	43.9453	77.8581	43.9453	77.8139	43.9453	77.9917	43.9453	77.9603	43.9453	78.0716	43.9453	78.0554	43.9453	78.0933
45.4102	77.3505	45.4102	77.3577	45.4102	77.3545	45.4102	77.377	45.4102	77.3703	45.4102	77.4109	45.4102	77.4	45.4102	77.4627	45.4102	77.4469	45.4102	77.5365	45.4102	77.5147	45.4102	77.636	45.4102	77.6076	45.4102	77.7639	45.4102	77.7284	45.4102	77.921	45.4102	77.8784	45.4102	78.1052	45.4102	78.0562	45.4102	78.3117	45.4102	78.2574	45.4102	78.5325	45.4102	78.4749	45.4102	78.7571	45.4102	78.6989	45.4102	78.9738	45.4102	78.9181	45.4102	79.1701	45.4102	79.1203	45.4102	79.3346	45.4102	79.2938	45.4102	79.4573	45.4102	79.4284	45.4102	79.5308	45.4102	79.5158	45.4102	79.5506
46.875	78.8038	46.875	78.8085	46.875	78.8105	46.875	78.8253	46.875	78.829	46.875	78.8564	46.875	78.8608	46.875	78.9045	46.875	78.9084	46.875	78.9729	46.875	78.9749	46.875	79.0647	46.875	79.0634	46.875	79.182	46.875	79.1763	46.875	79.3253	46.875	79.3145	46.875	79.493	46.875	79.4769	46.875	79.6806	46.875	79.6597	46.875	79.8815	46.875	79.8569	46.875	80.0863	46.875	80.0597	46.875	80.2846	46.875	80.2579	46.875	80.4653	46.875	80.4407	46.875	80.6177	46.875	80.5972	46.875	80.7326	46.875	80.7179	46.875	80.8028	46.875	80.7952	46.875	80.8241
48.3398	80.0204	48.3398	80.0236	48.3398	80.027	48.3398	80.0375	48.3398	80.0435	48.3398	80.0642	48.3398	80.0712	48.3398	80.1063	48.3398	80.112	48.3398	80.1667	48.3398	80.1689	48.3398	80.2484	48.3398	80.2447	48.3398	80.3532	48.3398	80.3419	48.3398	80.4816	48.3398	80.462	48.3398	80.6323	48.3398	80.6046	48.3398	80.8015	48.3398	80.7668	48.3398	80.983	48.3398	80.9435	48.3398	81.1688	48.3398	81.1272	48.3398	81.3492	48.3398	81.3085	48.3398	81.5139	48.3398	81.4772	48.3398	81.653	48.3398	81.6228	48.3398	81.7575	48.3398	81.7362	48.3398	81.8208	48.3398	81.8097	48.3398	81.8386
51.2695	81.8416	51.2695	81.8497	51.2695	81.8447	51.2695	81.8694	51.2695	81.8593	51.2695	81.9016	51.2695	81.8862	51.2695	81.9476	51.2695	81.9269	51.2695	82.0091	51.2695	81.9829	51.2695	82.0872	51.2695	82.0558	51.2695	82.183	51.2695	82.1467	51.2695	82.2965	51.2695	82.256	51.2695	82.4262	51.2695	82.3827	51.2695	82.5694	51.2695	82.5241	51.2695	82.7213	51.2695	82.676	51.2695	82.8759	51.2695	82.8323	51.2695	83.0255	51.2695	82.9855	51.2695	83.162	51.2695	83.1275	51.2695	83.2773	51.2695	83.2498	51.2695	83.3641	51.2695	83.3449	51.2695	83.4165	51.2695	83.4067	51.2695	83.4311
52.7344	82.5519	52.7344	82.5597	52.7344	82.5553	52.7344	82.5789	52.7344	82.5701	52.7344	82.6102	52.7344	82.5968	52.7344	82.6546	52.7344	82.6364	52.7344	82.7132	52.7344	82.6902	52.7344	82.7868	52.7344	82.7592	52.7344	82.8762	52.7344	82.8441	52.7344	82.9809	52.7344	82.9451	52.7344	83.0998	52.7344	83.0612	52.7344	83.2301	52.7344	83.19	52.7344	83.3679	52.7344	83.3278	52.7344	83.5077	52.7344	83.4691	52.7344	83.6429	52.7344	83.6075	52.7344	83.7662	52.7344	83.7356	52.7344	83.8704	52.7344	83.846	52.7344	83.9488	52.7344	83.9319	52.7344	83.9963	52.7344	83.9876	52.7344	84.0096
54.1992	83.1259	54.1992	83.1328	54.1992	83.13	54.1992	83.1508	54.1992	83.1453	54.1992	83.1805	54.1992	83.1721	54.1992	83.2226	54.1992	83.2112	54.1992	83.2777	54.1992	83.2632	54.1992	83.3464	54.1992	83.3289	54.1992	83.4291	54.1992	83.4087	54.1992	83.5252	54.1992	83.5024	54.1992	83.6337	54.1992	83.609	54.1992	83.7521	54.1992	83.7264	54.1992	83.877	54.1992	83.8512	54.1992	84.0036	54.1992	83.9788	54.1992	84.1261	54.1992	84.1033	54.1992	84.2381	54.1992	84.2183	54.1992	84.333	54.1992	84.3172	54.1992	84.4048	54.1992	84.3938	54.1992	84.4488	54.1992	84.4431	54.1992	84.4619
55.6641	83.5941	55.6641	83.6024	55.6641	83.5964	55.6641	83.6215	55.6641	83.6094	55.6641	83.6514	55.6641	83.6335	55.6641	83.6925	55.6641	83.6691	55.6641	83.7452	55.6641	83.7168	55.6641	83.8097	55.6641	83.7769	55.6641	83.8861	55.6641	83.8499	55.6641	83.9738	55.6641	83.9353	55.6641	84.0718	55.6641	84.0323	55.6641	84.178	55.6641	84.1389	55.6641	84.2894	55.6641	84.2521	55.6641	84.402	55.6641	84.3678	55.6641	84.5107	55.6641	84.4806	55.6641	84.61	55.6641	84.585	55.6641	84.6941	55.6641	84.6748	55.6641	84.7577	55.6641	84.7445	55.6641	84.7963	55.6641	84.7897	55.6641	84.8073
58.5938	84.199	58.5938	84.2068	58.5938	84.2018	58.5938	84.2251	58.5938	84.2153	58.5938	84.2538	58.5938	84.2396	58.5938	84.2927	58.5938	84.2746	58.5938	84.3417	58.5938	84.3203	58.5938	84.4005	58.5938	84.3767	58.5938	84.4687	58.5938	84.4432	58.5938	84.5455	58.5938	84.5194	58.5938	84.6299	58.5938	84.6041	58.5938	84.7202	58.5938	84.6955	58.5938	84.8141	58.5938	84.7911	58.5938	84.9084	58.5938	84.8877	58.5938	84.9993	58.5938	84.9814	58.5938	85.0824	58.5938	85.0675	58.5938	85.1529	58.5938	85.1414	58.5938	85.2064	58.5938	85.1985	58.5938	85.2393	58.5938	85.2353	58.5938	85.2492
60.0586	84.413	60.0586	84.4184	60.0586	84.4176	60.0586	84.4339	60.0586	84.4323	60.0586	84.4591	60.0586	84.457	60.0586	84.4939	60.0586	84.4913	60.0586	84.5379	60.0586	84.535	60.0586	84.5906	60.0586	84.5878	60.0586	84.6516	60.0586	84.6489	60.0586	84.7199	60.0586	84.7177	60.0586	84.7948	60.0586	84.793	60.0586	84.8746	60.0586	84.8733	60.0586	84.9574	60.0586	84.9565	60.0586	85.0406	60.0586	85.04	60.0586	85.1208	60.0586	85.1205	60.0586	85.1944	60.0586	85.1941	60.0586	85.2572	60.0586	85.257	60.0586	85.3053	60.0586	85.3052	60.0586	85.3356	60.0586	85.3355	60.0586	85.346
62.9883	84.776	62.9883	84.7798	62.9883	84.7818	62.9883	84.7931	62.9883	84.7971	62.9883	84.8155	62.9883	84.8216	62.9883	84.8465	62.9883	84.8547	62.9883	84.8853	62.9883	84.8958	62.9883	84.9312	62.9883	84.9439	62.9883	84.9834	62.9883	84.9981	62.9883	85.0408	62.9883	85.0574	62.9883	85.1026	62.9883	85.1206	62.9883	85.1676	62.9883	85.1863	62.9883	85.234	62.9883	85.2529	62.9883	85.3002	62.9883	85.3183	62.9883	85.3637	62.9883	85.3804	62.9883	85.4219	62.9883	85.4363	62.9883	85.4718	62.9883	85.4832	62.9883	85.5106	62.9883	85.5185	62.9883	85.5358	62.9883	85.5398	62.9883	85.5457
64.4531	84.9019	64.4531	84.9043	64.4531	84.9091	64.4531	84.9162	64.4531	84.9258	64.4531	84.937	64.4531	84.9513	64.4531	84.9663	64.4531	84.9851	64.4531	85.0031	64.4531	85.0261	64.4531	85.0466	64.4531	85.0733	64.4531	85.0957	64.4531	85.1255	64.4531	85.1494	64.4531	85.1814	64.4531	85.2066	64.4531	85.2399	64.4531	85.266	64.4531	85.2997	64.4531	85.3264	64.4531	85.3592	64.4531	85.3861	64.4531	85.4169	64.4531	85.4431	64.4531	85.4707	64.4531	85.4951	64.4531	85.5186	64.4531	85.5399	64.4531	85.5583	64.4531	85.5749	64.4531	85.5875	64.4531	85.5982	64.4531	85.6046	64.4531	85.6083
67.3828	85.0969	67.3828	85.0996	67.3828	85.1038	67.3828	85.1117	67.3828	85.12	67.3828	85.1327	67.3828	85.145	67.3828	85.1615	67.3828	85.1778	67.3828	85.1971	67.3828	85.2172	67.3828	85.2383	67.3828	85.2617	67.3828	85.2837	67.3828	85.3099	67.3828	85.3319	67.3828	85.3602	67.3828	85.3816	67.3828	85.4112	67.3828	85.4317	67.3828	85.4615	67.3828	85.4809	67.3828	85.5098	67.3828	85.5281	67.3828	85.5549	67.3828	85.5719	67.3828	85.5956	67.3828	85.611	67.3828	85.6307	67.3828	85.6439	67.3828	85.6591	67.3828	85.6695	67.3828	85.6797	67.3828	85.6863	67.3828	85.6915	67.3828	85.6938
68.8477	85.2018	68.8477	85.2049	68.8477	85.2081	68.8477	85.2169	68.8477	85.2234	68.8477	85.2374	68.8477	85.247	68.8477	85.2652	68.8477	85.278	68.8477	85.2992	68.8477	85.3151	68.8477	85.3379	68.8477	85.3566	68.8477	85.3799	68.8477	85.4012	68.8477	85.4238	68.8477	85.4471	68.8477	85.4682	68.8477	85.4929	68.8477	85.512	68.8477	85.5373	68.8477	85.5541	68.8477	85.5791	68.8477	85.5937	68.8477	85.6174	68.8477	85.6299	68.8477	85.6512	68.8477	85.6618	68.8477	85.6798	68.8477	85.6885	68.8477	85.7025	68.8477	85.7092	68.8477	85.7187	68.8477	85.7229	68.8477	85.7277	68.8477	85.7291
71.7773	85.4106	71.7773	85.4108	71.7773	85.419	71.7773	85.4193	71.7773	85.4357	71.7773	85.4356	71.7773	85.4598	71.7773	85.4585	71.7773	85.4902	71.7773	85.4867	71.7773	85.5252	71.7773	85.5187	71.7773	85.5632	71.7773	85.5528	71.7773	85.6024	71.7773	85.5876	71.7773	85.6411	71.7773	85.6218	71.7773	85.6777	71.7773	85.6543	71.7773	85.7111	71.7773	85.6845	71.7773	85.7402	71.7773	85.7119	71.7773	85.7646	71.7773	85.7364	71.7773	85.7841	71.7773	85.7579	71.7773	85.7986	71.7773	85.7762	71.7773	85.8083	71.7773	85.7911	71.7773	85.8133	71.7773	85.8026	71.7773	85.8139	71.7773	85.8102
74.707	85.5796	74.707	85.5783	74.707	85.5888	74.707	85.5846	74.707	85.6055	74.707	85.5979	74.707	85.6288	74.707	85.617	74.707	85.6574	74.707	85.6405	74.707	85.6896	74.707	85.6666	74.707	85.7234	74.707	85.6937	74.707	85.7569	74.707	85.7203	74.707	85.7883	74.707	85.7451	74.707	85.8159	74.707	85.7672	74.707	85.8387	74.707	85.7862	74.707	85.8559	74.707	85.8021	74.707	85.8676	74.707	85.8151	74.707	85.8741	74.707	85.8259	74.707	85.876	74.707	85.8351	74.707	85.8744	74.707	85.8432	74.707	85.8703	74.707	85.8508	74.707	85.8646	74.707	85.8579
77.6367	85.6664	77.6367	85.6663	77.6367	85.6738	77.6367	85.6734	77.6367	85.6882	77.6367	85.6869	77.6367	85.7088	77.6367	85.7056	77.6367	85.7341	77.6367	85.7279	77.6367	85.7625	77.6367	85.7522	77.6367	85.7921	77.6367	85.7767	77.6367	85.8209	77.6367	85.7999	77.6367	85.8473	77.6367	85.8204	77.6367	85.8696	77.6367	85.8374	77.6367	85.887	77.6367	85.8507	77.6367	85.8988	77.6367	85.8603	77.6367	85.9052	77.6367	85.8667	77.6367	85.9069	77.6367	85.8709	77.6367	85.9049	77.6367	85.8738	77.6367	85.9004	77.6367	85.8765	77.6367	85.8946	77.6367	85.8796	77.6367	85.8888	77.6367	85.8837
79.1016	85.6924	79.1016	85.6936	79.1016	85.6986	79.1016	85.7019	79.1016	85.7118	79.1016	85.7164	79.1016	85.7311	79.1016	85.7359	79.1016	85.7552	79.1016	85.7587	79.1016	85.7824	79.1016	85.783	79.1016	85.8108	79.1016	85.807	79.1016	85.8383	79.1016	85.829	79.1016	85.8631	79.1016	85.8477	79.1016	85.8838	79.1016	85.8624	79.1016	85.8992	79.1016	85.8728	79.1016	85.9089	79.1016	85.879	79.1016	85.9131	79.1016	85.8818	79.1016	85.9126	79.1016	85.8824	79.1016	85.9085	79.1016	85.8819	79.1016	85.9024	79.1016	85.8816	79.1016	85.8957	79.1016	85.8824	79.1016	85.8896	79.1016	85.885
82.0312	85.7448	82.0312	85.7466	82.0312	85.7498	82.0312	85.755	82.0312	85.7616	82.0312	85.7691	82.0312	85.779	82.0312	85.7875	82.0312	85.8009	82.0312	85.8087	82.0312	85.8254	82.0312	85.8307	82.0312	85.8506	82.0312	85.8516	82.0312	85.8743	82.0312	85.8699	82.0312	85.8946	82.0312	85.8841	82.0312	85.91	82.0312	85.8933	82.0312	85.9196	82.0312	85.8974	82.0312	85.9229	82.0312	85.8966	82.0312	85.9205	82.0312	85.8921	82.0312	85.9134	82.0312	85.8853	82.0312	85.9033	82.0312	85.878	82.0312	85.892	82.0312	85.8719	82.0312	85.8814	82.0312	85.8685	82.0312	85.8734	82.0312	85.8689
84.9609	85.7867	84.9609	85.7898	84.9609	85.7902	84.9609	85.7993	84.9609	85.8002	84.9609	85.814	84.9609	85.8158	84.9609	85.8326	84.9609	85.8356	84.9609	85.8533	84.9609	85.8579	84.9609	85.874	84.9609	85.8804	84.9609	85.8927	84.9609	85.9011	84.9609	85.9076	84.9609	85.9178	84.9609	85.9172	84.9609	85.929	84.9609	85.9207	84.9609	85.9335	84.9609	85.918	84.9609	85.9313	84.9609	85.9096	84.9609	85.9227	84.9609	85.8971	84.9609	85.9092	84.9609	85.8824	84.9609	85.8929	84.9609	85.8678	84.9609	85.8762	84.9609	85.8558	84.9609	85.8616	84.9609	85.8483	84.9609	85.8513	84.9609	85.8466
87.8906	85.8724	87.8906	85.8757	87.8906	85.8734	87.8906	85.8829	87.8906	85.8787	87.8906	85.8932	87.8906	85.8875	87.8906	85.9052	87.8906	85.8986	87.8906	85.917	87.8906	85.9106	87.8906	85.9269	87.8906	85.9214	87.8906	85.933	87.8906	85.9293	87.8906	85.9335	87.8906	85.9324	87.8906	85.9274	87.8906	85.9292	87.8906	85.9141	87.8906	85.919	87.8906	85.8939	87.8906	85.9016	87.8906	85.8681	87.8906	85.878	87.8906	85.8389	87.8906	85.8499	87.8906	85.8092	87.8906	85.8201	87.8906	85.782	87.8906	85.7916	87.8906	85.7606	87.8906	85.7677	87.8906	85.7474	87.8906	85.7512	87.8906	85.7442
90.8203	85.8569	90.8203	85.8599	90.8203	85.8579	90.8203	85.8665	90.8203	85.8628	90.8203	85.8759	90.8203	85.8707	90.8203	85.8865	90.8203	85.8805	90.8203	85.8967	90.8203	85.8904	90.8203	85.9044	90.8203	85.8985	90.8203	85.9078	90.8203	85.9027	90.8203	85.9052	90.8203	85.9013	90.8203	85.8953	90.8203	85.8929	90.8203	85.8776	90.8203	85.8769	90.8203	85.8525	90.8203	85.8536	90.8203	85.8214	90.8203	85.824	90.8203	85.7866	90.8203	85.7904	90.8203	85.7512	90.8203	85.7556	90.8203	85.7189	90.8203	85.7232	90.8203	85.6931	90.8203	85.6965	90.8203	85.6768	90.8203	85.6787	90.8203	85.6718
95.2148	85.8151	95.2148	85.816	95.2148	85.8188	95.2148	85.8212	95.2148	85.8269	95.2148	85.8297	95.2148	85.8386	95.2148	85.8402	95.2148	85.8528	95.2148	85.8511	95.2148	85.8675	95.2148	85.8602	95.2148	85.8806	95.2148	85.8655	95.2148	85.8899	95.2148	85.8651	95.2148	85.893	95.2148	85.8574	95.2148	85.8881	95.2148	85.8416	95.2148	85.874	95.2148	85.8178	95.2148	85.8506	95.2148	85.7873	95.2148	85.8189	95.2148	85.7524	95.2148	85.7814	95.2148	85.7164	95.2148	85.7415	95.2148	85.6833	95.2148	85.7033	95.2148	85.6572	95.2148	85.671	95.2148	85.6414	95.2148	85.6485	95.2148	85.6383
98.1445	85.7697	98.1445	85.7704	98.1445	85.7734	98.1445	85.7751	98.1445	85.7812	98.1445	85.783	98.1445	85.7923	98.1445	85.7927	98.1445	85.8055	98.1445	85.8026	98.1445	85.8191	98.1445	85.8105	98.1445	85.831	98.1445	85.8144	98.1445	85.839	98.1445	85.8124	98.1445	85.8411	98.1445	85.803	98.1445	85.8355	98.1445	85.7853	98.1445	85.821	98.1445	85.7596	98.1445	85.7976	98.1445	85.7272	98.1445	85.766	98.1445	85.6907	98.1445	85.7284	98.1445	85.6537	98.1445	85.6881	98.1445	85.6203	98.1445	85.649	98.1445	85.5947	98.1445	85.6154	98.1445	85.5801	98.1445	85.591	98.1445	85.5788
101.074	85.7221	101.074	85.723	101.074	85.7252	101.074	85.7273	101.074	85.7321	101.074	85.7342	101.074	85.742	101.074	85.7423	101.074	85.7537	101.074	85.7497	101.074	85.7654	101.074	85.7543	101.074	85.775	101.074	85.7542	101.074	85.7804	101.074	85.7475	101.074	85.7794	101.074	85.7327	101.074	85.7703	101.074	85.7094	101.074	85.7521	101.074	85.6781	101.074	85.7248	101.074	85.6404	101.074	85.6893	101.074	85.5993	101.074	85.648	101.074	85.5587	101.074	85.6041	101.074	85.523	101.074	85.5615	101.074	85.4965	101.074	85.5246	101.074	85.4824	101.074	85.4972	101.074	85.4826
105.469	85.7323	105.469	85.7332	105.469	85.7311	105.469	85.7335	105.469	85.7295	105.469	85.7329	105.469	85.7269	105.469	85.7306	105.469	85.7228	105.469	85.7257	105.469	85.716	105.469	85.7171	105.469	85.7053	105.469	85.7035	105.469	85.6893	105.469	85.6836	105.469	85.6665	105.469	85.6565	105.469	85.6361	105.469	85.6215	105.469	85.5977	105.469	85.579	105.469	85.5519	105.469	85.5302	105.469	85.5007	105.469	85.4774	105.469	85.4469	105.469	85.4241	105.469	85.3947	105.469	85.3744	105.469	85.3488	105.469	85.3328	105.469	85.3138	105.469	85.3035	105.469	85.2934	105.469	85.2899
108.398	85.7402	108.398	85.7341	108.398	85.7473	108.398	85.7286	108.398	85.755	108.398	85.723	108.398	85.7625	108.398	85.7163	108.398	85.7686	108.398	85.7068	108.398	85.7715	108.398	85.6931	108.398	85.7692	108.398	85.6735	108.398	85.7595	108.398	85.6465	108.398	85.7403	108.398	85.6112	108.398	85.7099	108.398	85.5675	108.398	85.6677	108.398	85.5162	108.398	85.6139	108.398	85.4595	108.398	85.5505	108.398	85.4006	108.398	85.4808	108.398	85.3437	108.398	85.41	108.398	85.2938	108.398	85.3441	108.398	85.2557	108.398	85.2893	108.398	85.2341	108.398	85.2508	108.398	85.2321
112.793	85.6707	112.793	85.6674	112.793	85.6747	112.793	85.6643	112.793	85.679	112.793	85.661	112.793	85.6832	112.793	85.6563	112.793	85.6865	112.793	85.649	112.793	85.6875	112.793	85.6374	112.793	85.6846	112.793	85.6199	112.793	85.6761	112.793	85.5948	112.793	85.6599	112.793	85.5611	112.793	85.6344	112.793	85.5185	112.793	85.5984	112.793	85.4678	112.793	85.5518	112.793	85.411	112.793	85.4957	112.793	85.3517	112.793	85.4329	112.793	85.2946	112.793	85.3675	112.793	85.2451	112.793	85.305	112.793	85.2086	112.793	85.2513	112.793	85.1895	112.793	85.2117	112.793	85.1904
117.188	85.6359	117.188	85.6344	117.188	85.6354	117.188	85.6309	117.188	85.6329	117.188	85.625	117.188	85.6282	117.188	85.6163	117.188	85.6209	117.188	85.6043	117.188	85.6105	117.188	85.588	117.188	85.5957	117.188	85.5662	117.188	85.5754	117.188	85.5378	117.188	85.5481	117.188	85.5015	117.188	85.5127	117.188	85.4568	117.188	85.4685	117.188	85.404	117.188	85.4157	117.188	85.3447	117.188	85.3559	117.188	85.2819	117.188	85.2923	117.188	85.2198	117.188	85.229	117.188	85.1638	117.188	85.1714	117.188	85.1194	117.188	85.1248	117.188	85.0911	117.188	85.094	117.188	85.0823
120.117	85.591	120.117	85.5878	120.117	85.5915	120.117	85.5817	120.117	85.5894	120.117	85.5725	120.117	85.5845	120.117	85.5596	120.117	85.5764	120.117	85.5425	120.117	85.5643	120.117	85.5203	120.117	85.5473	120.117	85.4922	120.117	85.5242	120.117	85.4572	120.117	85.4938	120.117	85.4148	120.117	85.4549	120.117	85.3651	120.117	85.4073	120.117	85.3088	120.117	85.3516	120.117	85.248	120.117	85.2895	120.117	85.1857	120.117	85.2243	120.117	85.1262	120.117	85.16	120.117	85.0743	120.117	85.1015	120.117	85.0345	120.117	85.0537	120.117	85.011	120.117	85.0209	120.117	85.0063
124.512	85.5105	124.512	85.5067	124.512	85.5116	124.512	85.5002	124.512	85.5097	124.512	85.4908	124.512	85.5045	124.512	85.4781	124.512	85.4956	124.512	85.4611	124.512	85.4823	124.512	85.4388	124.512	85.4638	124.512	85.4098	124.512	85.4391	124.512	85.373	124.512	85.4071	124.512	85.3274	124.512	85.3668	124.512	85.2731	124.512	85.3178	124.512	85.2113	124.512	85.2601	124.512	85.1444	124.512	85.1955	124.512	85.0763	124.512	85.1268	124.512	85.0117	124.512	85.0583	124.512	84.9561	124.512	84.995	124.512	84.9144	124.512	84.9425	124.512	84.8908	124.512	84.9055	124.512	84.8877
128.906	85.4188	128.906	85.4106	128.906	85.4238	128.906	85.3993	128.906	85.4254	128.906	85.385	128.906	85.4234	128.906	85.3676	128.906	85.4176	128.906	85.3467	128.906	85.4073	128.906	85.3217	128.906	85.3919	128.906	85.2915	128.906	85.3704	128.906	85.2551	128.906	85.3414	128.906	85.2115	128.906	85.304	128.906	85.1603	128.906	85.2573	128.906	85.1022	128.906	85.2013	128.906	85.0392	128.906	85.1371	128.906	84.9746	128.906	85.0673	128.906	84.9133	128.906	84.9959	128.906	84.8606	128.906	84.9284	128.906	84.8223	128.906	84.8704	128.906	84.8026	128.906	84.8276	128.906	84.8043
133.301	85.325	133.301	85.3197	133.301	85.3262	133.301	85.3105	133.301	85.3234	133.301	85.2974	133.301	85.3167	133.301	85.2807	133.301	85.3059	133.301	85.2601	133.301	85.291	133.301	85.2353	133.301	85.2715	133.301	85.2058	133.301	85.2467	133.301	85.1707	133.301	85.2157	133.301	85.1292	133.301	85.1777	133.301	85.0809	133.301	85.1321	133.301	85.0262	133.301	85.079	133.301	84.9665	133.301	85.0195	133.301	84.9048	133.301	84.9558	133.301	84.8452	133.301	84.8916	133.301	84.793	133.301	84.8317	133.301	84.7532	133.301	84.7812	133.301	84.7306	133.301	84.7453	133.301	84.7278
139.16	85.2233	139.16	85.2235	139.16	85.2168	139.16	85.2173	139.16	85.2047	139.16	85.2045	139.16	85.1873	139.16	85.1851	139.16	85.1652	139.16	85.1592	139.16	85.1386	139.16	85.127	139.16	85.1075	139.16	85.0886	139.16	85.0716	139.16	85.0441	139.16	85.0303	139.16	84.9934	139.16	84.9832	139.16	84.9369	139.16	84.93	139.16	84.8753	139.16	84.8715	139.16	84.8103	139.16	84.8091	139.16	84.7445	139.16	84.7455	139.16	84.6817	139.16	84.6843	139.16	84.6263	139.16	84.6297	139.16	84.583	139.16	84.5861	139.16	84.5558	139.16	84.5576	139.16	84.5471
143.555	85.1476	143.555	85.1445	143.555	85.1434	143.555	85.134	143.555	85.132	143.555	85.1163	143.555	85.1139	143.555	85.0917	143.555	85.0896	143.555	85.0602	143.555	85.0595	143.555	85.0223	143.555	85.024	143.555	84.978	143.555	84.9833	143.555	84.9278	143.555	84.9374	143.555	84.8719	143.555	84.8863	143.555	84.8112	143.555	84.8302	143.555	84.7466	143.555	84.7697	143.555	84.6803	143.555	84.7063	143.555	84.6149	143.555	84.6423	143.555	84.5542	143.555	84.5808	143.555	84.5023	143.555	84.5256	143.555	84.4633	143.555	84.4808	143.555	84.4406	143.555	84.4499	143.555	84.436
147.949	85.0837	147.949	85.0771	147.949	85.0824	147.949	85.0626	147.949	85.0732	147.949	85.0405	147.949	85.0566	147.949	85.011	147.949	85.033	147.949	84.9744	147.949	85.0027	147.949	84.9309	147.949	84.9661	147.949	84.8807	147.949	84.9232	147.949	84.8242	147.949	84.8743	147.949	84.7618	147.949	84.8192	147.949	84.6947	147.949	84.7584	147.949	84.6246	147.949	84.6927	147.949	84.5539	147.949	84.6238	147.949	84.4858	147.949	84.554	147.949	84.4242	147.949	84.4865	147.949	84.3733	147.949	84.4252	147.949	84.3368	147.949	84.3743	147.949	84.3179	147.949	84.3376	147.949	84.3182
153.809	85.064	153.809	85.0543	153.809	85.0626	153.809	85.034	153.809	85.0506	153.809	85.004	153.809	85.0286	153.809	84.9655	153.809	84.9978	153.809	84.9196	153.809	84.9593	153.809	84.8674	153.809	84.9137	153.809	84.8094	153.809	84.8613	153.809	84.746	153.809	84.802	153.809	84.6774	153.809	84.7356	153.809	84.6044	153.809	84.6626	153.809	84.5282	153.809	84.5846	153.809	84.4515	153.809	84.5041	153.809	84.3776	153.809	84.4247	153.809	84.3106	153.809	84.3509	153.809	84.2548	153.809	84.2868	153.809	84.214	153.809	84.2363	153.809	84.1909	153.809	84.2023	153.809	84.1869
159.668	84.9967	159.668	84.9855	159.668	84.9956	159.668	84.963	159.668	84.982	159.668	84.9306	159.668	84.9565	159.668	84.8902	159.668	84.9206	159.668	84.8437	159.668	84.876	159.668	84.7926	159.668	84.8246	159.668	84.738	159.668	84.7683	159.668	84.6805	159.668	84.7081	159.668	84.62	159.668	84.6449	159.668	84.5567	159.668	84.5792	159.668	84.491	159.668	84.5117	159.668	84.424	159.668	84.4435	159.668	84.3579	159.668	84.3765	159.668	84.2959	159.668	84.3134	159.668	84.2423	159.668	84.2576	159.668	84.2013	159.668	84.2129	159.668	84.1765	159.668	84.1828	159.668	84.1702
165.527	85.1569	165.527	85.1393	165.527	85.16	165.527	85.1081	165.527	85.1485	165.527	85.065	165.527	85.1233	165.527	85.0121	165.527	85.0861	165.527	84.9515	165.527	85.0387	165.527	84.8852	165.527	84.9833	165.527	84.8149	165.527	84.9213	165.527	84.7422	165.527	84.8539	165.527	84.6686	165.527	84.7821	165.527	84.5958	165.527	84.707	165.527	84.5258	165.527	84.63	165.527	84.4606	165.527	84.5536	165.527	84.4023	165.527	84.4808	165.527	84.3528	165.527	84.4149	165.527	84.3138	165.527	84.3593	165.527	84.2867	165.527	84.3161	165.527	84.2726	165.527	84.287	165.527	84.2725
171.387	85.1385	171.387	85.1258	171.387	85.1352	171.387	85.0978	171.387	85.1163	171.387	85.0562	171.387	85.0829	171.387	85.0029	171.387	85.0371	171.387	84.9404	171.387	84.9811	171.387	84.8706	171.387	84.9171	171.387	84.7954	171.387	84.847	171.387	84.7163	171.387	84.7721	171.387	84.6349	171.387	84.6934	171.387	84.553	171.387	84.6118	171.387	84.4725	171.387	84.5287	171.387	84.3962	171.387	84.4463	171.387	84.3267	171.387	84.3676	171.387	84.2663	171.387	84.2966	171.387	84.2173	171.387	84.2372	171.387	84.1812	171.387	84.1925	171.387	84.1596	171.387	84.1644	171.387	84.1536
177.246	85.0616	177.246	85.05	177.246	85.0547	177.246	85.0205	177.246	85.0305	177.246	84.9745	177.246	84.991	177.246	84.9147	177.246	84.9394	177.246	84.8439	177.246	84.8787	177.246	84.7649	177.246	84.8115	177.246	84.6798	177.246	84.7395	177.246	84.5902	177.246	84.6636	177.246	84.4976	177.246	84.5838	177.246	84.4036	177.246	84.5003	177.246	84.3106	177.246	84.414	177.246	84.2219	177.246	84.3266	177.246	84.1412	177.246	84.241	177.246	84.0725	177.246	84.161	177.246	84.0191	177.246	84.0907	177.246	83.9836	177.246	84.0337	177.246	83.9672	177.246	83.993	177.246	83.9704
183.105	84.9662	183.105	84.9659	183.105	84.9475	183.105	84.9466	183.105	84.9108	183.105	84.9096	183.105	84.8587	183.105	84.8573	183.105	84.7949	183.105	84.7927	183.105	84.7233	183.105	84.7192	183.105	84.6483	183.105	84.6404	183.105	84.5735	183.105	84.5591	183.105	84.5016	183.105	84.4776	183.105	84.4339	183.105	84.3976	183.105	84.3709	183.105	84.3207	183.105	84.3119	183.105	84.2485	183.105	84.2564	183.105	84.1831	183.105	84.204	183.105	84.127	183.105	84.1551	183.105	84.0827	183.105	84.1115	183.105	84.0521	183.105	84.0753	183.105	84.0364	183.105	84.0493	183.105	84.0358
188.965	84.9745	188.965	84.9727	188.965	84.955	188.965	84.9506	188.965	84.9143	188.965	84.9101	188.965	84.8544	188.965	84.8537	188.965	84.7783	188.965	84.7841	188.965	84.6897	188.965	84.7039	188.965	84.5927	188.965	84.6156	188.965	84.4912	188.965	84.5224	188.965	84.3887	188.965	84.4276	188.965	84.2888	188.965	84.335	188.965	84.1953	188.965	84.2485	188.965	84.1123	188.965	84.1714	188.965	84.0435	188.965	84.1056	188.965	83.9914	188.965	84.052	188.965	83.9565	188.965	84.0102	188.965	83.937	188.965	83.9788	188.965	83.9298	188.965	83.9562	188.965	83.9318	188.965	83.9408
196.289	85.0134	196.289	85.001	196.289	85.001	196.289	84.966	196.289	84.9639	196.289	84.9123	196.289	84.9042	196.289	84.8448	196.289	84.8263	196.289	84.7686	196.289	84.7357	196.289	84.6878	196.289	84.6382	196.289	84.605	196.289	84.5392	196.289	84.521	196.289	84.442	196.289	84.4356	196.289	84.3483	196.289	84.3485	196.289	84.2582	196.289	84.2607	196.289	84.1715	196.289	84.1744	196.289	84.089	196.289	84.0928	196.289	84.013	196.289	84.0194	196.289	83.9475	196.289	83.957	196.289	83.8965	196.289	83.9074	196.289	83.863	196.289	83.8719	196.289	83.8483	196.289	83.8517
203.613	85.0246	203.613	85.005	203.613	85.0092	203.613	84.9529	203.613	84.9596	203.613	84.8734	203.613	84.8795	203.613	84.7739	203.613	84.7748	203.613	84.6626	203.613	84.6533	203.613	84.5477	203.613	84.5237	203.613	84.4353	203.613	84.394	203.613	84.3292	203.613	84.2713	203.613	84.2308	203.613	84.161	203.613	84.1399	203.613	84.066	203.613	84.0563	203.613	83.9871	203.613	83.9808	203.613	83.9233	203.613	83.9149	203.613	83.8727	203.613	83.8608	203.613	83.8334	203.613	83.8196	203.613	83.8038	203.613	83.7913	203.613	83.7834	203.613	83.7748	203.613	83.7716	203.613	83.7686
210.938	85.1475	210.938	85.1162	210.938	85.1434	210.938	85.0506	210.938	85.1053	210.938	84.9544	210.938	85.0363	210.938	84.8337	210.938	84.9415	210.938	84.6971	210.938	84.8274	210.938	84.5544	210.938	84.7013	210.938	84.4148	210.938	84.5704	210.938	84.2855	210.938	84.4413	210.938	84.1713	210.938	84.3188	210.938	84.0742	210.938	84.2065	210.938	83.9944	210.938	84.1067	210.938	83.9309	210.938	84.0207	210.938	83.8822	210.938	83.9494	210.938	83.8464	210.938	83.893	210.938	83.8214	210.938	83.8509	210.938	83.8055	210.938	83.822	210.938	83.7974	210.938	83.8046	210.938	83.7969
218.262	85.0144	218.262	84.9918	218.262	85.0082	218.262	84.9417	218.262	84.9735	218.262	84.8666	218.262	84.9123	218.262	84.7704	218.262	84.8284	218.262	84.6583	218.262	84.7271	218.262	84.5361	218.262	84.6153	218.262	84.4098	218.262	84.4997	218.262	84.2849	218.262	84.3869	218.262	84.1661	218.262	84.282	218.262	84.0573	218.262	84.1882	218.262	83.9623	218.262	84.1071	218.262	83.8851	218.262	84.0386	218.262	83.8285	218.262	83.9813	218.262	83.7936	218.262	83.9336	218.262	83.7783	218.262	83.8937	218.262	83.7786	218.262	83.8601	218.262	83.7899	218.262	83.8318	218.262	83.8082
225.586	85.0504	225.586	85.0409	225.586	85.023	225.586	84.9947	225.586	84.961	225.586	84.9146	225.586	84.8685	225.586	84.8061	225.586	84.7515	225.586	84.6779	225.586	84.6173	225.586	84.5407	225.586	84.4754	225.586	84.406	225.586	84.3363	225.586	84.284	225.586	84.2108	225.586	84.1819	225.586	84.1088	225.586	84.1028	225.586	84.0368	225.586	84.0456	225.586	83.9958	225.586	84.0068	225.586	83.9815	225.586	83.9823	225.586	83.9849	225.586	83.9691	225.586	83.9958	225.586	83.9652	225.586	84.005	225.586	83.9692	225.586	84.0074	225.586	83.979	225.586	84.0021	225.586	83.9913
232.91	85.1332	232.91	85.1288	232.91	85.0954	232.91	85.084	232.91	85.0158	232.91	85.003	232.91	84.8978	232.91	84.8917	232.91	84.748	232.91	84.7579	232.91	84.5752	232.91	84.6105	232.91	84.3902	232.91	84.4586	232.91	84.2042	232.91	84.3106	232.91	84.0288	232.91	84.1741	232.91	83.8755	232.91	84.0559	232.91	83.7548	232.91	83.9621	232.91	83.6747	232.91	83.8966	232.91	83.6376	232.91	83.8594	232.91	83.6395	232.91	83.8461	232.91	83.6701	232.91	83.8476	232.91	83.7166	232.91	83.8531	232.91	83.7663	232.91	83.8523	232.91	83.809	232.91	83.8384
241.699	85.1542	241.699	85.1208	241.699	85.1417	241.699	85.0449	241.699	85.0824	241.699	84.9318	241.699	84.9785	241.699	84.7892	241.699	84.8353	241.699	84.6266	241.699	84.6615	241.699	84.4551	241.699	84.4674	241.699	84.2852	241.699	84.2644	241.699	84.1258	241.699	84.0633	241.699	83.983	241.699	83.8744	241.699	83.8605	241.699	83.7081	241.699	83.7604	241.699	83.5745	241.699	83.6837	241.699	83.4817	241.699	83.6302	241.699	83.4326	241.699	83.5972	241.699	83.423	241.699	83.5793	241.699	83.4419	241.699	83.5687	241.699	83.4754	241.699	83.5573	241.699	83.5105	241.699	83.5387
250.488	85.05	250.488	85.0226	250.488	85.0275	250.488	84.9472	250.488	84.9569	250.488	84.8281	250.488	84.8429	250.488	84.6727	250.488	84.6933	250.488	84.4911	250.488	84.5182	250.488	84.2966	250.488	84.3288	250.488	84.1052	250.488	84.1371	250.488	83.9325	250.488	83.955	250.488	83.7892	250.488	83.7936	250.488	83.6781	250.488	83.6625	250.488	83.5951	250.488	83.5678	250.488	83.5332	250.488	83.5104	250.488	83.4873	250.488	83.4845	250.488	83.456	250.488	83.4792	250.488	83.4398	250.488	83.4817	250.488	83.4381	250.488	83.482	250.488	83.4475	250.488	83.4751	250.488	83.4621
259.277	85.4292	259.277	85.3963	259.277	85.4038	259.277	85.3064	259.277	85.3214	259.277	85.1632	259.277	85.1864	259.277	84.9726	259.277	85.0069	259.277	84.744	259.277	84.7943	259.277	84.4908	259.277	84.5624	259.277	84.2304	259.277	84.3263	259.277	83.9842	259.277	84.0998	259.277	83.7743	259.277	83.8951	259.277	83.618	259.277	83.7221	259.277	83.5223	259.277	83.5888	259.277	83.4805	259.277	83.5009	259.277	83.4761	259.277	83.4585	259.277	83.4907	259.277	83.4542	259.277	83.5104	259.277	83.4739	259.277	83.5273	259.277	83.5016	259.277	83.537	259.277	83.5247	259.277	83.5368
268.066	85.3401	268.066	85.3067	268.066	85.31	268.066	85.2155	268.066	85.2162	268.066	85.0765	268.066	85.0639	268.066	84.9013	268.066	84.8633	268.066	84.7013	268.066	84.6273	268.066	84.4855	268.066	84.3711	268.066	84.2616	268.066	84.1105	268.066	84.0372	268.066	83.8613	268.066	83.8236	268.066	83.6388	268.066	83.6361	268.066	83.4566	268.066	83.4918	268.066	83.3274	268.066	83.4023	268.066	83.2605	268.066	83.3685	268.066	83.2575	268.066	83.3798	268.066	83.3067	268.066	83.4189	268.066	83.3839	268.066	83.4674	268.066	83.4598	268.066	83.5082	268.066	83.5108	268.066	83.5263
276.855	85.2735	276.855	85.234	276.855	85.2699	276.855	85.1495	276.855	85.2213	276.855	85.0159	276.855	85.1241	276.855	84.8295	276.855	84.976	276.855	84.5919	276.855	84.7782	276.855	84.3144	276.855	84.5384	276.855	84.0187	276.855	84.2711	276.855	83.7332	276.855	83.9969	276.855	83.486	276.855	83.7384	276.855	83.3001	276.855	83.5134	276.855	83.1904	276.855	83.3306	276.855	83.1615	276.855	83.1916	276.855	83.2033	276.855	83.0994	276.855	83.2883	276.855	83.0622	276.855	83.3776	276.855	83.0869	276.855	83.4337	276.855	83.1662	276.855	83.4334	276.855	83.2742	276.855	83.3742
287.109	85.4339	287.109	85.3886	287.109	85.3935	287.109	85.2595	287.109	85.2743	287.109	85.0593	287.109	85.0906	287.109	84.8113	287.109	84.8621	287.109	84.5453	287.109	84.6114	287.109	84.2903	287.109	84.3594	287.109	84.0656	287.109	84.1203	287.109	83.8785	287.109	83.8993	287.109	83.7272	287.109	83.6968	287.109	83.6072	287.109	83.5179	287.109	83.5151	287.109	83.3772	287.109	83.4495	287.109	83.2943	287.109	83.4105	287.109	83.2791	287.109	83.3982	287.109	83.3201	287.109	83.4101	287.109	83.3882	287.109	83.4389	287.109	83.4514	287.109	83.4717	287.109	83.4884	287.109	83.493
297.363	85.4219	297.363	85.412	297.363	85.3736	297.363	85.3464	297.363	85.2655	297.363	85.2283	297.363	85.0966	297.363	85.0615	297.363	84.8679	297.363	84.8514	297.363	84.5848	297.363	84.6057	297.363	84.2611	297.363	84.3362	297.363	83.9217	297.363	84.0596	297.363	83.6011	297.363	83.7981	297.363	83.3354	297.363	83.5785	297.363	83.1509	297.363	83.4294	297.363	83.0571	297.363	83.3723	297.363	83.0483	297.363	83.4092	297.363	83.1104	297.363	83.5148	297.363	83.2257	297.363	83.6439	297.363	83.3742	297.363	83.7482	297.363	83.5319	297.363	83.7932	297.363	83.6714	297.363	83.7654
307.617	85.7522	307.617	85.7038	307.617	85.7133	307.617	85.5729	307.617	85.5879	307.617	85.3688	307.617	85.3826	307.617	85.1062	307.617	85.1081	307.617	84.8053	307.617	84.7772	307.617	84.4921	307.617	84.4059	307.617	84.1942	307.617	84.0155	307.617	83.9334	307.617	83.6354	307.617	83.7182	307.617	83.302	307.617	83.5439	307.617	83.0499	307.617	83.4009	307.617	82.9002	307.617	83.2868	307.617	82.8528	307.617	83.2114	307.617	82.8884	307.617	83.188	307.617	82.9784	307.617	83.2165	307.617	83.0934	307.617	83.2739	307.617	83.2065	307.617	83.3237	307.617	83.2932	307.617	83.3344
319.336	85.6791	319.336	85.6145	319.336	85.6561	319.336	85.4609	319.336	85.5486	319.336	85.2188	319.336	85.3616	319.336	84.8919	319.336	85.1027	319.336	84.4909	319.336	84.7836	319.336	84.0381	319.336	84.4212	319.336	83.572	319.336	84.0392	319.336	83.1489	319.336	83.6669	319.336	82.8334	319.336	83.3363	319.336	82.6712	319.336	83.077	319.336	82.66	319.336	82.91	319.336	82.7487	319.336	82.8411	319.336	82.8722	319.336	82.8578	319.336	82.9871	319.336	82.9325	319.336	83.0794	319.336	83.0315	319.336	83.1499	319.336	83.1244	319.336	83.1973	319.336	83.1888	319.336	83.213
329.59	85.4888	329.59	85.4373	329.59	85.4783	329.59	85.3289	329.59	85.3989	329.59	85.1639	329.59	85.2466	329.59	84.9375	329.59	85.0222	329.59	84.644	329.59	84.7311	329.59	84.2813	329.59	84.3811	329.59	83.8569	329.59	83.9829	329.59	83.394	329.59	83.5538	329.59	82.9403	329.59	83.1235	329.59	82.57	329.59	82.7371	329.59	82.3635	329.59	82.4518	329.59	82.36	329.59	82.3182	329.59	82.5249	329.59	82.3519	329.59	82.77	329.59	82.5175	329.59	83.0053	329.59	82.7456	329.59	83.1733	329.59	82.9679	329.59	83.2511	329.59	83.1393	329.59	83.2374
341.309	85.6679	341.309	85.6123	341.309	85.6288	341.309	85.4708	341.309	85.4926	341.309	85.2563	341.309	85.2663	341.309	84.9824	341.309	84.9659	341.309	84.6618	341.309	84.6135	341.309	84.3056	341.309	84.2327	341.309	83.9225	341.309	83.8459	341.309	83.5216	341.309	83.4758	341.309	83.1175	341.309	83.1473	341.309	82.7392	341.309	82.8855	341.309	82.4354	341.309	82.7085	341.309	82.2648	341.309	82.6212	341.309	82.2643	341.309	82.6162	341.309	82.4163	341.309	82.6801	341.309	82.6502	341.309	82.7938	341.309	82.8791	341.309	82.9282	341.309	83.0355	341.309	83.0413	341.309	83.088
353.027	85.6568	353.027	85.6584	353.027	85.572	353.027	85.5721	353.027	85.4037	353.027	85.3907	353.027	85.1501	353.027	85.1126	353.027	84.8136	353.027	84.7501	353.027	84.4054	353.027	84.3297	353.027	83.9449	353.027	83.8844	353.027	83.4562	353.027	83.4432	353.027	82.9653	353.027	83.031	353.027	82.5041	353.027	82.6779	353.027	82.1193	353.027	82.4186	353.027	81.8753	353.027	82.2766	353.027	81.8315	353.027	82.2502	353.027	81.9957	353.027	82.3202	353.027	82.3006	353.027	82.4649	353.027	82.6341	353.027	82.6579	353.027	82.8931	353.027	82.8545	353.027	83.0168	353.027	82.9935
366.211	85.725	366.211	85.5875	366.211	85.768	366.211	85.3644	366.211	85.7129	366.211	85.0735	366.211	85.5535	366.211	84.735	366.211	85.2778	366.211	84.3647	366.211	84.8761	366.211	83.9746	366.211	84.3569	366.211	83.5815	366.211	83.7586	366.211	83.2107	366.211	83.1483	366.211	82.8903	366.211	82.6043	366.211	82.6446	366.211	82.1885	366.211	82.4982	366.211	81.9248	366.211	82.4744	366.211	81.7975	366.211	82.5688	366.211	81.7697	366.211	82.7229	366.211	81.8097	366.211	82.8422	366.211	81.9062	366.211	82.8506	366.211	82.0623	366.211	82.7296	366.211	82.2754	366.211	82.5166
379.395	86.1552	379.395	86.1179	379.395	86.0943	379.395	85.974	379.395	85.9443	379.395	85.7146	379.395	85.7182	379.395	85.3317	379.395	85.4303	379.395	84.8241	379.395	85.0905	379.395	84.2059	379.395	84.6985	379.395	83.5171	379.395	84.2487	379.395	82.8344	379.395	83.7454	379.395	82.2657	379.395	83.219	379.395	81.9062	379.395	82.7303	379.395	81.7763	379.395	82.3549	379.395	81.8185	379.395	82.1547	379.395	81.9648	379.395	82.1535	379.395	82.1856	379.395	82.3276	379.395	82.4688	379.395	82.6094	379.395	82.7761	379.395	82.9023	379.395	83.0317	379.395	83.1076	379.395	83.1562
392.578	86.1284	392.578	86.0752	392.578	86.0994	392.578	85.9453	392.578	85.9736	392.578	85.7311	392.578	85.7388	392.578	85.4193	392.578	85.3946	392.578	85.002	392.578	84.9553	392.578	84.484	392.578	84.4448	392.578	83.8808	392.578	83.8892	392.578	83.2173	392.578	83.3126	392.578	82.5385	392.578	82.7416	392.578	81.9315	392.578	82.2195	392.578	81.5263	392.578	81.8203	392.578	81.429	392.578	81.634	392.578	81.6292	392.578	81.7069	392.578	82.0021	392.578	81.9873	392.578	82.4031	392.578	82.353	392.578	82.7323	392.578	82.686	392.578	82.9382	392.578	82.9126	392.578	82.9998
405.762	85.9976	405.762	85.9345	405.762	85.9752	405.762	85.7825	405.762	85.868	405.762	85.5401	405.762	85.6699	405.762	85.2099	405.762	85.3702	405.762	84.7974	405.762	84.961	405.762	84.3124	405.762	84.4459	405.762	83.7724	405.762	83.8456	405.762	83.2068	405.762	83.2017	405.762	82.6577	405.762	82.5785	405.762	82.1768	405.762	82.058	405.762	81.8194	405.762	81.7148	405.762	81.6328	405.762	81.5819	405.762	81.6345	405.762	81.6365	405.762	81.7929	405.762	81.8208	405.762	82.035	405.762	82.0654	405.762	82.2772	405.762	82.3007	405.762	82.4529	405.762	82.466	405.762	82.5208
420.41	86.3767	420.41	86.3303	420.41	86.2993	420.41	86.1613	420.41	86.1078	420.41	85.8788	420.41	85.821	420.41	85.494	420.41	85.4567	420.41	85.0146	420.41	85.0205	420.41	84.4434	420.41	84.5028	420.41	83.7851	420.41	83.8903	420.41	83.0629	420.41	83.1854	420.41	82.3383	420.41	82.4215	420.41	81.7221	420.41	81.671	420.41	81.3491	420.41	81.0496	420.41	81.2992	420.41	80.6984	420.41	81.5229	420.41	80.7062	420.41	81.8725	420.41	81.019	420.41	82.2015	420.41	81.4717	420.41	82.4225	420.41	81.9071	420.41	82.5034	420.41	82.2398	420.41	82.441
435.059	85.9196	435.059	85.8124	435.059	85.9346	435.059	85.6298	435.059	85.8433	435.059	85.3809	435.059	85.6423	435.059	85.0621	435.059	85.3407	435.059	84.6595	435.059	84.953	435.059	84.1596	435.059	84.4869	435.059	83.5599	435.059	83.9364	435.059	82.8793	435.059	83.2923	435.059	82.1638	435.059	82.5752	435.059	81.4882	435.059	81.8697	435.059	80.9537	435.059	81.3148	435.059	80.6743	435.059	81.0227	435.059	80.7287	435.059	81.0023	435.059	81.0927	435.059	81.1925	435.059	81.6251	435.059	81.53	435.059	82.1353	435.059	81.9426	435.059	82.462	435.059	82.3167	435.059	82.52
451.172	86.5513	451.172	86.5045	451.172	86.4973	451.172	86.3505	451.172	86.3423	451.172	86.0706	451.172	86.0821	451.172	85.6428	451.172	85.7064	451.172	85.061	451.172	85.2014	451.172	84.3473	451.172	84.5648	451.172	83.5386	451.172	83.8225	451.172	82.6664	451.172	83.0261	451.172	81.7749	451.172	82.2328	451.172	80.9803	451.172	81.5039	451.172	80.483	451.172	80.9482	451.172	80.4296	451.172	80.7322	451.172	80.7625	451.172	80.9435	451.172	81.2978	451.172	81.4505	451.172	81.8722	451.172	82.0138	451.172	82.3703	451.172	82.4688	451.172	82.7078	451.172	82.7516	451.172	82.837
465.82	86.4541	465.82	86.3722	465.82	86.4146	465.82	86.1555	465.82	86.2719	465.82	85.8109	465.82	86.0364	465.82	85.3683	465.82	85.7084	465.82	84.8635	465.82	85.2793	465.82	84.3175	465.82	84.7359	465.82	83.7269	465.82	84.0709	465.82	83.0675	465.82	83.2992	465.82	82.3102	465.82	82.4618	465.82	81.4654	465.82	81.6129	465.82	80.6577	465.82	80.8266	465.82	80.1332	465.82	80.255	465.82	80.0616	465.82	80.1074	465.82	80.3331	465.82	80.4112	465.82	80.706	465.82	80.9046	465.82	81.0338	465.82	81.2987	465.82	81.2823	465.82	81.4713	465.82	81.4429
483.398	86.3798	483.398	86.3488	483.398	86.3235	483.398	86.2208	483.398	86.1798	483.398	85.9832	483.398	85.9408	483.398	85.6271	483.398	85.5982	483.398	85.1448	483.398	85.147	483.398	84.5209	483.398	84.5774	483.398	83.7323	483.398	83.8693	483.398	82.7715	483.398	83.011	483.398	81.696	483.398	82.0501	483.398	80.6808	483.398	81.1396	483.398	80.0036	483.398	80.4919	483.398	79.8752	483.398	80.2251	483.398	80.2506	483.398	80.3035	483.398	80.8896	483.398	80.6504	483.398	81.5532	483.398	81.1864	483.398	82.0868	483.398	81.7716	483.398	82.4046	483.398	82.235	483.398	82.4591
499.512	86.063	499.512	85.991	499.512	86.0623	499.512	85.8594	499.512	85.9687	499.512	85.652	499.512	85.7756	499.512	85.3299	499.512	85.4867	499.512	84.8625	499.512	85.0965	499.512	84.2529	499.512	84.5816	499.512	83.5334	499.512	83.9113	499.512	82.7382	499.512	83.071	499.512	81.8869	499.512	82.0921	499.512	81.0052	499.512	81.0898	499.512	80.1872	499.512	80.2716	499.512	79.6516	499.512	79.8295	499.512	79.6416	499.512	79.7836	499.512	80.1509	499.512	80.0296	499.512	80.8909	499.512	80.485	499.512	81.5484	499.512	81.0651	499.512	81.9252	499.512	81.6112	499.512	81.9387
517.09	86.806	517.09	86.676	517.09	86.8236	517.09	86.471	517.09	86.7075	517.09	86.2099	517.09	86.4601	517.09	85.8616	517.09	86.0933	517.09	85.3562	517.09	85.6126	517.09	84.6299	517.09	85.0092	517.09	83.6676	517.09	84.2595	517.09	82.5136	517.09	83.3302	517.09	81.2514	517.09	82.1978	517.09	80.0012	517.09	80.9027	517.09	79.0243	517.09	79.6736	517.09	78.7643	517.09	79.0253	517.09	79.3579	517.09	79.3563	517.09	80.361	517.09	80.3441	517.09	81.3245	517.09	81.3957	517.09	82.0677	517.09	82.1909	517.09	82.5498	517.09	82.6416	517.09	82.7512
536.133	85.8756	536.133	85.8319	536.133	85.8448	536.133	85.7121	536.133	85.7319	536.133	85.4991	536.133	85.5291	536.133	85.1764	536.133	85.2264	536.133	84.7459	536.133	84.8042	536.133	84.2146	536.133	84.2375	536.133	83.5511	536.133	83.5133	536.133	82.6623	536.133	82.637	536.133	81.4354	536.133	81.6091	536.133	79.8578	536.133	80.4201	536.133	78.2455	536.133	79.1707	536.133	77.4218	536.133	78.2986	536.133	77.9089	536.133	78.3414	536.133	79.0589	536.133	79.1245	536.133	80.1375	536.133	80.0489	536.133	80.8978	536.133	80.7892	536.133	81.325	536.133	81.2601	536.133	81.4419
555.176	86.4634	555.176	86.4494	555.176	86.3994	555.176	86.3448	555.176	86.2794	555.176	86.1618	555.176	86.1075	555.176	85.9114	555.176	85.8645	555.176	85.5624	555.176	85.5183	555.176	85.041	555.176	85.0203	555.176	84.2791	555.176	84.2893	555.176	83.264	555.176	83.2198	555.176	82.03	555.176	81.7311	555.176	80.5787	555.176	79.8344	555.176	78.832	555.176	77.7326	555.176	76.8741	555.176	76.0535	555.176	75.7073	555.176	75.8024	555.176	76.5797	555.176	77.003	555.176	78.3882	555.176	78.6031	555.176	79.8762	555.176	79.9201	555.176	80.7523	555.176	80.7431	555.176	81.0277
574.219	87.0776	574.219	87.0794	574.219	87.0027	574.219	86.9828	574.219	86.8938	574.219	86.7883	574.219	86.7706	574.219	86.5111	574.219	86.6043	574.219	86.1562	574.219	86.33	574.219	85.6896	574.219	85.8928	574.219	85.0327	574.219	85.2818	574.219	84.1004	574.219	84.5154	574.219	82.851	574.219	83.5735	574.219	81.2964	574.219	82.3419	574.219	79.5223	574.219	80.6762	574.219	77.9321	574.219	78.6269	574.219	77.4753	574.219	76.9161	574.219	78.367	574.219	76.8751	574.219	79.5815	574.219	78.2341	574.219	80.4928	574.219	79.6714	574.219	80.9937	574.219	80.6385	574.219	81.0621
594.727	86.3221	594.727	86.2713	594.727	86.3327	594.727	86.2076	594.727	86.2761	594.727	86.1593	594.727	86.137	594.727	86.1326	594.727	85.9386	594.727	86.0717	594.727	85.7314	594.727	85.8807	594.727	85.5076	594.727	85.4958	594.727	85.1488	594.727	84.8831	594.727	84.5119	594.727	83.9626	594.727	83.5345	594.727	82.606	594.727	82.2224	594.727	80.772	594.727	80.5894	594.727	78.7193	594.727	78.7814	594.727	77.1731	594.727	77.5165	594.727	77.0013	594.727	77.6625	594.727	78.1436	594.727	78.6735	594.727	79.6095	594.727	79.6967	594.727	80.6027	594.727	80.4785	594.727	80.8585
615.234	86.3003	615.234	86.3729	615.234	86.2443	615.234	86.3787	615.234	86.2086	615.234	86.2454	615.234	86.1382	615.234	85.9913	615.234	85.9951	615.234	85.6757	615.234	85.7712	615.234	85.2944	615.234	85.4476	615.234	84.7817	615.234	84.9883	615.234	84.0933	615.234	84.3549	615.234	83.211	615.234	83.4809	615.234	82.0505	615.234	82.2538	615.234	80.4656	615.234	80.5881	615.234	78.5062	615.234	78.5858	615.234	76.9083	615.234	76.772	615.234	76.8228	615.234	76.1248	615.234	77.8638	615.234	76.9823	615.234	78.9398	615.234	78.401	615.234	79.6521	615.234	79.4726	615.234	79.8763
637.207	86.5591	637.207	86.4735	637.207	86.5053	637.207	86.2946	637.207	86.3505	637.207	86.0747	637.207	86.1804	637.207	85.8195	637.207	86.0061	637.207	85.533	637.207	85.7457	637.207	85.2423	637.207	85.3529	637.207	84.9262	637.207	84.8839	637.207	84.4806	637.207	84.3836	637.207	83.7699	637.207	83.7448	637.207	82.6428	637.207	82.7626	637.207	80.9555	637.207	81.3096	637.207	78.8721	637.207	79.4746	637.207	77.4272	637.207	77.6865	637.207	77.566	637.207	76.8164	637.207	78.5903	637.207	77.4233	637.207	79.7074	637.207	78.7721	637.207	80.4617	637.207	79.9527	637.207	80.5624
659.18	85.851	659.18	85.7152	659.18	85.9051	659.18	85.5591	659.18	85.8424	659.18	85.4439	659.18	85.6658	659.18	85.3375	659.18	85.4314	659.18	85.1159	659.18	85.1939	659.18	84.7174	659.18	84.9413	659.18	84.2256	659.18	84.5823	659.18	83.7033	659.18	83.9777	659.18	83.0112	659.18	83.0524	659.18	81.9637	659.18	81.8583	659.18	80.5206	659.18	80.3876	659.18	78.7241	659.18	78.4618	659.18	76.8241	659.18	76.3623	659.18	75.9814	659.18	75.579	659.18	76.9663	659.18	76.3417	659.18	78.4262	659.18	77.4443	659.18	79.3234	659.18	78.5698	659.18	79.3441
682.617	85.5776	682.617	85.6498	682.617	85.483	682.617	85.5722	682.617	85.4111	682.617	85.3237	682.617	85.2809	682.617	85.0283	682.617	85.0238	682.617	84.7529	682.617	84.6957	682.617	84.4494	682.617	84.3902	682.617	84.0848	682.617	84.0882	682.617	83.5783	682.617	83.7132	682.617	82.7698	682.617	83.1644	682.617	81.5941	682.617	82.225	682.617	80.0964	682.617	80.6606	682.617	78.2786	682.617	78.5276	682.617	76.2932	682.617	76.3763	682.617	75.2426	682.617	75.3343	682.617	76.1367	682.617	76.2962	682.617	77.6215	682.617	77.9813	682.617	78.6822	682.617	79.0152	682.617	79.1844
707.52	86.0554	707.52	85.9701	707.52	85.9695	707.52	85.7191	707.52	85.7636	707.52	85.334	707.52	85.503	707.52	84.888	707.52	85.2228	707.52	84.5379	707.52	84.9412	707.52	84.3777	707.52	84.6335	707.52	84.3014	707.52	84.2509	707.52	84.1074	707.52	83.7663	707.52	83.524	707.52	83.0938	707.52	82.21	707.52	82.0302	707.52	79.996	707.52	80.291	707.52	77.1747	707.52	77.5781	707.52	74.5297	707.52	74.1125	707.52	73.7588	707.52	72.4333	707.52	75.7708	707.52	74.1871	707.52	77.8946	707.52	76.6766	707.52	78.9892	707.52	78.4526	707.52	79.1804
732.422	85.4173	732.422	85.1604	732.422	85.5577	732.422	84.887	732.422	85.4548	732.422	84.6077	732.422	85.103	732.422	84.2445	732.422	84.6753	732.422	83.7658	732.422	84.3426	732.422	83.3473	732.422	84.111	732.422	83.1345	732.422	83.8921	732.422	82.9086	732.422	83.6203	732.422	82.3805	732.422	83.2355	732.422	81.5052	732.422	82.564	732.422	80.2507	732.422	81.3685	732.422	78.3446	732.422	79.5085	732.422	75.7878	732.422	76.9533	732.422	74.0245	732.422	74.2242	732.422	74.3797	732.422	73.5665	732.422	75.5376	732.422	74.8303	732.422	76.3699	732.422	75.9144	732.422	76.4709
757.324	85.5545	757.324	85.3739	757.324	85.4632	757.324	85.0073	757.324	85.1249	757.324	84.5963	757.324	84.644	757.324	84.215	757.324	84.1028	757.324	83.8401	757.324	83.5497	757.324	83.526	757.324	83.0819	757.324	83.4132	757.324	82.7786	757.324	83.4059	757.324	82.5652	757.324	83.1566	757.324	82.2706	757.324	82.4119	757.324	81.6814	757.324	81.1141	757.324	80.5352	757.324	79.2751	757.324	78.65	757.324	76.8504	757.324	76.1164	757.324	74.2192	757.324	74.0471	757.324	73.4664	757.324	74.5088	757.324	74.5285	757.324	75.8832	757.324	75.3474	757.324	76.2765	757.324	75.8888
785.156	86.9934	785.156	86.8424	785.156	87.1331	785.156	86.5959	785.156	87.1815	785.156	86.0005	785.156	87.0567	785.156	84.9492	785.156	86.6769	785.156	83.9354	785.156	86.0298	785.156	83.5876	785.156	85.3649	785.156	83.4084	785.156	84.8747	785.156	82.8278	785.156	84.3372	785.156	82.0351	785.156	83.7263	785.156	81.3422	785.156	83.3288	785.156	80.4959	785.156	82.7953	785.156	78.8321	785.156	81.4653	785.156	76.564	785.156	79.3606	785.156	75.0373	785.156	77.1259	785.156	74.0764	785.156	74.6518	785.156	73.4027	785.156	72.5705	785.156	73.6033	785.156	73.0597	785.156	73.8024
811.523	85.0047	811.523	84.9285	811.523	84.7277	811.523	84.5908	811.523	84.1156	811.523	84.0612	811.523	83.3569	811.523	83.4924	811.523	82.5102	811.523	82.8288	811.523	81.4471	811.523	81.9289	811.523	80.2499	811.523	81.253	811.523	79.5158	811.523	81.0473	811.523	79.6799	811.523	80.8502	811.523	80.2418	811.523	80.7436	811.523	80.4986	811.523	80.6824	811.523	80.26	811.523	79.782	811.523	79.7426	811.523	77.6786	811.523	78.9477	811.523	76.0165	811.523	78.0126	811.523	76.6341	811.523	77.5048	811.523	77.5163	811.523	77.0333	811.523	77.5681	811.523	76.6674	811.523	77.0406
840.82	84.9837	840.82	84.846	840.82	85.0238	840.82	84.7218	840.82	84.8422	840.82	84.5485	840.82	84.351	840.82	84.0696	840.82	83.7788	840.82	83.4635	840.82	83.4141	840.82	83.0209	840.82	83.0986	840.82	82.4527	840.82	82.508	840.82	81.6842	840.82	81.7783	840.82	80.8626	840.82	81.3157	840.82	79.4606	840.82	80.8394	840.82	76.8196	840.82	79.7623	840.82	74.2352	840.82	78.2893	840.82	73.6124	840.82	76.5796	840.82	74.19	840.82	74.9409	840.82	76.2114	840.82	75.5936	840.82	77.6577	840.82	77.9841	840.82	78.0211	840.82	78.9481	840.82	78.4878
870.117	85.7537	870.117	85.65	870.117	85.6868	870.117	85.1128	870.117	85.586	870.117	84.2828	870.117	85.2919	870.117	83.6297	870.117	84.5579	870.117	83.2158	870.117	83.4219	870.117	82.7969	870.117	82.5787	870.117	82.3636	870.117	82.3528	870.117	82.3229	870.117	82.0184	870.117	82.4036	870.117	81.6225	870.117	82.0707	870.117	81.5764	870.117	81.5553	870.117	81.1901	870.117	80.534	870.117	79.9539	870.117	78.5923	870.117	78.0529	870.117	76.5471	870.117	75.729	870.117	75.936	870.117	73.7944	870.117	76.4623	870.117	74.6279	870.117	76.705	870.117	76.336	870.117	76.8036
900.879	85.175	900.879	85.1245	900.879	84.8986	900.879	85.0134	900.879	84.3101	900.879	84.746	900.879	83.7819	900.879	84.0461	900.879	83.4706	900.879	83.0564	900.879	83.0961	900.879	81.8648	900.879	82.2513	900.879	80.2328	900.879	81.0806	900.879	78.7004	900.879	80.1997	900.879	77.9097	900.879	79.3633	900.879	76.5577	900.879	78.7013	900.879	73.8974	900.879	78.2789	900.879	71.8209	900.879	76.7369	900.879	71.4106	900.879	74.5293	900.879	73.3253	900.879	74.0409	900.879	76.7507	900.879	75.6494	900.879	79.1918	900.879	78.2708	900.879	80.1437	900.879	79.7941	900.879	80.1915
933.105	86.0193	933.105	85.9308	933.105	86.3427	933.105	85.6978	933.105	86.474	933.105	84.8457	933.105	86.045	933.105	83.5499	933.105	85.3421	933.105	82.5963	933.105	84.7389	933.105	82.3895	933.105	84.1083	933.105	82.1293	933.105	83.2582	933.105	81.5623	933.105	82.6963	933.105	81.0528	933.105	82.9574	933.105	80.3552	933.105	82.8819	933.105	78.7942	933.105	81.6396	933.105	76.2918	933.105	80.0543	933.105	73.8131	933.105	78.15	933.105	71.4347	933.105	74.9248	933.105	69.8064	933.105	71.3114	933.105	71.883	933.105	71.5698	933.105	73.3204	933.105	73.3902	933.105	73.7054
965.332	85.9324	965.332	85.4782	965.332	85.8319	965.332	85.2773	965.332	85.2257	965.332	85.2811	965.332	84.7697	965.332	84.4755	965.332	84.3641	965.332	82.6914	965.332	83.626	965.332	81.0892	965.332	82.7111	965.332	80.2265	965.332	81.9296	965.332	79.2826	965.332	80.7583	965.332	78.4185	965.332	78.7598	965.332	77.147	965.332	78.5346	965.332	75.1157	965.332	78.7782	965.332	72.8602	965.332	78.2274	965.332	69.1954	965.332	78.5158	965.332	69.3821	965.332	78.2704	965.332	74.105	965.332	77.9931	965.332	76.7653	965.332	79.8727	965.332	78.043	965.332	80.9258	965.332	79.6553
1,000.49	86.7106	1,000.49	86.5587	1,000.49	86.4587	1,000.49	86.1083	1,000.49	85.9863	1,000.49	85.5719	1,000.49	85.3665	1,000.49	84.8442	1,000.49	84.5197	1,000.49	83.8494	1,000.49	83.6507	1,000.49	82.8159	1,000.49	82.8727	1,000.49	81.6339	1,000.49	81.7775	1,000.49	80.0963	1,000.49	80.847	1,000.49	78.4933	1,000.49	80.2715	1,000.49	77.5663	1,000.49	79.6264	1,000.49	77.1487	1,000.49	78.7125	1,000.49	75.1069	1,000.49	76.6661	1,000.49	70.0755	1,000.49	72.7578	1,000.49	64.9766	1,000.49	67.7263	1,000.49	68.0037	1,000.49	71.0315	1,000.49	73.1031	1,000.49	75.0515	1,000.49	77.6467	1,000.49	77.7879	1,000.49	79.0987
1,035.64	86.1151	1,035.64	86.0277	1,035.64	85.8919	1,035.64	85.6969	1,035.64	85.1661	1,035.64	84.9622	1,035.64	84.3107	1,035.64	83.9156	1,035.64	83.5301	1,035.64	82.9141	1,035.64	82.3731	1,035.64	82.2587	1,035.64	81.0564	1,035.64	81.7725	1,035.64	80.2107	1,035.64	80.9554	1,035.64	79.625	1,035.64	80.5445	1,035.64	78.2662	1,035.64	80.4231	1,035.64	76.7604	1,035.64	78.8904	1,035.64	76.7354	1,035.64	75.7549	1,035.64	75.7825	1,035.64	73.0434	1,035.64	72.5481	1,035.64	67.6775	1,035.64	69.3615	1,035.64	65.2622	1,035.64	68.4162	1,035.64	74.0044	1,035.64	74.1308	1,035.64	75.989	1,035.64	76.8291	1,035.64	76.4955
1,072.27	85.5513	1,072.27	85.2631	1,072.27	85.6168	1,072.27	84.6174	1,072.27	85.2665	1,072.27	83.736	1,072.27	84.2755	1,072.27	82.9339	1,072.27	83.0305	1,072.27	81.852	1,072.27	82.206	1,072.27	80.5533	1,072.27	81.7769	1,072.27	80.2695	1,072.27	80.8473	1,072.27	80.7965	1,072.27	79.5639	1,072.27	81.2578	1,072.27	78.3465	1,072.27	81.4388	1,072.27	77.3834	1,072.27	81.0866	1,072.27	77.604	1,072.27	79.2918	1,072.27	77.0849	1,072.27	75.0954	1,072.27	74.6713	1,072.27	69.5525	1,072.27	72.6181	1,072.27	67.5714	1,072.27	67.5097	1,072.27	70.6715	1,072.27	69.5118	1,072.27	73.494	1,072.27	74.2757	1,072.27	74.9034
1,108.89	84.1208	1,108.89	83.8858	1,108.89	84.2042	1,108.89	83.7293	1,108.89	83.7113	1,108.89	83.4436	1,108.89	83.0662	1,108.89	82.5531	1,108.89	82.2031	1,108.89	81.0308	1,108.89	80.5885	1,108.89	79.1556	1,108.89	79.5192	1,108.89	77.4384	1,108.89	79.3685	1,108.89	76.4255	1,108.89	78.2961	1,108.89	76.9975	1,108.89	76.7424	1,108.89	79.1453	1,108.89	76.9348	1,108.89	80.0016	1,108.89	77.2512	1,108.89	78.7709	1,108.89	76.0027	1,108.89	73.962	1,108.89	73.9635	1,108.89	62.3784	1,108.89	72.9987	1,108.89	69.1278	1,108.89	71.7908	1,108.89	70.7405	1,108.89	72.0985	1,108.89	74.1072	1,108.89	75.3719	1,108.89	76.1262
1,148.44	85.0049	1,148.44	84.9258	1,148.44	85.0147	1,148.44	84.5789	1,148.44	84.3708	1,148.44	83.4432	1,148.44	83.6323	1,148.44	82.5224	1,148.44	82.9503	1,148.44	81.7197	1,148.44	81.6798	1,148.44	80.2222	1,148.44	80.3851	1,148.44	78.7088	1,148.44	79.1082	1,148.44	77.568	1,148.44	78.5122	1,148.44	77.7849	1,148.44	77.8099	1,148.44	78.0709	1,148.44	76.5663	1,148.44	77.7593	1,148.44	76.7711	1,148.44	77.1685	1,148.44	75.9522	1,148.44	74.456	1,148.44	71.9383	1,148.44	66.5992	1,148.44	62.0753	1,148.44	58.7409	1,148.44	63.4533	1,148.44	69.3774	1,148.44	71.1961	1,148.44	73.4322	1,148.44	74.1564	1,148.44	74.7637
1,189.45	84.9357	1,189.45	84.945	1,189.45	85.0533	1,189.45	84.3757	1,189.45	84.839	1,189.45	83.3528	1,189.45	84.2994	1,189.45	82.5148	1,189.45	83.7984	1,189.45	81.2071	1,189.45	82.3152	1,189.45	79.0252	1,189.45	80.475	1,189.45	76.8889	1,189.45	79.3436	1,189.45	75.6509	1,189.45	78.1631	1,189.45	75.1908	1,189.45	77.7655	1,189.45	77.6242	1,189.45	76.4682	1,189.45	78.3693	1,189.45	75.0136	1,189.45	77.2871	1,189.45	73.775	1,189.45	75.5653	1,189.45	70.5892	1,189.45	70.203	1,189.45	69.094	1,189.45	64.8946	1,189.45	64.5949	1,189.45	64.7181	1,189.45	67.5661	1,189.45	68.189	1,189.45	72.0009	1,189.45	72.4281
1,230.47	84.8977	1,230.47	84.908	1,230.47	84.978	1,230.47	84.6306	1,230.47	84.6002	1,230.47	83.7044	1,230.47	83.8733	1,230.47	83.0433	1,230.47	83.5759	1,230.47	82.047	1,230.47	82.7097	1,230.47	79.4818	1,230.47	81.0333	1,230.47	77.2857	1,230.47	79.4541	1,230.47	76.6168	1,230.47	77.6487	1,230.47	75.3346	1,230.47	76.331	1,230.47	76.1635	1,230.47	77.5975	1,230.47	77.7588	1,230.47	77.5985	1,230.47	76.4066	1,230.47	75.654	1,230.47	73.2081	1,230.47	74.7276	1,230.47	68.6108	1,230.47	70.9573	1,230.47	63.8018	1,230.47	63.3705	1,230.47	68.3286	1,230.47	58.0339	1,230.47	68.8759	1,230.47	66.5173	1,230.47	69.2803
1,274.41	85.2706	1,274.41	85.5337	1,274.41	85.0688	1,274.41	85.1827	1,274.41	85.0062	1,274.41	84.623	1,274.41	84.3693	1,274.41	83.8061	1,274.41	83.8193	1,274.41	82.785	1,274.41	82.7255	1,274.41	82.1252	1,274.41	80.2156	1,274.41	81.1245	1,274.41	78.1823	1,274.41	79.0079	1,274.41	77.144	1,274.41	76.9371	1,274.41	77.1761	1,274.41	75.2606	1,274.41	76.5832	1,274.41	77.5539	1,274.41	75.6754	1,274.41	79.022	1,274.41	75.9081	1,274.41	78.8603	1,274.41	74.9407	1,274.41	76.5444	1,274.41	72.9848	1,274.41	67.8568	1,274.41	69.0094	1,274.41	59.4966	1,274.41	58.8465	1,274.41	63.693	1,274.41	62.8627	1,274.41	62.8615
1,319.82	85.9561	1,319.82	85.6504	1,319.82	85.7273	1,319.82	85.1281	1,319.82	85.3195	1,319.82	84.343	1,319.82	84.547	1,319.82	83.0113	1,319.82	84.0657	1,319.82	81.8268	1,319.82	83.1392	1,319.82	81.389	1,319.82	81.243	1,319.82	80.6986	1,319.82	79.6557	1,319.82	79.0749	1,319.82	79.1231	1,319.82	77.5216	1,319.82	78.2183	1,319.82	75.9903	1,319.82	76.6519	1,319.82	76.3232	1,319.82	75.5657	1,319.82	77.0574	1,319.82	75.4577	1,319.82	78.3931	1,319.82	76.9327	1,319.82	76.5391	1,319.82	75.0711	1,319.82	72.3608	1,319.82	71.7425	1,319.82	72.8935	1,319.82	71.1625	1,319.82	73.4595	1,319.82	71.3509	1,319.82	73.752
1,366.7	87.103	1,366.7	87.1598	1,366.7	86.8714	1,366.7	86.7389	1,366.7	86.37	1,366.7	85.7404	1,366.7	85.4091	1,366.7	84.8246	1,366.7	84.5047	1,366.7	83.1289	1,366.7	83.8703	1,366.7	82.5732	1,366.7	82.68	1,366.7	82.7633	1,366.7	81.6044	1,366.7	81.8955	1,366.7	81.0588	1,366.7	79.7261	1,366.7	80.3504	1,366.7	77.42	1,366.7	79.3864	1,366.7	76.4063	1,366.7	77.7995	1,366.7	77.0232	1,366.7	76.0898	1,366.7	77.8345	1,366.7	76.2308	1,366.7	76.1473	1,366.7	75.2378	1,366.7	72.1525	1,366.7	74.9405	1,366.7	70.4986	1,366.7	73.7716	1,366.7	71.5915	1,366.7	73.2689	1,366.7	73.0059
1,413.57	87.4776	1,413.57	87.1654	1,413.57	87.1911	1,413.57	86.739	1,413.57	86.4408	1,413.57	86.1232	1,413.57	85.4349	1,413.57	84.3204	1,413.57	84.6892	1,413.57	83.4099	1,413.57	83.4184	1,413.57	82.5375	1,413.57	82.7273	1,413.57	81.3634	1,413.57	81.6982	1,413.57	80.2969	1,413.57	79.5698	1,413.57	78.4934	1,413.57	77.9324	1,413.57	74.3234	1,413.57	76.4566	1,413.57	73.6975	1,413.57	76.2893	1,413.57	74.4272	1,413.57	75.2613	1,413.57	75.874	1,413.57	75.2334	1,413.57	75.0114	1,413.57	75.4926	1,413.57	71.4443	1,413.57	73.4347	1,413.57	69.8415	1,413.57	72.0914	1,413.57	74.4425	1,413.57	71.5652	1,413.57	72.9255
1,463.38	87.7124	1,463.38	87.2818	1,463.38	87.4687	1,463.38	86.6964	1,463.38	86.5233	1,463.38	85.7982	1,463.38	85.1413	1,463.38	84.3139	1,463.38	83.8328	1,463.38	82.8113	1,463.38	82.4179	1,463.38	80.2639	1,463.38	81.4785	1,463.38	79.248	1,463.38	80.2977	1,463.38	78.1432	1,463.38	79.0311	1,463.38	75.752	1,463.38	79.3781	1,463.38	75.9199	1,463.38	77.0104	1,463.38	73.5646	1,463.38	76.2509	1,463.38	68.0371	1,463.38	73.9872	1,463.38	69.2708	1,463.38	73.1048	1,463.38	72.8038	1,463.38	71.5008	1,463.38	75.5557	1,463.38	73.6692	1,463.38	76.2577	1,463.38	76.2546	1,463.38	78.6617	1,463.38	77.5396	1,463.38	78.7663
1,516.11	87.2322	1,516.11	86.9695	1,516.11	86.8788	1,516.11	86.0356	1,516.11	86.1258	1,516.11	85.8825	1,516.11	85.2116	1,516.11	84.3397	1,516.11	83.8664	1,516.11	83.3402	1,516.11	83.0592	1,516.11	82.0678	1,516.11	82.0205	1,516.11	78.9641	1,516.11	80.8502	1,516.11	77.2837	1,516.11	79.2314	1,516.11	76.6974	1,516.11	75.2916	1,516.11	76.3806	1,516.11	74.0499	1,516.11	75.7269	1,516.11	74.7011	1,516.11	74.9329	1,516.11	76.3692	1,516.11	72.4441	1,516.11	74.642	1,516.11	67.8216	1,516.11	72.6832	1,516.11	68.9809	1,516.11	70.5927	1,516.11	73.144	1,516.11	71.6042	1,516.11	75.9621	1,516.11	76.9151	1,516.11	77.9221
1,568.85	86.1356	1,568.85	85.8494	1,568.85	85.5143	1,568.85	84.713	1,568.85	85.2566	1,568.85	84.4437	1,568.85	84.6796	1,568.85	83.4403	1,568.85	83.719	1,568.85	83.2018	1,568.85	83.2124	1,568.85	81.0237	1,568.85	82.1366	1,568.85	78.3641	1,568.85	80.1605	1,568.85	75.5412	1,568.85	78.1011	1,568.85	75.2916	1,568.85	75.9547	1,568.85	76.2896	1,568.85	74.1338	1,568.85	76.1573	1,568.85	72.6743	1,568.85	75.1073	1,568.85	71.8713	1,568.85	70.7936	1,568.85	73.2715	1,568.85	59.7525	1,568.85	66.1092	1,568.85	67.6308	1,568.85	67.3768	1,568.85	73.7057	1,568.85	70.6651	1,568.85	77.3285	1,568.85	76.617	1,568.85	77.4664
1,624.51	85.5071	1,624.51	84.5655	1,624.51	85.462	1,624.51	83.898	1,624.51	85.1665	1,624.51	83.1865	1,624.51	84.4295	1,624.51	83.1022	1,624.51	83.7776	1,624.51	82.3697	1,624.51	83.0503	1,624.51	81.2807	1,624.51	81.1804	1,624.51	76.051	1,624.51	78.8716	1,624.51	69.9098	1,624.51	75.9457	1,624.51	70.7324	1,624.51	76.1805	1,624.51	75.8468	1,624.51	77.5542	1,624.51	76.423	1,624.51	75.2686	1,624.51	75.2403	1,624.51	74.919	1,624.51	72.586	1,624.51	75.0912	1,624.51	66.8037	1,624.51	70.4799	1,624.51	66.769	1,624.51	56.0906	1,624.51	72.62	1,624.51	67.9499	1,624.51	77.3767	1,624.51	75.2351	1,624.51	78.0114
1,681.64	86.2397	1,681.64	85.966	1,681.64	85.5435	1,681.64	85.251	1,681.64	85.571	1,681.64	83.9024	1,681.64	85.387	1,681.64	83.285	1,681.64	85.2959	1,681.64	83.2308	1,681.64	84.4529	1,681.64	81.371	1,681.64	82.9379	1,681.64	78.1319	1,681.64	82.0885	1,681.64	74.6137	1,681.64	79.7316	1,681.64	72.5667	1,681.64	76.7603	1,681.64	72.4484	1,681.64	74.9174	1,681.64	74.9571	1,681.64	75.2018	1,681.64	77.7173	1,681.64	74.9783	1,681.64	78.0278	1,681.64	76.8106	1,681.64	73.9221	1,681.64	75.4243	1,681.64	68.4595	1,681.64	67.571	1,681.64	71.1276	1,681.64	68.344	1,681.64	77.3153	1,681.64	77.3464	1,681.64	78.9155
1,741.7	88.6327	1,741.7	88.0569	1,741.7	88.2193	1,741.7	87.2519	1,741.7	87.0093	1,741.7	85.0321	1,741.7	86.313	1,741.7	83.9484	1,741.7	84.132	1,741.7	84.3435	1,741.7	82.5804	1,741.7	81.9801	1,741.7	82.4842	1,741.7	80.7481	1,741.7	80.6794	1,741.7	79.3025	1,741.7	80.6254	1,741.7	78.5334	1,741.7	76.2006	1,741.7	77.451	1,741.7	72.6066	1,741.7	76.241	1,741.7	76.2913	1,741.7	79.2134	1,741.7	77.5173	1,741.7	79.9157	1,741.7	77.3858	1,741.7	78.0931	1,741.7	77.9865	1,741.7	76.1476	1,741.7	74.3016	1,741.7	73.3528	1,741.7	69.4869	1,741.7	74.5129	1,741.7	75.4702	1,741.7	73.2955
1,803.22	88.5173	1,803.22	88.4061	1,803.22	88.1161	1,803.22	87.6435	1,803.22	87.2919	1,803.22	86.2585	1,803.22	85.9925	1,803.22	84.4827	1,803.22	84.0717	1,803.22	83.0199	1,803.22	82.4457	1,803.22	82.2023	1,803.22	81.4821	1,803.22	81.0395	1,803.22	81.1677	1,803.22	80.0692	1,803.22	80.2709	1,803.22	77.2998	1,803.22	78.2166	1,803.22	73.0094	1,803.22	74.4922	1,803.22	73.7794	1,803.22	73.0989	1,803.22	77.1196	1,803.22	74.6933	1,803.22	78.9696	1,803.22	77.6122	1,803.22	77.4966	1,803.22	77.8773	1,803.22	73.77	1,803.22	75.3428	1,803.22	69.5147	1,803.22	68.3271	1,803.22	73.037	1,803.22	72.5224	1,803.22	73.9915
1,866.21	88.4033	1,866.21	88.4826	1,866.21	88.2679	1,866.21	87.5637	1,866.21	87.4315	1,866.21	86.4196	1,866.21	85.9783	1,866.21	85.2292	1,866.21	84.3757	1,866.21	82.8125	1,866.21	82.3172	1,866.21	81.7312	1,866.21	80.54	1,866.21	81.2277	1,866.21	79.6497	1,866.21	80.7096	1,866.21	79.949	1,866.21	77.9516	1,866.21	78.1539	1,866.21	74.3604	1,866.21	75.4803	1,866.21	69.305	1,866.21	68.3206	1,866.21	75.3339	1,866.21	74.1371	1,866.21	78.5305	1,866.21	76.6325	1,866.21	78.3117	1,866.21	77.6839	1,866.21	73.8219	1,866.21	75.9262	1,866.21	70.4221	1,866.21	72.1278	1,866.21	69.2907	1,866.21	69.3772	1,866.21	70.3056
1,932.13	87.9249	1,932.13	87.8594	1,932.13	87.854	1,932.13	87.0697	1,932.13	87.1649	1,932.13	86.1655	1,932.13	85.9291	1,932.13	84.6457	1,932.13	84.4106	1,932.13	82.4005	1,932.13	82.4888	1,932.13	80.7834	1,932.13	80.0346	1,932.13	79.3177	1,932.13	78.0605	1,932.13	78.7706	1,932.13	77.9808	1,932.13	77.2574	1,932.13	77.7135	1,932.13	75.1876	1,932.13	74.9229	1,932.13	70.3337	1,932.13	70.939	1,932.13	73.4286	1,932.13	66.063	1,932.13	76.6411	1,932.13	73.169	1,932.13	76.0702	1,932.13	75.8481	1,932.13	73.5527	1,932.13	75.2478	1,932.13	66.2804	1,932.13	70.2682	1,932.13	66.8949	1,932.13	68.0063	1,932.13	65.8435
1,999.51	87.8516	1,999.51	87.3549	1,999.51	87.6804	1,999.51	86.5749	1,999.51	87.1921	1,999.51	85.6998	1,999.51	86.2269	1,999.51	83.8907	1,999.51	84.853	1,999.51	82.3432	1,999.51	82.9901	1,999.51	79.017	1,999.51	81.1058	1,999.51	77.4712	1,999.51	78.5657	1,999.51	76.5871	1,999.51	77.5898	1,999.51	77.2298	1,999.51	76.6709	1,999.51	74.2517	1,999.51	75.2685	1,999.51	69.3972	1,999.51	73.5051	1,999.51	69.9588	1,999.51	66.9624	1,999.51	74.9212	1,999.51	73.3676	1,999.51	74.9871	1,999.51	76.4853	1,999.51	73.1246	1,999.51	75.7204	1,999.51	66.5968	1,999.51	71.8165	1,999.51	65.559	1,999.51	65.5104	1,999.51	67.8208
2,069.82	87.9282	2,069.82	87.2697	2,069.82	87.917	2,069.82	86.4785	2,069.82	87.0356	2,069.82	85.1422	2,069.82	86.3942	2,069.82	84.3872	2,069.82	84.7537	2,069.82	82.6552	2,069.82	83.3544	2,069.82	79.8801	2,069.82	81.5029	2,069.82	76.4309	2,069.82	79.6282	2,069.82	76.4306	2,069.82	77.0995	2,069.82	76.1531	2,069.82	76.9646	2,069.82	75.8912	2,069.82	76.683	2,069.82	71.9396	2,069.82	74.4788	2,069.82	63.8111	2,069.82	70.2721	2,069.82	71.8054	2,069.82	71.1159	2,069.82	75.2836	2,069.82	75.0711	2,069.82	74.6913	2,069.82	75.0112	2,069.82	70.8217	2,069.82	72.5996	2,069.82	60.4956	2,069.82	68.2821	2,069.82	61.0039
2,143.07	88.2598	2,143.07	87.8465	2,143.07	87.9314	2,143.07	87.0464	2,143.07	87.3175	2,143.07	85.9184	2,143.07	86.0855	2,143.07	84.3139	2,143.07	84.6409	2,143.07	82.827	2,143.07	83.1379	2,143.07	80.5372	2,143.07	81.3898	2,143.07	77.5105	2,143.07	79.2235	2,143.07	75.6736	2,143.07	76.8652	2,143.07	75.116	2,143.07	74.5104	2,143.07	75.2494	2,143.07	74.4069	2,143.07	73.2726	2,143.07	74.0117	2,143.07	69.5725	2,143.07	72.137	2,143.07	72.565	2,143.07	72.4181	2,143.07	74.1675	2,143.07	74.1978	2,143.07	72.2674	2,143.07	73.5147	2,143.07	66.3898	2,143.07	67.2993	2,143.07	53.6625	2,143.07	56.6993	2,143.07	64.1399
2,219.24	87.7178	2,219.24	87.255	2,219.24	87.3961	2,219.24	86.4257	2,219.24	86.6061	2,219.24	85.3582	2,219.24	85.3226	2,219.24	83.9429	2,219.24	83.6508	2,219.24	82.6318	2,219.24	82.3263	2,219.24	80.8985	2,219.24	80.4338	2,219.24	77.9829	2,219.24	78.6236	2,219.24	75.6149	2,219.24	76.2	2,219.24	74.4946	2,219.24	74.1804	2,219.24	74.1273	2,219.24	73.3059	2,219.24	72.3796	2,219.24	72.4058	2,219.24	67.8698	2,219.24	68.9419	2,219.24	71.1984	2,219.24	71.0418	2,219.24	73.706	2,219.24	74.6515	2,219.24	73.3367	2,219.24	74.0976	2,219.24	68.2483	2,219.24	69.424	2,219.24	54.413	2,219.24	56.4718	2,219.24	60.2738
2,296.88	86.6765	2,296.88	86.2869	2,296.88	86.4402	2,296.88	85.4216	2,296.88	85.6596	2,296.88	84.3839	2,296.88	84.3727	2,296.88	82.7407	2,296.88	82.6499	2,296.88	81.3297	2,296.88	81.3722	2,296.88	79.3337	2,296.88	79.9355	2,296.88	77.0467	2,296.88	77.9527	2,296.88	74.8483	2,296.88	75.399	2,296.88	74.823	2,296.88	72.1325	2,296.88	73.9175	2,296.88	72.8338	2,296.88	69.7388	2,296.88	71.599	2,296.88	66.8949	2,296.88	67.4406	2,296.88	70.7307	2,296.88	67.7509	2,296.88	73.7047	2,296.88	73.1554	2,296.88	73.1723	2,296.88	73.9432	2,296.88	67.3231	2,296.88	71.3391	2,296.88	54.0507	2,296.88	62.7599	2,296.88	42.2359
2,378.91	86.3906	2,378.91	85.9568	2,378.91	86.1909	2,378.91	84.8354	2,378.91	85.8424	2,378.91	83.3026	2,378.91	84.3448	2,378.91	81.6018	2,378.91	82.924	2,378.91	79.7549	2,378.91	81.2376	2,378.91	78.5728	2,378.91	79.7865	2,378.91	76.367	2,378.91	77.9515	2,378.91	74.5443	2,378.91	75.6395	2,378.91	72.6077	2,378.91	73.9971	2,378.91	72.6851	2,378.91	73.992	2,378.91	71.4264	2,378.91	72.5511	2,378.91	66.0693	2,378.91	69.3271	2,378.91	69.8875	2,378.91	66.5052	2,378.91	73.061	2,378.91	70.6708	2,378.91	72.282	2,378.91	73.7994	2,378.91	67.3993	2,378.91	70.5634	2,378.91	57.1162	2,378.91	63.9455	2,378.91	60.9901
2,462.4	87.6573	2,462.4	87.1373	2,462.4	87.6517	2,462.4	85.9879	2,462.4	86.7953	2,462.4	84.2771	2,462.4	85.711	2,462.4	82.2187	2,462.4	83.9795	2,462.4	80.1475	2,462.4	82.5155	2,462.4	78.8478	2,462.4	81.0282	2,462.4	77.8325	2,462.4	79.3899	2,462.4	74.3546	2,462.4	77.1888	2,462.4	70.4004	2,462.4	73.1526	2,462.4	72.9113	2,462.4	74.6813	2,462.4	73.9213	2,462.4	75.218	2,462.4	68.1159	2,462.4	72.5013	2,462.4	65.1745	2,462.4	63.7941	2,462.4	74.7591	2,462.4	73.3452	2,462.4	76.4013	2,462.4	76.4422	2,462.4	75.0626	2,462.4	75.5529	2,462.4	70.1694	2,462.4	72.8518	2,462.4	67.8652
2,548.83	88.3066	2,548.83	87.8722	2,548.83	88.2329	2,548.83	87.3783	2,548.83	87.6876	2,548.83	86.105	2,548.83	86.6636	2,548.83	84.3872	2,548.83	84.9347	2,548.83	81.2964	2,548.83	82.5032	2,548.83	79.242	2,548.83	80.1985	2,548.83	78.4059	2,548.83	79.2524	2,548.83	77.8483	2,548.83	78.2097	2,548.83	72.8875	2,548.83	74.5534	2,548.83	70.4642	2,548.83	70.5753	2,548.83	75.5352	2,548.83	74.6488	2,548.83	75.3372	2,548.83	75.3768	2,548.83	67.8378	2,548.83	68.4908	2,548.83	64.8517	2,548.83	62.9963	2,548.83	73.5837	2,548.83	74.0392	2,548.83	76.1615	2,548.83	76.3153	2,548.83	76.0852	2,548.83	76.8681	2,548.83	76.2258
2,639.65	87.8591	2,639.65	87.6543	2,639.65	87.7299	2,639.65	86.8152	2,639.65	86.9328	2,639.65	85.5428	2,639.65	85.7177	2,639.65	84.2347	2,639.65	84.3918	2,639.65	82.6885	2,639.65	82.4693	2,639.65	79.8238	2,639.65	79.6861	2,639.65	78.1967	2,639.65	77.6421	2,639.65	78.1521	2,639.65	76.6927	2,639.65	75.1261	2,639.65	76.0794	2,639.65	70.8094	2,639.65	71.0259	2,639.65	72.008	2,639.65	69.6136	2,639.65	74.2672	2,639.65	73.4455	2,639.65	72.2551	2,639.65	72.4705	2,639.65	69.04	2,639.65	68.2584	2,639.65	65.5851	2,639.65	61.7872	2,639.65	66.9109	2,639.65	64.8839	2,639.65	74.2442	2,639.65	72.2518	2,639.65	75.1659
2,731.93	86.9249	2,731.93	86.6846	2,731.93	86.9035	2,731.93	85.4198	2,731.93	86.0211	2,731.93	84.289	2,731.93	84.5347	2,731.93	82.1522	2,731.93	82.9462	2,731.93	81.1188	2,731.93	81.1567	2,731.93	79.0695	2,731.93	79.0387	2,731.93	76.6477	2,731.93	77.0352	2,731.93	75.3421	2,731.93	75.1373	2,731.93	73.6294	2,731.93	73.501	2,731.93	71.9126	2,731.93	72.169	2,731.93	68.4855	2,731.93	70.403	2,731.93	69.3017	2,731.93	70.2557	2,731.93	69.6652	2,731.93	69.5323	2,731.93	71.1567	2,731.93	71.4918	2,731.93	70.3607	2,731.93	70.1591	2,731.93	62.2356	2,731.93	66.7814	2,731.93	63.8806	2,731.93	61.4119	2,731.93	67.1451
2,828.61	86.6636	2,828.61	86.53	2,828.61	85.9992	2,828.61	85.085	2,828.61	85.863	2,828.61	84.16	2,828.61	84.2815	2,828.61	82.2625	2,828.61	82.9138	2,828.61	79.8904	2,828.61	80.7617	2,828.61	77.8106	2,828.61	79.05	2,828.61	76.6936	2,828.61	77.1184	2,828.61	72.9852	2,828.61	75.3479	2,828.61	72.3595	2,828.61	73.3946	2,828.61	69.5335	2,828.61	71.5507	2,828.61	67.9083	2,828.61	69.8458	2,828.61	69.0248	2,828.61	68.2352	2,828.61	65.3958	2,828.61	69.3932	2,828.61	67.6718	2,828.61	68.3069	2,828.61	68.083	2,828.61	69.8688	2,828.61	64.3204	2,828.61	68.6755	2,828.61	65.0737	2,828.61	63.8879	2,828.61	66.7045
2,928.22	87.0596	2,928.22	86.7053	2,928.22	86.8708	2,928.22	85.9132	2,928.22	86.0174	2,928.22	84.4727	2,928.22	84.8609	2,928.22	82.6195	2,928.22	83.5502	2,928.22	79.9523	2,928.22	81.788	2,928.22	78.3225	2,928.22	79.5246	2,928.22	76.1478	2,928.22	77.7748	2,928.22	73.7142	2,928.22	75.9935	2,928.22	72.5475	2,928.22	74.6316	2,928.22	71.409	2,928.22	72.3842	2,928.22	70.0452	2,928.22	70.1146	2,928.22	67.7164	2,928.22	67.3706	2,928.22	66.6947	2,928.22	65.2732	2,928.22	69.9994	2,928.22	68.4652	2,928.22	71.6563	2,928.22	71.8897	2,928.22	67.6466	2,928.22	69.312	2,928.22	47.327	2,928.22	60.9867	2,928.22	61.3804
3,030.76	87.2174	3,030.76	86.7586	3,030.76	86.9833	3,030.76	85.8686	3,030.76	86.1045	3,030.76	84.4445	3,030.76	85.0724	3,030.76	82.9421	3,030.76	83.5866	3,030.76	80.9654	3,030.76	82.1704	3,030.76	78.9958	3,030.76	80.4869	3,030.76	75.5931	3,030.76	77.4874	3,030.76	74.7297	3,030.76	75.672	3,030.76	74.2039	3,030.76	74.8803	3,030.76	71.0974	3,030.76	72.3906	3,030.76	68.5875	3,030.76	69.0434	3,030.76	71.4634	3,030.76	71.7799	3,030.76	67.3705	3,030.76	70.5806	3,030.76	58.723	3,030.76	61.6193	3,030.76	69.1824	3,030.76	70.0089	3,030.76	71.608	3,030.76	72.9581	3,030.76	73.1782	3,030.76	72.4134	3,030.76	72.6442
3,137.7	86.847	3,137.7	86.3469	3,137.7	87.0976	3,137.7	85.7109	3,137.7	85.9331	3,137.7	84.5387	3,137.7	85.1332	3,137.7	82.5895	3,137.7	83.5289	3,137.7	81.4654	3,137.7	82.117	3,137.7	79.6822	3,137.7	80.1476	3,137.7	77.3909	3,137.7	77.8019	3,137.7	75.0624	3,137.7	75.6002	3,137.7	73.3206	3,137.7	74.7095	3,137.7	73.2318	3,137.7	73.9995	3,137.7	70.2952	3,137.7	70.9119	3,137.7	69.2935	3,137.7	69.1843	3,137.7	70.8991	3,137.7	70.7922	3,137.7	69.6211	3,137.7	69.7146	3,137.7	67.3228	3,137.7	65.5037	3,137.7	63.5516	3,137.7	64.6573	3,137.7	70.2807	3,137.7	69.4098	3,137.7	72.798
3,249.02	86.0355	3,249.02	85.7464	3,249.02	86.2239	3,249.02	85.2395	3,249.02	85.5576	3,249.02	84.1577	3,249.02	84.7773	3,249.02	82.859	3,249.02	83.5114	3,249.02	82.0247	3,249.02	81.8827	3,249.02	79.7961	3,249.02	80.1187	3,249.02	77.9714	3,249.02	77.929	3,249.02	75.942	3,249.02	75.8609	3,249.02	74.6055	3,249.02	74.5359	3,249.02	72.7605	3,249.02	73.5575	3,249.02	72.0055	3,249.02	71.1494	3,249.02	70.3137	3,249.02	69.7059	3,249.02	68.6674	3,249.02	68.7716	3,249.02	68.4655	3,249.02	68.7534	3,249.02	71.061	3,249.02	70.3	3,249.02	67.5311	3,249.02	68.6906	3,249.02	65.9497	3,249.02	64.9396	3,249.02	68.7301
3,363.28	85.6693	3,363.28	85.3888	3,363.28	85.9634	3,363.28	84.93	3,363.28	85.3004	3,363.28	83.903	3,363.28	84.5556	3,363.28	82.5183	3,363.28	83.6037	3,363.28	81.2687	3,363.28	82.1872	3,363.28	79.5669	3,363.28	80.5042	3,363.28	78.2987	3,363.28	78.3571	3,363.28	75.4962	3,363.28	75.7354	3,363.28	73.8346	3,363.28	74.8449	3,363.28	72.3628	3,363.28	74.1074	3,363.28	71.0519	3,363.28	72.9764	3,363.28	70.6543	3,363.28	69.8514	3,363.28	68.8277	3,363.28	70.145	3,363.28	65.5764	3,363.28	68.5289	3,363.28	68.781	3,363.28	69.0358	3,363.28	68.6518	3,363.28	69.7474	3,363.28	65.966	3,363.28	68.4853	3,363.28	65.6398
3,481.93	86.1556	3,481.93	86.2592	3,481.93	85.7726	3,481.93	85.3083	3,481.93	86.1471	3,481.93	84.5093	3,481.93	85.1759	3,481.93	83.8041	3,481.93	84.092	3,481.93	82.2238	3,481.93	82.1178	3,481.93	80.3674	3,481.93	80.6508	3,481.93	78.8373	3,481.93	78.7129	3,481.93	75.9195	3,481.93	76.1642	3,481.93	74.2812	3,481.93	73.5011	3,481.93	73.0958	3,481.93	73.4224	3,481.93	71.1549	3,481.93	72.3959	3,481.93	71.4281	3,481.93	70.3976	3,481.93	70.4682	3,481.93	70.6494	3,481.93	66.8776	3,481.93	64.5098	3,481.93	68.9508	3,481.93	66.0324	3,481.93	69.0546	3,481.93	68.1705	3,481.93	66.4585	3,481.93	65.6327	3,481.93	68.7472
3,604.98	86.0915	3,604.98	86.193	3,604.98	85.878	3,604.98	85.9608	3,604.98	85.7904	3,604.98	85.2725	3,604.98	85.0703	3,604.98	84.4002	3,604.98	84.0037	3,604.98	82.2887	3,604.98	82.5204	3,604.98	80.639	3,604.98	81.1568	3,604.98	79.5825	3,604.98	79.3517	3,604.98	77.062	3,604.98	76.6992	3,604.98	73.8968	3,604.98	73.9372	3,604.98	72.3928	3,604.98	73.0054	3,604.98	72.4665	3,604.98	71.925	3,604.98	71.2561	3,604.98	70.8892	3,604.98	71.5604	3,604.98	70.5379	3,604.98	69.1544	3,604.98	68.022	3,604.98	68.4608	3,604.98	68.6341	3,604.98	68.0306	3,604.98	67.6073	3,604.98	66.8346	3,604.98	65.3479	3,604.98	69.8467
3,732.42	86.2567	3,732.42	86.1699	3,732.42	86.2726	3,732.42	85.6559	3,732.42	85.7604	3,732.42	85.1736	3,732.42	85.3443	3,732.42	84.2919	3,732.42	84.1985	3,732.42	82.2259	3,732.42	82.8482	3,732.42	80.1762	3,732.42	81.5628	3,732.42	78.6707	3,732.42	79.8062	3,732.42	76.9984	3,732.42	78.5182	3,732.42	74.6455	3,732.42	75.7004	3,732.42	72.9524	3,732.42	72.9708	3,732.42	73.0568	3,732.42	73.3344	3,732.42	69.0502	3,732.42	71.3261	3,732.42	71.2064	3,732.42	70.5814	3,732.42	68.4911	3,732.42	71.2724	3,732.42	67.9825	3,732.42	69.9588	3,732.42	68.1843	3,732.42	68.1899	3,732.42	67.274	3,732.42	66.3065	3,732.42	68.5418
3,864.26	86.4305	3,864.26	86.0176	3,864.26	86.7928	3,864.26	85.9225	3,864.26	85.9636	3,864.26	85.4121	3,864.26	85.2872	3,864.26	83.9835	3,864.26	84.3962	3,864.26	82.445	3,864.26	83.1291	3,864.26	80.2758	3,864.26	81.4325	3,864.26	78.9584	3,864.26	79.6148	3,864.26	77.6226	3,864.26	77.1166	3,864.26	74.9879	3,864.26	75.407	3,864.26	73.1562	3,864.26	72.5969	3,864.26	72.4908	3,864.26	72.8381	3,864.26	70.3407	3,864.26	70.4691	3,864.26	70.181	3,864.26	70.115	3,864.26	67.7856	3,864.26	70.1933	3,864.26	68.2919	3,864.26	68.3636	3,864.26	67.6168	3,864.26	68.3519	3,864.26	66.721	3,864.26	64.0602	3,864.26	68.868
4,000.49	85.6821	4,000.49	85.1756	4,000.49	85.6133	4,000.49	85.0009	4,000.49	84.8634	4,000.49	84.3464	4,000.49	84.4097	4,000.49	83.0652	4,000.49	83.7175	4,000.49	82.0015	4,000.49	82.307	4,000.49	79.8744	4,000.49	80.2713	4,000.49	77.2503	4,000.49	77.7144	4,000.49	76.6358	4,000.49	76.0681	4,000.49	74.0662	4,000.49	74.9172	4,000.49	72.5734	4,000.49	72.1653	4,000.49	71.4532	4,000.49	69.8749	4,000.49	69.8361	4,000.49	69.8303	4,000.49	70.2512	4,000.49	69.622	4,000.49	69.0918	4,000.49	67.9136	4,000.49	67.8405	4,000.49	67.3176	4,000.49	67.6352	4,000.49	68.6026	4,000.49	62.4994	4,000.49	64.0075	4,000.49	66.4518
4,141.11	85.7214	4,141.11	85.8037	4,141.11	85.4386	4,141.11	85.2236	4,141.11	85.8369	4,141.11	84.3345	4,141.11	85.0866	4,141.11	84.1258	4,141.11	84.4773	4,141.11	82.2426	4,141.11	83.0305	4,141.11	80.3934	4,141.11	80.5438	4,141.11	78.2853	4,141.11	78.6195	4,141.11	75.0886	4,141.11	76.5802	4,141.11	74.63	4,141.11	74.5034	4,141.11	71.5903	4,141.11	72.5125	4,141.11	70.7401	4,141.11	71.595	4,141.11	68.6933	4,141.11	69.7698	4,141.11	69.6497	4,141.11	68.6637	4,141.11	67.635	4,141.11	69.6962	4,141.11	65.9939	4,141.11	68.1206	4,141.11	67.2385	4,141.11	69.1347	4,141.11	61.9438	4,141.11	63.719	4,141.11	65.2556
4,287.6	85.5772	4,287.6	86.1032	4,287.6	85.8909	4,287.6	85.7909	4,287.6	85.9972	4,287.6	85.5003	4,287.6	85.7856	4,287.6	84.6511	4,287.6	84.3941	4,287.6	82.6514	4,287.6	82.6734	4,287.6	80.5277	4,287.6	81.0677	4,287.6	78.3108	4,287.6	79.188	4,287.6	75.5694	4,287.6	77.2094	4,287.6	74.7083	4,287.6	74.3147	4,287.6	73.4274	4,287.6	72.9018	4,287.6	70.4535	4,287.6	71.257	4,287.6	70.5852	4,287.6	69.6507	4,287.6	65.3878	4,287.6	69.6334	4,287.6	68.2953	4,287.6	69.393	4,287.6	68.2929	4,287.6	66.8549	4,287.6	68.2189	4,287.6	69.4806	4,287.6	65.1008	4,287.6	64.6522	4,287.6	67.3514
4,438.48	85.9702	4,438.48	85.5777	4,438.48	86.2025	4,438.48	86.3401	4,438.48	85.7474	4,438.48	85.5105	4,438.48	85.6293	4,438.48	84.0203	4,438.48	84.6211	4,438.48	82.441	4,438.48	82.2671	4,438.48	79.9345	4,438.48	81.2645	4,438.48	77.7389	4,438.48	79.4549	4,438.48	75.7956	4,438.48	75.671	4,438.48	73.3951	4,438.48	73.7728	4,438.48	71.2882	4,438.48	72.0607	4,438.48	71.1276	4,438.48	70.2343	4,438.48	71.1102	4,438.48	69.4885	4,438.48	66.8023	4,438.48	70.0191	4,438.48	70.5273	4,438.48	68.9274	4,438.48	66.7731	4,438.48	66.9008	4,438.48	68.5722	4,438.48	68.8752	4,438.48	63.0393	4,438.48	66.1292	4,438.48	65.8589
4,595.21	85.2641	4,595.21	85.9156	4,595.21	85.0742	4,595.21	85.5	4,595.21	85.6167	4,595.21	85.1394	4,595.21	84.7955	4,595.21	83.4482	4,595.21	84.3726	4,595.21	81.5229	4,595.21	83.2158	4,595.21	80.4297	4,595.21	80.5256	4,595.21	78.4412	4,595.21	78.2216	4,595.21	74.7985	4,595.21	76.7676	4,595.21	72.7058	4,595.21	74.5785	4,595.21	68.752	4,595.21	71.6112	4,595.21	70.6169	4,595.21	71.6815	4,595.21	69.1796	4,595.21	69.5619	4,595.21	68.7586	4,595.21	66.0048	4,595.21	69.0704	4,595.21	67.3347	4,595.21	67.1534	4,595.21	65.5386	4,595.21	70.2558	4,595.21	67.6131	4,595.21	64.8744	4,595.21	64.3558	4,595.21	66.0513
4,756.35	84.9935	4,756.35	85.1816	4,756.35	85.6914	4,756.35	84.6901	4,756.35	85.6248	4,756.35	84.5968	4,756.35	85.5284	4,756.35	83.6346	4,756.35	84.5934	4,756.35	81.9593	4,756.35	82.4183	4,756.35	79.0331	4,756.35	81.1596	4,756.35	77.0484	4,756.35	78.4529	4,756.35	74.7767	4,756.35	74.1268	4,756.35	72.6463	4,756.35	73.8513	4,756.35	72.8304	4,756.35	71.48	4,756.35	69.7309	4,756.35	70.5448	4,756.35	68.1736	4,756.35	68.853	4,756.35	68.2961	4,756.35	67.7104	4,756.35	68.649	4,756.35	68.8205	4,756.35	67.5032	4,756.35	65.4155	4,756.35	68.0277	4,756.35	68.3419	4,756.35	61.4717	4,756.35	63.9501	4,756.35	67.3318
4,924.8	86.2122	4,924.8	85.8482	4,924.8	86.8237	4,924.8	86.4116	4,924.8	85.8747	4,924.8	85.3081	4,924.8	85.7952	4,924.8	84.7708	4,924.8	84.3737	4,924.8	82.6265	4,924.8	82.4033	4,924.8	80.5395	4,924.8	80.3217	4,924.8	77.5909	4,924.8	78.4426	4,924.8	74.7131	4,924.8	76.6794	4,924.8	70.7808	4,924.8	74.1755	4,924.8	71.4694	4,924.8	72.0408	4,924.8	67.6171	4,924.8	69.265	4,924.8	67.0615	4,924.8	69.9079	4,924.8	66.5096	4,924.8	67.7307	4,924.8	64.5071	4,924.8	67.5579	4,924.8	63.69	4,924.8	66.2597	4,924.8	67.2365	4,924.8	68.8994	4,924.8	60.279	4,924.8	65.1716	4,924.8	63.5711
5,097.66	85.7914	5,097.66	85.6512	5,097.66	85.0632	5,097.66	86.1011	5,097.66	85.9178	5,097.66	85.509	5,097.66	84.8252	5,097.66	84.4539	5,097.66	84.2787	5,097.66	82.3062	5,097.66	82.7943	5,097.66	79.9659	5,097.66	80.2298	5,097.66	78.4848	5,097.66	78.0323	5,097.66	75.8995	5,097.66	76.4878	5,097.66	74.1935	5,097.66	74.2113	5,097.66	69.9232	5,097.66	70.9059	5,097.66	70.5937	5,097.66	70.2352	5,097.66	69.4557	5,097.66	66.7277	5,097.66	71.3251	5,097.66	65.9893	5,097.66	69.5214	5,097.66	65.4386	5,097.66	67.3289	5,097.66	65.0826	5,097.66	68.1895	5,097.66	67.0695	5,097.66	65.2159	5,097.66	62.2254	5,097.66	65.4501
5,277.83	85.3671	5,277.83	85.1987	5,277.83	85.3805	5,277.83	84.4133	5,277.83	85.0305	5,277.83	84.218	5,277.83	84.6495	5,277.83	82.2448	5,277.83	83.7708	5,277.83	80.5469	5,277.83	82.1087	5,277.83	78.4372	5,277.83	80.256	5,277.83	77.5398	5,277.83	77.9389	5,277.83	72.945	5,277.83	75.2169	5,277.83	73.0761	5,277.83	73.4582	5,277.83	70.4975	5,277.83	70.7542	5,277.83	68.802	5,277.83	68.8118	5,277.83	66.3264	5,277.83	67.6005	5,277.83	67.0224	5,277.83	67.0576	5,277.83	69.2066	5,277.83	66.0828	5,277.83	64.7012	5,277.83	66.9551	5,277.83	66.8498	5,277.83	66.7936	5,277.83	59.7762	5,277.83	64.4317	5,277.83	60.3
5,463.87	85.618	5,463.87	85.804	5,463.87	86.2221	5,463.87	85.5469	5,463.87	85.3929	5,463.87	84.4888	5,463.87	85.484	5,463.87	84.0907	5,463.87	83.7934	5,463.87	81.9077	5,463.87	81.8484	5,463.87	80.5951	5,463.87	80.5	5,463.87	77.4162	5,463.87	77.9361	5,463.87	75.9471	5,463.87	74.7572	5,463.87	73.3458	5,463.87	72.45	5,463.87	74.1626	5,463.87	71.221	5,463.87	70.8505	5,463.87	67.5657	5,463.87	68.139	5,463.87	68.6232	5,463.87	65.3916	5,463.87	64.1622	5,463.87	64.3081	5,463.87	65.8579	5,463.87	66.5729	5,463.87	67.7515	5,463.87	67.0549	5,463.87	67.136	5,463.87	60.8101	5,463.87	63.0245	5,463.87	61.2468
5,657.23	85.7126	5,657.23	85.4186	5,657.23	85.4915	5,657.23	85.1041	5,657.23	85.7167	5,657.23	84.4763	5,657.23	84.2647	5,657.23	83.6838	5,657.23	83.8754	5,657.23	81.3691	5,657.23	82.7838	5,657.23	79.5617	5,657.23	80.3349	5,657.23	75.97	5,657.23	77.4658	5,657.23	75.8563	5,657.23	76.6948	5,657.23	72.5045	5,657.23	72.8729	5,657.23	70.4905	5,657.23	69.7924	5,657.23	68.619	5,657.23	69.5169	5,657.23	68.3982	5,657.23	66.4202	5,657.23	68.1934	5,657.23	67.1583	5,657.23	64.8637	5,657.23	64.9619	5,657.23	67.4467	5,657.23	65.8947	5,657.23	66.4896	5,657.23	63.0822	5,657.23	62.9345	5,657.23	63.1624	5,657.23	59.3005
5,856.45	85.3983	5,856.45	85.3056	5,856.45	85.4712	5,856.45	85.0264	5,856.45	85.1371	5,856.45	84.5466	5,856.45	84.1714	5,856.45	83.2507	5,856.45	82.9291	5,856.45	82.3215	5,856.45	81.9017	5,856.45	80.2464	5,856.45	80.463	5,856.45	79.3671	5,856.45	78.79	5,856.45	75.6978	5,856.45	75.2789	5,856.45	73.1172	5,856.45	71.955	5,856.45	68.5312	5,856.45	71.3353	5,856.45	66.8727	5,856.45	68.6949	5,856.45	61.7315	5,856.45	65.4232	5,856.45	62.3399	5,856.45	66.4317	5,856.45	62.2371	5,856.45	66.9124	5,856.45	64.9794	5,856.45	66.7268	5,856.45	65.1224	5,856.45	64.394	5,856.45	61.9231	5,856.45	63.8073	5,856.45	63.4674
6,062.99	85.9245	6,062.99	85.5358	6,062.99	85.9222	6,062.99	85.4374	6,062.99	85.152	6,062.99	84.4877	6,062.99	84.899	6,062.99	84.0947	6,062.99	84.2747	6,062.99	81.326	6,062.99	81.9484	6,062.99	78.6509	6,062.99	80.6723	6,062.99	76.9096	6,062.99	77.3858	6,062.99	72.2742	6,062.99	75.1023	6,062.99	69.5572	6,062.99	72.7855	6,062.99	70.0083	6,062.99	71.0405	6,062.99	68.2303	6,062.99	67.5514	6,062.99	67.2846	6,062.99	67.1676	6,062.99	64.6483	6,062.99	67.61	6,062.99	65.3277	6,062.99	66.6713	6,062.99	65.1894	6,062.99	67.1869	6,062.99	65.7877	6,062.99	65.8315	6,062.99	60.7729	6,062.99	65.0872	6,062.99	63.4834
6,276.86	85.4176	6,276.86	85.245	6,276.86	85.0196	6,276.86	85.3142	6,276.86	85.1363	6,276.86	84.6933	6,276.86	83.8209	6,276.86	84.1555	6,276.86	83.9422	6,276.86	81.6298	6,276.86	82.4402	6,276.86	79.7259	6,276.86	79.7105	6,276.86	75.5604	6,276.86	77.1532	6,276.86	73.5306	6,276.86	75.1639	6,276.86	71.1959	6,276.86	72.8119	6,276.86	70.1033	6,276.86	70.0763	6,276.86	68.5772	6,276.86	65.9592	6,276.86	65.8204	6,276.86	65.9999	6,276.86	66.1569	6,276.86	64.77	6,276.86	64.1205	6,276.86	62.3942	6,276.86	65.6459	6,276.86	64.5541	6,276.86	64.8172	6,276.86	64.4778	6,276.86	62.2117	6,276.86	65.497	6,276.86	61.5334
6,498.05	85.3076	6,498.05	85.0788	6,498.05	85.6563	6,498.05	84.6215	6,498.05	84.7079	6,498.05	84.2063	6,498.05	84.618	6,498.05	82.9518	6,498.05	83.0093	6,498.05	81.7022	6,498.05	81.4372	6,498.05	78.7323	6,498.05	79.6857	6,498.05	76.3481	6,498.05	78.0236	6,498.05	73.9903	6,498.05	74.015	6,498.05	71.3446	6,498.05	71.9393	6,498.05	67.5726	6,498.05	68.7862	6,498.05	67.5986	6,498.05	66.5451	6,498.05	65.0845	6,498.05	65.6824	6,498.05	65.5603	6,498.05	63.281	6,498.05	62.9181	6,498.05	62.7866	6,498.05	65.4077	6,498.05	66.2593	6,498.05	63.6619	6,498.05	64.4368	6,498.05	59.2321	6,498.05	61.7731	6,498.05	56.5444
6,726.56	86.1151	6,726.56	85.6547	6,726.56	85.9218	6,726.56	85.248	6,726.56	85.1503	6,726.56	84.4449	6,726.56	84.8843	6,726.56	83.9141	6,726.56	83.9073	6,726.56	81.8291	6,726.56	81.921	6,726.56	78.9119	6,726.56	79.6741	6,726.56	77.5346	6,726.56	77.0839	6,726.56	74.4696	6,726.56	73.9984	6,726.56	71.4742	6,726.56	71.7907	6,726.56	69.5427	6,726.56	69.2069	6,726.56	67.1547	6,726.56	67.6872	6,726.56	65.1972	6,726.56	66.9269	6,726.56	64.8607	6,726.56	63.115	6,726.56	65.0841	6,726.56	62.1935	6,726.56	65.0951	6,726.56	65.4681	6,726.56	63.9223	6,726.56	61.9086	6,726.56	61.2083	6,726.56	63.2756	6,726.56	58.6962
6,963.87	85.7393	6,963.87	85.3363	6,963.87	85.3661	6,963.87	84.5023	6,963.87	84.887	6,963.87	83.9909	6,963.87	83.8584	6,963.87	83.0741	6,963.87	83.068	6,963.87	79.9925	6,963.87	81.7383	6,963.87	79.3329	6,963.87	79.2212	6,963.87	76.5022	6,963.87	76.8354	6,963.87	73.3553	6,963.87	73.228	6,963.87	69.8601	6,963.87	71.3197	6,963.87	67.6273	6,963.87	68.5091	6,963.87	65.8637	6,963.87	68.6416	6,963.87	65.5995	6,963.87	63.4031	6,963.87	63.977	6,963.87	62.7256	6,963.87	61.2249	6,963.87	64.9903	6,963.87	65.2919	6,963.87	63.1599	6,963.87	63.8902	6,963.87	62.9285	6,963.87	62.552	6,963.87	62.6817	6,963.87	54.1271
7,209.96	85.7037	7,209.96	85.8205	7,209.96	85.6503	7,209.96	85.0512	7,209.96	85.1896	7,209.96	84.3149	7,209.96	84.5807	7,209.96	83.1326	7,209.96	83.1802	7,209.96	81.5584	7,209.96	81.0737	7,209.96	78.8079	7,209.96	79.5992	7,209.96	75.3371	7,209.96	76.0839	7,209.96	73.5455	7,209.96	74.0194	7,209.96	70.9743	7,209.96	70.9095	7,209.96	68.9801	7,209.96	70.287	7,209.96	65.5008	7,209.96	67.0613	7,209.96	63.3005	7,209.96	64.3257	7,209.96	62.663	7,209.96	65.3561	7,209.96	63.8514	7,209.96	61.111	7,209.96	63.829	7,209.96	64.4142	7,209.96	61.2439	7,209.96	62.3465	7,209.96	61.9341	7,209.96	62.5976	7,209.96	57.9633
7,464.84	85.8564	7,464.84	85.6232	7,464.84	85.8201	7,464.84	85.0778	7,464.84	85.3963	7,464.84	84.0504	7,464.84	84.5353	7,464.84	83.0556	7,464.84	83.6587	7,464.84	80.1864	7,464.84	81.6029	7,464.84	78.0174	7,464.84	79.5938	7,464.84	76.7982	7,464.84	75.8561	7,464.84	72.7583	7,464.84	73.2978	7,464.84	70.6363	7,464.84	70.5033	7,464.84	67.7432	7,464.84	69.012	7,464.84	67.2695	7,464.84	65.7039	7,464.84	64.1234	7,464.84	65.825	7,464.84	61.4353	7,464.84	64.4673	7,464.84	61.8405	7,464.84	63.1705	7,464.84	61.6856	7,464.84	61.519	7,464.84	59.1531	7,464.84	61.8512	7,464.84	61.7586	7,464.84	62.5013	7,464.84	55.1935
7,727.05	86.1186	7,727.05	85.2967	7,727.05	85.7753	7,727.05	84.7391	7,727.05	84.7229	7,727.05	84.2542	7,727.05	83.6752	7,727.05	82.8019	7,727.05	82.6397	7,727.05	80.7678	7,727.05	81.0868	7,727.05	78.7798	7,727.05	78.4574	7,727.05	76.6252	7,727.05	76.7171	7,727.05	73.5337	7,727.05	73.1208	7,727.05	70.5276	7,727.05	70.109	7,727.05	67.3255	7,727.05	67.5724	7,727.05	68.7776	7,727.05	65.0129	7,727.05	62.8255	7,727.05	63.474	7,727.05	62.3362	7,727.05	62.9018	7,727.05	63.23	7,727.05	61.238	7,727.05	64.8071	7,727.05	61.8929	7,727.05	61.7682	7,727.05	64.4929	7,727.05	63.1383	7,727.05	63.0055	7,727.05	51.7212
7,999.51	86.5115	7,999.51	85.8688	7,999.51	86.2162	7,999.51	85.2669	7,999.51	85.3704	7,999.51	84.5153	7,999.51	84.2826	7,999.51	83.4996	7,999.51	83.0266	7,999.51	81.5612	7,999.51	81.0905	7,999.51	78.6494	7,999.51	79.6073	7,999.51	75.8815	7,999.51	77.2423	7,999.51	72.6987	7,999.51	73.1967	7,999.51	69.1509	7,999.51	71.6455	7,999.51	67.4928	7,999.51	68.2318	7,999.51	65.8696	7,999.51	65.5926	7,999.51	62.0456	7,999.51	65.3511	7,999.51	64.6083	7,999.51	62.7799	7,999.51	61.6174	7,999.51	60.9522	7,999.51	63.5956	7,999.51	62.5194	7,999.51	59.0396	7,999.51	62.0913	7,999.51	62.4052	7,999.51	64.4761	7,999.51	57.2913
8,282.23	85.4951	8,282.23	85.5116	8,282.23	85.6377	8,282.23	84.0809	8,282.23	84.5361	8,282.23	83.3403	8,282.23	83.5201	8,282.23	82.6441	8,282.23	82.7679	8,282.23	80.4432	8,282.23	81.2401	8,282.23	78.7739	8,282.23	79.1128	8,282.23	75.2889	8,282.23	77.9299	8,282.23	72.856	8,282.23	71.9562	8,282.23	69.8344	8,282.23	71.4108	8,282.23	68.2961	8,282.23	67.0386	8,282.23	66.1219	8,282.23	66.4437	8,282.23	64.1889	8,282.23	62.5308	8,282.23	62.2931	8,282.23	60.6318	8,282.23	60.1322	8,282.23	60.7913	8,282.23	63.9635	8,282.23	64.0949	8,282.23	62.7832	8,282.23	63.7856	8,282.23	62.0741	8,282.23	63.1668	8,282.23	53.0038
8,573.73	85.9926	8,573.73	85.3427	8,573.73	85.3563	8,573.73	84.4322	8,573.73	84.9496	8,573.73	83.284	8,573.73	84.1308	8,573.73	82.9637	8,573.73	83.1976	8,573.73	80.5255	8,573.73	81.1971	8,573.73	78.3073	8,573.73	79.6901	8,573.73	76.1542	8,573.73	76.4382	8,573.73	72.9477	8,573.73	73.7051	8,573.73	69.7515	8,573.73	70.5764	8,573.73	67.7916	8,573.73	68.7036	8,573.73	65.8966	8,573.73	66.1943	8,573.73	61.8709	8,573.73	65.0553	8,573.73	62.9315	8,573.73	64.0432	8,573.73	60.0452	8,573.73	58.9476	8,573.73	59.3879	8,573.73	61.7703	8,573.73	60.9026	8,573.73	64.0571	8,573.73	62.1981	8,573.73	63.4473	8,573.73	47.1982
8,876.95	85.0928	8,876.95	84.7112	8,876.95	84.961	8,876.95	83.9351	8,876.95	84.1398	8,876.95	83.5786	8,876.95	83.181	8,876.95	82.1339	8,876.95	82.2697	8,876.95	80.6163	8,876.95	81.1683	8,876.95	78.3667	8,876.95	78.2277	8,876.95	75.2277	8,876.95	74.1981	8,876.95	72.1074	8,876.95	71.7735	8,876.95	70.3548	8,876.95	69.2024	8,876.95	66.7796	8,876.95	67.0874	8,876.95	62.6717	8,876.95	64.3555	8,876.95	63.0104	8,876.95	63.9474	8,876.95	63.8709	8,876.95	60.4143	8,876.95	61.22	8,876.95	58.7057	8,876.95	62.2369	8,876.95	60.8563	8,876.95	61.609	8,876.95	63.2079	8,876.95	63.4477	8,876.95	62.6012	8,876.95	36.0966
9,188.96	85.4925	9,188.96	85.0051	9,188.96	85.2679	9,188.96	84.3475	9,188.96	84.5522	9,188.96	82.9635	9,188.96	83.4263	9,188.96	82.4827	9,188.96	82.5587	9,188.96	80.2709	9,188.96	80.8138	9,188.96	77.9586	9,188.96	78.3866	9,188.96	75.5769	9,188.96	74.867	9,188.96	71.827	9,188.96	73.6006	9,188.96	68.6477	9,188.96	69.8269	9,188.96	65.6808	9,188.96	67.1934	9,188.96	64.5189	9,188.96	63.3528	9,188.96	59.6825	9,188.96	63.6532	9,188.96	62.3887	9,188.96	59.5034	9,188.96	58.4114	9,188.96	58.7266	9,188.96	61.5767	9,188.96	59.8536	9,188.96	59.5774	9,188.96	61.9107	9,188.96	61.5355	9,188.96	62.9169	9,188.96	43.938
9,514.16	84.7446	9,514.16	84.4297	9,514.16	84.5863	9,514.16	83.3946	9,514.16	84.0669	9,514.16	82.838	9,514.16	82.5971	9,514.16	82.12	9,514.16	81.8815	9,514.16	80.2175	9,514.16	80.4071	9,514.16	78.2248	9,514.16	78.3205	9,514.16	75.5538	9,514.16	75.7003	9,514.16	72.3319	9,514.16	72.3457	9,514.16	69.4457	9,514.16	69.9814	9,514.16	65.5557	9,514.16	66.7373	9,514.16	63.4456	9,514.16	64.8274	9,514.16	61.9322	9,514.16	61.7896	9,514.16	59.6139	9,514.16	57.3782	9,514.16	56.8175	9,514.16	58.4128	9,514.16	62.9016	9,514.16	59.5687	9,514.16	60.091	9,514.16	59.3842	9,514.16	62.2674	9,514.16	63.5098	9,514.16	35.1399
9,849.61	84.9289	9,849.61	84.6562	9,849.61	84.629	9,849.61	84.0018	9,849.61	83.9704	9,849.61	82.7805	9,849.61	82.9774	9,849.61	82.5466	9,849.61	82.5283	9,849.61	80.4316	9,849.61	80.7648	9,849.61	78.0637	9,849.61	78.7733	9,849.61	75.1934	9,849.61	75.689	9,849.61	72.3988	9,849.61	72.7212	9,849.61	68.4058	9,849.61	69.7189	9,849.61	67.1718	9,849.61	65.941	9,849.61	64.895	9,849.61	64.6133	9,849.61	61.8198	9,849.61	63.3818	9,849.61	63.3282	9,849.61	59.9018	9,849.61	54.752	9,849.61	56.5242	9,849.61	59.8443	9,849.61	60.0944	9,849.61	59.7367	9,849.61	61.3979	9,849.61	61.704	9,849.61	62.0393	9,849.61	43.3581
10,196.8	84.7853	10,196.8	84.4131	10,196.8	84.8314	10,196.8	83.7808	10,196.8	83.9187	10,196.8	83.1336	10,196.8	82.8651	10,196.8	82.4837	10,196.8	82.4085	10,196.8	80.136	10,196.8	80.9013	10,196.8	78.1657	10,196.8	78.7609	10,196.8	74.5594	10,196.8	75.2727	10,196.8	72.067	10,196.8	72.4139	10,196.8	68.976	10,196.8	69.3462	10,196.8	66.0046	10,196.8	66.7366	10,196.8	63.4743	10,196.8	63.6905	10,196.8	62.6493	10,196.8	61.9576	10,196.8	62.5526	10,196.8	55.5881	10,196.8	56.3912	10,196.8	58.1826	10,196.8	61.3582	10,196.8	61.3926	10,196.8	60.9437	10,196.8	60.9133	10,196.8	61.063	10,196.8	60.964	10,196.8	39.9224
10,555.7	85.2919	10,555.7	84.7198	10,555.7	84.9807	10,555.7	84.231	10,555.7	84.1714	10,555.7	82.8592	10,555.7	83.0907	10,555.7	82.2727	10,555.7	82.4616	10,555.7	80.0483	10,555.7	80.8765	10,555.7	78.0634	10,555.7	78.9468	10,555.7	74.9422	10,555.7	75.4496	10,555.7	71.9312	10,555.7	72.7754	10,555.7	68.6933	10,555.7	69.8931	10,555.7	65.9159	10,555.7	67.3351	10,555.7	63.7073	10,555.7	62.859	10,555.7	63.2999	10,555.7	60.6866	10,555.7	62.8603	10,555.7	57.5453	10,555.7	57.6884	10,555.7	57.307	10,555.7	62.0498	10,555.7	60.9434	10,555.7	60.9382	10,555.7	62.841	10,555.7	62.4837	10,555.7	60.0251	10,555.7	49.4662
10,927.7	84.848	10,927.7	84.5518	10,927.7	84.7525	10,927.7	83.7152	10,927.7	84.175	10,927.7	82.7283	10,927.7	82.8927	10,927.7	82.527	10,927.7	82.2905	10,927.7	80.2229	10,927.7	80.775	10,927.7	77.9438	10,927.7	78.3871	10,927.7	75.6072	10,927.7	75.51	10,927.7	71.6341	10,927.7	71.8702	10,927.7	69.1586	10,927.7	69.6029	10,927.7	63.5997	10,927.7	64.0784	10,927.7	63.3163	10,927.7	63.6676	10,927.7	61.8077	10,927.7	60.0367	10,927.7	61.2469	10,927.7	59.8885	10,927.7	56.5657	10,927.7	59.3485	10,927.7	62.3288	10,927.7	60.23	10,927.7	60.8283	10,927.7	58.9889	10,927.7	60.6848	10,927.7	59.8908	10,927.7	39.1808
11,313	84.8121	11,313	84.4837	11,313	84.5239	11,313	83.5471	11,313	83.7913	11,313	82.7721	11,313	82.9351	11,313	82.2506	11,313	81.9312	11,313	79.8339	11,313	80.1045	11,313	77.76	11,313	78.0941	11,313	74.2663	11,313	75.2112	11,313	71.4214	11,313	71.2556	11,313	67.6458	11,313	68.2943	11,313	66.1617	11,313	65.2278	11,313	64.5507	11,313	63.7312	11,313	60.0672	11,313	59.6038	11,313	59.3321	11,313	58.2482	11,313	56.9842	11,313	59.0869	11,313	60.4069	11,313	58.2948	11,313	60.4579	11,313	59.2358	11,313	60.6092	11,313	58.6003	11,313	44.9897
11,712.9	84.6162	11,712.9	84.4943	11,712.9	84.4142	11,712.9	83.7854	11,712.9	83.7586	11,712.9	83.045	11,712.9	82.8757	11,712.9	81.8141	11,712.9	81.818	11,712.9	79.4369	11,712.9	80.179	11,712.9	77.6941	11,712.9	78.1323	11,712.9	73.9657	11,712.9	74.6005	11,712.9	71.5849	11,712.9	70.1881	11,712.9	67.2086	11,712.9	67.4042	11,712.9	64.1822	11,712.9	65.0259	11,712.9	63.4033	11,712.9	59.0747	11,712.9	59.3821	11,712.9	57.796	11,712.9	60.6414	11,712.9	60.6839	11,712.9	55.9578	11,712.9	59.0498	11,712.9	60.674	11,712.9	58.7683	11,712.9	59.0225	11,712.9	58.6563	11,712.9	57.8687	11,712.9	58.3667	11,712.9	42.6875
12,126	84.7891	12,126	83.9319	12,126	84.6267	12,126	83.8912	12,126	83.6032	12,126	82.6393	12,126	82.6755	12,126	81.9322	12,126	81.6185	12,126	79.5936	12,126	80.1695	12,126	76.8893	12,126	78.1943	12,126	73.7518	12,126	75.0702	12,126	69.7148	12,126	69.9027	12,126	68.0036	12,126	68.459	12,126	63.4054	12,126	63.0661	12,126	61.8908	12,126	61.4678	12,126	59.7847	12,126	59.9389	12,126	61.5549	12,126	57.5696	12,126	56.7569	12,126	57.3927	12,126	59.3315	12,126	57.6603	12,126	58.7004	12,126	59.8356	12,126	54.761	12,126	57.1241	12,126	43.0506
12,553.7	84.9655	12,553.7	84.2954	12,553.7	84.6731	12,553.7	83.6405	12,553.7	83.7802	12,553.7	82.17	12,553.7	82.8364	12,553.7	81.7537	12,553.7	81.6909	12,553.7	79.3103	12,553.7	79.8773	12,553.7	76.7949	12,553.7	77.4857	12,553.7	74.2248	12,553.7	74.6372	12,553.7	69.4546	12,553.7	70.4214	12,553.7	66.9297	12,553.7	67.869	12,553.7	63.486	12,553.7	61.7818	12,553.7	62.4659	12,553.7	61.6882	12,553.7	59.2244	12,553.7	58.4235	12,553.7	60.3035	12,553.7	57.5363	12,553.7	55.7518	12,553.7	57.1947	12,553.7	59.5851	12,553.7	57.6947	12,553.7	57.6396	12,553.7	59.3326	12,553.7	55.8351	12,553.7	53.8996	12,553.7	43.902
12,996.1	84.783	12,996.1	84.5243	12,996.1	84.5041	12,996.1	83.44	12,996.1	83.9848	12,996.1	82.5011	12,996.1	82.7212	12,996.1	81.6729	12,996.1	81.3919	12,996.1	78.9534	12,996.1	79.5985	12,996.1	76.4174	12,996.1	76.8059	12,996.1	73.0857	12,996.1	73.009	12,996.1	69.8476	12,996.1	69.1693	12,996.1	66.0195	12,996.1	66.3295	12,996.1	63.3839	12,996.1	63.7554	12,996.1	61.5725	12,996.1	60.1081	12,996.1	56.1295	12,996.1	58.1977	12,996.1	58.6081	12,996.1	59.5606	12,996.1	55.54	12,996.1	57.3049	12,996.1	57.2462	12,996.1	58.0098	12,996.1	57.0068	12,996.1	57.1084	12,996.1	56.2951	12,996.1	52.712	12,996.1	32.7168
13,454.6	84.4605	13,454.6	84.0849	13,454.6	84.2493	13,454.6	83.5257	13,454.6	83.6014	13,454.6	82.2617	13,454.6	82.5341	13,454.6	80.9901	13,454.6	81.225	13,454.6	78.7308	13,454.6	79.044	13,454.6	75.6649	13,454.6	76.1544	13,454.6	72.0776	13,454.6	72.2977	13,454.6	68.3774	13,454.6	68.906	13,454.6	66.7185	13,454.6	66.0281	13,454.6	62.0744	13,454.6	61.7169	13,454.6	58.9436	13,454.6	57.1637	13,454.6	55.8322	13,454.6	58.2224	13,454.6	57.6899	13,454.6	57.6109	13,454.6	54.085	13,454.6	55.5917	13,454.6	56.1108	13,454.6	54.5174	13,454.6	56.2071	13,454.6	56.4313	13,454.6	54.4429	13,454.6	49.1407	13,454.6	42.4036
13,929.2	84.6008	13,929.2	83.9839	13,929.2	84.497	13,929.2	83.6293	13,929.2	83.5738	13,929.2	82.001	13,929.2	82.3024	13,929.2	80.9392	13,929.2	80.8776	13,929.2	78.3595	13,929.2	78.8331	13,929.2	75.2992	13,929.2	76.0289	13,929.2	72.4772	13,929.2	72.702	13,929.2	67.8319	13,929.2	69.0167	13,929.2	66.2133	13,929.2	65.7305	13,929.2	59.9397	13,929.2	60.8302	13,929.2	59.2587	13,929.2	59.3185	13,929.2	54.7522	13,929.2	58.2782	13,929.2	56.0632	13,929.2	54.8662	13,929.2	54.948	13,929.2	53.0933	13,929.2	56.076	13,929.2	54.7732	13,929.2	54.671	13,929.2	56.9544	13,929.2	52.3297	13,929.2	46.5368	13,929.2	42.1081
14,419.9	85.049	14,419.9	84.1957	14,419.9	84.7083	14,419.9	83.2369	14,419.9	83.69	14,419.9	81.8872	14,419.9	82.3424	14,419.9	80.8185	14,419.9	80.7098	14,419.9	77.7501	14,419.9	78.2986	14,419.9	75.2528	14,419.9	75.8174	14,419.9	71.358	14,419.9	71.7188	14,419.9	68.3154	14,419.9	67.4537	14,419.9	64.1655	14,419.9	64.987	14,419.9	60.8969	14,419.9	60.6222	14,419.9	56.89	14,419.9	58.9793	14,419.9	54.7934	14,419.9	57.6535	14,419.9	57.6076	14,419.9	56.9114	14,419.9	55.0596	14,419.9	51.8174	14,419.9	54.2044	14,419.9	52.8168	14,419.9	54.0974	14,419.9	56.3891	14,419.9	53.8463	14,419.9	50.4491	14,419.9	43.1781
14,928.2	84.9668	14,928.2	84.4109	14,928.2	84.6117	14,928.2	83.2142	14,928.2	83.8058	14,928.2	81.9416	14,928.2	82.4953	14,928.2	80.5906	14,928.2	80.7036	14,928.2	77.2023	14,928.2	78.1154	14,928.2	74.499	14,928.2	74.6506	14,928.2	69.9625	14,928.2	70.1637	14,928.2	67.4101	14,928.2	66.7604	14,928.2	64.8847	14,928.2	64.3717	14,928.2	59.6316	14,928.2	61.0295	14,928.2	56.99	14,928.2	58.5329	14,928.2	54.0205	14,928.2	57.9841	14,928.2	53.4249	14,928.2	53.1869	14,928.2	52.0037	14,928.2	49.8458	14,928.2	50.8199	14,928.2	51.4855	14,928.2	51.9298	14,928.2	52.2669	14,928.2	54.1826	14,928.2	45.5102	14,928.2	42.6651
15,455.6	85.0269	15,455.6	84.4617	15,455.6	84.7274	15,455.6	83.4635	15,455.6	83.4336	15,455.6	81.5537	15,455.6	81.9291	15,455.6	79.8778	15,455.6	80.2094	15,455.6	77.0079	15,455.6	78.0174	15,455.6	73.7863	15,455.6	74.6727	15,455.6	69.6645	15,455.6	71.3668	15,455.6	66.6765	15,455.6	67.4099	15,455.6	64.503	15,455.6	65.0385	15,455.6	58.5852	15,455.6	59.4105	15,455.6	57.1865	15,455.6	57.3197	15,455.6	53.1298	15,455.6	57.0365	15,455.6	53.9308	15,455.6	51.1345	15,455.6	52.3287	15,455.6	49.7159	15,455.6	50.1866	15,455.6	51.8178	15,455.6	50.7969	15,455.6	52.6705	15,455.6	53.3047	15,455.6	34.2632	15,455.6	40.0749
16,000.5	85.0906	16,000.5	84.5718	16,000.5	84.8222	16,000.5	83.2166	16,000.5	83.3032	16,000.5	81.5223	16,000.5	81.8962	16,000.5	79.8649	16,000.5	79.8131	16,000.5	76.3549	16,000.5	77.4304	16,000.5	73.6678	16,000.5	74.4103	16,000.5	69.3508	16,000.5	71.0547	16,000.5	67.0632	16,000.5	66.3364	16,000.5	63.2602	16,000.5	64.399	16,000.5	58.1855	16,000.5	60.1648	16,000.5	56.3403	16,000.5	57.8626	16,000.5	54.4136	16,000.5	56.3195	16,000.5	53.1926	16,000.5	50.8195	16,000.5	51.8231	16,000.5	49.2799	16,000.5	49.1049	16,000.5	50.6949	16,000.5	50.6495	16,000.5	52.3723	16,000.5	54.3452	16,000.5	41.6323	16,000.5	39.4404
16,564.5	85.0849	16,564.5	84.53	16,564.5	84.8672	16,564.5	83.2526	16,564.5	83.2468	16,564.5	81.7193	16,564.5	81.8735	16,564.5	79.9002	16,564.5	79.9855	16,564.5	76.164	16,564.5	77.2884	16,564.5	73.7353	16,564.5	74.4343	16,564.5	68.8429	16,564.5	70.1345	16,564.5	66.3807	16,564.5	66.5813	16,564.5	63.5304	16,564.5	64.663	16,564.5	58.653	16,564.5	59.739	16,564.5	57.7839	16,564.5	58.0856	16,564.5	55.7865	16,564.5	56.0364	16,564.5	54.1005	16,564.5	51.5934	16,564.5	49.7878	16,564.5	48.7939	16,564.5	48.5825	16,564.5	49.0627	16,564.5	47.8682	16,564.5	54.2412	16,564.5	55.527	16,564.5	37.5209	16,564.5	46.3538
17,148.9	85.0335	17,148.9	84.4878	17,148.9	84.8345	17,148.9	83.4295	17,148.9	83.4224	17,148.9	81.5942	17,148.9	81.9757	17,148.9	79.8982	17,148.9	80.0831	17,148.9	76.7111	17,148.9	77.7354	17,148.9	74.0911	17,148.9	74.6052	17,148.9	70.7127	17,148.9	71.6586	17,148.9	67.1574	17,148.9	67.6276	17,148.9	64.9387	17,148.9	65.5454	17,148.9	59.133	17,148.9	59.2288	17,148.9	59.609	17,148.9	59.3965	17,148.9	55.0277	17,148.9	56.0071	17,148.9	52.2987	17,148.9	45.8706	17,148.9	51.3863	17,148.9	49.2078	17,148.9	48.4904	17,148.9	50.2805	17,148.9	44.1807	17,148.9	52.3661	17,148.9	55.1078	17,148.9	40.6018	17,148.9	42.2199
17,752.4	84.7844	17,752.4	84.3525	17,752.4	84.673	17,752.4	83.5982	17,752.4	83.3711	17,752.4	81.8903	17,752.4	82.0365	17,752.4	80.385	17,752.4	80.2757	17,752.4	76.8785	17,752.4	77.7683	17,752.4	74.7987	17,752.4	75.22	17,752.4	71.9618	17,752.4	72.8002	17,752.4	67.9341	17,752.4	67.7957	17,752.4	65.6657	17,752.4	65.7412	17,752.4	58.682	17,752.4	61.3292	17,752.4	58.6416	17,752.4	59.4093	17,752.4	56.2359	17,752.4	56.0038	17,752.4	49.503	17,752.4	47.516	17,752.4	51.2716	17,752.4	48.5923	17,752.4	45.0494	17,752.4	49.1845	17,752.4	43.7688	17,752.4	51.5197	17,752.4	55.1864	17,752.4	46.634	17,752.4	41.219
18,379.4	84.6207	18,379.4	84.2675	18,379.4	84.5243	18,379.4	83.5358	18,379.4	83.5357	18,379.4	81.8771	18,379.4	82.3482	18,379.4	80.4589	18,379.4	80.5435	18,379.4	77.2559	18,379.4	78.3365	18,379.4	75.3756	18,379.4	75.9405	18,379.4	72.3252	18,379.4	73.258	18,379.4	68.4564	18,379.4	69.4747	18,379.4	65.4565	18,379.4	66.2498	18,379.4	59.2621	18,379.4	60.7394	18,379.4	59.0561	18,379.4	59.9157	18,379.4	56.0183	18,379.4	55.5071	18,379.4	54.3169	18,379.4	47.6755	18,379.4	50.5925	18,379.4	48.6444	18,379.4	44.9401	18,379.4	48.5308	18,379.4	46.8289	18,379.4	49.3823	18,379.4	53.573	18,379.4	46.2582	18,379.4	42.7358
19,026.9	84.5812	19,026.9	84.5026	19,026.9	84.7356	19,026.9	83.9326	19,026.9	83.857	19,026.9	82.5016	19,026.9	82.9148	19,026.9	81.2685	19,026.9	81.2743	19,026.9	78.275	19,026.9	79.3997	19,026.9	76.6737	19,026.9	77.0836	19,026.9	72.7054	19,026.9	74.0896	19,026.9	69.708	19,026.9	70.7203	19,026.9	65.183	19,026.9	67.3055	19,026.9	60.8438	19,026.9	61.4106	19,026.9	60.1343	19,026.9	60.6619	19,026.9	57.5696	19,026.9	57.183	19,026.9	54.3552	19,026.9	51.9297	19,026.9	50.826	19,026.9	49.0247	19,026.9	45.9239	19,026.9	46.9152	19,026.9	47.6218	19,026.9	51.0457	19,026.9	54.0142	19,026.9	43.6841	19,026.9	42.3164
19,697.8	84.4647	19,697.8	84.0407	19,697.8	84.5699	19,697.8	83.628	19,697.8	83.7123	19,697.8	81.9136	19,697.8	82.4645	19,697.8	80.6974	19,697.8	80.703	19,697.8	77.34	19,697.8	78.9167	19,697.8	75.7876	19,697.8	76.7242	19,697.8	71.9318	19,697.8	73.7079	19,697.8	68.6457	19,697.8	68.9338	19,697.8	64.688	19,697.8	65.6674	19,697.8	60.8318	19,697.8	61.094	19,697.8	58.8649	19,697.8	58.689	19,697.8	55.0427	19,697.8	54.9747	19,697.8	46.5277	19,697.8	53.6446	19,697.8	44.7735	19,697.8	47.254	19,697.8	40.1335	19,697.8	45.8303	19,697.8	47.4792	19,697.8	51.765	19,697.8	50.1205	19,697.8	44.401	19,697.8	43.988
19,999.5	83.9016	19,999.5	83.65	19,999.5	84.2254	19,999.5	83.0568	19,999.5	82.887	19,999.5	81.0112	19,999.5	81.7893	19,999.5	79.0061	19,999.5	79.9636	19,999.5	76.2589	19,999.5	78.3377	19,999.5	75.2239	19,999.5	76.1748	19,999.5	70.9426	19,999.5	73.0913	19,999.5	68.4397	19,999.5	67.6921	19,999.5	62.971	19,999.5	66.9703	19,999.5	62.182	19,999.5	60.6379	19,999.5	59.6753	19,999.5	61.8961	19,999.5	59.6367	19,999.5	56.7067	19,999.5	58.0972	19,999.5	46.0692	19,999.5	51.1367	19,999.5	47.6043	19,999.5	56.0221	19,999.5	55.7279	19,999.5	45.8334	19,999.5	56.8369	19,999.5	58.4185	19,999.5	47.1437	19,999.5	49.468
