"SPL Vertical"
"On-Axis"		"10°"		"-10°"		"20°"		"-20°"		"30°"		"-30°"		"40°"		"-40°"		"50°"		"-50°"		"60°"		"-60°"		"70°"		"-70°"		"80°"		"-80°"		"90°"		"-90°"		"100°"		"-100°"		"110°"		"-110°"		"120°"		"-120°"		"130°"		"-130°"		"140°"		"-140°"		"150°"		"-150°"		"160°"		"-160°"		"170°"		"-170°"		"180°"
"Frequency / Hz"	"Sound Pressure Level / dB (re 20 µPa/V)  [2.83  V @ 1. m]"	"Frequency / Hz"	"Sound Pressure Level / dB (re 20 µPa/V)  [2.83  V @ 1. m]"	"Frequency / Hz"	"Sound Pressure Level / dB (re 20 µPa/V)  [2.83  V @ 1. m]"	"Frequency / Hz"	"Sound Pressure Level / dB (re 20 µPa/V)  [2.83  V @ 1. m]"	"Frequency / Hz"	"Sound Pressure Level / dB (re 20 µPa/V)  [2.83  V @ 1. m]"	"Frequency / Hz"	"Sound Pressure Level / dB (re 20 µPa/V)  [2.83  V @ 1. m]"	"Frequency / Hz"	"Sound Pressure Level / dB (re 20 µPa/V)  [2.83  V @ 1. m]"	"Frequency / Hz"	"Sound Pressure Level / dB (re 20 µPa/V)  [2.83  V @ 1. m]"	"Frequency / Hz"	"Sound Pressure Level / dB (re 20 µPa/V)  [2.83  V @ 1. m]"	"Frequency / Hz"	"Sound Pressure Level / dB (re 20 µPa/V)  [2.83  V @ 1. m]"	"Frequency / Hz"	"Sound Pressure Level / dB (re 20 µPa/V)  [2.83  V @ 1. m]"	"Frequency / Hz"	"Sound Pressure Level / dB (re 20 µPa/V)  [2.83  V @ 1. m]"	"Frequency / Hz"	"Sound Pressure Level / dB (re 20 µPa/V)  [2.83  V @ 1. m]"	"Frequency / Hz"	"Sound Pressure Level / dB (re 20 µPa/V)  [2.83  V @ 1. m]"	"Frequency / Hz"	"Sound Pressure Level / dB (re 20 µPa/V)  [2.83  V @ 1. m]"	"Frequency / Hz"	"Sound Pressure Level / dB (re 20 µPa/V)  [2.83  V @ 1. m]"	"Frequency / Hz"	"Sound Pressure Level / dB (re 20 µPa/V)  [2.83  V @ 1. m]"	"Frequency / Hz"	"Sound Pressure Level / dB (re 20 µPa/V)  [2.83  V @ 1. m]"	"Frequency / Hz"	"Sound Pressure Level / dB (re 20 µPa/V)  [2.83  V @ 1. m]"	"Frequency / Hz"	"Sound Pressure Level / dB (re 20 µPa/V)  [2.83  V @ 1. m]"	"Frequency / Hz"	"Sound Pressure Level / dB (re 20 µPa/V)  [2.83  V @ 1. m]"	"Frequency / Hz"	"Sound Pressure Level / dB (re 20 µPa/V)  [2.83  V @ 1. m]"	"Frequency / Hz"	"Sound Pressure Level / dB (re 20 µPa/V)  [2.83  V @ 1. m]"	"Frequency / Hz"	"Sound Pressure Level / dB (re 20 µPa/V)  [2.83  V @ 1. m]"	"Frequency / Hz"	"Sound Pressure Level / dB (re 20 µPa/V)  [2.83  V @ 1. m]"	"Frequency / Hz"	"Sound Pressure Level / dB (re 20 µPa/V)  [2.83  V @ 1. m]"	"Frequency / Hz"	"Sound Pressure Level / dB (re 20 µPa/V)  [2.83  V @ 1. m]"	"Frequency / Hz"	"Sound Pressure Level / dB (re 20 µPa/V)  [2.83  V @ 1. m]"	"Frequency / Hz"	"Sound Pressure Level / dB (re 20 µPa/V)  [2.83  V @ 1. m]"	"Frequency / Hz"	"Sound Pressure Level / dB (re 20 µPa/V)  [2.83  V @ 1. m]"	"Frequency / Hz"	"Sound Pressure Level / dB (re 20 µPa/V)  [2.83  V @ 1. m]"	"Frequency / Hz"	"Sound Pressure Level / dB (re 20 µPa/V)  [2.83  V @ 1. m]"	"Frequency / Hz"	"Sound Pressure Level / dB (re 20 µPa/V)  [2.83  V @ 1. m]"	"Frequency / Hz"	"Sound Pressure Level / dB (re 20 µPa/V)  [2.83  V @ 1. m]"	"Frequency / Hz"	"Sound Pressure Level / dB (re 20 µPa/V)  [2.83  V @ 1. m]"	"Frequency / Hz"	"Sound Pressure Level / dB (re 20 µPa/V)  [2.83  V @ 1. m]"
20.5078	44.9448	20.5078	44.7144	20.5078	45.101	20.5078	44.416	20.5078	45.1775	20.5078	44.0571	20.5078	45.1697	20.5078	43.6463	20.5078	45.0736	20.5078	43.1935	20.5078	44.8857	20.5078	42.7106	20.5078	44.603	20.5078	42.2109	20.5078	44.2236	20.5078	41.7096	20.5078	43.7473	20.5078	41.2217	20.5078	43.1766	20.5078	40.76	20.5078	42.5184	20.5078	40.3317	20.5078	41.7869	20.5078	39.9364	20.5078	41.0062	20.5078	39.567	20.5078	40.2151	20.5078	39.2141	20.5078	39.469	20.5078	38.8738	20.5078	38.8368	20.5078	38.5567	20.5078	38.3854	20.5078	38.2945	20.5078	38.1549	20.5078	38.1399
21.9727	20.7718	21.9727	26.2674	21.9727	15.6139	21.9727	30.3785	21.9727	16.8284	21.9727	33.5523	21.9727	17.9998	21.9727	36.1042	21.9727	16.1311	21.9727	38.2159	21.9727	7.58129	21.9727	39.9967	21.9727	16.9067	21.9727	41.5152	21.9727	25.1144	21.9727	42.8158	21.9727	30.1303	21.9727	43.9271	21.9727	33.7675	21.9727	44.8672	21.9727	36.6019	21.9727	45.6466	21.9727	38.8922	21.9727	46.2708	21.9727	40.778	21.9727	46.7416	21.9727	42.3432	21.9727	47.0586	21.9727	43.642	21.9727	47.22	21.9727	44.7103	21.9727	47.223	21.9727	45.5727	21.9727	47.0644	21.9727	46.2456	21.9727	46.7404
23.4375	30.3867	23.4375	28.1509	23.4375	32.1254	23.4375	27.467	23.4375	33.1513	23.4375	30.3164	23.4375	33.5439	23.4375	33.9296	23.4375	33.3601	23.4375	36.9763	23.4375	32.6381	23.4375	39.4446	23.4375	31.5355	23.4375	41.4668	23.4375	30.7739	23.4375	43.1443	23.4375	31.7392	23.4375	44.5436	23.4375	34.3181	23.4375	45.7075	23.4375	37.1578	23.4375	46.663	23.4375	39.6689	23.4375	47.4265	23.4375	41.775	23.4375	48.0077	23.4375	43.5181	23.4375	48.4114	23.4375	44.9502	23.4375	48.639	23.4375	46.1128	23.4375	48.6897	23.4375	47.0366	23.4375	48.5609	23.4375	47.7431	23.4375	48.2477
24.9023	41.965	24.9023	41.4575	24.9023	42.4078	24.9023	41.0197	24.9023	42.7146	24.9023	40.8527	24.9023	42.8532	24.9023	41.1473	24.9023	42.8151	24.9023	41.9398	24.9023	42.6129	24.9023	43.0797	24.9023	42.2911	24.9023	44.3604	24.9023	41.9484	24.9023	45.6282	24.9023	41.7579	24.9023	46.7981	24.9023	41.9319	24.9023	47.8305	24.9023	42.5875	24.9023	48.7084	24.9023	43.6408	24.9023	49.4251	24.9023	44.8861	24.9023	49.9779	24.9023	46.1395	24.9023	50.3652	24.9023	47.2912	24.9023	50.5856	24.9023	48.2893	24.9023	50.6375	24.9023	49.1139	24.9023	50.5188	24.9023	49.7596	24.9023	50.227
26.3672	45.3967	26.3672	45.1914	26.3672	45.6385	26.3672	45.1298	26.3672	45.8403	26.3672	45.3218	26.3672	45.9594	26.3672	45.8271	26.3672	45.9833	26.3672	46.6178	26.3672	45.9292	26.3672	47.598	26.3672	45.8487	26.3672	48.6579	26.3672	45.8323	26.3672	49.71	26.3672	45.9974	26.3672	50.6973	26.3672	46.442	26.3672	51.5857	26.3672	47.184	26.3672	52.3555	26.3672	48.1473	26.3672	52.9953	26.3672	49.2119	26.3672	53.4975	26.3672	50.2703	26.3672	53.8568	26.3672	51.2494	26.3672	54.0688	26.3672	52.1072	26.3672	54.13	26.3672	52.822	26.3672	54.0376	26.3672	53.384	26.3672	53.7893
27.832	50.1298	27.832	49.9703	27.832	50.2946	27.832	49.8763	27.832	50.4218	27.832	49.916	27.832	50.4867	27.832	50.1463	27.832	50.4827	27.832	50.5883	27.832	50.4219	27.832	51.2169	27.832	50.3379	27.832	51.9732	27.832	50.2881	27.832	52.7882	27.832	50.3486	27.832	53.6012	27.832	50.5928	27.832	54.3662	27.832	51.0584	27.832	55.0514	27.832	51.7239	27.832	55.6351	27.832	52.5205	27.832	56.1023	27.832	53.364	27.832	56.4428	27.832	54.1818	27.832	56.649	27.832	54.9224	27.832	56.7158	27.832	55.5533	27.832	56.6396	27.832	56.0556	27.832	56.4192
29.2969	53.2792	29.2969	53.2128	29.2969	53.3693	29.2969	53.2124	29.2969	53.4505	29.2969	53.3223	29.2969	53.5033	29.2969	53.5765	29.2969	53.5225	29.2969	53.9861	29.2969	53.519	29.2969	54.5346	29.2969	53.5208	29.2969	55.1837	29.2969	53.5717	29.2969	55.8857	29.2969	53.7241	29.2969	56.5945	29.2969	54.0235	29.2969	57.2717	29.2969	54.4876	29.2969	57.8877	29.2969	55.0967	29.2969	58.4204	29.2969	55.8006	29.2969	58.8538	29.2969	56.5379	29.2969	59.1758	29.2969	57.2528	29.2969	59.3778	29.2969	57.9021	29.2969	59.4535	29.2969	58.4564	29.2969	59.399	29.2969	58.897	29.2969	59.213
30.7617	55.1758	30.7617	55.0727	30.7617	55.2881	30.7617	55.0257	30.7617	55.3736	30.7617	55.0851	30.7617	55.4104	30.7617	55.2918	30.7617	55.3915	30.7617	55.662	30.7617	55.3257	30.7617	56.1812	30.7617	55.2397	30.7617	56.8095	30.7617	55.1785	30.7617	57.4958	30.7617	55.2019	30.7617	58.1906	30.7617	55.3702	30.7617	58.8528	30.7617	55.7212	30.7617	59.4509	30.7617	56.2512	30.7617	59.9618	30.7617	56.9153	30.7617	60.3686	30.7617	57.6473	30.7617	60.659	30.7617	58.3821	30.7617	60.8243	30.7617	59.0676	30.7617	60.8584	30.7617	59.6672	30.7617	60.7583	30.7617	60.1572	30.7617	60.5235
32.2266	58.2949	32.2266	58.3044	32.2266	58.3162	32.2266	58.3722	32.2266	58.3467	32.2266	58.5262	32.2266	58.3739	32.2266	58.787	32.2266	58.3959	32.2266	59.1611	32.2266	58.4221	32.2266	59.6377	32.2266	58.473	32.2266	60.1914	32.2266	58.578	32.2266	60.7888	32.2266	58.7688	32.2266	61.395	32.2266	59.0707	32.2266	61.9785	32.2266	59.4917	32.2266	62.5127	32.2266	60.0175	32.2266	62.9767	32.2266	60.6154	32.2266	63.354	32.2266	61.2433	32.2266	63.6322	32.2266	61.8594	32.2266	63.8022	32.2266	62.4282	32.2266	63.8578	32.2266	62.9225	32.2266	63.796	32.2266	63.3229	32.2266	63.6166
33.6914	61.0234	33.6914	61.0284	33.6914	61.0424	33.6914	61.0809	33.6914	61.0665	33.6914	61.2043	33.6914	61.0839	33.6914	61.4168	33.6914	61.0917	33.6914	61.7259	33.6914	61.0968	33.6914	62.1256	33.6914	61.1163	33.6914	62.5973	33.6914	61.1756	33.6914	63.1143	33.6914	61.3046	33.6914	63.6466	33.6914	61.5295	33.6914	64.1654	33.6914	61.864	33.6914	64.6449	33.6914	62.302	33.6914	65.0639	33.6914	62.8187	33.6914	65.4052	33.6914	63.3775	33.6914	65.6555	33.6914	63.9387	33.6914	65.8049	33.6914	64.4665	33.6914	65.847	33.6914	64.9321	33.6914	65.7785	33.6914	65.3147	33.6914	65.5997
35.1562	63.4166	35.1562	63.4552	35.1562	63.4106	35.1562	63.5434	35.1562	63.4224	35.1562	63.6975	35.1562	63.4429	35.1562	63.9288	35.1562	63.4696	35.1562	64.2399	35.1562	63.5082	35.1562	64.6239	35.1562	63.5719	35.1562	65.0651	35.1562	63.6798	35.1562	65.5417	35.1562	63.8528	35.1562	66.0294	35.1562	64.1076	35.1562	66.5042	35.1562	64.4505	35.1562	66.9442	35.1562	64.8735	35.1562	67.3306	35.1562	65.3553	35.1562	67.6475	35.1562	65.8661	35.1562	67.8825	35.1562	66.3737	35.1562	68.0261	35.1562	66.8486	35.1562	68.072	35.1562	67.2662	35.1562	68.0168	35.1562	67.608	35.1562	67.8609
36.6211	65.863	36.6211	65.892	36.6211	65.8596	36.6211	65.9602	36.6211	65.8705	36.6211	66.0815	36.6211	65.8891	36.6211	66.2667	36.6211	65.9143	36.6211	66.5206	36.6211	65.9509	36.6211	66.8405	36.6211	66.0096	36.6211	67.2155	36.6211	66.1056	36.6211	67.6287	36.6211	66.2556	36.6211	68.0593	36.6211	66.4733	36.6211	68.4852	36.6211	66.7648	36.6211	68.8855	36.6211	67.1256	36.6211	69.2411	36.6211	67.5396	36.6211	69.536	36.6211	67.983	36.6211	69.7571	36.6211	68.4286	36.6211	69.8946	36.6211	68.8495	36.6211	69.9419	36.6211	69.2227	36.6211	69.8958	36.6211	69.5296	36.6211	69.7569
38.0859	68.1569	38.0859	68.186	38.0859	68.1513	38.0859	68.2495	38.0859	68.1602	38.0859	68.3587	38.0859	68.1782	38.0859	68.5225	38.0859	68.2042	38.0859	68.745	38.0859	68.2419	38.0859	69.0248	38.0859	68.2998	38.0859	69.3535	38.0859	68.3897	38.0859	69.7176	38.0859	68.5247	38.0859	70.0995	38.0859	68.7163	38.0859	70.48	38.0859	68.9699	38.0859	70.8399	38.0859	69.283	38.0859	71.1614	38.0859	69.6436	38.0859	71.4292	38.0859	70.0327	38.0859	71.6303	38.0859	70.4271	38.0859	71.7552	38.0859	70.8032	38.0859	71.7975	38.0859	71.1395	38.0859	71.7542	38.0859	71.4183	38.0859	71.6262
39.5508	70.3152	39.5508	70.3308	39.5508	70.319	39.5508	70.3754	39.5508	70.3344	39.5508	70.459	39.5508	70.3566	39.5508	70.59	39.5508	70.3846	39.5508	70.7735	39.5508	70.4212	39.5508	71.0095	39.5508	70.4731	39.5508	71.2923	39.5508	70.5499	39.5508	71.6109	39.5508	70.6628	39.5508	71.9503	39.5508	70.8221	39.5508	72.2931	39.5508	71.0337	39.5508	72.6211	39.5508	71.2973	39.5508	72.9171	39.5508	71.6048	39.5508	73.1657	39.5508	71.9411	39.5508	73.354	39.5508	72.2865	39.5508	73.4723	39.5508	72.62	39.5508	73.514	39.5508	72.9212	39.5508	73.4766	39.5508	73.1728	39.5508	73.3611
41.0156	72.3764	41.0156	72.389	41.0156	72.382	41.0156	72.4279	41.0156	72.3989	41.0156	72.5018	41.0156	72.423	41.0156	72.618	41.0156	72.453	41.0156	72.781	41.0156	72.4912	41.0156	72.9909	41.0156	72.5431	41.0156	73.2432	41.0156	72.6167	41.0156	73.5287	41.0156	72.7212	41.0156	73.8344	41.0156	72.8653	41.0156	74.145	41.0156	73.0544	41.0156	74.444	41.0156	73.2885	41.0156	74.7155	41.0156	73.5614	41.0156	74.9448	41.0156	73.8604	41.0156	75.1197	41.0156	74.1689	41.0156	75.2308	41.0156	74.468	41.0156	75.2716	41.0156	74.7393	41.0156	75.2397	41.0156	74.9663	41.0156	75.1362
42.4805	74.0276	42.4805	74.0384	42.4805	74.0326	42.4805	74.0726	42.4805	74.0472	42.4805	74.1381	42.4805	74.0677	42.4805	74.2417	42.4805	74.0928	42.4805	74.3879	42.4805	74.1245	42.4805	74.5775	42.4805	74.1678	42.4805	74.8068	42.4805	74.23	42.4805	75.0679	42.4805	74.3197	42.4805	75.349	42.4805	74.4454	42.4805	75.6361	42.4805	74.6125	42.4805	75.9135	42.4805	74.8221	42.4805	76.166	42.4805	75.0694	42.4805	76.3794	42.4805	75.3434	42.4805	76.5417	42.4805	75.629	42.4805	76.6434	42.4805	75.9086	42.4805	76.6787	42.4805	76.1644	42.4805	76.645	42.4805	76.3804	42.4805	76.5437
43.9453	75.7341	43.9453	75.7459	43.9453	75.7381	43.9453	75.7799	43.9453	75.7527	43.9453	75.8428	43.9453	75.7745	43.9453	75.9402	43.9453	75.8026	43.9453	76.0762	43.9453	75.8385	43.9453	76.2513	43.9453	75.8861	43.9453	76.4627	43.9453	75.9515	43.9453	76.7034	43.9453	76.0417	43.9453	76.9633	43.9453	76.1636	43.9453	77.2295	43.9453	76.3217	43.9453	77.4879	43.9453	76.5168	43.9453	77.7242	43.9453	76.7447	43.9453	77.9251	43.9453	76.996	43.9453	78.0789	43.9453	77.2573	43.9453	78.1768	43.9453	77.513	43.9453	78.2127	43.9453	77.747	43.9453	78.1844	43.9453	77.9445	43.9453	78.0933
45.4102	77.3505	45.4102	77.3663	45.4102	77.3507	45.4102	77.4032	45.4102	77.3626	45.4102	77.4666	45.4102	77.3835	45.4102	77.5611	45.4102	77.4124	45.4102	77.6897	45.4102	77.4505	45.4102	77.8528	45.4102	77.5011	45.4102	78.0478	45.4102	77.5688	45.4102	78.2686	45.4102	77.6593	45.4102	78.5066	45.4102	77.7779	45.4102	78.7503	45.4102	77.9281	45.4102	78.9873	45.4102	78.1101	45.4102	79.2045	45.4102	78.3203	45.4102	79.3897	45.4102	78.5505	45.4102	79.5322	45.4102	78.7891	45.4102	79.6234	45.4102	79.0222	45.4102	79.6578	45.4102	79.2354	45.4102	79.6331	45.4102	79.4153	45.4102	79.5506
46.875	78.8038	46.875	78.818	46.875	78.805	46.875	78.8518	46.875	78.8179	46.875	78.9097	46.875	78.8402	46.875	78.9957	46.875	78.8709	46.875	79.1121	46.875	78.9109	46.875	79.2594	46.875	78.9626	46.875	79.4354	46.875	79.0298	46.875	79.6352	46.875	79.1168	46.875	79.8509	46.875	79.228	46.875	80.0728	46.875	79.3661	46.875	80.2896	46.875	79.5315	46.875	80.4895	46.875	79.721	46.875	80.6612	46.875	79.9278	46.875	80.7943	46.875	80.1418	46.875	80.881	46.875	80.351	46.875	80.9158	46.875	80.5423	46.875	80.8964	46.875	80.7035	46.875	80.8241
48.3398	80.0204	48.3398	80.029	48.3398	80.0244	48.3398	80.0543	48.3398	80.0379	48.3398	80.1006	48.3398	80.0587	48.3398	80.1717	48.3398	80.0865	48.3398	80.2704	48.3398	80.1221	48.3398	80.3978	48.3398	80.1678	48.3398	80.5524	48.3398	80.2271	48.3398	80.7303	48.3398	80.3041	48.3398	80.9248	48.3398	80.4026	48.3398	81.1271	48.3398	80.5254	48.3398	81.3266	48.3398	80.6729	48.3398	81.5122	48.3398	80.8424	48.3398	81.6729	48.3398	81.0282	48.3398	81.7989	48.3398	81.2211	48.3398	81.8822	48.3398	81.4103	48.3398	81.9176	48.3398	81.5837	48.3398	81.9026	48.3398	81.7298	48.3398	81.8386
51.2695	81.8416	51.2695	81.8519	51.2695	81.8449	51.2695	81.8784	51.2695	81.8596	51.2695	81.9237	51.2695	81.884	51.2695	81.9901	51.2695	81.9175	51.2695	82.0791	51.2695	81.9599	51.2695	82.1908	51.2695	82.0122	51.2695	82.3239	51.2695	82.076	51.2695	82.4752	51.2695	82.1535	51.2695	82.6395	51.2695	82.2466	51.2695	82.8099	51.2695	82.3567	51.2695	82.9783	51.2695	82.4838	51.2695	83.1355	51.2695	82.6259	51.2695	83.2726	51.2695	82.7787	51.2695	83.3813	51.2695	82.9358	51.2695	83.4547	51.2695	83.0886	51.2695	83.4883	51.2695	83.2281	51.2695	83.4801	51.2695	83.345	51.2695	83.4311
52.7344	82.5519	52.7344	82.562	52.7344	82.555	52.7344	82.5874	52.7344	82.5693	52.7344	82.63	52.7344	82.5936	52.7344	82.6916	52.7344	82.6271	52.7344	82.7733	52.7344	82.6694	52.7344	82.8752	52.7344	82.7213	52.7344	82.9959	52.7344	82.7837	52.7344	83.1328	52.7344	82.858	52.7344	83.2814	52.7344	82.9457	52.7344	83.4356	52.7344	83.0477	52.7344	83.5883	52.7344	83.1638	52.7344	83.7314	52.7344	83.2923	52.7344	83.8567	52.7344	83.4296	52.7344	83.9566	52.7344	83.5699	52.7344	84.0249	52.7344	83.7062	52.7344	84.0573	52.7344	83.8302	52.7344	84.0519	52.7344	83.9338	52.7344	84.0096
54.1992	83.1259	54.1992	83.1367	54.1992	83.1276	54.1992	83.1616	54.1992	83.1404	54.1992	83.2022	54.1992	83.1632	54.1992	83.2597	54.1992	83.1952	54.1992	83.335	54.1992	83.2362	54.1992	83.428	54.1992	83.2864	54.1992	83.5376	54.1992	83.3466	54.1992	83.6612	54.1992	83.4176	54.1992	83.7952	54.1992	83.5004	54.1992	83.9344	54.1992	83.5954	54.1992	84.0724	54.1992	83.7023	54.1992	84.2021	54.1992	83.8195	54.1992	84.3161	54.1992	83.9436	54.1992	84.4076	54.1992	84.0699	54.1992	84.4708	54.1992	84.192	54.1992	84.5017	54.1992	84.3028	54.1992	84.4985	54.1992	84.395	54.1992	84.4619
55.6641	83.5941	55.6641	83.605	55.6641	83.5949	55.6641	83.6286	55.6641	83.6063	55.6641	83.6661	55.6641	83.6278	55.6641	83.7182	55.6641	83.6586	55.6641	83.7857	55.6641	83.6985	55.6641	83.8684	55.6641	83.7476	55.6641	83.9656	55.6641	83.806	55.6641	84.0752	55.6641	83.8741	55.6641	84.1943	55.6641	83.9522	55.6641	84.3185	55.6641	84.0405	55.6641	84.4423	55.6641	84.1383	55.6641	84.5593	55.6641	84.2439	55.6641	84.6631	55.6641	84.3548	55.6641	84.7473	55.6641	84.4665	55.6641	84.8065	55.6641	84.5738	55.6641	84.837	55.6641	84.6705	55.6641	84.8371	55.6641	84.7503	55.6641	84.8073
58.5938	84.199	58.5938	84.2057	58.5938	84.2033	58.5938	84.2239	58.5938	84.2181	58.5938	84.2542	58.5938	84.2428	58.5938	84.2968	58.5938	84.2769	58.5938	84.3519	58.5938	84.3199	58.5938	84.4195	58.5938	84.3712	58.5938	84.4989	58.5938	84.4303	58.5938	84.5886	58.5938	84.4967	58.5938	84.6867	58.5938	84.5701	58.5938	84.7898	58.5938	84.6496	58.5938	84.8939	58.5938	84.7344	58.5938	84.9941	58.5938	84.8228	58.5938	85.085	58.5938	84.9127	58.5938	85.1615	58.5938	85.0009	58.5938	85.2189	58.5938	85.0832	58.5938	85.2535	58.5938	85.1552	58.5938	85.2637	58.5938	85.212	58.5938	85.2492
60.0586	84.413	60.0586	84.4191	60.0586	84.417	60.0586	84.4356	60.0586	84.4309	60.0586	84.4628	60.0586	84.4542	60.0586	84.5007	60.0586	84.4864	60.0586	84.5494	60.0586	84.527	60.0586	84.6088	60.0586	84.5753	60.0586	84.6782	60.0586	84.6305	60.0586	84.7565	60.0586	84.6921	60.0586	84.8421	60.0586	84.7591	60.0586	84.9322	60.0586	84.8308	60.0586	85.0234	60.0586	84.9062	60.0586	85.1117	60.0586	84.9839	60.0586	85.1923	60.0586	85.0619	60.0586	85.2606	60.0586	85.1377	60.0586	85.3126	60.0586	85.2079	60.0586	85.345	60.0586	85.2686	60.0586	85.3562	60.0586	85.3158	60.0586	85.346
62.9883	84.776	62.9883	84.7811	62.9883	84.7801	62.9883	84.7953	62.9883	84.7935	62.9883	84.8182	62.9883	84.8161	62.9883	84.8497	62.9883	84.8473	62.9883	84.8894	62.9883	84.8866	62.9883	84.9369	62.9883	84.933	62.9883	84.9917	62.9883	84.9853	62.9883	85.0531	62.9883	85.0424	62.9883	85.1199	62.9883	85.1029	62.9883	85.1903	62.9883	85.1655	62.9883	85.2621	62.9883	85.2288	62.9883	85.3324	62.9883	85.2914	62.9883	85.3977	62.9883	85.3518	62.9883	85.4547	62.9883	85.4081	62.9883	85.5001	62.9883	85.4582	62.9883	85.5312	62.9883	85.4995	62.9883	85.5466	62.9883	85.5295	62.9883	85.5457
64.4531	84.9019	64.4531	84.907	64.4531	84.9058	64.4531	84.9206	64.4531	84.9189	64.4531	84.9423	64.4531	84.9411	64.4531	84.9715	64.4531	84.9722	64.4531	85.0079	64.4531	85.0113	64.4531	85.0509	64.4531	85.0575	64.4531	85.0999	64.4531	85.1094	64.4531	85.1544	64.4531	85.1655	64.4531	85.2135	64.4531	85.2241	64.4531	85.2757	64.4531	85.2837	64.4531	85.3394	64.4531	85.3426	64.4531	85.4021	64.4531	85.3996	64.4531	85.4611	64.4531	85.453	64.4531	85.5135	64.4531	85.5014	64.4531	85.5563	64.4531	85.543	64.4531	85.5872	64.4531	85.5759	64.4531	85.6047	64.4531	85.5983	64.4531	85.6083
67.3828	85.0969	67.3828	85.1008	67.3828	85.1018	67.3828	85.1126	67.3828	85.1159	67.3828	85.1316	67.3828	85.1394	67.3828	85.1566	67.3828	85.172	67.3828	85.187	67.3828	85.2127	67.3828	85.2219	67.3828	85.2602	67.3828	85.2609	67.3828	85.3127	67.3828	85.3034	67.3828	85.3679	67.3828	85.3489	67.3828	85.4239	67.3828	85.3968	67.3828	85.4784	67.3828	85.4461	67.3828	85.5295	67.3828	85.4956	67.3828	85.5757	67.3828	85.5435	67.3828	85.6157	67.3828	85.5879	67.3828	85.6486	67.3828	85.6267	67.3828	85.6735	67.3828	85.6582	67.3828	85.6898	67.3828	85.6808	67.3828	85.6967	67.3828	85.6938
68.8477	85.2018	68.8477	85.2043	68.8477	85.2078	68.8477	85.2142	68.8477	85.2228	68.8477	85.2306	68.8477	85.247	68.8477	85.2523	68.8477	85.2799	68.8477	85.2783	68.8477	85.3207	68.8477	85.308	68.8477	85.3677	68.8477	85.3407	68.8477	85.4191	68.8477	85.376	68.8477	85.4724	68.8477	85.4136	68.8477	85.5254	68.8477	85.4533	68.8477	85.5757	68.8477	85.4946	68.8477	85.6213	68.8477	85.5367	68.8477	85.6607	68.8477	85.5784	68.8477	85.6928	68.8477	85.6183	68.8477	85.7169	68.8477	85.6548	68.8477	85.7327	68.8477	85.6863	68.8477	85.74	68.8477	85.7114	68.8477	85.7388	68.8477	85.7291
71.7773	85.4106	71.7773	85.4105	71.7773	85.4183	71.7773	85.417	71.7773	85.4343	71.7773	85.4288	71.7773	85.4588	71.7773	85.4446	71.7773	85.4914	71.7773	85.4632	71.7773	85.5311	71.7773	85.4837	71.7773	85.5761	71.7773	85.5056	71.7773	85.6244	71.7773	85.5286	71.7773	85.6733	71.7773	85.5528	71.7773	85.7202	71.7773	85.5782	71.7773	85.7626	71.7773	85.6053	71.7773	85.7982	71.7773	85.634	71.7773	85.8256	71.7773	85.6642	71.7773	85.8439	71.7773	85.6954	71.7773	85.853	71.7773	85.7267	71.7773	85.8532	71.7773	85.757	71.7773	85.8454	71.7773	85.7853	71.7773	85.8307	71.7773	85.8102
74.707	85.5796	74.707	85.5788	74.707	85.5869	74.707	85.5832	74.707	85.6016	74.707	85.5914	74.707	85.624	74.707	85.602	74.707	85.6539	74.707	85.6136	74.707	85.6903	74.707	85.6254	74.707	85.7315	74.707	85.6368	74.707	85.7752	74.707	85.6478	74.707	85.8189	74.707	85.6589	74.707	85.8596	74.707	85.6708	74.707	85.8946	74.707	85.6843	74.707	85.9217	74.707	85.7004	74.707	85.9392	74.707	85.7197	74.707	85.9464	74.707	85.7425	74.707	85.9435	74.707	85.7686	74.707	85.9314	74.707	85.7973	74.707	85.9118	74.707	85.8276	74.707	85.8867	74.707	85.8579
77.6367	85.6664	77.6367	85.664	77.6367	85.6744	77.6367	85.6658	77.6367	85.6891	77.6367	85.6704	77.6367	85.7109	77.6367	85.6763	77.6367	85.7399	77.6367	85.6823	77.6367	85.7753	77.6367	85.6875	77.6367	85.8154	77.6367	85.6917	77.6367	85.8581	77.6367	85.6949	77.6367	85.9005	77.6367	85.698	77.6367	85.9398	77.6367	85.7019	77.6367	85.9728	77.6367	85.7081	77.6367	85.9969	77.6367	85.7181	77.6367	86.0104	77.6367	85.7329	77.6367	86.0122	77.6367	85.7534	77.6367	86.0026	77.6367	85.7797	77.6367	85.9827	77.6367	85.8111	77.6367	85.9546	77.6367	85.8464	77.6367	85.9207	77.6367	85.8837
79.1016	85.6924	79.1016	85.6894	79.1016	85.7009	79.1016	85.6903	79.1016	85.7157	79.1016	85.6937	79.1016	85.7377	79.1016	85.698	79.1016	85.7667	79.1016	85.7021	79.1016	85.8019	79.1016	85.7051	79.1016	85.8419	79.1016	85.7065	79.1016	85.8844	79.1016	85.7067	79.1016	85.9266	79.1016	85.7065	79.1016	85.9653	79.1016	85.7071	79.1016	85.9975	79.1016	85.7102	79.1016	86.0203	79.1016	85.7173	79.1016	86.032	79.1016	85.73	79.1016	86.0314	79.1016	85.7492	79.1016	86.0187	79.1016	85.7752	79.1016	85.9953	79.1016	85.8075	79.1016	85.9633	79.1016	85.8448	79.1016	85.9255	79.1016	85.885
82.0312	85.7448	82.0312	85.7416	82.0312	85.7527	82.0312	85.7418	82.0312	85.7668	82.0312	85.7435	82.0312	85.7876	82.0312	85.7451	82.0312	85.8154	82.0312	85.7454	82.0312	85.8493	82.0312	85.7433	82.0312	85.8879	82.0312	85.7385	82.0312	85.9289	82.0312	85.7314	82.0312	85.9693	82.0312	85.723	82.0312	86.0058	82.0312	85.7148	82.0312	86.0351	82.0312	85.7091	82.0312	86.0541	82.0312	85.708	82.0312	86.0608	82.0312	85.7137	82.0312	86.054	82.0312	85.7279	82.0312	86.0341	82.0312	85.7512	82.0312	86.0026	82.0312	85.7836	82.0312	85.9622	82.0312	85.8236	82.0312	85.9163	82.0312	85.8689
84.9609	85.7867	84.9609	85.782	84.9609	85.7957	84.9609	85.78	84.9609	85.8103	84.9609	85.7789	84.9609	85.8315	84.9609	85.7769	84.9609	85.8592	84.9609	85.7727	84.9609	85.8929	84.9609	85.7653	84.9609	85.931	84.9609	85.7544	84.9609	85.9711	84.9609	85.7403	84.9609	86.01	84.9609	85.7242	84.9609	86.0443	84.9609	85.7082	84.9609	86.0704	84.9609	85.6948	84.9609	86.0851	84.9609	85.6867	84.9609	86.0863	84.9609	85.6867	84.9609	86.0728	84.9609	85.6969	84.9609	86.0451	84.9609	85.7187	84.9609	86.005	84.9609	85.752	84.9609	85.9558	84.9609	85.7956	84.9609	85.9015	84.9609	85.8466
87.8906	85.8724	87.8906	85.8647	87.8906	85.8819	87.8906	85.8573	87.8906	85.8948	87.8906	85.8483	87.8906	85.9119	87.8906	85.8362	87.8906	85.9336	87.8906	85.8196	87.8906	85.9594	87.8906	85.7979	87.8906	85.9879	87.8906	85.771	87.8906	86.017	87.8906	85.7396	87.8906	86.0438	87.8906	85.7054	87.8906	86.0649	87.8906	85.6711	87.8906	86.077	87.8906	85.6399	87.8906	86.077	87.8906	85.6153	87.8906	86.0629	87.8906	85.601	87.8906	86.0339	87.8906	85.5999	87.8906	85.9907	87.8906	85.6141	87.8906	85.9359	87.8906	85.6439	87.8906	85.8732	87.8906	85.6882	87.8906	85.8075	87.8906	85.7442
90.8203	85.8569	90.8203	85.8478	90.8203	85.867	90.8203	85.838	90.8203	85.8795	90.8203	85.826	90.8203	85.8955	90.8203	85.8102	90.8203	85.9155	90.8203	85.7895	90.8203	85.9391	90.8203	85.7632	90.8203	85.9652	90.8203	85.7314	90.8203	85.9917	90.8203	85.695	90.8203	86.0157	90.8203	85.6557	90.8203	86.0339	90.8203	85.6161	90.8203	86.0428	90.8203	85.5796	90.8203	86.0392	90.8203	85.5501	90.8203	86.0209	90.8203	85.5314	90.8203	85.987	90.8203	85.5269	90.8203	85.9385	90.8203	85.5389	90.8203	85.8781	90.8203	85.568	90.8203	85.8098	90.8203	85.6133	90.8203	85.7391	90.8203	85.6718
95.2148	85.8151	95.2148	85.8022	95.2148	85.8296	95.2148	85.7895	95.2148	85.8472	95.2148	85.7752	95.2148	85.8686	95.2148	85.7579	95.2148	85.8943	95.2148	85.7362	95.2148	85.9237	95.2148	85.7095	95.2148	85.9554	95.2148	85.6776	95.2148	85.9871	95.2148	85.6412	95.2148	86.0156	95.2148	85.6019	95.2148	86.0372	95.2148	85.5624	95.2148	86.048	95.2148	85.526	95.2148	86.0447	95.2148	85.4968	95.2148	86.0247	95.2148	85.4788	95.2148	85.9873	95.2148	85.4758	95.2148	85.9335	95.2148	85.4902	95.2148	85.8665	95.2148	85.5231	95.2148	85.7909	95.2148	85.5735	95.2148	85.7127	95.2148	85.6383
98.1445	85.7697	98.1445	85.7563	98.1445	85.7844	98.1445	85.7426	98.1445	85.8018	98.1445	85.727	98.1445	85.8229	98.1445	85.7079	98.1445	85.8482	98.1445	85.6842	98.1445	85.8774	98.1445	85.655	98.1445	85.9093	98.1445	85.6204	98.1445	85.9415	98.1445	85.5811	98.1445	85.9709	98.1445	85.5388	98.1445	85.9936	98.1445	85.4964	98.1445	86.0056	98.1445	85.4574	98.1445	86.0031	98.1445	85.4263	98.1445	85.9834	98.1445	85.4073	98.1445	85.9453	98.1445	85.4043	98.1445	85.8899	98.1445	85.4201	98.1445	85.82	98.1445	85.4556	98.1445	85.7406	98.1445	85.5096	98.1445	85.6579	98.1445	85.5788
101.074	85.7221	101.074	85.7142	101.074	85.7305	101.074	85.7047	101.074	85.7409	101.074	85.6919	101.074	85.7547	101.074	85.674	101.074	85.7729	101.074	85.6496	101.074	85.7954	101.074	85.618	101.074	85.8214	101.074	85.5791	101.074	85.849	101.074	85.5338	101.074	85.8753	101.074	85.4842	101.074	85.8964	101.074	85.4336	101.074	85.908	101.074	85.3863	101.074	85.9062	101.074	85.3471	101.074	85.8877	101.074	85.3211	101.074	85.851	101.074	85.3127	101.074	85.7964	101.074	85.3249	101.074	85.7267	101.074	85.3587	101.074	85.6468	101.074	85.4126	101.074	85.563	101.074	85.4826
105.469	85.7323	105.469	85.72	105.469	85.7427	105.469	85.704	105.469	85.7527	105.469	85.6823	105.469	85.7635	105.469	85.6532	105.469	85.7758	105.469	85.6154	105.469	85.7897	105.469	85.5684	105.469	85.8043	105.469	85.5123	105.469	85.8179	105.469	85.4485	105.469	85.8282	105.469	85.3797	105.469	85.8318	105.469	85.3099	105.469	85.8253	105.469	85.2441	105.469	85.8051	105.469	85.188	105.469	85.7689	105.469	85.1476	105.469	85.7153	105.469	85.1279	105.469	85.6453	105.469	85.1324	105.469	85.5619	105.469	85.1624	105.469	85.4702	105.469	85.2162	105.469	85.377	105.469	85.2899
108.398	85.7402	108.398	85.7191	108.398	85.7596	108.398	85.6948	108.398	85.7784	108.398	85.6657	108.398	85.7974	108.398	85.6303	108.398	85.817	108.398	85.5873	108.398	85.8368	108.398	85.5358	108.398	85.8555	108.398	85.476	108.398	85.8714	108.398	85.4088	108.398	85.8815	108.398	85.3363	108.398	85.8823	108.398	85.2624	108.398	85.8702	108.398	85.1918	108.398	85.8416	108.398	85.1305	108.398	85.7941	108.398	85.085	108.398	85.7271	108.398	85.061	108.398	85.6422	108.398	85.0631	108.398	85.5433	108.398	85.0934	108.398	85.4365	108.398	85.151	108.398	85.3299	108.398	85.2321
112.793	85.6707	112.793	85.6531	112.793	85.6843	112.793	85.6301	112.793	85.6952	112.793	85.6005	112.793	85.7049	112.793	85.5635	112.793	85.7146	112.793	85.5184	112.793	85.7252	112.793	85.4651	112.793	85.7368	112.793	85.4041	112.793	85.7485	112.793	85.3368	112.793	85.7581	112.793	85.2657	112.793	85.7624	112.793	85.1945	112.793	85.7571	112.793	85.1279	112.793	85.7382	112.793	85.0716	112.793	85.702	112.793	85.0314	112.793	85.6469	112.793	85.0125	112.793	85.5733	112.793	85.0189	112.793	85.4843	112.793	85.052	112.793	85.3856	112.793	85.1106	112.793	85.2848	112.793	85.1904
117.188	85.6359	117.188	85.6153	117.188	85.6522	117.188	85.5891	117.188	85.6655	117.188	85.5562	117.188	85.6768	117.188	85.5156	117.188	85.6873	117.188	85.4666	117.188	85.6976	117.188	85.4088	117.188	85.7076	117.188	85.3427	117.188	85.7164	117.188	85.2696	117.188	85.7218	117.188	85.1919	117.188	85.7207	117.188	85.1137	117.188	85.7089	117.188	85.0398	117.188	85.6827	117.188	84.9763	117.188	85.6385	117.188	84.9296	117.188	85.575	117.188	84.9055	117.188	85.4928	117.188	84.9084	117.188	85.3955	117.188	84.94	117.188	85.2891	117.188	84.9995	117.188	85.1817	117.188	85.0823
120.117	85.591	120.117	85.5731	120.117	85.6034	120.117	85.5484	120.117	85.6116	120.117	85.5158	120.117	85.6172	120.117	85.4742	120.117	85.6214	120.117	85.423	120.117	85.6253	120.117	85.3621	120.117	85.6292	120.117	85.292	120.117	85.6326	120.117	85.2143	120.117	85.6338	120.117	85.132	120.117	85.6298	120.117	85.0492	120.117	85.6168	120.117	84.9714	120.117	85.5907	120.117	84.9049	120.117	85.548	120.117	84.856	120.117	85.4869	120.117	84.8307	120.117	85.4077	120.117	84.8331	120.117	85.3134	120.117	84.8647	120.117	85.2097	120.117	84.924	120.117	85.1044	120.117	85.0063
124.512	85.5105	124.512	85.4906	124.512	85.5245	124.512	85.4635	124.512	85.5338	124.512	85.4281	124.512	85.54	124.512	85.3837	124.512	85.5445	124.512	85.3297	124.512	85.5484	124.512	85.266	124.512	85.5521	124.512	85.1931	124.512	85.5552	124.512	85.1126	124.512	85.5558	124.512	85.0272	124.512	85.5506	124.512	84.9411	124.512	85.5357	124.512	84.8598	124.512	85.5067	124.512	84.7896	124.512	85.4603	124.512	84.7375	124.512	85.3944	124.512	84.7096	124.512	85.3098	124.512	84.7104	124.512	85.2097	124.512	84.7419	124.512	85.1004	124.512	84.8025	124.512	84.99	124.512	84.8877
128.906	85.4188	128.906	85.396	128.906	85.4354	128.906	85.3662	128.906	85.4473	128.906	85.3285	128.906	85.4558	128.906	85.2821	128.906	85.4624	128.906	85.2268	128.906	85.4682	128.906	85.1625	128.906	85.474	128.906	85.0898	128.906	85.4792	128.906	85.01	128.906	85.4821	128.906	84.9259	128.906	85.4793	128.906	84.8412	128.906	85.4667	128.906	84.7614	128.906	85.4396	128.906	84.6927	128.906	85.394	128.906	84.6419	128.906	85.3279	128.906	84.6155	128.906	85.2416	128.906	84.6181	128.906	85.1386	128.906	84.6518	128.906	85.0255	128.906	84.7154	128.906	84.9108	128.906	84.8043
133.301	85.325	133.301	85.2993	133.301	85.3432	133.301	85.2654	133.301	85.355	133.301	85.223	133.301	85.362	133.301	85.1719	133.301	85.3657	133.301	85.1122	133.301	85.3679	133.301	85.0444	133.301	85.37	133.301	84.9695	133.301	85.3723	133.301	84.8892	133.301	85.3735	133.301	84.8063	133.301	85.3709	133.301	84.7247	133.301	85.3603	133.301	84.6495	133.301	85.3369	133.301	84.5866	133.301	85.2964	133.301	84.5423	133.301	85.2359	133.301	84.5224	133.301	85.1552	133.301	84.531	133.301	85.057	133.301	84.5697	133.301	84.9473	133.301	84.637	133.301	84.8343	133.301	84.7278
139.16	85.2233	139.16	85.1914	139.16	85.245	139.16	85.1489	139.16	85.2575	139.16	85.0959	139.16	85.2622	139.16	85.0326	139.16	85.261	139.16	84.9596	139.16	85.2563	139.16	84.8781	139.16	85.2497	139.16	84.7897	139.16	85.2425	139.16	84.6971	139.16	85.2341	139.16	84.6037	139.16	85.2226	139.16	84.5142	139.16	85.2043	139.16	84.4344	139.16	85.1748	139.16	84.3704	139.16	85.1299	139.16	84.3285	139.16	85.0666	139.16	84.3138	139.16	84.9841	139.16	84.3294	139.16	84.8847	139.16	84.3759	139.16	84.7734	139.16	84.4503	139.16	84.6578	139.16	84.5471
143.555	85.1476	143.555	85.1139	143.555	85.1694	143.555	85.068	143.555	85.1803	143.555	85.0102	143.555	85.1821	143.555	84.9413	143.555	85.177	143.555	84.8623	143.555	85.1678	143.555	84.7747	143.555	85.1568	143.555	84.6806	143.555	85.1456	143.555	84.5829	143.555	85.1339	143.555	84.4853	143.555	85.1198	143.555	84.3929	143.555	85.0997	143.555	84.3113	143.555	85.069	143.555	84.2469	143.555	85.0233	143.555	84.2058	143.555	84.9594	143.555	84.1929	143.555	84.8766	143.555	84.211	143.555	84.7768	143.555	84.2602	143.555	84.6649	143.555	84.3372	143.555	84.5484	143.555	84.436
147.949	85.0837	147.949	85.0459	147.949	85.1084	147.949	84.9948	147.949	85.1212	147.949	84.9307	147.949	85.1239	147.949	84.8544	147.949	85.1191	147.949	84.7673	147.949	85.1096	147.949	84.6713	147.949	85.0979	147.949	84.5686	147.949	85.0852	147.949	84.4626	147.949	85.0714	147.949	84.3577	147.949	85.0544	147.949	84.2591	147.949	85.0304	147.949	84.1732	147.949	84.9949	147.949	84.1066	147.949	84.9435	147.949	84.0654	147.949	84.8735	147.949	84.0546	147.949	84.7842	147.949	84.0764	147.949	84.6779	147.949	84.1306	147.949	84.5596	147.949	84.2133	147.949	84.4367	147.949	84.3182
153.809	85.064	153.809	85.0234	153.809	85.0901	153.809	84.9685	153.809	85.1026	153.809	84.8998	153.809	85.1031	153.809	84.8185	153.809	85.0941	153.809	84.7256	153.809	85.0786	153.809	84.6229	153.809	85.0596	153.809	84.5125	153.809	85.0388	153.809	84.3975	153.809	85.0164	153.809	84.2824	153.809	84.9906	153.809	84.1728	153.809	84.9576	153.809	84.0757	153.809	84.9129	153.809	83.9985	153.809	84.8522	153.809	83.9482	153.809	84.7729	153.809	83.9301	153.809	84.6749	153.809	83.9471	153.809	84.5608	153.809	83.9986	153.809	84.4361	153.809	84.0808	153.809	84.3084	153.809	84.1869
159.668	84.9967	159.668	84.957	159.668	85.0211	159.668	84.9026	159.668	85.0307	159.668	84.8347	159.668	85.0272	159.668	84.755	159.668	85.0136	159.668	84.6654	159.668	84.9938	159.668	84.5676	159.668	84.9715	159.668	84.4638	159.668	84.9494	159.668	84.3567	159.668	84.9284	159.668	84.2498	159.668	84.9071	159.668	84.1479	159.668	84.8817	159.668	84.057	159.668	84.8467	159.668	83.9841	159.668	84.7971	159.668	83.936	159.668	84.7286	159.668	83.9184	159.668	84.6402	159.668	83.9346	159.668	84.5336	159.668	83.9848	159.668	84.4141	159.668	84.0656	159.668	84.2898	159.668	84.1702
165.527	85.1569	165.527	85.1158	165.527	85.182	165.527	85.0588	165.527	85.192	165.527	84.9871	165.527	85.189	165.527	84.9022	165.527	85.1763	165.527	84.8059	165.527	85.1577	165.527	84.7003	165.527	85.1366	165.527	84.5879	165.527	85.1152	165.527	84.4719	165.527	85.0934	165.527	84.3566	165.527	85.0689	165.527	84.2475	165.527	85.0375	165.527	84.1514	165.527	84.9941	165.527	84.0757	165.527	84.9342	165.527	84.0272	165.527	84.8555	165.527	84.0111	165.527	84.7579	165.527	84.0301	165.527	84.6444	165.527	84.0831	165.527	84.5205	165.527	84.1662	165.527	84.3936	165.527	84.2725
171.387	85.1385	171.387	85.098	171.387	85.159	171.387	85.0382	171.387	85.16	171.387	84.9607	171.387	85.1439	171.387	84.8677	171.387	85.1144	171.387	84.7617	171.387	85.0766	171.387	84.6453	171.387	85.0358	171.387	84.5219	171.387	84.9961	171.387	84.3952	171.387	84.9596	171.387	84.2702	171.387	84.9251	171.387	84.1529	171.387	84.8887	171.387	84.0503	171.387	84.845	171.387	83.9697	171.387	84.7881	171.387	83.9177	171.387	84.7143	171.387	83.8992	171.387	84.6223	171.387	83.9164	171.387	84.5142	171.387	83.968	171.387	84.395	171.387	84.0494	171.387	84.2719	171.387	84.1536
177.246	85.0616	177.246	85.0185	177.246	85.0817	177.246	84.9532	177.246	85.0797	177.246	84.868	177.246	85.0588	177.246	84.7657	177.246	85.0236	177.246	84.6496	177.246	84.9805	177.246	84.5231	177.246	84.9354	177.246	84.3898	177.246	84.8929	177.246	84.2535	177.246	84.8545	177.246	84.1192	177.246	84.8183	177.246	83.9927	177.246	84.7793	177.246	83.8812	177.246	84.7308	177.246	83.7923	177.246	84.6667	177.246	83.7333	177.246	84.5832	177.246	83.7098	177.246	84.4799	177.246	83.7244	177.246	84.36	177.246	83.7763	177.246	84.2295	177.246	83.8607	177.246	84.0966	177.246	83.9704
183.105	84.9662	183.105	84.9149	183.105	84.9927	183.105	84.8401	183.105	84.9946	183.105	84.7451	183.105	84.9751	183.105	84.6342	183.105	84.9395	183.105	84.5121	183.105	84.8948	183.105	84.384	183.105	84.8487	183.105	84.2548	183.105	84.8078	183.105	84.1295	183.105	84.7756	183.105	84.0131	183.105	84.7512	183.105	83.9103	183.105	84.7297	183.105	83.8262	183.105	84.7029	183.105	83.7658	183.105	84.6624	183.105	83.7334	183.105	84.6016	183.105	83.7326	183.105	84.5177	183.105	83.765	183.105	84.4123	183.105	83.8294	183.105	84.2909	183.105	83.9219	183.105	84.1621	183.105	84.0358
188.965	84.9745	188.965	84.9187	188.965	85.0037	188.965	84.8379	188.965	85.0065	188.965	84.7352	188.965	84.9854	188.965	84.6142	188.965	84.945	188.965	84.4794	188.965	84.8919	188.965	84.3355	188.965	84.8334	188.965	84.1878	188.965	84.7758	188.965	84.0426	188.965	84.7232	188.965	83.9067	188.965	84.6762	188.965	83.7879	188.965	84.632	188.965	83.6938	188.965	84.5854	188.965	83.631	188.965	84.5309	188.965	83.6038	188.965	84.4637	188.965	83.6135	188.965	84.3815	188.965	83.6581	188.965	84.2844	188.965	83.7324	188.965	84.1753	188.965	83.8294	188.965	84.0586	188.965	83.9408
196.289	85.0134	196.289	84.9599	196.289	85.0363	196.289	84.8781	196.289	85.029	196.289	84.7718	196.289	84.9948	196.289	84.6459	196.289	84.9401	196.289	84.5056	196.289	84.8738	196.289	84.3561	196.289	84.8055	196.289	84.2024	196.289	84.7434	196.289	84.0499	196.289	84.6921	196.289	83.9045	196.289	84.6512	196.289	83.7731	196.289	84.615	196.289	83.6633	196.289	84.5747	196.289	83.5828	196.289	84.5216	196.289	83.5379	196.289	84.4492	196.289	83.5322	196.289	84.3553	196.289	83.5658	196.289	84.2421	196.289	83.635	196.289	84.1151	196.289	83.733	196.289	83.9821	196.289	83.8517
203.613	85.0246	203.613	84.9719	203.613	85.0393	203.613	84.8841	203.613	85.0163	203.613	84.7662	203.613	84.9594	203.613	84.6246	203.613	84.8759	203.613	84.4664	203.613	84.7762	203.613	84.2985	203.613	84.6722	203.613	84.1278	203.613	84.575	203.613	83.9611	203.613	84.4927	203.613	83.8054	203.613	84.4283	203.613	83.6681	203.613	84.3792	203.613	83.5571	203.613	84.3384	203.613	83.4794	203.613	84.2967	203.613	83.4405	203.613	84.2457	203.613	83.4426	203.613	84.1795	203.613	83.4837	203.613	84.0959	203.613	83.5578	203.613	83.9963	203.613	83.6562	203.613	83.8849	203.613	83.7686
210.938	85.1475	210.938	85.0865	210.938	85.1718	210.938	84.9912	210.938	85.16	210.938	84.8663	210.938	85.1154	210.938	84.718	210.938	85.0449	210.938	84.5534	210.938	84.9574	210.938	84.3794	210.938	84.8628	210.938	84.203	210.938	84.7706	210.938	84.0308	210.938	84.687	210.938	83.8696	210.938	84.6138	210.938	83.7267	210.938	84.5484	210.938	83.6098	210.938	84.485	210.938	83.5262	210.938	84.4169	210.938	83.4818	210.938	84.3391	210.938	83.4791	210.938	84.2489	210.938	83.5163	210.938	84.1466	210.938	83.5878	210.938	84.0343	210.938	83.6845	210.938	83.9159	210.938	83.7969
218.262	85.0144	218.262	84.9545	218.262	85.0407	218.262	84.8651	218.262	85.0321	218.262	84.7518	218.262	84.9908	218.262	84.6209	218.262	84.9227	218.262	84.4784	218.262	84.8374	218.262	84.3294	218.262	84.7467	218.262	84.1783	218.262	84.6619	218.262	84.0288	218.262	84.591	218.262	83.8856	218.262	84.5359	218.262	83.7543	218.262	84.4922	218.262	83.6427	218.262	84.4511	218.262	83.559	218.262	84.4026	218.262	83.5109	218.262	84.3391	218.262	83.503	218.262	84.2574	218.262	83.5353	218.262	84.1585	218.262	83.6028	218.262	84.0465	218.262	83.6969	218.262	83.9274	218.262	83.8082
225.586	85.0504	225.586	84.9815	225.586	85.0771	225.586	84.8758	225.586	85.0598	225.586	84.7413	225.586	85.0013	225.586	84.5874	225.586	84.9091	225.586	84.4239	225.586	84.7953	225.586	84.2603	225.586	84.6749	225.586	84.1045	225.586	84.5637	225.586	83.9632	225.586	84.4739	225.586	83.8414	225.586	84.4119	225.586	83.743	225.586	84.3763	225.586	83.6717	225.586	84.3591	225.586	83.6308	225.586	84.3484	225.586	83.6228	225.586	84.3325	225.586	83.6485	225.586	84.3021	225.586	83.7054	225.586	84.252	225.586	83.7877	225.586	84.1811	225.586	83.8864	225.586	84.0923	225.586	83.9913
232.91	85.1332	232.91	85.0665	232.91	85.1493	232.91	84.9545	232.91	85.1137	232.91	84.8055	232.91	85.0304	232.91	84.6299	232.91	84.9083	232.91	84.4383	232.91	84.7611	232.91	84.2413	232.91	84.6049	232.91	84.0483	232.91	84.4563	232.91	83.8683	232.91	84.3288	232.91	83.7094	232.91	84.2302	232.91	83.58	232.91	84.1615	232.91	83.4877	232.91	84.118	232.91	83.4385	232.91	84.0916	232.91	83.4347	232.91	84.0733	232.91	83.4734	232.91	84.054	232.91	83.5461	232.91	84.0258	232.91	83.6404	232.91	83.9825	232.91	83.7421	232.91	83.92	232.91	83.8384
241.699	85.1542	241.699	85.0746	241.699	85.1837	241.699	84.9508	241.699	85.1612	241.699	84.7918	241.699	85.0897	241.699	84.6089	241.699	84.9767	241.699	84.4136	241.699	84.8343	241.699	84.2159	241.699	84.6771	241.699	84.0237	241.699	84.5204	241.699	83.8426	241.699	84.3768	241.699	83.6768	241.699	84.2529	241.699	83.531	241.699	84.1487	241.699	83.4113	241.699	84.0596	241.699	83.3252	241.699	83.9801	241.699	83.2792	241.699	83.9057	241.699	83.2758	241.699	83.8343	241.699	83.3111	241.699	83.7644	241.699	83.3751	241.699	83.6936	241.699	83.4549	241.699	83.619	241.699	83.5387
250.488	85.05	250.488	84.9351	250.488	85.1071	250.488	84.7711	250.488	85.1026	250.488	84.5701	250.488	85.0382	250.488	84.3473	250.488	84.9211	250.488	84.1189	250.488	84.7646	250.488	83.9001	250.488	84.5865	250.488	83.7035	250.488	84.4066	250.488	83.5366	250.488	84.2429	250.488	83.4024	250.488	84.1072	250.488	83.3	250.488	84.0027	250.488	83.2275	250.488	83.9247	250.488	83.1838	250.488	83.8636	250.488	83.1694	250.488	83.8096	250.488	83.1848	250.488	83.7546	250.488	83.2282	250.488	83.6936	250.488	83.2946	250.488	83.6244	250.488	83.3756	250.488	83.5466	250.488	83.4621
259.277	85.4292	259.277	85.3311	259.277	85.4659	259.277	85.1774	259.277	85.4404	259.277	84.9781	259.277	85.3575	259.277	84.7458	259.277	85.2276	259.277	84.4941	259.277	85.0659	259.277	84.2363	259.277	84.8897	259.277	83.9848	259.277	84.7155	259.277	83.7507	259.277	84.5552	259.277	83.5441	259.277	84.4135	259.277	83.3741	259.277	84.2884	259.277	83.2487	259.277	84.1746	259.277	83.174	259.277	84.0675	259.277	83.152	259.277	83.9664	259.277	83.1793	259.277	83.873	259.277	83.2461	259.277	83.7877	259.277	83.3378	259.277	83.7075	259.277	83.4389	259.277	83.6259	259.277	83.5368
268.066	85.3401	268.066	85.2391	268.066	85.3801	268.066	85.083	268.066	85.3577	268.066	84.8815	268.066	85.2767	268.066	84.6473	268.066	85.1461	268.066	84.3948	268.066	84.9796	268.066	84.139	268.066	84.7949	268.066	83.8938	268.066	84.6107	268.066	83.671	268.066	84.4426	268.066	83.4801	268.066	84.2993	268.066	83.328	268.066	84.1808	268.066	83.2201	268.066	84.0812	268.066	83.1597	268.066	83.9932	268.066	83.1474	268.066	83.9117	268.066	83.1795	268.066	83.8345	268.066	83.2468	268.066	83.7606	268.066	83.336	268.066	83.6876	268.066	83.4329	268.066	83.6109	268.066	83.5263
276.855	85.2735	276.855	85.1604	276.855	85.3252	276.855	84.9954	276.855	85.3093	276.855	84.7899	276.855	85.2252	276.855	84.5556	276.855	85.0797	276.855	84.3042	276.855	84.8883	276.855	84.0462	276.855	84.6744	276.855	83.7908	276.855	84.4645	276.855	83.5467	276.855	84.2812	276.855	83.323	276.855	84.136	276.855	83.1305	276.855	84.0264	276.855	82.982	276.855	83.9408	276.855	82.8905	276.855	83.8658	276.855	82.8645	276.855	83.793	276.855	82.9036	276.855	83.7198	276.855	82.9956	276.855	83.6456	276.855	83.1193	276.855	83.5675	276.855	83.2515	276.855	83.4792	276.855	83.3742
287.109	85.4339	287.109	85.3343	287.109	85.4574	287.109	85.164	287.109	85.4053	287.109	84.9342	287.109	85.2844	287.109	84.6618	287.109	85.1075	287.109	84.3683	287.109	84.8937	287.109	84.0771	287.109	84.6676	287.109	83.8095	287.109	84.4569	287.109	83.5801	287.109	84.286	287.109	83.3948	287.109	84.1689	287.109	83.252	287.109	84.1029	287.109	83.1478	287.109	84.0705	287.109	83.081	287.109	84.047	287.109	83.0543	287.109	84.0109	287.109	83.0716	287.109	83.95	287.109	83.1333	287.109	83.8625	287.109	83.2328	287.109	83.7529	287.109	83.3574	287.109	83.6275	287.109	83.493
297.363	85.4219	297.363	85.3169	297.363	85.4445	297.363	85.1376	297.363	85.3828	297.363	84.8966	297.363	85.2412	297.363	84.6111	297.363	85.0322	297.363	84.3017	297.363	84.7766	297.363	83.9915	297.363	84.5024	297.363	83.7042	297.363	84.2411	297.363	83.4601	297.363	84.0209	297.363	83.274	297.363	83.8596	297.363	83.1528	297.363	83.7607	297.363	83.0968	297.363	83.7165	297.363	83.1021	297.363	83.7137	297.363	83.1614	297.363	83.7382	297.363	83.2647	297.363	83.7766	297.363	83.3969	297.363	83.8139	297.363	83.5385	297.363	83.8337	297.363	83.6676	297.363	83.8208	297.363	83.7654
307.617	85.7522	307.617	85.6285	307.617	85.7852	307.617	85.4239	307.617	85.7233	307.617	85.1534	307.617	85.5696	307.617	84.8367	307.617	85.3345	307.617	84.497	307.617	85.0377	307.617	84.1582	307.617	84.7073	307.617	83.8411	307.617	84.3773	307.617	83.5602	307.617	84.0813	307.617	83.3218	307.617	83.844	307.617	83.1279	307.617	83.6744	307.617	82.9813	307.617	83.5657	307.617	82.889	307.617	83.5027	307.617	82.8604	307.617	83.4692	307.617	82.8983	307.617	83.4526	307.617	82.9916	307.617	83.443	307.617	83.1148	307.617	83.4289	307.617	83.2371	307.617	83.3969	307.617	83.3344
319.336	85.6791	319.336	85.5332	319.336	85.7331	319.336	85.3034	319.336	85.6921	319.336	85.0022	319.336	85.5587	319.336	84.6475	319.336	85.3421	319.336	84.263	319.336	85.0593	319.336	83.8787	319.336	84.7364	319.336	83.5281	319.336	84.4065	319.336	83.2413	319.336	84.1046	319.336	83.0357	319.336	83.8575	319.336	82.9102	319.336	83.6756	319.336	82.8488	319.336	83.5526	319.336	82.8322	319.336	83.4727	319.336	82.8472	319.336	83.4199	319.336	82.8891	319.336	83.3827	319.336	82.9559	319.336	83.3525	319.336	83.041	319.336	83.3202	319.336	83.1316	319.336	83.276	319.336	83.213
329.59	85.4888	329.59	85.3479	329.59	85.5376	329.59	85.1234	329.59	85.4903	329.59	84.8271	329.59	85.3482	329.59	84.4747	329.59	85.1193	329.59	84.0863	329.59	84.8201	329.59	83.688	329.59	84.4764	329.59	83.3115	329.59	84.1218	329.59	82.9916	329.59	83.792	329.59	82.7576	329.59	83.5164	329.59	82.624	329.59	83.31	329.59	82.5859	329.59	83.1734	329.59	82.6242	329.59	83.0995	329.59	82.7148	329.59	83.079	329.59	82.8356	329.59	83.1016	329.59	82.967	329.59	83.1517	329.59	83.0898	329.59	83.2068	329.59	83.1849	329.59	83.242	329.59	83.2374
341.309	85.6679	341.309	85.5344	341.309	85.7033	341.309	85.3076	341.309	85.6394	341.309	84.9968	341.309	85.4794	341.309	84.6168	341.309	85.2311	341.309	84.1885	341.309	84.9092	341.309	83.7397	341.309	84.5366	341.309	83.3036	341.309	84.1454	341.309	82.9155	341.309	83.7729	341.309	82.607	341.309	83.454	341.309	82.3994	341.309	83.2115	341.309	82.2997	341.309	83.0518	341.309	82.301	341.309	82.9679	341.309	82.3857	341.309	82.9467	341.309	82.5291	341.309	82.9724	341.309	82.7016	341.309	83.0253	341.309	82.8707	341.309	83.0802	341.309	83.0066	341.309	83.109	341.309	83.088
353.027	85.6568	353.027	85.4719	353.027	85.7301	353.027	85.1894	353.027	85.6824	353.027	84.8276	353.027	85.5111	353.027	84.4074	353.027	85.2231	353.027	83.9531	353.027	84.8382	353.027	83.4923	353.027	84.3919	353.027	83.0562	353.027	83.9342	353.027	82.6771	353.027	83.5215	353.027	82.3837	353.027	83.1998	353.027	82.1948	353.027	82.9891	353.027	82.1155	353.027	82.8803	353.027	82.1385	353.027	82.8457	353.027	82.2466	353.027	82.8562	353.027	82.4137	353.027	82.891	353.027	82.6057	353.027	82.9371	353.027	82.7851	353.027	82.9822	353.027	82.9199	353.027	83.0085	353.027	82.9935
366.211	85.725	366.211	85.5625	366.211	85.7749	366.211	85.2921	366.211	85.7127	366.211	84.9248	366.211	85.5444	366.211	84.48	366.211	85.2809	366.211	83.9877	366.211	84.9378	366.211	83.4907	366.211	84.5372	366.211	83.0389	366.211	84.11	366.211	82.6755	366.211	83.6951	366.211	82.4184	366.211	83.3319	366.211	82.2539	366.211	83.0472	366.211	82.1517	366.211	82.847	366.211	82.0883	366.211	82.7202	366.211	82.0601	366.211	82.6498	366.211	82.079	366.211	82.62	366.211	82.1534	366.211	82.6144	366.211	82.2724	366.211	82.6112	366.211	82.4052	366.211	82.585	366.211	82.5166
379.395	86.1552	379.395	86.0123	379.395	86.1817	379.395	85.7613	379.395	86.0878	379.395	85.413	379.395	85.8745	379.395	84.9798	379.395	85.5492	379.395	84.4765	379.395	85.127	379.395	83.9248	379.395	84.6341	379.395	83.3612	379.395	84.1098	379.395	82.8399	379.395	83.6047	379.395	82.4249	379.395	83.1725	379.395	82.1649	379.395	82.8575	379.395	82.0704	379.395	82.6825	379.395	82.1144	379.395	82.6432	379.395	82.2543	379.395	82.711	379.395	82.4507	379.395	82.843	379.395	82.6707	379.395	82.9918	379.395	82.8825	379.395	83.114	379.395	83.0535	379.395	83.1755	379.395	83.1562
392.578	86.1284	392.578	85.9395	392.578	86.2038	392.578	85.6444	392.578	86.1611	392.578	85.2543	392.578	85.9973	392.578	84.7847	392.578	85.7119	392.578	84.2563	392.578	85.311	392.578	83.6971	392.578	84.8145	392.578	83.1445	392.578	84.2617	392.578	82.6462	392.578	83.7085	392.578	82.2534	392.578	83.2129	392.578	82.007	392.578	82.8163	392.578	81.9215	392.578	82.537	392.578	81.981	392.578	82.3791	392.578	82.1478	392.578	82.3429	392.578	82.3756	392.578	82.4208	392.578	82.6173	392.578	82.5825	392.578	82.8269	392.578	82.7731	392.578	82.9638	392.578	82.9288	392.578	82.9998
405.762	85.9976	405.762	85.8096	405.762	86.0755	405.762	85.5174	405.762	86.0359	405.762	85.1269	405.762	85.872	405.762	84.6476	405.762	85.5805	405.762	84.0968	405.762	85.1671	405.762	83.5064	405.762	84.6497	405.762	82.9246	405.762	84.0621	405.762	82.4107	405.762	83.4544	405.762	82.0165	405.762	82.8901	405.762	81.7661	405.762	82.4337	405.762	81.6524	405.762	82.1308	405.762	81.6531	405.762	81.99	405.762	81.7467	405.762	81.9853	405.762	81.912	405.762	82.0746	405.762	82.1178	405.762	82.2153	405.762	82.3184	405.762	82.3653	405.762	82.4644	405.762	82.4805	405.762	82.5208
420.41	86.3767	420.41	86.2133	420.41	86.4109	420.41	85.9276	420.41	86.3107	420.41	85.5261	420.41	86.076	420.41	85.0141	420.41	85.7121	420.41	84.3992	420.41	85.2323	420.41	83.7005	420.41	84.6613	420.41	82.9616	420.41	84.0383	420.41	82.2595	420.41	83.4156	420.41	81.6926	420.41	82.8465	420.41	81.34	420.41	82.3725	420.41	81.219	420.41	82.0189	420.41	81.286	420.41	81.8007	420.41	81.4752	420.41	81.7278	420.41	81.7289	420.41	81.7953	420.41	81.9988	420.41	81.9688	420.41	82.2373	420.41	82.1829	420.41	82.3968	420.41	82.3606	420.41	82.441
435.059	85.9196	435.059	85.7415	435.059	85.9769	435.059	85.4494	435.059	85.9063	435.059	85.0495	435.059	85.7022	435.059	84.5488	435.059	85.3627	435.059	83.9579	435.059	84.897	435.059	83.2989	435.059	84.3309	435.059	82.6158	435.059	83.7099	435.059	81.9799	435.059	83.0929	435.059	81.4783	435.059	82.5397	435.059	81.1785	435.059	82.0999	435.059	81.0951	435.059	81.807	435.059	81.1912	435.059	81.6766	435.059	81.4098	435.059	81.7019	435.059	81.6969	435.059	81.8503	435.059	82.0016	435.059	82.0678	435.059	82.2715	435.059	82.2905	435.059	82.4558	435.059	82.4571	435.059	82.52
451.172	86.5513	451.172	86.3931	451.172	86.579	451.172	86.1042	451.172	86.4704	451.172	85.676	451.172	86.2175	451.172	85.0921	451.172	85.8154	451.172	84.3358	451.172	85.27	451.172	83.408	451.172	84.6029	451.172	82.3574	451.172	83.854	451.172	81.3171	451.172	83.0799	451.172	80.5061	451.172	82.3491	451.172	80.1263	451.172	81.7373	451.172	80.2041	451.172	81.3192	451.172	80.5896	451.172	81.1523	451.172	81.1063	451.172	81.2502	451.172	81.6397	451.172	81.563	451.172	82.1262	451.172	81.9878	451.172	82.5182	451.172	82.4037	451.172	82.7683	451.172	82.7083	451.172	82.837
465.82	86.4541	465.82	86.2906	465.82	86.4847	465.82	85.9974	465.82	86.3749	465.82	85.5723	465.82	86.1179	465.82	85.0102	465.82	85.7166	465.82	84.306	465.82	85.1897	465.82	83.4609	465.82	84.5722	465.82	82.4933	465.82	83.9066	465.82	81.4605	465.82	83.2318	465.82	80.487	465.82	82.5738	465.82	79.7665	465.82	81.9491	465.82	79.4733	465.82	81.3798	465.82	79.6178	465.82	80.9125	465.82	80.0382	465.82	80.6169	465.82	80.5404	465.82	80.5479	465.82	80.9905	465.82	80.6948	465.82	81.3136	465.82	80.9709	465.82	81.4691	465.82	81.2555	465.82	81.4429
483.398	86.3798	483.398	86.2694	483.398	86.3528	483.398	86.0134	483.398	86.1912	483.398	85.5976	483.398	85.8975	483.398	85.0061	483.398	85.4783	483.398	84.2301	483.398	84.9472	483.398	83.2808	483.398	84.3247	483.398	82.2052	483.398	83.6382	483.398	81.1033	483.398	82.9216	483.398	80.1337	483.398	82.2188	483.398	79.48	483.398	81.5941	483.398	79.2637	483.398	81.1384	483.398	79.4722	483.398	80.9425	483.398	79.9853	483.398	81.0336	483.398	80.6523	483.398	81.3422	483.398	81.3336	483.398	81.7451	483.398	81.912	483.398	82.1243	483.398	82.3018	483.398	82.3859	483.398	82.4591
499.512	86.063	499.512	85.9119	499.512	86.082	499.512	85.631	499.512	85.9607	499.512	85.2169	499.512	85.6901	499.512	84.6661	499.512	85.2688	499.512	83.9807	499.512	84.7088	499.512	83.1707	499.512	84.0395	499.512	82.2564	499.512	83.3062	499.512	81.2781	499.512	82.5593	499.512	80.323	499.512	81.8398	499.512	79.5461	499.512	81.1788	499.512	79.1287	499.512	80.6282	499.512	79.1549	499.512	80.2919	499.512	79.545	499.512	80.2837	499.512	80.1366	499.512	80.6035	499.512	80.7777	499.512	81.0966	499.512	81.3486	499.512	81.5653	499.512	81.7565	499.512	81.8693	499.512	81.9387
517.09	86.806	517.09	86.6134	517.09	86.8408	517.09	86.2708	517.09	86.7084	517.09	85.7797	517.09	86.4026	517.09	85.1354	517.09	85.9248	517.09	84.3306	517.09	85.288	517.09	83.3643	517.09	84.5202	517.09	82.2587	517.09	83.6675	517.09	81.0887	517.09	82.784	517.09	80.0194	517.09	81.9085	517.09	79.3003	517.09	81.0541	517.09	79.1234	517.09	80.253	517.09	79.4502	517.09	79.658	517.09	80.0794	517.09	79.5586	517.09	80.8271	517.09	80.0966	517.09	81.5707	517.09	81.0103	517.09	82.2069	517.09	81.8979	517.09	82.6311	517.09	82.5083	517.09	82.7512
536.133	85.8756	536.133	85.6852	536.133	85.9014	536.133	85.3343	536.133	85.7591	536.133	84.8338	536.133	85.4495	536.133	84.2105	536.133	84.9899	536.133	83.5003	536.133	84.4211	536.133	82.7242	536.133	83.7968	536.133	81.8716	536.133	83.1612	536.133	80.9279	536.133	82.5299	536.133	79.9573	536.133	81.8861	536.133	79.1718	536.133	81.1931	536.133	78.8313	536.133	80.4262	536.133	78.9876	536.133	79.6341	536.133	79.4588	536.133	79.0194	536.133	80.0525	536.133	78.9064	536.133	80.6557	536.133	79.4182	536.133	81.1715	536.133	80.259	536.133	81.4744	536.133	81.0155	536.133	81.4419
555.176	86.4634	555.176	86.3648	555.176	86.3678	555.176	86.0671	555.176	86.0827	555.176	85.5629	555.176	85.6285	555.176	84.8474	555.176	85.0588	555.176	83.9209	555.176	84.4602	555.176	82.7813	555.176	83.9208	555.176	81.4188	555.176	83.48	555.176	79.8466	555.176	83.0898	555.176	78.211	555.176	82.6259	555.176	76.9604	555.176	81.9514	555.176	76.6863	555.176	80.9897	555.176	77.3838	555.176	79.7886	555.176	78.4801	555.176	78.6199	555.176	79.5476	555.176	78.0248	555.176	80.4167	555.176	78.3839	555.176	81.0064	555.176	79.3659	555.176	81.2351	555.176	80.3666	555.176	81.0277
574.219	87.0776	574.219	87.0301	574.219	86.9566	574.219	86.8093	574.219	86.6661	574.219	86.4091	574.219	86.2032	574.219	85.8263	574.219	85.5763	574.219	85.0578	574.219	84.8276	574.219	84.0878	574.219	84.0516	574.219	82.8786	574.219	83.3846	574.219	81.3812	574.219	82.9266	574.219	79.5967	574.219	82.6379	574.219	77.7573	574.219	82.3469	574.219	76.619	574.219	81.8719	574.219	76.9628	574.219	81.1215	574.219	78.2724	574.219	80.1592	574.219	79.6171	574.219	79.2896	574.219	80.618	574.219	79.0129	574.219	81.2036	574.219	79.516	574.219	81.3568	574.219	80.3684	574.219	81.0621
594.727	86.3221	594.727	86.2733	594.727	86.2869	594.727	86.1343	594.727	86.1337	594.727	85.8594	594.727	85.8101	594.727	85.3885	594.727	85.282	594.727	84.6862	594.727	84.5659	594.727	83.7741	594.727	83.7388	594.727	82.7223	594.727	82.9258	594.727	81.5834	594.727	82.2757	594.727	80.3263	594.727	81.9024	594.727	78.892	594.727	81.7768	594.727	77.462	594.727	81.685	594.727	76.7712	594.727	81.3475	594.727	77.4062	594.727	80.5956	594.727	78.7401	594.727	79.5658	594.727	79.9772	594.727	78.8927	594.727	80.7991	594.727	79.206	594.727	81.1059	594.727	80.1122	594.727	80.8585
615.234	86.3003	615.234	86.2075	615.234	86.297	615.234	86.0269	615.234	86.1484	615.234	85.7262	615.234	85.7937	615.234	85.2632	615.234	85.2065	615.234	84.6327	615.234	84.4363	615.234	83.8856	615.234	83.6099	615.234	83.0841	615.234	82.8806	615.234	82.2216	615.234	82.3547	615.234	81.1923	615.234	82.0405	615.234	79.8596	615.234	81.8595	615.234	78.2414	615.234	81.688	615.234	76.8225	615.234	81.3652	615.234	76.5653	615.234	80.7068	615.234	77.5949	615.234	79.6259	615.234	78.9461	615.234	78.4492	615.234	79.9254	615.234	78.1181	615.234	80.2623	615.234	78.9238	615.234	79.8763
637.207	86.5591	637.207	86.3043	637.207	86.6538	637.207	85.956	637.207	86.5133	637.207	85.5462	637.207	86.0947	637.207	85.0636	637.207	85.4218	637.207	84.4658	637.207	84.5663	637.207	83.6994	637.207	83.5827	637.207	82.7149	637.207	82.5302	637.207	81.4973	637.207	81.6031	637.207	80.1012	637.207	81.0913	637.207	78.6411	637.207	81.0719	637.207	77.3028	637.207	81.2997	637.207	76.4757	637.207	81.4352	637.207	76.6498	637.207	81.2447	637.207	77.7209	637.207	80.7177	637.207	79.007	637.207	80.1548	637.207	80.0031	637.207	79.9941	637.207	80.5237	637.207	80.2667	637.207	80.5624
659.18	85.851	659.18	85.4934	659.18	86.0352	659.18	85.0198	659.18	85.9915	659.18	84.4939	659.18	85.6828	659.18	83.9751	659.18	85.1134	659.18	83.4735	659.18	84.3339	659.18	82.9036	659.18	83.4249	659.18	82.109	659.18	82.5033	659.18	80.983	659.18	81.7267	659.18	79.584	659.18	81.1691	659.18	78.1031	659.18	80.7232	659.18	76.7034	659.18	80.2837	659.18	75.5714	659.18	79.8838	659.18	75.2599	659.18	79.5027	659.18	76.1959	659.18	78.9564	659.18	77.7186	659.18	78.2697	659.18	78.9662	659.18	78.0278	659.18	79.5375	659.18	78.6067	659.18	79.3441
682.617	85.5776	682.617	85.3138	682.617	85.6636	682.617	84.9589	682.617	85.5195	682.617	84.584	682.617	85.1641	682.617	84.2141	682.617	84.6653	682.617	83.8149	682.617	84.0599	682.617	83.2924	682.617	83.3132	682.617	82.5297	682.617	82.406	682.617	81.4716	682.617	81.4733	682.617	80.1893	682.617	80.8047	682.617	78.8367	682.617	80.5566	682.617	77.5603	682.617	80.4968	682.617	76.604	682.617	80.2381	682.617	76.4297	682.617	79.6193	682.617	77.1336	682.617	78.8376	682.617	78.1516	682.617	78.2962	682.617	78.9637	682.617	78.2738	682.617	79.3269	682.617	78.7002	682.617	79.1844
707.52	86.0554	707.52	85.9443	707.52	85.9417	707.52	85.5456	707.52	85.7065	707.52	84.854	707.52	85.4218	707.52	83.9424	707.52	85.0511	707.52	83.0015	707.52	84.5031	707.52	82.2933	707.52	83.7332	707.52	81.9059	707.52	82.7417	707.52	81.549	707.52	81.5571	707.52	80.7567	707.52	80.4047	707.52	79.2815	707.52	79.8665	707.52	77.3574	707.52	80.2141	707.52	75.717	707.52	80.7061	707.52	74.9761	707.52	80.5861	707.52	75.223	707.52	79.841	707.52	76.3611	707.52	79.0862	707.52	77.7812	707.52	78.8885	707.52	78.7944	707.52	79.0871	707.52	79.1804
732.422	85.4173	732.422	85.0261	732.422	85.6889	732.422	84.568	732.422	85.7769	732.422	84.0872	732.422	85.6368	732.422	83.6493	732.422	85.2573	732.422	83.3174	732.422	84.6092	732.422	83.0339	732.422	83.5953	732.422	82.6173	732.422	82.1968	732.422	82.0006	732.422	80.843	732.422	81.2064	732.422	80.3505	732.422	79.997	732.422	80.7183	732.422	78.0363	732.422	81.0747	732.422	75.5663	732.422	80.8847	732.422	74.3989	732.422	80.1353	732.422	75.2674	732.422	78.8988	732.422	76.2238	732.422	77.1187	732.422	76.6992	732.422	75.4854	732.422	76.8398	732.422	75.5699	732.422	76.4709
757.324	85.5545	757.324	84.5864	757.324	86.1744	757.324	83.6213	757.324	86.2757	757.324	83.0708	757.324	85.8619	757.324	83.1108	757.324	85.0726	757.324	83.537	757.324	84.0452	757.324	83.8754	757.324	82.7992	757.324	83.6159	757.324	81.3951	757.324	82.5235	757.324	80.0984	757.324	80.917	757.324	79.256	757.324	79.5052	757.324	79.1475	757.324	78.3295	757.324	79.7535	757.324	76.5968	757.324	80.4639	757.324	74.6877	757.324	80.5907	757.324	75.1715	757.324	79.8113	757.324	76.8173	757.324	78.0918	757.324	77.5422	757.324	75.855	757.324	77.1456	757.324	74.8223	757.324	75.8888
785.156	86.9934	785.156	86.1363	785.156	86.8519	785.156	84.3436	785.156	85.7858	785.156	81.88	785.156	84.3846	785.156	80.0977	785.156	83.9373	785.156	81.1782	785.156	84.4684	785.156	83.4575	785.156	84.7081	785.156	84.9822	785.156	84.1095	785.156	85.3815	785.156	82.6453	785.156	84.7122	785.156	80.392	785.156	83.2055	785.156	77.7872	785.156	81.3141	785.156	76.1743	785.156	79.455	785.156	76.194	785.156	77.5202	785.156	77.4708	785.156	75.4197	785.156	79.2094	785.156	73.7367	785.156	80.0437	785.156	72.7269	785.156	79.3414	785.156	72.232	785.156	77.0247	785.156	73.8024
811.523	85.0047	811.523	84.9406	811.523	85.3445	811.523	84.9112	811.523	85.8811	811.523	84.579	811.523	86.2744	811.523	83.7135	811.523	86.2079	811.523	82.3657	811.523	85.528	811.523	80.9258	811.523	84.232	811.523	79.6945	811.523	82.428	811.523	78.6705	811.523	80.2761	811.523	77.9738	811.523	78.0513	811.523	77.5379	811.523	76.75	811.523	76.7469	811.523	77.3049	811.523	75.1138	811.523	78.2591	811.523	73.7699	811.523	78.7093	811.523	74.0636	811.523	78.9458	811.523	74.6002	811.523	79.0145	811.523	75.0471	811.523	78.7017	811.523	75.9056	811.523	78.0243	811.523	77.0406
840.82	84.9837	840.82	85.134	840.82	84.9116	840.82	84.9742	840.82	85.2118	840.82	84.2559	840.82	85.6673	840.82	82.9023	840.82	85.7399	840.82	81.1402	840.82	85.09	840.82	79.5249	840.82	83.7098	840.82	78.1033	840.82	81.7947	840.82	76.0198	840.82	79.4529	840.82	73.513	840.82	76.6383	840.82	72.7279	840.82	75.4261	840.82	73.3634	840.82	78.0621	840.82	73.6664	840.82	80.2664	840.82	73.1259	840.82	80.7752	840.82	72.693	840.82	79.8824	840.82	75.0286	840.82	77.6366	840.82	77.8787	840.82	74.8151	840.82	79.121	840.82	76.0153	840.82	78.4878
870.117	85.7537	870.117	85.0444	870.117	86.0191	870.117	84.3661	870.117	85.6791	870.117	84.0629	870.117	84.9186	870.117	83.7515	870.117	84.204	870.117	82.9072	870.117	83.7091	870.117	81.851	870.117	82.9637	870.117	81.6167	870.117	81.7868	870.117	81.9746	870.117	80.7776	870.117	81.9012	870.117	80.2683	870.117	81.2404	870.117	79.518	870.117	80.8197	870.117	77.8888	870.117	80.4181	870.117	75.5965	870.117	79.1747	870.117	72.8075	870.117	77.8413	870.117	73.8563	870.117	77.0125	870.117	78.3186	870.117	75.4491	870.117	80.2775	870.117	74.2613	870.117	79.5931	870.117	76.8036
900.879	85.175	900.879	85.2887	900.879	85.5345	900.879	85.538	900.879	85.9175	900.879	85.2403	900.879	85.7821	900.879	83.991	900.879	84.8705	900.879	81.641	900.879	83.0186	900.879	77.9499	900.879	80.0921	900.879	72.3111	900.879	76.4285	900.879	69.0976	900.879	73.3336	900.879	70.7193	900.879	70.4684	900.879	69.3939	900.879	67.3054	900.879	65.7986	900.879	74.1969	900.879	63.9898	900.879	78.8651	900.879	68.1371	900.879	80.5903	900.879	71.5469	900.879	80.0105	900.879	74.2189	900.879	76.6467	900.879	77.6344	900.879	72.2667	900.879	80.0333	900.879	77.3205	900.879	80.1915
933.105	86.0193	933.105	85.5666	933.105	85.787	933.105	84.6826	933.105	84.8885	933.105	83.7995	933.105	83.639	933.105	83.1368	933.105	82.4828	933.105	82.4155	933.105	81.7352	933.105	81.3815	933.105	81.5858	933.105	80.4171	933.105	81.7652	933.105	80.1585	933.105	81.6145	933.105	80.3528	933.105	81.0309	933.105	80.2504	933.105	80.303	933.105	79.9432	933.105	78.689	933.105	79.9951	933.105	74.3002	933.105	80.2214	933.105	66.8732	933.105	79.7206	933.105	74.2371	933.105	77.9787	933.105	78.733	933.105	75.5437	933.105	80.1516	933.105	72.44	933.105	78.5186	933.105	73.7054
965.332	85.9324	965.332	85.4237	965.332	86.0012	965.332	84.9339	965.332	85.4025	965.332	84.7251	965.332	84.111	965.332	84.3743	965.332	82.3875	965.332	83.2626	965.332	80.8279	965.332	80.9997	965.332	79.5015	965.332	77.6922	965.332	78.0075	965.332	75.3869	965.332	76.4988	965.332	75.4756	965.332	74.7236	965.332	76.3515	965.332	73.7449	965.332	77.0534	965.332	76.6086	965.332	75.9891	965.332	79.0858	965.332	72.9179	965.332	79.6301	965.332	68.2534	965.332	77.8017	965.332	70.4833	965.332	71.2211	965.332	76.1663	965.332	71.3324	965.332	78.8284	965.332	77.9859	965.332	79.6553
1,000.49	86.7106	1,000.49	85.6847	1,000.49	86.6424	1,000.49	84.3753	1,000.49	85.0547	1,000.49	83.5872	1,000.49	82.6346	1,000.49	83.4988	1,000.49	81.9389	1,000.49	83.6101	1,000.49	82.5965	1,000.49	83.2638	1,000.49	82.6087	1,000.49	82.0046	1,000.49	81.864	1,000.49	79.95	1,000.49	80.629	1,000.49	77.8292	1,000.49	78.5374	1,000.49	76.5179	1,000.49	75.7419	1,000.49	76.0066	1,000.49	74.1211	1,000.49	74.4213	1,000.49	73.9635	1,000.49	72.1738	1,000.49	75.385	1,000.49	72.6387	1,000.49	76.7299	1,000.49	75.0529	1,000.49	75.2806	1,000.49	77.1734	1,000.49	73.5848	1,000.49	78.745	1,000.49	77.1426	1,000.49	79.0987
1,035.64	86.1151	1,035.64	86.7365	1,035.64	84.5497	1,035.64	86.1511	1,035.64	83.5365	1,035.64	84.4973	1,035.64	84.211	1,035.64	82.4951	1,035.64	84.4767	1,035.64	81.1612	1,035.64	83.2049	1,035.64	80.0001	1,035.64	81.0895	1,035.64	77.6125	1,035.64	79.4169	1,035.64	74.2702	1,035.64	78.0797	1,035.64	71.7737	1,035.64	76.6112	1,035.64	69.5518	1,035.64	75.1462	1,035.64	67.947	1,035.64	74.6095	1,035.64	69.6671	1,035.64	73.1037	1,035.64	71.6825	1,035.64	69.9659	1,035.64	73.9998	1,035.64	73.5686	1,035.64	76.8926	1,035.64	75.1192	1,035.64	78.2304	1,035.64	73.3667	1,035.64	78.0317	1,035.64	73.5178	1,035.64	76.4955
1,072.27	85.5513	1,072.27	85.9429	1,072.27	84.1824	1,072.27	85.2011	1,072.27	83.1011	1,072.27	83.5578	1,072.27	83.5846	1,072.27	81.9377	1,072.27	84.1172	1,072.27	81.8244	1,072.27	83.5138	1,072.27	82.4454	1,072.27	81.7017	1,072.27	82.4283	1,072.27	79.3814	1,072.27	82.1118	1,072.27	77.742	1,072.27	81.906	1,072.27	76.2892	1,072.27	80.2018	1,072.27	74.0752	1,072.27	75.3752	1,072.27	74.0534	1,072.27	72.5227	1,072.27	75.4534	1,072.27	72.9664	1,072.27	74.1809	1,072.27	71.661	1,072.27	71.3762	1,072.27	74.5387	1,072.27	70.2711	1,072.27	76.6006	1,072.27	70.8715	1,072.27	76.3921	1,072.27	72.8854	1,072.27	74.9034
1,108.89	84.1208	1,108.89	85.3365	1,108.89	83.684	1,108.89	85.7218	1,108.89	84.4004	1,108.89	84.7262	1,108.89	84.2605	1,108.89	82.1813	1,108.89	82.2741	1,108.89	78.2349	1,108.89	78.8541	1,108.89	75.9858	1,108.89	78.2881	1,108.89	77.0413	1,108.89	79.5766	1,108.89	77.0657	1,108.89	78.9347	1,108.89	77.3768	1,108.89	77.1913	1,108.89	77.2482	1,108.89	73.7832	1,108.89	74.4735	1,108.89	67.4213	1,108.89	70.6278	1,108.89	72.2428	1,108.89	70.1705	1,108.89	74.8579	1,108.89	68.2423	1,108.89	76.7395	1,108.89	69.0158	1,108.89	76.5413	1,108.89	73.4142	1,108.89	70.6649	1,108.89	76.2115	1,108.89	71.2453	1,108.89	76.1262
1,148.44	85.0049	1,148.44	85.2103	1,148.44	84.5792	1,148.44	84.9534	1,148.44	83.9235	1,148.44	84.187	1,148.44	82.8164	1,148.44	83.0655	1,148.44	81.6776	1,148.44	81.9635	1,148.44	80.8945	1,148.44	81.6677	1,148.44	80.0547	1,148.44	82.2277	1,148.44	78.6136	1,148.44	82.1266	1,148.44	76.6321	1,148.44	81.2301	1,148.44	75.2455	1,148.44	80.4736	1,148.44	72.9858	1,148.44	77.8908	1,148.44	65.779	1,148.44	71.8587	1,148.44	70.5992	1,148.44	67.8377	1,148.44	74.9447	1,148.44	68.1099	1,148.44	77.576	1,148.44	70.4509	1,148.44	78.4736	1,148.44	74.0107	1,148.44	74.5211	1,148.44	76.2059	1,148.44	66.6035	1,148.44	74.7637
1,189.45	84.9357	1,189.45	84.7057	1,189.45	85.0725	1,189.45	84.8414	1,189.45	83.7879	1,189.45	84.7337	1,189.45	81.3114	1,189.45	84.3165	1,189.45	81.6049	1,189.45	83.3805	1,189.45	83.486	1,189.45	80.7791	1,189.45	84.0102	1,189.45	76.8514	1,189.45	82.9042	1,189.45	73.4098	1,189.45	81.2627	1,189.45	73.5079	1,189.45	80.8656	1,189.45	76.1564	1,189.45	79.7842	1,189.45	73.9047	1,189.45	75.2607	1,189.45	61.3175	1,189.45	68.9122	1,189.45	58.5088	1,189.45	66.4664	1,189.45	68.1344	1,189.45	73.1486	1,189.45	72.9566	1,189.45	77.8235	1,189.45	75.7519	1,189.45	76.8727	1,189.45	76.4161	1,189.45	68.9458	1,189.45	72.4281
1,230.47	84.8977	1,230.47	85.1166	1,230.47	84.0348	1,230.47	84.8829	1,230.47	82.5277	1,230.47	84.4242	1,230.47	82.0217	1,230.47	84.3583	1,230.47	82.1934	1,230.47	84.121	1,230.47	81.333	1,230.47	82.5953	1,230.47	79.3876	1,230.47	80.7119	1,230.47	76.0161	1,230.47	80.1701	1,230.47	72.6094	1,230.47	79.6758	1,230.47	73.0325	1,230.47	78.4595	1,230.47	73.7522	1,230.47	77.4634	1,230.47	71.3984	1,230.47	75.923	1,230.47	72.1484	1,230.47	73.978	1,230.47	76.29	1,230.47	73.5998	1,230.47	75.5577	1,230.47	73.5751	1,230.47	73.1865	1,230.47	73.57	1,230.47	73.9337	1,230.47	72.5634	1,230.47	72.1481	1,230.47	69.2803
1,274.41	85.2706	1,274.41	84.6716	1,274.41	84.2594	1,274.41	84.1176	1,274.41	81.9618	1,274.41	84.4688	1,274.41	82.3843	1,274.41	85.1221	1,274.41	82.9347	1,274.41	84.8399	1,274.41	81.1407	1,274.41	82.3341	1,274.41	78.1934	1,274.41	76.7735	1,274.41	76.2304	1,274.41	70.2768	1,274.41	76.9737	1,274.41	74.135	1,274.41	79.0729	1,274.41	74.162	1,274.41	79.5364	1,274.41	70.833	1,274.41	78.5964	1,274.41	65.5028	1,274.41	76.3477	1,274.41	70.9183	1,274.41	68.4524	1,274.41	70.2915	1,274.41	70.8892	1,274.41	65.5221	1,274.41	76.4341	1,274.41	70.097	1,274.41	76.1497	1,274.41	71.0473	1,274.41	71.665	1,274.41	62.8615
1,319.82	85.9561	1,319.82	86.0173	1,319.82	85.5679	1,319.82	85.9948	1,319.82	84.8815	1,319.82	85.5642	1,319.82	83.6913	1,319.82	84.3197	1,319.82	81.4792	1,319.82	82.9861	1,319.82	80.1012	1,319.82	82.3559	1,319.82	79.9093	1,319.82	80.6757	1,319.82	79.1514	1,319.82	78.5316	1,319.82	78.3899	1,319.82	79.4985	1,319.82	77.9947	1,319.82	79.9278	1,319.82	78.6094	1,319.82	78.3175	1,319.82	78.9178	1,319.82	76.5166	1,319.82	76.749	1,319.82	75.7778	1,319.82	72.253	1,319.82	75.7718	1,319.82	73.4625	1,319.82	73.9948	1,319.82	76.9061	1,319.82	70.1642	1,319.82	77.0888	1,319.82	69.7736	1,319.82	75.9824	1,319.82	73.752
1,366.7	87.103	1,366.7	86.3282	1,366.7	86.3725	1,366.7	85.4255	1,366.7	84.5759	1,366.7	85.5151	1,366.7	84.3417	1,366.7	85.4819	1,366.7	83.9923	1,366.7	84.6455	1,366.7	81.7984	1,366.7	82.7471	1,366.7	78.5193	1,366.7	78.645	1,366.7	77.7034	1,366.7	73.2276	1,366.7	77.0572	1,366.7	65.4579	1,366.7	72.0334	1,366.7	48.1509	1,366.7	65.6816	1,366.7	61.1784	1,366.7	70.5587	1,366.7	71.1917	1,366.7	76.5992	1,366.7	76.6781	1,366.7	78.9219	1,366.7	79.1486	1,366.7	78.2311	1,366.7	78.2715	1,366.7	71.7225	1,366.7	73.7472	1,366.7	76.7813	1,366.7	67.8749	1,366.7	78.6423	1,366.7	73.0059
1,413.57	87.4776	1,413.57	87.0702	1,413.57	86.4829	1,413.57	86.1117	1,413.57	85.0009	1,413.57	85.7923	1,413.57	85.1175	1,413.57	86.1504	1,413.57	84.4104	1,413.57	85.7481	1,413.57	82.2222	1,413.57	82.4634	1,413.57	81.0379	1,413.57	76.7733	1,413.57	80.2775	1,413.57	74.2307	1,413.57	78.8406	1,413.57	70.4294	1,413.57	75.1601	1,413.57	76.0309	1,413.57	70.8318	1,413.57	75.9922	1,413.57	75.5359	1,413.57	74.3539	1,413.57	76.8816	1,413.57	73.4682	1,413.57	76.2144	1,413.57	76.7586	1,413.57	75.5813	1,413.57	76.528	1,413.57	76.7547	1,413.57	70.9024	1,413.57	76.5463	1,413.57	66.9959	1,413.57	76.0442	1,413.57	72.9255
1,463.38	87.7124	1,463.38	88.3942	1,463.38	85.86	1,463.38	86.9012	1,463.38	86.0929	1,463.38	84.9457	1,463.38	85.5779	1,463.38	85.6278	1,463.38	80.9594	1,463.38	86.8503	1,463.38	81.0057	1,463.38	85.8933	1,463.38	84.0402	1,463.38	85.9563	1,463.38	85.2962	1,463.38	84.023	1,463.38	83.7833	1,463.38	73.7834	1,463.38	79.9871	1,463.38	61.8385	1,463.38	76.0672	1,463.38	74.8148	1,463.38	72.3181	1,463.38	78.7083	1,463.38	76.2873	1,463.38	77.7024	1,463.38	77.6504	1,463.38	76.3987	1,463.38	75.9186	1,463.38	77.3467	1,463.38	76.229	1,463.38	75.3017	1,463.38	78.0735	1,463.38	75.4227	1,463.38	79.1827	1,463.38	78.7663
1,516.11	87.2322	1,516.11	87.3307	1,516.11	85.7451	1,516.11	86.3442	1,516.11	86.4348	1,516.11	86.124	1,516.11	85.9659	1,516.11	86.6418	1,516.11	82.7843	1,516.11	86.2291	1,516.11	83.7638	1,516.11	84.8571	1,516.11	84.053	1,516.11	84.6614	1,516.11	82.9834	1,516.11	83.4846	1,516.11	81.3409	1,516.11	77.8276	1,516.11	78.7265	1,516.11	67.358	1,516.11	76.7334	1,516.11	71.4859	1,516.11	76.0085	1,516.11	77.6419	1,516.11	71.4542	1,516.11	78.8539	1,516.11	74.1993	1,516.11	77.9966	1,516.11	79.4953	1,516.11	78.8475	1,516.11	78.0559	1,516.11	76.0586	1,516.11	74.0875	1,516.11	75.1264	1,516.11	77.5406	1,516.11	77.9221
1,568.85	86.1356	1,568.85	86.3864	1,568.85	85.5645	1,568.85	86.3968	1,568.85	85.2811	1,568.85	86.4452	1,568.85	84.4891	1,568.85	85.142	1,568.85	85.4615	1,568.85	83.0143	1,568.85	85.1353	1,568.85	83.3049	1,568.85	82.2837	1,568.85	83.6028	1,568.85	80.0343	1,568.85	81.192	1,568.85	77.7764	1,568.85	76.1193	1,568.85	75.9425	1,568.85	65.9635	1,568.85	75.5234	1,568.85	73.7991	1,568.85	76.6866	1,568.85	79.4188	1,568.85	77.6354	1,568.85	79.3454	1,568.85	73.2918	1,568.85	77.1866	1,568.85	77.0632	1,568.85	78.4256	1,568.85	78.0273	1,568.85	77.9477	1,568.85	74.5626	1,568.85	77.195	1,568.85	76.0989	1,568.85	77.4664
1,624.51	85.5071	1,624.51	86.7778	1,624.51	85.0359	1,624.51	86.4773	1,624.51	85.6757	1,624.51	86.0055	1,624.51	85.034	1,624.51	85.4446	1,624.51	86.562	1,624.51	83.8467	1,624.51	86.1178	1,624.51	84.1545	1,624.51	81.6695	1,624.51	84.5768	1,624.51	77.1106	1,624.51	81.6971	1,624.51	77.3283	1,624.51	78.485	1,624.51	77.801	1,624.51	72.2908	1,624.51	75.259	1,624.51	58.7227	1,624.51	75.2864	1,624.51	78.1124	1,624.51	77.6046	1,624.51	81.6705	1,624.51	76.0687	1,624.51	77.7094	1,624.51	70.7678	1,624.51	75.8738	1,624.51	76.004	1,624.51	76.1497	1,624.51	73.0609	1,624.51	76.4823	1,624.51	76.1342	1,624.51	78.0114
1,681.64	86.2397	1,681.64	87.1155	1,681.64	86.3735	1,681.64	87.172	1,681.64	86.3525	1,681.64	86.4174	1,681.64	86.8418	1,681.64	84.7693	1,681.64	88.0697	1,681.64	82.1735	1,681.64	85.057	1,681.64	83.6461	1,681.64	79.6437	1,681.64	84.1993	1,681.64	79.5632	1,681.64	79.0787	1,681.64	79.0586	1,681.64	73.558	1,681.64	76.9685	1,681.64	57.9601	1,681.64	77.9169	1,681.64	72.4928	1,681.64	78.2331	1,681.64	64.8039	1,681.64	78.3105	1,681.64	79.8171	1,681.64	74.1867	1,681.64	77.9368	1,681.64	75.3387	1,681.64	76.7916	1,681.64	75.8516	1,681.64	77.6329	1,681.64	68.7843	1,681.64	78.0049	1,681.64	75.7325	1,681.64	78.9155
1,741.7	88.6327	1,741.7	87.7349	1,741.7	87.697	1,741.7	87.2873	1,741.7	86.9003	1,741.7	87.3563	1,741.7	88.1432	1,741.7	84.8382	1,741.7	87.1768	1,741.7	82.2495	1,741.7	82.4447	1,741.7	83.09	1,741.7	83.7288	1,741.7	81.4759	1,741.7	83.3006	1,741.7	77.9044	1,741.7	80.1183	1,741.7	78.1695	1,741.7	75.2132	1,741.7	77.0772	1,741.7	74.7144	1,741.7	77.4001	1,741.7	67.7562	1,741.7	74.5621	1,741.7	74.8914	1,741.7	78.8137	1,741.7	78.6035	1,741.7	68.8886	1,741.7	80.3953	1,741.7	74.6134	1,741.7	78.9308	1,741.7	80.0342	1,741.7	67.7413	1,741.7	76.8453	1,741.7	69.564	1,741.7	73.2955
1,803.22	88.5173	1,803.22	89.2046	1,803.22	88.1137	1,803.22	88.5189	1,803.22	88.0518	1,803.22	85.9052	1,803.22	87.6897	1,803.22	84.9941	1,803.22	86.9512	1,803.22	84.4871	1,803.22	86.0749	1,803.22	81.7235	1,803.22	83.6615	1,803.22	81.5978	1,803.22	80.6357	1,803.22	79.6655	1,803.22	78.9029	1,803.22	74.9834	1,803.22	75.8556	1,803.22	76.1797	1,803.22	75.9447	1,803.22	78.5516	1,803.22	77.335	1,803.22	65.7675	1,803.22	74.1424	1,803.22	74.6002	1,803.22	74.1265	1,803.22	76.9051	1,803.22	79.3632	1,803.22	73.9119	1,803.22	80.0215	1,803.22	77.856	1,803.22	74.3892	1,803.22	75.7973	1,803.22	66.6432	1,803.22	73.9915
1,866.21	88.4033	1,866.21	89.3084	1,866.21	87.7503	1,866.21	88.6123	1,866.21	88.0776	1,866.21	86.3446	1,866.21	87.5731	1,866.21	85.3458	1,866.21	86.9398	1,866.21	84.6015	1,866.21	85.6679	1,866.21	82.1041	1,866.21	83.4644	1,866.21	80.006	1,866.21	79.979	1,866.21	75.2442	1,866.21	76.9514	1,866.21	75.308	1,866.21	72.8161	1,866.21	72.2116	1,866.21	72.0345	1,866.21	72.2707	1,866.21	76.8973	1,866.21	73.3351	1,866.21	75.2886	1,866.21	64.3707	1,866.21	70.8343	1,866.21	75.6481	1,866.21	78.5142	1,866.21	73.6263	1,866.21	80.4254	1,866.21	77.8504	1,866.21	75.8652	1,866.21	75.7742	1,866.21	54.3641	1,866.21	70.3056
1,932.13	87.9249	1,932.13	88.4077	1,932.13	87.1617	1,932.13	87.5661	1,932.13	87.217	1,932.13	86.7626	1,932.13	87.2821	1,932.13	86.0452	1,932.13	87.2738	1,932.13	83.7482	1,932.13	86.1005	1,932.13	80.9258	1,932.13	83.1227	1,932.13	79.6387	1,932.13	80.6903	1,932.13	73.5302	1,932.13	75.9591	1,932.13	71.3182	1,932.13	74.5754	1,932.13	76.5992	1,932.13	70.8898	1,932.13	71.3695	1,932.13	75.438	1,932.13	74.1395	1,932.13	75.6458	1,932.13	67.2516	1,932.13	67.0024	1,932.13	71.8995	1,932.13	74.5954	1,932.13	70.8391	1,932.13	78.5132	1,932.13	72.0765	1,932.13	76.7202	1,932.13	72.1396	1,932.13	66.4732	1,932.13	65.8435
1,999.51	87.8516	1,999.51	87.3411	1,999.51	87.4333	1,999.51	87.0249	1,999.51	86.4317	1,999.51	87.3693	1,999.51	86.3847	1,999.51	85.4456	1,999.51	86.8842	1,999.51	82.7272	1,999.51	84.7558	1,999.51	81.9928	1,999.51	81.725	1,999.51	77.6266	1,999.51	80.0721	1,999.51	73.7837	1,999.51	76.9156	1,999.51	72.7517	1,999.51	74.4417	1,999.51	69.1363	1,999.51	69.5985	1,999.51	73.214	1,999.51	70.572	1,999.51	73.1951	1,999.51	74.4954	1,999.51	66.2371	1,999.51	67.1132	1,999.51	69.8306	1,999.51	70.5694	1,999.51	72.8127	1,999.51	76.484	1,999.51	71.3622	1,999.51	76.5604	1,999.51	71.8305	1,999.51	67.33	1,999.51	67.8208
2,069.82	87.9282	2,069.82	86.7241	2,069.82	87.7955	2,069.82	86.2248	2,069.82	86.5513	2,069.82	86.4936	2,069.82	86.2876	2,069.82	84.5053	2,069.82	86.0285	2,069.82	81.5204	2,069.82	84.1409	2,069.82	79.0936	2,069.82	81.8332	2,069.82	76.392	2,069.82	79.4899	2,069.82	75.7171	2,069.82	76.1363	2,069.82	74.6541	2,069.82	74.6088	2,069.82	73.5376	2,069.82	71.3699	2,069.82	69.3152	2,069.82	61.4789	2,069.82	73.6376	2,069.82	73.2266	2,069.82	71.9198	2,069.82	72.3512	2,069.82	63.6256	2,069.82	55.7238	2,069.82	68.9505	2,069.82	74.9351	2,069.82	66.7054	2,069.82	78.1594	2,069.82	63.3816	2,069.82	72.3009	2,069.82	61.0039
2,143.07	88.2598	2,143.07	87.0852	2,143.07	88.6349	2,143.07	85.4832	2,143.07	87.3455	2,143.07	84.0928	2,143.07	85.1954	2,143.07	82.7034	2,143.07	84.2272	2,143.07	79.911	2,143.07	82.3547	2,143.07	77.9436	2,143.07	80.438	2,143.07	76.2198	2,143.07	77.7316	2,143.07	71.7724	2,143.07	76.5966	2,143.07	66.7582	2,143.07	77.6345	2,143.07	70.4907	2,143.07	74.8186	2,143.07	69.1958	2,143.07	68.434	2,143.07	68.2873	2,143.07	66.3992	2,143.07	72.7044	2,143.07	66.9955	2,143.07	67.5495	2,143.07	65.5027	2,143.07	71.778	2,143.07	68.9913	2,143.07	70.0165	2,143.07	74.4491	2,143.07	61.2828	2,143.07	71.1874	2,143.07	64.1399
2,219.24	87.7178	2,219.24	86.9274	2,219.24	88.1811	2,219.24	85.2066	2,219.24	87.3245	2,219.24	82.0886	2,219.24	85.6336	2,219.24	80.4573	2,219.24	83.4081	2,219.24	80.1358	2,219.24	80.4243	2,219.24	78.4706	2,219.24	79.3992	2,219.24	74.183	2,219.24	76.4729	2,219.24	73.1573	2,219.24	74.5075	2,219.24	72.176	2,219.24	75.294	2,219.24	69.1003	2,219.24	76.154	2,219.24	69.042	2,219.24	73.0542	2,219.24	67.408	2,219.24	65.2786	2,219.24	69.7126	2,219.24	69.2325	2,219.24	68.0206	2,219.24	63.9009	2,219.24	68.7859	2,219.24	69.4064	2,219.24	70.2535	2,219.24	72.9737	2,219.24	63.9476	2,219.24	67.9143	2,219.24	60.2738
2,296.88	86.6765	2,296.88	86.6057	2,296.88	87.0926	2,296.88	85.6491	2,296.88	86.7314	2,296.88	82.1558	2,296.88	84.7114	2,296.88	79.3549	2,296.88	81.1492	2,296.88	80.2189	2,296.88	78.4479	2,296.88	78.6073	2,296.88	77.7589	2,296.88	75.7216	2,296.88	72.7311	2,296.88	72.2355	2,296.88	65.9953	2,296.88	61.2163	2,296.88	73.7719	2,296.88	69.0763	2,296.88	75.1757	2,296.88	70.5242	2,296.88	73.6834	2,296.88	64.5456	2,296.88	68.8651	2,296.88	67.6952	2,296.88	72.2468	2,296.88	66.4825	2,296.88	62.0867	2,296.88	69.8501	2,296.88	68.5837	2,296.88	71.6691	2,296.88	71.3619	2,296.88	62.5509	2,296.88	66.4044	2,296.88	42.2359
2,378.91	86.3906	2,378.91	85.4207	2,378.91	86.1885	2,378.91	83.7809	2,378.91	85.0202	2,378.91	82.098	2,378.91	83.3666	2,378.91	79.6317	2,378.91	80.2502	2,378.91	77.2715	2,378.91	78.456	2,378.91	75.7415	2,378.91	78.6894	2,378.91	72.6871	2,378.91	75.9992	2,378.91	67.3747	2,378.91	71.5653	2,378.91	66.6073	2,378.91	67.5591	2,378.91	64.8272	2,378.91	70.2159	2,378.91	70.8277	2,378.91	70.3592	2,378.91	69.4591	2,378.91	69.2141	2,378.91	63.0867	2,378.91	72.8626	2,378.91	64.1142	2,378.91	68.8037	2,378.91	65.3568	2,378.91	65.4008	2,378.91	68.6908	2,378.91	71.5765	2,378.91	54.6747	2,378.91	69.8282	2,378.91	60.9901
2,462.4	87.6573	2,462.4	85.6414	2,462.4	86.6137	2,462.4	82.0429	2,462.4	83.3156	2,462.4	81.3186	2,462.4	79.2898	2,462.4	78.7537	2,462.4	76.0605	2,462.4	71.3782	2,462.4	76.5843	2,462.4	70.0257	2,462.4	77.7406	2,462.4	72.8332	2,462.4	77.5774	2,462.4	72.8042	2,462.4	74.4069	2,462.4	62.4882	2,462.4	71.9856	2,462.4	69.1814	2,462.4	72.5824	2,462.4	68.1248	2,462.4	72.6569	2,462.4	70.3523	2,462.4	55.8303	2,462.4	65.0282	2,462.4	75.1175	2,462.4	57.0208	2,462.4	73.2358	2,462.4	69.7555	2,462.4	69.6899	2,462.4	72.6838	2,462.4	74.5332	2,462.4	66.3772	2,462.4	72.5435	2,462.4	67.8652
2,548.83	88.3066	2,548.83	86.8844	2,548.83	87.438	2,548.83	83.0163	2,548.83	83.5788	2,548.83	77.9965	2,548.83	77.9868	2,548.83	75.9636	2,548.83	73.9234	2,548.83	72.5684	2,548.83	74.6283	2,548.83	70.6211	2,548.83	77.176	2,548.83	70.514	2,548.83	73.4538	2,548.83	71.7932	2,548.83	68.1764	2,548.83	71.6531	2,548.83	73.7073	2,548.83	59.4582	2,548.83	69.7593	2,548.83	67.4778	2,548.83	75.0271	2,548.83	72.5862	2,548.83	72.1145	2,548.83	72.3572	2,548.83	68.9861	2,548.83	71.8312	2,548.83	76.8431	2,548.83	70.9901	2,548.83	72.1774	2,548.83	72.4541	2,548.83	74.7426	2,548.83	74.6653	2,548.83	78.172	2,548.83	76.2258
2,639.65	87.8591	2,639.65	86.5328	2,639.65	87.4687	2,639.65	82.5274	2,639.65	84.552	2,639.65	72.7453	2,639.65	78.212	2,639.65	68.1516	2,639.65	73.7068	2,639.65	72.8325	2,639.65	75.7057	2,639.65	74.2571	2,639.65	77.1421	2,639.65	73.9932	2,639.65	76.0819	2,639.65	74.0445	2,639.65	73.3651	2,639.65	70.3979	2,639.65	74.3503	2,639.65	68.345	2,639.65	71.0232	2,639.65	61.5203	2,639.65	69.9791	2,639.65	70.1424	2,639.65	75.0236	2,639.65	72.9332	2,639.65	67.8491	2,639.65	73.4904	2,639.65	72.2879	2,639.65	69.1065	2,639.65	72.5526	2,639.65	68.9331	2,639.65	67.9119	2,639.65	74.2439	2,639.65	75.8804	2,639.65	75.1659
2,731.93	86.9249	2,731.93	84.6268	2,731.93	86.382	2,731.93	78.8187	2,731.93	83.2697	2,731.93	68.217	2,731.93	74.888	2,731.93	66.3651	2,731.93	74.007	2,731.93	73.61	2,731.93	78.8894	2,731.93	75.7226	2,731.93	77.9019	2,731.93	74.6291	2,731.93	76.0573	2,731.93	70.4242	2,731.93	70.2096	2,731.93	72.2772	2,731.93	70.8204	2,731.93	68.5236	2,731.93	70.8184	2,731.93	70.5199	2,731.93	66.3854	2,731.93	65.9561	2,731.93	71.5745	2,731.93	71.4397	2,731.93	71.5009	2,731.93	71.6388	2,731.93	60.2939	2,731.93	68.9508	2,731.93	65.1199	2,731.93	66.5104	2,731.93	55.4824	2,731.93	65.9512	2,731.93	68.5017	2,731.93	67.1451
2,828.61	86.6636	2,828.61	83.2311	2,828.61	85.5833	2,828.61	76.3545	2,828.61	81.1491	2,828.61	65.8739	2,828.61	62.8027	2,828.61	70.6206	2,828.61	76.4058	2,828.61	75.3615	2,828.61	80.5118	2,828.61	76.2669	2,828.61	79.2649	2,828.61	75.0199	2,828.61	77.3427	2,828.61	73.9498	2,828.61	73.4897	2,828.61	70.8796	2,828.61	67.513	2,828.61	71.2675	2,828.61	57.9254	2,828.61	71.0185	2,828.61	64.577	2,828.61	67.8561	2,828.61	71.5328	2,828.61	67.7591	2,828.61	69.0538	2,828.61	70.0543	2,828.61	67.2476	2,828.61	64.317	2,828.61	63.9116	2,828.61	63.8743	2,828.61	62.9747	2,828.61	57.1326	2,828.61	67.8629	2,828.61	66.7045
2,928.22	87.0596	2,928.22	83.9617	2,928.22	86.4513	2,928.22	78.1141	2,928.22	81.4744	2,928.22	71.2029	2,928.22	60.676	2,928.22	72.8352	2,928.22	76.5124	2,928.22	76.9344	2,928.22	80.4131	2,928.22	76.2604	2,928.22	79.5234	2,928.22	75.9283	2,928.22	78.5361	2,928.22	75.7155	2,928.22	69.7444	2,928.22	72.0399	2,928.22	68.7778	2,928.22	67.9017	2,928.22	63.8783	2,928.22	69.5049	2,928.22	68.5366	2,928.22	68.137	2,928.22	68.2233	2,928.22	63.1951	2,928.22	67.5833	2,928.22	70.7729	2,928.22	65.7681	2,928.22	68.3014	2,928.22	51.5382	2,928.22	68.3059	2,928.22	53.0716	2,928.22	57.5949	2,928.22	63.2571	2,928.22	61.3804
3,030.76	87.2174	3,030.76	84.0972	3,030.76	86.6448	3,030.76	79.5128	3,030.76	81.6789	3,030.76	74.7631	3,030.76	69.6671	3,030.76	75.9481	3,030.76	78.2804	3,030.76	79.0416	3,030.76	80.4704	3,030.76	77.7812	3,030.76	79.2601	3,030.76	77.52	3,030.76	78.487	3,030.76	74.6319	3,030.76	71.8071	3,030.76	70.4599	3,030.76	70.1123	3,030.76	66.0938	3,030.76	70.7958	3,030.76	69.8087	3,030.76	69.6382	3,030.76	72.267	3,030.76	68.4157	3,030.76	69.8506	3,030.76	63.9173	3,030.76	65.9003	3,030.76	68.2389	3,030.76	63.6959	3,030.76	70.1584	3,030.76	70.7248	3,030.76	68.6348	3,030.76	71.2164	3,030.76	72.8857	3,030.76	72.6442
3,137.7	86.847	3,137.7	83.8209	3,137.7	86.4159	3,137.7	81.1645	3,137.7	81.5482	3,137.7	78.4155	3,137.7	72.0763	3,137.7	78.6177	3,137.7	80.4866	3,137.7	79.234	3,137.7	81.8053	3,137.7	79.1467	3,137.7	78.6014	3,137.7	76.5591	3,137.7	77.5745	3,137.7	71.0479	3,137.7	70.8382	3,137.7	73.0243	3,137.7	69.366	3,137.7	70.6688	3,137.7	74.3723	3,137.7	67.446	3,137.7	67.2239	3,137.7	69.0103	3,137.7	65.1829	3,137.7	71.5156	3,137.7	71.2628	3,137.7	70.0816	3,137.7	53.2561	3,137.7	63.01	3,137.7	68.1449	3,137.7	63.7596	3,137.7	67.5518	3,137.7	67.3281	3,137.7	73.5791	3,137.7	72.798
3,249.02	86.0355	3,249.02	84.1119	3,249.02	86.7641	3,249.02	81.7064	3,249.02	82.5889	3,249.02	79.8981	3,249.02	74.6177	3,249.02	80.9182	3,249.02	80.4585	3,249.02	80.5211	3,249.02	81.6459	3,249.02	77.8922	3,249.02	78.7421	3,249.02	75.0644	3,249.02	78.5869	3,249.02	75.8236	3,249.02	77.0675	3,249.02	72.8416	3,249.02	69.5086	3,249.02	67.8929	3,249.02	72.5602	3,249.02	67.2053	3,249.02	68.9792	3,249.02	68.0925	3,249.02	63.9564	3,249.02	69.7049	3,249.02	70.6966	3,249.02	69.3906	3,249.02	62.5324	3,249.02	69.5569	3,249.02	62.2653	3,249.02	63.2044	3,249.02	64.1812	3,249.02	57.9917	3,249.02	70.6975	3,249.02	68.7301
3,363.28	85.6693	3,363.28	84.3273	3,363.28	86.1504	3,363.28	81.5001	3,363.28	83.0126	3,363.28	81.0726	3,363.28	78.6393	3,363.28	81.453	3,363.28	80.3011	3,363.28	80.3376	3,363.28	81.131	3,363.28	78.3932	3,363.28	80.8715	3,363.28	77.6561	3,363.28	80.4293	3,363.28	72.9405	3,363.28	79.2752	3,363.28	67.5579	3,363.28	71.2467	3,363.28	70.0721	3,363.28	66.1608	3,363.28	69.2112	3,363.28	62.261	3,363.28	69.4143	3,363.28	66.2115	3,363.28	71.132	3,363.28	68.8392	3,363.28	68.4555	3,363.28	65.3192	3,363.28	67.9521	3,363.28	62.0471	3,363.28	64.968	3,363.28	67.9985	3,363.28	62.6182	3,363.28	69.0778	3,363.28	65.6398
3,481.93	86.1556	3,481.93	85.8765	3,481.93	86.4477	3,481.93	83.236	3,481.93	83.9104	3,481.93	81.6902	3,481.93	78.4947	3,481.93	82.4506	3,481.93	80.6748	3,481.93	81.4056	3,481.93	79.689	3,481.93	78.8185	3,481.93	82.079	3,481.93	77.2778	3,481.93	80.1545	3,481.93	73.6613	3,481.93	79.4838	3,481.93	74.6673	3,481.93	70.3976	3,481.93	69.9154	3,481.93	57.5317	3,481.93	69.2823	3,481.93	63.7615	3,481.93	66.9117	3,481.93	65.4198	3,481.93	71.7947	3,481.93	67.2118	3,481.93	68.9711	3,481.93	66.388	3,481.93	68.0039	3,481.93	61.7605	3,481.93	62.3904	3,481.93	68.405	3,481.93	68.1628	3,481.93	70.1111	3,481.93	68.7472
3,604.98	86.0915	3,604.98	86.0804	3,604.98	86.0283	3,604.98	83.9569	3,604.98	84.7685	3,604.98	83.7213	3,604.98	79.8703	3,604.98	82.5875	3,604.98	80.4035	3,604.98	80.8391	3,604.98	80.3376	3,604.98	79.5668	3,604.98	82.6436	3,604.98	75.9799	3,604.98	80.5767	3,604.98	76.888	3,604.98	77.7155	3,604.98	71.2344	3,604.98	65.6102	3,604.98	69.9552	3,604.98	64.0411	3,604.98	69.1892	3,604.98	66.7683	3,604.98	67.9935	3,604.98	63.1503	3,604.98	70.9886	3,604.98	69.3813	3,604.98	70.1209	3,604.98	66.0271	3,604.98	69.1035	3,604.98	62.6601	3,604.98	59.6337	3,604.98	68.6842	3,604.98	68.5395	3,604.98	70.2991	3,604.98	69.8467
3,732.42	86.2567	3,732.42	85.8116	3,732.42	85.613	3,732.42	83.3033	3,732.42	83.7491	3,732.42	83.7955	3,732.42	80.8642	3,732.42	83.1248	3,732.42	79.5358	3,732.42	81.1734	3,732.42	81.3187	3,732.42	79.1954	3,732.42	82.6085	3,732.42	77.2979	3,732.42	79.6811	3,732.42	73.8171	3,732.42	74.058	3,732.42	69.5821	3,732.42	62.647	3,732.42	69.9613	3,732.42	55.0408	3,732.42	66.7084	3,732.42	64.7745	3,732.42	69.2759	3,732.42	64.4085	3,732.42	68.8149	3,732.42	68.4547	3,732.42	70.3176	3,732.42	64.2983	3,732.42	68.2113	3,732.42	61.603	3,732.42	61.6592	3,732.42	65.972	3,732.42	66.5886	3,732.42	70.6417	3,732.42	68.5418
3,864.26	86.4305	3,864.26	85.6399	3,864.26	86.1899	3,864.26	84.2373	3,864.26	84.4796	3,864.26	83.8063	3,864.26	79.884	3,864.26	83.2721	3,864.26	78.6742	3,864.26	80.6648	3,864.26	80.3538	3,864.26	79.3355	3,864.26	80.8971	3,864.26	75.2581	3,864.26	77.8703	3,864.26	73.8543	3,864.26	73.1201	3,864.26	70.8848	3,864.26	69.1446	3,864.26	68.6578	3,864.26	58.4608	3,864.26	67.6508	3,864.26	61.0248	3,864.26	68.7082	3,864.26	65.0028	3,864.26	67.4194	3,864.26	64.6833	3,864.26	70.1061	3,864.26	66.818	3,864.26	66.4083	3,864.26	60.2478	3,864.26	60.0232	3,864.26	68.3052	3,864.26	61.4021	3,864.26	71.7035	3,864.26	68.868
4,000.49	85.6821	4,000.49	84.5386	4,000.49	84.467	4,000.49	84.7513	4,000.49	85.0991	4,000.49	83.2772	4,000.49	80.255	4,000.49	82.2142	4,000.49	78.0784	4,000.49	80.8785	4,000.49	81.169	4,000.49	78.3117	4,000.49	80.9071	4,000.49	75.842	4,000.49	78.1372	4,000.49	74.8626	4,000.49	73.0322	4,000.49	68.8768	4,000.49	69.9375	4,000.49	68.0006	4,000.49	65.5334	4,000.49	67.6837	4,000.49	54.7876	4,000.49	68.7545	4,000.49	62.8672	4,000.49	66.8408	4,000.49	64.9617	4,000.49	68.6577	4,000.49	66.7607	4,000.49	66.6185	4,000.49	56.7197	4,000.49	62.8927	4,000.49	68.4517	4,000.49	60.2909	4,000.49	68.5504	4,000.49	66.4518
4,141.11	85.7214	4,141.11	85.4267	4,141.11	83.5518	4,141.11	84.5582	4,141.11	84.236	4,141.11	82.8999	4,141.11	81.1884	4,141.11	83.0845	4,141.11	76.1191	4,141.11	80.9381	4,141.11	80.9693	4,141.11	76.8747	4,141.11	80.3696	4,141.11	75.8374	4,141.11	75.032	4,141.11	71.319	4,141.11	72.641	4,141.11	71.3544	4,141.11	76.4132	4,141.11	67.4396	4,141.11	68.3272	4,141.11	66.3577	4,141.11	59.7027	4,141.11	65.9355	4,141.11	66.0112	4,141.11	68.5112	4,141.11	56.6732	4,141.11	68.7644	4,141.11	64.0081	4,141.11	65.2524	4,141.11	60.2783	4,141.11	61.9547	4,141.11	67.0723	4,141.11	61.5905	4,141.11	67.4644	4,141.11	65.2556
4,287.6	85.5772	4,287.6	85.1656	4,287.6	84.568	4,287.6	83.4625	4,287.6	83.3853	4,287.6	83.0321	4,287.6	81.3562	4,287.6	82.7528	4,287.6	77.3096	4,287.6	78.5309	4,287.6	81.161	4,287.6	78.8277	4,287.6	78.5809	4,287.6	73.4465	4,287.6	74.2496	4,287.6	75.4474	4,287.6	76.2059	4,287.6	67.17	4,287.6	76.4466	4,287.6	65.1867	4,287.6	62.7761	4,287.6	68.2797	4,287.6	64.6347	4,287.6	65.8377	4,287.6	65.0453	4,287.6	68.9999	4,287.6	60.6022	4,287.6	66.0854	4,287.6	67.1654	4,287.6	65.3491	4,287.6	59.3106	4,287.6	62.2142	4,287.6	65.8326	4,287.6	60.2618	4,287.6	67.5473	4,287.6	67.3514
4,438.48	85.9702	4,438.48	84.9814	4,438.48	84.0524	4,438.48	84.2587	4,438.48	83.8858	4,438.48	84.0786	4,438.48	82.1152	4,438.48	81.2775	4,438.48	77.3736	4,438.48	80.3664	4,438.48	80.2682	4,438.48	74.4559	4,438.48	75.299	4,438.48	76.3633	4,438.48	76.9315	4,438.48	65.8436	4,438.48	78.2941	4,438.48	70.7884	4,438.48	73.4824	4,438.48	67.3956	4,438.48	60.9706	4,438.48	62.3478	4,438.48	66.4494	4,438.48	66.8739	4,438.48	61.6021	4,438.48	65.9052	4,438.48	63.7468	4,438.48	66.2413	4,438.48	68.2197	4,438.48	65.8422	4,438.48	61.1008	4,438.48	62.5199	4,438.48	67.4323	4,438.48	56.161	4,438.48	67.6566	4,438.48	65.8589
4,595.21	85.2641	4,595.21	84.9752	4,595.21	83.8166	4,595.21	82.9031	4,595.21	82.8334	4,595.21	83.1332	4,595.21	82.8091	4,595.21	81.6685	4,595.21	78.696	4,595.21	78.647	4,595.21	77.7737	4,595.21	76.4489	4,595.21	74.6791	4,595.21	69.66	4,595.21	79.6	4,595.21	74.2924	4,595.21	78.3795	4,595.21	64.0579	4,595.21	73.0851	4,595.21	64.3522	4,595.21	66.899	4,595.21	63.3441	4,595.21	63.8753	4,595.21	66.3266	4,595.21	37.5211	4,595.21	65.1134	4,595.21	59.3632	4,595.21	67.1435	4,595.21	69.0095	4,595.21	63.2743	4,595.21	58.9301	4,595.21	39.2853	4,595.21	66.4114	4,595.21	48.9887	4,595.21	66.847	4,595.21	66.0513
4,756.35	84.9935	4,756.35	84.4301	4,756.35	83.7366	4,756.35	84.2892	4,756.35	82.7953	4,756.35	83.4106	4,756.35	82.6745	4,756.35	80.3756	4,756.35	79.1185	4,756.35	77.8053	4,756.35	74.9199	4,756.35	73.9124	4,756.35	79.5769	4,756.35	74.2803	4,756.35	80.7805	4,756.35	70.3799	4,756.35	76.2004	4,756.35	69.1691	4,756.35	73.6569	4,756.35	66.8214	4,756.35	67.2254	4,756.35	65.8046	4,756.35	62.0127	4,756.35	66.843	4,756.35	52.6789	4,756.35	66.3691	4,756.35	56.8022	4,756.35	68.4523	4,756.35	65.1572	4,756.35	64.9127	4,756.35	54.0763	4,756.35	61.5957	4,756.35	66.2664	4,756.35	58.1816	4,756.35	66.3495	4,756.35	67.3318
4,924.8	86.2122	4,924.8	85.0456	4,924.8	84.4523	4,924.8	84.7956	4,924.8	82.0335	4,924.8	83.073	4,924.8	83.0597	4,924.8	81.4068	4,924.8	78.3959	4,924.8	76.9085	4,924.8	72.6766	4,924.8	75.6026	4,924.8	81.6886	4,924.8	71.269	4,924.8	79.8021	4,924.8	73.5248	4,924.8	74.6654	4,924.8	68.8018	4,924.8	72.8839	4,924.8	65.7665	4,924.8	59.3428	4,924.8	63.3417	4,924.8	48.4592	4,924.8	66.6286	4,924.8	37.5731	4,924.8	66.4911	4,924.8	56.9724	4,924.8	67.5389	4,924.8	63.2472	4,924.8	63.8198	4,924.8	55.8615	4,924.8	47.1463	4,924.8	65.9312	4,924.8	59.7556	4,924.8	63.6246	4,924.8	63.5711
5,097.66	85.7914	5,097.66	85.6267	5,097.66	85.4724	5,097.66	85.0592	5,097.66	82.1116	5,097.66	82.3167	5,097.66	83.1898	5,097.66	80.8779	5,097.66	77.5305	5,097.66	76.5832	5,097.66	73.2293	5,097.66	76.1089	5,097.66	81.598	5,097.66	74.0641	5,097.66	78.2727	5,097.66	71.6948	5,097.66	75.8561	5,097.66	67.9422	5,097.66	72.0145	5,097.66	62.2004	5,097.66	62.5598	5,097.66	64.3319	5,097.66	58.6224	5,097.66	65.9896	5,097.66	55.7167	5,097.66	67.3913	5,097.66	63.0767	5,097.66	67.2371	5,097.66	65.2604	5,097.66	66.0155	5,097.66	51.6063	5,097.66	64.1627	5,097.66	68.3003	5,097.66	57.3064	5,097.66	66.7879	5,097.66	65.4501
5,277.83	85.3671	5,277.83	84.9838	5,277.83	84.9499	5,277.83	84.1807	5,277.83	83.397	5,277.83	83.0877	5,277.83	83.9094	5,277.83	80.5151	5,277.83	78.8879	5,277.83	77.9361	5,277.83	74.5608	5,277.83	75.7684	5,277.83	81.2955	5,277.83	72.656	5,277.83	75.2323	5,277.83	72.6924	5,277.83	75.5883	5,277.83	69.7124	5,277.83	70.3357	5,277.83	66.4509	5,277.83	66.8934	5,277.83	62.9014	5,277.83	58.2171	5,277.83	65.9208	5,277.83	53.4798	5,277.83	66.2772	5,277.83	52.0911	5,277.83	67.1948	5,277.83	66.1692	5,277.83	62.7972	5,277.83	58.8682	5,277.83	60.6551	5,277.83	66.7537	5,277.83	53.3872	5,277.83	64.6677	5,277.83	60.3
5,463.87	85.618	5,463.87	86.2911	5,463.87	85.7632	5,463.87	84.6743	5,463.87	82.8962	5,463.87	82.7156	5,463.87	82.9827	5,463.87	80.9132	5,463.87	79.5582	5,463.87	78.2894	5,463.87	77.0284	5,463.87	74.4129	5,463.87	77.8719	5,463.87	74.2112	5,463.87	75.2603	5,463.87	68.9545	5,463.87	75.8101	5,463.87	69.5092	5,463.87	74.7204	5,463.87	62.8634	5,463.87	69.6134	5,463.87	64.0725	5,463.87	57.9474	5,463.87	65.795	5,463.87	57.3154	5,463.87	66.6909	5,463.87	60.4775	5,463.87	67.3128	5,463.87	62.9331	5,463.87	66.5778	5,463.87	63.2839	5,463.87	60.2778	5,463.87	62.9315	5,463.87	53.4724	5,463.87	65.9901	5,463.87	61.2468
5,657.23	85.7126	5,657.23	85.7063	5,657.23	86.0796	5,657.23	84.519	5,657.23	80.7589	5,657.23	83.0949	5,657.23	81.3134	5,657.23	81.5964	5,657.23	82.3642	5,657.23	77.8641	5,657.23	75.6112	5,657.23	75.3321	5,657.23	76.0579	5,657.23	73.5272	5,657.23	76.6905	5,657.23	72.6911	5,657.23	75.109	5,657.23	69.3269	5,657.23	74.3663	5,657.23	65.4556	5,657.23	68.7393	5,657.23	63.3198	5,657.23	53.7694	5,657.23	64.771	5,657.23	53.9963	5,657.23	67.1476	5,657.23	64.3978	5,657.23	67.9844	5,657.23	63.4971	5,657.23	65.3898	5,657.23	62.9666	5,657.23	60.7398	5,657.23	64.6766	5,657.23	41.2983	5,657.23	67.3465	5,657.23	59.3005
5,856.45	85.3983	5,856.45	85.8557	5,856.45	85.5199	5,856.45	84.4034	5,856.45	81.9274	5,856.45	82.7159	5,856.45	80.6803	5,856.45	81.0847	5,856.45	82.5967	5,856.45	78.2029	5,856.45	74.5871	5,856.45	75.8794	5,856.45	76.5369	5,856.45	74.6277	5,856.45	77.271	5,856.45	70.5477	5,856.45	74.7156	5,856.45	70.8746	5,856.45	73.8683	5,856.45	64.8608	5,856.45	64.8152	5,856.45	62.2919	5,856.45	51.9907	5,856.45	66.3387	5,856.45	53.5275	5,856.45	66.6548	5,856.45	64.582	5,856.45	67.5402	5,856.45	63.6202	5,856.45	66.0379	5,856.45	59.1874	5,856.45	62.6973	5,856.45	67.0767	5,856.45	56.2741	5,856.45	66.3391	5,856.45	63.4674
6,062.99	85.9245	6,062.99	85.8446	6,062.99	85.0922	6,062.99	85.1913	6,062.99	84.1041	6,062.99	82.9548	6,062.99	79.9485	6,062.99	81.453	6,062.99	82.4184	6,062.99	78.3642	6,062.99	74.0271	6,062.99	77.0222	6,062.99	76.8115	6,062.99	75.309	6,062.99	78.2976	6,062.99	72.5024	6,062.99	75.7623	6,062.99	68.734	6,062.99	73.6298	6,062.99	65.3627	6,062.99	66.0069	6,062.99	63.1092	6,062.99	61.6093	6,062.99	66.2123	6,062.99	57.7194	6,062.99	66.8197	6,062.99	65.0124	6,062.99	68.4161	6,062.99	62.7037	6,062.99	66.8895	6,062.99	60.7405	6,062.99	62.4039	6,062.99	63.9216	6,062.99	55.0039	6,062.99	63.9912	6,062.99	63.4834
6,276.86	85.4176	6,276.86	85.9772	6,276.86	85.9131	6,276.86	84.1861	6,276.86	84.8725	6,276.86	82.6967	6,276.86	81.1647	6,276.86	80.9388	6,276.86	82.7856	6,276.86	78.8175	6,276.86	72.5693	6,276.86	76.3044	6,276.86	75.8729	6,276.86	74.7136	6,276.86	78.5624	6,276.86	72.0775	6,276.86	76.6119	6,276.86	70.4521	6,276.86	72.9604	6,276.86	61.9634	6,276.86	71.1311	6,276.86	63.4272	6,276.86	61.379	6,276.86	64.3376	6,276.86	61.1686	6,276.86	67.1651	6,276.86	60.2745	6,276.86	67.2068	6,276.86	62.1402	6,276.86	67.2185	6,276.86	62.7998	6,276.86	62.174	6,276.86	60.9077	6,276.86	57.1204	6,276.86	63.2201	6,276.86	61.5334
6,498.05	85.3076	6,498.05	85.2398	6,498.05	84.4945	6,498.05	83.7897	6,498.05	84.61	6,498.05	82.4378	6,498.05	81.7528	6,498.05	81.1055	6,498.05	81.9663	6,498.05	78.9935	6,498.05	74.8065	6,498.05	75.6665	6,498.05	72.6742	6,498.05	74.8723	6,498.05	77.7843	6,498.05	69.5999	6,498.05	75.2986	6,498.05	68.7043	6,498.05	67.6074	6,498.05	62.8872	6,498.05	72.8039	6,498.05	61.2925	6,498.05	57.942	6,498.05	63.3371	6,498.05	59.4356	6,498.05	65.1984	6,498.05	63.7476	6,498.05	65.145	6,498.05	57.211	6,498.05	64.9085	6,498.05	63.1059	6,498.05	60.4474	6,498.05	63.6689	6,498.05	50.5399	6,498.05	64.1686	6,498.05	56.5444
6,726.56	86.1151	6,726.56	85.6038	6,726.56	83.8281	6,726.56	83.811	6,726.56	83.3885	6,726.56	82.5102	6,726.56	81.6825	6,726.56	80.9495	6,726.56	81.276	6,726.56	78.9478	6,726.56	76.0092	6,726.56	75.6027	6,726.56	74.0815	6,726.56	73.6907	6,726.56	75.432	6,726.56	70.8399	6,726.56	69.9541	6,726.56	67.1654	6,726.56	69.9642	6,726.56	62.8769	6,726.56	67.3446	6,726.56	60.6155	6,726.56	51.0131	6,726.56	62.5352	6,726.56	45.2787	6,726.56	65.1142	6,726.56	62.1742	6,726.56	65.7274	6,726.56	56.724	6,726.56	64.5944	6,726.56	60.931	6,726.56	62.3101	6,726.56	63.5688	6,726.56	51.6564	6,726.56	64.4182	6,726.56	58.6962
6,963.87	85.7393	6,963.87	84.2675	6,963.87	84.9275	6,963.87	84.0031	6,963.87	84.237	6,963.87	82.8769	6,963.87	79.8118	6,963.87	80.9658	6,963.87	81.1527	6,963.87	79.1294	6,963.87	77.9522	6,963.87	76.4991	6,963.87	73.9688	6,963.87	74.0892	6,963.87	73.5097	6,963.87	71.5113	6,963.87	67.0449	6,963.87	69.3917	6,963.87	70.5425	6,963.87	63.2732	6,963.87	60.5729	6,963.87	60.4652	6,963.87	58.5074	6,963.87	62.0509	6,963.87	57.9459	6,963.87	66.3426	6,963.87	60.5419	6,963.87	66.8446	6,963.87	45.4255	6,963.87	63.2918	6,963.87	61.8438	6,963.87	62.7759	6,963.87	60.1609	6,963.87	55.1833	6,963.87	63.8324	6,963.87	54.1271
7,209.96	85.7037	7,209.96	85.061	7,209.96	84.8886	7,209.96	84.0807	7,209.96	84.8172	7,209.96	82.4615	7,209.96	77.9717	7,209.96	80.8758	7,209.96	81.8673	7,209.96	79.924	7,209.96	78.705	7,209.96	75.8962	7,209.96	72.9103	7,209.96	74.1602	7,209.96	71.5063	7,209.96	69.1942	7,209.96	72.0723	7,209.96	66.3267	7,209.96	70.3221	7,209.96	59.7661	7,209.96	65.5228	7,209.96	60.5264	7,209.96	61.7718	7,209.96	62.2408	7,209.96	57.904	7,209.96	63.8095	7,209.96	59.9863	7,209.96	66.3054	7,209.96	39.8117	7,209.96	63.3868	7,209.96	59.6665	7,209.96	61.8262	7,209.96	59.7825	7,209.96	54.5342	7,209.96	63.0484	7,209.96	57.9633
7,464.84	85.8564	7,464.84	85.2268	7,464.84	84.5562	7,464.84	83.7576	7,464.84	84.3878	7,464.84	82.5634	7,464.84	81.7066	7,464.84	81.8961	7,464.84	81.3986	7,464.84	79.0324	7,464.84	79.5583	7,464.84	76.4497	7,464.84	68.7457	7,464.84	72.7196	7,464.84	75.1723	7,464.84	68.8205	7,464.84	73.9367	7,464.84	65.6227	7,464.84	73.7191	7,464.84	59.6776	7,464.84	70.8649	7,464.84	58.7984	7,464.84	62.8209	7,464.84	60.4404	7,464.84	57.1858	7,464.84	62.6345	7,464.84	52.7896	7,464.84	65.5252	7,464.84	53.3068	7,464.84	64.8445	7,464.84	62.4461	7,464.84	59.6834	7,464.84	63.3216	7,464.84	56.6935	7,464.84	60.4979	7,464.84	55.1935
7,727.05	86.1186	7,727.05	84.7286	7,727.05	84.6924	7,727.05	83.2833	7,727.05	84.8861	7,727.05	83.3075	7,727.05	83.9163	7,727.05	82.0612	7,727.05	80.7807	7,727.05	78.894	7,727.05	80.5448	7,727.05	76.0335	7,727.05	57.4351	7,727.05	71.9856	7,727.05	78.2517	7,727.05	69.8623	7,727.05	71.878	7,727.05	67.2715	7,727.05	75.2373	7,727.05	58.3908	7,727.05	68.6052	7,727.05	61.7907	7,727.05	62.3386	7,727.05	61.1477	7,727.05	55.7548	7,727.05	64.3959	7,727.05	51.2458	7,727.05	65.7141	7,727.05	53.1928	7,727.05	65.3551	7,727.05	62.3218	7,727.05	57.351	7,727.05	53.5192	7,727.05	60.9454	7,727.05	62.3427	7,727.05	51.7212
7,999.51	86.5115	7,999.51	85.2422	7,999.51	85.8103	7,999.51	83.3662	7,999.51	84.9865	7,999.51	84.4593	7,999.51	84.8277	7,999.51	81.6217	7,999.51	79.5946	7,999.51	79.3179	7,999.51	81.4336	7,999.51	76.5859	7,999.51	72.2454	7,999.51	73.4388	7,999.51	78.1974	7,999.51	69.7197	7,999.51	68.1527	7,999.51	67.8453	7,999.51	72.2851	7,999.51	61.2268	7,999.51	66.8572	7,999.51	60.7129	7,999.51	65.5826	7,999.51	60.4235	7,999.51	41.6944	7,999.51	63.8353	7,999.51	42.6185	7,999.51	66.211	7,999.51	56.8479	7,999.51	64.9391	7,999.51	61.6676	7,999.51	61.0401	7,999.51	56.631	7,999.51	60.4826	7,999.51	62.4908	7,999.51	57.2913
8,282.23	85.4951	8,282.23	84.531	8,282.23	84.9103	8,282.23	83.8812	8,282.23	85.0965	8,282.23	83.6166	8,282.23	82.9174	8,282.23	81.676	8,282.23	79.248	8,282.23	79.6018	8,282.23	80.3864	8,282.23	75.9927	8,282.23	73.9316	8,282.23	72.8327	8,282.23	73.7471	8,282.23	69.068	8,282.23	72.8469	8,282.23	65.6765	8,282.23	69.1472	8,282.23	59.8306	8,282.23	69.8505	8,282.23	55.8306	8,282.23	63.6948	8,282.23	59.0646	8,282.23	40.4134	8,282.23	64.2852	8,282.23	54.3821	8,282.23	65.4247	8,282.23	55.1489	8,282.23	64.4114	8,282.23	54.7897	8,282.23	60.2538	8,282.23	61.5394	8,282.23	56.3278	8,282.23	61.2576	8,282.23	53.0038
8,573.73	85.9926	8,573.73	85.1039	8,573.73	84.9634	8,573.73	83.5569	8,573.73	83.4166	8,573.73	83.6273	8,573.73	81.5331	8,573.73	82.9346	8,573.73	81.3921	8,573.73	78.5125	8,573.73	78.9084	8,573.73	75.7897	8,573.73	73.9536	8,573.73	71.8923	8,573.73	69.1938	8,573.73	68.1719	8,573.73	74.6672	8,573.73	68.1663	8,573.73	72.7271	8,573.73	59.4574	8,573.73	69.8857	8,573.73	57.8218	8,573.73	63.6612	8,573.73	58.1021	8,573.73	50.6185	8,573.73	64.8702	8,573.73	58.9562	8,573.73	65.5602	8,573.73	52.6541	8,573.73	63.3621	8,573.73	58.6687	8,573.73	61.4582	8,573.73	55.2706	8,573.73	61.0485	8,573.73	59.5919	8,573.73	47.1982
8,876.95	85.0928	8,876.95	84.4112	8,876.95	85.1605	8,876.95	83.3622	8,876.95	85.1624	8,876.95	84.3329	8,876.95	82.6314	8,876.95	82.8999	8,876.95	82.1691	8,876.95	78.3303	8,876.95	78.5637	8,876.95	76.5372	8,876.95	75.1244	8,876.95	73.5193	8,876.95	69.5629	8,876.95	69.7327	8,876.95	73.5433	8,876.95	67.6846	8,876.95	71.6618	8,876.95	60.7643	8,876.95	68.7319	8,876.95	59.138	8,876.95	62.4935	8,876.95	59.1261	8,876.95	53.1811	8,876.95	65.8777	8,876.95	59.6026	8,876.95	65.6556	8,876.95	51.704	8,876.95	63.2093	8,876.95	56.6958	8,876.95	63.0938	8,876.95	57.7564	8,876.95	62.2738	8,876.95	60.1775	8,876.95	36.0966
9,188.96	85.4925	9,188.96	84.0583	9,188.96	85.5143	9,188.96	83.9644	9,188.96	85.8926	9,188.96	84.4583	9,188.96	85.0818	9,188.96	82.0507	9,188.96	80.8907	9,188.96	79.4297	9,188.96	81.3161	9,188.96	75.9197	9,188.96	74.0706	9,188.96	72.6464	9,188.96	69.9047	9,188.96	68.8854	9,188.96	73.0027	9,188.96	64.854	9,188.96	70.1585	9,188.96	62.6813	9,188.96	70.6128	9,188.96	57.8441	9,188.96	65.0036	9,188.96	57.9462	9,188.96	49.2519	9,188.96	61.7939	9,188.96	55.1311	9,188.96	63.9752	9,188.96	56.6449	9,188.96	63.3763	9,188.96	57.3289	9,188.96	62.0552	9,188.96	51.232	9,188.96	57.5462	9,188.96	59.8591	9,188.96	43.938
9,514.16	84.7446	9,514.16	84.3108	9,514.16	85.2062	9,514.16	84.4384	9,514.16	85.07	9,514.16	84.1777	9,514.16	84.944	9,514.16	82.9228	9,514.16	80.9047	9,514.16	79.1503	9,514.16	81.4251	9,514.16	75.6866	9,514.16	74.6276	9,514.16	72.197	9,514.16	66.8161	9,514.16	68.5455	9,514.16	72.4693	9,514.16	63.8507	9,514.16	68.1289	9,514.16	63.1405	9,514.16	71.3627	9,514.16	57.2905	9,514.16	65.5466	9,514.16	58.5236	9,514.16	52.4117	9,514.16	63.8896	9,514.16	49.3175	9,514.16	63.9573	9,514.16	55.8208	9,514.16	62.0826	9,514.16	57.944	9,514.16	62.4405	9,514.16	41.1232	9,514.16	60.5702	9,514.16	60.5486	9,514.16	35.1399
9,849.61	84.9289	9,849.61	84.9774	9,849.61	85.7828	9,849.61	83.864	9,849.61	85.3647	9,849.61	84.7605	9,849.61	83.0337	9,849.61	83.2552	9,849.61	81.1015	9,849.61	78.707	9,849.61	77.5072	9,849.61	76.7323	9,849.61	76.0941	9,849.61	72.724	9,849.61	58.8412	9,849.61	70.0986	9,849.61	73.1515	9,849.61	65.6879	9,849.61	64.1622	9,849.61	62.5526	9,849.61	70.7892	9,849.61	51.0614	9,849.61	64.4786	9,849.61	54.0258	9,849.61	54.5998	9,849.61	64.6112	9,849.61	48.1335	9,849.61	64.6836	9,849.61	55.4126	9,849.61	64.0405	9,849.61	51.1514	9,849.61	62.0119	9,849.61	51.1636	9,849.61	60.6961	9,849.61	59.3	9,849.61	43.3581
10,196.8	84.7853	10,196.8	84.8256	10,196.8	86.0803	10,196.8	84.382	10,196.8	85.6298	10,196.8	84.8826	10,196.8	82.9185	10,196.8	82.6491	10,196.8	81.338	10,196.8	79.7912	10,196.8	77.4045	10,196.8	75.8289	10,196.8	76.7748	10,196.8	72.8574	10,196.8	66.4054	10,196.8	69.4042	10,196.8	72.9956	10,196.8	64.8937	10,196.8	62.9185	10,196.8	62.0024	10,196.8	68.9717	10,196.8	53.1801	10,196.8	62.6868	10,196.8	58.5684	10,196.8	56.8042	10,196.8	63.5683	10,196.8	51.9052	10,196.8	64.0131	10,196.8	51.0895	10,196.8	61.2307	10,196.8	54.2506	10,196.8	61.4701	10,196.8	50.5468	10,196.8	60.6613	10,196.8	57.1959	10,196.8	39.9224
10,555.7	85.2919	10,555.7	84.6316	10,555.7	85.7798	10,555.7	84.9959	10,555.7	85.2475	10,555.7	84.5527	10,555.7	83.9118	10,555.7	83.1312	10,555.7	80.2261	10,555.7	79.51	10,555.7	79.024	10,555.7	75.5942	10,555.7	74.2658	10,555.7	71.4497	10,555.7	67.0679	10,555.7	69.0879	10,555.7	72.6516	10,555.7	62.9114	10,555.7	64.6038	10,555.7	62.2849	10,555.7	70.4778	10,555.7	50.4533	10,555.7	64.4504	10,555.7	58.3158	10,555.7	58.2832	10,555.7	63.631	10,555.7	53.6246	10,555.7	62.9331	10,555.7	50.7631	10,555.7	61.8662	10,555.7	55.1726	10,555.7	61.5012	10,555.7	54.6501	10,555.7	61.3977	10,555.7	58.0982	10,555.7	49.4662
10,927.7	84.848	10,927.7	84.9033	10,927.7	85.8252	10,927.7	84.5197	10,927.7	85.9715	10,927.7	84.5728	10,927.7	84.5364	10,927.7	83.2617	10,927.7	80.5324	10,927.7	78.6367	10,927.7	79.0933	10,927.7	76.0673	10,927.7	72.8156	10,927.7	71.2375	10,927.7	70.5437	10,927.7	68.816	10,927.7	69.3603	10,927.7	62.7145	10,927.7	59.1371	10,927.7	61.7214	10,927.7	69.1362	10,927.7	44.7067	10,927.7	63.505	10,927.7	55.9286	10,927.7	48.2759	10,927.7	61.6775	10,927.7	47.3059	10,927.7	62.958	10,927.7	56.2321	10,927.7	62.6783	10,927.7	53.9533	10,927.7	61.6512	10,927.7	51.5291	10,927.7	58.9211	10,927.7	55.2042	10,927.7	39.1808
11,313	84.8121	11,313	84.5414	11,313	85.1585	11,313	84.2734	11,313	85.0703	11,313	84.4275	11,313	84.5311	11,313	81.9346	11,313	80.3571	11,313	79.0746	11,313	77.693	11,313	74.512	11,313	71.2623	11,313	70.5835	11,313	70.6633	11,313	68.6791	11,313	63.7117	11,313	62.2433	11,313	57.4595	11,313	58.645	11,313	68.7566	11,313	39.7961	11,313	64.9183	11,313	57.2454	11,313	55.599	11,313	59.6633	11,313	49.787	11,313	61.2255	11,313	51.8182	11,313	61.21	11,313	52.753	11,313	60.033	11,313	54.425	11,313	57.4876	11,313	56.6156	11,313	44.9897
11,712.9	84.6162	11,712.9	84.4552	11,712.9	85.4939	11,712.9	84.1923	11,712.9	85.3732	11,712.9	84.004	11,712.9	82.7849	11,712.9	82.2965	11,712.9	80.5279	11,712.9	77.9855	11,712.9	77.3273	11,712.9	74.8612	11,712.9	72.7852	11,712.9	69.6345	11,712.9	72.9297	11,712.9	67.4693	11,712.9	67.1228	11,712.9	62.1339	11,712.9	62.362	11,712.9	59.1189	11,712.9	69.1495	11,712.9	42.2963	11,712.9	65.5534	11,712.9	56.2734	11,712.9	55.5472	11,712.9	60.0083	11,712.9	44.892	11,712.9	61.3745	11,712.9	54.3723	11,712.9	59.4902	11,712.9	46.2262	11,712.9	58.2783	11,712.9	51.6748	11,712.9	57.7165	11,712.9	53.9468	11,712.9	42.6875
12,126	84.7891	12,126	84.5948	12,126	85.6632	12,126	83.9068	12,126	85.7593	12,126	84.0166	12,126	82.7623	12,126	81.9691	12,126	79.8435	12,126	77.7641	12,126	77.6554	12,126	74.0586	12,126	72.6491	12,126	68.537	12,126	73.0003	12,126	66.5245	12,126	65.5401	12,126	58.7612	12,126	51.7552	12,126	56.7788	12,126	68.7443	12,126	39.1871	12,126	64.6474	12,126	54.7222	12,126	51.4124	12,126	58.7938	12,126	50.7911	12,126	59.6234	12,126	41.9234	12,126	57.8039	12,126	41.2724	12,126	57.5618	12,126	51.7321	12,126	55.5375	12,126	54.0713	12,126	43.0506
12,553.7	84.9655	12,553.7	84.5998	12,553.7	85.4617	12,553.7	84.1916	12,553.7	85.8223	12,553.7	84.0734	12,553.7	84.4094	12,553.7	81.1371	12,553.7	80.5913	12,553.7	78.055	12,553.7	76.1208	12,553.7	73.3394	12,553.7	72.9031	12,553.7	67.5748	12,553.7	72.9911	12,553.7	64.8399	12,553.7	54.2942	12,553.7	60.6882	12,553.7	59.7437	12,553.7	56.3506	12,553.7	68.5686	12,553.7	34.1923	12,553.7	65.7027	12,553.7	54.3194	12,553.7	54.7632	12,553.7	56.6217	12,553.7	50.7995	12,553.7	58.7163	12,553.7	52.6017	12,553.7	59.2475	12,553.7	41.452	12,553.7	57.9915	12,553.7	47.8872	12,553.7	55.5187	12,553.7	54.7734	12,553.7	43.902
12,996.1	84.783	12,996.1	84.5106	12,996.1	85.1485	12,996.1	84.3058	12,996.1	85.5685	12,996.1	83.6898	12,996.1	83.3176	12,996.1	81.3559	12,996.1	81.1479	12,996.1	76.8903	12,996.1	77.1452	12,996.1	73.3162	12,996.1	73.8741	12,996.1	65.0164	12,996.1	73.0111	12,996.1	64.4142	12,996.1	50.0604	12,996.1	59.3869	12,996.1	56.2806	12,996.1	54.2297	12,996.1	68.5937	12,996.1	38.2992	12,996.1	66.5581	12,996.1	55.5242	12,996.1	54.3865	12,996.1	57.3798	12,996.1	39.5079	12,996.1	59.047	12,996.1	46.3764	12,996.1	58.0097	12,996.1	46.4123	12,996.1	56.9506	12,996.1	54.4875	12,996.1	53.2327	12,996.1	56.4641	12,996.1	32.7168
13,454.6	84.4605	13,454.6	84.4639	13,454.6	84.7658	13,454.6	84.0756	13,454.6	84.3713	13,454.6	83.6717	13,454.6	82.1923	13,454.6	80.6021	13,454.6	80.52	13,454.6	77.1994	13,454.6	75.5535	13,454.6	71.3157	13,454.6	73.76	13,454.6	65.6799	13,454.6	69.9715	13,454.6	63.5381	13,454.6	49.8057	13,454.6	58.9501	13,454.6	45.9724	13,454.6	54.9154	13,454.6	68.8717	13,454.6	44.852	13,454.6	66.6076	13,454.6	53.4105	13,454.6	56.7918	13,454.6	56.3726	13,454.6	40.7853	13,454.6	57.7308	13,454.6	41.4888	13,454.6	55.9988	13,454.6	47.514	13,454.6	55.8953	13,454.6	52.3405	13,454.6	51.5381	13,454.6	52.9372	13,454.6	42.4036
13,929.2	84.6008	13,929.2	84.6719	13,929.2	84.9975	13,929.2	84.0976	13,929.2	85.0665	13,929.2	83.17	13,929.2	83.1798	13,929.2	80.7921	13,929.2	80.4389	13,929.2	76.0408	13,929.2	74.9656	13,929.2	70.9329	13,929.2	73.685	13,929.2	65.0807	13,929.2	69.0316	13,929.2	63.3151	13,929.2	52.1429	13,929.2	59.2517	13,929.2	49.37	13,929.2	53.0612	13,929.2	67.5503	13,929.2	43.9501	13,929.2	65.583	13,929.2	51.5117	13,929.2	53.6246	13,929.2	55.997	13,929.2	36.4022	13,929.2	56.9753	13,929.2	30.1782	13,929.2	55.6032	13,929.2	46.3975	13,929.2	56.6929	13,929.2	53.6676	13,929.2	50.4307	13,929.2	52.6589	13,929.2	42.1081
14,419.9	85.049	14,419.9	84.9216	14,419.9	84.9096	14,419.9	84.2069	14,419.9	84.4498	14,419.9	83.1518	14,419.9	82.841	14,419.9	80.5359	14,419.9	78.2698	14,419.9	75.5341	14,419.9	75.5165	14,419.9	69.8196	14,419.9	72.2528	14,419.9	65.2868	14,419.9	67.1646	14,419.9	62.0144	14,419.9	60.6466	14,419.9	57.5897	14,419.9	46.6103	14,419.9	52.9734	14,419.9	67.9679	14,419.9	35.2922	14,419.9	67.4323	14,419.9	51.1316	14,419.9	56.7515	14,419.9	54.5324	14,419.9	37.9739	14,419.9	54.082	14,419.9	42.0244	14,419.9	55.4882	14,419.9	42.4614	14,419.9	56.4213	14,419.9	53.8938	14,419.9	52.2997	14,419.9	53.7962	14,419.9	43.1781
14,928.2	84.9668	14,928.2	85.2454	14,928.2	85.4362	14,928.2	83.9887	14,928.2	85.3443	14,928.2	83.2188	14,928.2	82.0203	14,928.2	80.2498	14,928.2	78.891	14,928.2	74.3109	14,928.2	74.5828	14,928.2	70.2777	14,928.2	71.7525	14,928.2	63.9484	14,928.2	63.2804	14,928.2	60.5877	14,928.2	62.1718	14,928.2	56.0473	14,928.2	46.5472	14,928.2	52.8685	14,928.2	68.2937	14,928.2	41.9242	14,928.2	67.9871	14,928.2	49.2004	14,928.2	57.2905	14,928.2	54.3486	14,928.2	47.2116	14,928.2	53.8689	14,928.2	43.5477	14,928.2	53.3113	14,928.2	48.2218	14,928.2	54.6941	14,928.2	54.6119	14,928.2	47.8821	14,928.2	54.2925	14,928.2	42.6651
15,455.6	85.0269	15,455.6	85.3825	15,455.6	85.1569	15,455.6	83.8278	15,455.6	84.6721	15,455.6	83.3766	15,455.6	82.7189	15,455.6	79.8008	15,455.6	78.0129	15,455.6	74.3147	15,455.6	74.0043	15,455.6	69.6315	15,455.6	70.9658	15,455.6	63.7649	15,455.6	57.3732	15,455.6	58.0792	15,455.6	59.9675	15,455.6	57.218	15,455.6	55.7479	15,455.6	52.7994	15,455.6	69.3861	15,455.6	46.4601	15,455.6	69.0868	15,455.6	48.7458	15,455.6	57.4233	15,455.6	51.6148	15,455.6	48.6401	15,455.6	52.1187	15,455.6	41.0212	15,455.6	51.8438	15,455.6	48.3614	15,455.6	52.488	15,455.6	51.0469	15,455.6	45.1303	15,455.6	51.2071	15,455.6	40.0749
16,000.5	85.0906	16,000.5	85.3256	16,000.5	84.9916	16,000.5	83.7611	16,000.5	85.2064	16,000.5	83.5117	16,000.5	81.9306	16,000.5	79.4738	16,000.5	77.9964	16,000.5	74.787	16,000.5	73.5691	16,000.5	69.5926	16,000.5	68.3649	16,000.5	63.7477	16,000.5	22.2327	16,000.5	59.3813	16,000.5	63.1616	16,000.5	57.7127	16,000.5	57.9852	16,000.5	53.6474	16,000.5	70.0655	16,000.5	47.0364	16,000.5	69.5444	16,000.5	50.0828	16,000.5	57.7871	16,000.5	52.8004	16,000.5	43.2565	16,000.5	53.9868	16,000.5	37.1926	16,000.5	54.1582	16,000.5	46.3793	16,000.5	54.3168	16,000.5	52.9667	16,000.5	45.3126	16,000.5	49.3694	16,000.5	39.4404
16,564.5	85.0849	16,564.5	85.1649	16,564.5	84.9221	16,564.5	83.8267	16,564.5	84.9738	16,564.5	83.2698	16,564.5	82.1469	16,564.5	79.0102	16,564.5	77.8157	16,564.5	74.7811	16,564.5	72.6707	16,564.5	69.1631	16,564.5	68.8542	16,564.5	64.6106	16,564.5	54.0396	16,564.5	60.3921	16,564.5	60.9041	16,564.5	58.227	16,564.5	59.4508	16,564.5	53.3099	16,564.5	70.9362	16,564.5	49.8397	16,564.5	70.2157	16,564.5	49.3354	16,564.5	58.3887	16,564.5	51.1317	16,564.5	47.4851	16,564.5	52.7082	16,564.5	39.2673	16,564.5	53.5439	16,564.5	46.8221	16,564.5	54.2194	16,564.5	54.9847	16,564.5	46.1917	16,564.5	50.8456	16,564.5	46.3538
17,148.9	85.0335	17,148.9	84.9392	17,148.9	84.797	17,148.9	83.7295	17,148.9	84.5841	17,148.9	83.0574	17,148.9	82.5609	17,148.9	78.589	17,148.9	78.1745	17,148.9	73.9287	17,148.9	72.6618	17,148.9	68.6092	17,148.9	66.7816	17,148.9	65.0435	17,148.9	60.9162	17,148.9	58.5539	17,148.9	61.3987	17,148.9	56.0709	17,148.9	59.7268	17,148.9	52.5363	17,148.9	70.9089	17,148.9	51.1117	17,148.9	70.2626	17,148.9	48.1231	17,148.9	58.1055	17,148.9	50.6425	17,148.9	42.6951	17,148.9	50.1663	17,148.9	44.472	17,148.9	51.4275	17,148.9	43.9081	17,148.9	51.5256	17,148.9	52.2066	17,148.9	42.4676	17,148.9	50.2495	17,148.9	42.2199
17,752.4	84.7844	17,752.4	84.8382	17,752.4	84.5138	17,752.4	83.9248	17,752.4	84.454	17,752.4	82.6805	17,752.4	82.0098	17,752.4	78.1953	17,752.4	78.5861	17,752.4	73.4346	17,752.4	72.1843	17,752.4	68.8842	17,752.4	67.4573	17,752.4	65.1447	17,752.4	63.0483	17,752.4	57.7587	17,752.4	62.4975	17,752.4	55.1547	17,752.4	59.7081	17,752.4	52.9646	17,752.4	71.6308	17,752.4	50.6518	17,752.4	71.0347	17,752.4	46.6817	17,752.4	58.7535	17,752.4	46.893	17,752.4	40.0188	17,752.4	48.4377	17,752.4	41.5447	17,752.4	50.0584	17,752.4	41.4923	17,752.4	51.8501	17,752.4	51.3022	17,752.4	44.0701	17,752.4	48.611	17,752.4	41.219
18,379.4	84.6207	18,379.4	84.6779	18,379.4	84.081	18,379.4	83.8832	18,379.4	84.0866	18,379.4	82.6771	18,379.4	82.2006	18,379.4	78.1833	18,379.4	78.1567	18,379.4	73.4735	18,379.4	72.6778	18,379.4	70.1206	18,379.4	67.3512	18,379.4	65.1537	18,379.4	66.2988	18,379.4	58.287	18,379.4	62.8173	18,379.4	54.4372	18,379.4	61.6951	18,379.4	53.4936	18,379.4	72.4585	18,379.4	52.3649	18,379.4	71.6895	18,379.4	47.2827	18,379.4	58.731	18,379.4	47.2465	18,379.4	40.0054	18,379.4	44.039	18,379.4	46.3652	18,379.4	51.912	18,379.4	45.7163	18,379.4	53.2795	18,379.4	50.7465	18,379.4	44.7557	18,379.4	50.1115	18,379.4	42.7358
19,026.9	84.5812	19,026.9	84.7382	19,026.9	84.083	19,026.9	84.2071	19,026.9	84.4794	19,026.9	82.9467	19,026.9	82.5876	19,026.9	78.6707	19,026.9	79.7857	19,026.9	74.8122	19,026.9	74.169	19,026.9	71.3891	19,026.9	69.5894	19,026.9	66.6097	19,026.9	68.6458	19,026.9	59.9081	19,026.9	62.4712	19,026.9	54.4262	19,026.9	62.8617	19,026.9	54.4756	19,026.9	73.7094	19,026.9	53.9868	19,026.9	72.8737	19,026.9	48.2984	19,026.9	59.122	19,026.9	45.4855	19,026.9	18.9256	19,026.9	42.4397	19,026.9	47.8327	19,026.9	53.7705	19,026.9	45.784	19,026.9	55.024	19,026.9	50.1209	19,026.9	46.3173	19,026.9	51.1722	19,026.9	42.3164
19,697.8	84.4647	19,697.8	84.5368	19,697.8	83.742	19,697.8	83.5782	19,697.8	83.9245	19,697.8	82.5993	19,697.8	81.6149	19,697.8	78.1533	19,697.8	78.8513	19,697.8	74.8402	19,697.8	74.4131	19,697.8	71.0294	19,697.8	70.0715	19,697.8	66.5753	19,697.8	67.027	19,697.8	60.33	19,697.8	61.9442	19,697.8	53.4176	19,697.8	63.5559	19,697.8	54.8048	19,697.8	73.5332	19,697.8	54.6629	19,697.8	72.6989	19,697.8	48.5751	19,697.8	57.7963	19,697.8	47.8515	19,697.8	45.161	19,697.8	41.693	19,697.8	47.3445	19,697.8	54.6453	19,697.8	46.5026	19,697.8	54.866	19,697.8	48.0364	19,697.8	46.5055	19,697.8	50.6949	19,697.8	43.988
19,999.5	83.9016	19,999.5	83.8957	19,999.5	83.3895	19,999.5	82.905	19,999.5	83.5325	19,999.5	81.5338	19,999.5	80.657	19,999.5	77.1871	19,999.5	76.0375	19,999.5	74.652	19,999.5	73.216	19,999.5	69.6537	19,999.5	69.3722	19,999.5	66.3955	19,999.5	65.6851	19,999.5	61.7165	19,999.5	60.6536	19,999.5	51.1097	19,999.5	63.2514	19,999.5	53.588	19,999.5	72.9208	19,999.5	53.1632	19,999.5	72.1058	19,999.5	47.9181	19,999.5	56.9772	19,999.5	49.6829	19,999.5	50.2206	19,999.5	47.6066	19,999.5	46.1081	19,999.5	54.5673	19,999.5	50.945	19,999.5	49.722	19,999.5	55.0016	19,999.5	51.9671	19,999.5	57.7757	19,999.5	49.468
