"SPL Horizontal"
"On-Axis"		"10°"		"-10°"		"20°"		"-20°"		"30°"		"-30°"		"40°"		"-40°"		"50°"		"-50°"		"60°"		"-60°"		"70°"		"-70°"		"80°"		"-80°"		"90°"		"-90°"		"100°"		"-100°"		"110°"		"-110°"		"120°"		"-120°"		"130°"		"-130°"		"140°"		"-140°"		"150°"		"-150°"		"160°"		"-160°"		"170°"		"-170°"		"180°"
"Frequency / Hz"	"Sound Pressure Level / dB (re 20 µPa/V)  [2.83  V @ 1. m]"	"Frequency / Hz"	"Sound Pressure Level / dB (re 20 µPa/V)  [2.83  V @ 1. m]"	"Frequency / Hz"	"Sound Pressure Level / dB (re 20 µPa/V)  [2.83  V @ 1. m]"	"Frequency / Hz"	"Sound Pressure Level / dB (re 20 µPa/V)  [2.83  V @ 1. m]"	"Frequency / Hz"	"Sound Pressure Level / dB (re 20 µPa/V)  [2.83  V @ 1. m]"	"Frequency / Hz"	"Sound Pressure Level / dB (re 20 µPa/V)  [2.83  V @ 1. m]"	"Frequency / Hz"	"Sound Pressure Level / dB (re 20 µPa/V)  [2.83  V @ 1. m]"	"Frequency / Hz"	"Sound Pressure Level / dB (re 20 µPa/V)  [2.83  V @ 1. m]"	"Frequency / Hz"	"Sound Pressure Level / dB (re 20 µPa/V)  [2.83  V @ 1. m]"	"Frequency / Hz"	"Sound Pressure Level / dB (re 20 µPa/V)  [2.83  V @ 1. m]"	"Frequency / Hz"	"Sound Pressure Level / dB (re 20 µPa/V)  [2.83  V @ 1. m]"	"Frequency / Hz"	"Sound Pressure Level / dB (re 20 µPa/V)  [2.83  V @ 1. m]"	"Frequency / Hz"	"Sound Pressure Level / dB (re 20 µPa/V)  [2.83  V @ 1. m]"	"Frequency / Hz"	"Sound Pressure Level / dB (re 20 µPa/V)  [2.83  V @ 1. m]"	"Frequency / Hz"	"Sound Pressure Level / dB (re 20 µPa/V)  [2.83  V @ 1. m]"	"Frequency / Hz"	"Sound Pressure Level / dB (re 20 µPa/V)  [2.83  V @ 1. m]"	"Frequency / Hz"	"Sound Pressure Level / dB (re 20 µPa/V)  [2.83  V @ 1. m]"	"Frequency / Hz"	"Sound Pressure Level / dB (re 20 µPa/V)  [2.83  V @ 1. m]"	"Frequency / Hz"	"Sound Pressure Level / dB (re 20 µPa/V)  [2.83  V @ 1. m]"	"Frequency / Hz"	"Sound Pressure Level / dB (re 20 µPa/V)  [2.83  V @ 1. m]"	"Frequency / Hz"	"Sound Pressure Level / dB (re 20 µPa/V)  [2.83  V @ 1. m]"	"Frequency / Hz"	"Sound Pressure Level / dB (re 20 µPa/V)  [2.83  V @ 1. m]"	"Frequency / Hz"	"Sound Pressure Level / dB (re 20 µPa/V)  [2.83  V @ 1. m]"	"Frequency / Hz"	"Sound Pressure Level / dB (re 20 µPa/V)  [2.83  V @ 1. m]"	"Frequency / Hz"	"Sound Pressure Level / dB (re 20 µPa/V)  [2.83  V @ 1. m]"	"Frequency / Hz"	"Sound Pressure Level / dB (re 20 µPa/V)  [2.83  V @ 1. m]"	"Frequency / Hz"	"Sound Pressure Level / dB (re 20 µPa/V)  [2.83  V @ 1. m]"	"Frequency / Hz"	"Sound Pressure Level / dB (re 20 µPa/V)  [2.83  V @ 1. m]"	"Frequency / Hz"	"Sound Pressure Level / dB (re 20 µPa/V)  [2.83  V @ 1. m]"	"Frequency / Hz"	"Sound Pressure Level / dB (re 20 µPa/V)  [2.83  V @ 1. m]"	"Frequency / Hz"	"Sound Pressure Level / dB (re 20 µPa/V)  [2.83  V @ 1. m]"	"Frequency / Hz"	"Sound Pressure Level / dB (re 20 µPa/V)  [2.83  V @ 1. m]"	"Frequency / Hz"	"Sound Pressure Level / dB (re 20 µPa/V)  [2.83  V @ 1. m]"	"Frequency / Hz"	"Sound Pressure Level / dB (re 20 µPa/V)  [2.83  V @ 1. m]"	"Frequency / Hz"	"Sound Pressure Level / dB (re 20 µPa/V)  [2.83  V @ 1. m]"	"Frequency / Hz"	"Sound Pressure Level / dB (re 20 µPa/V)  [2.83  V @ 1. m]"
20.5078	35.6028	20.5078	35.4901	20.5078	35.6709	20.5078	35.3306	20.5078	35.6968	20.5078	35.1241	20.5078	35.6827	20.5078	34.8734	20.5078	35.629	20.5078	34.5856	20.5078	35.5347	20.5078	34.2723	20.5078	35.3972	20.5078	33.949	20.5078	35.2132	20.5078	33.6334	20.5078	34.9795	20.5078	33.3413	20.5078	34.6945	20.5078	33.0831	20.5078	34.3602	20.5078	32.8609	20.5078	33.983	20.5078	32.6687	20.5078	33.5764	20.5078	32.4963	20.5078	33.1607	20.5078	32.3347	20.5078	32.7637	20.5078	32.1823	20.5078	32.417	20.5078	32.0484	20.5078	32.1508	20.5078	31.9533	20.5078	31.9852	20.5078	31.9239
21.9727	32.4772	21.9727	32.6782	21.9727	32.2625	21.9727	32.873	21.9727	32.0275	21.9727	33.0681	21.9727	31.7677	21.9727	33.2681	21.9727	31.4826	21.9727	33.4744	21.9727	31.178	21.9727	33.6843	21.9727	30.867	21.9727	33.8909	21.9727	30.5708	21.9727	34.0833	21.9727	30.3171	21.9727	34.2485	21.9727	30.1367	21.9727	34.372	21.9727	30.0577	21.9727	34.4405	21.9727	30.0994	21.9727	34.4424	21.9727	30.2673	21.9727	34.369	21.9727	30.5526	21.9727	34.2152	21.9727	30.9342	21.9727	33.9801	21.9727	31.3839	21.9727	33.6672	21.9727	31.8712	21.9727	33.2847	21.9727	32.367	21.9727	32.8455
23.4375	34.4209	23.4375	34.5101	23.4375	34.3129	23.4375	34.5783	23.4375	34.1884	23.4375	34.6229	23.4375	34.0497	23.4375	34.6417	23.4375	33.8984	23.4375	34.6324	23.4375	33.7361	23.4375	34.5929	23.4375	33.5639	23.4375	34.5217	23.4375	33.3823	23.4375	34.4175	23.4375	33.1926	23.4375	34.2805	23.4375	32.9972	23.4375	34.1117	23.4375	32.8012	23.4375	33.914	23.4375	32.6126	23.4375	33.6922	23.4375	32.4421	23.4375	33.4531	23.4375	32.3022	23.4375	33.2058	23.4375	32.2047	23.4375	32.9609	23.4375	32.1586	23.4375	32.7302	23.4375	32.1691	23.4375	32.5254	23.4375	32.2367	23.4375	32.3578
24.9023	30.7617	24.9023	30.8075	24.9023	30.6779	24.9023	30.8099	24.9023	30.5622	24.9023	30.7648	24.9023	30.4207	24.9023	30.6702	24.9023	30.2591	24.9023	30.5268	24.9023	30.0823	24.9023	30.3391	24.9023	29.8943	24.9023	30.1152	24.9023	29.6977	24.9023	29.8662	24.9023	29.4943	24.9023	29.6051	24.9023	29.286	24.9023	29.345	24.9023	29.0757	24.9023	29.0975	24.9023	28.8685	24.9023	28.871	24.9023	28.6717	24.9023	28.6711	24.9023	28.4942	24.9023	28.5004	24.9023	28.3451	24.9023	28.3601	24.9023	28.2315	24.9023	28.2509	24.9023	28.1577	24.9023	28.1738	24.9023	28.1246	24.9023	28.1309
26.3672	28.2491	26.3672	28.5758	26.3672	27.8512	26.3672	28.8252	26.3672	27.3919	26.3672	28.9941	26.3672	26.8845	26.3672	29.0821	26.3672	26.3465	26.3672	29.0919	26.3672	25.7987	26.3672	29.0289	26.3672	25.2636	26.3672	28.9005	26.3672	24.7623	26.3672	28.7148	26.3672	24.3121	26.3672	28.4794	26.3672	23.9259	26.3672	28.1998	26.3672	23.6135	26.3672	27.8784	26.3672	23.3844	26.3672	27.5151	26.3672	23.2494	26.3672	27.109	26.3672	23.2199	26.3672	26.6611	26.3672	23.3033	26.3672	26.1767	26.3672	23.5003	26.3672	25.6675	26.3672	23.8025	26.3672	25.1514	26.3672	24.1936	26.3672	24.6516
27.832	26.9942	27.832	27.6066	27.832	26.3054	27.832	28.1214	27.832	25.5729	27.832	28.5267	27.832	24.8419	27.832	28.8171	27.832	24.1654	27.832	28.9919	27.832	23.594	27.832	29.0536	27.832	23.1596	27.832	29.0067	27.832	22.8661	27.832	28.8573	27.832	22.6915	27.832	28.6115	27.832	22.6018	27.832	28.2759	27.832	22.5647	27.832	27.8568	27.832	22.5587	27.832	27.3616	27.832	22.5747	27.832	26.8006	27.832	22.6156	27.832	26.1889	27.832	22.6937	27.832	25.5491	27.832	22.8292	27.832	24.9116	27.832	23.0452	27.832	24.3126	27.832	23.3619	27.832	23.7874
29.2969	32.2363	29.2969	32.3233	29.2969	32.1875	29.2969	32.4431	29.2969	32.1781	29.2969	32.5867	29.2969	32.2053	29.2969	32.7427	29.2969	32.2629	29.2969	32.8985	29.2969	32.3429	29.2969	33.0423	29.2969	32.4369	29.2969	33.1637	29.2969	32.5372	29.2969	33.2552	29.2969	32.6378	29.2969	33.3128	29.2969	32.7345	29.2969	33.3366	29.2969	32.8247	29.2969	33.3307	29.2969	32.9067	29.2969	33.3033	29.2969	32.9793	29.2969	33.2645	29.2969	33.0408	29.2969	33.2251	29.2969	33.0896	29.2969	33.1933	29.2969	33.1247	29.2969	33.1731	29.2969	33.1463	29.2969	33.1637	29.2969	33.1567	29.2969	33.1604
30.7617	24.1345	30.7617	23.3378	30.7617	24.9064	30.7617	22.5652	30.7617	25.6191	30.7617	21.8777	30.7617	26.2511	30.7617	21.3391	30.7617	26.7905	30.7617	20.9969	30.7617	27.2325	30.7617	20.8634	30.7617	27.5773	30.7617	20.9111	30.7617	27.8282	30.7617	21.0865	30.7617	27.9911	30.7617	21.3348	30.7617	28.0722	30.7617	21.6185	30.7617	28.0778	30.7617	21.9262	30.7617	28.0126	30.7617	22.2698	30.7617	27.8791	30.7617	22.6732	30.7617	27.6774	30.7617	23.1547	30.7617	27.405	30.7617	23.7138	30.7617	27.0585	30.7617	24.3276	30.7617	26.6355	30.7617	24.9596	30.7617	26.1374	30.7617	25.5727
32.2266	31.8594	32.2266	31.8067	32.2266	31.9377	32.2266	31.7823	32.2266	32.0365	32.2266	31.7865	32.2266	32.1492	32.2266	31.8163	32.2266	32.2687	32.2266	31.8652	32.2266	32.387	32.2266	31.9247	32.2266	32.4967	32.2266	31.9852	32.2266	32.5911	32.2266	32.038	32.2266	32.6649	32.2266	32.0765	32.2266	32.7146	32.2266	32.0979	32.2266	32.7386	32.2266	32.1034	32.2266	32.7368	32.2266	32.098	32.2266	32.7106	32.2266	32.0898	32.2266	32.6625	32.2266	32.0875	32.2266	32.5959	32.2266	32.0995	32.2266	32.5155	32.2266	32.1308	32.2266	32.4271	32.2266	32.183	32.2266	32.3374	32.2266	32.2537
33.6914	15.2025	33.6914	13.0626	33.6914	16.6409	33.6914	9.72203	33.6914	17.6168	33.6914	3.96192	33.6914	18.267	33.6914	0.330283	33.6914	18.6797	33.6914	7.63137	33.6914	18.9167	33.6914	12.0982	33.6914	19.023	33.6914	14.8948	33.6914	19.032	33.6914	16.7731	33.6914	18.968	33.6914	18.0515	33.6914	18.8489	33.6914	18.8913	33.6914	18.6881	33.6914	19.3872	33.6914	18.4963	33.6914	19.6037	33.6914	18.2852	33.6914	19.5915	33.6914	18.0701	33.6914	19.3983	33.6914	17.8737	33.6914	19.0754	33.6914	17.7287	33.6914	18.6822	33.6914	17.6745	33.6914	18.2867	33.6914	17.7462	33.6914	17.9572
35.1562	33.0408	35.1562	33.1312	35.1562	32.9568	35.1562	33.23	35.1562	32.8766	35.1562	33.3376	35.1562	32.798	35.1562	33.4517	35.1562	32.7203	35.1562	33.5675	35.1562	32.6448	35.1562	33.678	35.1562	32.5753	35.1562	33.7754	35.1562	32.5174	35.1562	33.8522	35.1562	32.4784	35.1562	33.9029	35.1562	32.4653	35.1562	33.925	35.1562	32.4838	35.1562	33.9191	35.1562	32.5365	35.1562	33.8885	35.1562	32.6219	35.1562	33.838	35.1562	32.7342	35.1562	33.7723	35.1562	32.865	35.1562	33.6947	35.1562	33.0045	35.1562	33.6067	35.1562	33.1438	35.1562	33.5082	35.1562	33.2763	35.1562	33.3982
36.6211	33.2023	36.6211	33.142	36.6211	33.2649	36.6211	33.094	36.6211	33.3202	36.6211	33.0668	36.6211	33.3609	36.6211	33.0654	36.6211	33.3828	36.6211	33.0897	36.6211	33.3853	36.6211	33.1343	36.6211	33.3711	36.6211	33.1902	36.6211	33.3451	36.6211	33.2464	36.6211	33.3138	36.6211	33.2933	36.6211	33.2836	36.6211	33.3244	36.6211	33.2597	36.6211	33.338	36.6211	33.2455	36.6211	33.3367	36.6211	33.2418	36.6211	33.3263	36.6211	33.2469	36.6211	33.3131	36.6211	33.2576	36.6211	33.3022	36.6211	33.2701	36.6211	33.2956	36.6211	33.2808	36.6211	33.2928	36.6211	33.2878	36.6211	33.2912
38.0859	29.9345	38.0859	29.9271	38.0859	29.8636	38.0859	29.8497	38.0859	29.7124	38.0859	29.7169	38.0859	29.4854	38.0859	29.5482	38.0859	29.1946	38.0859	29.3662	38.0859	28.8594	38.0859	29.1934	38.0859	28.5066	38.0859	29.0475	38.0859	28.1691	38.0859	28.939	38.0859	27.8818	38.0859	28.869	38.0859	27.6761	38.0859	28.8319	38.0859	27.5727	38.0859	28.8183	38.0859	27.5761	38.0859	28.8189	38.0859	27.674	38.0859	28.826	38.0859	27.8404	38.0859	28.833	38.0859	28.0432	38.0859	28.8331	38.0859	28.2513	38.0859	28.8182	38.0859	28.4401	38.0859	28.7791	38.0859	28.594	38.0859	28.7066
39.5508	30.6047	39.5508	30.6475	39.5508	30.4967	39.5508	30.6243	39.5508	30.3329	39.5508	30.5423	39.5508	30.1302	39.5508	30.4159	39.5508	29.9101	39.5508	30.264	39.5508	29.6954	39.5508	30.107	39.5508	29.5051	39.5508	29.9625	39.5508	29.3511	39.5508	29.8413	39.5508	29.2377	39.5508	29.7464	39.5508	29.1636	39.5508	29.6739	39.5508	29.125	39.5508	29.6166	39.5508	29.1175	39.5508	29.5684	39.5508	29.1364	39.5508	29.5265	39.5508	29.1754	39.5508	29.4907	39.5508	29.2263	39.5508	29.4619	39.5508	29.2803	39.5508	29.4393	39.5508	29.3295	39.5508	29.4197	39.5508	29.3689	39.5508	29.398
41.0156	33.896	41.0156	33.6325	41.0156	34.17	41.0156	33.3877	41.0156	34.4494	41.0156	33.1733	41.0156	34.7307	41.0156	33.0047	41.0156	35.0106	41.0156	32.8997	41.0156	35.2854	41.0156	32.8748	41.0156	35.5504	41.0156	32.9411	41.0156	35.8005	41.0156	33.0997	41.0156	36.0308	41.0156	33.3402	41.0156	36.2368	41.0156	33.6436	41.0156	36.4149	41.0156	33.9879	41.0156	36.5613	41.0156	34.3532	41.0156	36.6718	41.0156	34.7239	41.0156	36.741	41.0156	35.0886	41.0156	36.7631	41.0156	35.4378	41.0156	36.7326	41.0156	35.7626	41.0156	36.6459	41.0156	36.0539	41.0156	36.5019	41.0156	36.3028
42.4805	35.2999	42.4805	35.4004	42.4805	35.2027	42.4805	35.5134	42.4805	35.0969	42.4805	35.6414	42.4805	34.9728	42.4805	35.7776	42.4805	34.8257	42.4805	35.9072	42.4805	34.6568	42.4805	36.0117	42.4805	34.473	42.4805	36.0754	42.4805	34.285	42.4805	36.0898	42.4805	34.1057	42.4805	36.0549	42.4805	33.9481	42.4805	35.9775	42.4805	33.8242	42.4805	35.8673	42.4805	33.7442	42.4805	35.7319	42.4805	33.715	42.4805	35.5757	42.4805	33.7404	42.4805	35.3998	42.4805	33.82	42.4805	35.2049	42.4805	33.9493	42.4805	34.9931	42.4805	34.1202	42.4805	34.7695	42.4805	34.3218	42.4805	34.5422
43.9453	38.0845	43.9453	38.0675	43.9453	38.0694	43.9453	38.0253	43.9453	38.0214	43.9453	37.9699	43.9453	37.9456	43.9453	37.9167	43.9453	37.8523	43.9453	37.8814	43.9453	37.7554	43.9453	37.8763	43.9453	37.6708	43.9453	37.9078	43.9453	37.6138	43.9453	37.9757	43.9453	37.5964	43.9453	38.0738	43.9453	37.6256	43.9453	38.1925	43.9453	37.7019	43.9453	38.3209	43.9453	37.8196	43.9453	38.4483	43.9453	37.9679	43.9453	38.5652	43.9453	38.1329	43.9453	38.6633	43.9453	38.2998	43.9453	38.736	43.9453	38.4551	43.9453	38.7779	43.9453	38.5876	43.9453	38.7854	43.9453	38.6895	43.9453	38.7561
45.4102	37.3213	45.4102	37.4527	45.4102	37.155	45.4102	37.5517	45.4102	36.9574	45.4102	37.6256	45.4102	36.7386	45.4102	37.6836	45.4102	36.5144	45.4102	37.7342	45.4102	36.3036	45.4102	37.7824	45.4102	36.1244	45.4102	37.8294	45.4102	35.9917	45.4102	37.8729	45.4102	35.915	45.4102	37.9091	45.4102	35.8977	45.4102	37.934	45.4102	35.9391	45.4102	37.9445	45.4102	36.0349	45.4102	37.9381	45.4102	36.1782	45.4102	37.912	45.4102	36.3591	45.4102	37.8635	45.4102	36.5658	45.4102	37.7895	45.4102	36.7849	45.4102	37.6877	45.4102	37.0034	45.4102	37.5565	45.4102	37.2101	45.4102	37.3964
46.875	38.7357	46.875	38.7499	46.875	38.7071	46.875	38.753	46.875	38.664	46.875	38.7507	46.875	38.6097	46.875	38.7491	46.875	38.5503	46.875	38.7531	46.875	38.4935	46.875	38.7654	46.875	38.4468	46.875	38.7861	46.875	38.4165	46.875	38.8142	46.875	38.4069	46.875	38.8483	46.875	38.4203	46.875	38.888	46.875	38.4573	46.875	38.9326	46.875	38.5165	46.875	38.9811	46.875	38.5947	46.875	39.0306	46.875	38.6868	46.875	39.0761	46.875	38.7862	46.875	39.1114	46.875	38.8848	46.875	39.1302	46.875	38.9744	46.875	39.1273	46.875	39.0479	46.875	39.0998
48.3398	39.1692	48.3398	39.2881	48.3398	39.0385	48.3398	39.3947	48.3398	38.8996	48.3398	39.4903	48.3398	38.759	48.3398	39.5767	48.3398	38.6255	48.3398	39.6536	48.3398	38.5079	48.3398	39.7185	48.3398	38.4137	48.3398	39.7666	48.3398	38.3478	48.3398	39.7925	48.3398	38.3126	48.3398	39.7926	48.3398	38.3083	48.3398	39.7664	48.3398	38.3342	48.3398	39.717	48.3398	38.3882	48.3398	39.65	48.3398	38.4672	48.3398	39.5722	48.3398	38.5663	48.3398	39.4894	48.3398	38.679	48.3398	39.4048	48.3398	38.7981	48.3398	39.3187	48.3398	38.9165	48.3398	39.2292	48.3398	39.0292	48.3398	39.1334
51.2695	43.9844	51.2695	43.9977	51.2695	43.9369	51.2695	43.9783	51.2695	43.8575	51.2695	43.931	51.2695	43.7522	51.2695	43.8634	51.2695	43.6294	51.2695	43.7845	51.2695	43.499	51.2695	43.7029	51.2695	43.3707	51.2695	43.6261	51.2695	43.2534	51.2695	43.5598	51.2695	43.1541	51.2695	43.5075	51.2695	43.0783	51.2695	43.4707	51.2695	43.0297	51.2695	43.4491	51.2695	43.0103	51.2695	43.4402	51.2695	43.0195	51.2695	43.4398	51.2695	43.0541	51.2695	43.442	51.2695	43.1084	51.2695	43.4406	51.2695	43.1747	51.2695	43.4296	51.2695	43.2445	51.2695	43.4049	51.2695	43.31	51.2695	43.3647
52.7344	45.6253	52.7344	45.6503	52.7344	45.5736	52.7344	45.6488	52.7344	45.4978	52.7344	45.624	52.7344	45.4033	52.7344	45.5811	52.7344	45.2976	52.7344	45.5265	52.7344	45.1892	52.7344	45.4669	52.7344	45.0863	52.7344	45.4085	52.7344	44.9964	52.7344	45.356	52.7344	44.9255	52.7344	45.3134	52.7344	44.8778	52.7344	45.283	52.7344	44.856	52.7344	45.2658	52.7344	44.8608	52.7344	45.261	52.7344	44.8903	52.7344	45.2658	52.7344	44.9405	52.7344	45.2754	52.7344	45.0047	52.7344	45.2838	52.7344	45.0749	52.7344	45.2849	52.7344	45.1428	52.7344	45.2733	52.7344	45.2015	52.7344	45.2457
54.1992	46.9321	54.1992	46.9402	54.1992	46.896	54.1992	46.9214	54.1992	46.8343	54.1992	46.8796	54.1992	46.7525	54.1992	46.8214	54.1992	46.6582	54.1992	46.7542	54.1992	46.5599	54.1992	46.6858	54.1992	46.4662	54.1992	46.6227	54.1992	46.3842	54.1992	46.57	54.1992	46.3197	54.1992	46.5314	54.1992	46.2768	54.1992	46.5085	54.1992	46.2578	54.1992	46.5017	54.1992	46.2631	54.1992	46.5094	54.1992	46.2907	54.1992	46.5281	54.1992	46.3365	54.1992	46.5526	54.1992	46.3937	54.1992	46.5765	54.1992	46.4545	54.1992	46.5934	54.1992	46.5108	54.1992	46.5976	54.1992	46.5561	54.1992	46.5856
55.6641	48.3328	55.6641	48.3354	55.6641	48.3092	55.6641	48.3181	55.6641	48.2664	55.6641	48.2852	55.6641	48.2088	55.6641	48.2426	55.6641	48.1431	55.6641	48.1974	55.6641	48.0764	55.6641	48.156	55.6641	48.0158	55.6641	48.1237	55.6641	47.967	55.6641	48.1041	55.6641	47.9344	55.6641	48.0988	55.6641	47.9206	55.6641	48.1082	55.6641	47.9269	55.6641	48.131	55.6641	47.9531	55.6641	48.1647	55.6641	47.9968	55.6641	48.2052	55.6641	48.054	55.6641	48.247	55.6641	48.1186	55.6641	48.2841	55.6641	48.1835	55.6641	48.3106	55.6641	48.2414	55.6641	48.3214	55.6641	48.2862	55.6641	48.3135
58.5938	51.7627	58.5938	51.7301	58.5938	51.7661	58.5938	51.6701	58.5938	51.7417	58.5938	51.5871	58.5938	51.6936	58.5938	51.488	58.5938	51.6277	58.5938	51.3811	58.5938	51.5513	58.5938	51.2755	58.5938	51.4719	58.5938	51.1792	58.5938	51.3961	58.5938	51.0993	58.5938	51.3299	58.5938	51.0409	58.5938	51.2774	58.5938	51.0069	58.5938	51.2412	58.5938	50.9979	58.5938	51.2221	58.5938	51.0119	58.5938	51.2186	58.5938	51.0445	58.5938	51.2271	58.5938	51.0896	58.5938	51.2424	58.5938	51.1398	58.5938	51.2584	58.5938	51.188	58.5938	51.269	58.5938	51.2281	58.5938	51.2691	58.5938	51.2557
60.0586	53.7791	60.0586	53.7868	60.0586	53.7465	60.0586	53.7708	60.0586	53.6908	60.0586	53.7345	60.0586	53.6161	60.0586	53.6834	60.0586	53.5289	60.0586	53.6237	60.0586	53.4372	60.0586	53.5622	60.0586	53.3492	60.0586	53.5048	60.0586	53.2726	60.0586	53.4564	60.0586	53.2135	60.0586	53.4204	60.0586	53.1762	60.0586	53.3986	60.0586	53.1621	60.0586	53.391	60.0586	53.1705	60.0586	53.3959	60.0586	53.1982	60.0586	53.41	60.0586	53.2403	60.0586	53.4288	60.0586	53.2904	60.0586	53.4469	60.0586	53.342	60.0586	53.4593	60.0586	53.389	60.0586	53.4615	60.0586	53.4263	60.0586	53.4509
62.9883	56.3603	62.9883	56.3806	62.9883	56.3118	62.9883	56.3731	62.9883	56.2377	62.9883	56.3415	62.9883	56.1437	62.9883	56.2918	62.9883	56.0382	62.9883	56.2316	62.9883	55.9308	62.9883	56.1692	62.9883	55.8317	62.9883	56.112	62.9883	55.7499	62.9883	56.0666	62.9883	55.6929	62.9883	56.037	62.9883	55.6651	62.9883	56.0253	62.9883	55.6681	62.9883	56.031	62.9883	55.7	62.9883	56.0513	62.9883	55.756	62.9883	56.0812	62.9883	55.8287	62.9883	56.1145	62.9883	55.9095	62.9883	56.1443	62.9883	55.9894	62.9883	56.1638	62.9883	56.0603	62.9883	56.1676	62.9883	56.1158	62.9883	56.152
64.4531	57.7507	64.4531	57.7597	64.4531	57.7138	64.4531	57.7414	64.4531	57.6512	64.4531	57.6999	64.4531	57.5685	64.4531	57.6413	64.4531	57.4736	64.4531	57.5738	64.4531	57.3757	64.4531	57.5058	64.4531	57.2847	64.4531	57.4455	64.4531	57.2096	64.4531	57.3995	64.4531	57.1575	64.4531	57.3722	64.4531	57.1331	64.4531	57.3656	64.4531	57.1378	64.4531	57.3791	64.4531	57.1699	64.4531	57.4093	64.4531	57.2245	64.4531	57.4508	64.4531	57.2944	64.4531	57.4965	64.4531	57.3708	64.4531	57.5389	64.4531	57.4449	64.4531	57.5709	64.4531	57.5084	64.4531	57.5864	64.4531	57.5554	64.4531	57.5818
67.3828	60.5421	67.3828	60.5595	67.3828	60.4971	67.3828	60.5499	67.3828	60.4266	67.3828	60.5166	67.3828	60.3359	67.3828	60.4655	67.3828	60.2326	67.3828	60.4038	67.3828	60.126	67.3828	60.3393	67.3828	60.026	67.3828	60.2796	67.3828	59.9421	67.3828	60.2312	67.3828	59.8823	67.3828	60.1989	67.3828	59.8521	67.3828	60.1853	67.3828	59.8536	67.3828	60.1904	67.3828	59.8857	67.3828	60.212	67.3828	59.9433	67.3828	60.2451	67.3828	60.0187	67.3828	60.2833	67.3828	60.1024	67.3828	60.3191	67.3828	60.1846	67.3828	60.345	67.3828	60.2564	67.3828	60.3548	67.3828	60.3109	67.3828	60.3441
68.8477	62.0094	68.8477	62.0345	68.8477	61.9532	68.8477	62.0292	68.8477	61.8686	68.8477	61.9966	68.8477	61.7612	68.8477	61.9428	68.8477	61.6391	68.8477	61.8751	68.8477	61.5121	68.8477	61.8019	68.8477	61.3911	68.8477	61.7315	68.8477	61.2863	68.8477	61.6711	68.8477	61.2067	68.8477	61.6259	68.8477	61.1587	68.8477	61.5989	68.8477	61.1452	68.8477	61.5905	68.8477	61.1654	68.8477	61.5981	68.8477	61.215	68.8477	61.617	68.8477	61.2862	68.8477	61.6404	68.8477	61.3697	68.8477	61.6613	68.8477	61.4555	68.8477	61.6723	68.8477	61.5341	68.8477	61.6676	68.8477	61.5983	68.8477	61.6434
71.7773	64.5503	71.7773	64.5636	71.7773	64.504	71.7773	64.5448	71.7773	64.4271	71.7773	64.498	71.7773	64.3254	71.7773	64.43	71.7773	64.2073	71.7773	64.3494	71.7773	64.0833	71.7773	64.2657	71.7773	63.9647	71.7773	64.1881	71.7773	63.8624	71.7773	64.1247	71.7773	63.7854	71.7773	64.0811	71.7773	63.7401	71.7773	64.0599	71.7773	63.7291	71.7773	64.0607	71.7773	63.751	71.7773	64.0801	71.7773	63.8009	71.7773	64.112	71.7773	63.8709	71.7773	64.1488	71.7773	63.9513	71.7773	64.1825	71.7773	64.0321	71.7773	64.2055	71.7773	64.1043	71.7773	64.2117	71.7773	64.1609	71.7773	64.1972
74.707	66.8752	74.707	66.8901	74.707	66.8273	74.707	66.8727	74.707	66.7487	74.707	66.8271	74.707	66.6452	74.707	66.76	74.707	66.5251	74.707	66.68	74.707	66.399	74.707	66.5967	74.707	66.2781	74.707	66.5193	74.707	66.1735	74.707	66.4558	74.707	66.0943	74.707	66.4119	74.707	66.0471	74.707	66.3903	74.707	66.0347	74.707	66.3905	74.707	66.0559	74.707	66.4089	74.707	66.1058	74.707	66.4395	74.707	66.1763	74.707	66.4745	74.707	66.2579	74.707	66.5061	74.707	66.3405	74.707	66.5266	74.707	66.4149	74.707	66.5301	74.707	66.4739	74.707	66.5129
77.6367	69.2799	77.6367	69.294	77.6367	69.2299	77.6367	69.2734	77.6367	69.1467	77.6367	69.2226	77.6367	69.0363	77.6367	69.149	77.6367	68.9077	77.6367	69.0621	77.6367	68.7726	77.6367	68.9725	77.6367	68.6435	77.6367	68.8906	77.6367	68.5328	77.6367	68.8253	77.6367	68.4511	77.6367	68.7829	77.6367	68.4057	77.6367	68.7665	77.6367	68.3997	77.6367	68.7753	77.6367	68.4312	77.6367	68.8048	77.6367	68.4943	77.6367	68.848	77.6367	68.5795	77.6367	68.8958	77.6367	68.6756	77.6367	68.9388	77.6367	68.771	77.6367	68.9684	77.6367	68.8554	77.6367	68.9776	77.6367	68.9209	77.6367	68.9622
79.1016	70.1777	79.1016	70.1919	79.1016	70.1277	79.1016	70.1714	79.1016	70.0442	79.1016	70.1207	79.1016	69.9335	79.1016	70.0474	79.1016	69.8047	79.1016	69.9612	79.1016	69.6694	79.1016	69.8726	79.1016	69.5405	79.1016	69.7922	79.1016	69.4306	79.1016	69.729	79.1016	69.3505	79.1016	69.6894	79.1016	69.3075	79.1016	69.6764	79.1016	69.3048	79.1016	69.6891	79.1016	69.3405	79.1016	69.7229	79.1016	69.4082	79.1016	69.7702	79.1016	69.498	79.1016	69.8218	79.1016	69.5985	79.1016	69.868	79.1016	69.6978	79.1016	69.8999	79.1016	69.7853	79.1016	69.9104	79.1016	69.8529	79.1016	69.8952
82.0312	71.6734	82.0312	71.6881	82.0312	71.6217	82.0312	71.667	82.0312	71.5354	82.0312	71.6149	82.0312	71.4208	82.0312	71.5396	82.0312	71.2872	82.0312	71.4508	82.0312	71.1467	82.0312	71.3596	82.0312	71.0125	82.0312	71.2769	82.0312	70.8979	82.0312	71.2121	82.0312	70.8143	82.0312	71.1718	82.0312	70.7696	82.0312	71.1593	82.0312	70.7671	82.0312	71.1734	82.0312	70.805	82.0312	71.2095	82.0312	70.8765	82.0312	71.2596	82.0312	70.9714	82.0312	71.314	82.0312	71.0774	82.0312	71.3624	82.0312	71.1821	82.0312	71.3958	82.0312	71.2744	82.0312	71.4066	82.0312	71.3456	82.0312	71.3904
84.9609	72.9197	84.9609	72.9371	84.9609	72.863	84.9609	72.9162	84.9609	72.77	84.9609	72.8616	84.9609	72.6471	84.9609	72.7812	84.9609	72.5044	84.9609	72.6851	84.9609	72.3544	84.9609	72.5848	84.9609	72.2112	84.9609	72.4921	84.9609	72.0885	84.9609	72.4171	84.9609	71.9983	84.9609	72.3675	84.9609	71.9488	84.9609	72.3472	84.9609	71.9433	84.9609	72.3554	84.9609	71.9799	84.9609	72.3876	84.9609	72.0516	84.9609	72.4357	84.9609	72.1475	84.9609	72.4896	84.9609	72.255	84.9609	72.5387	84.9609	72.361	84.9609	72.5732	84.9609	72.4541	84.9609	72.5853	84.9609	72.5256	84.9609	72.57
87.8906	73.8109	87.8906	73.8179	87.8906	73.7608	87.8906	73.7833	87.8906	73.6705	87.8906	73.712	87.8906	73.5464	87.8906	73.6125	87.8906	73.3988	87.8906	73.4959	87.8906	73.2405	87.8906	73.3748	87.8906	73.0861	87.8906	73.262	87.8906	72.9499	87.8906	73.1686	87.8906	72.8449	87.8906	73.1033	87.8906	72.7799	87.8906	73.0704	87.8906	72.7592	87.8906	73.0697	87.8906	72.7814	87.8906	73.0965	87.8906	72.8397	87.8906	73.1423	87.8906	72.9235	87.8906	73.1969	87.8906	73.0198	87.8906	73.2489	87.8906	73.1157	87.8906	73.2882	87.8906	73.1995	87.8906	73.3066	87.8906	73.2623	87.8906	73.2986
90.8203	74.4071	90.8203	74.4126	90.8203	74.3586	90.8203	74.3765	90.8203	74.2697	90.8203	74.304	90.8203	74.1471	90.8203	74.2038	90.8203	74.0011	90.8203	74.0873	90.8203	73.8447	90.8203	73.9673	90.8203	73.6925	90.8203	73.8566	90.8203	73.5589	90.8203	73.7664	90.8203	73.4566	90.8203	73.7051	90.8203	73.3945	90.8203	73.6766	90.8203	73.3764	90.8203	73.6802	90.8203	73.4008	90.8203	73.711	90.8203	73.4609	90.8203	73.7602	90.8203	73.5458	90.8203	73.8173	90.8203	73.643	90.8203	73.8711	90.8203	73.7393	90.8203	73.9115	90.8203	73.8234	90.8203	73.9304	90.8203	73.8863	90.8203	73.9226
95.2148	75.1615	95.2148	75.1644	95.2148	75.115	95.2148	75.1252	95.2148	75.0278	95.2148	75.0494	95.2148	74.9067	95.2148	74.9459	95.2148	74.7624	95.2148	74.8265	95.2148	74.6083	95.2148	74.7045	95.2148	74.4595	95.2148	74.5933	95.2148	74.3307	95.2148	74.5047	95.2148	74.2348	95.2148	74.4472	95.2148	74.1805	95.2148	74.425	95.2148	74.1715	95.2148	74.437	95.2148	74.2054	95.2148	74.4779	95.2148	74.2746	95.2148	74.5383	95.2148	74.3676	95.2148	74.607	95.2148	74.4709	95.2148	74.6721	95.2148	74.571	95.2148	74.7228	95.2148	74.6562	95.2148	74.7505	95.2148	74.7175	95.2148	74.7494
98.1445	75.5472	98.1445	75.5479	98.1445	75.5021	98.1445	75.5057	98.1445	75.4153	98.1445	75.4261	98.1445	75.294	98.1445	75.3187	98.1445	75.1492	98.1445	75.1957	98.1445	74.9948	98.1445	75.0711	98.1445	74.8462	98.1445	74.9588	98.1445	74.7187	98.1445	74.871	98.1445	74.6255	98.1445	74.8166	98.1445	74.5755	98.1445	74.7994	98.1445	74.5721	98.1445	74.8184	98.1445	74.6127	98.1445	74.8673	98.1445	74.6889	98.1445	74.9364	98.1445	74.7885	98.1445	75.0136	98.1445	74.8975	98.1445	75.0867	98.1445	75.0017	98.1445	75.1444	98.1445	75.0891	98.1445	75.1777	98.1445	75.1505	98.1445	75.1805
101.074	75.9787	101.074	75.976	101.074	75.9359	101.074	75.9295	101.074	75.8504	101.074	75.8449	101.074	75.7292	101.074	75.732	101.074	75.5832	101.074	75.6031	101.074	75.4265	101.074	75.4726	101.074	75.275	101.074	75.3548	101.074	75.1444	101.074	75.2625	101.074	75.0486	101.074	75.2049	101.074	74.9971	101.074	75.1866	101.074	74.9938	101.074	75.2065	101.074	75.036	101.074	75.2586	101.074	75.1152	101.074	75.3327	101.074	75.2184	101.074	75.4166	101.074	75.3307	101.074	75.4971	101.074	75.4371	101.074	75.5623	101.074	75.525	101.074	75.6025	101.074	75.5847	101.074	75.611
105.469	76.6867	105.469	76.6868	105.469	76.6382	105.469	76.6402	105.469	76.5441	105.469	76.5529	105.469	76.4118	105.469	76.4349	105.469	76.2524	105.469	76.2993	105.469	76.0807	105.469	76.1608	105.469	75.9129	105.469	76.0346	105.469	75.7659	105.469	75.9337	105.469	75.654	105.469	75.8681	105.469	75.5876	105.469	75.8423	105.469	75.5714	105.469	75.8556	105.469	75.6034	105.469	75.9014	105.469	75.6758	105.469	75.9694	105.469	75.7762	105.469	76.0467	105.469	75.8895	105.469	76.1196	105.469	76.0009	105.469	76.176	105.469	76.0966	105.469	76.2061	105.469	76.1664	105.469	76.2036
108.398	77.1249	108.398	77.1243	108.398	77.0761	108.398	77.0758	108.398	76.9807	108.398	76.9858	108.398	76.8464	108.398	76.8644	108.398	76.6849	108.398	76.725	108.398	76.5113	108.398	76.5827	108.398	76.3425	108.398	76.4529	108.398	76.1956	108.398	76.3492	108.398	76.0853	108.398	76.2814	108.398	76.0219	108.398	76.2546	108.398	76.0097	108.398	76.2678	108.398	76.046	108.398	76.3148	108.398	76.1222	108.398	76.3851	108.398	76.2252	108.398	76.4656	108.398	76.3396	108.398	76.5428	108.398	76.4503	108.398	76.6042	108.398	76.5437	108.398	76.6396	108.398	76.6097	108.398	76.6423
112.793	77.8174	112.793	77.8173	112.793	77.7655	112.793	77.7671	112.793	77.6646	112.793	77.6732	112.793	77.5227	112.793	77.5463	112.793	77.3518	112.793	77.4001	112.793	77.1678	112.793	77.2505	112.793	76.9884	112.793	77.1132	112.793	76.8316	112.793	77.0024	112.793	76.7131	112.793	76.9285	112.793	76.6437	112.793	76.8964	112.793	76.6281	112.793	76.9055	112.793	76.6635	112.793	76.9494	112.793	76.741	112.793	77.0175	112.793	76.8465	112.793	77.0969	112.793	76.9641	112.793	77.1737	112.793	77.0777	112.793	77.2351	112.793	77.1733	112.793	77.2707	112.793	77.2407	112.793	77.2736
117.188	78.557	117.188	78.5605	117.188	78.4991	117.188	78.5119	117.188	78.3899	117.188	78.4183	117.188	78.2376	117.188	78.2909	117.188	78.0551	117.188	78.1446	117.188	77.8592	117.188	77.9955	117.188	77.6689	117.188	77.8603	117.188	77.5033	117.188	77.7528	117.188	77.3789	117.188	77.6832	117.188	77.3074	117.188	77.6559	117.188	77.2933	117.188	77.6692	117.188	77.3338	117.188	77.7161	117.188	77.4191	117.188	77.7856	117.188	77.5347	117.188	77.8641	117.188	77.6636	117.188	77.938	117.188	77.789	117.188	77.9945	117.188	77.8964	117.188	78.0234	117.188	77.9748	117.188	78.0177
120.117	79.0318	120.117	79.0309	120.117	78.9779	120.117	78.9774	120.117	78.8723	120.117	78.8783	120.117	78.7233	120.117	78.7453	120.117	78.5441	120.117	78.5933	120.117	78.3513	120.117	78.439	120.117	78.1639	120.117	78.2994	120.117	78.0006	120.117	78.1886	120.117	77.8778	120.117	78.117	120.117	77.8067	120.117	78.0888	120.117	77.7916	120.117	78.1025	120.117	77.8297	120.117	78.1507	120.117	77.9113	120.117	78.2223	120.117	78.0222	120.117	78.3038	120.117	78.1456	120.117	78.3813	120.117	78.2653	120.117	78.4422	120.117	78.3666	120.117	78.4762	120.117	78.439	120.117	78.4761
124.512	79.7417	124.512	79.739	124.512	79.6881	124.512	79.6824	124.512	79.5816	124.512	79.5793	124.512	79.4309	124.512	79.4418	124.512	79.2496	124.512	79.2854	124.512	79.0551	124.512	79.1278	124.512	78.867	124.512	78.9862	124.512	78.7049	124.512	78.8758	124.512	78.5854	124.512	78.8067	124.512	78.5198	124.512	78.7834	124.512	78.5121	124.512	78.8038	124.512	78.5584	124.512	78.8601	124.512	78.6483	124.512	78.9403	124.512	78.7666	124.512	79.0305	124.512	78.8959	124.512	79.1162	124.512	79.0192	124.512	79.1843	124.512	79.1222	124.512	79.2241	124.512	79.1939	124.512	79.2284
128.906	80.4249	128.906	80.4285	128.906	80.3633	128.906	80.3764	128.906	80.2473	128.906	80.2761	128.906	80.0862	128.906	80.1401	128.906	79.8942	128.906	79.9846	128.906	79.6899	128.906	79.8276	128.906	79.4938	128.906	79.6871	128.906	79.3265	128.906	79.5785	128.906	79.2054	128.906	79.5121	128.906	79.1422	128.906	79.4922	128.906	79.1408	128.906	79.5163	128.906	79.1968	128.906	79.576	128.906	79.2989	128.906	79.659	128.906	79.4304	128.906	79.751	128.906	79.5729	128.906	79.8373	128.906	79.7085	128.906	79.9046	128.906	79.8218	128.906	79.9422	128.906	79.9018	128.906	79.9424
133.301	81.0903	133.301	81.0959	133.301	81.0253	133.301	81.0442	133.301	80.9046	133.301	80.9432	133.301	80.7378	133.301	80.806	133.301	80.54	133.301	80.6493	133.301	80.3302	133.301	80.492	133.301	80.1302	133.301	80.353	133.301	79.9611	133.301	80.2479	133.301	79.841	133.301	80.1876	133.301	79.7817	133.301	80.1759	133.301	79.7869	133.301	80.2095	133.301	79.8519	133.301	80.2792	133.301	79.9645	133.301	80.3716	133.301	80.1075	133.301	80.4712	133.301	80.2616	133.301	80.5628	133.301	80.4083	133.301	80.6326	133.301	80.5315	133.301	80.6696	133.301	80.6198	133.301	80.6664
139.16	81.8739	139.16	81.8826	139.16	81.8028	139.16	81.8313	139.16	81.6735	139.16	81.7282	139.16	81.4961	139.16	81.5869	139.16	81.2865	139.16	81.4252	139.16	81.0651	139.16	81.2629	139.16	80.8547	139.16	81.1196	139.16	80.6777	139.16	81.0121	139.16	80.5535	139.16	80.9518	139.16	80.4944	139.16	80.9429	139.16	80.5045	139.16	80.9819	139.16	80.5786	139.16	81.0591	139.16	80.7035	139.16	81.1602	139.16	80.861	139.16	81.2686	139.16	81.0302	139.16	81.3677	139.16	81.1911	139.16	81.4427	139.16	81.3267	139.16	81.4817	139.16	81.4243	139.16	81.4766
143.555	82.4093	143.555	82.4186	143.555	82.3353	143.555	82.3658	143.555	82.2008	143.555	82.2595	143.555	82.0161	143.555	82.1138	143.555	81.7978	143.555	81.9471	143.555	81.5668	143.555	81.7798	143.555	81.3468	143.555	81.632	143.555	81.1614	143.555	81.521	143.555	81.0305	143.555	81.4583	143.555	80.9675	143.555	81.4481	143.555	80.9765	143.555	81.4871	143.555	81.0524	143.555	81.5654	143.555	81.1815	143.555	81.6684	143.555	81.3449	143.555	81.7791	143.555	81.521	143.555	81.8804	143.555	81.689	143.555	81.9568	143.555	81.8309	143.555	81.9958	143.555	81.9336	143.555	81.9893
147.949	82.8696	147.949	82.8821	147.949	82.7901	147.949	82.8304	147.949	82.6476	147.949	82.7234	147.949	82.453	147.949	82.5759	147.949	82.2232	147.949	82.4066	147.949	81.9801	147.949	82.2366	147.949	81.7482	147.949	82.0862	147.949	81.5522	147.949	81.9727	147.949	81.413	147.949	81.9075	147.949	81.3447	147.949	81.8944	147.949	81.3518	147.949	81.9302	147.949	81.429	147.949	82.005	147.949	81.5624	147.949	82.1044	147.949	81.7321	147.949	82.2118	147.949	81.9156	147.949	82.31	147.949	82.0911	147.949	82.3836	147.949	82.24	147.949	82.4195	147.949	82.3487	147.949	82.4092
153.809	83.2988	153.809	83.3145	153.809	83.2134	153.809	83.2636	153.809	83.0627	153.809	83.1561	153.809	82.8579	153.809	83.008	153.809	82.6171	153.809	82.8398	153.809	82.3635	153.809	82.6741	153.809	82.1235	153.809	82.5325	153.809	81.9231	153.809	82.4326	153.809	81.7848	153.809	82.3849	153.809	81.7233	153.809	82.3913	153.809	81.7431	153.809	82.4458	153.809	81.838	153.809	82.5365	153.809	81.9927	153.809	82.6473	153.809	82.1852	153.809	82.7613	153.809	82.3912	153.809	82.8618	153.809	82.5873	153.809	82.9339	153.809	82.7538	153.809	82.9654	153.809	82.8765	153.809	82.9476
159.668	83.5762	159.668	83.583	159.668	83.4948	159.668	83.5189	159.668	83.343	159.668	83.3951	159.668	83.1326	159.668	83.2298	159.668	82.8828	159.668	83.046	159.668	82.6181	159.668	82.8691	159.668	82.3666	159.668	82.7236	159.668	82.1563	159.668	82.6288	159.668	82.011	159.668	82.5957	159.668	81.9467	159.668	82.6252	159.668	81.9688	159.668	82.7084	159.668	82.0714	159.668	82.8296	159.668	82.2389	159.668	82.9691	159.668	82.4488	159.668	83.1067	159.668	82.6755	159.668	83.2236	159.668	82.8938	159.668	83.3038	159.668	83.0821	159.668	83.335	159.668	83.2238	159.668	83.3092
165.527	84.0618	165.527	84.057	165.527	83.9861	165.527	83.9753	165.527	83.8349	165.527	83.8281	165.527	83.6209	165.527	83.6341	165.527	83.3641	165.527	83.4177	165.527	83.0903	165.527	83.2069	165.527	82.8287	165.527	83.0292	165.527	82.6082	165.527	82.9077	165.527	82.453	165.527	82.8564	165.527	82.3793	165.527	82.8778	165.527	82.3923	165.527	82.9632	165.527	82.4855	165.527	83.095	165.527	82.6434	165.527	83.2505	165.527	82.8435	165.527	83.4063	165.527	83.0609	165.527	83.5407	165.527	83.2708	165.527	83.6361	165.527	83.4514	165.527	83.6796	165.527	83.5859	165.527	83.6634
171.387	84.3496	171.387	84.3456	171.387	84.2695	171.387	84.2606	171.387	84.1104	171.387	84.1061	171.387	83.8858	171.387	83.901	171.387	83.6167	171.387	83.6701	171.387	83.3302	171.387	83.442	171.387	83.0569	171.387	83.2456	171.387	82.8272	171.387	83.1054	171.387	82.6667	171.387	83.0376	171.387	82.5921	171.387	83.0468	171.387	82.6082	171.387	83.1257	171.387	82.7077	171.387	83.2571	171.387	82.8731	171.387	83.4181	171.387	83.0804	171.387	83.5838	171.387	83.3029	171.387	83.7311	171.387	83.5148	171.387	83.8403	171.387	83.6939	171.387	83.897	171.387	83.8232	171.387	83.8922
177.246	84.5343	177.246	84.5407	177.246	84.4402	177.246	84.4627	177.246	84.2638	177.246	84.3119	177.246	84.0188	177.246	84.1073	177.246	83.7271	177.246	83.874	177.246	83.4169	177.246	83.6408	177.246	83.1206	177.246	83.4365	177.246	82.8708	177.246	83.2859	177.246	82.695	177.246	83.2059	177.246	82.6117	177.246	83.2022	177.246	82.6264	177.246	83.2692	177.246	82.7314	177.246	83.3911	177.246	82.908	177.246	83.5457	177.246	83.13	177.246	83.708	177.246	83.3687	177.246	83.8538	177.246	83.5965	177.246	83.962	177.246	83.7896	177.246	84.0164	177.246	83.9301	177.246	84.007
183.105	84.5894	183.105	84.5959	183.105	84.4916	183.105	84.5152	183.105	84.3079	183.105	84.3598	183.105	84.0525	183.105	84.1504	183.105	83.7481	183.105	83.9138	183.105	83.4244	183.105	83.6805	183.105	83.1155	183.105	83.4806	183.105	82.8556	183.105	83.339	183.105	82.6742	183.105	83.2714	183.105	82.5905	183.105	83.2814	183.105	82.6108	183.105	83.3609	183.105	82.7267	183.105	83.4923	183.105	82.9182	183.105	83.6525	183.105	83.1576	183.105	83.8169	183.105	83.4141	183.105	83.9619	183.105	83.6583	183.105	84.0674	183.105	83.8652	183.105	84.1174	183.105	84.0167	183.105	84.1018
188.965	84.7174	188.965	84.7129	188.965	84.6248	188.965	84.6151	188.965	84.4402	188.965	84.4377	188.965	84.1789	188.965	84.2027	188.965	83.8645	188.965	83.939	188.965	83.5283	188.965	83.6799	188.965	83.2058	188.965	83.4586	188.965	82.9332	188.965	83.3034	188.965	82.7411	188.965	83.2324	188.965	82.6499	188.965	83.25	188.965	82.6663	188.965	83.3467	188.965	82.7821	188.965	83.502	188.965	82.9774	188.965	83.6889	188.965	83.2241	188.965	83.8789	188.965	83.4905	188.965	84.0454	188.965	83.7459	188.965	84.1664	188.965	83.9636	188.965	84.2253	188.965	84.1231	188.965	84.2118
196.289	84.9069	196.289	84.897	196.289	84.8128	196.289	84.7874	196.289	84.6205	196.289	84.5917	196.289	84.3456	196.289	84.3328	196.289	84.0129	196.289	84.0409	196.289	83.6547	196.289	83.7509	196.289	83.3084	196.289	83.4981	196.289	83.0122	196.289	83.3132	196.289	82.7992	196.289	83.2162	196.289	82.6919	196.289	83.2134	196.289	82.6976	196.289	83.2967	196.289	82.808	196.289	83.4462	196.289	83.0013	196.289	83.6344	196.289	83.2472	196.289	83.8316	196.289	83.5124	196.289	84.0091	196.289	83.765	196.289	84.1426	196.289	83.978	196.289	84.2137	196.289	84.1309	196.289	84.211
203.613	85.0885	203.613	85.0755	203.613	84.9936	203.613	84.9585	203.613	84.7975	203.613	84.7514	203.613	84.5169	203.613	84.4783	203.613	84.1778	203.613	84.1707	203.613	83.8137	203.613	83.8658	203.613	83.4626	203.613	83.601	203.613	83.1625	203.613	83.408	203.613	82.9462	203.613	83.3073	203.613	82.8356	203.613	83.3045	203.613	82.8385	203.613	83.3898	203.613	82.947	203.613	83.5417	203.613	83.1402	203.613	83.7325	203.613	83.3877	203.613	83.9326	203.613	83.6552	203.613	84.1146	203.613	83.9089	203.613	84.2547	203.613	84.1203	203.613	84.3342	203.613	84.2682	203.613	84.3405
210.938	85.1154	210.938	85.1012	210.938	85.0183	210.938	84.9798	210.938	84.8166	210.938	84.7661	210.938	84.5276	210.938	84.4845	210.938	84.1788	210.938	84.1678	210.938	83.8054	210.938	83.8536	210.938	83.4477	210.938	83.5804	210.938	83.1456	210.938	83.3812	210.938	82.9327	210.938	83.278	210.938	82.8302	210.938	83.2778	210.938	82.8439	210.938	83.3715	210.938	82.9632	210.938	83.5373	210.938	83.1654	210.938	83.7452	210.938	83.4199	210.938	83.963	210.938	83.6929	210.938	84.1599	210.938	83.9522	210.938	84.3101	210.938	84.1695	210.938	84.394	210.938	84.3231	210.938	84.3996
218.262	85.0741	218.262	85.0589	218.262	84.9713	218.262	84.9305	218.262	84.7574	218.262	84.7049	218.262	84.4508	218.262	84.4093	218.262	84.0804	218.262	84.0797	218.262	83.6845	218.262	83.7584	218.262	83.3074	218.262	83.4882	218.262	82.9938	218.262	83.3053	218.262	82.782	218.262	83.232	218.262	82.6967	218.262	83.2722	218.262	82.7443	218.262	83.4116	218.262	82.912	218.262	83.6226	218.262	83.1717	218.262	83.8715	218.262	83.4857	218.262	84.1237	218.262	83.8136	218.262	84.348	218.262	84.1179	218.262	84.5183	218.262	84.3676	218.262	84.6147	218.262	84.5404	218.262	84.6239
225.586	85.2659	225.586	85.249	225.586	85.1579	225.586	85.1123	225.586	84.9314	225.586	84.8726	225.586	84.6047	225.586	84.557	225.586	84.2077	225.586	84.2021	225.586	83.7802	225.586	83.8508	225.586	83.3691	225.586	83.5474	225.586	83.0225	225.586	83.3312	225.586	82.7824	225.586	83.2287	225.586	82.6758	225.586	83.2481	225.586	82.7101	225.586	83.3777	225.586	82.8724	225.586	83.5899	225.586	83.1336	225.586	83.848	225.586	83.4546	225.586	84.1135	225.586	83.7937	225.586	84.3514	225.586	84.1109	225.586	84.5324	225.586	84.373	225.586	84.6347	225.586	84.5556	225.586	84.6442
232.91	85.4264	232.91	85.3978	232.91	85.3227	232.91	85.2431	232.91	85.0928	232.91	84.9805	232.91	84.7547	232.91	84.6389	232.91	84.3386	232.91	84.2572	232.91	83.8853	232.91	83.8802	232.91	83.4431	232.91	83.554	232.91	83.0628	232.91	83.3184	232.91	82.7894	232.91	83.2001	232.91	82.6536	232.91	83.2067	232.91	82.6658	232.91	83.3265	232.91	82.8144	232.91	83.5321	232.91	83.0696	232.91	83.7872	232.91	83.3907	232.91	84.0531	232.91	83.7331	232.91	84.2937	232.91	84.055	232.91	84.4785	232.91	84.3211	232.91	84.584	232.91	84.5062	232.91	84.5952
241.699	85.4444	241.699	85.4091	241.699	85.3382	241.699	85.2392	241.699	85.0971	241.699	84.9541	241.699	84.7406	241.699	84.5855	241.699	84.3015	241.699	84.1755	241.699	83.824	241.699	83.7731	241.699	83.3611	241.699	83.4291	241.699	82.9674	241.699	83.1868	241.699	82.6908	241.699	83.0743	241.699	82.5625	241.699	83.0978	241.699	82.5909	241.699	83.242	241.699	82.7611	241.699	83.475	241.699	83.0401	241.699	83.7567	241.699	83.3846	241.699	84.0464	241.699	83.748	241.699	84.307	241.699	84.0865	241.699	84.5076	241.699	84.364	241.699	84.6245	241.699	84.5542	241.699	84.6422
250.488	85.5635	250.488	85.5171	250.488	85.4544	250.488	85.3216	250.488	85.1965	250.488	84.9968	250.488	84.8101	250.488	84.5753	250.488	84.3292	250.488	84.1022	250.488	83.8004	250.488	83.6319	250.488	83.2808	250.488	83.223	250.488	82.8315	250.488	82.9286	250.488	82.5079	250.488	82.7848	250.488	82.3487	250.488	82.8016	250.488	82.3659	250.488	82.9614	250.488	82.5439	250.488	83.2262	250.488	82.8444	250.488	83.5476	250.488	83.2169	250.488	83.8775	250.488	83.6088	250.488	84.1733	250.488	83.972	250.488	84.401	250.488	84.2681	250.488	84.5351	250.488	84.4693	250.488	84.5599
259.277	85.8183	259.277	85.767	259.277	85.7092	259.277	85.5613	259.277	85.4471	259.277	85.2214	259.277	85.0539	259.277	84.7806	259.277	84.5648	259.277	84.2844	259.277	84.0274	259.277	83.7882	259.277	83.498	259.277	83.3515	259.277	83.036	259.277	83.0296	259.277	82.6947	259.277	82.8624	259.277	82.5113	259.277	82.8646	259.277	82.5002	259.277	83.0216	259.277	82.6507	259.277	83.2945	259.277	82.9312	259.277	83.6317	259.277	83.2957	259.277	83.9801	259.277	83.6917	259.277	84.2927	259.277	84.0678	259.277	84.5322	259.277	84.3799	259.277	84.6717	259.277	84.5953	259.277	84.6947
268.066	85.8772	268.066	85.7923	268.066	85.7933	268.066	85.547	268.066	85.5469	268.066	85.1641	268.066	85.1594	268.066	84.6804	268.066	84.6676	268.066	84.1447	268.066	84.1225	268.066	83.6152	268.066	83.5862	268.066	83.1533	268.066	83.125	268.066	82.8155	268.066	82.7971	268.066	82.642	268.066	82.6395	268.066	82.6486	268.066	82.6591	268.066	82.8218	268.066	82.8349	268.066	83.1237	268.066	83.1272	268.066	83.5014	268.066	83.4887	268.066	83.8976	268.066	83.871	268.066	84.2603	268.066	84.2283	268.066	84.5472	268.066	84.5195	268.066	84.7279	268.066	84.7121	268.066	84.7844
276.855	86.2423	276.855	86.1713	276.855	86.1395	276.855	85.9325	276.855	85.8706	276.855	85.546	276.855	85.456	276.855	85.0473	276.855	84.929	276.855	84.4874	276.855	84.335	276.855	83.9298	276.855	83.7304	276.855	83.4439	276.855	83.1796	276.855	83.093	276.855	82.7473	276.855	82.9189	276.855	82.4875	276.855	82.931	276.855	82.4297	276.855	83.1058	276.855	82.5687	276.855	83.3962	276.855	82.8664	276.855	83.7467	276.855	83.2633	276.855	84.103	276.855	83.695	276.855	84.4185	276.855	84.1035	276.855	84.6559	276.855	84.4428	276.855	84.7879	276.855	84.6806	276.855	84.7979
287.109	86.3587	287.109	86.2597	287.109	86.2744	287.109	85.9845	287.109	86.0163	287.109	85.556	287.109	85.6099	287.109	85.0129	287.109	85.0959	287.109	84.4085	287.109	84.5275	287.109	83.8074	287.109	83.9663	287.109	83.2803	287.109	83.4753	287.109	82.8938	287.109	83.1097	287.109	82.6968	287.109	82.908	287.109	82.7067	287.109	82.8853	287.109	82.9048	287.109	83.0312	287.109	83.2431	287.109	83.3136	287.109	83.66	287.109	83.6852	287.109	84.0932	287.109	84.091	287.109	84.4887	287.109	84.4758	287.109	84.8028	287.109	84.7902	287.109	85.0032	287.109	84.9961	287.109	85.0699
297.363	86.6563	297.363	86.5875	297.363	86.5293	297.363	86.3307	297.363	86.2147	297.363	85.9095	297.363	85.7382	297.363	85.3619	297.363	85.1432	297.363	84.7391	297.363	84.4911	297.363	84.104	297.363	83.8574	297.363	83.528	297.363	83.3229	297.363	83.0849	297.363	82.9576	297.363	82.8385	297.363	82.8033	297.363	82.8233	297.363	82.8636	297.363	83.0304	297.363	83.1074	297.363	83.4073	297.363	83.4818	297.363	83.877	297.363	83.9261	297.363	84.3609	297.363	84.381	297.363	84.7943	297.363	84.7942	297.363	85.1308	297.363	85.1227	297.363	85.3412	297.363	85.3347	297.363	85.4103
307.617	87.0464	307.617	86.9629	307.617	86.9142	307.617	86.6714	307.617	86.5745	307.617	86.1953	307.617	86.052	307.617	85.5753	307.617	85.3892	307.617	84.869	307.617	84.6476	307.617	84.1497	307.617	83.9066	307.617	83.5002	307.617	83.2567	307.617	83.0008	307.617	82.7836	307.617	82.7134	307.617	82.5468	307.617	82.6654	307.617	82.5616	307.617	82.8427	307.617	82.7973	307.617	83.1948	307.617	83.1919	307.617	83.6503	307.617	83.6713	307.617	84.1344	307.617	84.1644	307.617	84.5809	307.617	84.6099	307.617	84.9378	307.617	84.96	307.617	85.1689	307.617	85.1808	307.617	85.2524
319.336	86.9334	319.336	86.8666	319.336	86.7738	319.336	86.5817	319.336	86.3967	319.336	86.1045	319.336	85.8286	319.336	85.4786	319.336	85.1143	319.336	84.7649	319.336	84.317	319.336	84.0407	319.336	83.5172	319.336	83.3948	319.336	82.8073	319.336	82.9163	319.336	82.2791	319.336	82.675	319.336	82.0044	319.336	82.7002	319.336	82.0142	319.336	82.9684	319.336	82.2881	319.336	83.4126	319.336	82.7636	319.336	83.9458	319.336	83.3561	319.336	84.4833	319.336	83.9796	319.336	84.9547	319.336	84.559	319.336	85.3071	319.336	85.0352	319.336	85.5043	319.336	85.3661	319.336	85.5258
329.59	87.157	329.59	87.1462	329.59	86.9424	329.59	86.9149	329.59	86.5141	329.59	86.4844	329.59	85.901	329.59	85.8929	329.59	85.1496	329.59	85.1949	329.59	84.3241	329.59	84.4604	329.59	83.5042	329.59	83.7709	329.59	82.7795	329.59	83.2134	329.59	82.2368	329.59	82.867	329.59	81.9417	329.59	82.7826	329.59	81.9215	329.59	82.9621	329.59	82.1599	329.59	83.3529	329.59	82.6041	329.59	83.8645	329.59	83.1795	329.59	84.3989	329.59	83.8039	329.59	84.8727	329.59	84.3985	329.59	85.2249	329.59	84.8966	329.59	85.4165	329.59	85.2492	329.59	85.4263
341.309	87.554	341.309	87.5459	341.309	87.3122	341.309	87.299	341.309	86.8283	341.309	86.8425	341.309	86.1296	341.309	86.2239	341.309	85.264	341.309	85.5063	341.309	84.3022	341.309	84.7653	341.309	83.3382	341.309	84.0828	341.309	82.4862	341.309	83.5376	341.309	81.8642	341.309	83.1948	341.309	81.5633	341.309	83.0936	341.309	81.6127	341.309	83.2358	341.309	81.9687	341.309	83.5816	341.309	82.538	341.309	84.057	341.309	83.2149	341.309	84.5728	341.309	83.9065	341.309	85.0434	341.309	84.5397	341.309	85.4003	341.309	85.0588	341.309	85.5963	341.309	85.423	341.309	85.6059
353.027	87.848	353.027	87.8381	353.027	87.6071	353.027	87.5847	353.027	87.1276	353.027	87.1147	353.027	86.4419	353.027	86.4745	353.027	85.6023	353.027	85.7296	353.027	84.6793	353.027	84.9617	353.027	83.7562	353.027	84.261	353.027	82.9226	353.027	83.713	353.027	82.2658	353.027	83.3811	353.027	81.8619	353.027	83.2925	353.027	81.7632	353.027	83.4337	353.027	81.9792	353.027	83.757	353.027	82.4635	353.027	84.1934	353.027	83.1212	353.027	84.6666	353.027	83.8386	353.027	85.1029	353.027	84.512	353.027	85.4394	353.027	85.0643	353.027	85.6277	353.027	85.4466	353.027	85.6353
366.211	88.0345	366.211	87.9586	366.211	87.8199	366.211	87.6017	366.211	87.3282	366.211	86.9973	366.211	86.5957	366.211	86.2035	366.211	85.6823	366.211	85.3037	366.211	84.6739	366.211	84.4038	366.211	83.681	366.211	83.6236	366.211	82.8291	366.211	83.078	366.211	82.233	366.211	82.846	366.211	81.9638	366.211	82.942	366.211	82.0283	366.211	83.3104	366.211	82.3783	366.211	83.8524	366.211	82.9365	366.211	84.463	366.211	83.6165	366.211	85.0529	366.211	84.3309	366.211	85.5553	366.211	84.9974	366.211	85.9218	366.211	85.5473	366.211	86.1188	366.211	85.9321	366.211	86.125
379.395	88.5635	379.395	88.4862	379.395	88.3271	379.395	88.1086	379.395	87.7848	379.395	87.4643	379.395	86.9677	379.395	86.6067	379.395	85.9333	379.395	85.6089	379.395	84.7682	379.395	84.5644	379.395	83.5901	379.395	83.5881	379.395	82.543	379.395	82.8123	379.395	81.7778	379.395	82.3691	379.395	81.4119	379.395	82.3473	379.395	81.4843	379.395	82.7415	379.395	81.941	379.395	83.4428	379.395	82.6682	379.395	84.2886	379.395	83.5375	379.395	85.1257	379.395	84.4336	379.395	85.8404	379.395	85.261	379.395	86.3591	379.395	85.943	379.395	86.6391	379.395	86.4221	379.395	86.6603
392.578	88.8881	392.578	88.7925	392.578	88.6649	392.578	88.3886	392.578	88.1315	392.578	87.7072	392.578	87.3162	392.578	86.8015	392.578	86.2695	392.578	85.749	392.578	85.0692	392.578	84.6519	392.578	83.8266	392.578	83.6323	392.578	82.6879	392.578	82.8206	392.578	81.8189	392.578	82.333	392.578	81.3605	392.578	82.2417	392.578	81.3725	392.578	82.5457	392.578	81.8094	392.578	83.1641	392.578	82.5517	392.578	83.9628	392.578	83.4567	392.578	84.7986	392.578	84.3909	392.578	85.5504	392.578	85.2421	392.578	86.1298	392.578	85.9238	392.578	86.4788	392.578	86.376	392.578	86.5645
405.762	89.0529	405.762	88.9147	405.762	88.8479	405.762	88.4471	405.762	88.3094	405.762	87.6889	405.762	87.4689	405.762	86.7063	405.762	86.3809	405.762	85.5924	405.762	85.1265	405.762	84.4634	405.762	83.8198	405.762	83.4496	405.762	82.6135	405.762	82.6829	405.762	81.6902	405.762	82.2779	405.762	81.2172	405.762	82.3005	405.762	81.2678	405.762	82.7295	405.762	81.7751	405.762	83.4498	405.762	82.5807	405.762	84.3002	405.762	83.5214	405.762	85.1341	405.762	84.4689	405.762	85.8472	405.762	85.3271	405.762	86.3731	405.762	86.0206	405.762	86.6703	405.762	86.4938	405.762	86.7137
420.41	89.6066	420.41	89.5057	420.41	89.3357	420.41	89.0466	420.41	88.706	420.41	88.269	420.41	87.758	420.41	87.2391	420.41	86.5607	420.41	86.0489	420.41	85.2124	420.41	84.8123	420.41	83.8396	420.41	83.6574	420.41	82.5921	420.41	82.7151	420.41	81.6317	420.41	82.1103	420.41	81.1079	420.41	81.9447	420.41	81.1076	420.41	82.2554	420.41	81.5968	420.41	82.9663	420.41	82.4257	420.41	83.9036	420.41	83.4096	420.41	84.8723	420.41	84.3996	420.41	85.7187	420.41	85.294	420.41	86.3444	420.41	86.0197	420.41	86.6965	420.41	86.5203	420.41	86.754
435.059	89.4436	435.059	89.312	435.059	89.2135	435.059	88.8329	435.059	88.634	435.059	88.0455	435.059	87.7462	435.059	87.014	435.059	86.6215	435.059	85.8272	435.059	85.3596	435.059	84.5979	435.059	84.0797	435.059	83.4567	435.059	82.9075	435.059	82.5415	435.059	81.9656	435.059	81.9774	435.059	81.376	435.059	81.8501	435.059	81.2548	435.059	82.1767	435.059	81.659	435.059	82.8889	435.059	82.5098	435.059	83.8459	435.059	83.6063	435.059	84.8755	435.059	84.7307	435.059	85.8198	435.059	85.7246	435.059	86.56	435.059	86.494	435.059	87.0209	435.059	86.9847	435.059	87.165
451.172	89.7733	451.172	89.5694	451.172	89.5681	451.172	88.9703	451.172	88.9619	451.172	88.0158	451.172	87.9843	451.172	86.7776	451.172	86.6915	451.172	85.365	451.172	85.1765	451.172	83.9244	451.172	83.5829	451.172	82.6249	451.172	82.1144	451.172	81.6315	451.172	81.0139	451.172	81.0799	451.172	80.4863	451.172	81.0567	451.172	80.5947	451.172	81.5564	451.172	81.2315	451.172	82.4415	451.172	82.1964	451.172	83.4924	451.172	83.2881	451.172	84.5106	451.172	84.3443	451.172	85.3693	451.172	85.2493	451.172	86.0042	451.172	85.9313	451.172	86.3873	451.172	86.3542	451.172	86.5061
465.82	89.9512	465.82	89.7752	465.82	89.7043	465.82	89.1794	465.82	89.0562	465.82	88.1966	465.82	88.0505	465.82	86.8958	465.82	86.753	465.82	85.3896	465.82	85.2527	465.82	83.8374	465.82	83.6668	465.82	82.4329	465.82	82.1484	465.82	81.3703	465.82	80.8942	465.82	80.7985	465.82	80.1364	465.82	80.7937	465.82	80.0734	465.82	81.3493	465.82	80.7308	465.82	82.3614	465.82	81.9112	465.82	83.6369	465.82	83.3275	465.82	84.9539	465.82	84.737	465.82	86.1255	465.82	85.9723	465.82	87.025	465.82	86.925	465.82	87.5789	465.82	87.5292	465.82	87.7506
483.398	90.6937	483.398	90.5351	483.398	90.3941	483.398	89.9218	483.398	89.6606	483.398	88.8876	483.398	88.5449	483.398	87.4987	483.398	87.1245	483.398	85.8575	483.398	85.5015	483.398	84.1029	483.398	83.8022	483.398	82.405	483.398	82.1769	483.398	80.9534	483.398	80.8014	483.398	79.9515	483.398	79.8775	483.398	79.6151	483.398	79.621	483.398	80.0931	483.398	80.155	483.398	81.2879	483.398	81.3444	483.398	82.8531	483.398	82.8532	483.398	84.4283	483.398	84.3686	483.398	85.7818	483.398	85.6927	483.398	86.7941	483.398	86.7124	483.398	87.4079	483.398	87.3605	483.398	87.5979
499.512	90.9064	499.512	90.7385	499.512	90.5898	499.512	90.0997	499.512	89.7948	499.512	89.0244	499.512	88.5518	499.512	87.574	499.512	86.9271	499.512	85.8497	499.512	85.0411	499.512	84.0067	499.512	83.0867	499.512	82.2578	499.512	81.3253	499.512	80.8492	499.512	80.0296	499.512	80.0077	499.512	79.3942	499.512	79.889	499.512	79.4865	499.512	80.5185	499.512	80.2459	499.512	81.7346	499.512	81.4959	499.512	83.2423	499.512	82.9947	499.512	84.7542	499.512	84.5086	499.512	86.0673	499.512	85.8537	499.512	87.0588	499.512	86.9033	499.512	87.6595	499.512	87.5783	499.512	87.8355
517.09	90.7673	517.09	90.6185	517.09	90.4193	517.09	89.9745	517.09	89.5905	517.09	88.8583	517.09	88.3191	517.09	87.3249	517.09	86.6756	517.09	85.4792	517.09	84.7732	517.09	83.487	517.09	82.7703	517.09	81.5645	517.09	80.8603	517.09	79.9404	517.09	79.2519	517.09	78.8276	517.09	78.1686	517.09	78.4344	517.09	77.866	517.09	78.9156	517.09	78.5171	517.09	80.1889	517.09	79.9508	517.09	81.8925	517.09	81.7229	517.09	83.6212	517.09	83.451	517.09	85.1031	517.09	84.9252	517.09	86.1985	517.09	86.0455	517.09	86.8478	517.09	86.759	517.09	87.033
536.133	91.0123	536.133	90.8335	536.133	90.6315	536.133	90.1138	536.133	89.708	536.133	88.9081	536.133	88.2981	536.133	87.3094	536.133	86.5043	536.133	85.4532	536.133	84.4827	536.133	83.5168	536.133	82.4448	536.133	81.7049	536.133	80.6305	536.133	80.2108	536.133	79.2347	536.133	79.1796	536.133	78.3531	536.133	78.7414	536.133	78.0723	536.133	79.0715	536.133	78.5648	536.133	80.2421	536.133	79.868	536.133	81.978	536.133	81.668	536.133	83.82	536.133	83.5399	536.133	85.4275	536.133	85.1899	536.133	86.6285	536.133	86.4578	536.133	87.3498	536.133	87.2618	536.133	87.5631
555.176	91.583	555.176	91.3032	555.176	91.2378	555.176	90.4202	555.176	90.2721	555.176	88.9854	555.176	88.7182	555.176	87.0878	555.176	86.6495	555.176	84.866	555.176	84.2102	555.176	82.5267	555.176	81.6613	555.176	80.3497	555.176	79.3884	555.176	78.6274	555.176	77.7589	555.176	77.5506	555.176	76.9151	555.176	77.2403	555.176	76.8823	555.176	77.8755	555.176	77.7692	555.176	79.471	555.176	79.4952	555.176	81.6227	555.176	81.6224	555.176	83.8115	555.176	83.7106	555.176	85.6925	555.176	85.5114	555.176	87.0879	555.176	86.9001	555.176	87.9157	555.176	87.7985	555.176	88.1494
574.219	91.8813	574.219	91.5266	574.219	91.5175	574.219	90.4769	574.219	90.4328	574.219	88.7828	574.219	88.6562	574.219	86.5466	574.219	86.278	574.219	83.9688	574.219	83.5015	574.219	81.3904	574.219	80.6855	574.219	79.2283	574.219	78.2324	574.219	77.7038	574.219	76.2976	574.219	76.7029	574.219	74.8322	574.219	76.1778	574.219	74.1603	574.219	76.5873	574.219	75.0703	574.219	78.2987	574.219	77.4231	574.219	80.7075	574.219	80.2019	574.219	83.057	574.219	82.7843	574.219	85.0178	574.219	84.9225	574.219	86.4858	574.219	86.4945	574.219	87.4077	574.219	87.4382	574.219	87.7372
594.727	92.5745	594.727	92.3627	594.727	92.0617	594.727	91.4413	594.727	90.8323	594.727	89.8483	594.727	88.9334	594.727	87.6603	594.727	86.4869	594.727	85.0284	594.727	83.7455	594.727	82.2354	594.727	81.1306	594.727	79.7124	594.727	79.092	594.727	77.8347	594.727	77.7485	594.727	76.5966	594.727	76.8072	594.727	75.7131	594.727	75.9293	594.727	75.2026	594.727	75.1408	594.727	76.0305	594.727	75.2907	594.727	78.6932	594.727	77.3439	594.727	81.8047	594.727	80.4078	594.727	84.3742	594.727	83.2501	594.727	86.1684	594.727	85.4154	594.727	87.1687	594.727	86.797	594.727	87.3795
615.234	92.659	615.234	92.3586	615.234	92.1382	615.234	91.2536	615.234	90.8185	615.234	89.4002	615.234	88.7763	615.234	86.927	615.234	86.1878	615.234	84.1493	615.234	83.4365	615.234	81.7084	615.234	81.1637	615.234	80.2091	615.234	79.8431	615.234	79.4769	615.234	79.2799	615.234	79.0354	615.234	78.9817	615.234	78.818	615.234	78.6036	615.234	78.9668	615.234	78.1991	615.234	79.5118	615.234	78.4877	615.234	80.64	615.234	80.0886	615.234	82.5991	615.234	82.4473	615.234	84.9291	615.234	84.8018	615.234	86.8916	615.234	86.731	615.234	88.1083	615.234	87.9983	615.234	88.4762
637.207	91.0254	637.207	90.7352	637.207	90.5876	637.207	89.7428	637.207	89.482	637.207	88.1781	637.207	87.8539	637.207	86.3229	637.207	85.9433	637.207	84.618	637.207	84.097	637.207	83.4069	637.207	82.6703	637.207	82.6128	637.207	81.7577	637.207	81.9124	637.207	81.1351	637.207	81.0487	637.207	80.4913	637.207	79.9447	637.207	79.5954	637.207	78.8907	637.207	78.5825	637.207	78.7414	637.207	78.4367	637.207	80.0116	637.207	79.8614	637.207	81.9812	637.207	81.8484	637.207	83.8779	637.207	83.6238	637.207	85.3623	637.207	85.0611	637.207	86.2715	637.207	86.0749	637.207	86.5117
659.18	90.6783	659.18	90.2951	659.18	90.3963	659.18	89.3444	659.18	89.4124	659.18	87.9704	659.18	87.808	659.18	86.3521	659.18	85.878	659.18	84.6765	659.18	84.1052	659.18	83.131	659.18	82.8083	659.18	81.8993	659.18	81.8974	659.18	81.0753	659.18	81.1687	659.18	80.5627	659.18	80.515	659.18	80.13	659.18	79.8496	659.18	79.6179	659.18	79.0861	659.18	79.1817	659.18	78.4103	659.18	79.5013	659.18	78.5804	659.18	81.1417	659.18	79.9861	659.18	83.2879	659.18	81.8425	659.18	84.8877	659.18	83.4868	659.18	85.5991	659.18	84.732	659.18	85.4874
682.617	90.637	682.617	90.448	682.617	90.156	682.617	89.5834	682.617	89.0929	682.617	88.1307	682.617	87.5779	682.617	86.2581	682.617	85.7638	682.617	84.1979	682.617	83.8792	682.617	82.2176	682.617	82.2263	682.617	80.5114	682.617	80.9853	682.617	79.0968	682.617	80.1488	682.617	77.9799	682.617	79.5685	682.617	77.2337	682.617	78.9139	682.617	76.9114	682.617	78.0494	682.617	77.4516	682.617	78.0114	682.617	79.1204	682.617	79.8033	682.617	81.0723	682.617	81.9688	682.617	82.6893	682.617	83.5449	682.617	83.9811	682.617	84.5836	682.617	84.9335	682.617	85.2174	682.617	85.3691
707.52	90.2515	707.52	89.9209	707.52	89.8121	707.52	88.8444	707.52	88.7125	707.52	87.1547	707.52	87.1859	707.52	85.0766	707.52	85.4952	707.52	82.919	707.52	83.8026	707.52	81.0126	707.52	82.1565	707.52	79.5498	707.52	80.621	707.52	78.4942	707.52	79.3944	707.52	77.7196	707.52	78.7597	707.52	77.2491	707.52	78.7263	707.52	77.3395	707.52	78.7197	707.52	78.0552	707.52	78.301	707.52	79.3182	707.52	78.5292	707.52	81.0716	707.52	80.5855	707.52	82.7304	707.52	82.8634	707.52	83.8201	707.52	84.2574	707.52	84.409	707.52	84.7762	707.52	84.732
732.422	90.5598	732.422	90.4231	732.422	89.9636	732.422	89.5106	732.422	88.7021	732.422	87.854	732.422	86.8617	732.422	85.6754	732.422	84.6006	732.422	83.4434	732.422	82.3152	732.422	81.5557	732.422	80.5978	732.422	79.9969	732.422	79.5809	732.422	78.6473	732.422	78.8183	732.422	77.4672	732.422	77.9586	732.422	76.284	732.422	76.9481	732.422	74.9695	732.422	75.8835	732.422	73.9679	732.422	75.0061	732.422	74.8214	732.422	75.5081	732.422	77.9578	732.422	78.2306	732.422	81.3431	732.422	81.1267	732.422	83.7607	732.422	83.155	732.422	84.9627	732.422	84.4318	732.422	85.0903
757.324	91.0236	757.324	90.4334	757.324	90.7295	757.324	89.105	757.324	89.5409	757.324	87.3193	757.324	87.5836	757.324	85.3639	757.324	85.2401	757.324	83.4405	757.324	83.2014	757.324	81.8466	757.324	81.925	757.324	80.9434	757.324	81.1781	757.324	80.5307	757.324	80.6613	757.324	79.9367	757.324	80.2547	757.324	78.8196	757.324	79.6509	757.324	77.5041	757.324	78.515	757.324	76.7725	757.324	77.1408	757.324	76.8618	757.324	76.4669	757.324	77.7312	757.324	76.8797	757.324	79.7905	757.324	78.7212	757.324	82.0889	757.324	81.3098	757.324	83.553	757.324	83.1956	757.324	83.9343
785.156	90.7027	785.156	90.5054	785.156	90.1469	785.156	89.474	785.156	88.9472	785.156	87.5985	785.156	87.2558	785.156	85.1017	785.156	85.2636	785.156	82.5865	785.156	83.2014	785.156	80.6558	785.156	81.3791	785.156	79.2711	785.156	80.1263	785.156	78.1157	785.156	79.5451	785.156	77.2688	785.156	79.3424	785.156	77.0143	785.156	79.149	785.156	77.0865	785.156	78.7722	785.156	77.0439	785.156	78.0684	785.156	77.4997	785.156	77.7085	785.156	79.241	785.156	78.9631	785.156	81.3319	785.156	80.5965	785.156	82.7686	785.156	81.5706	785.156	83.2656	785.156	82.2797	785.156	82.9634
811.523	91.0107	811.523	90.7638	811.523	90.446	811.523	89.6992	811.523	89.1207	811.523	87.9712	811.523	87.0818	811.523	85.8689	811.523	84.5782	811.523	83.5988	811.523	82.3432	811.523	81.3784	811.523	80.8717	811.523	79.8878	811.523	79.7869	811.523	79.5149	811.523	79.0823	811.523	79.2919	811.523	78.8413	811.523	78.0684	811.523	78.4902	811.523	76.0151	811.523	77.6679	811.523	74.9671	811.523	77.1605	811.523	75.1495	811.523	77.3073	811.523	76.2037	811.523	77.3114	811.523	78.8961	811.523	78.3803	811.523	81.2921	811.523	80.3029	811.523	82.3088	811.523	81.603	811.523	82.2612
840.82	90.1513	840.82	89.6791	840.82	89.6905	840.82	88.3122	840.82	88.326	840.82	86.199	840.82	86.2553	840.82	83.7065	840.82	83.9605	840.82	81.4485	840.82	81.9259	840.82	79.9146	840.82	80.2221	840.82	78.9818	840.82	78.8322	840.82	78.419	840.82	78.0503	840.82	78.3036	840.82	78.1609	840.82	78.3684	840.82	78.7398	840.82	78.0087	840.82	78.8114	840.82	77.4025	840.82	78.2009	840.82	77.5417	840.82	78.0727	840.82	78.578	840.82	79.3006	840.82	80.2343	840.82	81.1918	840.82	82.0803	840.82	83.015	840.82	83.5602	840.82	84.1698	840.82	84.3333
870.117	90.5341	870.117	90.0992	870.117	90.0863	870.117	88.9162	870.117	88.6876	870.117	87.0384	870.117	86.3582	870.117	84.532	870.117	83.2459	870.117	81.9545	870.117	80.0413	870.117	80.1739	870.117	78.0667	870.117	79.1818	870.117	77.5974	870.117	78.3118	870.117	77.6407	870.117	77.2062	870.117	77.3652	870.117	76.0814	870.117	76.4924	870.117	75.309	870.117	75.7504	870.117	74.9309	870.117	75.7082	870.117	75.299	870.117	75.9305	870.117	77.5005	870.117	77.8788	870.117	80.6648	870.117	80.7561	870.117	82.9765	870.117	82.5467	870.117	83.9361	870.117	83.3869	870.117	83.8797
900.879	90.363	900.879	90.0962	900.879	89.8245	900.879	88.8376	900.879	88.5078	900.879	86.6802	900.879	86.3399	900.879	84.1918	900.879	83.7617	900.879	81.8032	900.879	81.7239	900.879	79.4863	900.879	80.5219	900.879	77.7022	900.879	79.8958	900.879	77.2147	900.879	79.5005	900.879	77.6345	900.879	79.3151	900.879	77.6668	900.879	79.4195	900.879	76.7536	900.879	78.9619	900.879	75.5355	900.879	77.3855	900.879	75.5133	900.879	76.2788	900.879	77.1374	900.879	77.8586	900.879	79.513	900.879	80.3606	900.879	81.8716	900.879	82.4836	900.879	83.4892	900.879	83.7379	900.879	84.0789
933.105	90.908	933.105	90.8211	933.105	90.0514	933.105	89.66	933.105	88.4394	933.105	87.6106	933.105	86.021	933.105	85.0363	933.105	82.8633	933.105	82.3918	933.105	79.8063	933.105	80.2554	933.105	77.9515	933.105	78.7542	933.105	77.0548	933.105	77.4568	933.105	76.4985	933.105	76.7296	933.105	76.8688	933.105	77.1542	933.105	78.2907	933.105	77.178	933.105	79.019	933.105	75.6208	933.105	78.1667	933.105	74.5651	933.105	77.3821	933.105	76.0461	933.105	78.1521	933.105	78.5232	933.105	79.1193	933.105	81.3604	933.105	80.4918	933.105	83.1522	933.105	82.201	933.105	83.3216
965.332	92.0239	965.332	91.727	965.332	91.4332	965.332	90.4706	965.332	89.7964	965.332	88.3041	965.332	87.008	965.332	85.5269	965.332	83.6766	965.332	82.269	965.332	80.4441	965.332	78.3883	965.332	77.3011	965.332	74.8234	965.332	76.1523	965.332	74.2271	965.332	77.2742	965.332	75.6764	965.332	77.6624	965.332	76.3923	965.332	77.0838	965.332	76.4174	965.332	77.2244	965.332	76.5725	965.332	77.8311	965.332	75.8368	965.332	77.6063	965.332	74.5895	965.332	77.0796	965.332	76.8995	965.332	79.3063	965.332	80.0948	965.332	81.8556	965.332	81.7359	965.332	82.6921	965.332	82.4448
1,000.49	90.9388	1,000.49	90.3904	1,000.49	90.178	1,000.49	88.7714	1,000.49	88.2255	1,000.49	86.1823	1,000.49	85.6857	1,000.49	82.439	1,000.49	83.0032	1,000.49	77.7808	1,000.49	80.5644	1,000.49	74.6617	1,000.49	79.4592	1,000.49	74.6491	1,000.49	79.4617	1,000.49	74.4844	1,000.49	79.428	1,000.49	74.9075	1,000.49	79.589	1,000.49	76.3863	1,000.49	80.1704	1,000.49	77.0955	1,000.49	80.2902	1,000.49	76.8418	1,000.49	79.2912	1,000.49	77.01	1,000.49	77.8892	1,000.49	77.4173	1,000.49	77.548	1,000.49	77.3793	1,000.49	77.4234	1,000.49	77.7051	1,000.49	78.698	1,000.49	79.0055	1,000.49	80.5561	1,000.49	80.5257
1,035.64	90.6972	1,035.64	90.3115	1,035.64	90.0368	1,035.64	88.7302	1,035.64	88.4195	1,035.64	86.1171	1,035.64	85.7279	1,035.64	83.2291	1,035.64	82.201	1,035.64	81.084	1,035.64	78.8316	1,035.64	79.7786	1,035.64	75.4182	1,035.64	78.3716	1,035.64	71.3556	1,035.64	76.378	1,035.64	69.1464	1,035.64	75.3126	1,035.64	71.346	1,035.64	76.4076	1,035.64	74.9835	1,035.64	77.5362	1,035.64	77.7194	1,035.64	77.768	1,035.64	79.5524	1,035.64	78.7492	1,035.64	80.7796	1,035.64	80.2721	1,035.64	81.5123	1,035.64	81.1078	1,035.64	81.8384	1,035.64	81.6517	1,035.64	81.367	1,035.64	81.8313	1,035.64	80.6559	1,035.64	81.1064
1,072.27	89.1807	1,072.27	88.063	1,072.27	88.8514	1,072.27	86.4608	1,072.27	87.0095	1,072.27	84.1382	1,072.27	84.9537	1,072.27	80.7188	1,072.27	82.717	1,072.27	77.14	1,072.27	79.5297	1,072.27	73.9296	1,072.27	76.3753	1,072.27	72.4255	1,072.27	74.7381	1,072.27	73.2254	1,072.27	73.9236	1,072.27	73.9044	1,072.27	71.2459	1,072.27	73.4697	1,072.27	67.5192	1,072.27	73.6354	1,072.27	72.2602	1,072.27	75.7238	1,072.27	75.906	1,072.27	78.2488	1,072.27	78.6195	1,072.27	80.8333	1,072.27	80.3927	1,072.27	83.1763	1,072.27	81.9182	1,072.27	84.547	1,072.27	84.0013	1,072.27	85.0967	1,072.27	85.1127	1,072.27	85.2481
1,108.89	90.7757	1,108.89	90.593	1,108.89	90.0457	1,108.89	89.0328	1,108.89	88.6488	1,108.89	86.367	1,108.89	86.2533	1,108.89	83.3409	1,108.89	83.311	1,108.89	80.0143	1,108.89	80.4711	1,108.89	76.7204	1,108.89	75.7558	1,108.89	74.7729	1,108.89	66.8321	1,108.89	74.5559	1,108.89	64.3463	1,108.89	74.8148	1,108.89	69.5489	1,108.89	75.0529	1,108.89	67.0081	1,108.89	75.5067	1,108.89	62.9174	1,108.89	77.3055	1,108.89	73.0391	1,108.89	79.9487	1,108.89	77.5784	1,108.89	82.9745	1,108.89	81.7406	1,108.89	85.9927	1,108.89	84.5338	1,108.89	87.4395	1,108.89	86.1817	1,108.89	87.8738	1,108.89	87.4381	1,108.89	88.0137
1,148.44	90.8168	1,148.44	90.0887	1,148.44	90.0876	1,148.44	87.9552	1,148.44	87.6541	1,148.44	83.7905	1,148.44	84.1544	1,148.44	77.1888	1,148.44	80.0691	1,148.44	65.5541	1,148.44	76.1332	1,148.44	67.47	1,148.44	70.8726	1,148.44	70.3783	1,148.44	61.7134	1,148.44	65.5848	1,148.44	63.8887	1,148.44	57.6606	1,148.44	65.7573	1,148.44	60.6661	1,148.44	68.9781	1,148.44	64.9848	1,148.44	69.2556	1,148.44	65.9402	1,148.44	60.7668	1,148.44	74.7738	1,148.44	75.2711	1,148.44	81.1047	1,148.44	79.8806	1,148.44	84.8334	1,148.44	82.2872	1,148.44	86.8039	1,148.44	84.6914	1,148.44	87.4085	1,148.44	86.2498	1,148.44	87.0784
1,189.45	90.1066	1,189.45	89.3222	1,189.45	89.1883	1,189.45	86.9352	1,189.45	87.0343	1,189.45	83.2425	1,189.45	83.3431	1,189.45	77.3167	1,189.45	77.3519	1,189.45	56.3924	1,189.45	67.2192	1,189.45	70.7532	1,189.45	65.1786	1,189.45	72.8585	1,189.45	72.5708	1,189.45	74.2248	1,189.45	70.4036	1,189.45	74.4933	1,189.45	69.9375	1,189.45	70.4003	1,189.45	72.9935	1,189.45	64.8258	1,189.45	72.5318	1,189.45	68.6927	1,189.45	72.1761	1,189.45	73.0619	1,189.45	69.6707	1,189.45	77.3472	1,189.45	72.6094	1,189.45	81.2229	1,189.45	77.733	1,189.45	83.2815	1,189.45	80.4735	1,189.45	83.857	1,189.45	82.8572	1,189.45	83.8231
1,230.47	89.1665	1,230.47	88.6287	1,230.47	88.642	1,230.47	87.0513	1,230.47	87.1034	1,230.47	84.2295	1,230.47	84.3872	1,230.47	79.9398	1,230.47	78.7599	1,230.47	76.9097	1,230.47	67.2815	1,230.47	77.5936	1,230.47	69.6692	1,230.47	77.6065	1,230.47	71.7697	1,230.47	76.0091	1,230.47	72.9393	1,230.47	73.3469	1,230.47	73.648	1,230.47	71.0306	1,230.47	76.8512	1,230.47	71.7302	1,230.47	78.5886	1,230.47	75.8287	1,230.47	77.0888	1,230.47	75.8248	1,230.47	70.9838	1,230.47	72.2768	1,230.47	64.0991	1,230.47	77.1449	1,230.47	74.7123	1,230.47	80.6238	1,230.47	78.5696	1,230.47	81.7232	1,230.47	80.3748	1,230.47	81.4779
1,274.41	90.1989	1,274.41	89.7436	1,274.41	89.6164	1,274.41	88.1981	1,274.41	87.9343	1,274.41	85.4029	1,274.41	84.8133	1,274.41	81.3812	1,274.41	79.7186	1,274.41	75.5309	1,274.41	70.4626	1,274.41	69.9465	1,274.41	58.7227	1,274.41	69.6264	1,274.41	66.5945	1,274.41	71.7676	1,274.41	65.0843	1,274.41	73.3053	1,274.41	64.5568	1,274.41	68.5657	1,274.41	71.9689	1,274.41	66.8184	1,274.41	75.288	1,274.41	70.2805	1,274.41	76.9064	1,274.41	66.4137	1,274.41	75.5275	1,274.41	54.6471	1,274.41	67.2575	1,274.41	70.8506	1,274.41	71.3497	1,274.41	77.0871	1,274.41	76.3742	1,274.41	79.3044	1,274.41	78.1848	1,274.41	79.1306
1,319.82	90.7286	1,319.82	90.2772	1,319.82	89.6891	1,319.82	88.6817	1,319.82	87.5648	1,319.82	86.1506	1,319.82	83.1188	1,319.82	80.9398	1,319.82	73.0343	1,319.82	72.0679	1,319.82	71.1315	1,319.82	67.9373	1,319.82	75.7721	1,319.82	72.7827	1,319.82	77.6907	1,319.82	75.1753	1,319.82	75.9125	1,319.82	74.4	1,319.82	71.0431	1,319.82	72.9432	1,319.82	68.1221	1,319.82	67.8012	1,319.82	68.2993	1,319.82	72.9213	1,319.82	73.2771	1,319.82	71.6133	1,319.82	68.7849	1,319.82	66.0513	1,319.82	65.9394	1,319.82	66.7592	1,319.82	74.3436	1,319.82	75.9971	1,319.82	78.3072	1,319.82	78.4519	1,319.82	80.2417	1,319.82	79.4537
1,366.7	90.8782	1,366.7	90.6192	1,366.7	89.8556	1,366.7	88.8328	1,366.7	87.7265	1,366.7	85.5174	1,366.7	82.8461	1,366.7	78.9483	1,366.7	71.8016	1,366.7	60.2117	1,366.7	70.1304	1,366.7	71.9809	1,366.7	74.3283	1,366.7	77.1738	1,366.7	75.7235	1,366.7	77.5127	1,366.7	74.8585	1,366.7	75.6395	1,366.7	67.3109	1,366.7	73.8377	1,366.7	61.9121	1,366.7	69.9054	1,366.7	69.9693	1,366.7	71.5199	1,366.7	74.1115	1,366.7	72.0108	1,366.7	74.6478	1,366.7	64.0493	1,366.7	67.6806	1,366.7	58.6985	1,366.7	69.722	1,366.7	70.9544	1,366.7	77.9904	1,366.7	75.837	1,366.7	79.8947	1,366.7	78.6869
1,413.57	90.3592	1,413.57	89.8975	1,413.57	89.697	1,413.57	88.0603	1,413.57	87.4796	1,413.57	84.4248	1,413.57	82.2571	1,413.57	76.9535	1,413.57	76.0391	1,413.57	60.2183	1,413.57	74.8552	1,413.57	73.7461	1,413.57	76.7897	1,413.57	79.1954	1,413.57	77.8045	1,413.57	80.0565	1,413.57	77.5028	1,413.57	79.811	1,413.57	74.6179	1,413.57	78.3015	1,413.57	70.3367	1,413.57	75.3947	1,413.57	64.0568	1,413.57	72.9421	1,413.57	75.5733	1,413.57	71.7639	1,413.57	78.5336	1,413.57	65.621	1,413.57	76.4028	1,413.57	45.1048	1,413.57	71.1343	1,413.57	73.7799	1,413.57	71.7423	1,413.57	77.8452	1,413.57	78.1328	1,413.57	79.0185
1,463.38	90.0681	1,463.38	89.2988	1,463.38	89.1616	1,463.38	86.6662	1,463.38	86.1986	1,463.38	82.4982	1,463.38	80.1163	1,463.38	72.8693	1,463.38	75.5366	1,463.38	58.8264	1,463.38	73.9067	1,463.38	68.4783	1,463.38	76.1384	1,463.38	76.4703	1,463.38	76.2097	1,463.38	78.335	1,463.38	77.0546	1,463.38	75.3651	1,463.38	74.4522	1,463.38	73.7897	1,463.38	72.1521	1,463.38	73.9638	1,463.38	66.312	1,463.38	73.6731	1,463.38	69.2038	1,463.38	73.6802	1,463.38	76.8763	1,463.38	69.6752	1,463.38	77.8478	1,463.38	73.7396	1,463.38	73.3623	1,463.38	73.6124	1,463.38	65.6716	1,463.38	75.4427	1,463.38	72.6589	1,463.38	76.4539
1,516.11	91.1625	1,516.11	90.041	1,516.11	90.3669	1,516.11	86.5898	1,516.11	87.5729	1,516.11	80.8561	1,516.11	82.1527	1,516.11	73.8205	1,516.11	73.6837	1,516.11	73.6241	1,516.11	58.5405	1,516.11	72.9706	1,516.11	63.3216	1,516.11	73.2218	1,516.11	70.353	1,516.11	72.5056	1,516.11	75.5752	1,516.11	72.8709	1,516.11	76.7535	1,516.11	69.3105	1,516.11	73.4132	1,516.11	68.9391	1,516.11	71.4469	1,516.11	67.4405	1,516.11	62.2223	1,516.11	66.0363	1,516.11	68.0081	1,516.11	57.0276	1,516.11	72.4733	1,516.11	74.2637	1,516.11	73.9061	1,516.11	76.4147	1,516.11	75.9803	1,516.11	78.104	1,516.11	77.344	1,516.11	78.3377
1,568.85	91.3543	1,568.85	89.8693	1,568.85	90.8682	1,568.85	85.9744	1,568.85	88.0108	1,568.85	78.8143	1,568.85	83.0037	1,568.85	61.2822	1,568.85	74.9763	1,568.85	72.0918	1,568.85	65.7205	1,568.85	73.9334	1,568.85	73.7117	1,568.85	74.9042	1,568.85	74.6039	1,568.85	73.0404	1,568.85	75.9958	1,568.85	72.0297	1,568.85	76.9232	1,568.85	74.26	1,568.85	77.1894	1,568.85	72.3159	1,568.85	74.8585	1,568.85	71.029	1,568.85	66.0798	1,568.85	71.0732	1,568.85	66.0856	1,568.85	67.9801	1,568.85	65.098	1,568.85	69.1059	1,568.85	68.8568	1,568.85	75.3865	1,568.85	74.831	1,568.85	78.3676	1,568.85	76.2127	1,568.85	77.6745
1,624.51	91.768	1,624.51	90.6407	1,624.51	91.2941	1,624.51	87.7792	1,624.51	88.0801	1,624.51	80.1716	1,624.51	82.1665	1,624.51	65.39	1,624.51	69.8065	1,624.51	71.0928	1,624.51	64.5115	1,624.51	73.4064	1,624.51	75.71	1,624.51	74.1071	1,624.51	76.3185	1,624.51	73.8482	1,624.51	75.8593	1,624.51	72.3126	1,624.51	78.1123	1,624.51	73.2785	1,624.51	76.6493	1,624.51	70.5065	1,624.51	74.9063	1,624.51	66.3993	1,624.51	70.9332	1,624.51	66.4159	1,624.51	71.6811	1,624.51	71.305	1,624.51	73.4539	1,624.51	67.4173	1,624.51	65.8507	1,624.51	72.4803	1,624.51	69.7491	1,624.51	76.2808	1,624.51	75.7545	1,624.51	77.6791
1,681.64	91.7952	1,681.64	90.9276	1,681.64	90.548	1,681.64	87.525	1,681.64	87.3261	1,681.64	80.2366	1,681.64	80.4164	1,681.64	69.0025	1,681.64	64.5967	1,681.64	74.6941	1,681.64	72.0948	1,681.64	75.4232	1,681.64	70.4446	1,681.64	74.4593	1,681.64	72.5662	1,681.64	74.5459	1,681.64	69.3852	1,681.64	75.1483	1,681.64	74.2318	1,681.64	74.6242	1,681.64	76.5209	1,681.64	74.5521	1,681.64	75.9711	1,681.64	73.5471	1,681.64	70.5705	1,681.64	66.3523	1,681.64	57.0305	1,681.64	65.5649	1,681.64	71.5711	1,681.64	67.8072	1,681.64	72.3592	1,681.64	75.5479	1,681.64	76.4262	1,681.64	78.1582	1,681.64	78.5857	1,681.64	78.854
1,741.7	90.6804	1,741.7	89.9261	1,741.7	89.3762	1,741.7	87.3861	1,741.7	85.9442	1,741.7	81.4467	1,741.7	80.3088	1,741.7	62.7241	1,741.7	58.066	1,741.7	71.4051	1,741.7	70.671	1,741.7	73.9377	1,741.7	72.4644	1,741.7	75.4909	1,741.7	74.5644	1,741.7	74.984	1,741.7	71.1756	1,741.7	74.7669	1,741.7	71.7559	1,741.7	72.7529	1,741.7	71.2452	1,741.7	70.8412	1,741.7	73.4781	1,741.7	72.925	1,741.7	70.1214	1,741.7	68.3397	1,741.7	56.3278	1,741.7	50.7878	1,741.7	69.8777	1,741.7	66.5902	1,741.7	74.4446	1,741.7	74.6244	1,741.7	75.2654	1,741.7	78.6959	1,741.7	76.5624	1,741.7	78.822
1,803.22	91.1115	1,803.22	90.3571	1,803.22	89.5226	1,803.22	86.8991	1,803.22	86.322	1,803.22	80.8806	1,803.22	78.73	1,803.22	68.7926	1,803.22	68.3507	1,803.22	73.0405	1,803.22	66.8115	1,803.22	74.0917	1,803.22	73.7515	1,803.22	75.4787	1,803.22	75.7635	1,803.22	76.2283	1,803.22	76.746	1,803.22	77.7992	1,803.22	73.8038	1,803.22	75.6219	1,803.22	68.6338	1,803.22	71.1131	1,803.22	70.8062	1,803.22	74.5486	1,803.22	72.2263	1,803.22	72.7808	1,803.22	71.8053	1,803.22	68.0341	1,803.22	68.0112	1,803.22	68.2474	1,803.22	70.4484	1,803.22	72.4943	1,803.22	73.4943	1,803.22	76.0367	1,803.22	76.1932	1,803.22	76.5835
1,866.21	91.1866	1,866.21	89.9402	1,866.21	89.8635	1,866.21	87.6209	1,866.21	85.8343	1,866.21	83.0039	1,866.21	78.2197	1,866.21	76.4127	1,866.21	64.1077	1,866.21	73.0766	1,866.21	64.2714	1,866.21	71.2809	1,866.21	66.7883	1,866.21	69.9584	1,866.21	64.9769	1,866.21	71.1182	1,866.21	65.7187	1,866.21	71.8358	1,866.21	67.1589	1,866.21	68.0611	1,866.21	67.7387	1,866.21	74.1354	1,866.21	73.7393	1,866.21	73.9287	1,866.21	74.4715	1,866.21	72.1091	1,866.21	74.5253	1,866.21	67.5881	1,866.21	71.7774	1,866.21	65.0806	1,866.21	73.4403	1,866.21	65.3877	1,866.21	73.5298	1,866.21	70.9376	1,866.21	72.9726	1,866.21	74.7986
1,932.13	89.113	1,932.13	88.4612	1,932.13	88.3902	1,932.13	85.5907	1,932.13	85.4268	1,932.13	79.7526	1,932.13	79.1348	1,932.13	74.2026	1,932.13	72.2065	1,932.13	72.9433	1,932.13	69.034	1,932.13	68.7125	1,932.13	67.1734	1,932.13	71.3186	1,932.13	66.9642	1,932.13	71.0966	1,932.13	65.1813	1,932.13	71.063	1,932.13	66.7715	1,932.13	73.0957	1,932.13	73.25	1,932.13	70.766	1,932.13	67.3979	1,932.13	71.6383	1,932.13	69.1947	1,932.13	72.9773	1,932.13	70.4727	1,932.13	73.9619	1,932.13	71.1186	1,932.13	68.4421	1,932.13	58.8575	1,932.13	65.2211	1,932.13	69.9412	1,932.13	72.6722	1,932.13	73.6886	1,932.13	71.6627
1,999.51	89.2527	1,999.51	88.0616	1,999.51	88.0895	1,999.51	84.0835	1,999.51	85.2882	1,999.51	75.7179	1,999.51	79.5826	1,999.51	72.9323	1,999.51	75.2796	1,999.51	76.7952	1,999.51	75.322	1,999.51	77.9126	1,999.51	74.4728	1,999.51	73.6206	1,999.51	72.0896	1,999.51	73.2226	1,999.51	67.5055	1,999.51	69.2482	1,999.51	67.9802	1,999.51	70.1923	1,999.51	69.731	1,999.51	70.4453	1,999.51	64.7228	1,999.51	69.3151	1,999.51	66.5151	1,999.51	70.9443	1,999.51	66.5851	1,999.51	67.3304	1,999.51	60.2229	1,999.51	59.0918	1,999.51	59.7606	1,999.51	70.1416	1,999.51	67.5608	1,999.51	74.7075	1,999.51	74.4544	1,999.51	76.6757
2,069.82	89.5874	2,069.82	88.3803	2,069.82	88.2094	2,069.82	85.1721	2,069.82	85.0845	2,069.82	79.0903	2,069.82	78.8197	2,069.82	75.3174	2,069.82	76.4089	2,069.82	76.0484	2,069.82	75.51	2,069.82	75.297	2,069.82	76.7951	2,069.82	74.1471	2,069.82	75.8956	2,069.82	73.2117	2,069.82	72.4606	2,069.82	71.0541	2,069.82	71.4229	2,069.82	71.7315	2,069.82	68.4677	2,069.82	71.6051	2,069.82	71.0971	2,069.82	68.1021	2,069.82	67.9935	2,069.82	60.4079	2,069.82	62.2679	2,069.82	61.9568	2,069.82	58.9721	2,069.82	55.6872	2,069.82	59.6085	2,069.82	68.8094	2,069.82	70.4232	2,069.82	73.3808	2,069.82	73.0909	2,069.82	75.2396
2,143.07	89.6111	2,143.07	88.8819	2,143.07	88.2195	2,143.07	85.7148	2,143.07	84.7923	2,143.07	80.8784	2,143.07	79.2376	2,143.07	76.9772	2,143.07	77.5696	2,143.07	78.0495	2,143.07	77.6257	2,143.07	77.7708	2,143.07	77.5879	2,143.07	76.9975	2,143.07	75.8008	2,143.07	73.6291	2,143.07	73.5244	2,143.07	72.5777	2,143.07	73.8459	2,143.07	72.409	2,143.07	71.1519	2,143.07	71.8484	2,143.07	71.1054	2,143.07	71.0106	2,143.07	69.2272	2,143.07	68.6148	2,143.07	62.8078	2,143.07	58.3744	2,143.07	51.6236	2,143.07	50.2583	2,143.07	61.1863	2,143.07	68.4058	2,143.07	69.2249	2,143.07	71.6322	2,143.07	74.6039	2,143.07	74.3192
2,219.24	89.087	2,219.24	88.0557	2,219.24	88.0728	2,219.24	85.4267	2,219.24	83.984	2,219.24	80.0015	2,219.24	79.8357	2,219.24	77.6525	2,219.24	76.9377	2,219.24	78.6098	2,219.24	78.2584	2,219.24	78.9658	2,219.24	78.1543	2,219.24	77.0639	2,219.24	76.9042	2,219.24	77.912	2,219.24	74.2341	2,219.24	75.0119	2,219.24	72.6955	2,219.24	74.4834	2,219.24	70.8134	2,219.24	72.6987	2,219.24	70.9363	2,219.24	73.7324	2,219.24	69.9598	2,219.24	74.0079	2,219.24	68.189	2,219.24	65.3497	2,219.24	64.7833	2,219.24	64.4034	2,219.24	61.1372	2,219.24	62.2014	2,219.24	64.109	2,219.24	73.0205	2,219.24	69.6175	2,219.24	73.6438
2,296.88	88.8614	2,296.88	87.7295	2,296.88	87.7165	2,296.88	84.729	2,296.88	85.1774	2,296.88	80.972	2,296.88	81.1847	2,296.88	79.1537	2,296.88	80.5947	2,296.88	79.572	2,296.88	80.6857	2,296.88	79.4666	2,296.88	79.1879	2,296.88	78.5124	2,296.88	77.1926	2,296.88	76.7573	2,296.88	75.0781	2,296.88	75.3243	2,296.88	75.3647	2,296.88	72.553	2,296.88	73.4179	2,296.88	72.7943	2,296.88	72.8002	2,296.88	73.3869	2,296.88	72.0431	2,296.88	73.2026	2,296.88	70.1036	2,296.88	69.4133	2,296.88	67.3527	2,296.88	68.7261	2,296.88	67.4641	2,296.88	68.0774	2,296.88	64.1488	2,296.88	66.5695	2,296.88	68.0262	2,296.88	65.4878
2,378.91	89.0389	2,378.91	87.5563	2,378.91	88.1297	2,378.91	84.5089	2,378.91	85.4591	2,378.91	81.9013	2,378.91	83.8672	2,378.91	81.3147	2,378.91	82.5774	2,378.91	81.3625	2,378.91	83.226	2,378.91	80.1199	2,378.91	82.209	2,378.91	77.3636	2,378.91	80.0953	2,378.91	74.9021	2,378.91	77.4661	2,378.91	74.0711	2,378.91	74.5229	2,378.91	71.9167	2,378.91	75.8795	2,378.91	70.6312	2,378.91	76.2052	2,378.91	73.4057	2,378.91	74.4718	2,378.91	71.6023	2,378.91	72.5607	2,378.91	68.0189	2,378.91	68.4172	2,378.91	67.402	2,378.91	70.0757	2,378.91	65.4717	2,378.91	65.8028	2,378.91	67.1769	2,378.91	65.174	2,378.91	70.3429
2,462.4	89.9995	2,462.4	88.998	2,462.4	88.8703	2,462.4	86.7909	2,462.4	86.9279	2,462.4	85.2752	2,462.4	85.7197	2,462.4	84.4207	2,462.4	85.6274	2,462.4	84.5727	2,462.4	85.8483	2,462.4	83.0663	2,462.4	84.1251	2,462.4	81.1775	2,462.4	81.8581	2,462.4	76.4508	2,462.4	78.769	2,462.4	76.2291	2,462.4	76.3614	2,462.4	74.0427	2,462.4	76.9413	2,462.4	75.158	2,462.4	77.6047	2,462.4	75.4853	2,462.4	76.6689	2,462.4	73.1529	2,462.4	75.1874	2,462.4	65.121	2,462.4	69.9537	2,462.4	66.0949	2,462.4	72.0052	2,462.4	67.7772	2,462.4	68.277	2,462.4	69.4242	2,462.4	59.3813	2,462.4	72.2571
2,548.83	90.0208	2,548.83	89.4244	2,548.83	88.1874	2,548.83	87.0412	2,548.83	86.71	2,548.83	86.4215	2,548.83	85.6763	2,548.83	86.0357	2,548.83	85.9046	2,548.83	86.1878	2,548.83	86.0102	2,548.83	85.0305	2,548.83	84.9525	2,548.83	82.5454	2,548.83	82.5319	2,548.83	80.3769	2,548.83	80.2715	2,548.83	76.6769	2,548.83	75.0146	2,548.83	75.8396	2,548.83	75.8388	2,548.83	77.2332	2,548.83	77.1562	2,548.83	76.1848	2,548.83	76.9754	2,548.83	72.1642	2,548.83	75.7804	2,548.83	67.4781	2,548.83	65.6076	2,548.83	63.8326	2,548.83	71.0552	2,548.83	73.9423	2,548.83	69.4099	2,548.83	68.5782	2,548.83	63.8088	2,548.83	69.955
2,639.65	89.1302	2,639.65	87.82	2,639.65	87.9535	2,639.65	86.5867	2,639.65	85.7163	2,639.65	86.432	2,639.65	85.4465	2,639.65	86.7031	2,639.65	84.7977	2,639.65	85.4213	2,639.65	84.7335	2,639.65	84.9325	2,639.65	84.2371	2,639.65	81.7366	2,639.65	81.6097	2,639.65	80.4323	2,639.65	79.9069	2,639.65	76.6016	2,639.65	76.3856	2,639.65	78.1951	2,639.65	75.0978	2,639.65	77.4983	2,639.65	71.4736	2,639.65	76.5104	2,639.65	76.1448	2,639.65	75.1276	2,639.65	75.3602	2,639.65	65.6497	2,639.65	70.7501	2,639.65	68.3504	2,639.65	68.5669	2,639.65	71.7425	2,639.65	66.8044	2,639.65	56.6255	2,639.65	63.6554	2,639.65	68.4955
2,731.93	88.042	2,731.93	86.9424	2,731.93	87.3329	2,731.93	85.8937	2,731.93	86.0374	2,731.93	85.6262	2,731.93	85.5559	2,731.93	84.7668	2,731.93	84.4781	2,731.93	84.6106	2,731.93	83.7355	2,731.93	83.7831	2,731.93	83.1535	2,731.93	81.255	2,731.93	80.9634	2,731.93	80.712	2,731.93	79.1452	2,731.93	76.3034	2,731.93	78.8271	2,731.93	77.043	2,731.93	77.3029	2,731.93	76.7449	2,731.93	75.8026	2,731.93	74.4912	2,731.93	75.8969	2,731.93	72.2197	2,731.93	73.0292	2,731.93	67.4602	2,731.93	71.0929	2,731.93	72.1135	2,731.93	65.8971	2,731.93	68.4361	2,731.93	67.6299	2,731.93	49.8676	2,731.93	54.2409	2,731.93	66.966
2,828.61	88.6227	2,828.61	87.7393	2,828.61	87.9925	2,828.61	86.8168	2,828.61	87.2095	2,828.61	86.496	2,828.61	87.0194	2,828.61	85.1497	2,828.61	85.7103	2,828.61	84.7909	2,828.61	84.5608	2,828.61	84.9963	2,828.61	83.349	2,828.61	81.9242	2,828.61	81.0502	2,828.61	80.6833	2,828.61	79.1753	2,828.61	77.2737	2,828.61	78.9062	2,828.61	78.4296	2,828.61	78.8135	2,828.61	78.1971	2,828.61	78.8614	2,828.61	77.2873	2,828.61	77.4242	2,828.61	70.3966	2,828.61	72.5199	2,828.61	71.7613	2,828.61	71.7134	2,828.61	71.8534	2,828.61	68.2029	2,828.61	68.2875	2,828.61	66.6977	2,828.61	63.6806	2,828.61	56.8272	2,828.61	64.7665
2,928.22	89.1181	2,928.22	88.6376	2,928.22	88.0541	2,928.22	87.7002	2,928.22	88.5332	2,928.22	87.7979	2,928.22	87.7551	2,928.22	85.9123	2,928.22	86.3764	2,928.22	86.0923	2,928.22	85.8844	2,928.22	85.2901	2,928.22	84.7247	2,928.22	84.0854	2,928.22	82.5361	2,928.22	80.3443	2,928.22	80.1644	2,928.22	78.7989	2,928.22	76.8648	2,928.22	77.7545	2,928.22	76.8493	2,928.22	77.6778	2,928.22	79.8148	2,928.22	78.1285	2,928.22	78.2333	2,928.22	73.5154	2,928.22	72.6642	2,928.22	75.0375	2,928.22	71.2309	2,928.22	72.5478	2,928.22	71.8279	2,928.22	62.8562	2,928.22	68.0523	2,928.22	69.1366	2,928.22	65.9415	2,928.22	65.9469
3,030.76	88.3674	3,030.76	88.463	3,030.76	88.5581	3,030.76	88.4096	3,030.76	88.3155	3,030.76	87.6651	3,030.76	87.1701	3,030.76	86.9328	3,030.76	85.8616	3,030.76	86.1385	3,030.76	86.1116	3,030.76	85.6973	3,030.76	85.3155	3,030.76	84.5947	3,030.76	83.7944	3,030.76	80.5923	3,030.76	80.9043	3,030.76	79.3024	3,030.76	79.3294	3,030.76	77.6762	3,030.76	76.6391	3,030.76	76.6248	3,030.76	77.1764	3,030.76	78.5544	3,030.76	77.6624	3,030.76	74.4526	3,030.76	73.8031	3,030.76	74.6387	3,030.76	71.6209	3,030.76	73.8514	3,030.76	73.6053	3,030.76	68.0431	3,030.76	63.2354	3,030.76	65.1326	3,030.76	67.5106	3,030.76	67.0691
3,137.7	87.2253	3,137.7	88.094	3,137.7	88.5997	3,137.7	87.8586	3,137.7	87.4302	3,137.7	87.0993	3,137.7	86.7127	3,137.7	85.9671	3,137.7	85.9048	3,137.7	86.13	3,137.7	86.1632	3,137.7	85.3007	3,137.7	84.7803	3,137.7	83.972	3,137.7	82.8811	3,137.7	80.128	3,137.7	79.8023	3,137.7	78.7392	3,137.7	79.2362	3,137.7	77.6317	3,137.7	77.4967	3,137.7	77.2255	3,137.7	76.5752	3,137.7	77.0135	3,137.7	76.6142	3,137.7	76.3948	3,137.7	72.7905	3,137.7	74.2542	3,137.7	72.6701	3,137.7	75.222	3,137.7	72.5174	3,137.7	64.4952	3,137.7	65.1672	3,137.7	67.7492	3,137.7	68.2765	3,137.7	66.8505
3,249.02	87.0284	3,249.02	87.6342	3,249.02	87.4821	3,249.02	86.6834	3,249.02	86.7073	3,249.02	86.2596	3,249.02	86.1417	3,249.02	86.0791	3,249.02	85.8521	3,249.02	85.4462	3,249.02	85.2426	3,249.02	84.4853	3,249.02	84.7304	3,249.02	82.7664	3,249.02	82.8818	3,249.02	78.9388	3,249.02	79.4329	3,249.02	78.2149	3,249.02	76.6226	3,249.02	77.9008	3,249.02	77.4297	3,249.02	77.1017	3,249.02	77.3753	3,249.02	74.4862	3,249.02	74.9148	3,249.02	74.5904	3,249.02	72.2871	3,249.02	71.1867	3,249.02	73.1411	3,249.02	72.9641	3,249.02	73.2072	3,249.02	60.2381	3,249.02	63.4996	3,249.02	65.3458	3,249.02	64.4729	3,249.02	65.6186
3,363.28	87.5969	3,363.28	87.3983	3,363.28	87.5	3,363.28	86.0285	3,363.28	86.0636	3,363.28	86.2183	3,363.28	86.2348	3,363.28	86.095	3,363.28	85.431	3,363.28	85.0323	3,363.28	84.9322	3,363.28	84.5007	3,363.28	84.2883	3,363.28	82.4111	3,363.28	82.339	3,363.28	80.4136	3,363.28	80.0271	3,363.28	77.2426	3,363.28	77.2524	3,363.28	76.3364	3,363.28	76.0158	3,363.28	77.1449	3,363.28	76.9331	3,363.28	74.7272	3,363.28	74.3253	3,363.28	73.2678	3,363.28	72.8053	3,363.28	69.4968	3,363.28	70.0783	3,363.28	71.4988	3,363.28	72.4372	3,363.28	58.0364	3,363.28	59.1277	3,363.28	55.6294	3,363.28	59.8633	3,363.28	66.7435
3,481.93	88.4121	3,481.93	86.6233	3,481.93	85.9866	3,481.93	86.205	3,481.93	86.28	3,481.93	85.8594	3,481.93	85.7306	3,481.93	85.6547	3,481.93	85.1953	3,481.93	85.3626	3,481.93	84.5655	3,481.93	84.5379	3,481.93	84.3698	3,481.93	83.43	3,481.93	82.1611	3,481.93	81.0664	3,481.93	79.0713	3,481.93	77.9293	3,481.93	76.021	3,481.93	77.0395	3,481.93	75.4822	3,481.93	77.443	3,481.93	74.9342	3,481.93	76.0353	3,481.93	73.5054	3,481.93	71.4602	3,481.93	71.8091	3,481.93	71.835	3,481.93	68.5503	3,481.93	70.861	3,481.93	73.1817	3,481.93	58.5419	3,481.93	62.3563	3,481.93	58.059	3,481.93	56.3815	3,481.93	66.3652
3,604.98	89.1782	3,604.98	85.952	3,604.98	86.2606	3,604.98	86.2802	3,604.98	85.795	3,604.98	85.3363	3,604.98	85.57	3,604.98	85.2354	3,604.98	84.8192	3,604.98	84.4035	3,604.98	84.6239	3,604.98	84.5352	3,604.98	84.996	3,604.98	82.2822	3,604.98	83.3653	3,604.98	80.8237	3,604.98	80.7884	3,604.98	77.7874	3,604.98	78.0492	3,604.98	76.3228	3,604.98	77.0081	3,604.98	77.0456	3,604.98	75.2433	3,604.98	75.8462	3,604.98	76.106	3,604.98	69.7151	3,604.98	68.333	3,604.98	72.0145	3,604.98	71.5137	3,604.98	70.4664	3,604.98	72.4507	3,604.98	60.2788	3,604.98	65.32	3,604.98	55.6329	3,604.98	58.3819	3,604.98	65.8613
3,732.42	89.9719	3,732.42	87.2837	3,732.42	87.0508	3,732.42	86.1674	3,732.42	85.487	3,732.42	85.7095	3,732.42	85.2492	3,732.42	85.2178	3,732.42	84.6613	3,732.42	84.5522	3,732.42	85.0491	3,732.42	84.5451	3,732.42	85.6104	3,732.42	82.7156	3,732.42	84.0388	3,732.42	81.4473	3,732.42	81.4589	3,732.42	77.8816	3,732.42	78.2071	3,732.42	76.2876	3,732.42	76.7513	3,732.42	76.794	3,732.42	76.8564	3,732.42	74.5922	3,732.42	76.0997	3,732.42	68.5603	3,732.42	66.732	3,732.42	70.6531	3,732.42	72.2095	3,732.42	71.4744	3,732.42	70.9545	3,732.42	59.3052	3,732.42	69.0005	3,732.42	53.6784	3,732.42	56.8796	3,732.42	64.8659
3,864.26	89.3737	3,864.26	86.6328	3,864.26	86.4569	3,864.26	85.4502	3,864.26	84.3396	3,864.26	84.2761	3,864.26	84.4854	3,864.26	84.5339	3,864.26	83.9743	3,864.26	84.001	3,864.26	83.6863	3,864.26	84.3748	3,864.26	84.2901	3,864.26	82.4938	3,864.26	82.5138	3,864.26	80.9463	3,864.26	80.2374	3,864.26	77.7895	3,864.26	76.6474	3,864.26	76.3821	3,864.26	74.8559	3,864.26	77.8968	3,864.26	76.089	3,864.26	75.3236	3,864.26	73.4423	3,864.26	66.7037	3,864.26	67.9717	3,864.26	71.0997	3,864.26	69.9786	3,864.26	70.2388	3,864.26	71.0473	3,864.26	62.9297	3,864.26	66.5637	3,864.26	55.2877	3,864.26	52.8919	3,864.26	62.9021
4,000.49	89.2062	4,000.49	86.4981	4,000.49	86.7548	4,000.49	84.234	4,000.49	84.0239	4,000.49	83.5215	4,000.49	84.4553	4,000.49	82.8751	4,000.49	84.2014	4,000.49	83.3288	4,000.49	83.6096	4,000.49	84.1618	4,000.49	84.6582	4,000.49	82.5851	4,000.49	83.1713	4,000.49	80.8274	4,000.49	80.1027	4,000.49	76.8167	4,000.49	77.6613	4,000.49	74.8442	4,000.49	76.6887	4,000.49	76.8423	4,000.49	77.8286	4,000.49	76.1722	4,000.49	72.8335	4,000.49	67.2058	4,000.49	67.8027	4,000.49	63.8846	4,000.49	69.6378	4,000.49	70.2961	4,000.49	68.8387	4,000.49	61.2813	4,000.49	65.9205	4,000.49	53.0863	4,000.49	53.4247	4,000.49	65.2894
4,141.11	89.8172	4,141.11	87.691	4,141.11	87.3739	4,141.11	84.4327	4,141.11	84.7232	4,141.11	84.421	4,141.11	85.4426	4,141.11	83.0062	4,141.11	84.5616	4,141.11	84.5602	4,141.11	84.6039	4,141.11	85.1778	4,141.11	84.8311	4,141.11	83.918	4,141.11	83.5646	4,141.11	80.9832	4,141.11	79.7699	4,141.11	77.8255	4,141.11	77.6241	4,141.11	76.0399	4,141.11	76.0591	4,141.11	75.0851	4,141.11	76.0936	4,141.11	75.338	4,141.11	72.8846	4,141.11	67.2299	4,141.11	66.8322	4,141.11	66.4886	4,141.11	68.0832	4,141.11	66.2639	4,141.11	67.4156	4,141.11	63.4972	4,141.11	66.225	4,141.11	57.7623	4,141.11	62.7901	4,141.11	66.9995
4,287.6	89.4438	4,287.6	87.7779	4,287.6	87.4207	4,287.6	84.0762	4,287.6	84.872	4,287.6	83.9807	4,287.6	84.8756	4,287.6	82.6702	4,287.6	83.9943	4,287.6	84.6323	4,287.6	84.2059	4,287.6	84.5665	4,287.6	83.9248	4,287.6	84.3335	4,287.6	82.3545	4,287.6	80.154	4,287.6	80.524	4,287.6	77.7819	4,287.6	76.4578	4,287.6	76.4629	4,287.6	76.8429	4,287.6	76.4172	4,287.6	76.2489	4,287.6	74.0173	4,287.6	70.883	4,287.6	67.733	4,287.6	66.3886	4,287.6	66.2947	4,287.6	69.5813	4,287.6	68.0358	4,287.6	66.7623	4,287.6	65.2444	4,287.6	67.5504	4,287.6	65.1282	4,287.6	59.9248	4,287.6	66.6886
4,438.48	89.3583	4,438.48	88.1472	4,438.48	87.1323	4,438.48	85.1958	4,438.48	85.0698	4,438.48	84.5109	4,438.48	84.1157	4,438.48	84.0115	4,438.48	83.986	4,438.48	84.1612	4,438.48	83.3024	4,438.48	83.5766	4,438.48	83.3257	4,438.48	83.4173	4,438.48	81.3164	4,438.48	76.8396	4,438.48	79.0496	4,438.48	77.1845	4,438.48	76.5953	4,438.48	73.0186	4,438.48	74.3934	4,438.48	72.9671	4,438.48	75.2705	4,438.48	74.3382	4,438.48	70.9887	4,438.48	64.7878	4,438.48	67.2955	4,438.48	66.7049	4,438.48	68.9093	4,438.48	68.6068	4,438.48	62.0656	4,438.48	59.7598	4,438.48	65.5045	4,438.48	63.9114	4,438.48	49.3414	4,438.48	66.1647
4,595.21	88.9488	4,595.21	88.7444	4,595.21	87.3453	4,595.21	85.1493	4,595.21	85.2775	4,595.21	84.0767	4,595.21	83.9394	4,595.21	84.4045	4,595.21	83.1801	4,595.21	83.0738	4,595.21	82.7417	4,595.21	83.2982	4,595.21	82.3174	4,595.21	81.0549	4,595.21	80.3545	4,595.21	77.7854	4,595.21	77.979	4,595.21	77.4023	4,595.21	75.7506	4,595.21	75.2441	4,595.21	73.6399	4,595.21	73.3552	4,595.21	73.4962	4,595.21	73.1628	4,595.21	67.5277	4,595.21	64.501	4,595.21	68.1143	4,595.21	65.0035	4,595.21	63.9399	4,595.21	65.432	4,595.21	62.7569	4,595.21	57.2077	4,595.21	65.6683	4,595.21	63.0727	4,595.21	57.899	4,595.21	64.6733
4,756.35	89.3933	4,756.35	89.7818	4,756.35	88.9943	4,756.35	86.151	4,756.35	86.0691	4,756.35	85.3681	4,756.35	85.4604	4,756.35	85.7122	4,756.35	83.7449	4,756.35	82.4692	4,756.35	81.9344	4,756.35	82.0675	4,756.35	83.1391	4,756.35	80.7357	4,756.35	81.709	4,756.35	78.8713	4,756.35	78.954	4,756.35	75.9277	4,756.35	75.4851	4,756.35	76.1008	4,756.35	75.6139	4,756.35	75.3298	4,756.35	75.9111	4,756.35	73.2922	4,756.35	65.3531	4,756.35	54.2348	4,756.35	62.382	4,756.35	65.9196	4,756.35	59.9901	4,756.35	60.0624	4,756.35	59.4562	4,756.35	64.8059	4,756.35	61.4177	4,756.35	62.2565	4,756.35	61.1779	4,756.35	62.1295
4,924.8	90.0933	4,924.8	90.1576	4,924.8	89.7033	4,924.8	88.2432	4,924.8	86.7342	4,924.8	86.3791	4,924.8	85.5509	4,924.8	86.0741	4,924.8	84.2204	4,924.8	82.8781	4,924.8	79.9688	4,924.8	83.2547	4,924.8	83.4202	4,924.8	82.7283	4,924.8	83.1698	4,924.8	80.8938	4,924.8	79.0723	4,924.8	76.2899	4,924.8	75.3429	4,924.8	77.9028	4,924.8	76.831	4,924.8	75.5164	4,924.8	75.2607	4,924.8	65.5378	4,924.8	68.9045	4,924.8	60.8515	4,924.8	57.781	4,924.8	66.8735	4,924.8	68.9065	4,924.8	61.8751	4,924.8	54.1377	4,924.8	62.4336	4,924.8	53.2059	4,924.8	63.4006	4,924.8	57.3029	4,924.8	65.2369
5,097.66	89.8488	5,097.66	89.176	5,097.66	89.8634	5,097.66	88.9626	5,097.66	87.4754	5,097.66	85.4954	5,097.66	85.3538	5,097.66	83.1063	5,097.66	83.9133	5,097.66	80.7546	5,097.66	81.4458	5,097.66	82.0814	5,097.66	82.4077	5,097.66	81.9772	5,097.66	81.9607	5,097.66	80.0256	5,097.66	78.7356	5,097.66	76.0314	5,097.66	75.3809	5,097.66	74.9468	5,097.66	76.4199	5,097.66	75.3852	5,097.66	74.4764	5,097.66	67.2832	5,097.66	68.2294	5,097.66	63.4486	5,097.66	66.2764	5,097.66	66.1757	5,097.66	67.2597	5,097.66	62.4797	5,097.66	38.9116	5,097.66	63.5209	5,097.66	57.1558	5,097.66	58.431	5,097.66	52.6813	5,097.66	65.3501
5,277.83	90.2206	5,277.83	90.0239	5,277.83	89.8432	5,277.83	89.6699	5,277.83	88.3554	5,277.83	86.6531	5,277.83	85.0209	5,277.83	82.902	5,277.83	83.9327	5,277.83	81.5601	5,277.83	82.6163	5,277.83	82.1302	5,277.83	82.0801	5,277.83	82.4792	5,277.83	81.3721	5,277.83	79.5596	5,277.83	77.6915	5,277.83	75.4981	5,277.83	74.9527	5,277.83	68.4808	5,277.83	74.1743	5,277.83	73.2784	5,277.83	72.324	5,277.83	64.4686	5,277.83	67.6534	5,277.83	61.5214	5,277.83	67.9656	5,277.83	66.1241	5,277.83	63.9422	5,277.83	62.2925	5,277.83	53.8653	5,277.83	63.6899	5,277.83	59.5231	5,277.83	61.0873	5,277.83	59.0025	5,277.83	67.0061
5,463.87	89.4443	5,463.87	89.899	5,463.87	88.5969	5,463.87	89.2314	5,463.87	88.6291	5,463.87	84.9327	5,463.87	83.4685	5,463.87	82.498	5,463.87	83.7739	5,463.87	81.4841	5,463.87	83.0124	5,463.87	82.5746	5,463.87	81.5955	5,463.87	82.7855	5,463.87	81.7755	5,463.87	78.7746	5,463.87	77.837	5,463.87	77.0137	5,463.87	76.6783	5,463.87	74.5257	5,463.87	74.4738	5,463.87	75.1188	5,463.87	73.1041	5,463.87	69.6462	5,463.87	68.2648	5,463.87	62.2756	5,463.87	61.3835	5,463.87	65.4304	5,463.87	61.0395	5,463.87	55.4716	5,463.87	62.4252	5,463.87	66.1356	5,463.87	57.5261	5,463.87	62.6053	5,463.87	63.9991	5,463.87	66.8563
5,657.23	88.7649	5,657.23	89.665	5,657.23	88.5716	5,657.23	87.9013	5,657.23	88.2131	5,657.23	83.9254	5,657.23	84.3185	5,657.23	82.6057	5,657.23	83.5437	5,657.23	82.2901	5,657.23	81.9182	5,657.23	79.8962	5,657.23	81.4434	5,657.23	81.4646	5,657.23	81.1603	5,657.23	77.8039	5,657.23	76.7102	5,657.23	75.8046	5,657.23	75.8297	5,657.23	76.631	5,657.23	74.9481	5,657.23	74.6569	5,657.23	75.3353	5,657.23	69.8373	5,657.23	69.9439	5,657.23	62.4209	5,657.23	67.075	5,657.23	67.3888	5,657.23	67.0096	5,657.23	56.2457	5,657.23	61.6869	5,657.23	66.4697	5,657.23	59.1634	5,657.23	66.744	5,657.23	65.0517	5,657.23	60.1458
5,856.45	87.9967	5,856.45	88.6383	5,856.45	89.1642	5,856.45	87.4103	5,856.45	87.6448	5,856.45	84.527	5,856.45	85.7333	5,856.45	83.6411	5,856.45	83.7704	5,856.45	82.9268	5,856.45	81.5146	5,856.45	79.4048	5,856.45	80.8648	5,856.45	81.5402	5,856.45	80.3144	5,856.45	77.7877	5,856.45	79.2293	5,856.45	75.2246	5,856.45	72.8518	5,856.45	77.5138	5,856.45	75.7184	5,856.45	73.8741	5,856.45	75.4409	5,856.45	68.6145	5,856.45	65.2637	5,856.45	59.5217	5,856.45	69.4822	5,856.45	63.1354	5,856.45	67.298	5,856.45	61.903	5,856.45	35.3309	5,856.45	62.3828	5,856.45	54.0633	5,856.45	68.6325	5,856.45	61.6198	5,856.45	61.6365
6,062.99	88.4156	6,062.99	88.7115	6,062.99	89.865	6,062.99	89.0456	6,062.99	87.8326	6,062.99	87.0929	6,062.99	86.0498	6,062.99	86.199	6,062.99	84.6268	6,062.99	84.2126	6,062.99	82.0045	6,062.99	80.8285	6,062.99	81.1139	6,062.99	81.1822	6,062.99	80.4042	6,062.99	78.8131	6,062.99	78.9207	6,062.99	73.2029	6,062.99	70.1875	6,062.99	75.1063	6,062.99	75.2235	6,062.99	68.2073	6,062.99	71.6721	6,062.99	67.0037	6,062.99	65.4498	6,062.99	63.5527	6,062.99	70.5853	6,062.99	60.1943	6,062.99	64.7595	6,062.99	57.9785	6,062.99	64.5789	6,062.99	57.5579	6,062.99	54.2243	6,062.99	67.637	6,062.99	62.6174	6,062.99	67.8001
6,276.86	88.5108	6,276.86	88.044	6,276.86	88.5093	6,276.86	88.8791	6,276.86	88.1355	6,276.86	86.8383	6,276.86	83.4501	6,276.86	85.7976	6,276.86	84.7285	6,276.86	83.3474	6,276.86	82.2207	6,276.86	79.5324	6,276.86	80.6296	6,276.86	78.4412	6,276.86	80.1509	6,276.86	76.8263	6,276.86	76.39	6,276.86	74.296	6,276.86	72.1231	6,276.86	73.5151	6,276.86	74.1134	6,276.86	73.3021	6,276.86	70.1131	6,276.86	65.2856	6,276.86	64.5346	6,276.86	68.8915	6,276.86	67.8895	6,276.86	60.8747	6,276.86	61.6306	6,276.86	58.64	6,276.86	61.0846	6,276.86	64.0055	6,276.86	54.4832	6,276.86	63.0831	6,276.86	62.0644	6,276.86	67.0987
6,498.05	89.1867	6,498.05	88.4286	6,498.05	87.8899	6,498.05	88.8886	6,498.05	89.1258	6,498.05	86.4406	6,498.05	84.9364	6,498.05	85.2861	6,498.05	84.719	6,498.05	82.9835	6,498.05	83.5279	6,498.05	80.4268	6,498.05	79.8745	6,498.05	79.0405	6,498.05	81.3481	6,498.05	76.6707	6,498.05	75.5805	6,498.05	75.0859	6,498.05	74.339	6,498.05	64.9716	6,498.05	72.3809	6,498.05	73.2581	6,498.05	70.6334	6,498.05	60.7955	6,498.05	64.2608	6,498.05	69.0137	6,498.05	69.3643	6,498.05	66.1207	6,498.05	65.7012	6,498.05	62.4852	6,498.05	64.9712	6,498.05	63.6396	6,498.05	50.4584	6,498.05	57.3595	6,498.05	59.5871	6,498.05	66.6414
6,726.56	88.5814	6,726.56	87.9812	6,726.56	87.7093	6,726.56	87.6765	6,726.56	88.2578	6,726.56	85.8745	6,726.56	86.768	6,726.56	83.511	6,726.56	83.0728	6,726.56	82.9221	6,726.56	81.9483	6,726.56	80.5779	6,726.56	79.1861	6,726.56	80.6793	6,726.56	80.8359	6,726.56	77.3997	6,726.56	76.8677	6,726.56	75.0935	6,726.56	73.7568	6,726.56	70.7087	6,726.56	74.1001	6,726.56	71.1913	6,726.56	71.6061	6,726.56	66.8142	6,726.56	60.0757	6,726.56	62.7168	6,726.56	71.0754	6,726.56	68.1922	6,726.56	66.5602	6,726.56	55.3678	6,726.56	64.4398	6,726.56	63.2583	6,726.56	57.8593	6,726.56	62.3513	6,726.56	44.531	6,726.56	66.066
6,963.87	87.9625	6,963.87	87.4734	6,963.87	88.2663	6,963.87	87.2929	6,963.87	87.4433	6,963.87	87.4003	6,963.87	87.4236	6,963.87	83.3078	6,963.87	81.4921	6,963.87	81.8069	6,963.87	81.0815	6,963.87	77.3252	6,963.87	78.7141	6,963.87	80.2658	6,963.87	79.0178	6,963.87	76.8922	6,963.87	76.306	6,963.87	70.9139	6,963.87	73.4707	6,963.87	72.565	6,963.87	73.4864	6,963.87	68.9619	6,963.87	70.0656	6,963.87	62.1569	6,963.87	67.2366	6,963.87	64.7885	6,963.87	71.3946	6,963.87	63.5349	6,963.87	66.9338	6,963.87	60.9724	6,963.87	64.1276	6,963.87	57.6868	6,963.87	54.6115	6,963.87	68.0775	6,963.87	52.0146	6,963.87	66.0525
7,209.96	87.8148	7,209.96	87.5096	7,209.96	87.8951	7,209.96	87.3187	7,209.96	87.3411	7,209.96	87.5503	7,209.96	86.5862	7,209.96	83.62	7,209.96	82.7759	7,209.96	81.6698	7,209.96	82.4734	7,209.96	78.3899	7,209.96	79.6574	7,209.96	79.7795	7,209.96	79.2909	7,209.96	77.1457	7,209.96	75.9234	7,209.96	71.9941	7,209.96	74.9944	7,209.96	73.2845	7,209.96	73.247	7,209.96	69.8488	7,209.96	71.6976	7,209.96	62.7924	7,209.96	59.9903	7,209.96	68.9396	7,209.96	70.0557	7,209.96	61.4697	7,209.96	61.9817	7,209.96	65.256	7,209.96	56.5619	7,209.96	57.2169	7,209.96	54.803	7,209.96	65.7248	7,209.96	59.8899	7,209.96	62.9013
7,464.84	88.3151	7,464.84	87.8794	7,464.84	86.4674	7,464.84	87.6092	7,464.84	87.2874	7,464.84	86.9711	7,464.84	84.6138	7,464.84	82.5949	7,464.84	81.9787	7,464.84	81.0911	7,464.84	82.4977	7,464.84	80.2535	7,464.84	78.5364	7,464.84	78.6989	7,464.84	79.4406	7,464.84	77.4142	7,464.84	77.1333	7,464.84	73.896	7,464.84	73.5663	7,464.84	72.4325	7,464.84	72.8448	7,464.84	70.7485	7,464.84	70.2907	7,464.84	63.1627	7,464.84	64.7664	7,464.84	69.2661	7,464.84	66.4186	7,464.84	63.8734	7,464.84	66.7944	7,464.84	62.4926	7,464.84	57.3308	7,464.84	55.5493	7,464.84	58.3407	7,464.84	63.879	7,464.84	57.2401	7,464.84	62.3611
7,727.05	88.4318	7,727.05	88.0241	7,727.05	86.7094	7,727.05	87.4172	7,727.05	87.9373	7,727.05	85.5687	7,727.05	84.5977	7,727.05	80.6727	7,727.05	81.4198	7,727.05	81.1986	7,727.05	82.4464	7,727.05	80.5447	7,727.05	79.4898	7,727.05	78.2627	7,727.05	81.993	7,727.05	78.0644	7,727.05	76.4449	7,727.05	75.0444	7,727.05	74.8334	7,727.05	71.9428	7,727.05	72.5786	7,727.05	72.3289	7,727.05	71.7654	7,727.05	62.1773	7,727.05	56.5113	7,727.05	69.4805	7,727.05	65.9872	7,727.05	63.5128	7,727.05	65.1292	7,727.05	60.0988	7,727.05	52.424	7,727.05	60.3258	7,727.05	60.908	7,727.05	60.6697	7,727.05	59.7564	7,727.05	61.2065
7,999.51	87.9283	7,999.51	87.9869	7,999.51	87.4097	7,999.51	86.2134	7,999.51	86.803	7,999.51	85.3629	7,999.51	85.3847	7,999.51	80.403	7,999.51	79.4753	7,999.51	82.0786	7,999.51	80.0868	7,999.51	80.0719	7,999.51	78.6878	7,999.51	79.3183	7,999.51	81.1711	7,999.51	79.5305	7,999.51	77.9714	7,999.51	76.319	7,999.51	74.1936	7,999.51	72.7555	7,999.51	73.0562	7,999.51	72.1623	7,999.51	71.6544	7,999.51	59.5167	7,999.51	62.299	7,999.51	68.5897	7,999.51	67.2669	7,999.51	63.7635	7,999.51	67.6076	7,999.51	58.255	7,999.51	56.6697	7,999.51	54.4801	7,999.51	58.5169	7,999.51	63.4978	7,999.51	48.4801	7,999.51	63.6684
8,282.23	87.7401	8,282.23	87.5056	8,282.23	87.8403	8,282.23	85.7147	8,282.23	85.5572	8,282.23	85.5598	8,282.23	86.3985	8,282.23	81.3753	8,282.23	80.6433	8,282.23	83.0994	8,282.23	81.2141	8,282.23	79.4955	8,282.23	79.9427	8,282.23	79.7712	8,282.23	80.234	8,282.23	78.7339	8,282.23	77.6129	8,282.23	74.306	8,282.23	74.6146	8,282.23	72.4964	8,282.23	73.2704	8,282.23	70.5381	8,282.23	68.8086	8,282.23	62.375	8,282.23	66.6972	8,282.23	66.4199	8,282.23	65.4569	8,282.23	65.7545	8,282.23	62.9832	8,282.23	54.2553	8,282.23	53.8416	8,282.23	59.2554	8,282.23	60.2321	8,282.23	63.1516	8,282.23	58.8324	8,282.23	59.8752
8,573.73	87.7226	8,573.73	86.8603	8,573.73	86.3623	8,573.73	86.2748	8,573.73	85.4774	8,573.73	84.4625	8,573.73	85.66	8,573.73	82.9724	8,573.73	81.4854	8,573.73	82.3324	8,573.73	82.5441	8,573.73	78.7139	8,573.73	80.4885	8,573.73	80.5825	8,573.73	80.8075	8,573.73	76.9567	8,573.73	75.6712	8,573.73	72.7233	8,573.73	74.1871	8,573.73	71.6735	8,573.73	71.4076	8,573.73	69.3927	8,573.73	67.2424	8,573.73	63.1956	8,573.73	65.2741	8,573.73	66.1396	8,573.73	63.9905	8,573.73	63.6069	8,573.73	60.139	8,573.73	50.121	8,573.73	53.4455	8,573.73	57.4428	8,573.73	60.7956	8,573.73	60.3077	8,573.73	54.982	8,573.73	62.8911
8,876.95	87.1257	8,876.95	86.6034	8,876.95	85.3195	8,876.95	84.707	8,876.95	84.1363	8,876.95	84.1664	8,876.95	84.0376	8,876.95	82.8991	8,876.95	81.7524	8,876.95	78.9028	8,876.95	82.7086	8,876.95	79.4999	8,876.95	79.9242	8,876.95	80.6753	8,876.95	80.7062	8,876.95	76.6921	8,876.95	77.454	8,876.95	72.6686	8,876.95	74.1842	8,876.95	67.742	8,876.95	68.7814	8,876.95	69.1257	8,876.95	69.9196	8,876.95	61.3209	8,876.95	66.0605	8,876.95	63.4281	8,876.95	64.675	8,876.95	56.607	8,876.95	61.3867	8,876.95	52.4188	8,876.95	63.1532	8,876.95	55.9988	8,876.95	59.4143	8,876.95	56.2575	8,876.95	45.4816	8,876.95	60.887
9,188.96	85.8568	9,188.96	86.5774	9,188.96	86.6773	9,188.96	82.2104	9,188.96	82.8821	9,188.96	85.0648	9,188.96	83.6915	9,188.96	81.7704	9,188.96	81.3737	9,188.96	78.4891	9,188.96	80.0448	9,188.96	80.9406	9,188.96	79.2648	9,188.96	79.9922	9,188.96	79.6338	9,188.96	78.5247	9,188.96	79.6285	9,188.96	72.7881	9,188.96	74.8948	9,188.96	69.9476	9,188.96	67.6352	9,188.96	68.2876	9,188.96	69.0709	9,188.96	65.0574	9,188.96	67.082	9,188.96	65.1046	9,188.96	60.2267	9,188.96	61.7609	9,188.96	58.1603	9,188.96	56.2224	9,188.96	64.1479	9,188.96	54.2585	9,188.96	44.673	9,188.96	54.0738	9,188.96	58.5393	9,188.96	62.8259
9,514.16	86.1874	9,514.16	86.1895	9,514.16	85.7876	9,514.16	85.1718	9,514.16	85.3168	9,514.16	82.6456	9,514.16	83.8942	9,514.16	82.6839	9,514.16	82.9585	9,514.16	78.9413	9,514.16	76.4455	9,514.16	79.4686	9,514.16	80.0525	9,514.16	78.2518	9,514.16	78.9889	9,514.16	77.6843	9,514.16	78.753	9,514.16	74.7145	9,514.16	73.5262	9,514.16	70.1138	9,514.16	64.6922	9,514.16	69.3565	9,514.16	67.7833	9,514.16	67.1391	9,514.16	66.7132	9,514.16	63.9271	9,514.16	66.4932	9,514.16	55.1475	9,514.16	60.2884	9,514.16	54.946	9,514.16	61.3312	9,514.16	56.1111	9,514.16	59.6006	9,514.16	49.6411	9,514.16	55.6338	9,514.16	57.1607
9,849.61	86.2058	9,849.61	85.7168	9,849.61	85.7066	9,849.61	83.9299	9,849.61	83.2774	9,849.61	81.9202	9,849.61	82.9825	9,849.61	83.2835	9,849.61	84.0568	9,849.61	77.7387	9,849.61	78.8893	9,849.61	78.1514	9,849.61	80.5838	9,849.61	78.982	9,849.61	79.1564	9,849.61	76.5712	9,849.61	77.2452	9,849.61	73.993	9,849.61	71.0422	9,849.61	67.6299	9,849.61	66.9735	9,849.61	67.0494	9,849.61	68.6222	9,849.61	67.0159	9,849.61	64.7657	9,849.61	63.2865	9,849.61	66.0831	9,849.61	57.7427	9,849.61	60.2279	9,849.61	54.4893	9,849.61	56.7811	9,849.61	60.4746	9,849.61	59.7543	9,849.61	51.334	9,849.61	55.8825	9,849.61	59.7248
10,196.8	84.8592	10,196.8	85.6551	10,196.8	85.316	10,196.8	81.9871	10,196.8	81.8543	10,196.8	83.8715	10,196.8	82.2898	10,196.8	83.6411	10,196.8	83.4706	10,196.8	78.2946	10,196.8	79.8881	10,196.8	80.2745	10,196.8	79.17	10,196.8	78.3689	10,196.8	79.5651	10,196.8	76.6491	10,196.8	75.3656	10,196.8	71.2653	10,196.8	73.421	10,196.8	70.3533	10,196.8	68.0517	10,196.8	66.1094	10,196.8	68.2231	10,196.8	64.1737	10,196.8	60.6744	10,196.8	57.5559	10,196.8	65.7395	10,196.8	54.75	10,196.8	61.9745	10,196.8	56.1764	10,196.8	56.2962	10,196.8	57.1676	10,196.8	57.3222	10,196.8	59.7704	10,196.8	59.5877	10,196.8	58.4555
10,555.7	85.8089	10,555.7	84.7655	10,555.7	83.1858	10,555.7	85.2654	10,555.7	85.3223	10,555.7	82.9755	10,555.7	83.5856	10,555.7	84.1598	10,555.7	83.3354	10,555.7	79.5228	10,555.7	78.8496	10,555.7	79.7924	10,555.7	78.3597	10,555.7	77.5094	10,555.7	77.2591	10,555.7	78.1675	10,555.7	78.1598	10,555.7	71.2168	10,555.7	72.5798	10,555.7	69.3741	10,555.7	64.3181	10,555.7	64.6311	10,555.7	63.9597	10,555.7	65.4555	10,555.7	60.2547	10,555.7	61.2546	10,555.7	64.6799	10,555.7	58.1544	10,555.7	58.5952	10,555.7	51.126	10,555.7	57.2474	10,555.7	44.2121	10,555.7	62.7627	10,555.7	54.4223	10,555.7	58.9151	10,555.7	54.1951
10,927.7	87.0815	10,927.7	84.1909	10,927.7	83.8145	10,927.7	86.1299	10,927.7	85.4949	10,927.7	83.2544	10,927.7	84.9978	10,927.7	84.0709	10,927.7	84.371	10,927.7	80.8821	10,927.7	79.3325	10,927.7	79.2595	10,927.7	79.2616	10,927.7	78.0769	10,927.7	78.2643	10,927.7	75.9579	10,927.7	76.7745	10,927.7	71.9567	10,927.7	71.1831	10,927.7	68.5711	10,927.7	61.6832	10,927.7	61.6389	10,927.7	65.5663	10,927.7	64.502	10,927.7	60.5943	10,927.7	54.7588	10,927.7	64.6079	10,927.7	57.6724	10,927.7	61.2384	10,927.7	54.3339	10,927.7	47.0514	10,927.7	55.8024	10,927.7	59.3097	10,927.7	59.4387	10,927.7	43.8011	10,927.7	52.6771
11,313	86.0803	11,313	83.1421	11,313	84.0242	11,313	85.7077	11,313	84.2505	11,313	85.1867	11,313	83.7709	11,313	84.0812	11,313	83.3061	11,313	80.9351	11,313	80.7403	11,313	77.961	11,313	78.5253	11,313	77.2253	11,313	78.37	11,313	75.5071	11,313	76.3985	11,313	71.6816	11,313	69.8115	11,313	68.8374	11,313	60.3827	11,313	63.5852	11,313	65.4458	11,313	64.6817	11,313	60.5552	11,313	55.1442	11,313	62.1769	11,313	58.8528	11,313	59.2209	11,313	34.3726	11,313	58.6123	11,313	54.8428	11,313	54.9667	11,313	52.6471	11,313	53.1106	11,313	53.1445
11,712.9	85.271	11,712.9	84.0445	11,712.9	84.3199	11,712.9	86.0958	11,712.9	86.1834	11,712.9	85.6147	11,712.9	84.5626	11,712.9	84.2824	11,712.9	83.4016	11,712.9	80.9405	11,712.9	80.1989	11,712.9	77.7593	11,712.9	76.3568	11,712.9	76.7218	11,712.9	76.0993	11,712.9	75.5958	11,712.9	75.9946	11,712.9	70.6219	11,712.9	68.3261	11,712.9	66.7644	11,712.9	57.5286	11,712.9	61.4015	11,712.9	64.9385	11,712.9	65.1965	11,712.9	61.2227	11,712.9	58.7004	11,712.9	59.4834	11,712.9	56.0212	11,712.9	57.4939	11,712.9	53.677	11,712.9	54.0361	11,712.9	53.763	11,712.9	52.5677	11,712.9	54.27	11,712.9	40.3706	11,712.9	51.2001
12,126	85.5246	12,126	85.8041	12,126	85.3237	12,126	86.3962	12,126	86.095	12,126	85.6939	12,126	85.8677	12,126	84.612	12,126	83.9521	12,126	80.7806	12,126	80.5092	12,126	76.5066	12,126	76.9351	12,126	74.0376	12,126	75.7468	12,126	74.4648	12,126	74.401	12,126	65.7402	12,126	68.2307	12,126	63.6123	12,126	61.5566	12,126	60.1887	12,126	62.3125	12,126	62.0706	12,126	58.6465	12,126	59.349	12,126	56.7228	12,126	56.356	12,126	50.6748	12,126	52.0937	12,126	52.4302	12,126	48.8578	12,126	50.6991	12,126	56.4385	12,126	50.2623	12,126	52.8353
12,553.7	85.5825	12,553.7	86.6476	12,553.7	85.7581	12,553.7	86.3057	12,553.7	86.2922	12,553.7	85.5179	12,553.7	85.4091	12,553.7	82.7077	12,553.7	82.9963	12,553.7	81.442	12,553.7	80.5447	12,553.7	74.9357	12,553.7	75.9319	12,553.7	74.6389	12,553.7	75.1186	12,553.7	73.0958	12,553.7	73.7748	12,553.7	68.1562	12,553.7	67.8437	12,553.7	65.357	12,553.7	62.5628	12,553.7	62.4452	12,553.7	63.8524	12,553.7	60.7922	12,553.7	55.8266	12,553.7	55.02	12,553.7	59.0797	12,553.7	46.1443	12,553.7	51.9409	12,553.7	40.014	12,553.7	47.343	12,553.7	51.985	12,553.7	54.7778	12,553.7	54.4311	12,553.7	37.7928	12,553.7	48.7614
12,996.1	85.9941	12,996.1	86.7484	12,996.1	86.2589	12,996.1	87.025	12,996.1	87.2034	12,996.1	86.4574	12,996.1	85.2937	12,996.1	84.063	12,996.1	83.5741	12,996.1	80.7856	12,996.1	79.6239	12,996.1	74.2585	12,996.1	73.3971	12,996.1	74.317	12,996.1	74.4641	12,996.1	72.4856	12,996.1	73.228	12,996.1	68.3891	12,996.1	68.8841	12,996.1	65.7962	12,996.1	58.2911	12,996.1	59.0818	12,996.1	63.6998	12,996.1	60.0547	12,996.1	59.1845	12,996.1	54.9697	12,996.1	56.2761	12,996.1	48.3377	12,996.1	51.6866	12,996.1	48.3294	12,996.1	45.9566	12,996.1	55.4333	12,996.1	48.9744	12,996.1	49.1642	12,996.1	44.5436	12,996.1	51.1733
13,454.6	86.628	13,454.6	87.092	13,454.6	87.1445	13,454.6	87.5188	13,454.6	87.9325	13,454.6	86.2523	13,454.6	85.6319	13,454.6	84.7116	13,454.6	83.6865	13,454.6	79.8391	13,454.6	79.3209	13,454.6	73.2778	13,454.6	72.8071	13,454.6	71.7967	13,454.6	74.1766	13,454.6	70.9456	13,454.6	72.4353	13,454.6	67.1585	13,454.6	68.3987	13,454.6	63.283	13,454.6	61.0591	13,454.6	61.201	13,454.6	59.9621	13,454.6	60.6787	13,454.6	59.0474	13,454.6	60.9521	13,454.6	47.5351	13,454.6	52.324	13,454.6	54.9487	13,454.6	50.4955	13,454.6	48.3115	13,454.6	53.5291	13,454.6	38.9894	13,454.6	36.7693	13,454.6	48.191	13,454.6	34.2959
13,929.2	86.8502	13,929.2	87.4941	13,929.2	87.806	13,929.2	88.0994	13,929.2	87.7229	13,929.2	86.7979	13,929.2	86.169	13,929.2	82.9952	13,929.2	82.9823	13,929.2	79.0037	13,929.2	79.177	13,929.2	70.0475	13,929.2	70.0433	13,929.2	70.9568	13,929.2	72.8323	13,929.2	68.6922	13,929.2	71.0879	13,929.2	66.193	13,929.2	68.9654	13,929.2	64.3907	13,929.2	60.5345	13,929.2	59.484	13,929.2	60.255	13,929.2	60.1806	13,929.2	60.6215	13,929.2	59.7059	13,929.2	37.7734	13,929.2	50.5108	13,929.2	56.5794	13,929.2	53.6793	13,929.2	53.5151	13,929.2	53.4957	13,929.2	50.4504	13,929.2	52.1265	13,929.2	44.9118	13,929.2	46.2495
14,419.9	87.623	14,419.9	88.217	14,419.9	87.9314	14,419.9	88.3873	14,419.9	88.361	14,419.9	86.5749	14,419.9	85.5199	14,419.9	83.6393	14,419.9	82.4431	14,419.9	77.965	14,419.9	79.7565	14,419.9	69.0905	14,419.9	69.532	14,419.9	68.2144	14,419.9	71.8	14,419.9	68.8785	14,419.9	70.8684	14,419.9	66.8628	14,419.9	70.3969	14,419.9	65.255	14,419.9	59.0941	14,419.9	60.4151	14,419.9	60.8788	14,419.9	56.154	14,419.9	60.8517	14,419.9	54.9839	14,419.9	52.9241	14,419.9	50.6756	14,419.9	53.1629	14,419.9	46.3611	14,419.9	51.0378	14,419.9	55.1353	14,419.9	39.7297	14,419.9	52.6739	14,419.9	49.6906	14,419.9	52.4456
14,928.2	86.9786	14,928.2	88.7352	14,928.2	88.0566	14,928.2	88.314	14,928.2	88.2284	14,928.2	86.9496	14,928.2	85.7526	14,928.2	80.9408	14,928.2	82.3147	14,928.2	77.7847	14,928.2	79.5221	14,928.2	68.6285	14,928.2	71.4836	14,928.2	70.663	14,928.2	70.0452	14,928.2	67.067	14,928.2	73.9775	14,928.2	70.624	14,928.2	70.3301	14,928.2	66.0733	14,928.2	58.9016	14,928.2	63.4748	14,928.2	56.2086	14,928.2	58.9918	14,928.2	59.302	14,928.2	57.0712	14,928.2	41.8912	14,928.2	43.4089	14,928.2	49.0406	14,928.2	44.6431	14,928.2	52.3529	14,928.2	53.9046	14,928.2	50.6928	14,928.2	52.8985	14,928.2	49.8829	14,928.2	48.7929
15,455.6	88.1527	15,455.6	87.8854	15,455.6	87.3238	15,455.6	88.3228	15,455.6	88.3833	15,455.6	84.6344	15,455.6	85.5354	15,455.6	80.7666	15,455.6	82.4477	15,455.6	77.178	15,455.6	79.724	15,455.6	71.1901	15,455.6	73.845	15,455.6	68.0044	15,455.6	70.3499	15,455.6	68.5578	15,455.6	73.3716	15,455.6	70.4137	15,455.6	70.6571	15,455.6	66.5771	15,455.6	64.4294	15,455.6	64.2452	15,455.6	59.5214	15,455.6	60.8044	15,455.6	58.7968	15,455.6	60.2913	15,455.6	56.5208	15,455.6	48.5651	15,455.6	55.2308	15,455.6	46.9979	15,455.6	49.5609	15,455.6	57.3242	15,455.6	51.8933	15,455.6	46.0074	15,455.6	55.1188	15,455.6	51.0742
16,000.5	86.7898	16,000.5	88.1914	16,000.5	88.0387	16,000.5	87.8633	16,000.5	88.1466	16,000.5	85.731	16,000.5	86.8976	16,000.5	79.2042	16,000.5	82.4996	16,000.5	76.7647	16,000.5	81.3907	16,000.5	77.1534	16,000.5	75.2585	16,000.5	68.8121	16,000.5	69.7663	16,000.5	72.7594	16,000.5	72.7747	16,000.5	71.3714	16,000.5	69.8247	16,000.5	67.0063	16,000.5	65.6059	16,000.5	67.4871	16,000.5	57.5796	16,000.5	61.3996	16,000.5	54.1617	16,000.5	61.5885	16,000.5	60.3323	16,000.5	44.892	16,000.5	60.8241	16,000.5	47.5212	16,000.5	54.5671	16,000.5	58.2842	16,000.5	12.4559	16,000.5	47.9613	16,000.5	53.5591	16,000.5	52.1853
16,564.5	87.9706	16,564.5	86.6049	16,564.5	87.4118	16,564.5	86.6671	16,564.5	87.8035	16,564.5	84.5112	16,564.5	86.5276	16,564.5	80.2312	16,564.5	82.8094	16,564.5	79.1449	16,564.5	80.6507	16,564.5	76.4829	16,564.5	76.8903	16,564.5	70.0164	16,564.5	71.057	16,564.5	69.6069	16,564.5	72.8346	16,564.5	69.3275	16,564.5	69.0964	16,564.5	66.5335	16,564.5	65.0388	16,564.5	63.6079	16,564.5	58.7916	16,564.5	60.3578	16,564.5	50.8945	16,564.5	57.0738	16,564.5	61.7596	16,564.5	49.5938	16,564.5	58.9964	16,564.5	57.3013	16,564.5	54.2944	16,564.5	56.6067	16,564.5	55.1353	16,564.5	51.467	16,564.5	54.123	16,564.5	54.3682
17,148.9	87.2996	17,148.9	87.2824	17,148.9	87.579	17,148.9	85.9189	17,148.9	87.5636	17,148.9	84.1702	17,148.9	86.1205	17,148.9	80.2842	17,148.9	83.1594	17,148.9	78.122	17,148.9	81.1813	17,148.9	78.6163	17,148.9	79.2422	17,148.9	72.5003	17,148.9	70.1078	17,148.9	69.7843	17,148.9	72.7495	17,148.9	71.0636	17,148.9	68.6052	17,148.9	66.5788	17,148.9	64.4848	17,148.9	59.6176	17,148.9	53.5803	17,148.9	55.8893	17,148.9	50.1511	17,148.9	62.3477	17,148.9	58.3302	17,148.9	56.164	17,148.9	47.1233	17,148.9	56.3818	17,148.9	47.8054	17,148.9	50.2351	17,148.9	55.3093	17,148.9	52.9426	17,148.9	53.6612	17,148.9	55.6411
17,752.4	88.0282	17,752.4	86.5251	17,752.4	87.5397	17,752.4	84.9194	17,752.4	86.6762	17,752.4	82.5087	17,752.4	86.2234	17,752.4	79.5304	17,752.4	82.3515	17,752.4	80.1036	17,752.4	81.7691	17,752.4	78.6289	17,752.4	78.5122	17,752.4	71.7034	17,752.4	70.3783	17,752.4	67.7563	17,752.4	71.1411	17,752.4	68.8156	17,752.4	65.9178	17,752.4	66.0246	17,752.4	64.6452	17,752.4	62.959	17,752.4	53.6611	17,752.4	56.723	17,752.4	52.2805	17,752.4	61.9503	17,752.4	60.1709	17,752.4	52.8956	17,752.4	53.4022	17,752.4	50.0845	17,752.4	51.0827	17,752.4	49.6706	17,752.4	52.0738	17,752.4	46.268	17,752.4	46.7423	17,752.4	52.8688
18,379.4	87.4814	18,379.4	86.0932	18,379.4	86.5785	18,379.4	82.9048	18,379.4	85.9147	18,379.4	82.8842	18,379.4	84.869	18,379.4	81.4661	18,379.4	83.2297	18,379.4	81.6322	18,379.4	82.1141	18,379.4	79.2718	18,379.4	78.2715	18,379.4	74.2217	18,379.4	71.7628	18,379.4	67.9204	18,379.4	69.0348	18,379.4	67.1268	18,379.4	65.3767	18,379.4	63.3443	18,379.4	65.5482	18,379.4	58.3524	18,379.4	41.7119	18,379.4	54.6899	18,379.4	53.1128	18,379.4	57.2921	18,379.4	57.5994	18,379.4	50.7014	18,379.4	54.9124	18,379.4	51.8487	18,379.4	57.7586	18,379.4	45.4886	18,379.4	41.0688	18,379.4	51.3842	18,379.4	52.4406	18,379.4	53.6972
19,026.9	87.3098	19,026.9	85.401	19,026.9	86.0237	19,026.9	81.7915	19,026.9	85.1064	19,026.9	83.2545	19,026.9	84.0529	19,026.9	83.9502	19,026.9	83.6677	19,026.9	82.1422	19,026.9	81.6107	19,026.9	79.4999	19,026.9	78.1994	19,026.9	73.6217	19,026.9	69.936	19,026.9	66.0989	19,026.9	68.4037	19,026.9	67.7543	19,026.9	62.7731	19,026.9	63.2459	19,026.9	63.4093	19,026.9	58.4571	19,026.9	40.3217	19,026.9	56.0082	19,026.9	52.7389	19,026.9	57	19,026.9	57.9589	19,026.9	48.5822	19,026.9	53.4242	19,026.9	45.6658	19,026.9	49.0674	19,026.9	32.907	19,026.9	49.6156	19,026.9	53.7439	19,026.9	52.78	19,026.9	45.9832
19,697.8	86.9558	19,697.8	85.1677	19,697.8	85.287	19,697.8	82.1433	19,697.8	84.7299	19,697.8	83.7403	19,697.8	85.0128	19,697.8	83.71	19,697.8	83.8312	19,697.8	82.316	19,697.8	82.2291	19,697.8	77.396	19,697.8	75.2452	19,697.8	71.2118	19,697.8	69.5192	19,697.8	64.6633	19,697.8	62.3672	19,697.8	64.2015	19,697.8	62.2334	19,697.8	60.1528	19,697.8	64.5226	19,697.8	57.5607	19,697.8	52.024	19,697.8	56.9345	19,697.8	52.5873	19,697.8	58.2863	19,697.8	58.8564	19,697.8	51.8533	19,697.8	46.8533	19,697.8	35.2922	19,697.8	48.8757	19,697.8	52.0751	19,697.8	49.573	19,697.8	51.6649	19,697.8	49.2907	19,697.8	40.82
19,999.5	86.9055	19,999.5	84.9193	19,999.5	84.7374	19,999.5	83.4762	19,999.5	84.6145	19,999.5	83.9233	19,999.5	84.8836	19,999.5	83.7521	19,999.5	83.6129	19,999.5	81.8359	19,999.5	81.1999	19,999.5	76.4959	19,999.5	74.961	19,999.5	68.9492	19,999.5	64.0411	19,999.5	62.983	19,999.5	66.0755	19,999.5	64.1151	19,999.5	63.6179	19,999.5	62.0247	19,999.5	62.125	19,999.5	57.8381	19,999.5	58.5997	19,999.5	52.684	19,999.5	59.9175	19,999.5	63.1433	19,999.5	65.7709	19,999.5	59.23	19,999.5	50.819	19,999.5	41.2324	19,999.5	48.812	19,999.5	52.4249	19,999.5	51.2911	19,999.5	59.2531	19,999.5	48.9784	19,999.5	50.3563
