"SPL Vertical"
"On-Axis"		"10°"		"-10°"		"20°"		"-20°"		"30°"		"-30°"		"40°"		"-40°"		"50°"		"-50°"		"60°"		"-60°"		"70°"		"-70°"		"80°"		"-80°"		"90°"		"-90°"		"100°"		"-100°"		"110°"		"-110°"		"120°"		"-120°"		"130°"		"-130°"		"140°"		"-140°"		"150°"		"-150°"		"160°"		"-160°"		"170°"		"-170°"		"180°"
"Frequency / Hz"	"Sound Pressure Level / dB (re 20 µPa/V)  [2.83  V @ 1. m]"	"Frequency / Hz"	"Sound Pressure Level / dB (re 20 µPa/V)  [2.83  V @ 1. m]"	"Frequency / Hz"	"Sound Pressure Level / dB (re 20 µPa/V)  [2.83  V @ 1. m]"	"Frequency / Hz"	"Sound Pressure Level / dB (re 20 µPa/V)  [2.83  V @ 1. m]"	"Frequency / Hz"	"Sound Pressure Level / dB (re 20 µPa/V)  [2.83  V @ 1. m]"	"Frequency / Hz"	"Sound Pressure Level / dB (re 20 µPa/V)  [2.83  V @ 1. m]"	"Frequency / Hz"	"Sound Pressure Level / dB (re 20 µPa/V)  [2.83  V @ 1. m]"	"Frequency / Hz"	"Sound Pressure Level / dB (re 20 µPa/V)  [2.83  V @ 1. m]"	"Frequency / Hz"	"Sound Pressure Level / dB (re 20 µPa/V)  [2.83  V @ 1. m]"	"Frequency / Hz"	"Sound Pressure Level / dB (re 20 µPa/V)  [2.83  V @ 1. m]"	"Frequency / Hz"	"Sound Pressure Level / dB (re 20 µPa/V)  [2.83  V @ 1. m]"	"Frequency / Hz"	"Sound Pressure Level / dB (re 20 µPa/V)  [2.83  V @ 1. m]"	"Frequency / Hz"	"Sound Pressure Level / dB (re 20 µPa/V)  [2.83  V @ 1. m]"	"Frequency / Hz"	"Sound Pressure Level / dB (re 20 µPa/V)  [2.83  V @ 1. m]"	"Frequency / Hz"	"Sound Pressure Level / dB (re 20 µPa/V)  [2.83  V @ 1. m]"	"Frequency / Hz"	"Sound Pressure Level / dB (re 20 µPa/V)  [2.83  V @ 1. m]"	"Frequency / Hz"	"Sound Pressure Level / dB (re 20 µPa/V)  [2.83  V @ 1. m]"	"Frequency / Hz"	"Sound Pressure Level / dB (re 20 µPa/V)  [2.83  V @ 1. m]"	"Frequency / Hz"	"Sound Pressure Level / dB (re 20 µPa/V)  [2.83  V @ 1. m]"	"Frequency / Hz"	"Sound Pressure Level / dB (re 20 µPa/V)  [2.83  V @ 1. m]"	"Frequency / Hz"	"Sound Pressure Level / dB (re 20 µPa/V)  [2.83  V @ 1. m]"	"Frequency / Hz"	"Sound Pressure Level / dB (re 20 µPa/V)  [2.83  V @ 1. m]"	"Frequency / Hz"	"Sound Pressure Level / dB (re 20 µPa/V)  [2.83  V @ 1. m]"	"Frequency / Hz"	"Sound Pressure Level / dB (re 20 µPa/V)  [2.83  V @ 1. m]"	"Frequency / Hz"	"Sound Pressure Level / dB (re 20 µPa/V)  [2.83  V @ 1. m]"	"Frequency / Hz"	"Sound Pressure Level / dB (re 20 µPa/V)  [2.83  V @ 1. m]"	"Frequency / Hz"	"Sound Pressure Level / dB (re 20 µPa/V)  [2.83  V @ 1. m]"	"Frequency / Hz"	"Sound Pressure Level / dB (re 20 µPa/V)  [2.83  V @ 1. m]"	"Frequency / Hz"	"Sound Pressure Level / dB (re 20 µPa/V)  [2.83  V @ 1. m]"	"Frequency / Hz"	"Sound Pressure Level / dB (re 20 µPa/V)  [2.83  V @ 1. m]"	"Frequency / Hz"	"Sound Pressure Level / dB (re 20 µPa/V)  [2.83  V @ 1. m]"	"Frequency / Hz"	"Sound Pressure Level / dB (re 20 µPa/V)  [2.83  V @ 1. m]"	"Frequency / Hz"	"Sound Pressure Level / dB (re 20 µPa/V)  [2.83  V @ 1. m]"	"Frequency / Hz"	"Sound Pressure Level / dB (re 20 µPa/V)  [2.83  V @ 1. m]"	"Frequency / Hz"	"Sound Pressure Level / dB (re 20 µPa/V)  [2.83  V @ 1. m]"	"Frequency / Hz"	"Sound Pressure Level / dB (re 20 µPa/V)  [2.83  V @ 1. m]"
20.5078	35.6028	20.5078	35.8002	20.5078	35.3488	20.5078	35.9379	20.5078	35.0429	20.5078	36.0146	20.5078	34.6918	20.5078	36.0302	20.5078	34.3041	20.5078	35.9855	20.5078	33.8905	20.5078	35.8824	20.5078	33.4635	20.5078	35.7232	20.5078	33.0371	20.5078	35.5112	20.5078	32.6262	20.5078	35.2502	20.5078	32.2461	20.5078	34.9447	20.5078	31.912	20.5078	34.6005	20.5078	31.6377	20.5078	34.225	20.5078	31.4348	20.5078	33.827	20.5078	31.3119	20.5078	33.4175	20.5078	31.2737	20.5078	33.0088	20.5078	31.3209	20.5078	32.6144	20.5078	31.4499	20.5078	32.2483	20.5078	31.654	20.5078	31.9239
21.9727	32.4772	21.9727	32.4407	21.9727	32.5149	21.9727	32.4094	21.9727	32.551	21.9727	32.3876	21.9727	32.5841	21.9727	32.3793	21.9727	32.6142	21.9727	32.3869	21.9727	32.6416	21.9727	32.411	21.9727	32.6671	21.9727	32.4504	21.9727	32.6911	21.9727	32.5019	21.9727	32.7134	21.9727	32.5615	21.9727	32.7338	21.9727	32.6244	21.9727	32.7516	21.9727	32.6861	21.9727	32.7667	21.9727	32.742	21.9727	32.7792	21.9727	32.7885	21.9727	32.79	21.9727	32.8231	21.9727	32.8	21.9727	32.8447	21.9727	32.8105	21.9727	32.854	21.9727	32.822	21.9727	32.8532	21.9727	32.8342	21.9727	32.8455
23.4375	34.4209	23.4375	34.3864	23.4375	34.4321	23.4375	34.3264	23.4375	34.4222	23.4375	34.2386	23.4375	34.3931	23.4375	34.1216	23.4375	34.346	23.4375	33.9754	23.4375	34.2817	23.4375	33.8015	23.4375	34.2006	23.4375	33.6037	23.4375	34.1028	23.4375	33.388	23.4375	33.9881	23.4375	33.1628	23.4375	33.8566	23.4375	32.9384	23.4375	33.7089	23.4375	32.7267	23.4375	33.5462	23.4375	32.5398	23.4375	33.3708	23.4375	32.3888	23.4375	33.1865	23.4375	32.2828	23.4375	32.9984	23.4375	32.227	23.4375	32.8133	23.4375	32.2229	23.4375	32.639	23.4375	32.2682	23.4375	32.4842	23.4375	32.3578
24.9023	30.7617	24.9023	30.8814	24.9023	30.5923	24.9023	30.9498	24.9023	30.3768	24.9023	30.9668	24.9023	30.1212	24.9023	30.9343	24.9023	29.8333	24.9023	30.8555	24.9023	29.5229	24.9023	30.7345	24.9023	29.2016	24.9023	30.5767	24.9023	28.8823	24.9023	30.388	24.9023	28.5786	24.9023	30.1746	24.9023	28.304	24.9023	29.9433	24.9023	28.0709	24.9023	29.7005	24.9023	27.8895	24.9023	29.4526	24.9023	27.7663	24.9023	29.2054	24.9023	27.7036	24.9023	28.9642	24.9023	27.6995	24.9023	28.7329	24.9023	27.7481	24.9023	28.5151	24.9023	27.8416	24.9023	28.3134	24.9023	27.9717	24.9023	28.1309
26.3672	28.2491	26.3672	28.4053	26.3672	28.0337	26.3672	28.4967	26.3672	27.767	26.3672	28.5196	26.3672	27.459	26.3672	28.4732	26.3672	27.1204	26.3672	28.359	26.3672	26.7629	26.3672	28.1806	26.3672	26.3983	26.3672	27.9438	26.3672	26.038	26.3672	27.6566	26.3672	25.6928	26.3672	27.3289	26.3672	25.3727	26.3672	26.9731	26.3672	25.0869	26.3672	26.6033	26.3672	24.8438	26.3672	26.2348	26.3672	24.6506	26.3672	25.8824	26.3672	24.5128	26.3672	25.5584	26.3672	24.4332	26.3672	25.2712	26.3672	24.4114	26.3672	25.0243	26.3672	24.4441	26.3672	24.818	26.3672	24.5259	26.3672	24.6516
27.832	26.9942	27.832	27.1772	27.832	26.7453	27.832	27.2898	27.832	26.4383	27.832	27.3308	27.832	26.0842	27.832	27.3015	27.832	25.6974	27.832	27.2054	27.832	25.2946	27.832	27.0479	27.832	24.8942	27.832	26.8359	27.832	24.5148	27.832	26.5776	27.832	24.1736	27.832	26.2827	27.832	23.8846	27.832	25.9624	27.832	23.6569	27.832	25.6289	27.832	23.4948	27.832	25.2952	27.832	23.397	27.832	24.9737	27.832	23.3584	27.832	24.6747	27.832	23.3712	27.832	24.4052	27.832	23.4271	27.832	24.1681	27.832	23.5182	27.832	23.963	27.832	23.6392	27.832	23.7874
29.2969	32.2363	29.2969	32.2317	29.2969	32.2572	29.2969	32.2435	29.2969	32.2938	29.2969	32.2711	29.2969	32.3442	29.2969	32.313	29.2969	32.4058	29.2969	32.3677	29.2969	32.4754	29.2969	32.4332	29.2969	32.5497	29.2969	32.5075	29.2969	32.6253	29.2969	32.5882	29.2969	32.6997	29.2969	32.6728	29.2969	32.7708	29.2969	32.7589	29.2969	32.8375	29.2969	32.8435	29.2969	32.8993	29.2969	32.9235	29.2969	32.956	29.2969	32.9959	29.2969	33.0077	29.2969	33.0576	29.2969	33.054	29.2969	33.1061	29.2969	33.0941	29.2969	33.1397	29.2969	33.1265	29.2969	33.1577	29.2969	33.1494	29.2969	33.1604
30.7617	24.1345	30.7617	24.0697	30.7617	24.2577	30.7617	24.0638	30.7617	24.4318	30.7617	24.1106	30.7617	24.6438	30.7617	24.1988	30.7617	24.8773	30.7617	24.3149	30.7617	25.1153	30.7617	24.4453	30.7617	25.3421	30.7617	24.5785	30.7617	25.5449	30.7617	24.7062	30.7617	25.7143	30.7617	24.8234	30.7617	25.8444	30.7617	24.9284	30.7617	25.9326	30.7617	25.0213	30.7617	25.9795	30.7617	25.1045	30.7617	25.9878	30.7617	25.1809	30.7617	25.9625	30.7617	25.2541	30.7617	25.91	30.7617	25.3276	30.7617	25.8378	30.7617	25.4043	30.7617	25.7532	30.7617	25.4859	30.7617	25.663	30.7617	25.5727
32.2266	31.8594	32.2266	31.8465	32.2266	31.8809	32.2266	31.8416	32.2266	31.9111	32.2266	31.8445	32.2266	31.9498	32.2266	31.855	32.2266	31.9956	32.2266	31.8728	32.2266	32.0465	32.2266	31.8976	32.2266	32.0993	32.2266	31.9286	32.2266	32.1506	32.2266	31.9645	32.2266	32.1971	32.2266	32.0039	32.2266	32.236	32.2266	32.0448	32.2266	32.2655	32.2266	32.0852	32.2266	32.2849	32.2266	32.1231	32.2266	32.2947	32.2266	32.1569	32.2266	32.2965	32.2266	32.1856	32.2266	32.2923	32.2266	32.2089	32.2266	32.2844	32.2266	32.2272	32.2266	32.2748	32.2266	32.2417	32.2266	32.2645	32.2266	32.2537
33.6914	15.2025	33.6914	14.6967	33.6914	15.617	33.6914	14.0629	33.6914	15.9709	33.6914	13.2555	33.6914	16.2894	33.6914	12.2137	33.6914	16.5908	33.6914	10.849	33.6914	16.8855	33.6914	9.02524	33.6914	17.1765	33.6914	6.53861	33.6914	17.4608	33.6914	3.27529	33.6914	17.7324	33.6914	1.03191	33.6914	17.9844	33.6914	3.6179	33.6914	18.2101	33.6914	7.37279	33.6914	18.4035	33.6914	10.3307	33.6914	18.5583	33.6914	12.5727	33.6914	18.6662	33.6914	14.2928	33.6914	18.7156	33.6914	15.6202	33.6914	18.6911	33.6914	16.6377	33.6914	18.5728	33.6914	17.4024	33.6914	18.3372	33.6914	17.9572
35.1562	33.0408	35.1562	33.0579	35.1562	33.0196	35.1562	33.0695	35.1562	32.9971	35.1562	33.0751	35.1562	32.9762	35.1562	33.0756	35.1562	32.9601	35.1562	33.0729	35.1562	32.9515	35.1562	33.0699	35.1562	32.9526	35.1562	33.0696	35.1562	32.9647	35.1562	33.075	35.1562	32.9883	35.1562	33.0886	35.1562	33.0227	35.1562	33.1117	35.1562	33.0669	35.1562	33.1445	35.1562	33.1186	35.1562	33.1856	35.1562	33.1749	35.1562	33.2322	35.1562	33.2324	35.1562	33.2802	35.1562	33.2869	35.1562	33.3252	35.1562	33.3342	35.1562	33.3624	35.1562	33.3703	35.1562	33.3877	35.1562	33.3923	35.1562	33.3982
36.6211	33.2023	36.6211	33.1687	36.6211	33.2381	36.6211	33.1384	36.6211	33.2747	36.6211	33.1125	36.6211	33.3111	36.6211	33.092	36.6211	33.346	36.6211	33.0776	36.6211	33.3781	36.6211	33.0697	36.6211	33.4059	36.6211	33.0682	36.6211	33.4283	36.6211	33.0729	36.6211	33.444	36.6211	33.0833	36.6211	33.4523	36.6211	33.0986	36.6211	33.4528	36.6211	33.1179	36.6211	33.446	36.6211	33.1402	36.6211	33.4326	36.6211	33.1645	36.6211	33.4139	36.6211	33.1899	36.6211	33.3916	36.6211	33.2156	36.6211	33.3671	36.6211	33.241	36.6211	33.3418	36.6211	33.2662	36.6211	33.3164	36.6211	33.2912
38.0859	29.9345	38.0859	29.9864	38.0859	29.8483	38.0859	30.0007	38.0859	29.7332	38.0859	29.9769	38.0859	29.5966	38.0859	29.9172	38.0859	29.447	38.0859	29.826	38.0859	29.2935	38.0859	29.7094	38.0859	29.1447	38.0859	29.5753	38.0859	29.0084	38.0859	29.432	38.0859	28.8907	38.0859	29.2883	38.0859	28.7957	38.0859	29.1524	38.0859	28.7253	38.0859	29.0314	38.0859	28.6792	38.0859	28.9303	38.0859	28.6549	38.0859	28.8515	38.0859	28.648	38.0859	28.7948	38.0859	28.6535	38.0859	28.7571	38.0859	28.666	38.0859	28.7335	38.0859	28.6806	38.0859	28.7183	38.0859	28.6945	38.0859	28.7066
39.5508	30.6047	39.5508	30.432	39.5508	30.7467	39.5508	30.2311	39.5508	30.8581	39.5508	30.0068	39.5508	30.9401	39.5508	29.7667	39.5508	30.9946	39.5508	29.5211	39.5508	31.0234	39.5508	29.2819	39.5508	31.028	39.5508	29.062	39.5508	31.0088	39.5508	28.8736	39.5508	30.9657	39.5508	28.7269	39.5508	30.8984	39.5508	28.6292	39.5508	30.8062	39.5508	28.5835	39.5508	30.6893	39.5508	28.5894	39.5508	30.5485	39.5508	28.6428	39.5508	30.386	39.5508	28.738	39.5508	30.2051	39.5508	28.8678	39.5508	30.0103	39.5508	29.0254	39.5508	29.807	39.5508	29.2042	39.5508	29.6009	39.5508	29.398
41.0156	33.896	41.0156	33.8114	41.0156	34.0178	41.0156	33.7651	41.0156	34.1744	41.0156	33.7576	41.0156	34.3617	41.0156	33.7887	41.0156	34.574	41.0156	33.858	41.0156	34.804	41.0156	33.9646	41.0156	35.0438	41.0156	34.1063	41.0156	35.2846	41.0156	34.2802	41.0156	35.5182	41.0156	34.4812	41.0156	35.737	41.0156	34.7032	41.0156	35.9342	41.0156	34.9384	41.0156	36.1042	41.0156	35.1787	41.0156	36.2429	41.0156	35.4156	41.0156	36.3469	41.0156	35.6411	41.0156	36.4141	41.0156	35.848	41.0156	36.4434	41.0156	36.0302	41.0156	36.4343	41.0156	36.183	41.0156	36.3871	41.0156	36.3028
42.4805	35.2999	42.4805	35.2154	42.4805	35.3674	42.4805	35.1182	42.4805	35.415	42.4805	35.0135	42.4805	35.4416	42.4805	34.9067	42.4805	35.448	42.4805	34.8032	42.4805	35.4363	42.4805	34.7074	42.4805	35.4092	42.4805	34.6227	42.4805	35.3695	42.4805	34.5517	42.4805	35.3192	42.4805	34.4953	42.4805	35.2595	42.4805	34.4536	42.4805	35.191	42.4805	34.4259	42.4805	35.1141	42.4805	34.4108	42.4805	35.03	42.4805	34.4069	42.4805	34.9407	42.4805	34.4132	42.4805	34.8495	42.4805	34.4293	42.4805	34.7604	42.4805	34.4555	42.4805	34.6775	42.4805	34.4929	42.4805	34.604	42.4805	34.5422
43.9453	38.0845	43.9453	38.0166	43.9453	38.1532	43.9453	37.954	43.9453	38.2197	43.9453	37.9016	43.9453	38.282	43.9453	37.8646	43.9453	38.3396	43.9453	37.8473	43.9453	38.3926	43.9453	37.853	43.9453	38.4419	43.9453	37.8828	43.9453	38.4885	43.9453	37.9362	43.9453	38.533	43.9453	38.0104	43.9453	38.5758	43.9453	38.1011	43.9453	38.617	43.9453	38.2028	43.9453	38.6561	43.9453	38.3092	43.9453	38.6923	43.9453	38.4142	43.9453	38.7244	43.9453	38.5119	43.9453	38.7508	43.9453	38.5976	43.9453	38.7695	43.9453	38.6678	43.9453	38.7783	43.9453	38.7208	43.9453	38.7746	43.9453	38.7561
45.4102	37.3213	45.4102	37.3209	45.4102	37.3151	45.4102	37.3158	45.4102	37.3016	45.4102	37.3087	45.4102	37.2813	45.4102	37.3026	45.4102	37.2558	45.4102	37.3002	45.4102	37.2279	45.4102	37.3032	45.4102	37.2005	45.4102	37.3125	45.4102	37.1769	45.4102	37.3278	45.4102	37.1599	45.4102	37.3478	45.4102	37.1516	45.4102	37.3706	45.4102	37.1532	45.4102	37.3937	45.4102	37.1651	45.4102	37.4147	45.4102	37.1866	45.4102	37.4311	45.4102	37.2162	45.4102	37.4411	45.4102	37.2517	45.4102	37.4431	45.4102	37.2902	45.4102	37.4362	45.4102	37.329	45.4102	37.4205	45.4102	37.3652	45.4102	37.3964
46.875	38.7357	46.875	38.7237	46.875	38.7507	46.875	38.7155	46.875	38.7678	46.875	38.7124	46.875	38.7862	46.875	38.7153	46.875	38.8058	46.875	38.7249	46.875	38.8263	46.875	38.7414	46.875	38.848	46.875	38.7647	46.875	38.8711	46.875	38.7942	46.875	38.8955	46.875	38.8289	46.875	38.9215	46.875	38.8674	46.875	38.9487	46.875	38.908	46.875	38.9766	46.875	38.9488	46.875	39.0045	46.875	38.9878	46.875	39.0312	46.875	39.0233	46.875	39.0555	46.875	39.0534	46.875	39.0758	46.875	39.0768	46.875	39.0908	46.875	39.0924	46.875	39.0991	46.875	39.0998
48.3398	39.1692	48.3398	39.1912	48.3398	39.1505	48.3398	39.2156	48.3398	39.1353	48.3398	39.2413	48.3398	39.1233	48.3398	39.2665	48.3398	39.1141	48.3398	39.2893	48.3398	39.1071	48.3398	39.3079	48.3398	39.1017	48.3398	39.3204	48.3398	39.0974	48.3398	39.326	48.3398	39.0937	48.3398	39.324	48.3398	39.0906	48.3398	39.3146	48.3398	39.088	48.3398	39.2988	48.3398	39.0861	48.3398	39.2778	48.3398	39.0854	48.3398	39.2533	48.3398	39.0865	48.3398	39.227	48.3398	39.0897	48.3398	39.2007	48.3398	39.0956	48.3398	39.1756	48.3398	39.1047	48.3398	39.153	48.3398	39.1173	48.3398	39.1334
51.2695	43.9844	51.2695	43.979	51.2695	43.979	51.2695	43.9633	51.2695	43.9625	51.2695	43.9386	51.2695	43.9356	51.2695	43.906	51.2695	43.899	51.2695	43.867	51.2695	43.8543	51.2695	43.8232	51.2695	43.8033	51.2695	43.7759	51.2695	43.748	51.2695	43.7267	51.2695	43.6905	51.2695	43.6766	51.2695	43.6329	51.2695	43.627	51.2695	43.5772	51.2695	43.5788	51.2695	43.5252	51.2695	43.5331	51.2695	43.4786	51.2695	43.491	51.2695	43.4386	51.2695	43.4533	51.2695	43.4064	51.2695	43.421	51.2695	43.3826	51.2695	43.395	51.2695	43.3678	51.2695	43.376	51.2695	43.3619	51.2695	43.3647
52.7344	45.6253	52.7344	45.6305	52.7344	45.6135	52.7344	45.6291	52.7344	45.5954	52.7344	45.6214	52.7344	45.5714	52.7344	45.6077	52.7344	45.5422	52.7344	45.5887	52.7344	45.5088	52.7344	45.5652	52.7344	45.4724	52.7344	45.5381	52.7344	45.4342	52.7344	45.5085	52.7344	45.3958	52.7344	45.4772	52.7344	45.3585	52.7344	45.4453	52.7344	45.324	52.7344	45.4137	52.7344	45.2936	52.7344	45.3829	52.7344	45.2683	52.7344	45.3537	52.7344	45.2489	52.7344	45.3264	52.7344	45.236	52.7344	45.3016	52.7344	45.2296	52.7344	45.2796	52.7344	45.2295	52.7344	45.2608	52.7344	45.2351	52.7344	45.2457
54.1992	46.9321	54.1992	46.9437	54.1992	46.9136	54.1992	46.9483	54.1992	46.8889	54.1992	46.946	54.1992	46.859	54.1992	46.9369	54.1992	46.8249	54.1992	46.922	54.1992	46.7879	54.1992	46.9019	54.1992	46.7496	54.1992	46.8776	54.1992	46.7113	54.1992	46.8504	54.1992	46.6745	54.1992	46.8211	54.1992	46.6406	54.1992	46.7909	54.1992	46.6109	54.1992	46.7606	54.1992	46.5864	54.1992	46.7309	54.1992	46.5679	54.1992	46.7023	54.1992	46.5559	54.1992	46.6752	54.1992	46.5505	54.1992	46.6497	54.1992	46.5514	54.1992	46.6261	54.1992	46.5582	54.1992	46.6045	54.1992	46.5698	54.1992	46.5856
55.6641	48.3328	55.6641	48.3481	55.6641	48.3182	55.6641	48.3632	55.6641	48.3046	55.6641	48.3774	55.6641	48.2923	55.6641	48.3899	55.6641	48.2815	55.6641	48.3999	55.6641	48.2723	55.6641	48.4067	55.6641	48.2647	55.6641	48.4102	55.6641	48.2587	55.6641	48.4101	55.6641	48.2544	55.6641	48.4068	55.6641	48.2519	55.6641	48.4007	55.6641	48.2513	55.6641	48.3925	55.6641	48.2529	55.6641	48.3827	55.6641	48.2565	55.6641	48.3721	55.6641	48.2623	55.6641	48.3608	55.6641	48.27	55.6641	48.3493	55.6641	48.2794	55.6641	48.3375	55.6641	48.2901	55.6641	48.3256	55.6641	48.3016	55.6641	48.3135
58.5938	51.7627	58.5938	51.7749	58.5938	51.7422	58.5938	51.7783	58.5938	51.7142	58.5938	51.7728	58.5938	51.6797	58.5938	51.7586	58.5938	51.6399	58.5938	51.7361	58.5938	51.5963	58.5938	51.7063	58.5938	51.5501	58.5938	51.6701	58.5938	51.5031	58.5938	51.629	58.5938	51.4565	58.5938	51.5843	58.5938	51.4119	58.5938	51.5377	58.5938	51.3705	58.5938	51.4906	58.5938	51.3336	58.5938	51.4447	58.5938	51.302	58.5938	51.4011	58.5938	51.2767	58.5938	51.3613	58.5938	51.2581	58.5938	51.3261	58.5938	51.2467	58.5938	51.2964	58.5938	51.2425	58.5938	51.2728	58.5938	51.2456	58.5938	51.2557
60.0586	53.7791	60.0586	53.7892	60.0586	53.7638	60.0586	53.7936	60.0586	53.744	60.0586	53.7919	60.0586	53.7205	60.0586	53.7841	60.0586	53.6943	60.0586	53.7704	60.0586	53.6661	60.0586	53.7512	60.0586	53.6369	60.0586	53.7272	60.0586	53.6075	60.0586	53.6994	60.0586	53.5789	60.0586	53.6689	60.0586	53.5517	60.0586	53.6368	60.0586	53.5266	60.0586	53.6043	60.0586	53.5043	60.0586	53.5727	60.0586	53.4851	60.0586	53.5431	60.0586	53.4693	60.0586	53.5164	60.0586	53.4574	60.0586	53.4934	60.0586	53.4494	60.0586	53.4746	60.0586	53.4455	60.0586	53.4604	60.0586	53.4459	60.0586	53.4509
62.9883	56.3603	62.9883	56.3749	62.9883	56.3415	62.9883	56.3847	62.9883	56.3192	62.9883	56.3897	62.9883	56.2941	62.9883	56.3898	62.9883	56.2673	62.9883	56.3852	62.9883	56.2399	62.9883	56.3763	62.9883	56.213	62.9883	56.3636	62.9883	56.1877	62.9883	56.3478	62.9883	56.1649	62.9883	56.3295	62.9883	56.1455	62.9883	56.3095	62.9883	56.1301	62.9883	56.2885	62.9883	56.119	62.9883	56.267	62.9883	56.1123	62.9883	56.2456	62.9883	56.11	62.9883	56.2247	62.9883	56.1119	62.9883	56.2046	62.9883	56.1175	62.9883	56.1856	62.9883	56.1263	62.9883	56.168	62.9883	56.138	62.9883	56.152
64.4531	57.7507	64.4531	57.7709	64.4531	57.7266	64.4531	57.7865	64.4531	57.6994	64.4531	57.7973	64.4531	57.67	64.4531	57.8031	64.4531	57.6398	64.4531	57.804	64.4531	57.6098	64.4531	57.8004	64.4531	57.5814	64.4531	57.7926	64.4531	57.5558	64.4531	57.7812	64.4531	57.5341	64.4531	57.7668	64.4531	57.5171	64.4531	57.7501	64.4531	57.5054	64.4531	57.7315	64.4531	57.4992	64.4531	57.7116	64.4531	57.4986	64.4531	57.6907	64.4531	57.5033	64.4531	57.6692	64.4531	57.5126	64.4531	57.6473	64.4531	57.5259	64.4531	57.6252	64.4531	57.5424	64.4531	57.6032	64.4531	57.5613	64.4531	57.5818
67.3828	60.5421	67.3828	60.5686	67.3828	60.5114	67.3828	60.59	67.3828	60.4773	67.3828	60.6056	67.3828	60.4413	67.3828	60.6151	67.3828	60.4045	67.3828	60.6184	67.3828	60.3685	67.3828	60.6158	67.3828	60.3345	67.3828	60.6076	67.3828	60.3041	67.3828	60.5945	67.3828	60.2783	67.3828	60.5773	67.3828	60.2582	67.3828	60.5567	67.3828	60.2445	67.3828	60.5335	67.3828	60.2375	67.3828	60.5084	67.3828	60.2374	67.3828	60.482	67.3828	60.2437	67.3828	60.4548	67.3828	60.2558	67.3828	60.4271	67.3828	60.2729	67.3828	60.3991	67.3828	60.294	67.3828	60.3713	67.3828	60.318	67.3828	60.3441
68.8477	62.0094	68.8477	62.0343	68.8477	61.9776	68.8477	62.0517	68.8477	61.9402	68.8477	62.0608	68.8477	61.8984	68.8477	62.0616	68.8477	61.8538	68.8477	62.0543	68.8477	61.8081	68.8477	62.0392	68.8477	61.7629	68.8477	62.0173	68.8477	61.7198	68.8477	61.9897	68.8477	61.6805	68.8477	61.9574	68.8477	61.6463	68.8477	61.9219	68.8477	61.6183	68.8477	61.8844	68.8477	61.5973	68.8477	61.846	68.8477	61.5837	68.8477	61.8078	68.8477	61.5777	68.8477	61.7705	68.8477	61.5788	68.8477	61.7349	68.8477	61.5867	68.8477	61.7015	68.8477	61.6006	68.8477	61.6708	68.8477	61.6197	68.8477	61.6434
71.7773	64.5503	71.7773	64.5745	71.7773	64.5191	71.7773	64.5909	71.7773	64.4819	71.7773	64.5991	71.7773	64.4401	71.7773	64.599	71.7773	64.3954	71.7773	64.5911	71.7773	64.3497	71.7773	64.5759	71.7773	64.3046	71.7773	64.5545	71.7773	64.2621	71.7773	64.5278	71.7773	64.2236	71.7773	64.497	71.7773	64.1906	71.7773	64.4633	71.7773	64.1642	71.7773	64.4278	71.7773	64.1449	71.7773	64.3916	71.7773	64.133	71.7773	64.3554	71.7773	64.1286	71.7773	64.32	71.7773	64.1311	71.7773	64.286	71.7773	64.14	71.7773	64.2539	71.7773	64.1544	71.7773	64.2241	71.7773	64.1738	71.7773	64.1972
74.707	66.8752	74.707	66.9	74.707	66.8438	74.707	66.9174	74.707	66.8065	74.707	66.9269	74.707	66.7648	74.707	66.9285	74.707	66.7202	74.707	66.9223	74.707	66.6742	74.707	66.909	74.707	66.6286	74.707	66.889	74.707	66.5851	74.707	66.8634	74.707	66.5453	74.707	66.8331	74.707	66.5107	74.707	66.7991	74.707	66.4825	74.707	66.7626	74.707	66.4613	74.707	66.7246	74.707	66.4478	74.707	66.6859	74.707	66.442	74.707	66.6476	74.707	66.4436	74.707	66.6104	74.707	66.4521	74.707	66.5751	74.707	66.4671	74.707	66.5423	74.707	66.4876	74.707	66.5129
77.6367	69.2799	77.6367	69.3009	77.6367	69.2521	77.6367	69.3147	77.6367	69.2186	77.6367	69.3211	77.6367	69.1805	77.6367	69.3203	77.6367	69.1392	77.6367	69.3127	77.6367	69.0965	77.6367	69.2991	77.6367	69.0541	77.6367	69.2803	77.6367	69.0138	77.6367	69.2571	77.6367	68.9773	77.6367	69.2307	77.6367	68.9461	77.6367	69.2018	77.6367	68.9212	77.6367	69.1714	77.6367	68.9034	77.6367	69.1401	77.6367	68.8929	77.6367	69.1084	77.6367	68.8899	77.6367	69.077	77.6367	68.8937	77.6367	69.0462	77.6367	68.9037	77.6367	69.0165	77.6367	68.9191	77.6367	68.9883	77.6367	68.9389	77.6367	68.9622
79.1016	70.1777	79.1016	70.1984	79.1016	70.1507	79.1016	70.2122	79.1016	70.1182	79.1016	70.2192	79.1016	70.0814	79.1016	70.2194	79.1016	70.0417	79.1016	70.2133	79.1016	70.0008	79.1016	70.2016	79.1016	69.9604	79.1016	70.1851	79.1016	69.9223	79.1016	70.1647	79.1016	69.8881	79.1016	70.1413	79.1016	69.8595	79.1016	70.1158	79.1016	69.8373	79.1016	70.0888	79.1016	69.8223	79.1016	70.061	79.1016	69.8148	79.1016	70.0326	79.1016	69.8146	79.1016	70.0042	79.1016	69.8211	79.1016	69.9759	79.1016	69.8334	79.1016	69.948	79.1016	69.8505	79.1016	69.921	79.1016	69.8714	79.1016	69.8952
82.0312	71.6734	82.0312	71.6945	82.0312	71.6456	82.0312	71.7085	82.0312	71.6121	82.0312	71.7153	82.0312	71.574	82.0312	71.7152	82.0312	71.5328	82.0312	71.7086	82.0312	71.4902	82.0312	71.6963	82.0312	71.4482	82.0312	71.6791	82.0312	71.4086	82.0312	71.6582	82.0312	71.3734	82.0312	71.6344	82.0312	71.344	82.0312	71.6087	82.0312	71.3217	82.0312	71.5819	82.0312	71.3072	82.0312	71.5544	82.0312	71.3007	82.0312	71.5267	82.0312	71.3019	82.0312	71.4989	82.0312	71.3102	82.0312	71.4712	82.0312	71.3243	82.0312	71.4437	82.0312	71.3432	82.0312	71.4166	82.0312	71.3656	82.0312	71.3904
84.9609	72.9197	84.9609	72.9413	84.9609	72.8903	84.9609	72.9545	84.9609	72.8542	84.9609	72.9592	84.9609	72.8127	84.9609	72.9555	84.9609	72.7675	84.9609	72.9441	84.9609	72.7205	84.9609	72.9259	84.9609	72.6736	84.9609	72.9021	84.9609	72.6291	84.9609	72.8741	84.9609	72.5887	84.9609	72.8432	84.9609	72.5542	84.9609	72.8107	84.9609	72.527	84.9609	72.7776	84.9609	72.5077	84.9609	72.7448	84.9609	72.4968	84.9609	72.7127	84.9609	72.494	84.9609	72.6816	84.9609	72.4986	84.9609	72.6517	84.9609	72.5097	84.9609	72.623	84.9609	72.526	84.9609	72.5957	84.9609	72.5465	84.9609	72.57
87.8906	73.8109	87.8906	73.8279	87.8906	73.7827	87.8906	73.8334	87.8906	73.7445	87.8906	73.8275	87.8906	73.6978	87.8906	73.8108	87.8906	73.6446	87.8906	73.7847	87.8906	73.5873	87.8906	73.7507	87.8906	73.5285	87.8906	73.7106	87.8906	73.4708	87.8906	73.6666	87.8906	73.4168	87.8906	73.6205	87.8906	73.3686	87.8906	73.5742	87.8906	73.328	87.8906	73.529	87.8906	73.296	87.8906	73.4861	87.8906	73.2732	87.8906	73.4463	87.8906	73.2595	87.8906	73.4098	87.8906	73.2543	87.8906	73.3768	87.8906	73.2567	87.8906	73.3473	87.8906	73.2656	87.8906	73.3212	87.8906	73.2798	87.8906	73.2986
90.8203	74.4071	90.8203	74.4218	90.8203	74.3823	90.8203	74.426	90.8203	74.3483	90.8203	74.4198	90.8203	74.3064	90.8203	74.404	90.8203	74.2585	90.8203	74.3795	90.8203	74.2066	90.8203	74.3477	90.8203	74.1531	90.8203	74.3104	90.8203	74.1003	90.8203	74.2691	90.8203	74.0505	90.8203	74.2257	90.8203	74.0056	90.8203	74.1818	90.8203	73.9672	90.8203	74.1388	90.8203	73.9363	90.8203	74.0977	90.8203	73.9133	90.8203	74.0595	90.8203	73.8984	90.8203	74.0246	90.8203	73.8911	90.8203	73.9934	90.8203	73.8906	90.8203	73.9659	90.8203	73.8962	90.8203	73.9423	90.8203	73.9071	90.8203	73.9226
95.2148	75.1615	95.2148	75.1734	95.2148	75.1401	95.2148	75.1758	95.2148	75.1101	95.2148	75.1689	95.2148	75.0726	95.2148	75.1535	95.2148	75.0293	95.2148	75.1307	95.2148	74.9822	95.2148	75.1019	95.2148	74.9337	95.2148	75.0687	95.2148	74.886	95.2148	75.0328	95.2148	74.8415	95.2148	74.9958	95.2148	74.802	95.2148	74.9592	95.2148	74.7691	95.2148	74.9239	95.2148	74.7436	95.2148	74.8909	95.2148	74.726	95.2148	74.8606	95.2148	74.7159	95.2148	74.8332	95.2148	74.7127	95.2148	74.8085	95.2148	74.7155	95.2148	74.7864	95.2148	74.7232	95.2148	74.7667	95.2148	74.7348	95.2148	74.7494
98.1445	75.5472	98.1445	75.5612	98.1445	75.5238	98.1445	75.5654	98.1445	75.4917	98.1445	75.5603	98.1445	75.4524	98.1445	75.5465	98.1445	75.4077	98.1445	75.5255	98.1445	75.36	98.1445	75.4987	98.1445	75.3118	98.1445	75.4679	98.1445	75.2657	98.1445	75.4347	98.1445	75.224	98.1445	75.4009	98.1445	75.1886	98.1445	75.3678	98.1445	75.1609	98.1445	75.3365	98.1445	75.1415	98.1445	75.3077	98.1445	75.1304	98.1445	75.2814	98.1445	75.1268	98.1445	75.2578	98.1445	75.1298	98.1445	75.2362	98.1445	75.1379	98.1445	75.2164	98.1445	75.1498	98.1445	75.1979	98.1445	75.1643	98.1445	75.1805
101.074	75.9787	101.074	75.9975	101.074	75.9498	101.074	76.0058	101.074	75.9117	101.074	76.0037	101.074	75.8661	101.074	75.992	101.074	75.8151	101.074	75.9718	101.074	75.7615	101.074	75.9448	101.074	75.7081	101.074	75.9128	101.074	75.6578	101.074	75.8778	101.074	75.6135	101.074	75.8418	101.074	75.5773	101.074	75.8065	101.074	75.5508	101.074	75.7733	101.074	75.5344	101.074	75.743	101.074	75.528	101.074	75.716	101.074	75.5303	101.074	75.692	101.074	75.5398	101.074	75.6704	101.074	75.5543	101.074	75.6502	101.074	75.572	101.074	75.6305	101.074	75.5913	101.074	75.611
105.469	76.6867	105.469	76.7118	105.469	76.65	105.469	76.7247	105.469	76.6027	105.469	76.7257	105.469	76.5465	105.469	76.7154	105.469	76.484	105.469	76.6949	105.469	76.4178	105.469	76.6658	105.469	76.3514	105.469	76.6298	105.469	76.2881	105.469	76.5887	105.469	76.2311	105.469	76.5447	105.469	76.1831	105.469	76.4994	105.469	76.1461	105.469	76.4546	105.469	76.1211	105.469	76.4115	105.469	76.1081	105.469	76.3708	105.469	76.1063	105.469	76.3328	105.469	76.1142	105.469	76.2974	105.469	76.1297	105.469	76.2644	105.469	76.1508	105.469	76.2331	105.469	76.1759	105.469	76.2036
108.398	77.1249	108.398	77.1483	108.398	77.0896	108.398	77.1594	108.398	77.0433	108.398	77.1583	108.398	76.9879	108.398	77.1459	108.398	76.9259	108.398	77.1234	108.398	76.8601	108.398	77.0926	108.398	76.7939	108.398	77.0553	108.398	76.7307	108.398	77.0136	108.398	76.6737	108.398	76.9695	108.398	76.6256	108.398	76.9249	108.398	76.5885	108.398	76.8813	108.398	76.5633	108.398	76.8398	108.398	76.5501	108.398	76.801	108.398	76.5481	108.398	76.765	108.398	76.5556	108.398	76.7316	108.398	76.5707	108.398	76.7003	108.398	76.5913	108.398	76.6706	108.398	76.6156	108.398	76.6423
112.793	77.8174	112.793	77.8387	112.793	77.7826	112.793	77.8463	112.793	77.7354	112.793	77.8406	112.793	77.6776	112.793	77.8225	112.793	77.6118	112.793	77.7937	112.793	77.5412	112.793	77.756	112.793	77.4695	112.793	77.7118	112.793	77.4005	112.793	77.6633	112.793	77.3376	112.793	77.6129	112.793	77.284	112.793	77.5628	112.793	77.2419	112.793	77.5146	112.793	77.2125	112.793	77.4696	112.793	77.1958	112.793	77.4286	112.793	77.1908	112.793	77.3916	112.793	77.1958	112.793	77.3583	112.793	77.2085	112.793	77.328	112.793	77.2269	112.793	77.2999	112.793	77.2491	112.793	77.2736
117.188	78.557	117.188	78.5864	117.188	78.5137	117.188	78.6016	117.188	78.4579	117.188	78.603	117.188	78.3914	117.188	78.5914	117.188	78.3172	117.188	78.5684	117.188	78.239	117.188	78.5357	117.188	78.1608	117.188	78.4953	117.188	78.0869	117.188	78.4493	117.188	78.0213	117.188	78.3999	117.188	77.9673	117.188	78.3492	117.188	77.9272	117.188	78.2989	117.188	77.902	117.188	78.2506	117.188	77.8913	117.188	78.205	117.188	77.8937	117.188	78.1626	117.188	77.9069	117.188	78.1233	117.188	77.9282	117.188	78.0864	117.188	77.9551	117.188	78.0514	117.188	77.9854	117.188	78.0177
120.117	79.0318	120.117	79.0653	120.117	78.9845	120.117	79.0846	120.117	78.9246	120.117	79.09	120.117	78.8541	120.117	79.0822	120.117	78.7761	120.117	79.0627	120.117	78.6942	120.117	79.0328	120.117	78.6124	120.117	78.9946	120.117	78.5352	120.117	78.9499	120.117	78.4665	120.117	78.9007	120.117	78.41	120.117	78.8488	120.117	78.3678	120.117	78.7962	120.117	78.3414	120.117	78.7442	120.117	78.3303	120.117	78.6938	120.117	78.3334	120.117	78.6459	120.117	78.3484	120.117	78.6003	120.117	78.3725	120.117	78.5571	120.117	78.4032	120.117	78.5157	120.117	78.4383	120.117	78.4761
124.512	79.7417	124.512	79.7746	124.512	79.695	124.512	79.7936	124.512	79.636	124.512	79.799	124.512	79.5667	124.512	79.7917	124.512	79.4901	124.512	79.7731	124.512	79.41	124.512	79.745	124.512	79.3306	124.512	79.7092	124.512	79.2563	124.512	79.6677	124.512	79.1912	124.512	79.6222	124.512	79.1387	124.512	79.5747	124.512	79.1009	124.512	79.5266	124.512	79.0788	124.512	79.4791	124.512	79.0719	124.512	79.4332	124.512	79.0787	124.512	79.3891	124.512	79.0967	124.512	79.347	124.512	79.1231	124.512	79.3064	124.512	79.1553	124.512	79.267	124.512	79.1909	124.512	79.2284
128.906	80.4249	128.906	80.4607	128.906	80.3755	128.906	80.4825	128.906	80.3136	128.906	80.4908	128.906	80.2416	128.906	80.4866	128.906	80.1624	128.906	80.4714	128.906	80.0802	128.906	80.4467	128.906	79.9994	128.906	80.4144	128.906	79.9246	128.906	80.3763	128.906	79.8602	128.906	80.3341	128.906	79.8096	128.906	80.2894	128.906	79.775	128.906	80.2436	128.906	79.7574	128.906	80.1979	128.906	79.7558	128.906	80.1529	128.906	79.7683	128.906	80.1092	128.906	79.7922	128.906	80.0666	128.906	79.8242	128.906	80.0249	128.906	79.8615	128.906	79.9836	128.906	79.9014	128.906	79.9424
133.301	81.0903	133.301	81.1278	133.301	81.0392	133.301	81.1515	133.301	80.9756	133.301	81.162	133.301	80.9016	133.301	81.1606	133.301	80.8208	133.301	81.1489	133.301	80.7373	133.301	81.1287	133.301	80.656	133.301	81.1016	133.301	80.5819	133.301	81.0695	133.301	80.5197	133.301	81.0337	133.301	80.473	133.301	80.9956	133.301	80.444	133.301	80.9561	133.301	80.4331	133.301	80.9159	133.301	80.4393	133.301	80.8756	133.301	80.4601	133.301	80.8352	133.301	80.4921	133.301	80.7944	133.301	80.5317	133.301	80.753	133.301	80.5757	133.301	80.7104	133.301	80.6211	133.301	80.6664
139.16	81.8739	139.16	81.9203	139.16	81.8124	139.16	81.9514	139.16	81.7371	139.16	81.968	139.16	81.6507	139.16	81.9715	139.16	81.5572	139.16	81.9637	139.16	81.4616	139.16	81.9467	139.16	81.3697	139.16	81.9224	139.16	81.2875	139.16	81.8928	139.16	81.2206	139.16	81.8594	139.16	81.1732	139.16	81.8235	139.16	81.1478	139.16	81.7861	139.16	81.1448	139.16	81.7475	139.16	81.1625	139.16	81.708	139.16	81.1975	139.16	81.6671	139.16	81.2453	139.16	81.6244	139.16	81.3011	139.16	81.5788	139.16	81.3605	139.16	81.5297	139.16	81.4198	139.16	81.4766
143.555	82.4093	143.555	82.462	143.555	82.3403	143.555	82.4982	143.555	82.2567	143.555	82.5186	143.555	82.1612	143.555	82.5246	143.555	82.0584	143.555	82.518	143.555	81.9535	143.555	82.501	143.555	81.853	143.555	82.4758	143.555	81.7635	143.555	82.4443	143.555	81.6908	143.555	82.4084	143.555	81.6398	143.555	82.3695	143.555	81.6133	143.555	82.3288	143.555	81.6116	143.555	82.2868	143.555	81.6329	143.555	82.2437	143.555	81.6735	143.555	82.1993	143.555	81.7282	143.555	82.1526	143.555	81.7916	143.555	82.1026	143.555	81.8588	143.555	82.0483	143.555	81.9256	143.555	81.9893
147.949	82.8696	147.949	82.9342	147.949	82.7876	147.949	82.981	147.949	82.6901	147.949	83.0104	147.949	82.5804	147.949	83.0237	147.949	82.4633	147.949	83.0226	147.949	82.345	147.949	83.0091	147.949	82.2324	147.949	82.9851	147.949	82.1327	147.949	82.9527	147.949	82.0525	147.949	82.9135	147.949	81.997	147.949	82.8693	147.949	81.9691	147.949	82.8213	147.949	81.9692	147.949	82.7706	147.949	81.9951	147.949	82.7177	147.949	82.0425	147.949	82.6628	147.949	82.1059	147.949	82.6053	147.949	82.1793	147.949	82.5444	147.949	82.257	147.949	82.4792	147.949	82.3346	147.949	82.4092
153.809	83.2988	153.809	83.3712	153.809	83.2095	153.809	83.4265	153.809	83.1053	153.809	83.4652	153.809	82.9897	153.809	83.4888	153.809	82.8677	153.809	83.4991	153.809	82.746	153.809	83.4982	153.809	82.6318	153.809	83.4877	153.809	82.5328	153.809	83.4692	153.809	82.4562	153.809	83.4436	153.809	82.4071	153.809	83.4118	153.809	82.3888	153.809	83.3741	153.809	82.4013	153.809	83.3309	153.809	82.4418	153.809	83.2823	153.809	82.5053	153.809	83.2281	153.809	82.5854	153.809	83.168	153.809	82.6752	153.809	83.1016	153.809	82.7685	153.809	83.0282	153.809	82.8604	153.809	82.9476
159.668	83.5762	159.668	83.6385	159.668	83.4954	159.668	83.6822	159.668	83.3975	159.668	83.7092	159.668	83.2861	159.668	83.7221	159.668	83.1664	159.668	83.7241	159.668	83.0451	159.668	83.7188	159.668	82.9299	159.668	83.709	159.668	82.829	159.668	83.6968	159.668	82.7502	159.668	83.683	159.668	82.6998	159.668	83.6678	159.668	82.6817	159.668	83.65	159.668	82.6969	159.668	83.6281	159.668	82.7431	159.668	83.6002	159.668	82.8154	159.668	83.5643	159.668	82.9066	159.668	83.5186	159.668	83.0086	159.668	83.4613	159.668	83.1138	159.668	83.3915	159.668	83.2157	159.668	83.3092
165.527	84.0618	165.527	84.1026	165.527	83.9995	165.527	84.1222	165.527	83.9173	165.527	84.1228	165.527	83.8186	165.527	84.1077	165.527	83.7087	165.527	84.0815	165.527	83.594	165.527	84.049	165.527	83.4821	165.527	84.0147	165.527	83.3808	165.527	83.9822	165.527	83.2975	165.527	83.9537	165.527	83.2382	165.527	83.9299	165.527	83.2069	165.527	83.91	165.527	83.205	165.527	83.8917	165.527	83.2311	165.527	83.8724	165.527	83.281	165.527	83.8489	165.527	83.3489	165.527	83.8182	165.527	83.4276	165.527	83.7779	165.527	83.5101	165.527	83.7264	165.527	83.5903	165.527	83.6634
171.387	84.3496	171.387	84.3977	171.387	84.2781	171.387	84.4225	171.387	84.185	171.387	84.4259	171.387	84.0743	171.387	84.4113	171.387	83.9515	171.387	84.3832	171.387	83.8241	171.387	84.3465	171.387	83.7003	171.387	84.3061	171.387	83.5889	171.387	84.266	171.387	83.4981	171.387	84.2292	171.387	83.4344	171.387	84.1967	171.387	83.402	171.387	84.1685	171.387	83.402	171.387	84.1428	171.387	83.4322	171.387	84.1173	171.387	83.4876	171.387	84.0888	171.387	83.5612	171.387	84.0544	171.387	83.6453	171.387	84.0113	171.387	83.7325	171.387	83.9575	171.387	83.8163	171.387	83.8922
177.246	84.5343	177.246	84.5857	177.246	84.4576	177.246	84.6115	177.246	84.3579	177.246	84.6135	177.246	84.2394	177.246	84.5949	177.246	84.1081	177.246	84.5602	177.246	83.9718	177.246	84.5146	177.246	83.8393	177.246	84.4636	177.246	83.7197	177.246	84.412	177.246	83.6217	177.246	84.3639	177.246	83.5523	177.246	84.3214	177.246	83.5159	177.246	84.285	177.246	83.5136	177.246	84.2539	177.246	83.5431	177.246	84.2255	177.246	83.5991	177.246	84.1965	177.246	83.6741	177.246	84.1632	177.246	83.7597	177.246	84.1221	177.246	83.8478	177.246	84.0705	177.246	83.9319	177.246	84.007
183.105	84.5894	183.105	84.6507	183.105	84.5024	183.105	84.6861	183.105	84.3922	183.105	84.6974	183.105	84.2633	183.105	84.6876	183.105	84.1223	183.105	84.6612	183.105	83.9776	183.105	84.6232	183.105	83.8389	183.105	84.5785	183.105	83.7159	183.105	84.5317	183.105	83.6181	183.105	84.4863	183.105	83.5525	183.105	84.4445	183.105	83.5235	183.105	84.407	183.105	83.5317	183.105	84.3733	183.105	83.5737	183.105	84.3415	183.105	83.6431	183.105	84.3088	183.105	83.7313	183.105	84.2717	183.105	83.8289	183.105	84.2267	183.105	83.9275	183.105	84.1707	183.105	84.0201	183.105	84.1018
188.965	84.7174	188.965	84.7636	188.965	84.6436	188.965	84.782	188.965	84.5443	188.965	84.7751	188.965	84.4239	188.965	84.7471	188.965	84.289	188.965	84.7036	188.965	84.1477	188.965	84.6511	188.965	84.0094	188.965	84.5962	188.965	83.8839	188.965	84.5445	188.965	83.7806	188.965	84.4998	188.965	83.7075	188.965	84.4641	188.965	83.6698	188.965	84.4373	188.965	83.6692	188.965	84.417	188.965	83.7036	188.965	84.4	188.965	83.7671	188.965	84.3817	188.965	83.8513	188.965	84.3575	188.965	83.9465	188.965	84.3231	188.965	84.0432	188.965	84.2752	188.965	84.1335	188.965	84.2118
196.289	84.9069	196.289	84.9497	196.289	84.8325	196.289	84.9609	196.289	84.7292	196.289	84.9424	196.289	84.602	196.289	84.8986	196.289	84.4578	196.289	84.8354	196.289	84.3056	196.289	84.7598	196.289	84.1554	196.289	84.6795	196.289	84.0177	196.289	84.6014	196.289	83.9023	196.289	84.5313	196.289	83.8173	196.289	84.4728	196.289	83.7679	196.289	84.4274	196.289	83.7557	196.289	84.3942	196.289	83.7782	196.289	84.3699	196.289	83.8294	196.289	84.35	196.289	83.9009	196.289	84.329	196.289	83.9833	196.289	84.3016	196.289	84.0671	196.289	84.2632	196.289	84.1448	196.289	84.211
203.613	85.0885	203.613	85.1446	203.613	85.0011	203.613	85.1691	203.613	84.8847	203.613	85.1643	203.613	84.7443	203.613	85.1342	203.613	84.5868	203.613	85.0841	203.613	84.4214	203.613	85.0204	203.613	84.2582	203.613	84.9496	203.613	84.1083	203.613	84.8773	203.613	83.982	203.613	84.8083	203.613	83.8881	203.613	84.7457	203.613	83.8324	203.613	84.6908	203.613	83.8169	203.613	84.6432	203.613	83.8397	203.613	84.601	203.613	83.8947	203.613	84.561	203.613	83.9736	203.613	84.5189	203.613	84.0665	203.613	84.4704	203.613	84.1636	203.613	84.4117	203.613	84.2568	203.613	84.3405
210.938	85.1154	210.938	85.1642	210.938	85.0356	210.938	85.1818	210.938	84.9276	210.938	85.1703	210.938	84.7962	210.938	85.1337	210.938	84.6487	210.938	85.0778	210.938	84.4937	210.938	85.0092	210.938	84.3413	210.938	84.9351	210.938	84.2019	210.938	84.8616	210.938	84.0852	210.938	84.7936	210.938	83.9993	210.938	84.7342	210.938	83.9491	210.938	84.6844	210.938	83.9361	210.938	84.6435	210.938	83.9577	210.938	84.6092	210.938	84.0081	210.938	84.5779	210.938	84.0791	210.938	84.5453	210.938	84.1617	210.938	84.5069	210.938	84.2471	210.938	84.4592	210.938	84.3281	210.938	84.3996
218.262	85.0741	218.262	85.1079	218.262	85.0086	218.262	85.1114	218.262	84.913	218.262	85.0884	218.262	84.7914	218.262	85.0449	218.262	84.6509	218.262	84.9883	218.262	84.501	218.262	84.9267	218.262	84.353	218.262	84.8678	218.262	84.2193	218.262	84.8176	218.262	84.1118	218.262	84.7799	218.262	84.04	218.262	84.7555	218.262	84.0099	218.262	84.7432	218.262	84.0221	218.262	84.7398	218.262	84.0722	218.262	84.7405	218.262	84.152	218.262	84.74	218.262	84.2505	218.262	84.7329	218.262	84.3563	218.262	84.7138	218.262	84.4589	218.262	84.6784	218.262	84.5499	218.262	84.6239
225.586	85.2659	225.586	85.3013	225.586	85.1925	225.586	85.3	225.586	85.0827	225.586	85.2662	225.586	84.9413	225.586	85.2067	225.586	84.7763	225.586	85.13	225.586	84.5985	225.586	85.0458	225.586	84.4211	225.586	84.9634	225.586	84.2584	225.586	84.891	225.586	84.1245	225.586	84.8339	225.586	84.0312	225.586	84.7946	225.586	83.9857	225.586	84.7724	225.586	83.9895	225.586	84.7637	225.586	84.0384	225.586	84.7631	225.586	84.1228	225.586	84.7637	225.586	84.2302	225.586	84.7584	225.586	84.3471	225.586	84.7401	225.586	84.4613	225.586	84.7032	225.586	84.5625	225.586	84.6442
232.91	85.4264	232.91	85.4678	232.91	85.344	232.91	85.4696	232.91	85.2225	232.91	85.4358	232.91	85.0666	232.91	85.3729	232.91	84.8841	232.91	85.2894	232.91	84.6862	232.91	85.1948	232.91	84.4863	232.91	85.0989	232.91	84.2996	232.91	85.0099	232.91	84.1414	232.91	84.9338	232.91	84.0249	232.91	84.8739	232.91	83.9591	232.91	84.8302	232.91	83.9468	232.91	84.8003	232.91	83.9841	232.91	84.7797	232.91	84.0616	232.91	84.7624	232.91	84.1662	232.91	84.7415	232.91	84.2836	232.91	84.7102	232.91	84.4007	232.91	84.6627	232.91	84.5069	232.91	84.5952
241.699	85.4444	241.699	85.4783	241.699	85.3668	241.699	85.4709	241.699	85.2469	241.699	85.4277	241.699	85.0894	241.699	85.3569	241.699	84.9027	241.699	85.2691	241.699	84.6984	241.699	85.1755	241.699	84.4912	241.699	85.0865	241.699	84.2975	241.699	85.0102	241.699	84.1339	241.699	84.9509	241.699	84.0145	241.699	84.9091	241.699	83.9487	241.699	84.8819	241.699	83.9391	241.699	84.8646	241.699	83.9814	241.699	84.8514	241.699	84.0654	241.699	84.8361	241.699	84.1774	241.699	84.8126	241.699	84.303	241.699	84.7751	241.699	84.4288	241.699	84.7192	241.699	84.5443	241.699	84.6422
250.488	85.5635	250.488	85.5678	250.488	85.5048	250.488	85.5194	250.488	85.3933	250.488	85.4243	250.488	85.2343	250.488	85.2923	250.488	85.0367	250.488	85.1372	250.488	84.8125	250.488	84.9757	250.488	84.5772	250.488	84.8253	250.488	84.3489	250.488	84.7011	250.488	84.147	250.488	84.6134	250.488	83.9898	250.488	84.5651	250.488	83.8916	250.488	84.5523	250.488	83.859	250.488	84.566	250.488	83.8898	250.488	84.5942	250.488	83.9727	250.488	84.6241	250.488	84.0907	250.488	84.6441	250.488	84.2246	250.488	84.6444	250.488	84.3562	250.488	84.6176	250.488	84.4712	250.488	84.5599
259.277	85.8183	259.277	85.8102	259.277	85.7728	259.277	85.7495	259.277	85.6764	259.277	85.6408	259.277	85.5349	259.277	85.4933	259.277	85.357	259.277	85.32	259.277	85.1541	259.277	85.1373	259.277	84.9398	259.277	84.9631	259.277	84.7297	259.277	84.8137	259.277	84.5399	259.277	84.7015	259.277	84.3857	259.277	84.6323	259.277	84.279	259.277	84.605	259.277	84.2263	259.277	84.6119	259.277	84.2271	259.277	84.6415	259.277	84.2738	259.277	84.6802	259.277	84.3534	259.277	84.7148	259.277	84.45	259.277	84.7337	259.277	84.5478	259.277	84.7285	259.277	84.6327	259.277	84.6947
268.066	85.8772	268.066	85.8575	268.066	85.8407	268.066	85.7825	268.066	85.7505	268.066	85.6571	268.066	85.6125	268.066	85.4905	268.066	85.4351	268.066	85.2969	268.066	85.23	268.066	85.0945	268.066	85.0112	268.066	84.9035	268.066	84.7948	268.066	84.7436	268.066	84.5982	268.066	84.6292	268.066	84.438	268.066	84.5675	268.066	84.3276	268.066	84.5562	268.066	84.2743	268.066	84.5858	268.066	84.2784	268.066	84.6415	268.066	84.3318	268.066	84.7066	268.066	84.4207	268.066	84.7652	268.066	84.5272	268.066	84.8034	268.066	84.6332	268.066	84.8114	268.066	84.7228	268.066	84.7844
276.855	86.2423	276.855	86.2241	276.855	86.2013	276.855	86.1468	276.855	86.1043	276.855	86.0137	276.855	85.9571	276.855	85.8322	276.855	85.7686	276.855	85.6141	276.855	85.5509	276.855	85.376	276.855	85.3192	276.855	85.1383	276.855	85.0908	276.855	84.9223	276.855	84.8839	276.855	84.7472	276.855	84.7148	276.855	84.6256	276.855	84.5951	276.855	84.5615	276.855	84.5296	276.855	84.5502	276.855	84.5154	276.855	84.5799	276.855	84.543	276.855	84.6349	276.855	84.5984	276.855	84.698	276.855	84.6657	276.855	84.7538	276.855	84.7295	276.855	84.7896	276.855	84.7766	276.855	84.7979
287.109	86.3587	287.109	86.3429	287.109	86.3179	287.109	86.2704	287.109	86.2236	287.109	86.1448	287.109	86.0817	287.109	85.9734	287.109	85.9007	287.109	85.7684	287.109	85.6916	287.109	85.5456	287.109	85.4684	287.109	85.3242	287.109	85.2475	287.109	85.1242	287.109	85.0466	287.109	84.9634	287.109	84.8826	287.109	84.8539	287.109	84.7684	287.109	84.8003	287.109	84.7105	287.109	84.7986	287.109	84.707	287.109	84.8375	287.109	84.7483	287.109	84.9008	287.109	84.8194	287.109	84.9707	287.109	84.9027	287.109	85.0302	287.109	84.9811	287.109	85.0659	287.109	85.0402	287.109	85.0699
297.363	86.6563	297.363	86.6518	297.363	86.5952	297.363	86.5825	297.363	86.4712	297.363	86.4532	297.363	86.2908	297.363	86.2733	297.363	86.0644	297.363	86.057	297.363	85.8066	297.363	85.8233	297.363	85.5362	297.363	85.5945	297.363	85.2754	297.363	85.393	297.363	85.0482	297.363	85.2375	297.363	84.8764	297.363	85.1391	297.363	84.7758	297.363	85.0994	297.363	84.7519	297.363	85.1116	297.363	84.7982	297.363	85.1625	297.363	84.8975	297.363	85.2355	297.363	85.0266	297.363	85.3125	297.363	85.1609	297.363	85.3764	297.363	85.2791	297.363	85.4124	297.363	85.3652	297.363	85.4103
307.617	87.0464	307.617	87.0123	307.617	87.0084	307.617	86.9071	307.617	86.9008	307.617	86.7355	307.617	86.7289	307.617	86.5066	307.617	86.5019	307.617	86.235	307.617	86.233	307.617	85.9414	307.617	85.9395	307.617	85.6513	307.617	85.6425	307.617	85.3918	307.617	85.3652	307.617	85.1868	307.617	85.13	307.617	85.0516	307.617	84.955	307.617	84.9892	307.617	84.8506	307.617	84.9906	307.617	84.8173	307.617	85.0381	307.617	84.8459	307.617	85.1097	307.617	84.9196	307.617	85.1835	307.617	85.0173	307.617	85.2401	307.617	85.1174	307.617	85.2656	307.617	85.2005	307.617	85.2524
319.336	86.9334	319.336	86.8959	319.336	86.9005	319.336	86.7867	319.336	86.8018	319.336	86.6089	319.336	86.6448	319.336	86.3709	319.336	86.4399	319.336	86.0874	319.336	86.2004	319.336	85.7809	319.336	85.9429	319.336	85.4799	319.336	85.6874	319.336	85.2162	319.336	85.456	319.336	85.0185	319.336	85.2704	319.336	84.9052	319.336	85.1475	319.336	84.8797	319.336	85.0953	319.336	84.9302	319.336	85.1097	319.336	85.0342	319.336	85.1758	319.336	85.1653	319.336	85.2718	319.336	85.2982	319.336	85.3737	319.336	85.4118	319.336	85.46	319.336	85.4907	319.336	85.5142	319.336	85.5258
329.59	87.157	329.59	87.1309	329.59	87.1101	329.59	87.0317	329.59	86.9931	329.59	86.8625	329.59	86.8117	329.59	86.6303	329.59	86.5756	329.59	86.3468	329.59	86.2985	329.59	86.0295	329.59	85.9987	329.59	85.7025	329.59	85.6989	329.59	85.3949	329.59	85.4246	329.59	85.1375	329.59	85.2005	329.59	84.9566	329.59	85.0461	329.59	84.867	329.59	84.9709	329.59	84.8672	329.59	84.9716	329.59	84.9403	329.59	85.0334	329.59	85.0587	329.59	85.1332	329.59	85.1912	329.59	85.2448	329.59	85.3096	329.59	85.3432	329.59	85.3922	329.59	85.4082	329.59	85.4263
341.309	87.554	341.309	87.5371	341.309	87.4909	341.309	87.4395	341.309	87.3519	341.309	87.2648	341.309	87.1451	341.309	87.0211	341.309	86.882	341.309	86.7226	341.309	86.5789	341.309	86.3893	341.309	86.2559	341.309	86.0472	341.309	85.9371	341.309	85.7256	341.309	85.6481	341.309	85.4534	341.309	85.4133	341.309	85.2538	341.309	85.251	341.309	85.14	341.309	85.1697	341.309	85.1123	341.309	85.166	341.309	85.1579	341.309	85.2246	341.309	85.2542	341.309	85.3223	341.309	85.3729	341.309	85.4323	341.309	85.4856	341.309	85.5289	341.309	85.5686	341.309	85.5913	341.309	85.6059
353.027	87.848	353.027	87.8361	353.027	87.7799	353.027	87.744	353.027	87.6353	353.027	87.5745	353.027	87.421	353.027	87.3339	353.027	87.1486	353.027	87.0332	353.027	86.8343	353.027	86.6888	353.027	86.4989	353.027	86.3234	353.027	86.1666	353.027	85.9653	353.027	85.8627	353.027	85.6463	353.027	85.6103	353.027	85.3968	353.027	85.4264	353.027	85.2384	353.027	85.3192	353.027	85.1783	353.027	85.2863	353.027	85.2053	353.027	85.3158	353.027	85.2935	353.027	85.3879	353.027	85.4093	353.027	85.4785	353.027	85.5202	353.027	85.5632	353.027	85.6005	353.027	85.6206	353.027	85.6353
366.211	88.0345	366.211	88.0047	366.211	87.9685	366.211	87.8794	366.211	87.8121	366.211	87.6645	366.211	87.5757	366.211	87.3735	366.211	87.2754	366.211	87.0287	366.211	86.9338	366.211	86.6613	366.211	86.5803	366.211	86.3079	366.211	86.2493	366.211	86.0037	366.211	85.9754	366.211	85.774	366.211	85.7864	366.211	85.6289	366.211	85.6951	366.211	85.5643	366.211	85.6953	366.211	85.5675	366.211	85.7648	366.211	85.6231	366.211	85.8727	366.211	85.7157	366.211	85.9879	366.211	85.8291	366.211	86.0844	366.211	85.9465	366.211	86.1443	366.211	86.0504	366.211	86.1582	366.211	86.125
379.395	88.5635	379.395	88.5471	379.395	88.4748	379.395	88.426	379.395	88.284	379.395	88.2042	379.395	87.9983	379.395	87.8914	379.395	87.6306	379.395	87.5053	379.395	87.2014	379.395	87.074	379.395	86.7411	379.395	86.6378	379.395	86.291	379.395	86.2456	379.395	85.8998	379.395	85.9454	379.395	85.6161	379.395	85.7708	379.395	85.4736	379.395	85.7298	379.395	85.4797	379.395	85.8041	379.395	85.6117	379.395	85.9584	379.395	85.8265	379.395	86.1518	379.395	86.0742	379.395	86.3466	379.395	86.3098	379.395	86.5113	379.395	86.4989	379.395	86.6214	379.395	86.6193	379.395	86.6603
392.578	88.8881	392.578	88.8373	392.578	88.8319	392.578	88.6786	392.578	88.6717	392.578	88.4143	392.578	88.4131	392.578	88.0517	392.578	88.065	392.578	87.6063	392.578	87.6421	392.578	87.1048	392.578	87.1674	392.578	86.5879	392.578	86.6742	392.578	86.1092	392.578	86.2072	392.578	85.7279	392.578	85.818	392.578	85.4936	392.578	85.5543	392.578	85.4278	392.578	85.4452	392.578	85.5157	392.578	85.489	392.578	85.7125	392.578	85.6533	392.578	85.9611	392.578	85.8868	392.578	86.2069	392.578	86.1352	392.578	86.407	392.578	86.3517	392.578	86.5316	392.578	86.5018	392.578	86.5645
405.762	89.0529	405.762	89.0192	405.762	88.9814	405.762	88.8781	405.762	88.8098	405.762	88.6313	405.762	88.5466	405.762	88.2855	405.762	88.2043	405.762	87.8553	405.762	87.8012	405.762	87.365	405.762	87.3623	405.762	86.851	405.762	86.9209	405.762	86.3614	405.762	86.5162	405.762	85.9516	405.762	86.1891	405.762	85.6726	405.762	85.9735	405.762	85.5548	405.762	85.8866	405.762	85.5958	405.762	85.9228	405.762	85.7615	405.762	86.0546	405.762	85.9993	405.762	86.2408	405.762	86.254	405.762	86.4359	405.762	86.4784	405.762	86.5989	405.762	86.6384	405.762	86.6982	405.762	86.7137
420.41	89.6066	420.41	89.6177	420.41	89.4861	420.41	89.5206	420.41	89.2587	420.41	89.319	420.41	88.9312	420.41	89.0193	420.41	88.5158	420.41	88.6311	420.41	88.0322	420.41	88.1689	420.41	87.5089	420.41	87.6555	420.41	86.9841	420.41	87.126	420.41	86.5045	420.41	86.6295	420.41	86.1192	420.41	86.2242	420.41	85.8682	420.41	85.9627	420.41	85.7701	420.41	85.8704	420.41	85.8157	420.41	85.9333	420.41	85.9713	420.41	86.1048	420.41	86.1886	420.41	86.3236	420.41	86.4158	420.41	86.5321	420.41	86.6068	420.41	86.6852	420.41	86.7263	420.41	86.754
435.059	89.4436	435.059	89.4518	435.059	89.3324	435.059	89.3606	435.059	89.1176	435.059	89.1755	435.059	88.8015	435.059	88.9051	435.059	88.3917	435.059	88.5613	435.059	87.9034	435.059	88.1606	435.059	87.3629	435.059	87.7255	435.059	86.8104	435.059	87.286	435.059	86.3006	435.059	86.8806	435.059	85.8962	435.059	86.5535	435.059	85.6536	435.059	86.3466	435.059	85.6021	435.059	86.2845	435.059	85.7307	435.059	86.3619	435.059	85.9915	435.059	86.5414	435.059	86.3178	435.059	86.7661	435.059	86.6439	435.059	86.9755	435.059	86.9158	435.059	87.1197	435.059	87.0962	435.059	87.165
451.172	89.7733	451.172	89.6938	451.172	89.7297	451.172	89.4949	451.172	89.5613	451.172	89.1834	451.172	89.2678	451.172	88.7729	451.172	88.8526	451.172	88.2871	451.172	88.3255	451.172	87.7622	451.172	87.7075	451.172	87.2457	451.172	87.0359	451.172	86.7893	451.172	86.367	451.172	86.4366	451.172	85.7734	451.172	86.2123	451.172	85.3298	451.172	86.1171	451.172	85.0893	451.172	86.1311	451.172	85.062	451.172	86.2216	451.172	85.2131	451.172	86.3495	451.172	85.4797	451.172	86.4748	451.172	85.7937	451.172	86.5606	451.172	86.0957	451.172	86.5772	451.172	86.3421	451.172	86.5061
465.82	89.9512	465.82	89.8419	465.82	89.9268	465.82	89.598	465.82	89.7719	465.82	89.2221	465.82	89.4914	465.82	88.7234	465.82	89.0945	465.82	88.1233	465.82	88.5967	465.82	87.462	465.82	88.0238	465.82	86.8053	465.82	87.4169	465.82	86.2426	465.82	86.8348	465.82	85.8673	465.82	86.3517	465.82	85.7392	465.82	86.0412	465.82	85.8544	465.82	85.9493	465.82	86.1512	465.82	86.071	465.82	86.5434	465.82	86.3524	465.82	86.9506	465.82	86.7164	465.82	87.3106	465.82	87.0884	465.82	87.5798	465.82	87.4098	465.82	87.7308	465.82	87.6393	465.82	87.7506
483.398	90.6937	483.398	90.6108	483.398	90.6494	483.398	90.3923	483.398	90.4854	483.398	90.0291	483.398	90.2086	483.398	89.513	483.398	89.8261	483.398	88.8411	483.398	89.3468	483.398	88.0243	483.398	88.7839	483.398	87.1013	483.398	88.1604	483.398	86.1585	483.398	87.516	483.398	85.3422	483.398	86.9148	483.398	84.8305	483.398	86.4433	483.398	84.7391	483.398	86.1871	483.398	85.0337	483.398	86.1861	483.398	85.5628	483.398	86.404	483.398	86.163	483.398	86.7464	483.398	86.7182	483.398	87.1067	483.398	87.1619	483.398	87.4007	483.398	87.46	483.398	87.5742	483.398	87.5979
499.512	90.9064	499.512	90.8453	499.512	90.8316	499.512	90.6452	499.512	90.6236	499.512	90.3021	499.512	90.2864	499.512	89.8136	499.512	89.8286	499.512	89.183	499.512	89.2668	499.512	88.4248	499.512	88.6294	499.512	87.5724	499.512	87.9584	499.512	86.6873	499.512	87.3103	499.512	85.8695	499.512	86.754	499.512	85.2577	499.512	86.3619	499.512	84.9917	499.512	86.1914	499.512	85.1274	499.512	86.2587	499.512	85.5845	499.512	86.5239	499.512	86.1987	499.512	86.9026	499.512	86.8133	499.512	87.2965	499.512	87.3233	499.512	87.6203	499.512	87.672	499.512	87.8125	499.512	87.8355
517.09	90.7673	517.09	90.7386	517.09	90.6673	517.09	90.5749	517.09	90.4453	517.09	90.2708	517.09	90.1086	517.09	89.823	517.09	89.6682	517.09	89.2319	517.09	89.1412	517.09	88.503	517.09	88.5541	517.09	87.6501	517.09	87.9429	517.09	86.7046	517.09	87.3516	517.09	85.7325	517.09	86.8285	517.09	84.86	517.09	86.4215	517.09	84.2755	517.09	86.1716	517.09	84.1461	517.09	86.1022	517.09	84.4753	517.09	86.205	517.09	85.0882	517.09	86.433	517.09	85.7695	517.09	86.7091	517.09	86.3665	517.09	86.9475	517.09	86.7981	517.09	87.0733	517.09	87.033
536.133	91.0123	536.133	91.0199	536.133	90.836	536.133	90.8685	536.133	90.4831	536.133	90.5687	536.133	89.9525	536.133	90.1334	536.133	89.2577	536.133	89.5792	536.133	88.4359	536.133	88.9263	536.133	87.5543	536.133	88.1975	536.133	86.71	536.133	87.4195	536.133	86.0151	536.133	86.6329	536.133	85.5621	536.133	85.9122	536.133	85.3897	536.133	85.3792	536.133	85.4778	536.133	85.1692	536.133	85.7698	536.133	85.337	536.133	86.1919	536.133	85.796	536.133	86.6614	536.133	86.3768	536.133	87.0952	536.133	86.9239	536.133	87.4218	536.133	87.3364	536.133	87.5883	536.133	87.5631
555.176	91.583	555.176	91.5319	555.176	91.4807	555.176	91.327	555.176	91.2233	555.176	90.9681	555.176	90.8078	555.176	90.4615	555.176	90.2342	555.176	89.8252	555.176	89.5095	555.176	89.0916	555.176	88.6518	555.176	88.3046	555.176	87.6969	555.176	87.5147	555.176	86.713	555.176	86.7758	555.176	85.8252	555.176	86.1544	555.176	85.219	555.176	85.7407	555.176	85.0666	555.176	85.6315	555.176	85.3884	555.176	85.8609	555.176	86.0226	555.176	86.3501	555.176	86.7501	555.176	86.9483	555.176	87.4023	555.176	87.5097	555.176	87.8802	555.176	87.9306	555.176	88.1349	555.176	88.1494
574.219	91.8813	574.219	91.7752	574.219	91.8091	574.219	91.4897	574.219	91.5575	574.219	91.0257	574.219	91.1281	574.219	90.3964	574.219	90.5327	574.219	89.6383	574.219	89.7984	574.219	88.8141	574.219	88.9633	574.219	87.9979	574.219	88.0666	574.219	87.2487	574.219	87.1442	574.219	86.5961	574.219	86.2464	574.219	86.0584	574.219	85.4766	574.219	85.6815	574.219	85.0086	574.219	85.5451	574.219	85.0019	574.219	85.7043	574.219	85.4422	574.219	86.1173	574.219	86.1267	574.219	86.6549	574.219	86.8197	574.219	87.172	574.219	87.362	574.219	87.5565	574.219	87.6758	574.219	87.7372
594.727	92.5745	594.727	92.4976	594.727	92.4382	594.727	92.2107	594.727	92.0873	594.727	91.7181	594.727	91.5282	594.727	91.0285	594.727	90.782	594.727	90.162	594.727	89.8884	594.727	89.1567	594.727	88.9053	594.727	88.073	594.727	87.9115	594.727	86.9993	594.727	87.0065	594.727	86.0544	594.727	86.2888	594.727	85.3748	594.727	85.8069	594.727	85.0698	594.727	85.5436	594.727	85.157	594.727	85.4738	594.727	85.5422	594.727	85.6093	594.727	86.0726	594.727	85.9529	594.727	86.605	594.727	86.4281	594.727	87.0378	594.727	86.8972	594.727	87.3083	594.727	87.2368	594.727	87.3795
615.234	92.659	615.234	92.4886	615.234	92.6369	615.234	92.1305	615.234	92.4137	615.234	91.5861	615.234	91.9837	615.234	90.8614	615.234	91.348	615.234	89.9803	615.234	90.5133	615.234	88.9926	615.234	89.4858	615.234	87.9643	615.234	88.2741	615.234	86.9508	615.234	86.9186	615.234	85.9861	615.234	85.5575	615.234	85.1335	615.234	84.4946	615.234	84.5869	615.234	84.1011	615.234	84.633	615.234	84.4655	615.234	85.3192	615.234	85.2976	615.234	86.3207	615.234	86.2548	615.234	87.2731	615.234	87.1297	615.234	87.9811	615.234	87.8219	615.234	88.3826	615.234	88.281	615.234	88.4762
637.207	91.0254	637.207	90.8686	637.207	91.0131	637.207	90.5296	637.207	90.8401	637.207	89.9931	637.207	90.5128	637.207	89.2525	637.207	90.0363	637.207	88.3242	637.207	89.4113	637.207	87.2576	637.207	88.6283	637.207	86.1266	637.207	87.6719	637.207	85.0029	637.207	86.5384	637.207	83.9407	637.207	85.2631	637.207	83.0142	637.207	83.9603	637.207	82.3975	637.207	82.8799	637.207	82.3495	637.207	82.3982	637.207	82.9577	637.207	82.7373	637.207	83.9669	637.207	83.6672	637.207	85.0137	637.207	84.7472	637.207	85.8536	637.207	85.6648	637.207	86.3685	637.207	86.272	637.207	86.5117
659.18	90.6783	659.18	90.5641	659.18	90.6021	659.18	90.2468	659.18	90.3463	659.18	89.7151	659.18	89.9204	659.18	88.9699	659.18	89.3371	659.18	88.0372	659.18	88.6161	659.18	86.9711	659.18	87.7819	659.18	85.8328	659.18	86.8554	659.18	84.65	659.18	85.8549	659.18	83.3942	659.18	84.8268	659.18	82.0255	659.18	83.8778	659.18	80.6489	659.18	83.1523	659.18	79.7773	659.18	82.7756	659.18	80.1289	659.18	82.8405	659.18	81.5167	659.18	83.3507	659.18	83.0913	659.18	84.1245	659.18	84.3536	659.18	84.8753	659.18	85.1571	659.18	85.3726	659.18	85.4874
682.617	90.637	682.617	90.6724	682.617	90.4449	682.617	90.5156	682.617	90.1321	682.617	90.1385	682.617	89.7282	682.617	89.5314	682.617	89.2465	682.617	88.7197	682.617	88.6704	682.617	87.7738	682.617	87.9489	682.617	86.7898	682.617	87.0175	682.617	85.8262	682.617	85.8407	682.617	84.8326	682.617	84.4515	682.617	83.6547	682.617	82.9929	682.617	82.1695	682.617	81.788	682.617	80.5964	682.617	81.3137	682.617	79.8925	682.617	81.7781	682.617	80.8132	682.617	82.8155	682.617	82.4814	682.617	83.925	682.617	83.9514	682.617	84.8052	682.617	84.9254	682.617	85.3122	682.617	85.3691
707.52	90.2515	707.52	90.1587	707.52	90.2146	707.52	89.9076	707.52	90.0667	707.52	89.4722	707.52	89.8128	707.52	88.8521	707.52	89.4445	707.52	88.0923	707.52	88.9399	707.52	87.2718	707.52	88.2624	707.52	86.4372	707.52	87.3705	707.52	85.5512	707.52	86.248	707.52	84.539	707.52	84.9501	707.52	83.3578	707.52	83.6264	707.52	82.0159	707.52	82.468	707.52	80.6888	707.52	81.6133	707.52	80.0047	707.52	81.1957	707.52	80.6481	707.52	81.4353	707.52	82.146	707.52	82.3429	707.52	83.5677	707.52	83.484	707.52	84.4679	707.52	84.3699	707.52	84.732
732.422	90.5598	732.422	90.619	732.422	90.3175	732.422	90.4576	732.422	89.9463	732.422	90.0607	732.422	89.5196	732.422	89.4532	732.422	89.1227	732.422	88.716	732.422	88.8115	732.422	87.9672	732.422	88.5499	732.422	87.2829	732.422	88.1991	732.422	86.6311	732.422	87.5973	732.422	85.9013	732.422	86.6675	732.422	84.9544	732.422	85.504	732.422	83.6355	732.422	84.4118	732.422	81.8197	732.422	83.7748	732.422	79.7011	732.422	83.722	732.422	78.6941	732.422	84.0803	732.422	80.1795	732.422	84.6293	732.422	82.4343	732.422	85.1454	732.422	84.1374	732.422	85.3738	732.422	85.0903
757.324	91.0236	757.324	91.0368	757.324	90.7468	757.324	90.7605	757.324	90.2534	757.324	90.1915	757.324	89.6241	757.324	89.3782	757.324	88.9568	757.324	88.4502	757.324	88.3073	757.324	87.5827	757.324	87.6549	757.324	86.8745	757.324	86.9462	757.324	86.2753	757.324	86.1466	757.324	85.6752	757.324	85.2259	757.324	84.9998	757.324	84.1256	757.324	84.1821	757.324	82.8357	757.324	83.1307	757.324	81.6921	757.324	81.8279	757.324	81.5295	757.324	80.6095	757.324	82.5116	757.324	80.3471	757.324	83.695	757.324	81.3718	757.324	84.4132	757.324	82.811	757.324	84.4918	757.324	83.9343
785.156	90.7027	785.156	90.3587	785.156	90.7874	785.156	89.7435	785.156	90.6376	785.156	88.8813	785.156	90.2842	785.156	87.8811	785.156	89.7461	785.156	86.9476	785.156	89.0051	785.156	86.2196	785.156	88.0084	785.156	85.561	785.156	86.7107	785.156	84.69	785.156	85.1364	785.156	83.4945	785.156	83.4452	785.156	82.1723	785.156	81.9675	785.156	81.1376	785.156	81.0225	785.156	80.7155	785.156	80.5172	785.156	80.9027	785.156	80.1204	785.156	81.4785	785.156	79.9241	785.156	82.1864	785.156	80.3781	785.156	82.7864	785.156	81.3882	785.156	83.0863	785.156	82.3704	785.156	82.9634
811.523	91.0107	811.523	90.7231	811.523	91.1007	811.523	90.2287	811.523	91.0225	811.523	89.5575	811.523	90.8118	811.523	88.8052	811.523	90.4903	811.523	88.1036	811.523	90.0516	811.523	87.482	811.523	89.4696	811.523	86.7718	811.523	88.705	811.523	85.7334	811.523	87.6883	811.523	84.2531	811.523	86.3197	811.523	82.4324	811.523	84.5471	811.523	80.573	811.523	82.5368	811.523	79.112	811.523	80.8221	811.523	78.5218	811.523	79.9951	811.523	78.9887	811.523	80.0788	811.523	80.0875	811.523	80.7058	811.523	81.1993	811.523	81.4848	811.523	81.9657	811.523	82.0742	811.523	82.2612
840.82	90.1513	840.82	89.9649	840.82	90.2051	840.82	89.6436	840.82	90.1279	840.82	89.2044	840.82	89.936	840.82	88.7223	840.82	89.6682	840.82	88.3012	840.82	89.3395	840.82	87.954	840.82	88.8738	840.82	87.5434	840.82	88.1179	840.82	86.8554	840.82	86.9697	840.82	85.6931	840.82	85.5352	840.82	83.9524	840.82	84.1553	840.82	81.7072	840.82	83.1081	840.82	79.4765	840.82	82.2549	840.82	78.6502	840.82	81.3976	840.82	79.867	840.82	81.0245	840.82	81.7153	840.82	81.7739	840.82	83.1983	840.82	83.0343	840.82	84.0762	840.82	83.9764	840.82	84.3333
870.117	90.5341	870.117	90.5704	870.117	90.4277	870.117	90.4926	870.117	90.2977	870.117	90.2982	870.117	90.1678	870.117	90.0553	870.117	90.0085	870.117	89.8525	870.117	89.7133	870.117	89.6747	870.117	89.154	870.117	89.3901	870.117	88.303	870.117	88.8811	870.117	87.2734	870.117	88.086	870.117	86.1686	870.117	86.9357	870.117	84.9297	870.117	85.3174	870.117	83.5392	870.117	83.0321	870.117	82.4307	870.117	79.7532	870.117	82.1888	870.117	75.8736	870.117	82.6125	870.117	76.516	870.117	83.2055	870.117	80.2159	870.117	83.7715	870.117	82.6971	870.117	84.1128	870.117	83.8797
900.879	90.363	900.879	90.3637	900.879	90.1399	900.879	90.0999	900.879	89.7795	900.879	89.5991	900.879	89.3901	900.879	89.0035	900.879	89.0599	900.879	88.5248	900.879	88.8151	900.879	88.2342	900.879	88.6058	900.879	87.958	900.879	88.3064	900.879	87.4526	900.879	87.7494	900.879	86.6126	900.879	86.8221	900.879	85.5121	900.879	85.583	900.879	84.2159	900.879	84.2155	900.879	82.5786	900.879	82.7286	900.879	80.5205	900.879	81.0382	900.879	79.0874	900.879	80.0884	900.879	80.0036	900.879	81.2006	900.879	81.951	900.879	82.9184	900.879	83.407	900.879	83.9351	900.879	84.0789
933.105	90.908	933.105	90.818	933.105	90.6914	933.105	90.4489	933.105	90.229	933.105	89.9163	933.105	89.6589	933.105	89.4024	933.105	89.125	933.105	89.0271	933.105	88.6445	933.105	88.7002	933.105	88.0913	933.105	88.202	933.105	87.3735	933.105	87.399	933.105	86.5587	933.105	86.3859	933.105	85.7164	933.105	85.4258	933.105	84.7132	933.105	84.5731	933.105	83.4204	933.105	83.425	933.105	82.25	933.105	81.4139	933.105	81.9642	933.105	78.3252	933.105	82.4528	933.105	76.3828	933.105	83.1514	933.105	78.834	933.105	83.746	933.105	81.6686	933.105	83.9185	933.105	83.3216
965.332	92.0239	965.332	91.5571	965.332	91.8361	965.332	90.3592	965.332	91.1108	965.332	88.5268	965.332	90.0677	965.332	86.7539	965.332	89.0321	965.332	86.0462	965.332	88.1975	965.332	85.9846	965.332	87.4235	965.332	85.5749	965.332	86.4168	965.332	84.628	965.332	85.1014	965.332	83.488	965.332	83.6842	965.332	82.432	965.332	82.4175	965.332	81.4087	965.332	81.4511	965.332	80.3831	965.332	80.5225	965.332	79.4543	965.332	79.067	965.332	78.5478	965.332	77.8262	965.332	77.9344	965.332	79.5137	965.332	78.8339	965.332	81.8714	965.332	80.8769	965.332	82.8606	965.332	82.4448
1,000.49	90.9388	1,000.49	90.2722	1,000.49	91.2671	1,000.49	89.6203	1,000.49	91.1833	1,000.49	89.4975	1,000.49	90.8184	1,000.49	89.8543	1,000.49	90.3355	1,000.49	90.0298	1,000.49	89.6758	1,000.49	89.6293	1,000.49	88.7498	1,000.49	88.706	1,000.49	87.8223	1,000.49	87.488	1,000.49	87.2235	1,000.49	86.0855	1,000.49	86.6862	1,000.49	84.3595	1,000.49	85.595	1,000.49	82.2677	1,000.49	83.8498	1,000.49	80.2131	1,000.49	82.1497	1,000.49	78.8989	1,000.49	81.1919	1,000.49	78.4952	1,000.49	80.8498	1,000.49	78.4948	1,000.49	80.76	1,000.49	78.8916	1,000.49	80.8058	1,000.49	79.7563	1,000.49	80.8303	1,000.49	80.5257
1,035.64	90.6972	1,035.64	90.7111	1,035.64	90.4819	1,035.64	90.5214	1,035.64	90.0389	1,035.64	90.0682	1,035.64	89.3452	1,035.64	89.3229	1,035.64	88.326	1,035.64	88.3702	1,035.64	86.9591	1,035.64	87.3639	1,035.64	85.4851	1,035.64	86.4497	1,035.64	83.9949	1,035.64	85.7353	1,035.64	81.9501	1,035.64	85.2546	1,035.64	78.9176	1,035.64	84.8308	1,035.64	75.9049	1,035.64	83.8368	1,035.64	73.7572	1,035.64	81.2395	1,035.64	71.8633	1,035.64	76.1552	1,035.64	70.8259	1,035.64	75.8743	1,035.64	67.8266	1,035.64	80.1557	1,035.64	68.6373	1,035.64	82.0157	1,035.64	75.1229	1,035.64	82.1508	1,035.64	78.9479	1,035.64	81.1064
1,072.27	89.1807	1,072.27	88.4603	1,072.27	89.5591	1,072.27	87.5658	1,072.27	89.6724	1,072.27	86.9138	1,072.27	89.6338	1,072.27	86.8508	1,072.27	89.3328	1,072.27	87.2988	1,072.27	88.4842	1,072.27	87.891	1,072.27	87.0285	1,072.27	88.2297	1,072.27	85.4108	1,072.27	88.0476	1,072.27	84.1407	1,072.27	87.5281	1,072.27	82.7998	1,072.27	87.1946	1,072.27	80.8557	1,072.27	87.0019	1,072.27	79.0493	1,072.27	86.216	1,072.27	78.6965	1,072.27	84.265	1,072.27	80.1193	1,072.27	81.9247	1,072.27	81.9699	1,072.27	81.9451	1,072.27	83.4372	1,072.27	83.6217	1,072.27	84.4463	1,072.27	84.829	1,072.27	85.0593	1,072.27	85.2481
1,108.89	90.7757	1,108.89	90.1225	1,108.89	90.921	1,108.89	88.8203	1,108.89	90.7316	1,108.89	87.2131	1,108.89	90.249	1,108.89	86.522	1,108.89	89.3679	1,108.89	87.0213	1,108.89	87.8521	1,108.89	87.6659	1,108.89	85.3827	1,108.89	88.1213	1,108.89	81.8879	1,108.89	88.1995	1,108.89	78.2484	1,108.89	87.7347	1,108.89	76.245	1,108.89	86.9094	1,108.89	75.7396	1,108.89	86.1701	1,108.89	75.1971	1,108.89	84.9282	1,108.89	76.1849	1,108.89	81.2371	1,108.89	78.4858	1,108.89	68.9485	1,108.89	79.7195	1,108.89	79.8243	1,108.89	81.7437	1,108.89	85.5116	1,108.89	84.8483	1,108.89	87.6507	1,108.89	87.067	1,108.89	88.0137
1,148.44	90.8168	1,148.44	89.8385	1,148.44	91.3975	1,148.44	88.6409	1,148.44	91.6314	1,148.44	88.2958	1,148.44	91.5394	1,148.44	89.3168	1,148.44	91.0985	1,148.44	90.1788	1,148.44	90.1518	1,148.44	90.1766	1,148.44	88.455	1,148.44	89.7999	1,148.44	86.2283	1,148.44	89.5322	1,148.44	84.6628	1,148.44	89.3117	1,148.44	84.5943	1,148.44	89.0273	1,148.44	85.1133	1,148.44	88.8557	1,148.44	85.143	1,148.44	88.3158	1,148.44	84.3676	1,148.44	86.1833	1,148.44	83.0954	1,148.44	80.1625	1,148.44	82.0498	1,148.44	67.0002	1,148.44	83.008	1,148.44	82.28	1,148.44	85.2094	1,148.44	86.0145	1,148.44	86.6955	1,148.44	87.0784
1,189.45	90.1066	1,189.45	88.7013	1,189.45	91.4287	1,189.45	88.4363	1,189.45	92.2657	1,189.45	89.9916	1,189.45	92.5254	1,189.45	91.6698	1,189.45	92.1957	1,189.45	92.1841	1,189.45	91.2737	1,189.45	91.4972	1,189.45	89.9092	1,189.45	90.4548	1,189.45	88.5853	1,189.45	89.7881	1,189.45	87.7837	1,189.45	89.1114	1,189.45	87.653	1,189.45	88.1174	1,189.45	87.8937	1,189.45	87.7117	1,189.45	87.9593	1,189.45	87.8823	1,189.45	87.8994	1,189.45	87.1224	1,189.45	87.3931	1,189.45	84.3145	1,189.45	85.5965	1,189.45	77.6478	1,189.45	84.5476	1,189.45	65.2084	1,189.45	85.5579	1,189.45	79.4909	1,189.45	85.6116	1,189.45	83.8231
1,230.47	89.1665	1,230.47	88.9395	1,230.47	89.6043	1,230.47	89.3522	1,230.47	90.0507	1,230.47	90.3638	1,230.47	90.5631	1,230.47	91.2422	1,230.47	91.1272	1,230.47	91.1773	1,230.47	91.4834	1,230.47	89.7202	1,230.47	91.4521	1,230.47	87.3496	1,230.47	91.2652	1,230.47	85.7397	1,230.47	91.1567	1,230.47	85.2912	1,230.47	91.0985	1,230.47	84.8951	1,230.47	90.8343	1,230.47	85.066	1,230.47	90.0074	1,230.47	86.1898	1,230.47	88.7389	1,230.47	86.6042	1,230.47	87.3193	1,230.47	85.023	1,230.47	85.3239	1,230.47	80.3638	1,230.47	83.5052	1,230.47	69.819	1,230.47	83.2723	1,230.47	76.9395	1,230.47	83.0697	1,230.47	81.4779
1,274.41	90.1989	1,274.41	89.9014	1,274.41	90.2782	1,274.41	89.7119	1,274.41	90.0489	1,274.41	89.7743	1,274.41	89.7494	1,274.41	89.6047	1,274.41	89.7289	1,274.41	88.2785	1,274.41	89.9799	1,274.41	85.0472	1,274.41	90.1209	1,274.41	80.5714	1,274.41	89.8809	1,274.41	78.8647	1,274.41	89.3652	1,274.41	79.6583	1,274.41	88.9745	1,274.41	78.8557	1,274.41	88.5998	1,274.41	76.8553	1,274.41	87.4795	1,274.41	78.3512	1,274.41	85.8016	1,274.41	81.3705	1,274.41	84.4054	1,274.41	82.7917	1,274.41	82.5511	1,274.41	82.0056	1,274.41	81.2963	1,274.41	78.8367	1,274.41	81.8637	1,274.41	76.0232	1,274.41	81.5629	1,274.41	79.1306
1,319.82	90.7286	1,319.82	90.8423	1,319.82	90.3708	1,319.82	90.7888	1,319.82	89.9447	1,319.82	90.4848	1,319.82	89.8783	1,319.82	89.6918	1,319.82	90.2107	1,319.82	88.0399	1,319.82	90.4139	1,319.82	84.935	1,319.82	90.1344	1,319.82	81.8456	1,319.82	89.4566	1,319.82	80.2784	1,319.82	88.6817	1,319.82	78.9379	1,319.82	88.206	1,319.82	77.8524	1,319.82	87.7089	1,319.82	76.9558	1,319.82	86.4629	1,319.82	79.1516	1,319.82	85.2429	1,319.82	81.6533	1,319.82	84.7127	1,319.82	82.0853	1,319.82	82.404	1,319.82	80.6109	1,319.82	78.3692	1,319.82	78.3433	1,319.82	78.3515	1,319.82	78.0759	1,319.82	79.7683	1,319.82	79.4537
1,366.7	90.8782	1,366.7	90.8456	1,366.7	90.4154	1,366.7	90.4225	1,366.7	89.6458	1,366.7	89.6825	1,366.7	88.9221	1,366.7	88.3111	1,366.7	88.5319	1,366.7	86.1942	1,366.7	88.5979	1,366.7	84.9711	1,366.7	88.9067	1,366.7	85.6224	1,366.7	88.9837	1,366.7	84.9786	1,366.7	88.436	1,366.7	82.2999	1,366.7	87.4381	1,366.7	79.2004	1,366.7	86.6641	1,366.7	77.2355	1,366.7	85.9305	1,366.7	79.3781	1,366.7	84.8139	1,366.7	82.2545	1,366.7	84.0445	1,366.7	82.9998	1,366.7	82.8831	1,366.7	81.733	1,366.7	81.1559	1,366.7	78.5106	1,366.7	80.5566	1,366.7	76.4613	1,366.7	80.2447	1,366.7	78.6869
1,413.57	90.3592	1,413.57	90.3947	1,413.57	89.9963	1,413.57	90.1183	1,413.57	89.449	1,413.57	89.2014	1,413.57	88.9685	1,413.57	86.9344	1,413.57	88.8463	1,413.57	83.2858	1,413.57	89.2673	1,413.57	81.2584	1,413.57	89.8941	1,413.57	82.628	1,413.57	90.34	1,413.57	82.5202	1,413.57	90.4944	1,413.57	79.687	1,413.57	90.657	1,413.57	76.0249	1,413.57	90.8791	1,413.57	70.7999	1,413.57	89.9778	1,413.57	71.4761	1,413.57	87.466	1,413.57	79.7954	1,413.57	86.0869	1,413.57	83.7436	1,413.57	85.5064	1,413.57	84.2303	1,413.57	83.8208	1,413.57	81.3026	1,413.57	82.5296	1,413.57	76.7873	1,413.57	81.5127	1,413.57	79.0185
1,463.38	90.0681	1,463.38	90.2385	1,463.38	90.2464	1,463.38	90.3478	1,463.38	90.4944	1,463.38	89.3314	1,463.38	90.5029	1,463.38	86.3468	1,463.38	90.1056	1,463.38	83.1953	1,463.38	89.4002	1,463.38	84.4404	1,463.38	89.321	1,463.38	86.2083	1,463.38	90.4213	1,463.38	87.1772	1,463.38	91.5687	1,463.38	87.772	1,463.38	91.9921	1,463.38	88.09	1,463.38	91.9603	1,463.38	87.3945	1,463.38	90.886	1,463.38	84.9997	1,463.38	88.2198	1,463.38	79.4642	1,463.38	86.2589	1,463.38	74.8695	1,463.38	84.1808	1,463.38	81.7302	1,463.38	80.5868	1,463.38	82.4789	1,463.38	78.2308	1,463.38	79.7183	1,463.38	76.8519	1,463.38	76.4539
1,516.11	91.1625	1,516.11	91.2822	1,516.11	90.8743	1,516.11	90.7696	1,516.11	90.5078	1,516.11	89.2295	1,516.11	90.0386	1,516.11	88.0147	1,516.11	89.2787	1,516.11	89.0157	1,516.11	88.1774	1,516.11	90.006	1,516.11	87.7089	1,516.11	89.592	1,516.11	88.5894	1,516.11	88.941	1,516.11	89.3874	1,516.11	88.9799	1,516.11	89.3416	1,516.11	89.19	1,516.11	89.1587	1,516.11	89.0192	1,516.11	87.6782	1,516.11	87.9254	1,516.11	83.2351	1,516.11	84.8743	1,516.11	79.6984	1,516.11	76.8898	1,516.11	76.7914	1,516.11	72.3156	1,516.11	73.4577	1,516.11	78.676	1,516.11	74.8071	1,516.11	79.1692	1,516.11	77.1617	1,516.11	78.3377
1,568.85	91.3543	1,568.85	90.7587	1,568.85	91.3825	1,568.85	89.6343	1,568.85	90.6194	1,568.85	88.3887	1,568.85	89.1315	1,568.85	88.8547	1,568.85	87.8652	1,568.85	90.4447	1,568.85	88.1721	1,568.85	91.0528	1,568.85	89.4615	1,568.85	90.3568	1,568.85	90.4415	1,568.85	89.6333	1,568.85	90.7675	1,568.85	89.5879	1,568.85	89.9872	1,568.85	89.5588	1,568.85	87.3162	1,568.85	89.1169	1,568.85	82.4672	1,568.85	88.1455	1,568.85	73.2682	1,568.85	86.1481	1,568.85	57.8774	1,568.85	81.6799	1,568.85	61.8977	1,568.85	74.8307	1,568.85	71.8719	1,568.85	76.1212	1,568.85	76.3167	1,568.85	77.5445	1,568.85	77.5212	1,568.85	77.6745
1,624.51	91.768	1,624.51	90.9652	1,624.51	91.9026	1,624.51	89.5114	1,624.51	91.384	1,624.51	88.6592	1,624.51	90.001	1,624.51	89.9802	1,624.51	87.7923	1,624.51	91.2331	1,624.51	86.6782	1,624.51	90.8273	1,624.51	88.3896	1,624.51	88.9834	1,624.51	89.86	1,624.51	87.1562	1,624.51	89.6483	1,624.51	86.9212	1,624.51	87.9686	1,624.51	87.109	1,624.51	84.7237	1,624.51	86.3133	1,624.51	79.5978	1,624.51	85.2941	1,624.51	77.0882	1,624.51	84.4541	1,624.51	76.161	1,624.51	83.1267	1,624.51	71.7358	1,624.51	80.6275	1,624.51	72.0696	1,624.51	77.0104	1,624.51	76.2465	1,624.51	76.273	1,624.51	77.9265	1,624.51	77.6791
1,681.64	91.7952	1,681.64	90.8205	1,681.64	92.1211	1,681.64	90.1212	1,681.64	91.75	1,681.64	91.0102	1,681.64	90.5798	1,681.64	92.2346	1,681.64	88.1676	1,681.64	91.8729	1,681.64	84.8188	1,681.64	89.0257	1,681.64	83.8866	1,681.64	83.4718	1,681.64	85.1601	1,681.64	76.7752	1,681.64	84.3773	1,681.64	73.8516	1,681.64	81.1412	1,681.64	74.254	1,681.64	74.6006	1,681.64	77.0756	1,681.64	73.0602	1,681.64	81.6143	1,681.64	77.4437	1,681.64	84.4126	1,681.64	76.0596	1,681.64	84.6552	1,681.64	70.1276	1,681.64	81.2479	1,681.64	69.6187	1,681.64	68.8623	1,681.64	75.8214	1,681.64	73.6812	1,681.64	79.1237	1,681.64	78.854
1,741.7	90.6804	1,741.7	91.0078	1,741.7	90.6521	1,741.7	91.2239	1,741.7	90.9722	1,741.7	91.0126	1,741.7	91.0759	1,741.7	89.8255	1,741.7	90.3563	1,741.7	86.9146	1,741.7	87.9932	1,741.7	83.1328	1,741.7	84.1811	1,741.7	82.5488	1,741.7	83.7024	1,741.7	82.5957	1,741.7	85.5319	1,741.7	81.3789	1,741.7	86.2461	1,741.7	82.0042	1,741.7	85.7958	1,741.7	83.0225	1,741.7	83.458	1,741.7	82.7005	1,741.7	78.0471	1,741.7	81.6137	1,741.7	70.9464	1,741.7	80.7764	1,741.7	69.5389	1,741.7	79.2118	1,741.7	74.5506	1,741.7	72.8304	1,741.7	76.743	1,741.7	72.2025	1,741.7	78.6577	1,741.7	78.822
1,803.22	91.1115	1,803.22	91.1463	1,803.22	90.656	1,803.22	90.6085	1,803.22	90.3213	1,803.22	89.445	1,803.22	90.3606	1,803.22	87.3817	1,803.22	89.9831	1,803.22	83.9303	1,803.22	88.0456	1,803.22	81.6093	1,803.22	83.4795	1,803.22	83.4024	1,803.22	76.0916	1,803.22	83.3691	1,803.22	78.4052	1,803.22	80.8432	1,803.22	80.2058	1,803.22	75.1096	1,803.22	78.7379	1,803.22	55.2963	1,803.22	75.2163	1,803.22	76.4728	1,803.22	72.1888	1,803.22	81.4865	1,803.22	74.2831	1,803.22	82.4896	1,803.22	73.7309	1,803.22	81.4266	1,803.22	75.7872	1,803.22	77.124	1,803.22	77.8518	1,803.22	69.1537	1,803.22	78.0748	1,803.22	76.5835
1,866.21	91.1866	1,866.21	90.4116	1,866.21	90.7535	1,866.21	88.3526	1,866.21	89.669	1,866.21	87.4091	1,866.21	88.5854	1,866.21	88.5938	1,866.21	88.4171	1,866.21	89.024	1,866.21	88.8836	1,866.21	87.7705	1,866.21	88.6587	1,866.21	86.2534	1,866.21	86.533	1,866.21	84.2839	1,866.21	81.653	1,866.21	81.5381	1,866.21	78.2502	1,866.21	81.3383	1,866.21	77.4077	1,866.21	78.6093	1,866.21	70.248	1,866.21	73.6669	1,866.21	74.14	1,866.21	77.9056	1,866.21	79.0329	1,866.21	80.8033	1,866.21	78.1539	1,866.21	81.4277	1,866.21	76.562	1,866.21	78.4294	1,866.21	78.5325	1,866.21	67.9489	1,866.21	79.0833	1,866.21	74.7986
1,932.13	89.113	1,932.13	88.4199	1,932.13	89.5226	1,932.13	88.3945	1,932.13	89.427	1,932.13	89.2062	1,932.13	88.7091	1,932.13	89.3063	1,932.13	87.584	1,932.13	88.0788	1,932.13	87.2014	1,932.13	85.551	1,932.13	87.2735	1,932.13	82.1597	1,932.13	87.0622	1,932.13	77.8708	1,932.13	86.3524	1,932.13	76.2583	1,932.13	84.7811	1,932.13	79.2732	1,932.13	81.3123	1,932.13	79.0894	1,932.13	73.1275	1,932.13	74.7351	1,932.13	75.9771	1,932.13	65.2515	1,932.13	79.9232	1,932.13	72.1983	1,932.13	77.518	1,932.13	80.0582	1,932.13	77.7193	1,932.13	81.5395	1,932.13	78.9461	1,932.13	77.3552	1,932.13	75.9494	1,932.13	71.6627
1,999.51	89.2527	1,999.51	89.3563	1,999.51	89.8543	1,999.51	90.0561	1,999.51	90.0973	1,999.51	89.7617	1,999.51	89.5604	1,999.51	88.0057	1,999.51	89.0768	1,999.51	86.6605	1,999.51	88.2576	1,999.51	84.8931	1,999.51	85.9746	1,999.51	82.8912	1,999.51	83.8573	1,999.51	83.6556	1,999.51	81.2219	1,999.51	84.6085	1,999.51	78.3797	1,999.51	83.291	1,999.51	81.4998	1,999.51	80.3058	1,999.51	82.4794	1,999.51	76.7279	1,999.51	78.6154	1,999.51	79.6822	1,999.51	75.9028	1,999.51	80.3885	1,999.51	74.2824	1,999.51	76.7064	1,999.51	74.1875	1,999.51	73.2336	1,999.51	76.9375	1,999.51	75.5733	1,999.51	77.4125	1,999.51	76.6757
2,069.82	89.5874	2,069.82	89.6569	2,069.82	89.6909	2,069.82	89.338	2,069.82	89.4389	2,069.82	88.098	2,069.82	88.5023	2,069.82	86.6042	2,069.82	87.9837	2,069.82	86.2625	2,069.82	87.4943	2,069.82	85.9905	2,069.82	85.9582	2,069.82	84.9165	2,069.82	83.9552	2,069.82	82.6426	2,069.82	82.7927	2,069.82	79.1231	2,069.82	83.0917	2,069.82	79.177	2,069.82	81.8537	2,069.82	81.3581	2,069.82	79.413	2,069.82	77.9041	2,069.82	74.415	2,069.82	75.486	2,069.82	71.0032	2,069.82	79.6918	2,069.82	72.3646	2,069.82	77.918	2,069.82	73.7517	2,069.82	72.053	2,069.82	76.0667	2,069.82	72.7556	2,069.82	76.7505	2,069.82	75.2396
2,143.07	89.6111	2,143.07	89.5976	2,143.07	89.5545	2,143.07	88.7153	2,143.07	89.106	2,143.07	86.8804	2,143.07	88.1453	2,143.07	86.2469	2,143.07	87.9906	2,143.07	86.7521	2,143.07	87.2541	2,143.07	85.4871	2,143.07	85.2671	2,143.07	82.8314	2,143.07	84.3556	2,143.07	81.5497	2,143.07	83.1119	2,143.07	81.9025	2,143.07	81.5154	2,143.07	81.3374	2,143.07	80.9714	2,143.07	80.9878	2,143.07	77.2417	2,143.07	80.0026	2,143.07	72.773	2,143.07	74.5454	2,143.07	70.8646	2,143.07	77.9291	2,143.07	67.7267	2,143.07	79.0973	2,143.07	73.2337	2,143.07	74.2931	2,143.07	75.3184	2,143.07	70.8813	2,143.07	76.1009	2,143.07	74.3192
2,219.24	89.087	2,219.24	89.0834	2,219.24	88.9961	2,219.24	88.1569	2,219.24	88.5392	2,219.24	86.7604	2,219.24	87.9009	2,219.24	86.9247	2,219.24	87.6239	2,219.24	86.8656	2,219.24	86.4092	2,219.24	85.534	2,219.24	84.769	2,219.24	85.0453	2,219.24	82.2749	2,219.24	82.0748	2,219.24	79.2961	2,219.24	76.552	2,219.24	76.8229	2,219.24	79.2961	2,219.24	77.2045	2,219.24	80.6039	2,219.24	77.0266	2,219.24	79.0741	2,219.24	73.906	2,219.24	75.8476	2,219.24	73.1741	2,219.24	76.2839	2,219.24	64.7264	2,219.24	78.7021	2,219.24	69.9814	2,219.24	74.8677	2,219.24	73.9634	2,219.24	67.871	2,219.24	75.3247	2,219.24	73.6438
2,296.88	88.8614	2,296.88	88.875	2,296.88	88.2013	2,296.88	88.0772	2,296.88	87.8428	2,296.88	87.7578	2,296.88	87.7462	2,296.88	87.5029	2,296.88	87.5136	2,296.88	86.1139	2,296.88	87.1712	2,296.88	84.6178	2,296.88	85.9655	2,296.88	83.0449	2,296.88	83.0481	2,296.88	80.1965	2,296.88	81.7214	2,296.88	79.9206	2,296.88	80.2832	2,296.88	75.8051	2,296.88	68.9591	2,296.88	77.2694	2,296.88	64.5357	2,296.88	79.6127	2,296.88	72.7764	2,296.88	77.2993	2,296.88	70.9652	2,296.88	72.853	2,296.88	65.2046	2,296.88	77.3322	2,296.88	64.6441	2,296.88	75.3031	2,296.88	70.932	2,296.88	65.3625	2,296.88	71.5094	2,296.88	65.4878
2,378.91	89.0389	2,378.91	88.3825	2,378.91	88.2883	2,378.91	87.8078	2,378.91	86.9364	2,378.91	88.3644	2,378.91	86.3117	2,378.91	87.2073	2,378.91	86.9883	2,378.91	83.963	2,378.91	87.0157	2,378.91	81.2396	2,378.91	85.8864	2,378.91	81.8225	2,378.91	85.4394	2,378.91	83.3814	2,378.91	84.0697	2,378.91	81.383	2,378.91	79.5333	2,378.91	77.4484	2,378.91	72.0173	2,378.91	73.4936	2,378.91	70.3943	2,378.91	76.4724	2,378.91	73.7044	2,378.91	78.4461	2,378.91	74.2895	2,378.91	72.9136	2,378.91	68.5255	2,378.91	77.4839	2,378.91	67.7569	2,378.91	77.6704	2,378.91	70.7134	2,378.91	71.7297	2,378.91	73.2449	2,378.91	70.3429
2,462.4	89.9995	2,462.4	89.1217	2,462.4	89.7539	2,462.4	88.4314	2,462.4	87.914	2,462.4	87.5794	2,462.4	86.3781	2,462.4	84.5926	2,462.4	86.2875	2,462.4	82.1765	2,462.4	85.3834	2,462.4	83.4246	2,462.4	85.6119	2,462.4	81.2376	2,462.4	85.1195	2,462.4	78.6669	2,462.4	81.4916	2,462.4	78.2339	2,462.4	78.0416	2,462.4	75.9686	2,462.4	70.7149	2,462.4	75.8323	2,462.4	67.6877	2,462.4	73.6065	2,462.4	74.731	2,462.4	77.6215	2,462.4	74.2507	2,462.4	75.5923	2,462.4	70.5906	2,462.4	72.705	2,462.4	72.2515	2,462.4	75.6328	2,462.4	74.789	2,462.4	70.5342	2,462.4	75.584	2,462.4	72.2571
2,548.83	90.0208	2,548.83	89.795	2,548.83	90.239	2,548.83	89.0614	2,548.83	89.4762	2,548.83	86.4267	2,548.83	87.6137	2,548.83	84.1111	2,548.83	86.0531	2,548.83	84.9113	2,548.83	85.1023	2,548.83	84.9958	2,548.83	82.931	2,548.83	83.4524	2,548.83	81.7033	2,548.83	79.399	2,548.83	82.8006	2,548.83	78.872	2,548.83	80.4028	2,548.83	79.3749	2,548.83	76.1566	2,548.83	78.6148	2,548.83	68.7756	2,548.83	75.8439	2,548.83	77.6774	2,548.83	76.3952	2,548.83	75.1764	2,548.83	77.4368	2,548.83	71.2629	2,548.83	74.1409	2,548.83	69.4637	2,548.83	77.0383	2,548.83	76.5613	2,548.83	72.8413	2,548.83	77.0058	2,548.83	69.955
2,639.65	89.1302	2,639.65	88.6393	2,639.65	90.1113	2,639.65	87.8099	2,639.65	90.1119	2,639.65	86.3255	2,639.65	88.6774	2,639.65	85.7992	2,639.65	87.676	2,639.65	85.9058	2,639.65	85.5031	2,639.65	85.396	2,639.65	81.1396	2,639.65	82.8248	2,639.65	80.9988	2,639.65	79.4266	2,639.65	80.297	2,639.65	79.3243	2,639.65	70.1437	2,639.65	79.9528	2,639.65	77.8836	2,639.65	79.6752	2,639.65	75.6553	2,639.65	76.9541	2,639.65	75.0264	2,639.65	71.9652	2,639.65	74.6283	2,639.65	75.6206	2,639.65	73.2317	2,639.65	72.965	2,639.65	74.2162	2,639.65	74.533	2,639.65	76.7503	2,639.65	72.619	2,639.65	76.4262	2,639.65	68.4955
2,731.93	88.042	2,731.93	87.4603	2,731.93	88.4406	2,731.93	86.9467	2,731.93	88.6094	2,731.93	86.6708	2,731.93	88.3553	2,731.93	86.0619	2,731.93	87.3774	2,731.93	85.6702	2,731.93	84.738	2,731.93	83.9352	2,731.93	82.8169	2,731.93	82.429	2,731.93	78.9748	2,731.93	83.2105	2,731.93	70.1282	2,731.93	81.2547	2,731.93	76.2813	2,731.93	79.3773	2,731.93	79.0035	2,731.93	77.2354	2,731.93	72.9413	2,731.93	76.6934	2,731.93	73.7381	2,731.93	75.2258	2,731.93	70.3777	2,731.93	74.0216	2,731.93	68.5821	2,731.93	74.8147	2,731.93	72.3305	2,731.93	73.3374	2,731.93	75.3659	2,731.93	68.1946	2,731.93	74.6219	2,731.93	66.966
2,828.61	88.6227	2,828.61	87.5957	2,828.61	88.2032	2,828.61	86.3787	2,828.61	87.2859	2,828.61	85.795	2,828.61	87.2758	2,828.61	85.5646	2,828.61	86.9773	2,828.61	84.7836	2,828.61	84.8386	2,828.61	83.1375	2,828.61	83.4579	2,828.61	82.9223	2,828.61	81.5573	2,828.61	82.8543	2,828.61	78.1077	2,828.61	80.3716	2,828.61	78.022	2,828.61	72.8967	2,828.61	76.129	2,828.61	76.6654	2,828.61	64.0492	2,828.61	78.1987	2,828.61	71.7239	2,828.61	74.5061	2,828.61	65.1143	2,828.61	72.9054	2,828.61	71.3059	2,828.61	70.871	2,828.61	71.0807	2,828.61	73.2776	2,828.61	72.5094	2,828.61	69.219	2,828.61	72.2139	2,828.61	64.7665
2,928.22	89.1181	2,928.22	88.5183	2,928.22	88.8559	2,928.22	87.7932	2,928.22	87.6965	2,928.22	86.4331	2,928.22	87.2073	2,928.22	86.21	2,928.22	86.6813	2,928.22	85.2871	2,928.22	84.6176	2,928.22	83.8912	2,928.22	84.6122	2,928.22	85.1783	2,928.22	81.3825	2,928.22	82.4619	2,928.22	79.9336	2,928.22	77.5482	2,928.22	83.0513	2,928.22	78.9689	2,928.22	74.5924	2,928.22	75.4457	2,928.22	62.7626	2,928.22	78.0613	2,928.22	64.978	2,928.22	77.5988	2,928.22	62.9125	2,928.22	71.5502	2,928.22	63.956	2,928.22	71.9084	2,928.22	70.1246	2,928.22	73.0744	2,928.22	72.8009	2,928.22	66.6313	2,928.22	73.7112	2,928.22	65.9469
3,030.76	88.3674	3,030.76	87.3587	3,030.76	88.9944	3,030.76	86.4533	3,030.76	88.3981	3,030.76	86.4665	3,030.76	87.1136	3,030.76	86.4624	3,030.76	85.1565	3,030.76	84.8443	3,030.76	82.2357	3,030.76	84.853	3,030.76	82.3262	3,030.76	83.4482	3,030.76	79.5043	3,030.76	78.1805	3,030.76	80.9976	3,030.76	78.9429	3,030.76	82.6022	3,030.76	79.9169	3,030.76	74.1174	3,030.76	76.1145	3,030.76	72.3357	3,030.76	75.145	3,030.76	67.5354	3,030.76	76.465	3,030.76	69.664	3,030.76	75.6511	3,030.76	60.3342	3,030.76	69.9782	3,030.76	67.9467	3,030.76	74.7607	3,030.76	73.3819	3,030.76	73.1525	3,030.76	75.0898	3,030.76	67.0691
3,137.7	87.2253	3,137.7	86.286	3,137.7	88.444	3,137.7	87.2784	3,137.7	88.039	3,137.7	87.6609	3,137.7	86.4919	3,137.7	86.273	3,137.7	84.8956	3,137.7	85.9322	3,137.7	81.7505	3,137.7	85.863	3,137.7	79.5778	3,137.7	81.6552	3,137.7	78.8904	3,137.7	79.3699	3,137.7	81.2432	3,137.7	78.6008	3,137.7	81.4888	3,137.7	76.9949	3,137.7	75.1898	3,137.7	77.27	3,137.7	74.7838	3,137.7	73.4053	3,137.7	71.3329	3,137.7	76.0161	3,137.7	68.1373	3,137.7	76.8191	3,137.7	59.8489	3,137.7	71.8706	3,137.7	69.0784	3,137.7	74.127	3,137.7	72.1255	3,137.7	74.4503	3,137.7	72.3191	3,137.7	66.8505
3,249.02	87.0284	3,249.02	87.1544	3,249.02	87.6798	3,249.02	87.8042	3,249.02	87.3805	3,249.02	87.7107	3,249.02	86.2152	3,249.02	86.6954	3,249.02	84.9701	3,249.02	86.0408	3,249.02	83.4402	3,249.02	83.8594	3,249.02	81.7063	3,249.02	81.358	3,249.02	82.7064	3,249.02	82.2433	3,249.02	82.6211	3,249.02	78.7325	3,249.02	77.2026	3,249.02	73.0605	3,249.02	72.7086	3,249.02	73.8698	3,249.02	72.6777	3,249.02	76.3719	3,249.02	71.724	3,249.02	73.6021	3,249.02	65.7598	3,249.02	75.3465	3,249.02	68.9308	3,249.02	71.4584	3,249.02	70.3856	3,249.02	73.7517	3,249.02	73.5001	3,249.02	74.7271	3,249.02	72.5559	3,249.02	65.6186
3,363.28	87.5969	3,363.28	87.8472	3,363.28	87.9579	3,363.28	88.0216	3,363.28	87.5584	3,363.28	87.3482	3,363.28	86.0824	3,363.28	87.0615	3,363.28	84.2716	3,363.28	85.8895	3,363.28	83.7208	3,363.28	81.5642	3,363.28	84.1641	3,363.28	82.1421	3,363.28	83.8817	3,363.28	80.6283	3,363.28	82.1329	3,363.28	75.0024	3,363.28	72.5483	3,363.28	75.0094	3,363.28	71.4375	3,363.28	72.8952	3,363.28	67.2045	3,363.28	74.0854	3,363.28	69.1513	3,363.28	71.5901	3,363.28	67.8268	3,363.28	71.7563	3,363.28	71.4423	3,363.28	72.2576	3,363.28	68.3681	3,363.28	71.3656	3,363.28	70.5024	3,363.28	74.8308	3,363.28	69.7974	3,363.28	66.7435
3,481.93	88.4121	3,481.93	89.4454	3,481.93	88.47	3,481.93	90.1548	3,481.93	88.5689	3,481.93	88.6364	3,481.93	87.817	3,481.93	87.5014	3,481.93	85.5248	3,481.93	85.7507	3,481.93	83.9928	3,481.93	83.4491	3,481.93	84.1667	3,481.93	83.0051	3,481.93	82.1794	3,481.93	77.4447	3,481.93	78.9509	3,481.93	74.9965	3,481.93	70.9617	3,481.93	73.3369	3,481.93	71.4694	3,481.93	72.859	3,481.93	67.95	3,481.93	71.8623	3,481.93	70.6887	3,481.93	75.4256	3,481.93	69.7017	3,481.93	71.8085	3,481.93	71.6148	3,481.93	72.957	3,481.93	68.5341	3,481.93	71.8629	3,481.93	70.733	3,481.93	74.4382	3,481.93	67.6876	3,481.93	66.3652
3,604.98	89.1782	3,604.98	89.799	3,604.98	89.1016	3,604.98	90.4223	3,604.98	88.3277	3,604.98	89.3735	3,604.98	88.0129	3,604.98	88.2471	3,604.98	86.0543	3,604.98	85.2561	3,604.98	85.3279	3,604.98	84.1159	3,604.98	84.7714	3,604.98	81.2939	3,604.98	81.575	3,604.98	77.0589	3,604.98	68.9375	3,604.98	77.6154	3,604.98	70.7493	3,604.98	70.944	3,604.98	59.8076	3,604.98	74.4996	3,604.98	67.1246	3,604.98	74.3664	3,604.98	72.6019	3,604.98	73.8861	3,604.98	68.7497	3,604.98	72.1122	3,604.98	68.8135	3,604.98	72.0719	3,604.98	58.9732	3,604.98	71.2547	3,604.98	66.1466	3,604.98	73.9339	3,604.98	64.173	3,604.98	65.8613
3,732.42	89.9719	3,732.42	90.26	3,732.42	90.219	3,732.42	89.8082	3,732.42	88.6922	3,732.42	89.1922	3,732.42	86.7613	3,732.42	87.7031	3,732.42	84.6065	3,732.42	84.5925	3,732.42	85.7374	3,732.42	82.4041	3,732.42	84.3279	3,732.42	76.573	3,732.42	80.1655	3,732.42	78.9445	3,732.42	74.5584	3,732.42	75.6223	3,732.42	77.3974	3,732.42	73.5102	3,732.42	76.4569	3,732.42	72.0382	3,732.42	71.7243	3,732.42	71.5791	3,732.42	62.9433	3,732.42	70.2718	3,732.42	66.6174	3,732.42	68.2009	3,732.42	45.8968	3,732.42	71.0906	3,732.42	52.3376	3,732.42	70.0689	3,732.42	68.3249	3,732.42	73.6913	3,732.42	65.7017	3,732.42	64.8659
3,864.26	89.3737	3,864.26	89.7364	3,864.26	90.1578	3,864.26	90.4051	3,864.26	90.1968	3,864.26	89.2258	3,864.26	88.03	3,864.26	86.7661	3,864.26	85.5947	3,864.26	85.1978	3,864.26	85.6613	3,864.26	81.6097	3,864.26	83.8686	3,864.26	80.3415	3,864.26	79.1251	3,864.26	79.4635	3,864.26	75.4838	3,864.26	72.0477	3,864.26	76.6631	3,864.26	72.0486	3,864.26	79.9128	3,864.26	70.4609	3,864.26	73.5588	3,864.26	70.2069	3,864.26	57.0325	3,864.26	72.2512	3,864.26	62.697	3,864.26	70.3335	3,864.26	62.4833	3,864.26	69.4067	3,864.26	63.5068	3,864.26	69.7783	3,864.26	68.3586	3,864.26	72.4524	3,864.26	65.7043	3,864.26	62.9021
4,000.49	89.2062	4,000.49	90.0288	4,000.49	88.9074	4,000.49	90.6389	4,000.49	88.7395	4,000.49	88.7529	4,000.49	87.6194	4,000.49	87.0537	4,000.49	85.6274	4,000.49	85.0664	4,000.49	85.3591	4,000.49	81.228	4,000.49	82.5956	4,000.49	80.1805	4,000.49	75.6115	4,000.49	75.7143	4,000.49	75.1386	4,000.49	74.3124	4,000.49	74.0664	4,000.49	74.2558	4,000.49	76.4039	4,000.49	70.4749	4,000.49	65.9731	4,000.49	71.9572	4,000.49	60.8579	4,000.49	72.3858	4,000.49	58.4041	4,000.49	69.6353	4,000.49	59.261	4,000.49	68.2524	4,000.49	64.1068	4,000.49	69.7415	4,000.49	67.7373	4,000.49	72.8271	4,000.49	61.6097	4,000.49	65.2894
4,141.11	89.8172	4,141.11	90.6299	4,141.11	89.0707	4,141.11	90.2638	4,141.11	88.5147	4,141.11	88.2435	4,141.11	86.7644	4,141.11	86.4516	4,141.11	86.1494	4,141.11	82.5684	4,141.11	85.6029	4,141.11	81.7224	4,141.11	81.3366	4,141.11	78.6273	4,141.11	73.065	4,141.11	75.247	4,141.11	78.3843	4,141.11	75.2522	4,141.11	73.1141	4,141.11	72.311	4,141.11	68.0465	4,141.11	72.3702	4,141.11	67.0224	4,141.11	70.6221	4,141.11	65.8477	4,141.11	72.9108	4,141.11	69.6191	4,141.11	72.1114	4,141.11	49.692	4,141.11	68.2122	4,141.11	63.7041	4,141.11	67.5933	4,141.11	66.364	4,141.11	74.1702	4,141.11	63.9078	4,141.11	66.9995
4,287.6	89.4438	4,287.6	90.644	4,287.6	88.588	4,287.6	90.1204	4,287.6	87.9405	4,287.6	87.5047	4,287.6	86.0085	4,287.6	84.9111	4,287.6	87.0532	4,287.6	82.2392	4,287.6	85.9054	4,287.6	81.3664	4,287.6	77.3503	4,287.6	76.5602	4,287.6	78.9195	4,287.6	78.4624	4,287.6	78.5567	4,287.6	70.1664	4,287.6	63.856	4,287.6	71.1936	4,287.6	70.0501	4,287.6	70.8497	4,287.6	70.5498	4,287.6	70.1531	4,287.6	65.7848	4,287.6	68.2985	4,287.6	70.4133	4,287.6	71.0816	4,287.6	63.1194	4,287.6	68.8161	4,287.6	64.3454	4,287.6	59.5732	4,287.6	66.024	4,287.6	72.0939	4,287.6	64.2372	4,287.6	66.6886
4,438.48	89.3583	4,438.48	90.0805	4,438.48	88.4034	4,438.48	89.2252	4,438.48	87.6398	4,438.48	86.7681	4,438.48	85.8695	4,438.48	83.853	4,438.48	86.8263	4,438.48	83.2309	4,438.48	83.6808	4,438.48	77.4218	4,438.48	77.3743	4,438.48	78.4149	4,438.48	81.3366	4,438.48	76.3687	4,438.48	71.7837	4,438.48	73.4672	4,438.48	72.3462	4,438.48	70.7338	4,438.48	72.7492	4,438.48	70.6232	4,438.48	69.3713	4,438.48	68.7561	4,438.48	65.6475	4,438.48	70.6151	4,438.48	69.9426	4,438.48	68.5647	4,438.48	69.2954	4,438.48	70.0887	4,438.48	64.7227	4,438.48	62.3996	4,438.48	69.2553	4,438.48	71.1939	4,438.48	67.1215	4,438.48	66.1647
4,595.21	88.9488	4,595.21	90.5541	4,595.21	88.1647	4,595.21	88.6949	4,595.21	86.9003	4,595.21	85.5006	4,595.21	85.3552	4,595.21	84.5831	4,595.21	86.4705	4,595.21	81.1289	4,595.21	80.8208	4,595.21	77.9213	4,595.21	81.4795	4,595.21	78.1763	4,595.21	81.4549	4,595.21	74.6397	4,595.21	71.0866	4,595.21	72.3632	4,595.21	75.9843	4,595.21	70.0163	4,595.21	71.53	4,595.21	72.5124	4,595.21	61.4819	4,595.21	71.4153	4,595.21	68.5478	4,595.21	70.2451	4,595.21	68.7087	4,595.21	70.9655	4,595.21	70.7908	4,595.21	66.9173	4,595.21	59.8882	4,595.21	59.706	4,595.21	70.0468	4,595.21	71.5304	4,595.21	66.9819	4,595.21	64.6733
4,756.35	89.3933	4,756.35	89.5178	4,756.35	87.9062	4,756.35	88.6075	4,756.35	86.0782	4,756.35	86.486	4,756.35	85.6712	4,756.35	83.2721	4,756.35	85.3553	4,756.35	79.9566	4,756.35	78.9134	4,756.35	80.3511	4,756.35	83.7042	4,756.35	77.5867	4,756.35	78.6241	4,756.35	75.6652	4,756.35	75.9837	4,756.35	72.1331	4,756.35	71.6898	4,756.35	71.3734	4,756.35	61.6069	4,756.35	65.4693	4,756.35	65.52	4,756.35	70.1584	4,756.35	68.3327	4,756.35	67.6393	4,756.35	68.2543	4,756.35	71.4043	4,756.35	69.2532	4,756.35	68.7454	4,756.35	54.281	4,756.35	62.4115	4,756.35	68.8073	4,756.35	69.3495	4,756.35	65.6265	4,756.35	62.1295
4,924.8	90.0933	4,924.8	88.634	4,924.8	88.6931	4,924.8	87.2466	4,924.8	85.9875	4,924.8	84.7068	4,924.8	84.4326	4,924.8	81.7067	4,924.8	85.5289	4,924.8	80.3809	4,924.8	78.4806	4,924.8	78.9785	4,924.8	83.5707	4,924.8	75.3552	4,924.8	74.5302	4,924.8	78.0278	4,924.8	77.4504	4,924.8	72.1888	4,924.8	67.9631	4,924.8	69.8882	4,924.8	68.8714	4,924.8	71.1244	4,924.8	63.5402	4,924.8	70.2622	4,924.8	67.0553	4,924.8	68.2819	4,924.8	68.7953	4,924.8	68.8973	4,924.8	69.224	4,924.8	69.1497	4,924.8	50.1666	4,924.8	66.0999	4,924.8	65.3468	4,924.8	66.8334	4,924.8	63.5248	4,924.8	65.2369
5,097.66	89.8488	5,097.66	89.3349	5,097.66	88.2711	5,097.66	87.6592	5,097.66	86.6717	5,097.66	84.0798	5,097.66	84.4645	5,097.66	81.7187	5,097.66	83.6669	5,097.66	81.4911	5,097.66	81.1806	5,097.66	78.3191	5,097.66	82.4101	5,097.66	79.6825	5,097.66	74.4987	5,097.66	72.9676	5,097.66	74.8666	5,097.66	72.0646	5,097.66	67.9836	5,097.66	70.9472	5,097.66	66.8317	5,097.66	68.9792	5,097.66	68.4356	5,097.66	70.1748	5,097.66	64.6459	5,097.66	69.4419	5,097.66	64.8122	5,097.66	71.1697	5,097.66	65.0178	5,097.66	65.7041	5,097.66	62.2471	5,097.66	69.3307	5,097.66	68.617	5,097.66	68.2374	5,097.66	64.0031	5,097.66	65.3501
5,277.83	90.2206	5,277.83	89.914	5,277.83	88.5929	5,277.83	87.5174	5,277.83	85.7444	5,277.83	83.9086	5,277.83	85.7126	5,277.83	83.9893	5,277.83	79.9131	5,277.83	81.5008	5,277.83	84.8731	5,277.83	80.0368	5,277.83	80.9747	5,277.83	77.5835	5,277.83	78.0814	5,277.83	76.7029	5,277.83	73.3577	5,277.83	74.7803	5,277.83	73.0963	5,277.83	70.4443	5,277.83	73.5541	5,277.83	71.3524	5,277.83	71.8096	5,277.83	68.5488	5,277.83	69.3576	5,277.83	71.4088	5,277.83	67.2271	5,277.83	70.2275	5,277.83	62.5824	5,277.83	64.5427	5,277.83	65.5705	5,277.83	67.8856	5,277.83	66.4767	5,277.83	66.4079	5,277.83	61.0791	5,277.83	67.0061
5,463.87	89.4443	5,463.87	88.6858	5,463.87	89.3891	5,463.87	86.5013	5,463.87	85.1256	5,463.87	84.5974	5,463.87	86.4558	5,463.87	82.9922	5,463.87	82.4412	5,463.87	81.2078	5,463.87	84.6801	5,463.87	79.7551	5,463.87	76.4391	5,463.87	77.7371	5,463.87	76.2416	5,463.87	77.9167	5,463.87	58.4288	5,463.87	72.538	5,463.87	69.2645	5,463.87	70.2363	5,463.87	68.2845	5,463.87	70.7176	5,463.87	59.2466	5,463.87	68.1516	5,463.87	68.404	5,463.87	72.225	5,463.87	63.1996	5,463.87	70.1116	5,463.87	66.0558	5,463.87	65.2598	5,463.87	66.3578	5,463.87	68.3409	5,463.87	63.1701	5,463.87	64.7466	5,463.87	63.0259	5,463.87	66.8563
5,657.23	88.7649	5,657.23	87.0595	5,657.23	89.0895	5,657.23	84.7007	5,657.23	85.9189	5,657.23	85.2863	5,657.23	86.1975	5,657.23	81.6275	5,657.23	82.5081	5,657.23	82.2165	5,657.23	84.1214	5,657.23	79.2728	5,657.23	74.601	5,657.23	79.8169	5,657.23	74.5094	5,657.23	75.2121	5,657.23	73.7641	5,657.23	72.1562	5,657.23	69.389	5,657.23	69.5985	5,657.23	60.4448	5,657.23	67.3665	5,657.23	67.4452	5,657.23	67.65	5,657.23	65.0138	5,657.23	70.9403	5,657.23	62.7311	5,657.23	68.4598	5,657.23	54.1758	5,657.23	67.9921	5,657.23	65.3242	5,657.23	65.1484	5,657.23	62.9363	5,657.23	63.2695	5,657.23	67.9188	5,657.23	60.1458
5,856.45	87.9967	5,856.45	87.1218	5,856.45	88.2164	5,856.45	86.5968	5,856.45	86.7819	5,856.45	83.908	5,856.45	84.5144	5,856.45	83.5259	5,856.45	82.6848	5,856.45	80.2283	5,856.45	81.8838	5,856.45	78.8719	5,856.45	77.6778	5,856.45	74.8318	5,856.45	75.2419	5,856.45	75.4456	5,856.45	77.2591	5,856.45	69.3885	5,856.45	65.7754	5,856.45	68.8315	5,856.45	58.0076	5,856.45	66.3482	5,856.45	66.7476	5,856.45	66.2741	5,856.45	61.3162	5,856.45	68.3265	5,856.45	65.6244	5,856.45	68.0503	5,856.45	56.5611	5,856.45	67.8355	5,856.45	53.1447	5,856.45	63.9894	5,856.45	63.3452	5,856.45	60.8782	5,856.45	66.0245	5,856.45	61.6365
6,062.99	88.4156	6,062.99	88.0625	6,062.99	88.6498	6,062.99	86.9595	6,062.99	86.9688	6,062.99	84.617	6,062.99	82.5784	6,062.99	82.7568	6,062.99	84.556	6,062.99	80.712	6,062.99	81.3976	6,062.99	77.4404	6,062.99	80.9573	6,062.99	76.8307	6,062.99	77.3476	6,062.99	75.1586	6,062.99	76.8361	6,062.99	71.5139	6,062.99	66.479	6,062.99	68.5279	6,062.99	69.9887	6,062.99	66.0619	6,062.99	58.7243	6,062.99	68.7048	6,062.99	62.9596	6,062.99	67.9927	6,062.99	65.691	6,062.99	66.1135	6,062.99	59.43	6,062.99	69.2795	6,062.99	59.8661	6,062.99	67.8278	6,062.99	65.6403	6,062.99	55.4826	6,062.99	61.234	6,062.99	67.8001
6,276.86	88.5108	6,276.86	88.4841	6,276.86	89.3654	6,276.86	86.8263	6,276.86	87.336	6,276.86	84.5762	6,276.86	80.597	6,276.86	83.1539	6,276.86	84.6846	6,276.86	80.2253	6,276.86	81.3736	6,276.86	79.6822	6,276.86	81.4057	6,276.86	77.1933	6,276.86	79.8614	6,276.86	73.4961	6,276.86	75.5789	6,276.86	71.5586	6,276.86	73.7802	6,276.86	64.4577	6,276.86	73.74	6,276.86	67.3869	6,276.86	68.2023	6,276.86	68.6672	6,276.86	71.059	6,276.86	67.2803	6,276.86	66.4591	6,276.86	67.2444	6,276.86	64.3251	6,276.86	66.594	6,276.86	61.0652	6,276.86	66.7757	6,276.86	65.5897	6,276.86	58.8345	6,276.86	56.3366	6,276.86	67.0987
6,498.05	89.1867	6,498.05	88.11	6,498.05	89.0465	6,498.05	86.5651	6,498.05	86.4952	6,498.05	85.4238	6,498.05	84.0051	6,498.05	83.2843	6,498.05	84.5484	6,498.05	82.0908	6,498.05	82.7333	6,498.05	79.8234	6,498.05	80.6977	6,498.05	77.0235	6,498.05	79.8885	6,498.05	76.3702	6,498.05	68.7243	6,498.05	71.591	6,498.05	71.7774	6,498.05	67.6203	6,498.05	73.1711	6,498.05	67.8932	6,498.05	72.4984	6,498.05	68.4765	6,498.05	72.3579	6,498.05	69.2048	6,498.05	67.5535	6,498.05	67.8243	6,498.05	63.063	6,498.05	66.1995	6,498.05	62.9792	6,498.05	67.1031	6,498.05	59.8023	6,498.05	56.9356	6,498.05	59.3896	6,498.05	66.6414
6,726.56	88.5814	6,726.56	87.8429	6,726.56	88.8204	6,726.56	86.8518	6,726.56	84.1099	6,726.56	85.5885	6,726.56	84.5285	6,726.56	83.8728	6,726.56	84.7204	6,726.56	82.2552	6,726.56	81.8378	6,726.56	79.2764	6,726.56	80.803	6,726.56	77.9847	6,726.56	75.9974	6,726.56	71.6115	6,726.56	71.2951	6,726.56	70.4913	6,726.56	57.999	6,726.56	65.8989	6,726.56	63.4227	6,726.56	65.6062	6,726.56	68.4021	6,726.56	66.0939	6,726.56	68.3898	6,726.56	66.9997	6,726.56	67.4179	6,726.56	67.9469	6,726.56	63.5464	6,726.56	64.1824	6,726.56	61.5988	6,726.56	65.1717	6,726.56	61.861	6,726.56	59.6272	6,726.56	60.3798	6,726.56	66.066
6,963.87	87.9625	6,963.87	87.5511	6,963.87	88.1233	6,963.87	87.4043	6,963.87	86.4323	6,963.87	85.4601	6,963.87	85.9793	6,963.87	84.9798	6,963.87	84.1898	6,963.87	81.7543	6,963.87	81.3002	6,963.87	79.6341	6,963.87	80.2536	6,963.87	75.405	6,963.87	69.1281	6,963.87	75.7979	6,963.87	72.7384	6,963.87	71.5063	6,963.87	63.9786	6,963.87	66.9932	6,963.87	56.2794	6,963.87	66.806	6,963.87	68.1835	6,963.87	65.9636	6,963.87	66.0959	6,963.87	66.636	6,963.87	66.1564	6,963.87	69.0919	6,963.87	63.4835	6,963.87	63.4219	6,963.87	54.5504	6,963.87	65.6047	6,963.87	67.1352	6,963.87	63.006	6,963.87	64.4334	6,963.87	66.0525
7,209.96	87.8148	7,209.96	87.917	7,209.96	88.1616	7,209.96	87.2696	7,209.96	88.1868	7,209.96	86.1189	7,209.96	86.2361	7,209.96	84.247	7,209.96	83.6028	7,209.96	80.8237	7,209.96	82.7792	7,209.96	78.5686	7,209.96	78.7918	7,209.96	77.0051	7,209.96	77.1532	7,209.96	71.8304	7,209.96	73.584	7,209.96	68.4936	7,209.96	70.2832	7,209.96	64.2646	7,209.96	65.9712	7,209.96	66.8745	7,209.96	71.7943	7,209.96	67.0909	7,209.96	72.6977	7,209.96	67.0392	7,209.96	63.1293	7,209.96	67.818	7,209.96	64.3789	7,209.96	66.1154	7,209.96	55.3621	7,209.96	58.0595	7,209.96	63.6074	7,209.96	60.3834	7,209.96	59.9333	7,209.96	62.9013
7,464.84	88.3151	7,464.84	87.9399	7,464.84	88.5829	7,464.84	86.8498	7,464.84	88.8578	7,464.84	86.039	7,464.84	86.0125	7,464.84	83.8023	7,464.84	82.223	7,464.84	80.5861	7,464.84	83.47	7,464.84	78.2165	7,464.84	74.7962	7,464.84	75.4195	7,464.84	79.0672	7,464.84	73.0618	7,464.84	73.8681	7,464.84	72.0106	7,464.84	64.2956	7,464.84	66.5834	7,464.84	67.2666	7,464.84	67.2629	7,464.84	74.2445	7,464.84	66.1386	7,464.84	71.1368	7,464.84	67.3274	7,464.84	68.0872	7,464.84	67.1354	7,464.84	64.1638	7,464.84	66.3118	7,464.84	61.5044	7,464.84	61.4989	7,464.84	60.2174	7,464.84	59.654	7,464.84	54.1702	7,464.84	62.3611
7,727.05	88.4318	7,727.05	87.8623	7,727.05	88.7205	7,727.05	87.8902	7,727.05	87.394	7,727.05	85.1328	7,727.05	85.0561	7,727.05	83.4878	7,727.05	80.3979	7,727.05	79.7944	7,727.05	82.844	7,727.05	77.3935	7,727.05	77.8139	7,727.05	75.4356	7,727.05	78.5028	7,727.05	71.9431	7,727.05	72.0019	7,727.05	65.2249	7,727.05	49.0208	7,727.05	66.4031	7,727.05	62.8649	7,727.05	64.8931	7,727.05	72.8659	7,727.05	65.9347	7,727.05	70.1084	7,727.05	67.343	7,727.05	67.2669	7,727.05	67.2176	7,727.05	61.3959	7,727.05	66.3717	7,727.05	61.9151	7,727.05	56.3207	7,727.05	60.6933	7,727.05	64.196	7,727.05	55.3864	7,727.05	61.2065
7,999.51	87.9283	7,999.51	87.3279	7,999.51	88.7611	7,999.51	87.0127	7,999.51	85.2128	7,999.51	84.8217	7,999.51	84.0081	7,999.51	82.4628	7,999.51	81.1428	7,999.51	79.9203	7,999.51	80.1354	7,999.51	77.0344	7,999.51	79.1195	7,999.51	72.95	7,999.51	73.4931	7,999.51	73.0247	7,999.51	70.8409	7,999.51	68.7235	7,999.51	68.0703	7,999.51	65.7286	7,999.51	65.2827	7,999.51	61.0909	7,999.51	72.1834	7,999.51	62.2864	7,999.51	68.588	7,999.51	68.8432	7,999.51	64.8887	7,999.51	65.7724	7,999.51	58.0746	7,999.51	65.811	7,999.51	61.007	7,999.51	54.3438	7,999.51	56.3489	7,999.51	63.7507	7,999.51	53.651	7,999.51	63.6684
8,282.23	87.7401	8,282.23	87.6153	8,282.23	88.3585	8,282.23	86.4276	8,282.23	84.8323	8,282.23	84.5023	8,282.23	84.4565	8,282.23	81.472	8,282.23	82.1018	8,282.23	79.3314	8,282.23	78.4781	8,282.23	75.8908	8,282.23	78.6941	8,282.23	74.2397	8,282.23	68.3603	8,282.23	69.7798	8,282.23	72.5235	8,282.23	68.7137	8,282.23	66.5349	8,282.23	55.6659	8,282.23	63.6089	8,282.23	60.5928	8,282.23	71.9789	8,282.23	62.9439	8,282.23	69.567	8,282.23	62.6529	8,282.23	63.497	8,282.23	64.1579	8,282.23	50.4505	8,282.23	63.5078	8,282.23	60.3041	8,282.23	60.2887	8,282.23	60.6727	8,282.23	63.0897	8,282.23	57.7749	8,282.23	59.8752
8,573.73	87.7226	8,573.73	87.3196	8,573.73	87.801	8,573.73	86.6646	8,573.73	85.1573	8,573.73	84.5259	8,573.73	84.6484	8,573.73	82.0393	8,573.73	81.2705	8,573.73	77.5928	8,573.73	78.3961	8,573.73	77.4242	8,573.73	75.7309	8,573.73	71.1798	8,573.73	75.828	8,573.73	71.9947	8,573.73	72.41	8,573.73	68.6096	8,573.73	67.9684	8,573.73	57.7436	8,573.73	70.9153	8,573.73	60.4285	8,573.73	74.4882	8,573.73	61.5728	8,573.73	72.8226	8,573.73	64.7441	8,573.73	66.8702	8,573.73	63.7865	8,573.73	62.5738	8,573.73	59.8296	8,573.73	45.5777	8,573.73	61.9927	8,573.73	62.452	8,573.73	63.0406	8,573.73	55.9058	8,573.73	62.8911
8,876.95	87.1257	8,876.95	86.3463	8,876.95	85.9126	8,876.95	85.7058	8,876.95	86.2609	8,876.95	83.6855	8,876.95	84.3801	8,876.95	81.8414	8,876.95	81.3713	8,876.95	78.5321	8,876.95	79.0349	8,876.95	75.8576	8,876.95	75.9079	8,876.95	74.3515	8,876.95	76.7976	8,876.95	66.1961	8,876.95	71.2273	8,876.95	68.905	8,876.95	68.9813	8,876.95	60.2967	8,876.95	72.7523	8,876.95	61.6964	8,876.95	75.3141	8,876.95	62.3414	8,876.95	72.9495	8,876.95	64.0455	8,876.95	67.596	8,876.95	64.5475	8,876.95	49.7592	8,876.95	58.7033	8,876.95	58.7827	8,876.95	62.9357	8,876.95	61.6047	8,876.95	64.8368	8,876.95	54.9137	8,876.95	60.887
9,188.96	85.8568	9,188.96	86.5137	9,188.96	87.1855	9,188.96	85.8166	9,188.96	86.5405	9,188.96	84.2226	9,188.96	83.769	9,188.96	82.089	9,188.96	82.429	9,188.96	78.2361	9,188.96	79.2958	9,188.96	77.2733	9,188.96	77.2307	9,188.96	72.8124	9,188.96	75.9737	9,188.96	71.1501	9,188.96	74.6328	9,188.96	66.3339	9,188.96	69.3113	9,188.96	61.1357	9,188.96	73.2662	9,188.96	59.556	9,188.96	75.8763	9,188.96	63.1318	9,188.96	73.7171	9,188.96	63.501	9,188.96	68.2972	9,188.96	64.4283	9,188.96	57.3353	9,188.96	59.6676	9,188.96	60.328	9,188.96	58.4212	9,188.96	62.4851	9,188.96	63.5314	9,188.96	49.9435	9,188.96	62.8259
9,514.16	86.1874	9,514.16	86.1618	9,514.16	88.8703	9,514.16	85.5934	9,514.16	85.5284	9,514.16	84.7107	9,514.16	84.9694	9,514.16	82.7033	9,514.16	81.3819	9,514.16	78.9541	9,514.16	79.0017	9,514.16	77.8021	9,514.16	78.5344	9,514.16	72.8277	9,514.16	75.33	9,514.16	70.7045	9,514.16	74.0224	9,514.16	68.1996	9,514.16	68.6491	9,514.16	62.3869	9,514.16	72.1693	9,514.16	47.6759	9,514.16	76.1966	9,514.16	60.479	9,514.16	74.5471	9,514.16	64.1732	9,514.16	63.8698	9,514.16	62.8114	9,514.16	61.908	9,514.16	61.1473	9,514.16	60.3848	9,514.16	57.3918	9,514.16	62.033	9,514.16	64.6	9,514.16	46.5423	9,514.16	57.1607
9,849.61	86.2058	9,849.61	86.0727	9,849.61	87.9144	9,849.61	86.2467	9,849.61	85.6718	9,849.61	84.7911	9,849.61	85.6342	9,849.61	83.1768	9,849.61	81.5118	9,849.61	79.2998	9,849.61	80.2254	9,849.61	77.483	9,849.61	78.5173	9,849.61	72.8386	9,849.61	75.2943	9,849.61	68.5724	9,849.61	72.935	9,849.61	64.0946	9,849.61	72.1772	9,849.61	59.0648	9,849.61	73.4806	9,849.61	52.5598	9,849.61	76.8751	9,849.61	52.6115	9,849.61	75.611	9,849.61	63.6039	9,849.61	66.8213	9,849.61	62.1743	9,849.61	59.2535	9,849.61	60.8281	9,849.61	56.2695	9,849.61	49.226	9,849.61	51.5544	9,849.61	59.6126	9,849.61	48.9392	9,849.61	59.7248
10,196.8	84.8592	10,196.8	87.0072	10,196.8	85.9438	10,196.8	86.8214	10,196.8	86.0836	10,196.8	84.7754	10,196.8	85.6921	10,196.8	82.6879	10,196.8	84.1129	10,196.8	78.5335	10,196.8	81.0146	10,196.8	76.8057	10,196.8	76.9772	10,196.8	71.752	10,196.8	75.2071	10,196.8	69.3471	10,196.8	73.8717	10,196.8	64.9743	10,196.8	73.2641	10,196.8	49.6164	10,196.8	75.3536	10,196.8	52.8448	10,196.8	77.4541	10,196.8	58.1853	10,196.8	75.5524	10,196.8	61.881	10,196.8	67.4514	10,196.8	61.2576	10,196.8	59.6515	10,196.8	58.3311	10,196.8	57.923	10,196.8	57.1413	10,196.8	55.2969	10,196.8	59.3147	10,196.8	46.6424	10,196.8	58.4555
10,555.7	85.8089	10,555.7	86.9496	10,555.7	85.5259	10,555.7	86.8204	10,555.7	86.5255	10,555.7	84.0504	10,555.7	83.902	10,555.7	82.0109	10,555.7	84.2367	10,555.7	79.0556	10,555.7	80.1562	10,555.7	75.441	10,555.7	75.9993	10,555.7	71.4092	10,555.7	77.3671	10,555.7	66.6438	10,555.7	73.2802	10,555.7	67.0239	10,555.7	74.1498	10,555.7	58.0423	10,555.7	75.163	10,555.7	54.0917	10,555.7	77.6404	10,555.7	60.9776	10,555.7	75.7464	10,555.7	62.7396	10,555.7	67.6659	10,555.7	58.8957	10,555.7	58.3953	10,555.7	52.3541	10,555.7	58.8813	10,555.7	60.427	10,555.7	60.6285	10,555.7	56.752	10,555.7	54.0237	10,555.7	54.1951
10,927.7	87.0815	10,927.7	87.023	10,927.7	85.8896	10,927.7	87.4286	10,927.7	85.971	10,927.7	84.2428	10,927.7	83.9176	10,927.7	82.1013	10,927.7	82.5454	10,927.7	78.4154	10,927.7	80.053	10,927.7	73.6816	10,927.7	75.9542	10,927.7	70.2884	10,927.7	76.4579	10,927.7	66.6608	10,927.7	71.462	10,927.7	62.8312	10,927.7	74.2684	10,927.7	57.0899	10,927.7	75.7755	10,927.7	50.771	10,927.7	77.9998	10,927.7	60.5363	10,927.7	76.0681	10,927.7	61.0164	10,927.7	68.1809	10,927.7	55.7672	10,927.7	60.1988	10,927.7	56.7133	10,927.7	56.7395	10,927.7	53.7872	10,927.7	61.485	10,927.7	59.5693	10,927.7	54.8031	10,927.7	52.6771
11,313	86.0803	11,313	86.5528	11,313	86.3012	11,313	87.0596	11,313	85.0699	11,313	83.9013	11,313	85.3408	11,313	81.203	11,313	81.3934	11,313	76.9423	11,313	79.7112	11,313	73.4324	11,313	74.7257	11,313	69.6175	11,313	71.0185	11,313	67.8492	11,313	73.3185	11,313	61.522	11,313	74.7823	11,313	54.9002	11,313	76.2689	11,313	50.9408	11,313	78.7239	11,313	60.8481	11,313	76.4446	11,313	61.7728	11,313	68.4874	11,313	56.9705	11,313	53.7516	11,313	54.347	11,313	56.4154	11,313	54.4665	11,313	58.4288	11,313	58.4232	11,313	54.3108	11,313	53.1445
11,712.9	85.271	11,712.9	86.5492	11,712.9	85.2882	11,712.9	87.0092	11,712.9	85.4187	11,712.9	84.1858	11,712.9	85.2367	11,712.9	80.6782	11,712.9	81.5769	11,712.9	76.9294	11,712.9	79.1922	11,712.9	74.6617	11,712.9	74.5528	11,712.9	70.1826	11,712.9	73.3219	11,712.9	67.5371	11,712.9	72.2821	11,712.9	64.3276	11,712.9	74.4997	11,712.9	52.6222	11,712.9	76.8648	11,712.9	52.9968	11,712.9	78.6082	11,712.9	57.8885	11,712.9	76.7025	11,712.9	60.4203	11,712.9	67.3808	11,712.9	58.7333	11,712.9	54.0875	11,712.9	57.2033	11,712.9	48.796	11,712.9	36.6454	11,712.9	50.6581	11,712.9	53.1699	11,712.9	49.8204	11,712.9	51.2001
12,126	85.5246	12,126	86.9166	12,126	84.1073	12,126	86.7058	12,126	85.0766	12,126	83.5249	12,126	84.1875	12,126	80.5695	12,126	81.7215	12,126	77.4086	12,126	79.6567	12,126	75.5605	12,126	72.1116	12,126	68.948	12,126	73.6557	12,126	67.6233	12,126	70.2955	12,126	64.4968	12,126	75.9166	12,126	55.4608	12,126	78.189	12,126	48.3978	12,126	79.5113	12,126	60.0387	12,126	77.355	12,126	60.7499	12,126	69.3675	12,126	57.5864	12,126	44.2815	12,126	56.2484	12,126	53.23	12,126	44.8175	12,126	56.0127	12,126	55.565	12,126	49.6962	12,126	52.8353
12,553.7	85.5825	12,553.7	86.5441	12,553.7	84.4747	12,553.7	86.5217	12,553.7	84.5003	12,553.7	83.4632	12,553.7	83.8676	12,553.7	80.0134	12,553.7	81.619	12,553.7	77.3406	12,553.7	78.766	12,553.7	74.8588	12,553.7	72.2045	12,553.7	68.949	12,553.7	71.1616	12,553.7	65.1237	12,553.7	73.3975	12,553.7	61.3959	12,553.7	76.1192	12,553.7	51.1028	12,553.7	78.3444	12,553.7	46.6146	12,553.7	79.5367	12,553.7	56.2715	12,553.7	77.348	12,553.7	58.8473	12,553.7	67.602	12,553.7	56.2732	12,553.7	51.1145	12,553.7	56.4828	12,553.7	53.6496	12,553.7	48.5849	12,553.7	55.1503	12,553.7	55.1492	12,553.7	45.7378	12,553.7	48.7614
12,996.1	85.9941	12,996.1	86.5208	12,996.1	85.8269	12,996.1	85.9022	12,996.1	84.3095	12,996.1	83.4282	12,996.1	85.0739	12,996.1	80.033	12,996.1	81.7153	12,996.1	76.6791	12,996.1	76.8979	12,996.1	73.5563	12,996.1	73.8228	12,996.1	65.9956	12,996.1	69.8507	12,996.1	62.4823	12,996.1	73.0691	12,996.1	59.4291	12,996.1	76.0931	12,996.1	48.1287	12,996.1	79.0201	12,996.1	48.0013	12,996.1	79.6658	12,996.1	54.3754	12,996.1	78.0838	12,996.1	59.8929	12,996.1	65.1483	12,996.1	56.7761	12,996.1	54.5839	12,996.1	54.402	12,996.1	43.2029	12,996.1	35.0039	12,996.1	45.6023	12,996.1	53.9794	12,996.1	45.8633	12,996.1	51.1733
13,454.6	86.628	13,454.6	87.1506	13,454.6	85.6515	13,454.6	85.5791	13,454.6	84.4945	13,454.6	82.9529	13,454.6	85.7078	13,454.6	80.2776	13,454.6	81.5023	13,454.6	75.179	13,454.6	77.444	13,454.6	72.211	13,454.6	71.345	13,454.6	63.8119	13,454.6	71.5411	13,454.6	61.569	13,454.6	72.3731	13,454.6	58.358	13,454.6	76.8857	13,454.6	55.3864	13,454.6	80.0846	13,454.6	50.5012	13,454.6	80.4333	13,454.6	53.773	13,454.6	78.643	13,454.6	58.1104	13,454.6	67.3105	13,454.6	53.6132	13,454.6	55.3119	13,454.6	55.6175	13,454.6	45.6681	13,454.6	44.9293	13,454.6	56.424	13,454.6	44.4394	13,454.6	36.2667	13,454.6	34.2959
13,929.2	86.8502	13,929.2	86.424	13,929.2	85.4867	13,929.2	85.7927	13,929.2	84.7611	13,929.2	83.1087	13,929.2	84.3992	13,929.2	80.1186	13,929.2	81.2929	13,929.2	74.4114	13,929.2	76.4203	13,929.2	69.7743	13,929.2	70.7897	13,929.2	65.1981	13,929.2	72.693	13,929.2	61.6663	13,929.2	73.1279	13,929.2	59.9413	13,929.2	77.031	13,929.2	56.1504	13,929.2	80.4543	13,929.2	54.0925	13,929.2	80.5438	13,929.2	59.9898	13,929.2	78.9027	13,929.2	59.6004	13,929.2	67.2893	13,929.2	55.0295	13,929.2	56.4274	13,929.2	55.047	13,929.2	47.6218	13,929.2	47.8798	13,929.2	40.5632	13,929.2	44.6734	13,929.2	41.0899	13,929.2	46.2495
14,419.9	87.623	14,419.9	87.2137	14,419.9	86.8558	14,419.9	85.4843	14,419.9	85.1673	14,419.9	83.4067	14,419.9	84.3607	14,419.9	79.7699	14,419.9	81.0651	14,419.9	72.7061	14,419.9	76.4734	14,419.9	68.3235	14,419.9	70.885	14,419.9	65.8584	14,419.9	67.6688	14,419.9	62.24	14,419.9	72.5283	14,419.9	59.4976	14,419.9	77.4217	14,419.9	56.5326	14,419.9	81.1553	14,419.9	52.0643	14,419.9	81.3853	14,419.9	59.5661	14,419.9	79.5641	14,419.9	59.786	14,419.9	68.0564	14,419.9	57.8006	14,419.9	55.6653	14,419.9	55.0506	14,419.9	50.1547	14,419.9	50.9538	14,419.9	52.4817	14,419.9	56.1707	14,419.9	52.0368	14,419.9	52.4456
14,928.2	86.9786	14,928.2	86.3709	14,928.2	87.3297	14,928.2	85.6928	14,928.2	84.4382	14,928.2	83.3083	14,928.2	84.6099	14,928.2	79.6591	14,928.2	80.0699	14,928.2	72.5968	14,928.2	75.7664	14,928.2	70.0397	14,928.2	69.9453	14,928.2	67.5485	14,928.2	71.1486	14,928.2	65.8243	14,928.2	71.8442	14,928.2	62.2399	14,928.2	78.2327	14,928.2	58.9195	14,928.2	81.7965	14,928.2	41.607	14,928.2	81.7471	14,928.2	59.1179	14,928.2	80.0786	14,928.2	63.0069	14,928.2	67.5106	14,928.2	59.2363	14,928.2	58.4659	14,928.2	56.9822	14,928.2	43.3753	14,928.2	49.4525	14,928.2	35.3485	14,928.2	52.8838	14,928.2	40.769	14,928.2	48.7929
15,455.6	88.1527	15,455.6	86.1475	15,455.6	87.4528	15,455.6	85.0306	15,455.6	84.6621	15,455.6	83.5054	15,455.6	83.7565	15,455.6	78.7864	15,455.6	80.5359	15,455.6	75.1822	15,455.6	77.5612	15,455.6	73.6361	15,455.6	72.4339	15,455.6	69.2056	15,455.6	71.4158	15,455.6	68.4411	15,455.6	72.7448	15,455.6	62.8565	15,455.6	78.3947	15,455.6	60.9108	15,455.6	82.1404	15,455.6	44.5453	15,455.6	81.8769	15,455.6	55.3431	15,455.6	80.1076	15,455.6	61.8949	15,455.6	69.2815	15,455.6	59.138	15,455.6	56.8673	15,455.6	59.4062	15,455.6	39.5546	15,455.6	52.7593	15,455.6	47.2799	15,455.6	55.3694	15,455.6	53.6191	15,455.6	51.0742
16,000.5	86.7898	16,000.5	85.7744	16,000.5	87.2091	16,000.5	84.9039	16,000.5	84.8252	16,000.5	83.2289	16,000.5	83.6958	16,000.5	78.3174	16,000.5	81.1543	16,000.5	76.8965	16,000.5	78.3438	16,000.5	75.3629	16,000.5	73.2551	16,000.5	70.7446	16,000.5	70.4832	16,000.5	68.4673	16,000.5	72.8378	16,000.5	62.9588	16,000.5	78.6444	16,000.5	59.692	16,000.5	82.2258	16,000.5	48.312	16,000.5	82.1802	16,000.5	58.5912	16,000.5	80.1569	16,000.5	63.1959	16,000.5	69.165	16,000.5	60.5959	16,000.5	60.1501	16,000.5	60.4922	16,000.5	26.5577	16,000.5	49.8403	16,000.5	46.1718	16,000.5	54.8268	16,000.5	53.2426	16,000.5	52.1853
16,564.5	87.9706	16,564.5	85.5027	16,564.5	87.6594	16,564.5	84.6675	16,564.5	83.6598	16,564.5	82.3452	16,564.5	84.2097	16,564.5	78.7661	16,564.5	81.2714	16,564.5	77.6548	16,564.5	78.2674	16,564.5	75.0686	16,564.5	72.9105	16,564.5	71.6082	16,564.5	70.5288	16,564.5	66.5933	16,564.5	70.7469	16,564.5	61.8181	16,564.5	78.47	16,564.5	58.8419	16,564.5	82.3254	16,564.5	38.5896	16,564.5	82.0902	16,564.5	58.1696	16,564.5	80.2469	16,564.5	62.671	16,564.5	69.1711	16,564.5	59.315	16,564.5	53.812	16,564.5	58.6624	16,564.5	49.0278	16,564.5	52.8026	16,564.5	52.8061	16,564.5	57.0092	16,564.5	58.8795	16,564.5	54.3682
17,148.9	87.2996	17,148.9	85.784	17,148.9	88.3952	17,148.9	84.5253	17,148.9	84.542	17,148.9	81.3579	17,148.9	82.5615	17,148.9	79.4758	17,148.9	81.8353	17,148.9	77.7448	17,148.9	78.4451	17,148.9	74.9834	17,148.9	74.4435	17,148.9	69.6532	17,148.9	69.4804	17,148.9	66.8095	17,148.9	71.49	17,148.9	58.9937	17,148.9	78.8212	17,148.9	59.7266	17,148.9	82.4369	17,148.9	36.5224	17,148.9	82.2023	17,148.9	54.8082	17,148.9	80.3339	17,148.9	61.4109	17,148.9	69.3216	17,148.9	56.8619	17,148.9	60.2515	17,148.9	59.5308	17,148.9	45.1587	17,148.9	56.8535	17,148.9	56.2561	17,148.9	59.1798	17,148.9	57.1973	17,148.9	55.6411
17,752.4	88.0282	17,752.4	85.9657	17,752.4	88.6449	17,752.4	84.0137	17,752.4	84.7509	17,752.4	80.5468	17,752.4	80.52	17,752.4	80.4398	17,752.4	80.5259	17,752.4	79.0588	17,752.4	79.6677	17,752.4	74.9583	17,752.4	74.9472	17,752.4	67.6412	17,752.4	69.0626	17,752.4	66.2696	17,752.4	71.4832	17,752.4	60.9352	17,752.4	79.2692	17,752.4	53.8559	17,752.4	82.5161	17,752.4	48.4203	17,752.4	82.4613	17,752.4	55.8744	17,752.4	80.46	17,752.4	61.5177	17,752.4	69.2456	17,752.4	57.7803	17,752.4	58.2507	17,752.4	58.6903	17,752.4	49.1217	17,752.4	50.6772	17,752.4	55.3213	17,752.4	55.7899	17,752.4	53.1729	17,752.4	52.8688
18,379.4	87.4814	18,379.4	85.9086	18,379.4	88.5979	18,379.4	83.3432	18,379.4	83.6559	18,379.4	81.6116	18,379.4	83.2811	18,379.4	81.6079	18,379.4	81.0755	18,379.4	79.4816	18,379.4	79.6159	18,379.4	75.4609	18,379.4	74.0826	18,379.4	68.7918	18,379.4	70.9059	18,379.4	65.4505	18,379.4	70.893	18,379.4	59.6771	18,379.4	79.5497	18,379.4	54.2635	18,379.4	82.7785	18,379.4	52.6866	18,379.4	82.6131	18,379.4	57.8981	18,379.4	80.5856	18,379.4	61.9088	18,379.4	70.0014	18,379.4	57.0842	18,379.4	56.8795	18,379.4	58.9294	18,379.4	43.3078	18,379.4	54.2074	18,379.4	50.066	18,379.4	54.6482	18,379.4	47.1255	18,379.4	53.6972
19,026.9	87.3098	19,026.9	86.1515	19,026.9	87.8044	19,026.9	84.4713	19,026.9	83.8472	19,026.9	82.859	19,026.9	82.0734	19,026.9	82.6501	19,026.9	81.7305	19,026.9	80.0092	19,026.9	79.9485	19,026.9	74.9021	19,026.9	73.6545	19,026.9	67.3212	19,026.9	70.3619	19,026.9	62.1472	19,026.9	71.0795	19,026.9	57.3524	19,026.9	79.3376	19,026.9	53.6817	19,026.9	82.3987	19,026.9	45.6367	19,026.9	82.3185	19,026.9	55.1786	19,026.9	80.0071	19,026.9	60.0171	19,026.9	69.1916	19,026.9	54.6885	19,026.9	53.8048	19,026.9	55.8713	19,026.9	36.5025	19,026.9	54.8169	19,026.9	51.5046	19,026.9	51.6183	19,026.9	51.2699	19,026.9	45.9832
19,697.8	86.9558	19,697.8	85.8343	19,697.8	86.2092	19,697.8	84.4314	19,697.8	82.3011	19,697.8	83.9185	19,697.8	81.6608	19,697.8	82.9155	19,697.8	80.9785	19,697.8	79.0491	19,697.8	78.8476	19,697.8	73.3767	19,697.8	72.4305	19,697.8	64.4952	19,697.8	68.1476	19,697.8	58.7777	19,697.8	68.9988	19,697.8	56.103	19,697.8	78.201	19,697.8	53.3685	19,697.8	81.7051	19,697.8	42.2014	19,697.8	81.5477	19,697.8	54.4768	19,697.8	79.47	19,697.8	57.1873	19,697.8	67.9878	19,697.8	50.3678	19,697.8	53.8767	19,697.8	52.3101	19,697.8	41.2569	19,697.8	55.6965	19,697.8	48.549	19,697.8	43.5693	19,697.8	50.0642	19,697.8	40.82
19,999.5	86.9055	19,999.5	85.801	19,999.5	86.5231	19,999.5	84.1239	19,999.5	82.0443	19,999.5	84.6681	19,999.5	83.0241	19,999.5	82.6547	19,999.5	80.537	19,999.5	78.6665	19,999.5	78.5044	19,999.5	72.8466	19,999.5	71.7504	19,999.5	63.456	19,999.5	64.5605	19,999.5	58.72	19,999.5	69.5608	19,999.5	54.8371	19,999.5	76.7722	19,999.5	55.0935	19,999.5	81.2828	19,999.5	53.6174	19,999.5	80.7537	19,999.5	54.572	19,999.5	78.7892	19,999.5	61.4312	19,999.5	66.924	19,999.5	52.1974	19,999.5	52.4335	19,999.5	46.1655	19,999.5	52.1318	19,999.5	58.4509	19,999.5	49.3474	19,999.5	56.7462	19,999.5	58.1832	19,999.5	50.3563
