"SPL Vertical"
"On-Axis"		"10°"		"-10°"		"20°"		"-20°"		"30°"		"-30°"		"40°"		"-40°"		"50°"		"-50°"		"60°"		"-60°"		"70°"		"-70°"		"80°"		"-80°"		"90°"		"-90°"		"100°"		"-100°"		"110°"		"-110°"		"120°"		"-120°"		"130°"		"-130°"		"140°"		"-140°"		"150°"		"-150°"		"160°"		"-160°"		"170°"		"-170°"		"180°"
"Frequency [Hz]"	"Sound Pessure Level [dB]  / [2.83V 1m] "	"Frequency [Hz]"	"Sound Pessure Level [dB]  / [2.83V 1m] "	"Frequency [Hz]"	"Sound Pessure Level [dB]  / [2.83V 1m] "	"Frequency [Hz]"	"Sound Pessure Level [dB]  / [2.83V 1m] "	"Frequency [Hz]"	"Sound Pessure Level [dB]  / [2.83V 1m] "	"Frequency [Hz]"	"Sound Pessure Level [dB]  / [2.83V 1m] "	"Frequency [Hz]"	"Sound Pessure Level [dB]  / [2.83V 1m] "	"Frequency [Hz]"	"Sound Pessure Level [dB]  / [2.83V 1m] "	"Frequency [Hz]"	"Sound Pessure Level [dB]  / [2.83V 1m] "	"Frequency [Hz]"	"Sound Pessure Level [dB]  / [2.83V 1m] "	"Frequency [Hz]"	"Sound Pessure Level [dB]  / [2.83V 1m] "	"Frequency [Hz]"	"Sound Pessure Level [dB]  / [2.83V 1m] "	"Frequency [Hz]"	"Sound Pessure Level [dB]  / [2.83V 1m] "	"Frequency [Hz]"	"Sound Pessure Level [dB]  / [2.83V 1m] "	"Frequency [Hz]"	"Sound Pessure Level [dB]  / [2.83V 1m] "	"Frequency [Hz]"	"Sound Pessure Level [dB]  / [2.83V 1m] "	"Frequency [Hz]"	"Sound Pessure Level [dB]  / [2.83V 1m] "	"Frequency [Hz]"	"Sound Pessure Level [dB]  / [2.83V 1m] "	"Frequency [Hz]"	"Sound Pessure Level [dB]  / [2.83V 1m] "	"Frequency [Hz]"	"Sound Pessure Level [dB]  / [2.83V 1m] "	"Frequency [Hz]"	"Sound Pessure Level [dB]  / [2.83V 1m] "	"Frequency [Hz]"	"Sound Pessure Level [dB]  / [2.83V 1m] "	"Frequency [Hz]"	"Sound Pessure Level [dB]  / [2.83V 1m] "	"Frequency [Hz]"	"Sound Pessure Level [dB]  / [2.83V 1m] "	"Frequency [Hz]"	"Sound Pessure Level [dB]  / [2.83V 1m] "	"Frequency [Hz]"	"Sound Pessure Level [dB]  / [2.83V 1m] "	"Frequency [Hz]"	"Sound Pessure Level [dB]  / [2.83V 1m] "	"Frequency [Hz]"	"Sound Pessure Level [dB]  / [2.83V 1m] "	"Frequency [Hz]"	"Sound Pessure Level [dB]  / [2.83V 1m] "	"Frequency [Hz]"	"Sound Pessure Level [dB]  / [2.83V 1m] "	"Frequency [Hz]"	"Sound Pessure Level [dB]  / [2.83V 1m] "	"Frequency [Hz]"	"Sound Pessure Level [dB]  / [2.83V 1m] "	"Frequency [Hz]"	"Sound Pessure Level [dB]  / [2.83V 1m] "	"Frequency [Hz]"	"Sound Pessure Level [dB]  / [2.83V 1m] "	"Frequency [Hz]"	"Sound Pessure Level [dB]  / [2.83V 1m] "	"Frequency [Hz]"	"Sound Pessure Level [dB]  / [2.83V 1m] "
20.5078	46.7962	20.5078	46.5285	20.5078	47.0053	20.5078	46.1928	20.5078	47.1704	20.5078	45.7896	20.5078	47.3068	20.5078	45.3352	20.5078	47.4283	20.5078	44.8662	20.5078	47.5459	20.5078	44.4414	20.5078	47.6689	20.5078	44.1385	20.5078	47.8055	20.5078	44.0386	20.5078	47.9628	20.5078	44.1992	20.5078	48.1463	20.5078	44.6285	20.5078	48.3586	20.5078	45.2797	20.5078	48.5985	20.5078	46.0704	20.5078	48.8594	20.5078	46.9099	20.5078	49.1286	20.5078	47.7181	20.5078	49.3857	20.5078	48.4333	20.5078	49.6032	20.5078	49.0132	20.5078	49.7482	20.5078	49.434	20.5078	49.7868	20.5078	49.6891
21.9727	54.6215	21.9727	54.601	21.9727	54.6442	21.9727	54.5806	21.9727	54.6713	21.9727	54.5593	21.9727	54.7046	21.9727	54.5378	21.9727	54.7449	21.9727	54.5177	21.9727	54.792	21.9727	54.5019	21.9727	54.8449	21.9727	54.4934	21.9727	54.9028	21.9727	54.4956	21.9727	54.9652	21.9727	54.5126	21.9727	55.032	21.9727	54.5492	21.9727	55.1033	21.9727	54.6103	21.9727	55.179	21.9727	54.6998	21.9727	55.2576	21.9727	54.8178	21.9727	55.3362	21.9727	54.9584	21.9727	55.409	21.9727	55.1095	21.9727	55.4677	21.9727	55.2543	21.9727	55.5021	21.9727	55.3756	21.9727	55.502	21.9727	55.4603
23.4375	49.1867	23.4375	49.1815	23.4375	49.2516	23.4375	49.2348	23.4375	49.3769	23.4375	49.3447	23.4375	49.5617	23.4375	49.5095	23.4375	49.8029	23.4375	49.7267	23.4375	50.0956	23.4375	49.9925	23.4375	50.4329	23.4375	50.3015	23.4375	50.8061	23.4375	50.6466	23.4375	51.2052	23.4375	51.0198	23.4375	51.6185	23.4375	51.4119	23.4375	52.033	23.4375	51.8126	23.4375	52.4348	23.4375	52.2107	23.4375	52.8094	23.4375	52.5933	23.4375	53.1427	23.4375	52.9467	23.4375	53.4214	23.4375	53.2568	23.4375	53.6342	23.4375	53.51	23.4375	53.7721	23.4375	53.695	23.4375	53.8293	23.4375	53.8031
24.9023	47.2734	24.9023	47.611	24.9023	46.9987	24.9023	47.9963	24.9023	46.8016	24.9023	48.415	24.9023	46.6967	24.9023	48.8534	24.9023	46.6971	24.9023	49.3005	24.9023	46.8127	24.9023	49.7473	24.9023	47.0461	24.9023	50.187	24.9023	47.3903	24.9023	50.6134	24.9023	47.8287	24.9023	51.0205	24.9023	48.338	24.9023	51.4015	24.9023	48.8918	24.9023	51.7483	24.9023	49.4644	24.9023	52.0517	24.9023	50.033	24.9023	52.3018	24.9023	50.5777	24.9023	52.4889	24.9023	51.0819	24.9023	52.6036	24.9023	51.5317	24.9023	52.6382	24.9023	51.9155	24.9023	52.5875	24.9023	52.2235	24.9023	52.4489
26.3672	40.019	26.3672	39.6852	26.3672	40.4086	26.3672	39.5205	26.3672	40.806	26.3672	39.6792	26.3672	41.2108	26.3672	40.2618	26.3672	41.6447	26.3672	41.2224	26.3672	42.1312	26.3672	42.4014	26.3672	42.6824	26.3672	43.6337	26.3672	43.2945	26.3672	44.8073	26.3672	43.9514	26.3672	45.8629	26.3672	44.6311	26.3672	46.7746	26.3672	45.3117	26.3672	47.5345	26.3672	45.9745	26.3672	48.1439	26.3672	46.6044	26.3672	48.6091	26.3672	47.1891	26.3672	48.9389	26.3672	47.7179	26.3672	49.1431	26.3672	48.1809	26.3672	49.2311	26.3672	48.5692	26.3672	49.2114	26.3672	48.8746	26.3672	49.0906
27.832	39.2028	27.832	39.8082	27.832	38.6915	27.832	40.5962	27.832	38.1767	27.832	41.5964	27.832	37.5871	27.832	42.7611	27.832	36.8949	27.832	43.9962	27.832	36.1357	27.832	45.2083	27.832	35.4528	27.832	46.329	27.832	35.1392	27.832	47.3167	27.832	35.5234	27.832	48.1482	27.832	36.6468	27.832	48.8119	27.832	38.2089	27.832	49.3022	27.832	39.8824	27.832	49.6173	27.832	41.4844	27.832	49.7581	27.832	42.9452	27.832	49.7283	27.832	44.25	27.832	49.5343	27.832	45.4046	27.832	49.1851	27.832	46.4197	27.832	48.6911	27.832	47.3042	27.832	48.0619
29.2969	40.3874	29.2969	41.9036	29.2969	39.0717	29.2969	43.505	29.2969	38.0787	29.2969	45.099	29.2969	37.5234	29.2969	46.6211	29.2969	37.5013	29.2969	48.0315	29.2969	38.0499	29.2969	49.3076	29.2969	39.0964	29.2969	50.4373	29.2969	40.4718	29.2969	51.4144	29.2969	41.9926	29.2969	52.2355	29.2969	43.5234	29.2969	52.8983	29.2969	44.9855	29.2969	53.4015	29.2969	46.3414	29.2969	53.7449	29.2969	47.5779	29.2969	53.9296	29.2969	48.695	29.2969	53.9594	29.2969	49.6983	29.2969	53.8408	29.2969	50.5956	29.2969	53.5833	29.2969	51.3936	29.2969	53.1988	29.2969	52.0954	29.2969	52.6994
30.7617	54.6905	30.7617	54.7653	30.7617	54.6112	30.7617	54.854	30.7617	54.5175	30.7617	54.9818	30.7617	54.4078	30.7617	55.1753	30.7617	54.2884	30.7617	55.4551	30.7617	54.173	30.7617	55.8273	30.7617	54.0828	30.7617	56.2799	30.7617	54.0458	30.7617	56.7855	30.7617	54.0926	30.7617	57.3083	30.7617	54.2502	30.7617	57.8114	30.7617	54.5325	30.7617	58.262	30.7617	54.9348	30.7617	58.6338	30.7617	55.4342	30.7617	58.9074	30.7617	55.9958	30.7617	59.0702	30.7617	56.5819	30.7617	59.1155	30.7617	57.1575	30.7617	59.0422	30.7617	57.6934	30.7617	58.8538	30.7617	58.1665	30.7617	58.5582
32.2266	59.6776	32.2266	59.7318	32.2266	59.6435	32.2266	59.8197	32.2266	59.6201	32.2266	59.9571	32.2266	59.6033	32.2266	60.1581	32.2266	59.5947	32.2266	60.4314	32.2266	59.6019	32.2266	60.777	32.2266	59.6376	32.2266	61.1844	32.2266	59.7183	32.2266	61.6346	32.2266	59.8615	32.2266	62.1029	32.2266	60.081	32.2266	62.5626	32.2266	60.3827	32.2266	62.9884	32.2266	60.7613	32.2266	63.358	32.2266	61.2006	32.2266	63.6533	32.2266	61.6764	32.2266	63.8607	32.2266	62.1611	32.2266	63.971	32.2266	62.6274	32.2266	63.9795	32.2266	63.0511	32.2266	63.886	32.2266	63.412	32.2266	63.6942
33.6914	64.6948	33.6914	64.7372	33.6914	64.6672	33.6914	64.8016	33.6914	64.6504	33.6914	64.8969	33.6914	64.6434	33.6914	65.0324	33.6914	64.649	33.6914	65.2157	33.6914	64.673	33.6914	65.4505	33.6914	64.7242	33.6914	65.7351	33.6914	64.8127	33.6914	66.0611	33.6914	64.9488	33.6914	66.4149	33.6914	65.14	33.6914	66.7784	33.6914	65.3893	33.6914	67.1314	33.6914	65.6928	33.6914	67.4538	33.6914	66.0394	33.6914	67.7272	33.6914	66.4125	33.6914	67.9361	33.6914	66.7914	33.6914	68.0688	33.6914	67.1545	33.6914	68.1176	33.6914	67.4811	33.6914	68.0795	33.6914	67.7531	33.6914	67.956
35.1562	68.0917	35.1562	68.0977	35.1562	68.0946	35.1562	68.1187	35.1562	68.103	35.1562	68.1625	35.1562	68.1159	35.1562	68.2381	35.1562	68.1351	35.1562	68.3537	35.1562	68.1645	35.1562	68.5155	35.1562	68.2104	35.1562	68.725	35.1562	68.2802	35.1562	68.9783	35.1562	68.382	35.1562	69.2656	35.1562	68.5227	35.1562	69.5718	35.1562	68.7061	35.1562	69.8788	35.1562	68.9317	35.1562	70.1672	35.1562	69.1935	35.1562	70.4184	35.1562	69.4801	35.1562	70.6165	35.1562	69.776	35.1562	70.7493	35.1562	70.0634	35.1562	70.8089	35.1562	70.3242	35.1562	70.7922	35.1562	70.5414	35.1562	70.7009
36.6211	71.0073	36.6211	71.004	36.6211	71.0203	36.6211	71.0161	36.6211	71.0392	36.6211	71.0507	36.6211	71.0625	36.6211	71.1156	36.6211	71.0906	36.6211	71.2179	36.6211	71.1265	36.6211	71.3627	36.6211	71.1748	36.6211	71.5514	36.6211	71.2417	36.6211	71.7808	36.6211	71.3342	36.6211	72.0423	36.6211	71.4583	36.6211	72.3228	36.6211	71.6183	36.6211	72.6061	36.6211	71.8149	36.6211	72.8743	36.6211	72.0441	36.6211	73.1099	36.6211	72.297	36.6211	73.2978	36.6211	72.5604	36.6211	73.4257	36.6211	72.8183	36.6211	73.4859	36.6211	73.0538	36.6211	73.4749	36.6211	73.2504	36.6211	73.3943
38.0859	73.4952	38.0859	73.4649	38.0859	73.5286	38.0859	73.4443	38.0859	73.5611	38.0859	73.4416	38.0859	73.5911	38.0859	73.4662	38.0859	73.6191	38.0859	73.5273	38.0859	73.6481	38.0859	73.6321	38.0859	73.683	38.0859	73.784	38.0859	73.7301	38.0859	73.9812	38.0859	73.7965	38.0859	74.2161	38.0859	73.889	38.0859	74.4758	38.0859	74.0129	38.0859	74.7435	38.0859	74.1704	38.0859	75.0008	38.0859	74.3593	38.0859	75.2297	38.0859	74.5727	38.0859	75.4142	38.0859	74.7995	38.0859	75.5423	38.0859	75.025	38.0859	75.6062	38.0859	75.2329	38.0859	75.6028	38.0859	75.4074	38.0859	75.5343
39.5508	75.9453	39.5508	75.9075	39.5508	75.9854	39.5508	75.8785	39.5508	76.0237	39.5508	75.8664	39.5508	76.0581	39.5508	75.8805	39.5508	76.089	39.5508	75.9299	39.5508	76.1186	39.5508	76.022	39.5508	76.1514	39.5508	76.1606	39.5508	76.193	39.5508	76.3443	39.5508	76.2504	39.5508	76.5659	39.5508	76.3304	39.5508	76.8129	39.5508	76.4387	39.5508	77.0692	39.5508	76.5782	39.5508	77.3167	39.5508	76.7481	39.5508	77.5377	39.5508	76.9428	39.5508	77.7168	39.5508	77.152	39.5508	77.8419	39.5508	77.362	39.5508	77.9053	39.5508	77.5571	39.5508	77.9043	39.5508	77.7214	39.5508	77.8407
41.0156	77.897	41.0156	77.8489	41.0156	77.9507	41.0156	77.8134	41.0156	78.0058	41.0156	77.7988	41.0156	78.0599	41.0156	77.8142	41.0156	78.1128	41.0156	77.8684	41.0156	78.1664	41.0156	77.9676	41.0156	78.2239	41.0156	78.1139	41.0156	78.2897	41.0156	78.3043	41.0156	78.369	41.0156	78.5306	41.0156	78.4668	41.0156	78.7796	41.0156	78.587	41.0156	79.0356	41.0156	78.7312	41.0156	79.2814	41.0156	78.8977	41.0156	79.5013	41.0156	79.0809	41.0156	79.6813	41.0156	79.2717	41.0156	79.8113	41.0156	79.4579	41.0156	79.8848	41.0156	79.6261	41.0156	79.8995	41.0156	79.763	41.0156	79.8571
42.4805	80.0933	42.4805	80.0605	42.4805	80.1321	42.4805	80.0402	42.4805	80.1722	42.4805	80.0404	42.4805	80.211	42.4805	80.0694	42.4805	80.2477	42.4805	80.1349	42.4805	80.2836	42.4805	80.2424	42.4805	80.3215	42.4805	80.3931	42.4805	80.3657	42.4805	80.5834	42.4805	80.4215	42.4805	80.8044	42.4805	80.4947	42.4805	81.0427	42.4805	80.5904	42.4805	81.2821	42.4805	80.7117	42.4805	81.5055	42.4805	80.8589	42.4805	81.6971	42.4805	81.0285	42.4805	81.8438	42.4805	81.2133	42.4805	81.9365	42.4805	81.4027	42.4805	81.9706	42.4805	81.5838	42.4805	81.9461	42.4805	81.7431	42.4805	81.8675
43.9453	82.3421	43.9453	82.3079	43.9453	82.3844	43.9453	82.2884	43.9453	82.4294	43.9453	82.2917	43.9453	82.4738	43.9453	82.3255	43.9453	82.5165	43.9453	82.3968	43.9453	82.5579	43.9453	82.5097	43.9453	82.6007	43.9453	82.6644	43.9453	82.6488	43.9453	82.8566	43.9453	82.7071	43.9453	83.0769	43.9453	82.7811	43.9453	83.3122	43.9453	82.8755	43.9453	83.5469	43.9453	82.9937	43.9453	83.7648	43.9453	83.1361	43.9453	83.951	43.9453	83.2999	43.9453	84.0931	43.9453	83.4784	43.9453	84.1826	43.9453	83.6617	43.9453	84.2151	43.9453	83.8374	43.9453	84.1907	43.9453	83.9923	43.9453	84.1138
45.4102	84.253	45.4102	84.2316	45.4102	84.283	45.4102	84.2245	45.4102	84.3169	45.4102	84.2385	45.4102	84.3521	45.4102	84.2802	45.4102	84.3871	45.4102	84.3554	45.4102	84.4226	45.4102	84.4675	45.4102	84.4607	45.4102	84.6167	45.4102	84.5048	45.4102	84.7988	45.4102	84.5594	45.4102	85.0053	45.4102	84.6294	45.4102	85.2243	45.4102	84.7194	45.4102	85.4414	45.4102	84.8324	45.4102	85.6417	45.4102	84.969	45.4102	85.8113	45.4102	85.1267	45.4102	85.9388	45.4102	85.2994	45.4102	86.0159	45.4102	85.4777	45.4102	86.0387	45.4102	85.6501	45.4102	86.0075	45.4102	85.8038	45.4102	85.9265
46.875	85.8355	46.875	85.8187	46.875	85.8613	46.875	85.816	46.875	85.8919	46.875	85.8333	46.875	85.9246	46.875	85.8767	46.875	85.9582	46.875	85.9511	46.875	85.993	46.875	86.0592	46.875	86.0308	46.875	86.2011	46.875	86.0746	46.875	86.3727	46.875	86.1282	46.875	86.5662	46.875	86.1961	46.875	86.7707	46.875	86.2821	46.875	86.9729	46.875	86.3891	46.875	87.1591	46.875	86.5176	46.875	87.3163	46.875	86.6653	46.875	87.4339	46.875	86.8268	46.875	87.5043	46.875	86.9937	46.875	87.5238	46.875	87.1552	46.875	87.4929	46.875	87.2997	46.875	87.4157
48.3398	87.1878	48.3398	87.1712	48.3398	87.2121	48.3398	87.167	48.3398	87.2402	48.3398	87.1806	48.3398	87.2699	48.3398	87.2177	48.3398	87.3002	48.3398	87.2831	48.3398	87.3313	48.3398	87.3796	48.3398	87.365	48.3398	87.5074	48.3398	87.4039	48.3398	87.6631	48.3398	87.4516	48.3398	87.8399	48.3398	87.512	48.3398	88.0275	48.3398	87.5887	48.3398	88.2138	48.3398	87.6844	48.3398	88.3858	48.3398	87.7998	48.3398	88.5313	48.3398	87.9332	48.3398	88.6401	48.3398	88.0798	48.3398	88.705	48.3398	88.232	48.3398	88.7226	48.3398	88.3803	48.3398	88.6933	48.3398	88.5137	48.3398	88.6212
51.2695	89.1366	51.2695	89.125	51.2695	89.1559	51.2695	89.125	51.2695	89.1802	51.2695	89.1405	51.2695	89.2075	51.2695	89.1756	51.2695	89.2367	51.2695	89.2337	51.2695	89.2679	51.2695	89.317	51.2695	89.3019	51.2695	89.4255	51.2695	89.3405	51.2695	89.5565	51.2695	89.386	51.2695	89.7047	51.2695	89.4412	51.2695	89.8621	51.2695	89.5088	51.2695	90.0188	51.2695	89.5907	51.2695	90.1641	51.2695	89.6877	51.2695	90.2876	51.2695	89.7986	51.2695	90.3805	51.2695	89.92	51.2695	90.4366	51.2695	90.046	51.2695	90.4526	51.2695	90.1689	51.2695	90.4289	51.2695	90.2797	51.2695	90.3691
52.7344	89.827	52.7344	89.8154	52.7344	89.8458	52.7344	89.8141	52.7344	89.8693	52.7344	89.8266	52.7344	89.8957	52.7344	89.8566	52.7344	89.9241	52.7344	89.9071	52.7344	89.9544	52.7344	89.9801	52.7344	89.9871	52.7344	90.0759	52.7344	90.0238	52.7344	90.1924	52.7344	90.0663	52.7344	90.325	52.7344	90.117	52.7344	90.4667	52.7344	90.178	52.7344	90.6088	52.7344	90.2513	52.7344	90.7415	52.7344	90.3376	52.7344	90.8552	52.7344	90.4359	52.7344	90.9417	52.7344	90.5433	52.7344	90.9949	52.7344	90.6549	52.7344	91.0118	52.7344	90.7638	52.7344	90.9927	52.7344	90.8619	52.7344	90.9407
54.1992	90.3435	54.1992	90.3338	54.1992	90.3601	54.1992	90.3338	54.1992	90.3815	54.1992	90.3466	54.1992	90.406	54.1992	90.3752	54.1992	90.4326	54.1992	90.4221	54.1992	90.4612	54.1992	90.4888	54.1992	90.4921	54.1992	90.5756	54.1992	90.5264	54.1992	90.6806	54.1992	90.5657	54.1992	90.7997	54.1992	90.612	54.1992	90.9268	54.1992	90.667	54.1992	91.0542	54.1992	90.7325	54.1992	91.173	54.1992	90.8092	54.1992	91.2748	54.1992	90.8964	54.1992	91.3519	54.1992	90.9918	54.1992	91.399	54.1992	91.0911	54.1992	91.4133	54.1992	91.1884	54.1992	91.3952	54.1992	91.2765	54.1992	91.3478
55.6641	90.7516	55.6641	90.7454	55.6641	90.7643	55.6641	90.7481	55.6641	90.7818	55.6641	90.7618	55.6641	90.8028	55.6641	90.789	55.6641	90.8265	55.6641	90.8317	55.6641	90.8524	55.6641	90.8912	55.6641	90.8809	55.6641	90.9676	55.6641	90.9125	55.6641	91.0593	55.6641	90.9485	55.6641	91.1632	55.6641	90.9904	55.6641	91.274	55.6641	91.0396	55.6641	91.385	55.6641	91.0975	55.6641	91.4887	55.6641	91.1647	55.6641	91.5774	55.6641	91.2409	55.6641	91.6444	55.6641	91.3241	55.6641	91.6849	55.6641	91.411	55.6641	91.6966	55.6641	91.4963	55.6641	91.6796	55.6641	91.5739	55.6641	91.6371
58.5938	91.3179	58.5938	91.3119	58.5938	91.3289	58.5938	91.3122	58.5938	91.344	58.5938	91.3206	58.5938	91.3621	58.5938	91.3388	58.5938	91.3829	58.5938	91.3683	58.5938	91.406	58.5938	91.4104	58.5938	91.4314	58.5938	91.4656	58.5938	91.4593	58.5938	91.5332	58.5938	91.4904	58.5938	91.6112	58.5938	91.5253	58.5938	91.6959	58.5938	91.5649	58.5938	91.7823	58.5938	91.61	58.5938	91.8646	58.5938	91.6611	58.5938	91.9365	58.5938	91.7179	58.5938	91.9926	58.5938	91.7793	58.5938	92.0285	58.5938	91.8428	58.5938	92.0422	58.5938	91.9047	58.5938	92.0337	58.5938	91.9606	58.5938	92.0052
60.0586	91.4639	60.0586	91.4577	60.0586	91.4745	60.0586	91.4571	60.0586	91.4886	60.0586	91.4634	60.0586	91.5054	60.0586	91.4782	60.0586	91.5244	60.0586	91.5029	60.0586	91.5452	60.0586	91.5385	60.0586	91.5678	60.0586	91.5855	60.0586	91.5923	60.0586	91.6435	60.0586	91.619	60.0586	91.7106	60.0586	91.6485	60.0586	91.7839	60.0586	91.6816	60.0586	91.8589	60.0586	91.719	60.0586	91.9305	60.0586	91.7612	60.0586	91.9932	60.0586	91.8084	60.0586	92.0421	60.0586	91.8596	60.0586	92.0733	60.0586	91.9131	60.0586	92.085	60.0586	91.9658	60.0586	92.0773	60.0586	92.0137	60.0586	92.0524
62.9883	91.7171	62.9883	91.7128	62.9883	91.7254	62.9883	91.7131	62.9883	91.7372	62.9883	91.7189	62.9883	91.752	62.9883	91.7308	62.9883	91.7694	62.9883	91.7497	62.9883	91.789	62.9883	91.7764	62.9883	91.8105	62.9883	91.8111	62.9883	91.8336	62.9883	91.8537	62.9883	91.8583	62.9883	91.9031	62.9883	91.8844	62.9883	91.9573	62.9883	91.9123	62.9883	92.0135	62.9883	91.9423	62.9883	92.0679	62.9883	91.9745	62.9883	92.1165	62.9883	92.0091	62.9883	92.1555	62.9883	92.0457	62.9883	92.182	62.9883	92.0831	62.9883	92.1942	62.9883	92.1194	62.9883	92.192	62.9883	92.1517	62.9883	92.177
64.4531	91.798	64.4531	91.7941	64.4531	91.8055	64.4531	91.7942	64.4531	91.8161	64.4531	91.7989	64.4531	91.8296	64.4531	91.8086	64.4531	91.8457	64.4531	91.8241	64.4531	91.8638	64.4531	91.846	64.4531	91.8838	64.4531	91.8746	64.4531	91.9053	64.4531	91.9098	64.4531	91.9279	64.4531	91.9509	64.4531	91.9515	64.4531	91.9963	64.4531	91.9762	64.4531	92.0438	64.4531	92.002	64.4531	92.0901	64.4531	92.0292	64.4531	92.132	64.4531	92.0577	64.4531	92.1661	64.4531	92.0873	64.4531	92.1898	64.4531	92.1172	64.4531	92.2017	64.4531	92.1459	64.4531	92.2016	64.4531	92.1713	64.4531	92.1907
67.3828	91.8675	67.3828	91.8652	67.3828	91.873	67.3828	91.8662	67.3828	91.8814	67.3828	91.8709	67.3828	91.8928	67.3828	91.8796	67.3828	91.907	67.3828	91.8927	67.3828	91.9238	67.3828	91.9107	67.3828	91.9429	67.3828	91.9336	67.3828	91.964	67.3828	91.9613	67.3828	91.9863	67.3828	91.9934	67.3828	92.0096	67.3828	92.0288	67.3828	92.0332	67.3828	92.0657	67.3828	92.0568	67.3828	92.102	67.3828	92.0803	67.3828	92.1353	67.3828	92.1035	67.3828	92.1632	67.3828	92.1261	67.3828	92.1838	67.3828	92.1476	67.3828	92.1959	67.3828	92.1672	67.3828	92.1992	67.3828	92.1834	67.3828	92.1946
68.8477	91.8781	68.8477	91.8799	68.8477	91.8801	68.8477	91.8851	68.8477	91.8857	68.8477	91.8939	68.8477	91.8953	68.8477	91.9062	68.8477	91.9087	68.8477	91.922	68.8477	91.9257	68.8477	91.9415	68.8477	91.946	68.8477	91.9646	68.8477	91.9689	68.8477	91.9913	68.8477	91.9935	68.8477	92.0209	68.8477	92.0192	68.8477	92.0528	68.8477	92.0451	68.8477	92.0856	68.8477	92.0706	68.8477	92.1177	68.8477	92.0953	68.8477	92.147	68.8477	92.1187	68.8477	92.1716	68.8477	92.1406	68.8477	92.19	68.8477	92.1606	68.8477	92.2011	68.8477	92.1781	68.8477	92.2048	68.8477	92.1921	68.8477	92.2014
71.7773	91.9455	71.7773	91.9523	71.7773	91.9422	71.7773	91.962	71.7773	91.9426	71.7773	91.9742	71.7773	91.9473	71.7773	91.9885	71.7773	91.9562	71.7773	92.0045	71.7773	91.9693	71.7773	92.0219	71.7773	91.9862	71.7773	92.0406	71.7773	92.0062	71.7773	92.0602	71.7773	92.0284	71.7773	92.0806	71.7773	92.0517	71.7773	92.1013	71.7773	92.075	71.7773	92.1219	71.7773	92.0974	71.7773	92.1415	71.7773	92.1182	71.7773	92.1593	71.7773	92.1369	71.7773	92.1742	71.7773	92.1533	71.7773	92.1854	71.7773	92.1674	71.7773	92.1924	71.7773	92.1789	71.7773	92.1949	71.7773	92.1876	71.7773	92.1931
74.707	91.9573	74.707	91.9702	74.707	91.9476	74.707	91.9855	74.707	91.9418	74.707	92.0026	74.707	91.9404	74.707	92.0204	74.707	91.9437	74.707	92.0383	74.707	91.9517	74.707	92.0555	74.707	91.964	74.707	92.0716	74.707	91.9798	74.707	92.0859	74.707	91.9981	74.707	92.0984	74.707	92.0175	74.707	92.1089	74.707	92.0368	74.707	92.1172	74.707	92.0548	74.707	92.1236	74.707	92.0707	74.707	92.1278	74.707	92.0841	74.707	92.1301	74.707	92.095	74.707	92.1304	74.707	92.1039	74.707	92.1289	74.707	92.111	74.707	92.1261	74.707	92.117	74.707	92.122
77.6367	91.974	77.6367	91.9907	77.6367	91.9611	77.6367	92.0102	77.6367	91.9531	77.6367	92.0311	77.6367	91.9508	77.6367	92.0521	77.6367	91.9546	77.6367	92.0721	77.6367	91.9643	77.6367	92.09	77.6367	91.9795	77.6367	92.105	77.6367	91.9992	77.6367	92.1168	77.6367	92.0218	77.6367	92.1253	77.6367	92.0455	77.6367	92.1307	77.6367	92.0686	77.6367	92.1335	77.6367	92.0895	77.6367	92.1345	77.6367	92.1069	77.6367	92.1343	77.6367	92.12	77.6367	92.1338	77.6367	92.1288	77.6367	92.1334	77.6367	92.1339	77.6367	92.1335	77.6367	92.1359	77.6367	92.1341	77.6367	92.136	77.6367	92.1351
79.1016	91.9948	79.1016	92.0137	79.1016	91.9795	79.1016	92.0351	79.1016	91.9691	79.1016	92.0573	79.1016	91.9644	79.1016	92.0791	79.1016	91.966	79.1016	92.0989	79.1016	91.9739	79.1016	92.1158	79.1016	91.9876	79.1016	92.1288	79.1016	92.0061	79.1016	92.1376	79.1016	92.0278	79.1016	92.1421	79.1016	92.0508	79.1016	92.1429	79.1016	92.0733	79.1016	92.1407	79.1016	92.0934	79.1016	92.1367	79.1016	92.1096	79.1016	92.1319	79.1016	92.1213	79.1016	92.1274	79.1016	92.1283	79.1016	92.1243	79.1016	92.131	79.1016	92.1229	79.1016	92.1306	79.1016	92.1234	79.1016	92.1283	79.1016	92.1255
82.0312	92.0433	82.0312	92.0663	82.0312	92.0229	82.0312	92.0903	82.0312	92.0066	82.0312	92.1137	82.0312	91.9956	82.0312	92.1347	82.0312	91.9907	82.0312	92.152	82.0312	91.9923	82.0312	92.1644	82.0312	91.9999	82.0312	92.1711	82.0312	92.0126	82.0312	92.1717	82.0312	92.0288	82.0312	92.1666	82.0312	92.0467	82.0312	92.1565	82.0312	92.064	82.0312	92.1427	82.0312	92.0789	82.0312	92.1268	82.0312	92.0898	82.0312	92.1108	82.0312	92.0958	82.0312	92.0965	82.0312	92.097	82.0312	92.0853	82.0312	92.0941	82.0312	92.0783	82.0312	92.0886	82.0312	92.0759	82.0312	92.0825	82.0312	92.0777
84.9609	92.1074	84.9609	92.1303	84.9609	92.0865	84.9609	92.1535	84.9609	92.069	84.9609	92.1753	84.9609	92.056	84.9609	92.1943	84.9609	92.0484	84.9609	92.2088	84.9609	92.0465	84.9609	92.2177	84.9609	92.0498	84.9609	92.2203	84.9609	92.0575	84.9609	92.2162	84.9609	92.068	84.9609	92.2057	84.9609	92.0795	84.9609	92.1896	84.9609	92.09	84.9609	92.1692	84.9609	92.0977	84.9609	92.1463	84.9609	92.1012	84.9609	92.1231	84.9609	92.1001	84.9609	92.1016	84.9609	92.0948	84.9609	92.0838	84.9609	92.0864	84.9609	92.0713	84.9609	92.0771	84.9609	92.0648	84.9609	92.069	84.9609	92.0643
87.8906	91.9323	87.8906	91.9614	87.8906	91.9104	87.8906	91.9958	87.8906	91.8974	87.8906	92.0334	87.8906	91.8945	87.8906	92.0723	87.8906	91.9024	87.8906	92.1104	87.8906	91.9211	87.8906	92.1459	87.8906	91.95	87.8906	92.1774	87.8906	91.9874	87.8906	92.2039	87.8906	92.0312	87.8906	92.2249	87.8906	92.0783	87.8906	92.2406	87.8906	92.1255	87.8906	92.2514	87.8906	92.1697	87.8906	92.2585	87.8906	92.2081	87.8906	92.2631	87.8906	92.2389	87.8906	92.2665	87.8906	92.2612	87.8906	92.2697	87.8906	92.2751	87.8906	92.2734	87.8906	92.2819	87.8906	92.2774	87.8906	92.2833	87.8906	92.2812
90.8203	91.9957	90.8203	92.0293	90.8203	91.9681	90.8203	92.0667	90.8203	91.9487	90.8203	92.1052	90.8203	91.9391	90.8203	92.1427	90.8203	91.9406	90.8203	92.1767	90.8203	91.9537	90.8203	92.2055	90.8203	91.9781	90.8203	92.2276	90.8203	92.0123	90.8203	92.2427	90.8203	92.0541	90.8203	92.2508	90.8203	92.1003	90.8203	92.2531	90.8203	92.1474	90.8203	92.2512	90.8203	92.1916	90.8203	92.2473	90.8203	92.2298	90.8203	92.2438	90.8203	92.2593	90.8203	92.2426	90.8203	92.2788	90.8203	92.2451	90.8203	92.2883	90.8203	92.2516	90.8203	92.2888	90.8203	92.2613	90.8203	92.2827	90.8203	92.2725
95.2148	92.1047	95.2148	92.153	95.2148	92.058	95.2148	92.1996	95.2148	92.0165	95.2148	92.2411	95.2148	91.9834	95.2148	92.2748	95.2148	91.9613	95.2148	92.2986	95.2148	91.9521	95.2148	92.3112	95.2148	91.9564	95.2148	92.3121	95.2148	91.9733	95.2148	92.3018	95.2148	92.0008	95.2148	92.2818	95.2148	92.0353	95.2148	92.2544	95.2148	92.0728	95.2148	92.2228	95.2148	92.1087	95.2148	92.1906	95.2148	92.139	95.2148	92.1614	95.2148	92.1605	95.2148	92.1387	95.2148	92.1715	95.2148	92.1247	95.2148	92.1722	95.2148	92.1205	95.2148	92.1643	95.2148	92.1252	95.2148	92.1511	95.2148	92.1366
98.1445	92.2234	98.1445	92.2638	98.1445	92.1832	98.1445	92.3012	98.1445	92.1465	98.1445	92.3325	98.1445	92.1163	98.1445	92.3555	98.1445	92.0951	98.1445	92.3683	98.1445	92.0844	98.1445	92.3702	98.1445	92.0846	98.1445	92.3611	98.1445	92.0948	98.1445	92.3418	98.1445	92.113	98.1445	92.3137	98.1445	92.1361	98.1445	92.2794	98.1445	92.1605	98.1445	92.2418	98.1445	92.1822	98.1445	92.2043	98.1445	92.1981	98.1445	92.1706	98.1445	92.2056	98.1445	92.144	98.1445	92.2038	98.1445	92.127	98.1445	92.1933	98.1445	92.1209	98.1445	92.1765	98.1445	92.1253	98.1445	92.1568	98.1445	92.1384
101.074	92.195	101.074	92.2219	101.074	92.1665	101.074	92.2451	101.074	92.1391	101.074	92.2629	101.074	92.116	101.074	92.2746	101.074	92.0998	101.074	92.2798	101.074	92.093	101.074	92.2786	101.074	92.0966	101.074	92.2714	101.074	92.1101	101.074	92.2588	101.074	92.1319	101.074	92.2417	101.074	92.1588	101.074	92.2214	101.074	92.1869	101.074	92.1999	101.074	92.2121	101.074	92.179	101.074	92.2309	101.074	92.1614	101.074	92.2406	101.074	92.149	101.074	92.2404	101.074	92.1437	101.074	92.2308	101.074	92.1465	101.074	92.2142	101.074	92.1569	101.074	92.1939	101.074	92.1736
105.469	92.1381	105.469	92.1899	105.469	92.0875	105.469	92.2392	105.469	92.0418	105.469	92.2823	105.469	92.0044	105.469	92.3162	105.469	91.978	105.469	92.3381	105.469	91.9646	105.469	92.3465	105.469	91.9649	105.469	92.3408	105.469	91.9785	105.469	92.3215	105.469	92.0034	105.469	92.2908	105.469	92.0367	105.469	92.2519	105.469	92.0744	105.469	92.2094	105.469	92.1119	105.469	92.1684	105.469	92.1448	105.469	92.134	105.469	92.1693	105.469	92.1103	105.469	92.1829	105.469	92.0997	105.469	92.1844	105.469	92.1024	105.469	92.1751	105.469	92.1159	105.469	92.1574	105.469	92.136
108.398	92.2598	108.398	92.3158	108.398	92.2023	108.398	92.3669	108.398	92.1467	108.398	92.4104	108.398	92.0965	108.398	92.4441	108.398	92.0549	108.398	92.4663	108.398	92.0247	108.398	92.476	108.398	92.0074	108.398	92.4727	108.398	92.0033	108.398	92.4568	108.398	92.0115	108.398	92.4294	108.398	92.0295	108.398	92.3926	108.398	92.0539	108.398	92.3493	108.398	92.0807	108.398	92.303	108.398	92.106	108.398	92.2578	108.398	92.1266	108.398	92.2176	108.398	92.1406	108.398	92.1855	108.398	92.1476	108.398	92.1633	108.398	92.1489	108.398	92.151	108.398	92.1473	108.398	92.1468
112.793	92.3536	112.793	92.3999	112.793	92.3045	112.793	92.4405	112.793	92.2561	112.793	92.4726	112.793	92.2118	112.793	92.494	112.793	92.1748	112.793	92.5033	112.793	92.1476	112.793	92.4995	112.793	92.1319	112.793	92.4826	112.793	92.128	112.793	92.4538	112.793	92.135	112.793	92.4149	112.793	92.1507	112.793	92.3693	112.793	92.1716	112.793	92.3208	112.793	92.194	112.793	92.274	112.793	92.2139	112.793	92.2333	112.793	92.228	112.793	92.2024	112.793	92.2343	112.793	92.1835	112.793	92.2321	112.793	92.1769	112.793	92.2225	112.793	92.1811	112.793	92.2082	112.793	92.1929
117.188	92.3911	117.188	92.4511	117.188	92.3267	117.188	92.5034	117.188	92.2617	117.188	92.5452	117.188	92.2005	117.188	92.5747	117.188	92.1475	117.188	92.5905	117.188	92.1066	117.188	92.5923	117.188	92.0809	117.188	92.5804	117.188	92.072	117.188	92.5562	117.188	92.0799	117.188	92.5219	117.188	92.1026	117.188	92.4809	117.188	92.1366	117.188	92.4374	117.188	92.1772	117.188	92.3959	117.188	92.2193	117.188	92.3604	117.188	92.2579	117.188	92.3341	117.188	92.2891	117.188	92.3185	117.188	92.3105	117.188	92.3129	117.188	92.3215	117.188	92.3147	117.188	92.3236	117.188	92.3199
120.117	92.5374	120.117	92.5939	120.117	92.4753	120.117	92.6417	120.117	92.4111	120.117	92.6782	120.117	92.3486	120.117	92.7014	120.117	92.2917	120.117	92.7097	120.117	92.2437	120.117	92.7021	120.117	92.2072	120.117	92.6785	120.117	92.1833	120.117	92.6397	120.117	92.1721	120.117	92.5878	120.117	92.172	120.117	92.5262	120.117	92.1803	120.117	92.4597	120.117	92.1937	120.117	92.3938	120.117	92.2088	120.117	92.3342	120.117	92.2221	120.117	92.2856	120.117	92.2312	120.117	92.2507	120.117	92.2348	120.117	92.2302	120.117	92.2332	120.117	92.2222	120.117	92.2281	120.117	92.223
124.512	92.8091	124.512	92.8618	124.512	92.7498	124.512	92.9044	124.512	92.6877	124.512	92.9339	124.512	92.6266	124.512	92.9477	124.512	92.5699	124.512	92.9439	124.512	92.5209	124.512	92.9218	124.512	92.4818	124.512	92.8816	124.512	92.4534	124.512	92.8251	124.512	92.4353	124.512	92.7552	124.512	92.4254	124.512	92.676	124.512	92.4206	124.512	92.5929	124.512	92.4173	124.512	92.5116	124.512	92.4121	124.512	92.4379	124.512	92.4023	124.512	92.3768	124.512	92.3868	124.512	92.3322	124.512	92.366	124.512	92.3057	124.512	92.3423	124.512	92.2968	124.512	92.3197	124.512	92.3029
128.906	92.7676	128.906	92.8163	128.906	92.708	128.906	92.8505	128.906	92.6421	128.906	92.8679	128.906	92.575	128.906	92.8673	128.906	92.5121	128.906	92.8485	128.906	92.4583	128.906	92.8124	128.906	92.4171	128.906	92.7609	128.906	92.3903	128.906	92.6967	128.906	92.3773	128.906	92.6235	128.906	92.3758	128.906	92.5458	128.906	92.3816	128.906	92.4687	128.906	92.3899	128.906	92.3976	128.906	92.3959	128.906	92.3379	128.906	92.3954	128.906	92.2936	128.906	92.3864	128.906	92.2673	128.906	92.3684	128.906	92.2591	128.906	92.3432	128.906	92.2671	128.906	92.3145	128.906	92.2873
133.301	92.788	133.301	92.8397	133.301	92.729	133.301	92.8804	133.301	92.6672	133.301	92.9076	133.301	92.6077	133.301	92.9195	133.301	92.5553	133.301	92.9152	133.301	92.5143	133.301	92.8946	133.301	92.4877	133.301	92.8586	133.301	92.4764	133.301	92.8087	133.301	92.4789	133.301	92.7477	133.301	92.492	133.301	92.6794	133.301	92.5109	133.301	92.6087	133.301	92.5302	133.301	92.5414	133.301	92.5446	133.301	92.4834	133.301	92.5502	133.301	92.4398	133.301	92.5446	133.301	92.414	133.301	92.5276	133.301	92.4071	133.301	92.5015	133.301	92.4172	133.301	92.4705	133.301	92.4403
139.16	92.7865	139.16	92.8337	139.16	92.7301	139.16	92.8679	139.16	92.6694	139.16	92.8868	139.16	92.6103	139.16	92.8895	139.16	92.5586	139.16	92.8765	139.16	92.5194	139.16	92.8492	139.16	92.4962	139.16	92.8097	139.16	92.4903	139.16	92.7608	139.16	92.5006	139.16	92.7056	139.16	92.5234	139.16	92.6478	139.16	92.553	139.16	92.5914	139.16	92.5831	139.16	92.5406	139.16	92.6073	139.16	92.4995	139.16	92.6206	139.16	92.4717	139.16	92.6202	139.16	92.4596	139.16	92.6057	139.16	92.4637	139.16	92.5795	139.16	92.4823	139.16	92.5461	139.16	92.5116
143.555	92.8758	143.555	92.9202	143.555	92.822	143.555	92.9514	143.555	92.764	143.555	92.9669	143.555	92.7075	143.555	92.9657	143.555	92.6586	143.555	92.9479	143.555	92.6228	143.555	92.9151	143.555	92.6041	143.555	92.8698	143.555	92.6041	143.555	92.8157	143.555	92.6217	143.555	92.7571	143.555	92.6531	143.555	92.6988	143.555	92.692	143.555	92.646	143.555	92.7312	143.555	92.6031	143.555	92.7634	143.555	92.5741	143.555	92.7827	143.555	92.5613	143.555	92.7856	143.555	92.5654	143.555	92.7713	143.555	92.5853	143.555	92.7422	143.555	92.6182	143.555	92.7028	143.555	92.6593
147.949	93.1136	147.949	93.1577	147.949	93.0573	147.949	93.1853	147.949	92.9937	147.949	93.1931	147.949	92.9282	147.949	93.1788	147.949	92.8661	147.949	93.142	147.949	92.8126	147.949	93.0837	147.949	92.7718	147.949	93.0071	147.949	92.7465	147.949	92.9174	147.949	92.7377	147.949	92.8214	147.949	92.7437	147.949	92.7275	147.949	92.7608	147.949	92.6441	147.949	92.7832	147.949	92.5789	147.949	92.8042	147.949	92.5376	147.949	92.8173	147.949	92.5229	147.949	92.8173	147.949	92.5338	147.949	92.8013	147.949	92.5664	147.949	92.7689	147.949	92.6142	147.949	92.7231	147.949	92.6691
153.809	93.1323	153.809	93.1781	153.809	93.064	153.809	93.1975	153.809	92.9786	153.809	93.1881	153.809	92.8827	153.809	93.1492	153.809	92.7838	153.809	93.0818	153.809	92.6897	153.809	92.9888	153.809	92.6079	153.809	92.8753	153.809	92.5443	153.809	92.7485	153.809	92.5024	153.809	92.6174	153.809	92.4828	153.809	92.4927	153.809	92.4833	153.809	92.3852	153.809	92.4985	153.809	92.3047	153.809	92.5211	153.809	92.2577	153.809	92.5427	153.809	92.2463	153.809	92.5554	153.809	92.2673	153.809	92.5528	153.809	92.3129	153.809	92.5312	153.809	92.3728	153.809	92.4908	153.809	92.4355
159.668	93.1378	159.668	93.1943	159.668	93.0607	159.668	93.2258	159.668	92.9696	159.668	93.2298	159.668	92.8726	159.668	93.2059	159.668	92.7785	159.668	93.1555	159.668	92.6958	159.668	93.0809	159.668	92.6309	159.668	92.9854	159.668	92.5878	159.668	92.8733	159.668	92.5669	159.668	92.7504	159.668	92.5652	159.668	92.6241	159.668	92.5768	159.668	92.5036	159.668	92.5943	159.668	92.3991	159.668	92.6098	159.668	92.3209	159.668	92.6159	159.668	92.2762	159.668	92.6072	159.668	92.2678	159.668	92.5803	159.668	92.293	159.668	92.5353	159.668	92.3435	159.668	92.4756	159.668	92.4083
165.527	93.0623	165.527	93.1174	165.527	92.9853	165.527	93.1471	165.527	92.8925	165.527	93.1503	165.527	92.7923	165.527	93.1283	165.527	92.6943	165.527	93.0837	165.527	92.608	165.527	93.0203	165.527	92.5412	165.527	92.9421	165.527	92.4988	165.527	92.8533	165.527	92.4818	165.527	92.7588	165.527	92.4873	165.527	92.6636	165.527	92.509	165.527	92.5738	165.527	92.5387	165.527	92.4959	165.527	92.5677	165.527	92.4361	165.527	92.5885	165.527	92.3992	165.527	92.5952	165.527	92.3876	165.527	92.5852	165.527	92.4001	165.527	92.5588	165.527	92.4316	165.527	92.5197	165.527	92.4745
171.387	93.0162	171.387	93.0619	171.387	92.9509	171.387	93.0845	171.387	92.8726	171.387	93.083	171.387	92.7899	171.387	93.0588	171.387	92.7123	171.387	93.0146	171.387	92.6487	171.387	92.9536	171.387	92.6055	171.387	92.8791	171.387	92.5853	171.387	92.7946	171.387	92.5869	171.387	92.7038	171.387	92.6048	171.387	92.6117	171.387	92.6315	171.387	92.5241	171.387	92.6583	171.387	92.4483	171.387	92.6771	171.387	92.3912	171.387	92.6821	171.387	92.3586	171.387	92.6697	171.387	92.3534	171.387	92.6392	171.387	92.3747	171.387	92.5928	171.387	92.4174	171.387	92.5354	171.387	92.474
177.246	92.942	177.246	92.9705	177.246	92.8963	177.246	92.9789	177.246	92.8394	177.246	92.9672	177.246	92.7794	177.246	92.9378	177.246	92.7256	177.246	92.8951	177.246	92.6871	177.246	92.8444	177.246	92.6712	177.246	92.7905	177.246	92.6814	177.246	92.7381	177.246	92.7169	177.246	92.6906	177.246	92.7718	177.246	92.6507	177.246	92.8365	177.246	92.6205	177.246	92.8994	177.246	92.6018	177.246	92.9495	177.246	92.5965	177.246	92.9783	177.246	92.6062	177.246	92.9814	177.246	92.6318	177.246	92.9588	177.246	92.673	177.246	92.9146	177.246	92.7275	177.246	92.8558	177.246	92.7907
183.105	93.2398	183.105	93.2532	183.105	93.2005	183.105	93.2411	183.105	93.1373	183.105	93.2049	183.105	93.0543	183.105	93.1476	183.105	92.9579	183.105	93.0723	183.105	92.8566	183.105	92.9829	183.105	92.7598	183.105	92.8838	183.105	92.6769	183.105	92.7802	183.105	92.6158	183.105	92.6783	183.105	92.581	183.105	92.5845	183.105	92.5721	183.105	92.5049	183.105	92.5841	183.105	92.4448	183.105	92.6078	183.105	92.408	183.105	92.6327	183.105	92.3962	183.105	92.6484	183.105	92.4086	183.105	92.6478	183.105	92.4415	183.105	92.628	183.105	92.4886	183.105	92.5906	183.105	92.5414
188.965	93.1768	188.965	93.2201	188.965	93.0974	188.965	93.2247	188.965	92.9864	188.965	93.19	188.965	92.8514	188.965	93.1175	188.965	92.7028	188.965	93.0104	188.965	92.5535	188.965	92.875	188.965	92.4177	188.965	92.7207	188.965	92.309	188.965	92.5599	188.965	92.238	188.965	92.4072	188.965	92.21	188.965	92.2772	188.965	92.2237	188.965	92.1819	188.965	92.271	188.965	92.1282	188.965	92.3382	188.965	92.1169	188.965	92.4092	188.965	92.143	188.965	92.468	188.965	92.1978	188.965	92.5023	188.965	92.2703	188.965	92.5053	188.965	92.3489	188.965	92.4766	188.965	92.4214
196.289	93.057	196.289	93.1216	196.289	92.959	196.289	93.1486	196.289	92.8357	196.289	93.1372	196.289	92.6987	196.289	93.089	196.289	92.5629	196.289	93.0074	196.289	92.4443	196.289	92.8977	196.289	92.3571	196.289	92.7664	196.289	92.3106	196.289	92.6213	196.289	92.3068	196.289	92.4722	196.289	92.3397	196.289	92.3302	196.289	92.3967	196.289	92.2077	196.289	92.462	196.289	92.1161	196.289	92.5201	196.289	92.0646	196.289	92.5584	196.289	92.0568	196.289	92.5692	196.289	92.0903	196.289	92.5495	196.289	92.1568	196.289	92.5007	196.289	92.2441	196.289	92.4277	196.289	92.3386
203.613	93.3697	203.613	93.3975	203.613	93.3019	203.613	93.3826	203.613	93.1991	203.613	93.3249	203.613	93.0678	203.613	93.2267	203.613	92.9155	203.613	93.0927	203.613	92.7505	203.613	92.9296	203.613	92.5821	203.613	92.7455	203.613	92.4205	203.613	92.5504	203.613	92.277	203.613	92.3557	203.613	92.1623	203.613	92.1748	203.613	92.0848	203.613	92.0215	203.613	92.0474	203.613	91.9082	203.613	92.046	203.613	91.8427	203.613	92.0686	203.613	91.8261	203.613	92.0991	203.613	91.8518	203.613	92.1209	203.613	91.9074	203.613	92.1215	203.613	91.9769	203.613	92.0952	203.613	92.0441
210.938	93.211	210.938	93.2466	210.938	93.1352	210.938	93.2428	210.938	93.0216	210.938	93.2026	210.938	92.8763	210.938	93.1302	210.938	92.7092	210.938	93.0294	210.938	92.5331	210.938	92.9035	210.938	92.3622	210.938	92.7555	210.938	92.2097	210.938	92.5895	210.938	92.0858	210.938	92.4117	210.938	91.9959	210.938	92.2321	210.938	91.94	210.938	92.0635	210.938	91.9135	210.938	91.9205	210.938	91.9087	210.938	91.8158	210.938	91.9166	210.938	91.7568	210.938	91.9274	210.938	91.7427	210.938	91.9321	210.938	91.7646	210.938	91.9235	210.938	91.8079	210.938	91.8978	210.938	91.8566
218.262	92.7129	218.262	92.7905	218.262	92.5926	218.262	92.8231	218.262	92.4378	218.262	92.8131	218.262	92.2637	218.262	92.7666	218.262	92.0906	218.262	92.6918	218.262	91.9421	218.262	92.598	218.262	91.8395	218.262	92.495	218.262	91.7971	218.262	92.3918	218.262	91.8187	218.262	92.2955	218.262	91.8965	218.262	92.2118	218.262	92.0142	218.262	92.1449	218.262	92.1506	218.262	92.0989	218.262	92.2839	218.262	92.0781	218.262	92.3955	218.262	92.0865	218.262	92.4716	218.262	92.1256	218.262	92.5046	218.262	92.1923	218.262	92.4936	218.262	92.2774	218.262	92.4439	218.262	92.3668
225.586	92.6574	225.586	92.7311	225.586	92.5303	225.586	92.749	225.586	92.3609	225.586	92.716	225.586	92.169	225.586	92.6424	225.586	91.9815	225.586	92.5419	225.586	91.8279	225.586	92.4294	225.586	91.7339	225.586	92.3193	225.586	91.7144	225.586	92.2237	225.586	91.77	225.586	92.1522	225.586	91.8872	225.586	92.1106	225.586	92.044	225.586	92.1013	225.586	92.2153	225.586	92.1229	225.586	92.3786	225.586	92.1716	225.586	92.5161	225.586	92.2418	225.586	92.6158	225.586	92.3269	225.586	92.6716	225.586	92.4198	225.586	92.6829	225.586	92.5119	225.586	92.6541	225.586	92.5937
232.91	92.8926	232.91	92.9504	232.91	92.7791	232.91	92.9502	232.91	92.6173	232.91	92.8948	232.91	92.4199	232.91	92.791	232.91	92.2043	232.91	92.6488	232.91	91.9909	232.91	92.482	232.91	91.8017	232.91	92.3076	232.91	91.6582	232.91	92.1459	232.91	91.5782	232.91	92.0179	232.91	91.5712	232.91	91.9401	232.91	91.6359	232.91	91.9191	232.91	91.7585	232.91	91.9498	232.91	91.9157	232.91	92.0175	232.91	92.0801	232.91	92.1046	232.91	92.2263	232.91	92.1957	232.91	92.336	232.91	92.2802	232.91	92.4003	232.91	92.3506	232.91	92.4194	232.91	92.3998
241.699	93.1868	241.699	93.2371	241.699	93.0898	241.699	93.2394	241.699	92.95	241.699	93.1925	241.699	92.7742	241.699	93.0949	241.699	92.5734	241.699	92.9453	241.699	92.3619	241.699	92.7433	241.699	92.1555	241.699	92.4922	241.699	91.9686	241.699	92.2018	241.699	91.8121	241.699	91.8914	241.699	91.693	241.699	91.5904	241.699	91.6141	241.699	91.3362	241.699	91.5758	241.699	91.1657	241.699	91.5756	241.699	91.102	241.699	91.6066	241.699	91.143	241.699	91.6566	241.699	91.2612	241.699	91.7074	241.699	91.4144	241.699	91.7383	241.699	91.5612	241.699	91.7302	241.699	91.6713
250.488	93.0716	250.488	93.1165	250.488	92.9578	250.488	93.091	250.488	92.7819	250.488	92.9983	250.488	92.5568	250.488	92.8465	250.488	92.3018	250.488	92.6472	250.488	92.0419	250.488	92.4159	250.488	91.8047	250.488	92.1697	250.488	91.6159	250.488	91.9263	250.488	91.4932	250.488	91.7015	250.488	91.4422	250.488	91.5081	250.488	91.4548	250.488	91.3561	250.488	91.5122	250.488	91.2523	250.488	91.5907	250.488	91.2015	250.488	91.6671	250.488	91.2046	250.488	91.7225	250.488	91.2574	250.488	91.7438	250.488	91.3485	250.488	91.7246	250.488	91.4604	250.488	91.6651	250.488	91.5723
259.277	92.8976	259.277	92.9138	259.277	92.8214	259.277	92.8702	259.277	92.6919	259.277	92.7733	259.277	92.5219	259.277	92.6338	259.277	92.3292	259.277	92.4645	259.277	92.1332	259.277	92.2776	259.277	91.9519	259.277	92.0845	259.277	91.7986	259.277	91.8961	259.277	91.6804	259.277	91.7251	259.277	91.599	259.277	91.5859	259.277	91.554	259.277	91.4926	259.277	91.5443	259.277	91.4534	259.277	91.5685	259.277	91.4675	259.277	91.6218	259.277	91.5242	259.277	91.6934	259.277	91.6068	259.277	91.7663	259.277	91.6963	259.277	91.8214	259.277	91.775	259.277	91.8441	259.277	91.8277
268.066	92.849	268.066	92.8677	268.066	92.7653	268.066	92.8229	268.066	92.621	268.066	92.7195	268.066	92.4285	268.066	92.5646	268.066	92.2086	268.066	92.3676	268.066	91.9898	268.066	92.1401	268.066	91.8031	268.066	91.8977	268.066	91.675	268.066	91.6595	268.066	91.6197	268.066	91.4476	268.066	91.6336	268.066	91.2823	268.066	91.6969	268.066	91.1775	268.066	91.7799	268.066	91.1367	268.066	91.8528	268.066	91.1521	268.066	91.8936	268.066	91.2091	268.066	91.8927	268.066	91.292	268.066	91.8519	268.066	91.3882	268.066	91.7808	268.066	91.4898	268.066	91.691	268.066	91.592
276.855	92.7531	276.855	92.8238	276.855	92.6179	276.855	92.8269	276.855	92.4289	276.855	92.7654	276.855	92.2045	276.855	92.6461	276.855	91.9686	276.855	92.4768	276.855	91.7474	276.855	92.2642	276.855	91.5645	276.855	92.0145	276.855	91.4373	276.855	91.7373	276.855	91.3751	276.855	91.4521	276.855	91.3803	276.855	91.1928	276.855	91.4493	276.855	91.0048	276.855	91.5718	276.855	90.9291	276.855	91.729	276.855	90.9822	276.855	91.8947	276.855	91.1446	276.855	92.0391	276.855	91.3722	276.855	92.1358	276.855	91.6161	276.855	92.167	276.855	91.8382	276.855	92.1255	276.855	92.0131
287.109	92.7678	287.109	92.8659	287.109	92.5917	287.109	92.886	287.109	92.3469	287.109	92.8349	287.109	92.0546	287.109	92.723	287.109	91.7479	287.109	92.5621	287.109	91.4675	287.109	92.3633	287.109	91.2527	287.109	92.1357	287.109	91.1286	287.109	91.8874	287.109	91.0987	287.109	91.6283	287.109	91.1451	287.109	91.3749	287.109	91.2394	287.109	91.1536	287.109	91.3547	287.109	90.9991	287.109	91.4726	287.109	90.9423	287.109	91.583	287.109	90.994	287.109	91.6782	287.109	91.1348	287.109	91.7474	287.109	91.3227	287.109	91.776	287.109	91.51	287.109	91.7493	287.109	91.6591
297.363	92.8975	297.363	92.9631	297.363	92.7312	297.363	92.9287	297.363	92.4692	297.363	92.8003	297.363	92.1244	297.363	92.5887	297.363	91.7197	297.363	92.3111	297.363	91.2908	297.363	91.9926	297.363	90.888	297.363	91.6663	297.363	90.5741	297.363	91.3701	297.363	90.4126	297.363	91.1377	297.363	90.4435	297.363	90.9871	297.363	90.6588	297.363	90.9153	297.363	90.9991	297.363	90.9054	297.363	91.3771	297.363	90.941	297.363	91.71	297.363	91.0168	297.363	91.9408	297.363	91.1365	297.363	92.0441	297.363	91.3022	297.363	92.023	297.363	91.5036	297.363	91.9015	297.363	91.7152
307.617	92.9422	307.617	93.0132	307.617	92.7827	307.617	93.0014	307.617	92.537	307.617	92.9162	307.617	92.2191	307.617	92.7681	307.617	91.8564	307.617	92.5663	307.617	91.4885	307.617	92.3185	307.617	91.1593	307.617	92.0323	307.617	90.9057	307.617	91.7202	307.617	90.7464	307.617	91.4051	307.617	90.6808	307.617	91.1245	307.617	90.6969	307.617	90.9254	307.617	90.7837	307.617	90.8462	307.617	90.9337	307.617	90.8961	307.617	91.1348	307.617	91.0481	307.617	91.3604	307.617	91.2543	307.617	91.5699	307.617	91.466	307.617	91.7214	307.617	91.6438	307.617	91.7868	307.617	91.7578
319.336	92.8982	319.336	92.9293	319.336	92.7666	319.336	92.8614	319.336	92.5417	319.336	92.7051	319.336	92.2395	319.336	92.4781	319.336	91.8829	319.336	92.2025	319.336	91.5002	319.336	91.901	319.336	91.1218	319.336	91.594	319.336	90.7791	319.336	91.2994	319.336	90.5038	319.336	91.0349	319.336	90.3284	319.336	90.8211	319.336	90.28	319.336	90.6815	319.336	90.3677	319.336	90.6371	319.336	90.5711	319.336	90.6955	319.336	90.8424	319.336	90.8429	319.336	91.1225	319.336	91.045	319.336	91.3599	319.336	91.2576	319.336	91.5197	319.336	91.4384	319.336	91.5853	319.336	91.5548
329.59	92.298	329.59	92.3455	329.59	92.1551	329.59	92.3049	329.59	91.9213	329.59	92.1914	329.59	91.6152	329.59	92.0237	329.59	91.2683	329.59	91.818	329.59	90.9227	329.59	91.584	329.59	90.6216	329.59	91.3243	329.59	90.3986	329.59	91.038	329.59	90.2683	329.59	90.7285	329.59	90.2258	329.59	90.4128	329.59	90.2542	329.59	90.1273	329.59	90.3348	329.59	89.9244	329.59	90.4527	329.59	89.8547	329.59	90.595	329.59	89.9382	329.59	90.7448	329.59	90.1465	329.59	90.8765	329.59	90.4152	329.59	90.9581	329.59	90.6725	329.59	90.9597	329.59	90.8635
341.309	92.7218	341.309	92.7475	341.309	92.5756	341.309	92.6566	341.309	92.3178	341.309	92.4623	341.309	91.9728	341.309	92.1847	341.309	91.5807	341.309	91.8495	341.309	91.1923	341.309	91.4875	341.309	90.8577	341.309	91.134	341.309	90.613	341.309	90.8257	341.309	90.4729	341.309	90.5928	341.309	90.4344	341.309	90.4499	341.309	90.4865	341.309	90.3925	341.309	90.6164	341.309	90.4033	341.309	90.8047	341.309	90.4655	341.309	91.0199	341.309	90.57	341.309	91.2193	341.309	90.714	341.309	91.3607	341.309	90.8908	341.309	91.4154	341.309	91.0813	341.309	91.3757	341.309	91.2547
353.027	92.4004	353.027	92.4252	353.027	92.2426	353.027	92.3343	353.027	91.9542	353.027	92.158	353.027	91.5622	353.027	91.9311	353.027	91.1199	353.027	91.6835	353.027	90.7008	353.027	91.4332	353.027	90.3809	353.027	91.1842	353.027	90.2111	353.027	90.9312	353.027	90.1932	353.027	90.6703	353.027	90.2825	353.027	90.4109	353.027	90.4152	353.027	90.1817	353.027	90.5412	353.027	90.025	353.027	90.642	353.027	89.9786	353.027	90.7249	353.027	90.0533	353.027	90.8034	353.027	90.2247	353.027	90.8764	353.027	90.4441	353.027	90.9218	353.027	90.6575	353.027	90.9099	353.027	90.8212
366.211	92.2293	366.211	92.2984	366.211	92.0266	366.211	92.2397	366.211	91.696	366.211	92.0685	366.211	91.2592	366.211	91.8068	366.211	90.7565	366.211	91.4823	366.211	90.2495	366.211	91.1268	366.211	89.8166	366.211	90.775	366.211	89.5387	366.211	90.4631	366.211	89.4718	366.211	90.2262	366.211	89.6209	366.211	90.0945	366.211	89.937	366.211	90.0857	366.211	90.3411	366.211	90.1977	366.211	90.7542	366.211	90.4055	366.211	91.1164	366.211	90.6678	366.211	91.3919	366.211	90.9408	366.211	91.5669	366.211	91.1905	366.211	91.6434	366.211	91.3962	366.211	91.6323	366.211	91.5463
379.395	92.2577	379.395	92.2575	379.395	92.12	379.395	92.1298	379.395	91.8475	379.395	91.8949	379.395	91.4584	379.395	91.5793	379.395	90.9869	379.395	91.2138	379.395	90.4819	379.395	90.8339	379.395	90.0036	379.395	90.4796	379.395	89.6175	379.395	90.1909	379.395	89.3846	379.395	89.9982	379.395	89.347	379.395	89.9129	379.395	89.5143	379.395	89.9277	379.395	89.8563	379.395	90.0267	379.395	90.3079	379.395	90.1969	379.395	90.7863	379.395	90.4296	379.395	91.2117	379.395	90.7131	379.395	91.5229	379.395	91.0229	379.395	91.6852	379.395	91.3201	379.395	91.6914	379.395	91.5581
392.578	91.971	392.578	91.9666	392.578	91.7941	392.578	91.7958	392.578	91.436	392.578	91.487	392.578	90.9164	392.578	91.0822	392.578	90.284	392.578	90.6345	392.578	89.6274	392.578	90.2018	392.578	89.0695	392.578	89.8375	392.578	88.7332	392.578	89.5821	392.578	88.6865	392.578	89.4598	392.578	88.9129	392.578	89.4812	392.578	89.3324	392.578	89.6442	392.578	89.8471	392.578	89.9302	392.578	90.3743	392.578	90.3006	392.578	90.8569	392.578	90.7027	392.578	91.26	392.578	91.0845	392.578	91.5626	392.578	91.407	392.578	91.7531	392.578	91.6465	392.578	91.8279	392.578	91.79
405.762	93.0645	405.762	93.0611	405.762	92.8387	405.762	92.8427	405.762	92.3747	405.762	92.424	405.762	91.6773	405.762	91.823	405.762	90.7793	405.762	91.0685	405.762	89.7554	405.762	90.2113	405.762	88.7335	405.762	89.3362	405.762	87.8993	405.762	88.563	405.762	87.4726	405.762	88.0258	405.762	87.6033	405.762	87.8301	405.762	88.2351	405.762	88.0139	405.762	89.1368	405.762	88.536	405.762	90.0758	405.762	89.2916	405.762	90.9118	405.762	90.1427	405.762	91.5851	405.762	90.9576	405.762	92.0774	405.762	91.6392	405.762	92.3843	405.762	92.1334	405.762	92.5013	405.762	92.4205
420.41	93.6522	420.41	93.6619	420.41	93.4297	420.41	93.4717	420.41	93.0002	420.41	93.106	420.41	92.3923	420.41	92.5939	420.41	91.6583	420.41	91.9625	420.41	90.8648	420.41	91.2347	420.41	90.0764	420.41	90.4352	420.41	89.3385	420.41	89.6071	420.41	88.6781	420.41	88.8341	420.41	88.1365	420.41	88.2446	420.41	87.8185	420.41	87.9704	420.41	87.882	420.41	88.0675	420.41	88.3958	420.41	88.4797	420.41	89.2163	420.41	89.0864	420.41	90.0868	420.41	89.7658	420.41	90.8024	420.41	90.4166	420.41	91.258	420.41	90.9546	420.41	91.4228	420.41	91.3089
435.059	93.2984	435.059	93.3484	435.059	93.0737	435.059	93.2323	435.059	92.6769	435.059	92.9617	435.059	92.1281	435.059	92.5436	435.059	91.4669	435.059	91.9768	435.059	90.7495	435.059	91.2588	435.059	90.038	435.059	90.4022	435.059	89.3879	435.059	89.4605	435.059	88.841	435.059	88.5515	435.059	88.434	435.059	87.8539	435.059	88.2182	435.059	87.5422	435.059	88.2606	435.059	87.6763	435.059	88.5955	435.059	88.1613	435.059	89.1627	435.059	88.828	435.059	89.8158	435.059	89.5241	435.059	90.3978	435.059	90.144	435.059	90.7998	435.059	90.6197	435.059	90.9716	435.059	90.9059
451.172	93.905	451.172	93.8342	451.172	93.7727	451.172	93.5664	451.172	93.4336	451.172	93.1155	451.172	92.8851	451.172	92.5111	451.172	92.1319	451.172	91.8028	451.172	91.199	451.172	91.0519	451.172	90.1533	451.172	90.3074	451.172	89.1249	451.172	89.5771	451.172	88.3041	451.172	88.8234	451.172	87.859	451.172	88.0126	451.172	87.7976	451.172	87.2099	451.172	87.9602	451.172	86.6637	451.172	88.1843	451.172	86.6883	451.172	88.4258	451.172	87.3026	451.172	88.7317	451.172	88.1809	451.172	89.1242	451.172	88.9931	451.172	89.526	451.172	89.5645	451.172	89.8006	451.172	89.8328
465.82	93.514	465.82	93.4949	465.82	93.3314	465.82	93.2799	465.82	92.9545	465.82	92.8835	465.82	92.4077	465.82	92.3273	465.82	91.733	465.82	91.6394	465.82	90.9824	465.82	90.8547	465.82	90.2062	465.82	90.016	465.82	89.447	465.82	89.1716	465.82	88.754	465.82	88.3691	465.82	88.2122	465.82	87.6524	465.82	87.9477	465.82	87.0773	465.82	88.0552	465.82	86.7497	465.82	88.4938	465.82	86.8156	465.82	89.0952	465.82	87.3323	465.82	89.6804	465.82	88.153	465.82	90.1343	465.82	89.0244	465.82	90.3987	465.82	89.7481	465.82	90.4391	465.82	90.2273
483.398	93.4903	483.398	93.5111	483.398	93.2406	483.398	93.3158	483.398	92.762	483.398	92.9314	483.398	92.0713	483.398	92.4004	483.398	91.2136	483.398	91.7759	483.398	90.276	483.398	91.1088	483.398	89.3841	483.398	90.4317	483.398	88.6668	483.398	89.7516	483.398	88.204	483.398	89.06	483.398	88.0054	483.398	88.362	483.398	88.0431	483.398	87.714	483.398	88.2879	483.398	87.247	483.398	88.7037	483.398	87.1241	483.398	89.2191	483.398	87.4163	483.398	89.7283	483.398	88.0256	483.398	90.1232	483.398	88.7616	483.398	90.3217	483.398	89.4513	483.398	90.2771	483.398	89.9785
499.512	93.4238	499.512	93.4092	499.512	93.1986	499.512	93.1709	499.512	92.7367	499.512	92.7396	499.512	92.0677	499.512	92.1593	499.512	91.2539	499.512	91.4841	499.512	90.3845	499.512	90.7709	499.512	89.5477	499.512	90.0695	499.512	88.7941	499.512	89.4142	499.512	88.1288	499.512	88.8215	499.512	87.5581	499.512	88.2956	499.512	87.1651	499.512	87.8465	499.512	87.1206	499.512	87.5206	499.512	87.5343	499.512	87.4173	499.512	88.2894	499.512	87.6388	499.512	89.1217	499.512	88.1797	499.512	89.806	499.512	88.8925	499.512	90.218	499.512	89.5793	499.512	90.3101	499.512	90.083
517.09	93.4438	517.09	93.3863	517.09	93.2341	517.09	93.0756	517.09	92.7745	517.09	92.5583	517.09	92.115	517.09	91.9113	517.09	91.3388	517.09	91.2242	517.09	90.5525	517.09	90.5662	517.09	89.8602	517.09	89.9594	517.09	89.3213	517.09	89.3835	517.09	88.9166	517.09	88.8044	517.09	88.5655	517.09	88.2027	517.09	88.203	517.09	87.5952	517.09	87.8641	517.09	87.0636	517.09	87.7184	517.09	86.7765	517.09	87.9541	517.09	86.9166	517.09	88.5385	517.09	87.4965	517.09	89.2032	517.09	88.3041	517.09	89.6803	517.09	89.0726	517.09	89.8286	517.09	89.6142
536.133	93.4265	536.133	93.2518	536.133	93.2701	536.133	92.7836	536.133	92.7789	536.133	92.089	536.133	91.9854	536.133	91.2554	536.133	90.9607	536.133	90.3751	536.133	89.8196	536.133	89.5253	536.133	88.7392	536.133	88.7581	536.133	87.9547	536.133	88.106	536.133	87.6429	536.133	87.5955	536.133	87.7569	536.133	87.2474	536.133	88.0691	536.133	87.063	536.133	88.3743	536.133	87.0249	536.133	88.6118	536.133	87.1301	536.133	88.8589	536.133	87.4152	536.133	89.2131	536.133	87.9154	536.133	89.6408	536.133	88.5839	536.133	89.9757	536.133	89.2731	536.133	90.0536	536.133	89.8061
555.176	93.6132	555.176	93.4953	555.176	93.4024	555.176	93.0718	555.176	92.8641	555.176	92.389	555.176	92.026	555.176	91.5164	555.176	90.947	555.176	90.5443	555.176	89.7163	555.176	89.5813	555.176	88.4433	555.176	88.7412	555.176	87.249	555.176	88.0933	555.176	86.2868	555.176	87.6037	555.176	85.783	555.176	87.164	555.176	85.9415	555.176	86.7195	555.176	86.6878	555.176	86.3981	555.176	87.6834	555.176	86.4813	555.176	88.6165	555.176	87.0825	555.176	89.332	555.176	87.9558	555.176	89.7922	555.176	88.786	555.176	90.0137	555.176	89.4186	555.176	90.0216	555.176	89.826
574.219	93.515	574.219	93.2969	574.219	93.4446	574.219	92.8116	574.219	93.081	574.219	92.0985	574.219	92.4277	574.219	91.2035	574.219	91.4929	574.219	90.1663	574.219	90.3075	574.219	89.0314	574.219	88.9655	574.219	87.9024	574.219	87.6549	574.219	86.9935	574.219	86.6073	574.219	86.5355	574.219	85.9552	574.219	86.5126	574.219	85.6724	574.219	86.6167	574.219	85.7257	574.219	86.5591	574.219	86.1832	574.219	86.3443	574.219	87.0418	574.219	86.3212	574.219	88.0747	574.219	86.8487	574.219	88.9816	574.219	87.8023	574.219	89.5592	574.219	88.7632	574.219	89.7181	574.219	89.4414
594.727	93.4652	594.727	93.2409	594.727	93.3601	594.727	92.7129	594.727	92.9291	594.727	91.9344	594.727	92.2025	594.727	90.9805	594.727	91.2336	594.727	89.936	594.727	90.0952	594.727	88.8733	594.727	88.8887	594.727	87.8339	594.727	87.7652	594.727	86.8399	594.727	86.928	594.727	85.9559	594.727	86.5255	594.727	85.3371	594.727	86.4646	594.727	85.1186	594.727	86.4689	594.727	85.2406	594.727	86.4147	594.727	85.5518	594.727	86.5504	594.727	86.0388	594.727	87.2303	594.727	86.7964	594.727	88.2992	594.727	87.7901	594.727	89.2228	594.727	88.7766	594.727	89.6405	594.727	89.4632
615.234	93.2221	615.234	92.9969	615.234	93.0891	615.234	92.4622	615.234	92.5822	615.234	91.6959	615.234	91.7172	615.234	90.7801	615.234	90.5508	615.234	89.7631	615.234	89.2032	615.234	88.6449	615.234	87.8614	615.234	87.4199	615.234	86.7267	615.234	86.1707	615.234	85.9373	615.234	85.1495	615.234	85.5616	615.234	84.6666	615.234	85.6311	615.234	84.7499	615.234	86.0962	615.234	85.1225	615.234	86.7966	615.234	85.5784	615.234	87.5505	615.234	86.1351	615.234	88.2368	615.234	86.8673	615.234	88.7883	615.234	87.7118	615.234	89.1468	615.234	88.4857	615.234	89.2433	615.234	89.0232
637.207	92.7966	637.207	92.5404	637.207	92.7269	637.207	91.981	637.207	92.3309	637.207	91.16	637.207	91.6355	637.207	90.1433	637.207	90.6868	637.207	89.0243	637.207	89.5208	637.207	87.9001	637.207	88.1486	637.207	86.8353	637.207	86.6192	637.207	85.8707	637.207	85.1608	637.207	85.0817	637.207	84.1949	637.207	84.5776	637.207	83.9648	637.207	84.377	637.207	84.2857	637.207	84.3425	637.207	84.916	637.207	84.3566	637.207	85.7905	637.207	84.5415	637.207	86.8246	637.207	85.1588	637.207	87.7745	637.207	86.189	637.207	88.3793	637.207	87.2823	637.207	88.4981	637.207	88.11
659.18	92.5189	659.18	92.2874	659.18	92.4325	659.18	91.7588	659.18	92.0263	659.18	90.9832	659.18	91.3184	659.18	90.0407	659.18	90.3498	659.18	89.0083	659.18	89.1733	659.18	87.9195	659.18	87.8325	659.18	86.7801	659.18	86.3771	659.18	85.6181	659.18	84.9521	659.18	84.5057	659.18	83.9108	659.18	83.5976	659.18	83.6745	659.18	83.2001	659.18	84.1483	659.18	83.5527	659.18	84.7785	659.18	84.404	659.18	85.3671	659.18	85.3205	659.18	86.1726	659.18	86.1682	659.18	87.2577	659.18	87.0324	659.18	88.2249	659.18	87.8987	659.18	88.6892	659.18	88.5392
682.617	92.6022	682.617	92.3314	682.617	92.4766	682.617	91.7424	682.617	91.9103	682.617	90.9351	682.617	90.9067	682.617	89.9955	682.617	89.5446	682.617	88.9496	682.617	88.0067	682.617	87.7643	682.617	86.5735	682.617	86.4177	682.617	85.54	682.617	84.9841	682.617	84.9994	682.617	83.6892	682.617	84.724	682.617	82.8228	682.617	84.5179	682.617	82.4088	682.617	84.5823	682.617	82.2693	682.617	85.2023	682.617	82.5429	682.617	86.1838	682.617	83.5273	682.617	87.124	682.617	85.0081	682.617	87.8367	682.617	86.4553	682.617	88.2919	682.617	87.5541	682.617	88.4445	682.617	88.2159
707.52	92.3792	707.52	92.1938	707.52	92.2176	707.52	91.6859	707.52	91.7346	707.52	90.9426	707.52	90.9924	707.52	90.0991	707.52	90.0567	707.52	89.2575	707.52	88.9459	707.52	88.4012	707.52	87.6358	707.52	87.4218	707.52	86.1654	707.52	86.2231	707.52	84.7202	707.52	84.811	707.52	83.501	707.52	83.3472	707.52	82.4845	707.52	82.1476	707.52	81.5914	707.52	81.5697	707.52	81.2561	707.52	81.7243	707.52	82.1811	707.52	82.3494	707.52	83.9156	707.52	83.1732	707.52	85.4627	707.52	84.1451	707.52	86.3639	707.52	85.2054	707.52	86.5499	707.52	86.1025
732.422	92.3431	732.422	92.1347	732.422	92.2197	732.422	91.6657	732.422	91.767	732.422	91.0499	732.422	91.0432	732.422	90.3631	732.422	90.104	732.422	89.5739	732.422	88.937	732.422	88.5825	732.422	87.4637	732.422	87.3348	732.422	85.6641	732.422	85.9237	732.422	83.7995	732.422	84.6326	732.422	82.5751	732.422	83.8039	732.422	82.7121	732.422	83.4898	732.422	83.7275	732.422	83.3668	732.422	84.49	732.422	83.2165	732.422	84.604	732.422	83.3149	732.422	84.5546	732.422	84.0399	732.422	85.1101	732.422	85.146	732.422	86.063	732.422	86.1189	732.422	86.6765	732.422	86.6761
757.324	92.1019	757.324	91.8771	757.324	92.0169	757.324	91.4039	757.324	91.5781	757.324	90.7654	757.324	90.7534	757.324	90.011	757.324	89.5415	757.324	89.0802	757.324	88.0134	757.324	87.8465	757.324	86.3976	757.324	86.2643	757.324	85.091	757.324	84.442	757.324	84.2895	757.324	82.5684	757.324	83.7003	757.324	80.9254	757.324	83.1001	757.324	80.1807	757.324	83.0025	757.324	80.6533	757.324	83.9613	757.324	81.545	757.324	85.36	757.324	82.2709	757.324	86.4855	757.324	83.0179	757.324	87.1846	757.324	84.2083	757.324	87.5025	757.324	85.6488	757.324	87.409	757.324	86.7994
785.156	91.7945	785.156	91.6196	785.156	91.639	785.156	91.2109	785.156	91.1084	785.156	90.6348	785.156	90.2293	785.156	89.8647	785.156	89.0616	785.156	88.827	785.156	87.657	785.156	87.5042	785.156	86.0722	785.156	85.9781	785.156	84.4459	785.156	84.3829	785.156	83.0762	785.156	82.8522	785.156	82.3429	785.156	81.5493	785.156	82.2439	785.156	80.7711	785.156	82.2646	785.156	80.9451	785.156	82.1388	785.156	82.0469	785.156	82.286	785.156	83.3582	785.156	83.2358	785.156	84.3125	785.156	84.5506	785.156	84.8382	785.156	85.4565	785.156	85.1667	785.156	85.708	785.156	85.4989
811.523	91.9084	811.523	91.7033	811.523	91.7706	811.523	91.2077	811.523	91.2338	811.523	90.4625	811.523	90.2727	811.523	89.5091	811.523	88.8959	811.523	88.3752	811.523	87.0905	811.523	87.0388	811.523	84.837	811.523	85.4439	811.523	82.3412	811.523	83.6137	811.523	80.3102	811.523	81.7635	811.523	79.689	811.523	80.2245	811.523	80.6366	811.523	79.3018	811.523	82.2245	811.523	79.1436	811.523	83.4853	811.523	79.6937	811.523	84.0649	811.523	81.01	811.523	84.2146	811.523	82.8684	811.523	84.5696	811.523	84.6021	811.523	85.3426	811.523	85.7598	811.523	86.0377	811.523	86.2273
840.82	91.8291	840.82	91.6045	840.82	91.6876	840.82	91.0941	840.82	91.212	840.82	90.4437	840.82	90.4307	840.82	89.6725	840.82	89.2525	840.82	88.6034	840.82	87.5333	840.82	87.0601	840.82	85.3334	840.82	85.132	840.82	83.1067	840.82	83.2019	840.82	81.34	840.82	81.4541	840.82	79.9967	840.82	79.7221	840.82	78.9824	840.82	78.3168	840.82	78.7246	840.82	78.0186	840.82	79.7001	840.82	78.8124	840.82	81.5269	840.82	80.0788	840.82	83.3856	840.82	81.4733	840.82	84.795	840.82	82.9141	840.82	85.6086	840.82	84.2784	840.82	85.7841	840.82	85.3111
870.117	91.9854	870.117	91.8181	870.117	91.6696	870.117	91.1813	870.117	90.93	870.117	90.1554	870.117	89.8318	870.117	88.8263	870.117	88.3882	870.117	87.2486	870.117	86.6179	870.117	85.4474	870.117	84.6255	870.117	83.4447	870.117	82.5464	870.117	81.3262	870.117	80.7812	870.117	79.1567	870.117	80.0679	870.117	77.183	870.117	80.2069	870.117	76.1776	870.117	80.6464	870.117	76.4399	870.117	81.244	870.117	77.5599	870.117	81.7323	870.117	79.3628	870.117	82.0525	870.117	81.4371	870.117	82.8414	870.117	83.2108	870.117	84.1626	870.117	84.4762	870.117	85.0887	870.117	85.1613
900.879	92.0194	900.879	91.5853	900.879	91.9059	900.879	90.6845	900.879	91.2873	900.879	89.4457	900.879	90.2582	900.879	87.9083	900.879	88.8401	900.879	86.0333	900.879	86.9625	900.879	83.9193	900.879	84.5986	900.879	81.963	900.879	81.8679	900.879	80.5349	900.879	78.9853	900.879	79.2996	900.879	76.5899	900.879	77.2288	900.879	76.4518	900.879	73.5526	900.879	78.3366	900.879	71.4362	900.879	80.3519	900.879	74.0629	900.879	82.0703	900.879	76.5933	900.879	83.4677	900.879	78.8478	900.879	84.4146	900.879	81.1344	900.879	84.8733	900.879	83.0653	900.879	84.8661	900.879	84.311
933.105	92.1115	933.105	91.611	933.105	91.998	933.105	90.6692	933.105	91.2529	933.105	89.3993	933.105	90.0216	933.105	87.7655	933.105	88.4525	933.105	85.7762	933.105	86.5735	933.105	83.5788	933.105	84.4169	933.105	81.6453	933.105	82.2298	933.105	80.4543	933.105	80.261	933.105	79.5306	933.105	78.6586	933.105	78.274	933.105	78.3256	933.105	76.6141	933.105	79.5559	933.105	75.0464	933.105	81.0433	933.105	75.199	933.105	82.2543	933.105	77.2384	933.105	83.3176	933.105	79.2883	933.105	84.3593	933.105	81.1329	933.105	85.2057	933.105	83.112	933.105	85.4437	933.105	84.7358
965.332	92.8825	965.332	92.5154	965.332	92.6993	965.332	91.5615	965.332	91.9454	965.332	89.8681	965.332	90.6464	965.332	87.3122	965.332	88.9549	965.332	84.1547	965.332	87.1304	965.332	81.3346	965.332	85.2091	965.332	79.9584	965.332	82.8031	965.332	79.951	965.332	79.7295	965.332	80.1113	965.332	76.7097	965.332	79.3421	965.332	75.1121	965.332	76.8719	965.332	76.2924	965.332	71.4217	965.332	79.298	965.332	67.4475	965.332	82.0143	965.332	75.6954	965.332	83.9048	965.332	79.924	965.332	84.9174	965.332	82.07	965.332	85.1577	965.332	83.2764	965.332	84.8429	965.332	84.1619
1,000.49	93.5875	1,000.49	93.4919	1,000.49	93.1022	1,000.49	92.8383	1,000.49	92.0569	1,000.49	91.4445	1,000.49	90.6296	1,000.49	88.9488	1,000.49	89.0011	1,000.49	85.2251	1,000.49	87.1197	1,000.49	81.1494	1,000.49	84.7471	1,000.49	78.8106	1,000.49	81.9311	1,000.49	78.4039	1,000.49	79.0514	1,000.49	78.1728	1,000.49	75.7264	1,000.49	77.6915	1,000.49	73.1664	1,000.49	77.9669	1,000.49	74.9446	1,000.49	78.4084	1,000.49	77.7705	1,000.49	77.7402	1,000.49	80.5841	1,000.49	76.8851	1,000.49	83.2542	1,000.49	77.9194	1,000.49	85.1705	1,000.49	80.1036	1,000.49	86.0075	1,000.49	82.4487	1,000.49	85.7564	1,000.49	84.4965
1,035.64	93.7566	1,035.64	93.7082	1,035.64	93.3839	1,035.64	93.0959	1,035.64	92.5844	1,035.64	91.5855	1,035.64	91.298	1,035.64	88.842	1,035.64	89.4381	1,035.64	84.9492	1,035.64	87.0375	1,035.64	80.9585	1,035.64	84.5314	1,035.64	78.0952	1,035.64	82.5481	1,035.64	76.3376	1,035.64	80.8878	1,035.64	74.8958	1,035.64	78.4884	1,035.64	73.6935	1,035.64	74.5554	1,035.64	73.5013	1,035.64	70.6912	1,035.64	73.8617	1,035.64	74.9888	1,035.64	74.0356	1,035.64	80.8722	1,035.64	76.2081	1,035.64	84.8469	1,035.64	80.3963	1,035.64	86.9275	1,035.64	83.4009	1,035.64	87.4094	1,035.64	84.9572	1,035.64	86.8302	1,035.64	85.9037
1,072.27	93.3652	1,072.27	93.4212	1,072.27	92.9591	1,072.27	92.929	1,072.27	92.1696	1,072.27	91.4812	1,072.27	90.858	1,072.27	88.796	1,072.27	88.8462	1,072.27	85.2869	1,072.27	86.1142	1,072.27	82.065	1,072.27	83.1841	1,072.27	78.9476	1,072.27	80.8527	1,072.27	74.5584	1,072.27	78.8304	1,072.27	69.6187	1,072.27	76.1931	1,072.27	70.6072	1,072.27	73.0455	1,072.27	74.7821	1,072.27	72.3273	1,072.27	76.6227	1,072.27	76.1751	1,072.27	76.039	1,072.27	79.3793	1,072.27	74.7032	1,072.27	81.7164	1,072.27	77.2008	1,072.27	84.3614	1,072.27	81.0985	1,072.27	86.2144	1,072.27	83.8591	1,072.27	86.5814	1,072.27	85.6772
1,108.89	93.0779	1,108.89	93.1117	1,108.89	92.4134	1,108.89	92.4702	1,108.89	91.2979	1,108.89	91.0623	1,108.89	89.8819	1,108.89	88.6816	1,108.89	87.9634	1,108.89	85.4473	1,108.89	85.1908	1,108.89	82.1601	1,108.89	81.8053	1,108.89	78.8656	1,108.89	78.8586	1,108.89	75.0682	1,108.89	77.0368	1,108.89	72.2348	1,108.89	75.7577	1,108.89	71.5447	1,108.89	74.5665	1,108.89	71.1246	1,108.89	71.8498	1,108.89	69.0948	1,108.89	68.4005	1,108.89	68.3739	1,108.89	76.1205	1,108.89	72.9519	1,108.89	81.4719	1,108.89	77.7149	1,108.89	84.4747	1,108.89	81.3151	1,108.89	85.9139	1,108.89	83.8913	1,108.89	86.1873	1,108.89	85.5007
1,148.44	92.4728	1,148.44	92.5215	1,148.44	91.8247	1,148.44	91.8546	1,148.44	90.6621	1,148.44	90.2277	1,148.44	89.0184	1,148.44	87.5249	1,148.44	86.7281	1,148.44	84.3926	1,148.44	83.656	1,148.44	81.5333	1,148.44	80.151	1,148.44	77.6526	1,148.44	76.4451	1,148.44	71.1266	1,148.44	72.2537	1,148.44	63.7258	1,148.44	68.4732	1,148.44	65.9647	1,148.44	68.3832	1,148.44	70.5638	1,148.44	71.7208	1,148.44	73.0446	1,148.44	76.0175	1,148.44	74.3504	1,148.44	78.579	1,148.44	74.9063	1,148.44	80.2537	1,148.44	75.8214	1,148.44	82.5107	1,148.44	78.6748	1,148.44	84.3376	1,148.44	81.6966	1,148.44	84.7182	1,148.44	83.7479
1,189.45	92.0292	1,189.45	91.8578	1,189.45	91.4085	1,189.45	90.8446	1,189.45	90.0759	1,189.45	88.889	1,189.45	88.0705	1,189.45	85.9978	1,189.45	85.207	1,189.45	82.5534	1,189.45	81.126	1,189.45	78.2636	1,189.45	75.581	1,189.45	71.4651	1,189.45	67.8076	1,189.45	57.3274	1,189.45	60.077	1,189.45	56.9426	1,189.45	59.0889	1,189.45	64.2932	1,189.45	62.283	1,189.45	67.9182	1,189.45	66.6246	1,189.45	67.8816	1,189.45	67.8951	1,189.45	69.4748	1,189.45	71.462	1,189.45	68.7262	1,189.45	78.6032	1,189.45	74.3602	1,189.45	82.4949	1,189.45	79.4076	1,189.45	83.8151	1,189.45	82.352	1,189.45	84.0439	1,189.45	83.7128
1,230.47	92.8194	1,230.47	92.5134	1,230.47	92.2537	1,230.47	91.3806	1,230.47	90.7285	1,230.47	89.235	1,230.47	88.2297	1,230.47	85.9079	1,230.47	84.8523	1,230.47	81.8756	1,230.47	80.7598	1,230.47	77.3295	1,230.47	76.2094	1,230.47	70.1303	1,230.47	71.5466	1,230.47	60.6798	1,230.47	68.3516	1,230.47	68.0416	1,230.47	67.5213	1,230.47	70.8277	1,230.47	66.2117	1,230.47	70.303	1,230.47	62.3068	1,230.47	65.0816	1,230.47	65.8175	1,230.47	66.0145	1,230.47	74.3966	1,230.47	71.0037	1,230.47	79.3786	1,230.47	73.9908	1,230.47	82.1855	1,230.47	77.9321	1,230.47	83.6846	1,230.47	81.5236	1,230.47	84.2129	1,230.47	83.609
1,274.41	93.1829	1,274.41	92.8446	1,274.41	92.4189	1,274.41	91.4875	1,274.41	90.5304	1,274.41	89.1356	1,274.41	87.6691	1,274.41	85.9848	1,274.41	84.0511	1,274.41	82.5657	1,274.41	79.7116	1,274.41	78.4366	1,274.41	74.4888	1,274.41	71.0985	1,274.41	67.813	1,274.41	65.6357	1,274.41	63.9023	1,274.41	69.7916	1,274.41	65.5852	1,274.41	70.5301	1,274.41	66.5889	1,274.41	69.1659	1,274.41	65.5058	1,274.41	64.7837	1,274.41	57.8708	1,274.41	65.5893	1,274.41	61.6199	1,274.41	70.7076	1,274.41	72.8608	1,274.41	74.1759	1,274.41	78.959	1,274.41	77.6297	1,274.41	82.3916	1,274.41	81.1805	1,274.41	83.851	1,274.41	83.4562
1,319.82	93.3876	1,319.82	92.9817	1,319.82	92.7867	1,319.82	91.707	1,319.82	90.945	1,319.82	89.4014	1,319.82	87.8451	1,319.82	86.2124	1,319.82	83.6588	1,319.82	82.5767	1,319.82	78.5882	1,319.82	76.9517	1,319.82	72.3049	1,319.82	63.0142	1,319.82	62.5599	1,319.82	61.888	1,319.82	63.3907	1,319.82	66.9088	1,319.82	68.9354	1,319.82	71.112	1,319.82	69.8087	1,319.82	73.3599	1,319.82	67.1122	1,319.82	71.674	1,319.82	65.3028	1,319.82	69.512	1,319.82	50.7507	1,319.82	71.4953	1,319.82	72.147	1,319.82	74.0655	1,319.82	79.3191	1,319.82	77.4216	1,319.82	82.4767	1,319.82	80.7311	1,319.82	83.6259	1,319.82	82.9941
1,366.7	92.965	1,366.7	92.8762	1,366.7	92.2333	1,366.7	91.7347	1,366.7	90.6162	1,366.7	89.1401	1,366.7	87.849	1,366.7	85.3162	1,366.7	83.396	1,366.7	80.7407	1,366.7	76.6854	1,366.7	72.7618	1,366.7	68.4007	1,366.7	60.0017	1,366.7	64.5014	1,366.7	65.9778	1,366.7	69.3883	1,366.7	66.7375	1,366.7	71.7121	1,366.7	71.879	1,366.7	68.6835	1,366.7	74.958	1,366.7	67.4909	1,366.7	74.5864	1,366.7	68.3339	1,366.7	71.5109	1,366.7	51.3708	1,366.7	67.1085	1,366.7	71.7544	1,366.7	71.6405	1,366.7	77.9125	1,366.7	76.7878	1,366.7	81.5233	1,366.7	80.799	1,366.7	83.4602	1,366.7	83.2317
1,413.57	92.3371	1,413.57	92.3739	1,413.57	91.6308	1,413.57	91.1939	1,413.57	90.1279	1,413.57	88.3848	1,413.57	87.1817	1,413.57	84.3665	1,413.57	82.3228	1,413.57	78.3525	1,413.57	75.245	1,413.57	64.9422	1,413.57	61.9297	1,413.57	67.304	1,413.57	66.6274	1,413.57	73.3527	1,413.57	69.9823	1,413.57	75.5765	1,413.57	71.377	1,413.57	74.4375	1,413.57	69.8797	1,413.57	73.3169	1,413.57	68.4071	1,413.57	74.8076	1,413.57	63.5104	1,413.57	73.7827	1,413.57	62.0662	1,413.57	68.0174	1,413.57	66.542	1,413.57	70.3328	1,413.57	77.0018	1,413.57	76.0203	1,413.57	80.9944	1,413.57	80.1714	1,413.57	82.0846	1,413.57	81.9855
1,463.38	91.5027	1,463.38	91.5925	1,463.38	90.7566	1,463.38	90.342	1,463.38	89.3477	1,463.38	87.5816	1,463.38	86.5028	1,463.38	83.3952	1,463.38	81.7442	1,463.38	75.8095	1,463.38	74.8329	1,463.38	54.3595	1,463.38	67.5726	1,463.38	68.255	1,463.38	71.8836	1,463.38	74.7688	1,463.38	75.1396	1,463.38	75.5558	1,463.38	75.8022	1,463.38	73.8658	1,463.38	72.674	1,463.38	73.9066	1,463.38	68.2871	1,463.38	74.9037	1,463.38	68.4634	1,463.38	74.5016	1,463.38	66.5798	1,463.38	72.1502	1,463.38	59.474	1,463.38	70.6579	1,463.38	75.5804	1,463.38	74.4966	1,463.38	79.8731	1,463.38	77.6466	1,463.38	80.9392	1,463.38	80.1041
1,516.11	90.7306	1,516.11	90.6693	1,516.11	90.1285	1,516.11	89.677	1,516.11	88.7946	1,516.11	87.5261	1,516.11	85.868	1,516.11	83.3553	1,516.11	80.3117	1,516.11	74.688	1,516.11	71.7343	1,516.11	55.761	1,516.11	66.5546	1,516.11	71.6658	1,516.11	73.4693	1,516.11	75.5587	1,516.11	74.0058	1,516.11	73.588	1,516.11	72.4345	1,516.11	70.1145	1,516.11	72.7542	1,516.11	73.0886	1,516.11	73.2777	1,516.11	75.2343	1,516.11	70.6105	1,516.11	74.6441	1,516.11	56.8417	1,516.11	70.334	1,516.11	63.1116	1,516.11	66.9988	1,516.11	74.3905	1,516.11	72.5245	1,516.11	79.3682	1,516.11	76.0973	1,516.11	80.0638	1,516.11	78.6353
1,568.85	90.3182	1,568.85	89.8764	1,568.85	89.8881	1,568.85	88.4905	1,568.85	88.013	1,568.85	85.7331	1,568.85	83.9799	1,568.85	80.2854	1,568.85	77.3461	1,568.85	69.1809	1,568.85	66.1592	1,568.85	67.5356	1,568.85	68.5741	1,568.85	74.3488	1,568.85	75.6994	1,568.85	73.7939	1,568.85	76.4078	1,568.85	75.6349	1,568.85	75.7086	1,568.85	76.9401	1,568.85	75.6901	1,568.85	73.8365	1,568.85	74.0283	1,568.85	73.3132	1,568.85	71.825	1,568.85	74.3593	1,568.85	70.5404	1,568.85	75.0685	1,568.85	61.1737	1,568.85	70.1013	1,568.85	72.1747	1,568.85	70.1376	1,568.85	77.5295	1,568.85	73.7454	1,568.85	78.897	1,568.85	76.7671
1,624.51	91.1134	1,624.51	90.5882	1,624.51	89.9776	1,624.51	88.3668	1,624.51	87.4165	1,624.51	84.9615	1,624.51	83.0339	1,624.51	80.1332	1,624.51	76.1063	1,624.51	71.9035	1,624.51	58.4938	1,624.51	69.6047	1,624.51	72.1918	1,624.51	75.6503	1,624.51	76.3247	1,624.51	75.9809	1,624.51	78.4803	1,624.51	78.8339	1,624.51	79.4425	1,624.51	79.1882	1,624.51	77.4611	1,624.51	77.6595	1,624.51	73.092	1,624.51	76.2386	1,624.51	74.2299	1,624.51	72.3388	1,624.51	70.4374	1,624.51	74.3153	1,624.51	61.9549	1,624.51	70.1637	1,624.51	69.2874	1,624.51	60.4141	1,624.51	78.3043	1,624.51	71.098	1,624.51	80.1876	1,624.51	77.9177
1,681.64	91.9837	1,681.64	91.2652	1,681.64	90.7994	1,681.64	88.1896	1,681.64	88.1811	1,681.64	83.7014	1,681.64	82.8894	1,681.64	78.7802	1,681.64	70.2476	1,681.64	73.4264	1,681.64	68.449	1,681.64	75.409	1,681.64	71.4342	1,681.64	76.2798	1,681.64	75.7114	1,681.64	76.5887	1,681.64	79.9716	1,681.64	75.735	1,681.64	79.5416	1,681.64	78.6205	1,681.64	79.6602	1,681.64	79.5089	1,681.64	80.4862	1,681.64	78.938	1,681.64	76.1134	1,681.64	76.4816	1,681.64	76.5088	1,681.64	74.4755	1,681.64	66.0364	1,681.64	70.6979	1,681.64	70.9357	1,681.64	71.5083	1,681.64	76.4563	1,681.64	76.8911	1,681.64	80.1161	1,681.64	80.3092
1,741.7	92.5501	1,741.7	91.8695	1,741.7	91.0135	1,741.7	89.3462	1,741.7	87.4286	1,741.7	84.8993	1,741.7	81.6802	1,741.7	77.2043	1,741.7	68.5188	1,741.7	70.3546	1,741.7	74.2613	1,741.7	76.6507	1,741.7	76.182	1,741.7	76.9895	1,741.7	78.3295	1,741.7	79.5381	1,741.7	79.0646	1,741.7	77.7707	1,741.7	78.831	1,741.7	78.9504	1,741.7	80.35	1,741.7	80.1656	1,741.7	79.5978	1,741.7	79.8066	1,741.7	78.5729	1,741.7	78.9622	1,741.7	77.3461	1,741.7	73.4713	1,741.7	74.4923	1,741.7	69.1619	1,741.7	59.854	1,741.7	68.0041	1,741.7	76.4884	1,741.7	74.4637	1,741.7	80.7418	1,741.7	80.0163
1,803.22	92.3687	1,803.22	91.7845	1,803.22	91.3277	1,803.22	90.4855	1,803.22	87.3705	1,803.22	86.1533	1,803.22	80.1624	1,803.22	76.9691	1,803.22	61.9714	1,803.22	75.5116	1,803.22	77.0649	1,803.22	73.1451	1,803.22	79.1717	1,803.22	77.1959	1,803.22	79.7127	1,803.22	80.1708	1,803.22	81.0105	1,803.22	79.2827	1,803.22	82.1661	1,803.22	76.6517	1,803.22	80.584	1,803.22	80.7078	1,803.22	79.1405	1,803.22	79.2949	1,803.22	79.2006	1,803.22	77.5983	1,803.22	64.9782	1,803.22	75.686	1,803.22	72.2621	1,803.22	73.8891	1,803.22	65.0641	1,803.22	75.5351	1,803.22	77.4519	1,803.22	76.6011	1,803.22	80.8093	1,803.22	77.4682
1,866.21	91.3287	1,866.21	91.4363	1,866.21	90.8508	1,866.21	90.4499	1,866.21	88.2084	1,866.21	86.1297	1,866.21	81.9308	1,866.21	69.555	1,866.21	66.8691	1,866.21	74.7614	1,866.21	73.6686	1,866.21	71.378	1,866.21	80.1713	1,866.21	83.0699	1,866.21	82.7913	1,866.21	81.8011	1,866.21	82.7806	1,866.21	78.815	1,866.21	81.9633	1,866.21	79.5516	1,866.21	79.5221	1,866.21	77.1949	1,866.21	78.0597	1,866.21	78.1648	1,866.21	78.2011	1,866.21	77.1075	1,866.21	75.0957	1,866.21	63.5756	1,866.21	73.8123	1,866.21	72.7647	1,866.21	56.8259	1,866.21	69.6872	1,866.21	80.4444	1,866.21	76.8522	1,866.21	80.6153	1,866.21	74.3872
1,932.13	91.6641	1,932.13	91.9211	1,932.13	91.1914	1,932.13	90.3939	1,932.13	88.4816	1,932.13	85.5828	1,932.13	82.4262	1,932.13	75.6575	1,932.13	73.0757	1,932.13	73.9373	1,932.13	73.3477	1,932.13	80.1573	1,932.13	79.3516	1,932.13	81.5165	1,932.13	84.27	1,932.13	77.614	1,932.13	84.4888	1,932.13	78.332	1,932.13	81.2025	1,932.13	76.718	1,932.13	82.2182	1,932.13	72.4929	1,932.13	81.215	1,932.13	68.7658	1,932.13	70.8918	1,932.13	78.971	1,932.13	69.4833	1,932.13	77.9294	1,932.13	74.6262	1,932.13	64.109	1,932.13	71.0796	1,932.13	67.1087	1,932.13	77.6636	1,932.13	75.647	1,932.13	78.4434	1,932.13	76.7913
1,999.51	92.6268	1,999.51	92.2015	1,999.51	91.2608	1,999.51	89.1494	1,999.51	87.5364	1,999.51	84.3936	1,999.51	81.1733	1,999.51	74.5617	1,999.51	76.196	1,999.51	60.9489	1,999.51	74.0833	1,999.51	81.0969	1,999.51	80.8786	1,999.51	83.3489	1,999.51	82.187	1,999.51	77.626	1,999.51	82.8755	1,999.51	79.7984	1,999.51	83.3608	1,999.51	77.1346	1,999.51	79.1237	1,999.51	76.015	1,999.51	76.7291	1,999.51	77.1795	1,999.51	73.5121	1,999.51	81.3311	1,999.51	70.7585	1,999.51	82.9476	1,999.51	76.0857	1,999.51	73.8726	1,999.51	73.7313	1,999.51	76.06	1,999.51	79.0129	1,999.51	77.072	1,999.51	77.904	1,999.51	77.2831
2,069.82	93.5126	2,069.82	93.3016	2,069.82	92.3469	2,069.82	89.0378	2,069.82	88.5603	2,069.82	83.5086	2,069.82	78.185	2,069.82	78.5824	2,069.82	76.1308	2,069.82	79.8835	2,069.82	76.0599	2,069.82	81.5424	2,069.82	78.1195	2,069.82	78.7746	2,069.82	80.7072	2,069.82	76.0885	2,069.82	81.4542	2,069.82	75.1648	2,069.82	81.5939	2,069.82	76.5876	2,069.82	77.9755	2,069.82	75.4472	2,069.82	70.4873	2,069.82	71.9776	2,069.82	71.3229	2,069.82	73.1902	2,069.82	78.5293	2,069.82	81.6885	2,069.82	77.3	2,069.82	75.3781	2,069.82	72.4725	2,069.82	64.4721	2,069.82	76.3397	2,069.82	74.776	2,069.82	76.6699	2,069.82	78.2088
2,143.07	93.808	2,143.07	93.581	2,143.07	92.0929	2,143.07	89.7582	2,143.07	89.3074	2,143.07	84.9001	2,143.07	80.9582	2,143.07	80.246	2,143.07	76.3638	2,143.07	77.6226	2,143.07	80.9559	2,143.07	77.7702	2,143.07	78.9228	2,143.07	71.0489	2,143.07	74.2264	2,143.07	77.8475	2,143.07	80.9208	2,143.07	75.4369	2,143.07	79.7566	2,143.07	78.5957	2,143.07	79.6825	2,143.07	73.6842	2,143.07	75.0787	2,143.07	78.4038	2,143.07	72.4138	2,143.07	75.3273	2,143.07	77.2474	2,143.07	80.3897	2,143.07	72.8291	2,143.07	78.6335	2,143.07	73.7532	2,143.07	68.6616	2,143.07	74.1251	2,143.07	70.0445	2,143.07	77.838	2,143.07	78.1949
2,219.24	92.5227	2,219.24	93.0976	2,219.24	90.9818	2,219.24	91.1319	2,219.24	88.9908	2,219.24	85.5022	2,219.24	84.3589	2,219.24	79.7733	2,219.24	79	2,219.24	82.0079	2,219.24	78.8943	2,219.24	71.4428	2,219.24	78.2868	2,219.24	70.2412	2,219.24	77.8107	2,219.24	80.5461	2,219.24	71.5978	2,219.24	80.8633	2,219.24	80.9813	2,219.24	74.1377	2,219.24	78.0076	2,219.24	67.9543	2,219.24	77.1619	2,219.24	77.8146	2,219.24	72.4424	2,219.24	72.6025	2,219.24	74.4067	2,219.24	73.5741	2,219.24	69.2568	2,219.24	75.3077	2,219.24	68.4239	2,219.24	67.686	2,219.24	79.8373	2,219.24	65.987	2,219.24	78.8081	2,219.24	69.3734
2,296.88	92.5297	2,296.88	92.3409	2,296.88	90.5555	2,296.88	91.429	2,296.88	89.49	2,296.88	88.4659	2,296.88	85.7735	2,296.88	80.8603	2,296.88	80.7469	2,296.88	79.2734	2,296.88	78.21	2,296.88	80.0247	2,296.88	80.179	2,296.88	82.9254	2,296.88	77.6892	2,296.88	75.7175	2,296.88	74.4608	2,296.88	77.4634	2,296.88	71.7225	2,296.88	77.484	2,296.88	75.2097	2,296.88	75.5814	2,296.88	76.8728	2,296.88	75.5943	2,296.88	76.4463	2,296.88	78.7016	2,296.88	71.9663	2,296.88	73.842	2,296.88	74.7109	2,296.88	78.1799	2,296.88	75.508	2,296.88	72.5954	2,296.88	76.239	2,296.88	71.6608	2,296.88	74.4686	2,296.88	71.9443
2,378.91	93.5008	2,378.91	92.0429	2,378.91	90.3292	2,378.91	90.3267	2,378.91	87.2086	2,378.91	86.912	2,378.91	86.0987	2,378.91	80.701	2,378.91	81.873	2,378.91	81.5642	2,378.91	81.4584	2,378.91	82.0501	2,378.91	80.8444	2,378.91	85.1536	2,378.91	80.8257	2,378.91	81.4983	2,378.91	79.8137	2,378.91	75.4443	2,378.91	74.2951	2,378.91	77.8059	2,378.91	77.3355	2,378.91	79.1978	2,378.91	80.4764	2,378.91	73.9484	2,378.91	76.0798	2,378.91	68.4943	2,378.91	80.9203	2,378.91	79.2185	2,378.91	75.7364	2,378.91	80.0956	2,378.91	74.426	2,378.91	77.5447	2,378.91	71.5877	2,378.91	71.2085	2,378.91	71.0999	2,378.91	75.156
2,462.4	94.994	2,462.4	94.3017	2,462.4	92.7433	2,462.4	91.4669	2,462.4	86.252	2,462.4	86.8524	2,462.4	83.7221	2,462.4	84.8154	2,462.4	84.4901	2,462.4	82.8446	2,462.4	83.472	2,462.4	83.7713	2,462.4	79.9331	2,462.4	79.6748	2,462.4	78.2737	2,462.4	80.7356	2,462.4	77.5068	2,462.4	78.5413	2,462.4	81.0329	2,462.4	77.7043	2,462.4	76.3539	2,462.4	77.2831	2,462.4	78.3762	2,462.4	76.9723	2,462.4	80.3648	2,462.4	72.8826	2,462.4	76.533	2,462.4	77.3208	2,462.4	75.5508	2,462.4	78.2776	2,462.4	74.2462	2,462.4	77.0037	2,462.4	74.4927	2,462.4	64.8157	2,462.4	77.8552	2,462.4	72.5026
2,548.83	94.2697	2,548.83	94.0483	2,548.83	93.382	2,548.83	90.9532	2,548.83	88.9289	2,548.83	85.5242	2,548.83	81.3416	2,548.83	85.2584	2,548.83	82.4192	2,548.83	84.8776	2,548.83	84.2074	2,548.83	83.153	2,548.83	80.725	2,548.83	81.6044	2,548.83	72.9124	2,548.83	78.6188	2,548.83	79.3459	2,548.83	75.4284	2,548.83	82.4153	2,548.83	76.6757	2,548.83	74.4493	2,548.83	78.9066	2,548.83	74.9885	2,548.83	78.2669	2,548.83	80.6013	2,548.83	74.7033	2,548.83	75.2464	2,548.83	75.6914	2,548.83	75.0295	2,548.83	77.9393	2,548.83	73.8666	2,548.83	78.0791	2,548.83	75.0979	2,548.83	71.28	2,548.83	77.7408	2,548.83	73.0003
2,639.65	92.6071	2,639.65	92.2651	2,639.65	91.6367	2,639.65	89.6214	2,639.65	89.0339	2,639.65	86.6627	2,639.65	83.7529	2,639.65	85.4941	2,639.65	83.5933	2,639.65	84.6819	2,639.65	84.8687	2,639.65	83.2952	2,639.65	80.5398	2,639.65	81.2829	2,639.65	79.4307	2,639.65	82.0211	2,639.65	80.6694	2,639.65	80.707	2,639.65	81.2742	2,639.65	76.7153	2,639.65	75.3245	2,639.65	75.3224	2,639.65	73.2262	2,639.65	78.0684	2,639.65	78.0983	2,639.65	74.7899	2,639.65	76.1232	2,639.65	76.6965	2,639.65	74.8358	2,639.65	77.883	2,639.65	72.8808	2,639.65	79.1464	2,639.65	72.5539	2,639.65	69.679	2,639.65	76.09	2,639.65	67.9827
2,731.93	92.1554	2,731.93	90.6349	2,731.93	90.0484	2,731.93	87.667	2,731.93	87.1846	2,731.93	86.1954	2,731.93	84.1444	2,731.93	83.1178	2,731.93	84.4854	2,731.93	83.5836	2,731.93	83.9205	2,731.93	82.9652	2,731.93	81.8802	2,731.93	82.8967	2,731.93	80.1004	2,731.93	78.9592	2,731.93	78.017	2,731.93	76.0797	2,731.93	76.4838	2,731.93	73.662	2,731.93	69.3976	2,731.93	75.8507	2,731.93	72.4801	2,731.93	76.4447	2,731.93	80.4684	2,731.93	75.6528	2,731.93	75.3118	2,731.93	68.1276	2,731.93	75.2674	2,731.93	76.8403	2,731.93	75.0162	2,731.93	76.8493	2,731.93	74.848	2,731.93	65.1016	2,731.93	77.3061	2,731.93	68.3813
2,828.61	93.1048	2,828.61	91.3563	2,828.61	90.2998	2,828.61	88.0567	2,828.61	85.4792	2,828.61	85.031	2,828.61	83.5095	2,828.61	84.2458	2,828.61	84.6003	2,828.61	83.7744	2,828.61	82.2514	2,828.61	83.1963	2,828.61	79.226	2,828.61	81.0255	2,828.61	79.0993	2,828.61	78.7395	2,828.61	80.1179	2,828.61	70.6472	2,828.61	74.2756	2,828.61	74.4739	2,828.61	76.5095	2,828.61	72.4004	2,828.61	72.2148	2,828.61	78.0567	2,828.61	80.6568	2,828.61	77.096	2,828.61	76.6021	2,828.61	72.4772	2,828.61	71.7977	2,828.61	72.5038	2,828.61	72.568	2,828.61	75.0359	2,828.61	73.1795	2,828.61	70.8138	2,828.61	77.7467	2,828.61	74.1259
2,928.22	92.9381	2,928.22	91.4797	2,928.22	91.2257	2,928.22	88.7159	2,928.22	85.9097	2,928.22	85.0676	2,928.22	83.3914	2,928.22	85.2642	2,928.22	83.1375	2,928.22	83.8286	2,928.22	81.067	2,928.22	81.9886	2,928.22	79.7654	2,928.22	77.5186	2,928.22	78.7841	2,928.22	74.6862	2,928.22	77.4698	2,928.22	75.869	2,928.22	70.7719	2,928.22	67.6586	2,928.22	76.4489	2,928.22	71.2465	2,928.22	78.3947	2,928.22	73.2146	2,928.22	77.6138	2,928.22	78.924	2,928.22	78.6296	2,928.22	73.93	2,928.22	70.7513	2,928.22	74.008	2,928.22	54.9673	2,928.22	75.1257	2,928.22	71.2542	2,928.22	74.2781	2,928.22	75.9119	2,928.22	71.5725
3,030.76	92.3581	3,030.76	91.2173	3,030.76	91.5679	3,030.76	88.9006	3,030.76	86.3243	3,030.76	86.4753	3,030.76	83.6562	3,030.76	85.3774	3,030.76	81.4067	3,030.76	83.0177	3,030.76	80.3464	3,030.76	78.4269	3,030.76	78.8338	3,030.76	73.0975	3,030.76	77.1427	3,030.76	75.0946	3,030.76	74.352	3,030.76	73.6104	3,030.76	65.0806	3,030.76	71.9084	3,030.76	75.6439	3,030.76	67.7041	3,030.76	76.7654	3,030.76	59.6634	3,030.76	74.7027	3,030.76	75.4885	3,030.76	78.2529	3,030.76	76.3344	3,030.76	72.0878	3,030.76	73.8835	3,030.76	65.7325	3,030.76	77.1479	3,030.76	69.9733	3,030.76	75.282	3,030.76	72.1872	3,030.76	71.73
3,137.7	91.8412	3,137.7	91.359	3,137.7	90.8257	3,137.7	89.1664	3,137.7	86.8243	3,137.7	86.2991	3,137.7	83.3776	3,137.7	83.2256	3,137.7	80.3982	3,137.7	80.6108	3,137.7	80.3619	3,137.7	76.5511	3,137.7	75.8853	3,137.7	79.6015	3,137.7	77.2836	3,137.7	77.035	3,137.7	62.0346	3,137.7	74.1174	3,137.7	66.531	3,137.7	76.234	3,137.7	74.1184	3,137.7	73.0326	3,137.7	69.9911	3,137.7	72.4337	3,137.7	72.6496	3,137.7	72.0703	3,137.7	75.2587	3,137.7	76.2843	3,137.7	70.0961	3,137.7	73.23	3,137.7	68.2824	3,137.7	77.3318	3,137.7	71.5171	3,137.7	74.2317	3,137.7	71.788	3,137.7	67.5109
3,249.02	91.8011	3,249.02	91.4639	3,249.02	90.3352	3,249.02	87.8131	3,249.02	85.536	3,249.02	84.7537	3,249.02	83.6946	3,249.02	81.8278	3,249.02	80.8702	3,249.02	79.6454	3,249.02	82.1268	3,249.02	81.7438	3,249.02	79.5607	3,249.02	82.3339	3,249.02	78.5406	3,249.02	78.7536	3,249.02	73.0572	3,249.02	79.9325	3,249.02	75.6756	3,249.02	75.8596	3,249.02	77.6114	3,249.02	76.0335	3,249.02	76.9812	3,249.02	71.4957	3,249.02	72.7479	3,249.02	74.8727	3,249.02	78.0518	3,249.02	77.0316	3,249.02	74.0263	3,249.02	74.9184	3,249.02	70.0744	3,249.02	77.5956	3,249.02	71.6667	3,249.02	72.1386	3,249.02	71.431	3,249.02	63.525
3,363.28	92.4811	3,363.28	91.7065	3,363.28	90.5126	3,363.28	86.0301	3,363.28	83.987	3,363.28	82.0204	3,363.28	82.0937	3,363.28	80.7656	3,363.28	81.9182	3,363.28	82.3744	3,363.28	82.2845	3,363.28	83.6626	3,363.28	82.5593	3,363.28	81.7238	3,363.28	83.0833	3,363.28	82.9452	3,363.28	79.6465	3,363.28	80.9333	3,363.28	81.4735	3,363.28	77.3378	3,363.28	80.7636	3,363.28	76.5829	3,363.28	78.7373	3,363.28	72.8762	3,363.28	73.3194	3,363.28	74.6931	3,363.28	79.6007	3,363.28	76.6989	3,363.28	75.6189	3,363.28	73.7399	3,363.28	71.2726	3,363.28	75.8922	3,363.28	72.3012	3,363.28	67.6762	3,363.28	72.8114	3,363.28	63.5004
3,481.93	92.8697	3,481.93	91.6053	3,481.93	90.4121	3,481.93	86.5459	3,481.93	83.7669	3,481.93	79.1871	3,481.93	79.0597	3,481.93	81.7972	3,481.93	83.2333	3,481.93	83.5518	3,481.93	82.8715	3,481.93	84.5668	3,481.93	85.1263	3,481.93	83.7988	3,481.93	84.927	3,481.93	83.4395	3,481.93	82.7721	3,481.93	79.4462	3,481.93	84.151	3,481.93	80.0051	3,481.93	83.3206	3,481.93	77.5078	3,481.93	82.7094	3,481.93	75.6092	3,481.93	75.603	3,481.93	73.4826	3,481.93	79.9338	3,481.93	78.8957	3,481.93	74.9111	3,481.93	73.4897	3,481.93	64.8865	3,481.93	75.0377	3,481.93	67.9364	3,481.93	72.887	3,481.93	75.8182	3,481.93	69.0072
3,604.98	92.8842	3,604.98	91.5769	3,604.98	89.7501	3,604.98	84.9524	3,604.98	82.8693	3,604.98	78.1481	3,604.98	78.3849	3,604.98	81.2458	3,604.98	84.7287	3,604.98	85.2874	3,604.98	83.6294	3,604.98	84.4133	3,604.98	88.7974	3,604.98	85.8663	3,604.98	85.542	3,604.98	81.9364	3,604.98	85.6436	3,604.98	81.2819	3,604.98	84.5616	3,604.98	80.4879	3,604.98	83.7776	3,604.98	79.5671	3,604.98	83.4271	3,604.98	77.5275	3,604.98	78.9123	3,604.98	75.0624	3,604.98	80.2454	3,604.98	80.2586	3,604.98	75.1909	3,604.98	74.9146	3,604.98	61.3295	3,604.98	76.9938	3,604.98	69.2049	3,604.98	73.4816	3,604.98	74.6953	3,604.98	72.8362
3,732.42	93.5023	3,732.42	92.1546	3,732.42	90.0571	3,732.42	86.3031	3,732.42	82.6445	3,732.42	80.3194	3,732.42	80.2009	3,732.42	82.9657	3,732.42	85.2535	3,732.42	84.9104	3,732.42	85.4276	3,732.42	87.5112	3,732.42	89.1976	3,732.42	86.15	3,732.42	86.7741	3,732.42	84.8657	3,732.42	85.1653	3,732.42	82.8913	3,732.42	82.6632	3,732.42	80.6599	3,732.42	83.9612	3,732.42	81.0004	3,732.42	79.2422	3,732.42	80.5551	3,732.42	77.6265	3,732.42	74.4032	3,732.42	80.3104	3,732.42	81.3247	3,732.42	76.8326	3,732.42	76.345	3,732.42	66.5459	3,732.42	76.7238	3,732.42	69.0309	3,732.42	71.2614	3,732.42	75.1148	3,732.42	75.3983
3,864.26	92.3418	3,864.26	92.4019	3,864.26	89.3493	3,864.26	86.7652	3,864.26	86.0643	3,864.26	80.5809	3,864.26	81.4421	3,864.26	83.684	3,864.26	86.191	3,864.26	86.7293	3,864.26	87.3377	3,864.26	88.3899	3,864.26	89.3285	3,864.26	87.1074	3,864.26	86.1114	3,864.26	85.7894	3,864.26	84.6627	3,864.26	81.822	3,864.26	81.2037	3,864.26	80.3571	3,864.26	79.2196	3,864.26	78.1503	3,864.26	70.5002	3,864.26	81.2645	3,864.26	79.7743	3,864.26	75.9925	3,864.26	80.2953	3,864.26	81.6957	3,864.26	76.6199	3,864.26	79.6791	3,864.26	66.6024	3,864.26	75.4256	3,864.26	69.4342	3,864.26	72.4733	3,864.26	72.2352	3,864.26	75.2623
4,000.49	92.9488	4,000.49	91.6923	4,000.49	87.7545	4,000.49	87.4799	4,000.49	85.471	4,000.49	82.2049	4,000.49	83.3627	4,000.49	81.8967	4,000.49	85.3977	4,000.49	88.5649	4,000.49	89.1099	4,000.49	87.5754	4,000.49	88.975	4,000.49	88.8668	4,000.49	85.5325	4,000.49	83.2565	4,000.49	86.5236	4,000.49	80.1938	4,000.49	81.4882	4,000.49	75.8221	4,000.49	70.4456	4,000.49	75.7018	4,000.49	79.6005	4,000.49	79.2522	4,000.49	78.4732	4,000.49	77.3527	4,000.49	77.6359	4,000.49	78.5168	4,000.49	74.7367	4,000.49	81.2892	4,000.49	53.3612	4,000.49	73.0617	4,000.49	70.7095	4,000.49	73.5876	4,000.49	67.6293	4,000.49	74.9644
4,141.11	93.5085	4,141.11	90.9917	4,141.11	90.745	4,141.11	88.825	4,141.11	84.3155	4,141.11	85.3227	4,141.11	85.8283	4,141.11	85.9576	4,141.11	86.6102	4,141.11	88.3993	4,141.11	89.0287	4,141.11	89.0823	4,141.11	87.5369	4,141.11	86.4336	4,141.11	84.1458	4,141.11	83.6132	4,141.11	85.7239	4,141.11	83.2299	4,141.11	73.231	4,141.11	76.7437	4,141.11	80.693	4,141.11	72.8273	4,141.11	82.7939	4,141.11	74.7017	4,141.11	76.9452	4,141.11	79.5369	4,141.11	68.1738	4,141.11	74.3466	4,141.11	72.9277	4,141.11	81.685	4,141.11	62.6959	4,141.11	68.5905	4,141.11	68.5578	4,141.11	73.7566	4,141.11	71.7948	4,141.11	75.4149
4,287.6	93.3917	4,287.6	92.0182	4,287.6	91.3448	4,287.6	90.7959	4,287.6	87.5139	4,287.6	86.0315	4,287.6	85.395	4,287.6	84.8499	4,287.6	88.0644	4,287.6	88.4938	4,287.6	88.5163	4,287.6	88.9891	4,287.6	88.1942	4,287.6	85.0437	4,287.6	84.4489	4,287.6	84.1544	4,287.6	83.322	4,287.6	77.8197	4,287.6	67.527	4,287.6	77.8544	4,287.6	83.2332	4,287.6	74.2659	4,287.6	83.6537	4,287.6	70.9091	4,287.6	75.1799	4,287.6	78.3856	4,287.6	65.8556	4,287.6	74.938	4,287.6	75.7249	4,287.6	80.6412	4,287.6	67.6925	4,287.6	73.1686	4,287.6	68.2694	4,287.6	71.5173	4,287.6	74.3344	4,287.6	73.6153
4,438.48	93.3609	4,438.48	92.4904	4,438.48	92.6984	4,438.48	91.2715	4,438.48	88.2845	4,438.48	83.0014	4,438.48	87.7449	4,438.48	85.3555	4,438.48	88.0007	4,438.48	89.2321	4,438.48	89.3528	4,438.48	86.6266	4,438.48	87.5113	4,438.48	86.8094	4,438.48	86.7749	4,438.48	82.1519	4,438.48	81.506	4,438.48	81.0087	4,438.48	76.3472	4,438.48	81.265	4,438.48	83.0546	4,438.48	76.9263	4,438.48	82.4775	4,438.48	71.3675	4,438.48	75.7865	4,438.48	77.3636	4,438.48	76.1628	4,438.48	76.6617	4,438.48	72.1621	4,438.48	80.1312	4,438.48	72.98	4,438.48	75.1721	4,438.48	70.0905	4,438.48	66.3247	4,438.48	76.3791	4,438.48	75.497
4,595.21	91.2983	4,595.21	94.3272	4,595.21	93.3572	4,595.21	90.988	4,595.21	90.8961	4,595.21	86.5698	4,595.21	89.4388	4,595.21	87.8455	4,595.21	87.9283	4,595.21	88.7298	4,595.21	89.7736	4,595.21	87.8782	4,595.21	87.784	4,595.21	84.6546	4,595.21	87.7418	4,595.21	84.9706	4,595.21	80.4338	4,595.21	82.1347	4,595.21	78.158	4,595.21	78.7712	4,595.21	81.3165	4,595.21	79.7085	4,595.21	78.7612	4,595.21	76.1996	4,595.21	76.7673	4,595.21	75.8675	4,595.21	77.8814	4,595.21	77.8592	4,595.21	69.9818	4,595.21	80.185	4,595.21	74.6496	4,595.21	77.384	4,595.21	70.2146	4,595.21	64.348	4,595.21	74.5883	4,595.21	72.5931
4,756.35	91.8443	4,756.35	92.9102	4,756.35	93.5312	4,756.35	90.7948	4,756.35	92.3318	4,756.35	90.9021	4,756.35	89.3304	4,756.35	87.6993	4,756.35	86.7642	4,756.35	87.7803	4,756.35	90.9016	4,756.35	87.8365	4,756.35	88.9787	4,756.35	89.5774	4,756.35	88.7982	4,756.35	87.479	4,756.35	78.6558	4,756.35	84.0006	4,756.35	81.3793	4,756.35	81.8222	4,756.35	74.9992	4,756.35	80.5623	4,756.35	74.8074	4,756.35	81.339	4,756.35	76.0842	4,756.35	75.9625	4,756.35	76.5125	4,756.35	81.5723	4,756.35	67.3643	4,756.35	80.0644	4,756.35	75.7759	4,756.35	79.9827	4,756.35	69.0703	4,756.35	63.5762	4,756.35	73.2046	4,756.35	73.8356
4,924.8	92.9562	4,924.8	93.0687	4,924.8	94.099	4,924.8	93.6241	4,924.8	94.2624	4,924.8	90.0348	4,924.8	86.0377	4,924.8	83.9083	4,924.8	87.0373	4,924.8	87.532	4,924.8	91.2811	4,924.8	88.7094	4,924.8	90.2861	4,924.8	89.7487	4,924.8	86.9405	4,924.8	85.7743	4,924.8	78.7259	4,924.8	85.2944	4,924.8	82.7845	4,924.8	79.8309	4,924.8	73.4869	4,924.8	81.359	4,924.8	70.2202	4,924.8	81.9957	4,924.8	74.0656	4,924.8	74.7177	4,924.8	75.8548	4,924.8	82.3919	4,924.8	71.9542	4,924.8	79.4097	4,924.8	74.9589	4,924.8	79.5292	4,924.8	71.2884	4,924.8	58.8012	4,924.8	73.477	4,924.8	73.9922
5,097.66	93.1095	5,097.66	92.2132	5,097.66	93.7742	5,097.66	94.9607	5,097.66	94.8668	5,097.66	90.8712	5,097.66	86.3108	5,097.66	86.4183	5,097.66	86.4484	5,097.66	88.004	5,097.66	92.2869	5,097.66	90.5117	5,097.66	89.666	5,097.66	89.8153	5,097.66	82.616	5,097.66	88.4263	5,097.66	81.249	5,097.66	84.1117	5,097.66	77.619	5,097.66	79.5667	5,097.66	73.6647	5,097.66	79.1168	5,097.66	74.703	5,097.66	79.8582	5,097.66	72.9188	5,097.66	77.262	5,097.66	65.8546	5,097.66	82.5755	5,097.66	72.9285	5,097.66	79.2593	5,097.66	74.0404	5,097.66	78.6785	5,097.66	75.2712	5,097.66	65.8253	5,097.66	68.7877	5,097.66	74.0648
5,277.83	92.5632	5,277.83	91.7026	5,277.83	93.9147	5,277.83	94.1667	5,277.83	93.303	5,277.83	92.0051	5,277.83	91.054	5,277.83	84.9675	5,277.83	88.231	5,277.83	89.0265	5,277.83	92.1896	5,277.83	89.5276	5,277.83	86.9242	5,277.83	89.8452	5,277.83	82.8622	5,277.83	84.5032	5,277.83	84.2223	5,277.83	81.6851	5,277.83	69.4534	5,277.83	79.5129	5,277.83	76.2362	5,277.83	73.981	5,277.83	74.2828	5,277.83	78.7826	5,277.83	68.0838	5,277.83	78.1812	5,277.83	73.6908	5,277.83	81.1665	5,277.83	73.5182	5,277.83	76.6463	5,277.83	69.0349	5,277.83	78.5786	5,277.83	75.7185	5,277.83	61.2256	5,277.83	68.964	5,277.83	77.7078
5,463.87	91.4097	5,463.87	92.6772	5,463.87	93.0284	5,463.87	93.97	5,463.87	93.3259	5,463.87	90.26	5,463.87	91.1707	5,463.87	85.8279	5,463.87	90.0656	5,463.87	88.8817	5,463.87	89.9091	5,463.87	88.4359	5,463.87	83.4761	5,463.87	85.3095	5,463.87	81.7312	5,463.87	83.8663	5,463.87	82.9608	5,463.87	79.5247	5,463.87	78.6167	5,463.87	77.5644	5,463.87	70.2438	5,463.87	75.428	5,463.87	64.4002	5,463.87	72.1159	5,463.87	70.7359	5,463.87	77.5158	5,463.87	76.3604	5,463.87	78.2524	5,463.87	72.2433	5,463.87	76.0787	5,463.87	57.2652	5,463.87	77.0744	5,463.87	72.6834	5,463.87	65.0204	5,463.87	69.2232	5,463.87	75.042
5,657.23	92.3214	5,657.23	92.4297	5,657.23	92.9871	5,657.23	93.3178	5,657.23	94.2537	5,657.23	90.3547	5,657.23	90.1899	5,657.23	86.9531	5,657.23	90.3596	5,657.23	86.7774	5,657.23	86.795	5,657.23	87.2252	5,657.23	84.0885	5,657.23	85.8122	5,657.23	83.7029	5,657.23	82.1674	5,657.23	82.7211	5,657.23	77.9042	5,657.23	76.1862	5,657.23	77.0819	5,657.23	77.6474	5,657.23	74.5031	5,657.23	64.4477	5,657.23	70.7098	5,657.23	64.819	5,657.23	77.481	5,657.23	67.6534	5,657.23	75.9648	5,657.23	60.3598	5,657.23	78.0136	5,657.23	62.0584	5,657.23	75.7393	5,657.23	74.0289	5,657.23	64.7631	5,657.23	68.1944	5,657.23	75.2005
5,856.45	92.5204	5,856.45	92.229	5,856.45	91.7908	5,856.45	92.481	5,856.45	93.0163	5,856.45	89.7595	5,856.45	88.892	5,856.45	84.676	5,856.45	87.7735	5,856.45	85.5736	5,856.45	85.6954	5,856.45	85.0237	5,856.45	84.3316	5,856.45	83.5428	5,856.45	84.8684	5,856.45	83.6764	5,856.45	81.5411	5,856.45	80.4515	5,856.45	77.2858	5,856.45	76.3562	5,856.45	77.182	5,856.45	75.4158	5,856.45	70.0352	5,856.45	74.9063	5,856.45	59.3958	5,856.45	75.729	5,856.45	66.9278	5,856.45	74.0586	5,856.45	69.4153	5,856.45	79.3549	5,856.45	58.4878	5,856.45	71.1089	5,856.45	71.2555	5,856.45	71.9958	5,856.45	66.7504	5,856.45	74.4021
6,062.99	92.8395	6,062.99	91.3008	6,062.99	91.155	6,062.99	91.1571	6,062.99	89.4361	6,062.99	90.2132	6,062.99	89.112	6,062.99	84.7839	6,062.99	84.585	6,062.99	84.203	6,062.99	83.9737	6,062.99	83.5255	6,062.99	86.1469	6,062.99	84.5265	6,062.99	85.2821	6,062.99	82.0442	6,062.99	82.1511	6,062.99	79.2544	6,062.99	80.3051	6,062.99	77.302	6,062.99	70.2307	6,062.99	72.8874	6,062.99	67.5686	6,062.99	75.759	6,062.99	62.1558	6,062.99	72.5861	6,062.99	68.5995	6,062.99	75.1148	6,062.99	67.1406	6,062.99	78.8367	6,062.99	68.9437	6,062.99	68.7171	6,062.99	69.6635	6,062.99	72.0617	6,062.99	69.0903	6,062.99	73.5681
6,276.86	91.85	6,276.86	90.3417	6,276.86	89.1481	6,276.86	90.472	6,276.86	89.006	6,276.86	89.5352	6,276.86	88.3658	6,276.86	85.2037	6,276.86	80.9226	6,276.86	81.2458	6,276.86	80.8106	6,276.86	82.9287	6,276.86	86.3583	6,276.86	83.3358	6,276.86	84.4193	6,276.86	82.9822	6,276.86	80.9206	6,276.86	79.8702	6,276.86	81.1946	6,276.86	76.0853	6,276.86	67.9479	6,276.86	72.1107	6,276.86	64.1483	6,276.86	74.7899	6,276.86	60.5682	6,276.86	72.1393	6,276.86	66.0858	6,276.86	75.2203	6,276.86	66.3543	6,276.86	77.4984	6,276.86	68.7192	6,276.86	63.2199	6,276.86	63.7671	6,276.86	70.4387	6,276.86	69.3473	6,276.86	68.0828
6,498.05	92.2603	6,498.05	90.7839	6,498.05	88.687	6,498.05	88.6356	6,498.05	88.9541	6,498.05	89.8627	6,498.05	88.1611	6,498.05	84.9953	6,498.05	75.0935	6,498.05	78.4863	6,498.05	80.9312	6,498.05	82.7237	6,498.05	85.2101	6,498.05	84.278	6,498.05	82.5048	6,498.05	81.3399	6,498.05	78.8873	6,498.05	76.6117	6,498.05	79.0813	6,498.05	73.1684	6,498.05	66.2289	6,498.05	72.448	6,498.05	62.0238	6,498.05	73.0088	6,498.05	41.9552	6,498.05	71.0426	6,498.05	61.9536	6,498.05	76.0696	6,498.05	68.7514	6,498.05	74.7036	6,498.05	65.7708	6,498.05	63.2185	6,498.05	67.5167	6,498.05	70.1332	6,498.05	67.8562	6,498.05	67.9553
6,726.56	91.8847	6,726.56	90.0694	6,726.56	89.8817	6,726.56	87.5549	6,726.56	89.3961	6,726.56	90.226	6,726.56	87.9144	6,726.56	82.3102	6,726.56	76.317	6,726.56	77.1805	6,726.56	80.8353	6,726.56	83.5428	6,726.56	82.7302	6,726.56	81.4033	6,726.56	80.9073	6,726.56	79.2187	6,726.56	75.7287	6,726.56	75.5154	6,726.56	74.6494	6,726.56	72.6127	6,726.56	65.4941	6,726.56	70.5964	6,726.56	65.7584	6,726.56	68.5683	6,726.56	53.3889	6,726.56	73.3414	6,726.56	61.9141	6,726.56	74.5819	6,726.56	64.1027	6,726.56	72.9861	6,726.56	65.1665	6,726.56	66.1452	6,726.56	69.5737	6,726.56	69.0636	6,726.56	67.9548	6,726.56	69.0528
6,963.87	92.1309	6,963.87	90.6389	6,963.87	89.0479	6,963.87	88.0339	6,963.87	90.554	6,963.87	89.2664	6,963.87	88.5499	6,963.87	83.5833	6,963.87	78.4428	6,963.87	76.8924	6,963.87	80.9211	6,963.87	81.0125	6,963.87	79.9134	6,963.87	79.5891	6,963.87	79.4873	6,963.87	77.8551	6,963.87	75.3026	6,963.87	76.6811	6,963.87	71.5764	6,963.87	74.2765	6,963.87	69.8544	6,963.87	72.2788	6,963.87	67.0824	6,963.87	68.9699	6,963.87	49.0718	6,963.87	73.3017	6,963.87	60.5224	6,963.87	74.4165	6,963.87	62.4174	6,963.87	73.1057	6,963.87	65.0162	6,963.87	64.8847	6,963.87	69.6479	6,963.87	69.6281	6,963.87	67.1761	6,963.87	67.3658
7,209.96	92.4345	7,209.96	91.3136	7,209.96	90.2057	7,209.96	88.9084	7,209.96	88.7593	7,209.96	88.071	7,209.96	88.8954	7,209.96	84.7894	7,209.96	80.0418	7,209.96	76.4631	7,209.96	80.9617	7,209.96	77.1548	7,209.96	77.8325	7,209.96	79.3537	7,209.96	80.4531	7,209.96	80.0392	7,209.96	75.5799	7,209.96	77.4237	7,209.96	73.8468	7,209.96	74.5495	7,209.96	70.1643	7,209.96	72.6726	7,209.96	68.9666	7,209.96	71.2968	7,209.96	58.6745	7,209.96	73.3127	7,209.96	58.7029	7,209.96	73.9704	7,209.96	60.0287	7,209.96	72.8118	7,209.96	61.754	7,209.96	64.6466	7,209.96	63.9352	7,209.96	71.2164	7,209.96	65.0132	7,209.96	65.3455
7,464.84	91.8544	7,464.84	91.8427	7,464.84	91.5754	7,464.84	89.2485	7,464.84	87.9861	7,464.84	86.6272	7,464.84	88.4991	7,464.84	86.1138	7,464.84	80.113	7,464.84	68.6217	7,464.84	78.2123	7,464.84	76.2447	7,464.84	78.9672	7,464.84	81.0898	7,464.84	81.8953	7,464.84	80.0922	7,464.84	79.9792	7,464.84	78.1819	7,464.84	76.0668	7,464.84	73.1193	7,464.84	62.6512	7,464.84	71.8024	7,464.84	63.3276	7,464.84	71.6655	7,464.84	58.438	7,464.84	72.6466	7,464.84	60.6329	7,464.84	73.5192	7,464.84	64.8025	7,464.84	72.6708	7,464.84	65.1915	7,464.84	59.3857	7,464.84	63.5119	7,464.84	69.0606	7,464.84	67.1586	7,464.84	65.3251
7,727.05	91.9045	7,727.05	92.4413	7,727.05	92.1475	7,727.05	89.3137	7,727.05	85.3403	7,727.05	86.5483	7,727.05	88.5927	7,727.05	85.8193	7,727.05	79.1415	7,727.05	74.9174	7,727.05	73.7162	7,727.05	76.5497	7,727.05	79.7945	7,727.05	81.4239	7,727.05	81.4016	7,727.05	78.474	7,727.05	79.6453	7,727.05	76.0507	7,727.05	76.0268	7,727.05	73.4087	7,727.05	71.6405	7,727.05	70.6184	7,727.05	63.024	7,727.05	72.4692	7,727.05	60.2416	7,727.05	72.3758	7,727.05	58.7678	7,727.05	73.3242	7,727.05	64.4579	7,727.05	71.8064	7,727.05	65.2625	7,727.05	56.374	7,727.05	62.3467	7,727.05	66.9845	7,727.05	64.3572	7,727.05	64.5939
7,999.51	90.9358	7,999.51	92.4078	7,999.51	92.4066	7,999.51	89.2708	7,999.51	84.1314	7,999.51	86.3733	7,999.51	88.0526	7,999.51	86.746	7,999.51	82.0305	7,999.51	79.0716	7,999.51	69.0866	7,999.51	76.8472	7,999.51	80.8989	7,999.51	79.9072	7,999.51	78.991	7,999.51	79.5791	7,999.51	76.4563	7,999.51	75.6759	7,999.51	72.4636	7,999.51	73.6252	7,999.51	72.5356	7,999.51	71.2542	7,999.51	58.834	7,999.51	70.8842	7,999.51	62.7958	7,999.51	72.3025	7,999.51	58.7133	7,999.51	72.5007	7,999.51	59.2443	7,999.51	71.7007	7,999.51	59.9925	7,999.51	60.8641	7,999.51	63.4972	7,999.51	65.9243	7,999.51	63.2546	7,999.51	59.3877
8,282.23	90.9802	8,282.23	92.6335	8,282.23	92.2763	8,282.23	89.6516	8,282.23	87.7104	8,282.23	86.8651	8,282.23	88.427	8,282.23	86.9913	8,282.23	84.14	8,282.23	81.1083	8,282.23	70.3096	8,282.23	72.4296	8,282.23	79.3128	8,282.23	79.6045	8,282.23	66.0378	8,282.23	78.7783	8,282.23	74.4631	8,282.23	78.0755	8,282.23	72.0172	8,282.23	73.8963	8,282.23	70.862	8,282.23	72.5367	8,282.23	58.5101	8,282.23	68.8557	8,282.23	63.9437	8,282.23	73.4999	8,282.23	66.9475	8,282.23	73.1753	8,282.23	57.2446	8,282.23	71.634	8,282.23	65.1413	8,282.23	51.1976	8,282.23	60.3742	8,282.23	67.2432	8,282.23	65.334	8,282.23	61.839
8,573.73	90.6505	8,573.73	91.8935	8,573.73	92.2491	8,573.73	90.8235	8,573.73	90.5063	8,573.73	86.3458	8,573.73	86.4687	8,573.73	86.2397	8,573.73	85.6768	8,573.73	82.1466	8,573.73	73.4894	8,573.73	63.8769	8,573.73	76.7184	8,573.73	77.9746	8,573.73	70.0713	8,573.73	79.1774	8,573.73	73.2411	8,573.73	76.4292	8,573.73	72.7684	8,573.73	75.3325	8,573.73	69.7309	8,573.73	71.1333	8,573.73	67.942	8,573.73	70.6076	8,573.73	58.6349	8,573.73	73.3742	8,573.73	65.129	8,573.73	72.3828	8,573.73	63.7099	8,573.73	69.8777	8,573.73	62.5576	8,573.73	57.4286	8,573.73	62.5783	8,573.73	66.3402	8,573.73	63.5784	8,573.73	53.5667
8,876.95	92.419	8,876.95	91.6052	8,876.95	91.4517	8,876.95	91.6398	8,876.95	91.0788	8,876.95	85.675	8,876.95	82.3344	8,876.95	85.1138	8,876.95	86.2439	8,876.95	82.8624	8,876.95	79.4706	8,876.95	74.7328	8,876.95	73.6335	8,876.95	78.4625	8,876.95	77.1031	8,876.95	79.8304	8,876.95	76.9347	8,876.95	75.8068	8,876.95	64.5039	8,876.95	75.044	8,876.95	72.4888	8,876.95	68.8391	8,876.95	69.0973	8,876.95	71.0216	8,876.95	60.4291	8,876.95	73.3343	8,876.95	60.9783	8,876.95	71.1297	8,876.95	62.6525	8,876.95	66.0497	8,876.95	60.3534	8,876.95	58.5507	8,876.95	55.9512	8,876.95	62.1917	8,876.95	64.7216	8,876.95	58.0294
9,188.96	92.6553	9,188.96	90.9529	9,188.96	91.4065	9,188.96	91.4279	9,188.96	88.896	9,188.96	85.5054	9,188.96	83.1685	9,188.96	86.4698	9,188.96	86.3555	9,188.96	83.0826	9,188.96	81.2159	9,188.96	77.5278	9,188.96	68.3471	9,188.96	77.9472	9,188.96	78.7949	9,188.96	78.3701	9,188.96	77.2953	9,188.96	74.8537	9,188.96	71.1507	9,188.96	73.4223	9,188.96	69.5841	9,188.96	64.6669	9,188.96	66.915	9,188.96	69.3806	9,188.96	57.2538	9,188.96	71.5607	9,188.96	63.1584	9,188.96	68.4463	9,188.96	48.3252	9,188.96	66.2119	9,188.96	54.8125	9,188.96	53.3553	9,188.96	56.9237	9,188.96	61.5622	9,188.96	63.4898	9,188.96	59.7124
9,514.16	92.757	9,514.16	91.4395	9,514.16	90.7946	9,514.16	91.1953	9,514.16	89.3237	9,514.16	87.2157	9,514.16	85.8266	9,514.16	86.255	9,514.16	86.0936	9,514.16	84.7796	9,514.16	80.1926	9,514.16	75.0398	9,514.16	70.6974	9,514.16	75.0873	9,514.16	77.631	9,514.16	75.7699	9,514.16	75.2902	9,514.16	75.1045	9,514.16	71.7116	9,514.16	71.8675	9,514.16	70.3678	9,514.16	65.3129	9,514.16	60.4641	9,514.16	66.9694	9,514.16	58.2226	9,514.16	71.1526	9,514.16	63.2987	9,514.16	68.365	9,514.16	62.0187	9,514.16	66.1061	9,514.16	58.3838	9,514.16	46.2539	9,514.16	61.0297	9,514.16	57.9807	9,514.16	65.6423	9,514.16	58.1978
9,849.61	92.9229	9,849.61	91.7978	9,849.61	91.3831	9,849.61	91.2387	9,849.61	91.1852	9,849.61	88.2724	9,849.61	87.077	9,849.61	85.176	9,849.61	85.8966	9,849.61	84.7411	9,849.61	77.5539	9,849.61	76.5561	9,849.61	70.2562	9,849.61	75.5552	9,849.61	73.172	9,849.61	75.8984	9,849.61	72.853	9,849.61	74.5557	9,849.61	69.6568	9,849.61	70.9416	9,849.61	70.8376	9,849.61	64.3104	9,849.61	59.1631	9,849.61	66.5088	9,849.61	59.2119	9,849.61	71.1745	9,849.61	62.8437	9,849.61	69.6418	9,849.61	61.821	9,849.61	63.0086	9,849.61	52.7123	9,849.61	49.3859	9,849.61	63.5379	9,849.61	59.2537	9,849.61	62.2823	9,849.61	61.1599
10,196.8	92.7244	10,196.8	92.1054	10,196.8	91.7068	10,196.8	92.2739	10,196.8	92.1524	10,196.8	88.9429	10,196.8	87.3871	10,196.8	83.6475	10,196.8	82.9056	10,196.8	84.0405	10,196.8	80.5393	10,196.8	80.5557	10,196.8	71.1861	10,196.8	75.9076	10,196.8	75.4382	10,196.8	74.8694	10,196.8	72.0497	10,196.8	75.0912	10,196.8	71.7046	10,196.8	71.7951	10,196.8	69.3127	10,196.8	65.5743	10,196.8	61.0056	10,196.8	69.6481	10,196.8	56.5799	10,196.8	70.2547	10,196.8	64.3433	10,196.8	68.6536	10,196.8	57.0367	10,196.8	60.9038	10,196.8	53.8971	10,196.8	51.7464	10,196.8	62.3124	10,196.8	56.9957	10,196.8	59.5674	10,196.8	64.2663
10,555.7	92.8908	10,555.7	92.734	10,555.7	91.3755	10,555.7	91.9159	10,555.7	90.4742	10,555.7	88.6033	10,555.7	87.632	10,555.7	84.6154	10,555.7	83.4183	10,555.7	83.7255	10,555.7	80.2097	10,555.7	81.1171	10,555.7	69.1141	10,555.7	72.9423	10,555.7	74.6259	10,555.7	72.0319	10,555.7	67.9119	10,555.7	73.5528	10,555.7	73.3569	10,555.7	66.6956	10,555.7	67.2879	10,555.7	68.3407	10,555.7	61.0116	10,555.7	69.7284	10,555.7	57.7901	10,555.7	70.6202	10,555.7	58.0764	10,555.7	67.1522	10,555.7	58.4784	10,555.7	64.3263	10,555.7	40.8479	10,555.7	54.1969	10,555.7	64.6618	10,555.7	63.4451	10,555.7	55.4016	10,555.7	64.6727
10,927.7	93.1158	10,927.7	92.6669	10,927.7	91.8377	10,927.7	91.4029	10,927.7	88.9042	10,927.7	88.6915	10,927.7	88.488	10,927.7	85.6758	10,927.7	82.4716	10,927.7	83.1014	10,927.7	82.2178	10,927.7	79.6119	10,927.7	70.883	10,927.7	69.6402	10,927.7	73.3709	10,927.7	72.0455	10,927.7	64.1021	10,927.7	69.7887	10,927.7	70.2786	10,927.7	61.4077	10,927.7	68.8071	10,927.7	66.6949	10,927.7	63.8763	10,927.7	65.9351	10,927.7	54.2821	10,927.7	68.8988	10,927.7	32.9057	10,927.7	63.2929	10,927.7	57.6313	10,927.7	64.6183	10,927.7	44.2759	10,927.7	57.072	10,927.7	61.7906	10,927.7	60.8896	10,927.7	49.7234	10,927.7	62.1813
11,313	92.8617	11,313	92.5666	11,313	92.1025	11,313	91.363	11,313	89.9821	11,313	89.2281	11,313	88.1186	11,313	85.1079	11,313	79.6661	11,313	82.9737	11,313	84.3337	11,313	80.0418	11,313	72.8819	11,313	70.9945	11,313	74.8604	11,313	71.3675	11,313	64.485	11,313	67.6373	11,313	71.0744	11,313	59.9894	11,313	62.4398	11,313	66.9187	11,313	62.618	11,313	62.5548	11,313	43.7436	11,313	65.0259	11,313	57.8772	11,313	61.5541	11,313	55.1786	11,313	61.5223	11,313	49.8809	11,313	60.0022	11,313	60.182	11,313	58.6612	11,313	52.0339	11,313	60.3508
11,712.9	92.5481	11,712.9	92.1632	11,712.9	91.2992	11,712.9	91.2371	11,712.9	89.5483	11,712.9	89.2575	11,712.9	87.7492	11,712.9	84.3913	11,712.9	82.0975	11,712.9	82.9129	11,712.9	84.2422	11,712.9	81.1236	11,712.9	76.012	11,712.9	64.3975	11,712.9	69.7184	11,712.9	68.9896	11,712.9	66.257	11,712.9	67.4543	11,712.9	69.0145	11,712.9	62.6008	11,712.9	68.7702	11,712.9	64.3809	11,712.9	63.7037	11,712.9	63.6978	11,712.9	47.7689	11,712.9	60.9598	11,712.9	59.3874	11,712.9	63.3286	11,712.9	52.5853	11,712.9	54.4748	11,712.9	52.6676	11,712.9	56.736	11,712.9	59.1656	11,712.9	58.1846	11,712.9	46.4563	11,712.9	57.1942
12,126	92.2183	12,126	92.0885	12,126	91.7618	12,126	90.8112	12,126	88.5728	12,126	88.1818	12,126	85.5568	12,126	84.5754	12,126	84.4012	12,126	82.3228	12,126	81.8668	12,126	79.7168	12,126	76.3179	12,126	64.4827	12,126	65.5653	12,126	69.4877	12,126	66.9143	12,126	67.747	12,126	64.6996	12,126	61.5715	12,126	67.3614	12,126	61.6491	12,126	61.6874	12,126	62.1748	12,126	54.9848	12,126	60.4306	12,126	49.0953	12,126	61.7587	12,126	53.1728	12,126	62.9288	12,126	55.1581	12,126	55.3544	12,126	57.7563	12,126	53.1265	12,126	53.631	12,126	54.444
12,553.7	92.072	12,553.7	91.8406	12,553.7	91.1289	12,553.7	90.5047	12,553.7	88.6458	12,553.7	87.3175	12,553.7	84.2525	12,553.7	84.8303	12,553.7	84.2192	12,553.7	80.5356	12,553.7	79.627	12,553.7	78.7963	12,553.7	76.465	12,553.7	66.3382	12,553.7	66.2613	12,553.7	68.2125	12,553.7	64.9994	12,553.7	64.5593	12,553.7	65.0198	12,553.7	62.0698	12,553.7	66.6089	12,553.7	58.7506	12,553.7	60.8095	12,553.7	58.7582	12,553.7	53.8372	12,553.7	59.4053	12,553.7	43.9602	12,553.7	59.9672	12,553.7	53.6557	12,553.7	61.3893	12,553.7	55.6747	12,553.7	50.632	12,553.7	55.8851	12,553.7	55.6803	12,553.7	47.9535	12,553.7	54.1411
12,996.1	91.8441	12,996.1	91.483	12,996.1	90.4141	12,996.1	90.0064	12,996.1	88.6223	12,996.1	87.257	12,996.1	85.7586	12,996.1	84.1705	12,996.1	83.1503	12,996.1	80.0173	12,996.1	79.4939	12,996.1	78.5445	12,996.1	74.9595	12,996.1	60.8335	12,996.1	62.585	12,996.1	63.4792	12,996.1	59.2396	12,996.1	63.837	12,996.1	64.4893	12,996.1	59.1318	12,996.1	66.2043	12,996.1	59.1374	12,996.1	55.7117	12,996.1	57.8693	12,996.1	54.1957	12,996.1	56.2498	12,996.1	34.9328	12,996.1	60.7934	12,996.1	52.397	12,996.1	57.5494	12,996.1	50.3941	12,996.1	52.4482	12,996.1	52.8745	12,996.1	53.1725	12,996.1	52.1405	12,996.1	50.6511
13,454.6	91.5236	13,454.6	90.9641	13,454.6	90.477	13,454.6	89.7977	13,454.6	88.6246	13,454.6	86.8323	13,454.6	86.6348	13,454.6	84.0129	13,454.6	82.6454	13,454.6	80.4023	13,454.6	78.529	13,454.6	77.8745	13,454.6	75.2769	13,454.6	67.2585	13,454.6	52.0234	13,454.6	63.2036	13,454.6	62.5752	13,454.6	63.0721	13,454.6	61.9025	13,454.6	56.4262	13,454.6	68.456	13,454.6	54.8526	13,454.6	54.4067	13,454.6	52.3486	13,454.6	45.3858	13,454.6	51.9756	13,454.6	40.7229	13,454.6	60.063	13,454.6	48.4471	13,454.6	54.9752	13,454.6	53.3905	13,454.6	45.2763	13,454.6	53.073	13,454.6	45.4997	13,454.6	49.873	13,454.6	51.0918
13,929.2	91.6018	13,929.2	91.1041	13,929.2	90.592	13,929.2	89.7445	13,929.2	88.5198	13,929.2	86.7236	13,929.2	86.9303	13,929.2	84.1298	13,929.2	81.828	13,929.2	79.708	13,929.2	78.4139	13,929.2	77.667	13,929.2	75.6599	13,929.2	66.6859	13,929.2	56.4359	13,929.2	59.3152	13,929.2	51.3405	13,929.2	60.4448	13,929.2	61.4117	13,929.2	53.7234	13,929.2	68.1182	13,929.2	49.1632	13,929.2	56.1396	13,929.2	43.0528	13,929.2	42.4632	13,929.2	50.1902	13,929.2	41.697	13,929.2	58.5495	13,929.2	52.9203	13,929.2	54.4915	13,929.2	51.3334	13,929.2	38.6149	13,929.2	36.9016	13,929.2	50.2871	13,929.2	49.3469	13,929.2	48.0405
14,419.9	91.8391	14,419.9	91.2662	14,419.9	90.8697	14,419.9	89.3153	14,419.9	88.7285	14,419.9	86.7087	14,419.9	87.8273	14,419.9	84.5776	14,419.9	82.5891	14,419.9	77.8395	14,419.9	78.8582	14,419.9	77.0576	14,419.9	74.3	14,419.9	67.4028	14,419.9	49.1372	14,419.9	50.7407	14,419.9	56.8337	14,419.9	59.0743	14,419.9	61.994	14,419.9	53.714	14,419.9	67.0239	14,419.9	49.254	14,419.9	53.7065	14,419.9	44.2808	14,419.9	44.6365	14,419.9	49.8712	14,419.9	43.1801	14,419.9	56.4876	14,419.9	48.7302	14,419.9	54.3535	14,419.9	44.5355	14,419.9	42.9682	14,419.9	48.3261	14,419.9	51.9072	14,419.9	52.9734	14,419.9	42.7645
14,928.2	91.8266	14,928.2	91.1784	14,928.2	90.6695	14,928.2	89.1392	14,928.2	88.4788	14,928.2	86.3315	14,928.2	87.3914	14,928.2	84.5733	14,928.2	83.1578	14,928.2	77.686	14,928.2	77.3358	14,928.2	76.5348	14,928.2	72.2268	14,928.2	67.9589	14,928.2	55.3324	14,928.2	51.2989	14,928.2	55.0657	14,928.2	55.1637	14,928.2	61.9225	14,928.2	48.5529	14,928.2	67.5903	14,928.2	48.7456	14,928.2	54.9304	14,928.2	41.9663	14,928.2	49.6193	14,928.2	46.1538	14,928.2	21.5856	14,928.2	53.056	14,928.2	45.8003	14,928.2	54.038	14,928.2	39.8222	14,928.2	54.2383	14,928.2	46.191	14,928.2	50.0831	14,928.2	51.9656	14,928.2	36.1784
15,455.6	91.8747	15,455.6	91.1383	15,455.6	91.0456	15,455.6	88.9782	15,455.6	87.9177	15,455.6	85.8389	15,455.6	85.2832	15,455.6	84.2099	15,455.6	81.6398	15,455.6	76.9702	15,455.6	75.2635	15,455.6	75.32	15,455.6	67.9696	15,455.6	67.0111	15,455.6	59.0296	15,455.6	53.6071	15,455.6	51.8742	15,455.6	47.3027	15,455.6	58.3497	15,455.6	30.4443	15,455.6	66.6307	15,455.6	42.8047	15,455.6	54.2792	15,455.6	32.7956	15,455.6	49.2089	15,455.6	38.184	15,455.6	34.4432	15,455.6	42.4433	15,455.6	50.0974	15,455.6	52.8016	15,455.6	42.6048	15,455.6	54.3702	15,455.6	44.6543	15,455.6	51.6329	15,455.6	41.2741	15,455.6	34.3185
16,000.5	91.708	16,000.5	90.8765	16,000.5	90.6967	16,000.5	88.833	16,000.5	88.1106	16,000.5	85.4564	16,000.5	83.8615	16,000.5	83.7184	16,000.5	80.0544	16,000.5	75.5114	16,000.5	73.3558	16,000.5	73.746	16,000.5	63.9699	16,000.5	65.6689	16,000.5	57.9954	16,000.5	52.1779	16,000.5	42.6863	16,000.5	42.6856	16,000.5	57.2131	16,000.5	42.4047	16,000.5	64.5081	16,000.5	43.7621	16,000.5	55.6723	16,000.5	35.7524	16,000.5	49.717	16,000.5	35.6511	16,000.5	40.5812	16,000.5	43.9516	16,000.5	49.9546	16,000.5	52.2113	16,000.5	44.3735	16,000.5	52.848	16,000.5	49.354	16,000.5	51.5865	16,000.5	45.8666	16,000.5	34.9351
16,564.5	91.0172	16,564.5	90.2916	16,564.5	89.8864	16,564.5	88.5596	16,564.5	87.7145	16,564.5	85.0834	16,564.5	84.2376	16,564.5	82.954	16,564.5	79.1469	16,564.5	74.141	16,564.5	71.1982	16,564.5	72.5314	16,564.5	62.3098	16,564.5	63.8607	16,564.5	65.7462	16,564.5	56.0036	16,564.5	53.806	16,564.5	46.5399	16,564.5	55.383	16,564.5	33.2373	16,564.5	62.998	16,564.5	45.2923	16,564.5	56.2407	16,564.5	39.0621	16,564.5	51.3644	16,564.5	36.9832	16,564.5	38.8282	16,564.5	43.7051	16,564.5	46.6396	16,564.5	49.0311	16,564.5	45.6543	16,564.5	41.7076	16,564.5	46.541	16,564.5	51.4549	16,564.5	43.7988	16,564.5	37.0743
17,148.9	90.016	17,148.9	89.6164	17,148.9	88.8232	17,148.9	88.3949	17,148.9	86.106	17,148.9	84.3489	17,148.9	83.4027	17,148.9	81.6545	17,148.9	77.3075	17,148.9	72.9512	17,148.9	68.7099	17,148.9	69.555	17,148.9	56.3858	17,148.9	62.3931	17,148.9	65.2398	17,148.9	55.8697	17,148.9	52.5532	17,148.9	46.247	17,148.9	49.8359	17,148.9	39.5284	17,148.9	58.584	17,148.9	38.6273	17,148.9	57.3158	17,148.9	43.033	17,148.9	48.8497	17,148.9	37.9408	17,148.9	39.9335	17,148.9	36.1239	17,148.9	48.0081	17,148.9	37.4661	17,148.9	46.4305	17,148.9	50.0816	17,148.9	44.6817	17,148.9	50.1092	17,148.9	48.4093	17,148.9	35.0581
17,752.4	89.2781	17,752.4	89.1712	17,752.4	88.4086	17,752.4	88.1566	17,752.4	86.1672	17,752.4	83.7633	17,752.4	82.4632	17,752.4	80.2846	17,752.4	75.2758	17,752.4	69.2394	17,752.4	62.1974	17,752.4	65.7155	17,752.4	54.5665	17,752.4	57.6989	17,752.4	63.8624	17,752.4	57.5708	17,752.4	54.4515	17,752.4	50.2844	17,752.4	46.9602	17,752.4	37.3834	17,752.4	48.4805	17,752.4	43.8318	17,752.4	57.7618	17,752.4	37.4476	17,752.4	45.4275	17,752.4	37.3022	17,752.4	43.292	17,752.4	41.8119	17,752.4	39.6738	17,752.4	36.0844	17,752.4	47.1549	17,752.4	50.5165	17,752.4	43.7658	17,752.4	50.9375	17,752.4	49.6257	17,752.4	37.4165
18,379.4	89.2898	18,379.4	89.0904	18,379.4	88.2548	18,379.4	87.9455	18,379.4	85.4345	18,379.4	83.2534	18,379.4	80.8426	18,379.4	78.4316	18,379.4	73.3388	18,379.4	65.2116	18,379.4	62.7261	18,379.4	58.9122	18,379.4	39.2629	18,379.4	60.6918	18,379.4	64.7763	18,379.4	59.7708	18,379.4	54.9903	18,379.4	52.0878	18,379.4	51.2987	18,379.4	33.9894	18,379.4	54.0104	18,379.4	41.1218	18,379.4	58.4347	18,379.4	44.4707	18,379.4	48.4729	18,379.4	43.8131	18,379.4	46.3245	18,379.4	35.3196	18,379.4	38.8421	18,379.4	41.8669	18,379.4	46.1369	18,379.4	48.6881	18,379.4	44.0951	18,379.4	52.7441	18,379.4	48.1346	18,379.4	39.9463
19,026.9	89.6055	19,026.9	89.2763	19,026.9	88.4628	19,026.9	88.0187	19,026.9	85.4065	19,026.9	82.3735	19,026.9	78.6208	19,026.9	76.3682	19,026.9	71.3688	19,026.9	54.9118	19,026.9	62.98	19,026.9	45.3884	19,026.9	60.2306	19,026.9	55.2874	19,026.9	63.0651	19,026.9	58.0926	19,026.9	54.893	19,026.9	52.0894	19,026.9	54.9614	19,026.9	31.6262	19,026.9	57.7793	19,026.9	39.8662	19,026.9	57.7736	19,026.9	41.1655	19,026.9	45.8946	19,026.9	43.6212	19,026.9	43.0877	19,026.9	34.0182	19,026.9	46.32	19,026.9	43.9806	19,026.9	40.1799	19,026.9	49.3846	19,026.9	45.194	19,026.9	50.6654	19,026.9	45.5227	19,026.9	42.4501
19,697.8	89.9546	19,697.8	89.5441	19,697.8	88.4212	19,697.8	87.5212	19,697.8	84.3231	19,697.8	80.8665	19,697.8	76.538	19,697.8	72.753	19,697.8	67.1084	19,697.8	46.145	19,697.8	63.2864	19,697.8	55.8143	19,697.8	64.4387	19,697.8	59.4591	19,697.8	61.0652	19,697.8	57.7596	19,697.8	56.4241	19,697.8	50.4432	19,697.8	54.1756	19,697.8	37.7251	19,697.8	59.629	19,697.8	33.4061	19,697.8	54.9298	19,697.8	36.5893	19,697.8	44.7417	19,697.8	45.0761	19,697.8	28.2833	19,697.8	42.7169	19,697.8	37.3927	19,697.8	42.7359	19,697.8	24.24	19,697.8	42.7671	19,697.8	38.8935	19,697.8	49.245	19,697.8	43.4874	19,697.8	42.2692
19,999.5	90.0766	19,999.5	89.5672	19,999.5	88.364	19,999.5	87.1359	19,999.5	83.8515	19,999.5	80.112	19,999.5	75.3813	19,999.5	71.1297	19,999.5	65.1315	19,999.5	54.8704	19,999.5	64.7456	19,999.5	59.0835	19,999.5	63.8071	19,999.5	59.157	19,999.5	43.5634	19,999.5	55.1667	19,999.5	51.6857	19,999.5	53.3715	19,999.5	57.2785	19,999.5	47.0566	19,999.5	59.636	19,999.5	50.6556	19,999.5	51.7682	19,999.5	44.6443	19,999.5	46.1983	19,999.5	51.6813	19,999.5	49.0766	19,999.5	49.3128	19,999.5	56.1111	19,999.5	44.8707	19,999.5	57.2623	19,999.5	49.0391	19,999.5	40.8056	19,999.5	51.3038	19,999.5	54.3297	19,999.5	51.1637
