"SPL Horizontal"
"On-Axis"		"10°"		"-10°"		"20°"		"-20°"		"30°"		"-30°"		"40°"		"-40°"		"50°"		"-50°"		"60°"		"-60°"		"70°"		"-70°"		"80°"		"-80°"		"90°"		"-90°"		"100°"		"-100°"		"110°"		"-110°"		"120°"		"-120°"		"130°"		"-130°"		"140°"		"-140°"		"150°"		"-150°"		"160°"		"-160°"		"170°"		"-170°"		"180°"
"Frequency [Hz]"	"Sound Pessure Level [dB]  / [2.83V 1m] "	"Frequency [Hz]"	"Sound Pessure Level [dB]  / [2.83V 1m] "	"Frequency [Hz]"	"Sound Pessure Level [dB]  / [2.83V 1m] "	"Frequency [Hz]"	"Sound Pessure Level [dB]  / [2.83V 1m] "	"Frequency [Hz]"	"Sound Pessure Level [dB]  / [2.83V 1m] "	"Frequency [Hz]"	"Sound Pessure Level [dB]  / [2.83V 1m] "	"Frequency [Hz]"	"Sound Pessure Level [dB]  / [2.83V 1m] "	"Frequency [Hz]"	"Sound Pessure Level [dB]  / [2.83V 1m] "	"Frequency [Hz]"	"Sound Pessure Level [dB]  / [2.83V 1m] "	"Frequency [Hz]"	"Sound Pessure Level [dB]  / [2.83V 1m] "	"Frequency [Hz]"	"Sound Pessure Level [dB]  / [2.83V 1m] "	"Frequency [Hz]"	"Sound Pessure Level [dB]  / [2.83V 1m] "	"Frequency [Hz]"	"Sound Pessure Level [dB]  / [2.83V 1m] "	"Frequency [Hz]"	"Sound Pessure Level [dB]  / [2.83V 1m] "	"Frequency [Hz]"	"Sound Pessure Level [dB]  / [2.83V 1m] "	"Frequency [Hz]"	"Sound Pessure Level [dB]  / [2.83V 1m] "	"Frequency [Hz]"	"Sound Pessure Level [dB]  / [2.83V 1m] "	"Frequency [Hz]"	"Sound Pessure Level [dB]  / [2.83V 1m] "	"Frequency [Hz]"	"Sound Pessure Level [dB]  / [2.83V 1m] "	"Frequency [Hz]"	"Sound Pessure Level [dB]  / [2.83V 1m] "	"Frequency [Hz]"	"Sound Pessure Level [dB]  / [2.83V 1m] "	"Frequency [Hz]"	"Sound Pessure Level [dB]  / [2.83V 1m] "	"Frequency [Hz]"	"Sound Pessure Level [dB]  / [2.83V 1m] "	"Frequency [Hz]"	"Sound Pessure Level [dB]  / [2.83V 1m] "	"Frequency [Hz]"	"Sound Pessure Level [dB]  / [2.83V 1m] "	"Frequency [Hz]"	"Sound Pessure Level [dB]  / [2.83V 1m] "	"Frequency [Hz]"	"Sound Pessure Level [dB]  / [2.83V 1m] "	"Frequency [Hz]"	"Sound Pessure Level [dB]  / [2.83V 1m] "	"Frequency [Hz]"	"Sound Pessure Level [dB]  / [2.83V 1m] "	"Frequency [Hz]"	"Sound Pessure Level [dB]  / [2.83V 1m] "	"Frequency [Hz]"	"Sound Pessure Level [dB]  / [2.83V 1m] "	"Frequency [Hz]"	"Sound Pessure Level [dB]  / [2.83V 1m] "	"Frequency [Hz]"	"Sound Pessure Level [dB]  / [2.83V 1m] "	"Frequency [Hz]"	"Sound Pessure Level [dB]  / [2.83V 1m] "	"Frequency [Hz]"	"Sound Pessure Level [dB]  / [2.83V 1m] "	"Frequency [Hz]"	"Sound Pessure Level [dB]  / [2.83V 1m] "
20.5078	46.7962	20.5078	47.2145	20.5078	46.2828	20.5078	47.5331	20.5078	45.7081	20.5078	47.7638	20.5078	45.148	20.5078	47.9263	20.5078	44.7201	20.5078	48.0422	20.5078	44.5474	20.5078	48.1301	20.5078	44.6913	20.5078	48.2029	20.5078	45.1187	20.5078	48.2676	20.5078	45.7412	20.5078	48.3275	20.5078	46.4703	20.5078	48.3848	20.5078	47.2382	20.5078	48.4431	20.5078	47.9901	20.5078	48.5091	20.5078	48.6762	20.5078	48.5948	20.5078	49.2499	20.5078	48.7177	20.5078	49.6735	20.5078	48.8952	20.5078	49.9229	20.5078	49.1331	20.5078	49.9931	20.5078	49.4128	20.5078	49.9017	20.5078	49.6891
21.9727	54.6215	21.9727	54.5459	21.9727	54.7247	21.9727	54.5008	21.9727	54.8492	21.9727	54.4869	21.9727	54.9857	21.9727	54.503	21.9727	55.1223	21.9727	54.5462	21.9727	55.2465	21.9727	54.612	21.9727	55.347	21.9727	54.6946	21.9727	55.4172	21.9727	54.7867	21.9727	55.4574	21.9727	54.881	21.9727	55.475	21.9727	54.9705	21.9727	55.4821	21.9727	55.0498	21.9727	55.4912	21.9727	55.1164	21.9727	55.5092	21.9727	55.1716	21.9727	55.5345	21.9727	55.2208	21.9727	55.5582	21.9727	55.2713	21.9727	55.5682	21.9727	55.3288	21.9727	55.5555	21.9727	55.3938	21.9727	55.5176	21.9727	55.4603
23.4375	49.1867	23.4375	49.2476	23.4375	49.1624	23.4375	49.3419	23.4375	49.1804	23.4375	49.4688	23.4375	49.2483	23.4375	49.6294	23.4375	49.375	23.4375	49.826	23.4375	49.5678	23.4375	50.0607	23.4375	49.8315	23.4375	50.3341	23.4375	50.1669	23.4375	50.6448	23.4375	50.5698	23.4375	50.9893	23.4375	51.029	23.4375	51.361	23.4375	51.5248	23.4375	51.7504	23.4375	52.0303	23.4375	52.145	23.4375	52.5149	23.4375	52.5306	23.4375	52.9495	23.4375	52.8922	23.4375	53.3109	23.4375	53.2147	23.4375	53.5831	23.4375	53.4835	23.4375	53.7571	23.4375	53.6841	23.4375	53.8297	23.4375	53.8031
24.9023	47.2734	24.9023	47.0924	24.9023	47.5497	24.9023	47.0191	24.9023	47.9016	24.9023	47.0559	24.9023	48.3062	24.9023	47.1961	24.9023	48.7414	24.9023	47.4265	24.9023	49.1892	24.9023	47.731	24.9023	49.6364	24.9023	48.0941	24.9023	50.074	24.9023	48.5011	24.9023	50.496	24.9023	48.9381	24.9023	50.8983	24.9023	49.3921	24.9023	51.2774	24.9023	49.8513	24.9023	51.6285	24.9023	50.3063	24.9023	51.9447	24.9023	50.7499	24.9023	52.2155	24.9023	51.1751	24.9023	52.4277	24.9023	51.5727	24.9023	52.5671	24.9023	51.9289	24.9023	52.6215	24.9023	52.2266	24.9023	52.5826	24.9023	52.4489
26.3672	40.019	26.3672	39.4213	26.3672	40.6869	26.3672	38.878	26.3672	41.4619	26.3672	38.4366	26.3672	42.3566	26.3672	38.2242	26.3672	43.3356	26.3672	38.4032	26.3672	44.3303	26.3672	39.0518	26.3672	45.2711	26.3672	40.0833	26.3672	46.1114	26.3672	41.3141	26.3672	46.832	26.3672	42.5795	26.3672	47.435	26.3672	43.7784	26.3672	47.9341	26.3672	44.8632	26.3672	48.346	26.3672	45.8186	26.3672	48.6841	26.3672	46.6459	26.3672	48.9547	26.3672	47.3529	26.3672	49.1564	26.3672	47.9475	26.3672	49.2813	26.3672	48.4349	26.3672	49.3184	26.3672	48.8163	26.3672	49.2572	26.3672	49.0906
27.832	39.2028	27.832	39.7122	27.832	38.569	27.832	40.1445	27.832	37.8283	27.832	40.573	27.832	37.13	27.832	41.0715	27.832	36.8134	27.832	41.6913	27.832	37.2424	27.832	42.4452	27.832	38.3965	27.832	43.3059	27.832	39.893	27.832	44.2187	27.832	41.3912	27.832	45.1199	27.832	42.7311	27.832	45.952	27.832	43.8695	27.832	46.6722	27.832	44.8159	27.832	47.2551	27.832	45.5988	27.832	47.692	27.832	46.2486	27.832	47.9874	27.832	46.7891	27.832	48.1552	27.832	47.2346	27.832	48.2133	27.832	47.5925	27.832	48.1786	27.832	47.867	27.832	48.0619
29.2969	40.3874	29.2969	41.2785	29.2969	39.7771	29.2969	42.371	29.2969	39.5271	29.2969	43.5864	29.2969	39.7094	29.2969	44.8525	29.2969	40.3516	29.2969	46.1096	29.2969	41.3917	29.2969	47.3123	29.2969	42.6882	29.2969	48.4279	29.2969	44.0826	29.2969	49.434	29.2969	45.4522	29.2969	50.3162	29.2969	46.7234	29.2969	51.0667	29.2969	47.863	29.2969	51.6829	29.2969	48.8645	29.2969	52.167	29.2969	49.7352	29.2969	52.5246	29.2969	50.4866	29.2969	52.7637	29.2969	51.1289	29.2969	52.8934	29.2969	51.668	29.2969	52.9222	29.2969	52.1077	29.2969	52.8565	29.2969	52.4505	29.2969	52.6994
30.7617	54.6905	30.7617	54.7437	30.7617	54.6257	30.7617	54.798	30.7617	54.5449	30.7617	54.8712	30.7617	54.4541	30.7617	54.9829	30.7617	54.3716	30.7617	55.1497	30.7617	54.327	30.7617	55.3815	30.7617	54.3567	30.7617	55.6786	30.7617	54.4939	30.7617	56.0321	30.7617	54.7558	30.7617	56.4252	30.7617	55.1345	30.7617	56.8365	30.7617	55.6002	30.7617	57.2428	30.7617	56.1116	30.7617	57.622	30.7617	56.6283	30.7617	57.9553	30.7617	57.1176	30.7617	58.228	30.7617	57.5558	30.7617	58.43	30.7617	57.927	30.7617	58.5549	30.7617	58.2212	30.7617	58.5985	30.7617	58.4324	30.7617	58.5582
32.2266	59.6776	32.2266	59.7204	32.2266	59.6402	32.2266	59.7732	32.2266	59.6091	32.2266	59.8451	32.2266	59.5919	32.2266	59.9475	32.2266	59.6029	32.2266	60.0923	32.2266	59.6617	32.2266	60.2894	32.2266	59.7888	32.2266	60.5444	32.2266	59.9998	32.2266	60.8566	32.2266	60.2993	32.2266	61.2181	32.2266	60.6776	32.2266	61.6142	32.2266	61.1131	32.2266	62.0253	32.2266	61.5773	32.2266	62.4297	32.2266	62.0409	32.2266	62.8056	32.2266	62.478	32.2266	63.1333	32.2266	62.8679	32.2266	63.3965	32.2266	63.1945	32.2266	63.5827	32.2266	63.446	32.2266	63.6834	32.2266	63.6143	32.2266	63.6942
33.6914	64.6948	33.6914	64.7403	33.6914	64.6551	33.6914	64.7943	33.6914	64.6223	33.6914	64.8625	33.6914	64.6023	33.6914	64.9527	33.6914	64.6052	33.6914	65.073	33.6914	64.6441	33.6914	65.2308	33.6914	64.7332	33.6914	65.4309	33.6914	64.8838	33.6914	65.674	33.6914	65.1014	33.6914	65.9561	33.6914	65.3832	33.6914	66.2679	33.6914	65.7178	33.6914	66.5959	33.6914	66.0874	33.6914	66.9231	33.6914	66.4698	33.6914	67.2317	33.6914	66.8426	33.6914	67.5038	33.6914	67.1851	33.6914	67.7235	33.6914	67.4797	33.6914	67.8777	33.6914	67.7126	33.6914	67.957	33.6914	67.8736	33.6914	67.956
35.1562	68.0917	35.1562	68.0989	35.1562	68.0885	35.1562	68.1125	35.1562	68.0895	35.1562	68.1377	35.1562	68.098	35.1562	68.1815	35.1562	68.1198	35.1562	68.2517	35.1562	68.163	35.1562	68.3558	35.1562	68.2365	35.1562	68.4994	35.1562	68.3488	35.1562	68.6847	35.1562	68.5058	35.1562	68.9097	35.1562	68.7087	35.1562	69.1674	35.1562	68.9531	35.1562	69.4464	35.1562	69.2287	35.1562	69.7318	35.1562	69.5205	35.1562	70.0071	35.1562	69.8114	35.1562	70.2551	35.1562	70.0838	35.1562	70.4599	35.1562	70.3216	35.1562	70.6082	35.1562	70.5106	35.1562	70.6902	35.1562	70.6397	35.1562	70.7009
36.6211	71.0073	36.6211	71.026	36.6211	70.9943	36.6211	71.0518	36.6211	70.9877	36.6211	71.0883	36.6211	70.9907	36.6211	71.1406	36.6211	71.0081	36.6211	71.2144	36.6211	71.0466	36.6211	71.3156	36.6211	71.1134	36.6211	71.4487	36.6211	71.2153	36.6211	71.6155	36.6211	71.3569	36.6211	71.8147	36.6211	71.5394	36.6211	72.0412	36.6211	71.7592	36.6211	72.2862	36.6211	72.0084	36.6211	72.5377	36.6211	72.2749	36.6211	72.7816	36.6211	72.5436	36.6211	73.0026	36.6211	72.7986	36.6211	73.1858	36.6211	73.024	36.6211	73.3181	36.6211	73.2056	36.6211	73.3895	36.6211	73.3317	36.6211	73.3943
38.0859	73.4952	38.0859	73.4883	38.0859	73.5029	38.0859	73.4843	38.0859	73.5115	38.0859	73.4869	38.0859	73.5229	38.0859	73.5014	38.0859	73.5415	38.0859	73.5343	38.0859	73.5731	38.0859	73.5923	38.0859	73.625	38.0859	73.6816	38.0859	73.7047	38.0859	73.8063	38.0859	73.8182	38.0859	73.9676	38.0859	73.9685	38.0859	74.1624	38.0859	74.1542	38.0859	74.3834	38.0859	74.3687	38.0859	74.6195	38.0859	74.6007	38.0859	74.8564	38.0859	74.8358	38.0859	75.0782	38.0859	75.0578	38.0859	75.2692	38.0859	75.2512	38.0859	75.4154	38.0859	75.4018	38.0859	75.506	38.0859	75.4986	38.0859	75.5343
39.5508	75.9453	39.5508	75.9452	39.5508	75.9458	39.5508	75.9473	39.5508	75.9471	39.5508	75.9546	39.5508	75.9512	39.5508	75.972	39.5508	75.9618	39.5508	76.0054	39.5508	75.9843	39.5508	76.0611	39.5508	76.0256	39.5508	76.145	39.5508	76.0927	39.5508	76.2608	39.5508	76.192	39.5508	76.4097	39.5508	76.3274	39.5508	76.5888	39.5508	76.4985	39.5508	76.7914	39.5508	76.6999	39.5508	77.0073	39.5508	76.9213	39.5508	77.2239	39.5508	77.1485	39.5508	77.4269	39.5508	77.3652	39.5508	77.6019	39.5508	77.5554	39.5508	77.7357	39.5508	77.7049	39.5508	77.8177	39.5508	77.8023	39.5508	77.8407
41.0156	77.897	41.0156	77.9018	41.0156	77.8951	41.0156	77.9111	41.0156	77.897	41.0156	77.928	41.0156	77.9053	41.0156	77.9574	41.0156	77.9245	41.0156	78.0045	41.0156	77.9603	41.0156	78.0745	41.0156	78.0191	41.0156	78.1716	41.0156	78.106	41.0156	78.2979	41.0156	78.2242	41.0156	78.4533	41.0156	78.3739	41.0156	78.635	41.0156	78.5515	41.0156	78.8371	41.0156	78.7509	41.0156	79.0509	41.0156	78.9632	41.0156	79.2647	41.0156	79.1781	41.0156	79.4646	41.0156	79.3833	41.0156	79.636	41.0156	79.566	41.0156	79.7649	41.0156	79.7132	41.0156	79.8408	41.0156	79.8131	41.0156	79.8571
42.4805	80.0933	42.4805	80.0991	42.4805	80.0898	42.4805	80.1082	42.4805	80.0895	42.4805	80.1233	42.4805	80.0949	42.4805	80.1486	42.4805	80.1101	42.4805	80.1891	42.4805	80.14	42.4805	80.2502	42.4805	80.1901	42.4805	80.3364	42.4805	80.2652	42.4805	80.4507	42.4805	80.3688	42.4805	80.5934	42.4805	80.5019	42.4805	80.7616	42.4805	80.6626	42.4805	80.9491	42.4805	80.8457	42.4805	81.1466	42.4805	81.043	42.4805	81.342	42.4805	81.2433	42.4805	81.5223	42.4805	81.4343	42.4805	81.6748	42.4805	81.6028	42.4805	81.7882	42.4805	81.7372	42.4805	81.8541	42.4805	81.8276	42.4805	81.8675
43.9453	82.3421	43.9453	82.3454	43.9453	82.3426	43.9453	82.3535	43.9453	82.3473	43.9453	82.3694	43.9453	82.3581	43.9453	82.3969	43.9453	82.3784	43.9453	82.4409	43.9453	82.4127	43.9453	82.5065	43.9453	82.4657	43.9453	82.5978	43.9453	82.5419	43.9453	82.7171	43.9453	82.6446	43.9453	82.8641	43.9453	82.7751	43.9453	83.0351	43.9453	82.9316	43.9453	83.2234	43.9453	83.1096	43.9453	83.4191	43.9453	83.3013	43.9453	83.6109	43.9453	83.4963	43.9453	83.7863	43.9453	83.6829	43.9453	83.9333	43.9453	83.8485	43.9453	84.0416	43.9453	83.9815	43.9453	84.1033	43.9453	84.0721	43.9453	84.1138
45.4102	84.253	45.4102	84.2565	45.4102	84.2539	45.4102	84.2653	45.4102	84.2594	45.4102	84.2818	45.4102	84.2711	45.4102	84.3096	45.4102	84.2922	45.4102	84.3528	45.4102	84.3265	45.4102	84.4157	45.4102	84.3782	45.4102	84.5018	45.4102	84.4516	45.4102	84.6134	45.4102	84.5497	45.4102	84.7502	45.4102	84.6735	45.4102	84.9093	45.4102	84.8215	45.4102	85.0847	45.4102	84.9892	45.4102	85.2678	45.4102	85.1693	45.4102	85.4479	45.4102	85.352	45.4102	85.6134	45.4102	85.5264	45.4102	85.7528	45.4102	85.6809	45.4102	85.856	45.4102	85.8047	45.4102	85.9154	45.4102	85.8886	45.4102	85.9265
46.875	85.8355	46.875	85.8408	46.875	85.8352	46.875	85.8521	46.875	85.8402	46.875	85.8713	46.875	85.8521	46.875	85.9015	46.875	85.8735	46.875	85.9463	46.875	85.9077	46.875	86.0094	46.875	85.9586	46.875	86.0938	46.875	86.0298	46.875	86.2011	46.875	86.1237	46.875	86.3311	46.875	86.2412	46.875	86.4807	46.875	86.3808	46.875	86.6444	46.875	86.5383	46.875	86.8141	46.875	86.7069	46.875	86.9802	46.875	86.8778	46.875	87.1321	46.875	87.0408	46.875	87.2594	46.875	87.185	46.875	87.3533	46.875	87.3007	46.875	87.4067	46.875	87.3795	46.875	87.4157
48.3398	87.1878	48.3398	87.1927	48.3398	87.1873	48.3398	87.2026	48.3398	87.1916	48.3398	87.2192	48.3398	87.2022	48.3398	87.2454	48.3398	87.2216	48.3398	87.2842	48.3398	87.2529	48.3398	87.3392	48.3398	87.2996	48.3398	87.4132	48.3398	87.3647	48.3398	87.508	48.3398	87.4505	48.3398	87.6237	48.3398	87.5578	48.3398	87.7578	48.3398	87.6851	48.3398	87.9056	48.3398	87.8285	48.3398	88.06	48.3398	87.9821	48.3398	88.2121	48.3398	88.1375	48.3398	88.3522	48.3398	88.2855	48.3398	88.4707	48.3398	88.4162	48.3398	88.559	48.3398	88.5203	48.3398	88.6105	48.3398	88.5904	48.3398	88.6212
51.2695	89.1366	51.2695	89.141	51.2695	89.1369	51.2695	89.1509	51.2695	89.1424	51.2695	89.1676	51.2695	89.1541	51.2695	89.1931	51.2695	89.1737	51.2695	89.2297	51.2695	89.2034	51.2695	89.2799	51.2695	89.2458	51.2695	89.3457	51.2695	89.3032	51.2695	89.4284	51.2695	89.3773	51.2695	89.5278	51.2695	89.4685	51.2695	89.642	51.2695	89.576	51.2695	89.7671	51.2695	89.6968	51.2695	89.8974	51.2695	89.826	51.2695	90.0257	51.2695	89.957	51.2695	90.1438	51.2695	90.0821	51.2695	90.2437	51.2695	90.193	51.2695	90.3179	51.2695	90.2818	51.2695	90.3608	51.2695	90.3421	51.2695	90.3691
52.7344	89.827	52.7344	89.831	52.7344	89.8277	52.7344	89.8402	52.7344	89.8333	52.7344	89.8556	52.7344	89.8447	52.7344	89.8791	52.7344	89.8633	52.7344	89.9126	52.7344	89.891	52.7344	89.9581	52.7344	89.93	52.7344	90.0175	52.7344	89.9823	52.7344	90.0918	52.7344	90.0493	52.7344	90.1809	52.7344	90.1314	52.7344	90.2831	52.7344	90.2278	52.7344	90.3953	52.7344	90.3361	52.7344	90.5125	52.7344	90.452	52.7344	90.6281	52.7344	90.5696	52.7344	90.735	52.7344	90.6822	52.7344	90.8256	52.7344	90.7821	52.7344	90.8933	52.7344	90.8623	52.7344	90.9327	52.7344	90.9166	52.7344	90.9407
54.1992	90.3435	54.1992	90.3508	54.1992	90.3408	54.1992	90.3632	54.1992	90.3432	54.1992	90.3815	54.1992	90.3513	54.1992	90.4068	54.1992	90.3664	54.1992	90.4408	54.1992	90.3902	54.1992	90.485	54.1992	90.4244	54.1992	90.5407	54.1992	90.4707	54.1992	90.6086	54.1992	90.5303	54.1992	90.6888	54.1992	90.6038	54.1992	90.7797	54.1992	90.6904	54.1992	90.8786	54.1992	90.7881	54.1992	90.9814	54.1992	90.8931	54.1992	91.0824	54.1992	91.0004	54.1992	91.1754	54.1992	91.1036	54.1992	91.2538	54.1992	91.196	54.1992	91.3115	54.1992	91.271	54.1992	91.3437	54.1992	91.3229	54.1992	91.3478
55.6641	90.7516	55.6641	90.7584	55.6641	90.749	55.6641	90.7698	55.6641	90.7511	55.6641	90.7864	55.6641	90.7585	55.6641	90.809	55.6641	90.7723	55.6641	90.8389	55.6641	90.7939	55.6641	90.8775	55.6641	90.8248	55.6641	90.9259	55.6641	90.8663	55.6641	90.9848	55.6641	90.9195	55.6641	91.0542	55.6641	90.9849	55.6641	91.1332	55.6641	91.0618	55.6641	91.2194	55.6641	91.1482	55.6641	91.3094	55.6641	91.241	55.6641	91.3983	55.6641	91.3355	55.6641	91.4806	55.6641	91.4261	55.6641	91.5504	55.6641	91.5069	55.6641	91.6024	55.6641	91.572	55.6641	91.6321	55.6641	91.6166	55.6641	91.6371
58.5938	91.3179	58.5938	91.3212	58.5938	91.3184	58.5938	91.3285	58.5938	91.3229	58.5938	91.3402	58.5938	91.3318	58.5938	91.3569	58.5938	91.3456	58.5938	91.3796	58.5938	91.3654	58.5938	91.4092	58.5938	91.3918	58.5938	91.4465	58.5938	91.4259	58.5938	91.492	58.5938	91.4683	58.5938	91.5457	58.5938	91.5192	58.5938	91.6069	58.5938	91.578	58.5938	91.6739	58.5938	91.6434	58.5938	91.744	58.5938	91.713	58.5938	91.8135	58.5938	91.7836	58.5938	91.8782	58.5938	91.851	58.5938	91.9334	58.5938	91.9109	58.5938	91.9751	58.5938	91.9589	58.5938	91.9997	58.5938	91.9912	58.5938	92.0052
60.0586	91.4639	60.0586	91.4658	60.0586	91.4654	60.0586	91.4713	60.0586	91.4705	60.0586	91.4808	60.0586	91.4792	60.0586	91.4948	60.0586	91.4921	60.0586	91.514	60.0586	91.5098	60.0586	91.5392	60.0586	91.533	60.0586	91.5709	60.0586	91.5623	60.0586	91.6097	60.0586	91.5984	60.0586	91.6554	60.0586	91.6413	60.0586	91.7075	60.0586	91.6909	60.0586	91.7647	60.0586	91.746	60.0586	91.8247	60.0586	91.8047	60.0586	91.8845	60.0586	91.8645	60.0586	91.9404	60.0586	91.9217	60.0586	91.9884	60.0586	91.9727	60.0586	92.025	60.0586	92.0135	60.0586	92.0469	60.0586	92.0409	60.0586	92.0524
62.9883	91.7171	62.9883	91.7198	62.9883	91.718	62.9883	91.7261	62.9883	91.7225	62.9883	91.736	62.9883	91.7307	62.9883	91.7498	62.9883	91.7427	62.9883	91.7675	62.9883	91.7588	62.9883	91.7895	62.9883	91.779	62.9883	91.8158	62.9883	91.8037	62.9883	91.8467	62.9883	91.833	62.9883	91.8821	62.9883	91.867	62.9883	91.9214	62.9883	91.9053	62.9883	91.964	62.9883	91.9473	62.9883	92.0083	62.9883	91.9917	62.9883	92.0523	62.9883	92.0365	62.9883	92.0936	62.9883	92.0794	62.9883	92.1292	62.9883	92.1175	62.9883	92.1564	62.9883	92.1481	62.9883	92.1728	62.9883	92.1685	62.9883	92.177
64.4531	91.798	64.4531	91.7997	64.4531	91.7999	64.4531	91.8048	64.4531	91.8053	64.4531	91.8134	64.4531	91.814	64.4531	91.8255	64.4531	91.8261	64.4531	91.8411	64.4531	91.8414	64.4531	91.8602	64.4531	91.86	64.4531	91.883	64.4531	91.8819	64.4531	91.9093	64.4531	91.9071	64.4531	91.9393	64.4531	91.9357	64.4531	91.9725	64.4531	91.9675	64.4531	92.0083	64.4531	92.0022	64.4531	92.0457	64.4531	92.0388	64.4531	92.0829	64.4531	92.0758	64.4531	92.1179	64.4531	92.1113	64.4531	92.1484	64.4531	92.1427	64.4531	92.1719	64.4531	92.1678	64.4531	92.1865	64.4531	92.1843	64.4531	92.1907
67.3828	91.8675	67.3828	91.8671	67.3828	91.8715	67.3828	91.8703	67.3828	91.8791	67.3828	91.8767	67.3828	91.8902	67.3828	91.8862	67.3828	91.9045	67.3828	91.8985	67.3828	91.9217	67.3828	91.9134	67.3828	91.9415	67.3828	91.931	67.3828	91.9635	67.3828	91.9511	67.3828	91.9876	67.3828	91.974	67.3828	92.0135	67.3828	91.9994	67.3828	92.041	67.3828	92.0273	67.3828	92.0694	67.3828	92.0571	67.3828	92.0981	67.3828	92.0878	67.3828	92.1259	67.3828	92.1179	67.3828	92.1512	67.3828	92.1454	67.3828	92.1724	67.3828	92.1686	67.3828	92.1876	67.3828	92.1855	67.3828	92.1953	67.3828	92.1946
68.8477	91.8781	68.8477	91.8775	68.8477	91.8829	68.8477	91.8809	68.8477	91.8918	68.8477	91.8882	68.8477	91.9046	68.8477	91.8988	68.8477	91.9208	68.8477	91.9126	68.8477	91.9401	68.8477	91.9293	68.8477	91.9618	68.8477	91.9484	68.8477	91.9856	68.8477	91.97	68.8477	92.0109	68.8477	91.9938	68.8477	92.0373	68.8477	92.0197	68.8477	92.0644	68.8477	92.0472	68.8477	92.0916	68.8477	92.0759	68.8477	92.1181	68.8477	92.1046	68.8477	92.1431	68.8477	92.1322	68.8477	92.1654	68.8477	92.1572	68.8477	92.1836	68.8477	92.1779	68.8477	92.1963	68.8477	92.193	68.8477	92.2025	68.8477	92.2014
71.7773	91.9455	71.7773	91.9457	71.7773	91.9496	71.7773	91.9502	71.7773	91.958	71.7773	91.9586	71.7773	91.9703	71.7773	91.9703	71.7773	91.9859	71.7773	91.9847	71.7773	92.004	71.7773	92.0012	71.7773	92.024	71.7773	92.0191	71.7773	92.0451	71.7773	92.0378	71.7773	92.0665	71.7773	92.0568	71.7773	92.0876	71.7773	92.076	71.7773	92.108	71.7773	92.0949	71.7773	92.1273	71.7773	92.1136	71.7773	92.1451	71.7773	92.1316	71.7773	92.1611	71.7773	92.1486	71.7773	92.1747	71.7773	92.164	71.7773	92.1853	71.7773	92.1771	71.7773	92.1922	71.7773	92.187	71.7773	92.1949	71.7773	92.1931
74.707	91.9573	74.707	91.9596	74.707	91.9592	74.707	91.9661	74.707	91.9655	74.707	91.9761	74.707	91.9757	74.707	91.9889	74.707	91.9891	74.707	92.0036	74.707	92.005	74.707	92.0194	74.707	92.0223	74.707	92.0353	74.707	92.0398	74.707	92.0504	74.707	92.0567	74.707	92.0643	74.707	92.072	74.707	92.0764	74.707	92.0854	74.707	92.0868	74.707	92.0965	74.707	92.0955	74.707	92.1053	74.707	92.1027	74.707	92.1121	74.707	92.1087	74.707	92.117	74.707	92.1135	74.707	92.1203	74.707	92.1174	74.707	92.1221	74.707	92.1202	74.707	92.1227	74.707	92.122
77.6367	91.974	77.6367	91.9771	77.6367	91.9762	77.6367	91.9852	77.6367	91.9835	77.6367	91.9978	77.6367	91.9956	77.6367	92.0137	77.6367	92.0115	77.6367	92.0318	77.6367	92.0301	77.6367	92.0508	77.6367	92.0499	77.6367	92.0695	77.6367	92.0696	77.6367	92.0868	77.6367	92.088	77.6367	92.1017	77.6367	92.104	77.6367	92.1136	77.6367	92.1169	77.6367	92.1225	77.6367	92.1263	77.6367	92.1285	77.6367	92.1325	77.6367	92.1321	77.6367	92.1359	77.6367	92.1339	77.6367	92.1372	77.6367	92.1347	77.6367	92.1372	77.6367	92.1348	77.6367	92.1365	77.6367	92.1349	77.6367	92.1357	77.6367	92.1351
79.1016	91.9948	79.1016	91.9988	79.1016	91.996	79.1016	92.0079	79.1016	92.0024	79.1016	92.0212	79.1016	92.0134	79.1016	92.0377	79.1016	92.0282	79.1016	92.0561	79.1016	92.0454	79.1016	92.075	79.1016	92.0638	79.1016	92.093	79.1016	92.0819	79.1016	92.1089	79.1016	92.0983	79.1016	92.1218	79.1016	92.112	79.1016	92.1311	79.1016	92.1224	79.1016	92.1368	79.1016	92.1291	79.1016	92.1391	79.1016	92.1323	79.1016	92.1386	79.1016	92.1327	79.1016	92.1363	79.1016	92.1312	79.1016	92.1331	79.1016	92.1289	79.1016	92.1297	79.1016	92.1267	79.1016	92.127	79.1016	92.1254	79.1016	92.1255
82.0312	92.0433	82.0312	92.0465	82.0312	92.0448	82.0312	92.0542	82.0312	92.051	82.0312	92.0657	82.0312	92.0612	82.0312	92.0797	82.0312	92.0744	82.0312	92.0949	82.0312	92.0892	82.0312	92.1097	82.0312	92.1041	82.0312	92.1227	82.0312	92.1176	82.0312	92.1326	82.0312	92.1282	82.0312	92.1384	82.0312	92.1349	82.0312	92.1397	82.0312	92.137	82.0312	92.1366	82.0312	92.1344	82.0312	92.1295	82.0312	92.1277	82.0312	92.1195	82.0312	92.1178	82.0312	92.108	82.0312	92.1064	82.0312	92.0966	82.0312	92.0951	82.0312	92.0869	82.0312	92.0857	82.0312	92.0803	82.0312	92.0796	82.0312	92.0777
84.9609	92.1074	84.9609	92.1097	84.9609	92.1092	84.9609	92.1157	84.9609	92.1149	84.9609	92.1246	84.9609	92.1239	84.9609	92.1353	84.9609	92.1351	84.9609	92.1463	84.9609	92.1471	84.9609	92.1562	84.9609	92.1586	84.9609	92.1634	84.9609	92.1679	84.9609	92.1668	84.9609	92.1737	84.9609	92.1658	84.9609	92.1748	84.9609	92.1599	84.9609	92.1707	84.9609	92.1495	84.9609	92.1613	84.9609	92.1355	84.9609	92.1474	84.9609	92.1191	84.9609	92.1303	84.9609	92.1021	84.9609	92.1117	84.9609	92.0865	84.9609	92.0939	84.9609	92.074	84.9609	92.079	84.9609	92.0662	84.9609	92.0687	84.9609	92.0643
87.8906	91.9323	87.8906	91.9307	87.8906	91.9431	87.8906	91.9384	87.8906	91.9625	87.8906	91.9546	87.8906	91.9894	87.8906	91.9783	87.8906	92.0223	87.8906	92.0078	87.8906	92.0593	87.8906	92.041	87.8906	92.0983	87.8906	92.0759	87.8906	92.1375	87.8906	92.1105	87.8906	92.1748	87.8906	92.1429	87.8906	92.2084	87.8906	92.1719	87.8906	92.2372	87.8906	92.1966	87.8906	92.2602	87.8906	92.217	87.8906	92.277	87.8906	92.2334	87.8906	92.2879	87.8906	92.2465	87.8906	92.2934	87.8906	92.2572	87.8906	92.2943	87.8906	92.2662	87.8906	92.292	87.8906	92.2741	87.8906	92.2873	87.8906	92.2812
90.8203	91.9957	90.8203	91.9946	90.8203	92.0046	90.8203	92.0013	90.8203	92.0207	90.8203	92.0154	90.8203	92.0432	90.8203	92.0362	90.8203	92.0708	90.8203	92.0623	90.8203	92.102	90.8203	92.0923	90.8203	92.1349	90.8203	92.1241	90.8203	92.1678	90.8203	92.1558	90.8203	92.1988	90.8203	92.1855	90.8203	92.2261	90.8203	92.2114	90.8203	92.2484	90.8203	92.2326	90.8203	92.2649	90.8203	92.2484	90.8203	92.2755	90.8203	92.2592	90.8203	92.2808	90.8203	92.2657	90.8203	92.2818	90.8203	92.2691	90.8203	92.2801	90.8203	92.2706	90.8203	92.2773	90.8203	92.2714	90.8203	92.2745	90.8203	92.2725
95.2148	92.1047	95.2148	92.1075	95.2148	92.1087	95.2148	92.1168	95.2148	92.1191	95.2148	92.1317	95.2148	92.135	95.2148	92.1506	95.2148	92.155	95.2148	92.1717	95.2148	92.1769	95.2148	92.193	95.2148	92.1987	95.2148	92.2123	95.2148	92.218	95.2148	92.2277	95.2148	92.2327	95.2148	92.2376	95.2148	92.241	95.2148	92.2409	95.2148	92.2421	95.2148	92.2372	95.2148	92.2357	95.2148	92.2269	95.2148	92.2226	95.2148	92.2112	95.2148	92.2046	95.2148	92.1922	95.2148	92.1843	95.2148	92.1725	95.2148	92.1646	95.2148	92.155	95.2148	92.1486	95.2148	92.1424	95.2148	92.1388	95.2148	92.1366
98.1445	92.2234	98.1445	92.23	98.1445	92.2216	98.1445	92.241	98.1445	92.2243	98.1445	92.2556	98.1445	92.2309	98.1445	92.2725	98.1445	92.2401	98.1445	92.29	98.1445	92.2502	98.1445	92.3062	98.1445	92.2595	98.1445	92.3192	98.1445	92.266	98.1445	92.327	98.1445	92.2681	98.1445	92.3282	98.1445	92.2647	98.1445	92.3216	98.1445	92.2554	98.1445	92.3072	98.1445	92.2405	98.1445	92.2856	98.1445	92.2212	98.1445	92.2585	98.1445	92.1992	98.1445	92.2284	98.1445	92.1769	98.1445	92.1982	98.1445	92.157	98.1445	92.1713	98.1445	92.1425	98.1445	92.1506	98.1445	92.1358	98.1445	92.1384
101.074	92.195	101.074	92.2024	101.074	92.1925	101.074	92.2142	101.074	92.1948	101.074	92.2295	101.074	92.2015	101.074	92.247	101.074	92.2114	101.074	92.265	101.074	92.2232	101.074	92.2818	101.074	92.235	101.074	92.2955	101.074	92.245	101.074	92.3042	101.074	92.2516	101.074	92.3068	101.074	92.2538	101.074	92.3027	101.074	92.251	101.074	92.292	101.074	92.2435	101.074	92.2757	101.074	92.2322	101.074	92.2556	101.074	92.2182	101.074	92.2338	101.074	92.2033	101.074	92.2126	101.074	92.1895	101.074	92.1943	101.074	92.1788	101.074	92.1809	101.074	92.1731	101.074	92.1736
105.469	92.1381	105.469	92.1521	105.469	92.1277	105.469	92.1687	105.469	92.1216	105.469	92.1867	105.469	92.1204	105.469	92.2046	105.469	92.1243	105.469	92.2209	105.469	92.1333	105.469	92.2336	105.469	92.1468	105.469	92.2412	105.469	92.1638	105.469	92.2421	105.469	92.1826	105.469	92.2359	105.469	92.2009	105.469	92.2225	105.469	92.2164	105.469	92.2033	105.469	92.2268	105.469	92.1806	105.469	92.2304	105.469	92.1575	105.469	92.2264	105.469	92.1376	105.469	92.215	105.469	92.124	105.469	92.1976	105.469	92.1189	105.469	92.1765	105.469	92.1232	105.469	92.1548	105.469	92.136
108.398	92.2598	108.398	92.258	108.398	92.266	108.398	92.2609	108.398	92.2756	108.398	92.2687	108.398	92.2872	108.398	92.2805	108.398	92.2994	108.398	92.2949	108.398	92.3107	108.398	92.3099	108.398	92.3196	108.398	92.3233	108.398	92.3247	108.398	92.3324	108.398	92.3245	108.398	92.3351	108.398	92.3182	108.398	92.3298	108.398	92.305	108.398	92.3158	108.398	92.2853	108.398	92.2938	108.398	92.2603	108.398	92.2655	108.398	92.2321	108.398	92.234	108.398	92.2036	108.398	92.2029	108.398	92.178	108.398	92.176	108.398	92.1585	108.398	92.1566	108.398	92.1475	108.398	92.1468
112.793	92.3536	112.793	92.3629	112.793	92.3476	112.793	92.3756	112.793	92.3447	112.793	92.3909	112.793	92.3441	112.793	92.4074	112.793	92.3447	112.793	92.4233	112.793	92.3453	112.793	92.4366	112.793	92.3448	112.793	92.445	112.793	92.3418	112.793	92.4467	112.793	92.3354	112.793	92.4402	112.793	92.3248	112.793	92.425	112.793	92.3096	112.793	92.4016	112.793	92.2902	112.793	92.3714	112.793	92.2677	112.793	92.3366	112.793	92.2439	112.793	92.2999	112.793	92.2212	112.793	92.2645	112.793	92.2025	112.793	92.2333	112.793	92.1903	112.793	92.2088	112.793	92.1868	112.793	92.1929
117.188	92.3911	117.188	92.3944	117.188	92.3909	117.188	92.4004	117.188	92.3937	117.188	92.4083	117.188	92.3992	117.188	92.4173	117.188	92.4065	117.188	92.426	117.188	92.4147	117.188	92.4333	117.188	92.4224	117.188	92.4378	117.188	92.4283	117.188	92.4384	117.188	92.4309	117.188	92.4346	117.188	92.429	117.188	92.4261	117.188	92.4221	117.188	92.4136	117.188	92.4103	117.188	92.3978	117.188	92.3946	117.188	92.3802	117.188	92.3767	117.188	92.3624	117.188	92.3586	117.188	92.346	117.188	92.3424	117.188	92.3326	117.188	92.3297	117.188	92.3235	117.188	92.322	117.188	92.3199
120.117	92.5374	120.117	92.551	120.117	92.5243	120.117	92.5644	120.117	92.5123	120.117	92.5763	120.117	92.5011	120.117	92.5852	120.117	92.4906	120.117	92.5893	120.117	92.4801	120.117	92.5867	120.117	92.4688	120.117	92.5761	120.117	92.4559	120.117	92.5564	120.117	92.4405	120.117	92.5276	120.117	92.4219	120.117	92.4907	120.117	92.3999	120.117	92.4475	120.117	92.3745	120.117	92.4009	120.117	92.3465	120.117	92.354	120.117	92.3173	120.117	92.3105	120.117	92.2887	120.117	92.2734	120.117	92.2629	120.117	92.2456	120.117	92.2419	120.117	92.2286	120.117	92.228	120.117	92.223
124.512	92.8091	124.512	92.7889	124.512	92.8259	124.512	92.7662	124.512	92.8384	124.512	92.7417	124.512	92.846	124.512	92.7158	124.512	92.8478	124.512	92.6889	124.512	92.8431	124.512	92.6607	124.512	92.8314	124.512	92.6306	124.512	92.8119	124.512	92.598	124.512	92.7844	124.512	92.562	124.512	92.7485	124.512	92.5225	124.512	92.7044	124.512	92.48	124.512	92.6528	124.512	92.4358	124.512	92.5952	124.512	92.3925	124.512	92.5342	124.512	92.3533	124.512	92.4729	124.512	92.3217	124.512	92.4153	124.512	92.3011	124.512	92.3654	124.512	92.2943	124.512	92.327	124.512	92.3029
128.906	92.7676	128.906	92.7655	128.906	92.7681	128.906	92.7613	128.906	92.7674	128.906	92.7538	128.906	92.7651	128.906	92.7421	128.906	92.7605	128.906	92.7251	128.906	92.7525	128.906	92.7021	128.906	92.7396	128.906	92.6726	128.906	92.7207	128.906	92.6367	128.906	92.695	128.906	92.5948	128.906	92.6621	128.906	92.5479	128.906	92.6225	128.906	92.4977	128.906	92.5773	128.906	92.4463	128.906	92.528	128.906	92.3968	128.906	92.4768	128.906	92.3524	128.906	92.4261	128.906	92.3166	128.906	92.3787	128.906	92.2926	128.906	92.3378	128.906	92.2825	128.906	92.3064	128.906	92.2873
133.301	92.788	133.301	92.8013	133.301	92.7773	133.301	92.8162	133.301	92.7698	133.301	92.8307	133.301	92.7655	133.301	92.8426	133.301	92.7636	133.301	92.8495	133.301	92.7628	133.301	92.8489	133.301	92.7614	133.301	92.8385	133.301	92.7572	133.301	92.8169	133.301	92.7482	133.301	92.7838	133.301	92.7327	133.301	92.7402	133.301	92.7099	133.301	92.6884	133.301	92.6798	133.301	92.6322	133.301	92.6435	133.301	92.576	133.301	92.6028	133.301	92.5245	133.301	92.5606	133.301	92.4822	133.301	92.5197	133.301	92.4529	133.301	92.4838	133.301	92.4388	133.301	92.4562	133.301	92.4403
139.16	92.7865	139.16	92.8006	139.16	92.7749	139.16	92.816	139.16	92.7663	139.16	92.8318	139.16	92.761	139.16	92.8465	139.16	92.7589	139.16	92.8584	139.16	92.7591	139.16	92.8658	139.16	92.7603	139.16	92.8668	139.16	92.7607	139.16	92.8597	139.16	92.7578	139.16	92.8429	139.16	92.7495	139.16	92.8159	139.16	92.7338	139.16	92.7791	139.16	92.71	139.16	92.7342	139.16	92.6785	139.16	92.6843	139.16	92.6414	139.16	92.6336	139.16	92.6021	139.16	92.5867	139.16	92.565	139.16	92.5484	139.16	92.535	139.16	92.5225	139.16	92.5162	139.16	92.5116
143.555	92.8758	143.555	92.8755	143.555	92.8753	143.555	92.8735	143.555	92.8751	143.555	92.8694	143.555	92.8758	143.555	92.8631	143.555	92.8782	143.555	92.8547	143.555	92.882	143.555	92.8445	143.555	92.8865	143.555	92.8327	143.555	92.8904	143.555	92.8195	143.555	92.8918	143.555	92.8045	143.555	92.8885	143.555	92.7874	143.555	92.8784	143.555	92.7682	143.555	92.8602	143.555	92.7468	143.555	92.8337	143.555	92.7242	143.555	92.8004	143.555	92.7018	143.555	92.7633	143.555	92.6815	143.555	92.7267	143.555	92.666	143.555	92.695	143.555	92.6578	143.555	92.6718	143.555	92.6593
147.949	93.1136	147.949	93.1184	147.949	93.1022	147.949	93.1156	147.949	93.0854	147.949	93.1048	147.949	93.0647	147.949	93.0859	147.949	93.0419	147.949	93.0593	147.949	93.0184	147.949	93.0258	147.949	92.9954	147.949	92.9868	147.949	92.9733	147.949	92.9437	147.949	92.9521	147.949	92.8981	147.949	92.9307	147.949	92.8518	147.949	92.9079	147.949	92.8068	147.949	92.8822	147.949	92.765	147.949	92.8525	147.949	92.7282	147.949	92.8189	147.949	92.6982	147.949	92.7827	147.949	92.6764	147.949	92.7464	147.949	92.6638	147.949	92.7135	147.949	92.6613	147.949	92.6869	147.949	92.6691
153.809	93.1323	153.809	93.1361	153.809	93.122	153.809	93.134	153.809	93.1045	153.809	93.126	153.809	93.0788	153.809	93.1112	153.809	93.0444	153.809	93.0887	153.809	93.001	153.809	93.0571	153.809	92.9491	153.809	93.0159	153.809	92.8899	153.809	92.965	153.809	92.8255	153.809	92.9058	153.809	92.7583	153.809	92.8405	153.809	92.6912	153.809	92.7724	153.809	92.6269	153.809	92.7048	153.809	92.5678	153.809	92.6409	153.809	92.5162	153.809	92.5832	153.809	92.4742	153.809	92.5331	153.809	92.444	153.809	92.4912	153.809	92.4273	153.809	92.4583	153.809	92.4246	153.809	92.4355
159.668	93.1378	159.668	93.1509	159.668	93.12	159.668	93.1599	159.668	93.0971	159.668	93.1646	159.668	93.0687	159.668	93.1645	159.668	93.0347	159.668	93.1576	159.668	92.9948	159.668	93.1412	159.668	92.9489	159.668	93.1124	159.668	92.897	159.668	93.0686	159.668	92.8394	159.668	93.0091	159.668	92.7772	159.668	92.9349	159.668	92.7123	159.668	92.8496	159.668	92.6475	159.668	92.7586	159.668	92.5856	159.668	92.6685	159.668	92.5297	159.668	92.5858	159.668	92.4821	159.668	92.5159	159.668	92.4447	159.668	92.4624	159.668	92.4189	159.668	92.4266	159.668	92.4063	159.668	92.4083
165.527	93.0623	165.527	93.0678	165.527	93.0515	165.527	93.0676	165.527	93.0361	165.527	93.0616	165.527	93.0165	165.527	93.0498	165.527	92.9933	165.527	93.0321	165.527	92.9666	165.527	93.0084	165.527	92.9361	165.527	92.9785	165.527	92.9013	165.527	92.9418	165.527	92.8615	165.527	92.8982	165.527	92.8164	165.527	92.8479	165.527	92.7665	165.527	92.7917	165.527	92.7131	165.527	92.7315	165.527	92.6587	165.527	92.6702	165.527	92.6064	165.527	92.6113	165.527	92.5594	165.527	92.5588	165.527	92.5204	165.527	92.5168	165.527	92.492	165.527	92.4881	165.527	92.4761	165.527	92.4745
171.387	93.0162	171.387	93.0069	171.387	93.0235	171.387	92.9956	171.387	93.0283	171.387	92.982	171.387	93.03	171.387	92.9657	171.387	93.0274	171.387	92.9456	171.387	93.0188	171.387	92.9209	171.387	93.0027	171.387	92.891	171.387	92.9775	171.387	92.8555	171.387	92.9421	171.387	92.8149	171.387	92.8962	171.387	92.7697	171.387	92.8408	171.387	92.7214	171.387	92.7781	171.387	92.6716	171.387	92.7116	171.387	92.6223	171.387	92.646	171.387	92.5762	171.387	92.5863	171.387	92.5358	171.387	92.5368	171.387	92.5038	171.387	92.5008	171.387	92.4825	171.387	92.4798	171.387	92.474
177.246	92.942	177.246	92.9314	177.246	92.9519	177.246	92.92	177.246	92.9612	177.246	92.9072	177.246	92.9696	177.246	92.8924	177.246	92.9769	177.246	92.8755	177.246	92.9828	177.246	92.8563	177.246	92.9871	177.246	92.8357	177.246	92.9897	177.246	92.8148	177.246	92.9907	177.246	92.7954	177.246	92.9892	177.246	92.7791	177.246	92.9842	177.246	92.7667	177.246	92.9743	177.246	92.7582	177.246	92.9584	177.246	92.7532	177.246	92.9362	177.246	92.7513	177.246	92.9086	177.246	92.7529	177.246	92.8776	177.246	92.7592	177.246	92.8458	177.246	92.7716	177.246	92.816	177.246	92.7907
183.105	93.2398	183.105	93.2564	183.105	93.2093	183.105	93.2587	183.105	93.1671	183.105	93.2474	183.105	93.1165	183.105	93.2239	183.105	93.0615	183.105	93.1899	183.105	93.0065	183.105	93.1468	183.105	92.9548	183.105	93.0958	183.105	92.9087	183.105	93.0381	183.105	92.8683	183.105	92.9749	183.105	92.8321	183.105	92.9081	183.105	92.7973	183.105	92.8397	183.105	92.761	183.105	92.7723	183.105	92.7215	183.105	92.7085	183.105	92.6794	183.105	92.6515	183.105	92.6376	183.105	92.604	183.105	92.5996	183.105	92.5688	183.105	92.5692	183.105	92.5478	183.105	92.5491	183.105	92.5414
188.965	93.1768	188.965	93.1964	188.965	93.1425	188.965	93.2014	188.965	93.094	188.965	93.1922	188.965	93.0322	188.965	93.1699	188.965	92.959	188.965	93.1355	188.965	92.8766	188.965	93.0902	188.965	92.7887	188.965	93.0356	188.965	92.7001	188.965	92.9736	188.965	92.6164	188.965	92.907	188.965	92.543	188.965	92.8396	188.965	92.4832	188.965	92.7749	188.965	92.4376	188.965	92.7152	188.965	92.4043	188.965	92.6611	188.965	92.3805	188.965	92.6107	188.965	92.3651	188.965	92.5618	188.965	92.3595	188.965	92.5129	188.965	92.3663	188.965	92.4649	188.965	92.3872	188.965	92.4214
196.289	93.057	196.289	93.0598	196.289	93.0452	196.289	93.0548	196.289	93.0238	196.289	93.043	196.289	92.9928	196.289	93.0249	196.289	92.9531	196.289	92.9996	196.289	92.9059	196.289	92.9659	196.289	92.8525	196.289	92.9222	196.289	92.7939	196.289	92.8679	196.289	92.7309	196.289	92.8038	196.289	92.6644	196.289	92.732	196.289	92.5961	196.289	92.6563	196.289	92.5292	196.289	92.5813	196.289	92.4677	196.289	92.512	196.289	92.4158	196.289	92.4528	196.289	92.3765	196.289	92.4063	196.289	92.3507	196.289	92.3729	196.289	92.3373	196.289	92.3512	196.289	92.3339	196.289	92.3386
203.613	93.3697	203.613	93.3781	203.613	93.3398	203.613	93.3631	203.613	93.2921	203.613	93.325	203.613	93.2306	203.613	93.2663	203.613	93.1586	203.613	93.1912	203.613	93.078	203.613	93.1036	203.613	92.9891	203.613	93.007	203.613	92.8919	203.613	92.904	203.613	92.7867	203.613	92.7963	203.613	92.6752	203.613	92.6858	203.613	92.5605	203.613	92.5748	203.613	92.4466	203.613	92.4665	203.613	92.3384	203.613	92.3641	203.613	92.2407	203.613	92.2709	203.613	92.1581	203.613	92.1898	203.613	92.0947	203.613	92.1232	203.613	92.0537	203.613	92.0738	203.613	92.0369	203.613	92.0441
210.938	93.211	210.938	93.2226	210.938	93.1853	210.938	93.2222	210.938	93.1436	210.938	93.2115	210.938	93.0854	210.938	93.1908	210.938	93.012	210.938	93.1587	210.938	92.926	210.938	93.112	210.938	92.8304	210.938	93.0467	210.938	92.7278	210.938	92.9594	210.938	92.6194	210.938	92.8491	210.938	92.5062	210.938	92.7187	210.938	92.3896	210.938	92.5748	210.938	92.2731	210.938	92.4266	210.938	92.1616	210.938	92.2839	210.938	92.0604	210.938	92.1546	210.938	91.9746	210.938	92.0443	210.938	91.9083	210.938	91.9565	210.938	91.8649	210.938	91.8934	210.938	91.8472	210.938	91.8566
218.262	92.7129	218.262	92.6845	218.262	92.7372	218.262	92.6549	218.262	92.7533	218.262	92.6252	218.262	92.757	218.262	92.5952	218.262	92.7453	218.262	92.5635	218.262	92.7176	218.262	92.5288	218.262	92.6765	218.262	92.4901	218.262	92.6278	218.262	92.4475	218.262	92.579	218.262	92.402	218.262	92.5379	218.262	92.3566	218.262	92.5101	218.262	92.3156	218.262	92.4973	218.262	92.284	218.262	92.4954	218.262	92.2658	218.262	92.4963	218.262	92.2629	218.262	92.491	218.262	92.2745	218.262	92.4737	218.262	92.2978	218.262	92.4441	218.262	92.3294	218.262	92.4065	218.262	92.3668
225.586	92.6574	225.586	92.6748	225.586	92.632	225.586	92.6846	225.586	92.5994	225.586	92.6887	225.586	92.5613	225.586	92.6897	225.586	92.5194	225.586	92.6899	225.586	92.4759	225.586	92.6898	225.586	92.4333	225.586	92.6881	225.586	92.3943	225.586	92.6825	225.586	92.3614	225.586	92.6708	225.586	92.3368	225.586	92.6527	225.586	92.3226	225.586	92.6305	225.586	92.3217	225.586	92.6088	225.586	92.3372	225.586	92.5932	225.586	92.3706	225.586	92.5873	225.586	92.419	225.586	92.5907	225.586	92.4747	225.586	92.5982	225.586	92.5276	225.586	92.6018	225.586	92.5689	225.586	92.5937
232.91	92.8926	232.91	92.9235	232.91	92.8351	232.91	92.9304	232.91	92.752	232.91	92.9186	232.91	92.6475	232.91	92.8949	232.91	92.5288	232.91	92.8662	232.91	92.4054	232.91	92.8376	232.91	92.2876	232.91	92.8117	232.91	92.1854	232.91	92.7883	232.91	92.106	232.91	92.7659	232.91	92.0518	232.91	92.7437	232.91	92.0199	232.91	92.7216	232.91	92.0051	232.91	92.6999	232.91	92.0044	232.91	92.6775	232.91	92.02	232.91	92.6506	232.91	92.0571	232.91	92.6133	232.91	92.1193	232.91	92.5601	232.91	92.2037	232.91	92.4883	232.91	92.3013	232.91	92.3998
241.699	93.1868	241.699	93.142	241.699	93.2037	241.699	93.076	241.699	93.1881	241.699	92.996	241.699	93.1388	241.699	92.9083	241.699	93.0572	241.699	92.8178	241.699	92.9464	241.699	92.7282	241.699	92.8102	241.699	92.6416	241.699	92.6531	241.699	92.5582	241.699	92.4815	241.699	92.4757	241.699	92.3046	241.699	92.3895	241.699	92.1338	241.699	92.2947	241.699	91.9797	241.699	92.1889	241.699	91.8504	241.699	92.0756	241.699	91.75	241.699	91.9635	241.699	91.6802	241.699	91.8629	241.699	91.6406	241.699	91.7805	241.699	91.6291	241.699	91.7174	241.699	91.641	241.699	91.6713
250.488	93.0716	250.488	93.036	250.488	93.0703	250.488	92.9682	250.488	93.0297	250.488	92.8738	250.488	92.9512	250.488	92.759	250.488	92.8409	250.488	92.6297	250.488	92.7095	250.488	92.4918	250.488	92.5707	250.488	92.3525	250.488	92.4371	250.488	92.2193	250.488	92.3179	250.488	92.1	250.488	92.2169	250.488	91.9993	250.488	92.1325	250.488	91.9176	250.488	92.0587	250.488	91.8506	250.488	91.9868	250.488	91.7912	250.488	91.9088	250.488	91.7338	250.488	91.8219	250.488	91.6764	250.488	91.7317	250.488	91.6235	250.488	91.6509	250.488	91.5847	250.488	91.5945	250.488	91.5723
259.277	92.8976	259.277	92.8847	259.277	92.889	259.277	92.8513	259.277	92.8577	259.277	92.7988	259.277	92.8019	259.277	92.729	259.277	92.72	259.277	92.6441	259.277	92.6114	259.277	92.5462	259.277	92.4786	259.277	92.4381	259.277	92.3266	259.277	92.3237	259.277	92.1634	259.277	92.2094	259.277	91.9998	259.277	92.1028	259.277	91.8506	259.277	92.0112	259.277	91.7335	259.277	91.9394	259.277	91.6633	259.277	91.8893	259.277	91.6444	259.277	91.8594	259.277	91.6676	259.277	91.8454	259.277	91.7139	259.277	91.8411	259.277	91.7637	259.277	91.838	259.277	91.8035	259.277	91.8277
268.066	92.849	268.066	92.7998	268.066	92.8705	268.066	92.7228	268.066	92.8654	268.066	92.62	268.066	92.8339	268.066	92.4956	268.066	92.774	268.066	92.3559	268.066	92.6844	268.066	92.2085	268.066	92.5676	268.066	92.0629	268.066	92.4329	268.066	91.9307	268.066	92.2933	268.066	91.824	268.066	92.1592	268.066	91.7524	268.066	92.0334	268.066	91.7194	268.066	91.9117	268.066	91.7188	268.066	91.7901	268.066	91.7359	268.066	91.6727	268.066	91.7516	268.066	91.5737	268.066	91.7489	268.066	91.5113	268.066	91.7187	268.066	91.4971	268.066	91.6622	268.066	91.5293	268.066	91.592
276.855	92.7531	276.855	92.7853	276.855	92.7008	276.855	92.787	276.855	92.6429	276.855	92.7552	276.855	92.5914	276.855	92.6942	276.855	92.5495	276.855	92.6106	276.855	92.5096	276.855	92.5085	276.855	92.4581	276.855	92.387	276.855	92.3844	276.855	92.2434	276.855	92.2906	276.855	92.0794	276.855	92.1948	276.855	91.9061	276.855	92.1239	276.855	91.7456	276.855	92.0992	276.855	91.6264	276.855	92.1214	276.855	91.5723	276.855	92.1685	276.855	91.5909	276.855	92.2082	276.855	91.6688	276.855	92.2152	276.855	91.7801	276.855	92.1806	276.855	91.9001	276.855	92.1097	276.855	92.0131
287.109	92.7678	287.109	92.7099	287.109	92.7876	287.109	92.6302	287.109	92.7596	287.109	92.5468	287.109	92.6845	287.109	92.4737	287.109	92.5735	287.109	92.4175	287.109	92.4443	287.109	92.3767	287.109	92.3145	287.109	92.344	287.109	92.1918	287.109	92.3098	287.109	92.0695	287.109	92.2648	287.109	91.9322	287.109	92.2017	287.109	91.7701	287.109	92.117	287.109	91.5935	287.109	92.0131	287.109	91.4361	287.109	91.9003	287.109	91.3415	287.109	91.7964	287.109	91.3367	287.109	91.721	287.109	91.4106	287.109	91.6839	287.109	91.5184	287.109	91.6734	287.109	91.6101	287.109	91.6591
297.363	92.8975	297.363	92.8741	297.363	92.8967	297.363	92.8218	297.363	92.87	297.363	92.7347	297.363	92.8081	297.363	92.6141	297.363	92.6964	297.363	92.4732	297.363	92.5223	297.363	92.3373	297.363	92.2848	297.363	92.2349	297.363	92.0081	297.363	92.1873	297.363	91.7465	297.363	92.1995	297.363	91.5698	297.363	92.2566	297.363	91.5211	297.363	92.3288	297.363	91.5791	297.363	92.3814	297.363	91.6703	297.363	92.3858	297.363	91.7228	297.363	92.3265	297.363	91.7103	297.363	92.2044	297.363	91.6577	297.363	92.0382	297.363	91.6163	297.363	91.8619	297.363	91.6297	297.363	91.7152
307.617	92.9422	307.617	92.9188	307.617	92.9183	307.617	92.8553	307.617	92.8508	307.617	92.7611	307.617	92.7563	307.617	92.6398	307.617	92.6593	307.617	92.4869	307.617	92.5801	307.617	92.2951	307.617	92.5206	307.617	92.0645	307.617	92.4583	307.617	91.8124	307.617	92.3562	307.617	91.5751	307.617	92.1876	307.617	91.3974	307.617	91.9616	307.617	91.3111	307.617	91.7317	307.617	91.3188	307.617	91.5703	307.617	91.3965	307.617	91.5172	307.617	91.5087	307.617	91.5515	307.617	91.6213	307.617	91.6204	307.617	91.7077	307.617	91.6848	307.617	91.7532	307.617	91.7319	307.617	91.7578
319.336	92.8982	319.336	92.8478	319.336	92.8965	319.336	92.7499	319.336	92.8418	319.336	92.614	319.336	92.735	319.336	92.4529	319.336	92.5787	319.336	92.2774	319.336	92.3807	319.336	92.0926	319.336	92.1583	319.336	91.8958	319.336	91.9393	319.336	91.68	319.336	91.7557	319.336	91.4445	319.336	91.6287	319.336	91.2103	319.336	91.5564	319.336	91.026	319.336	91.5172	319.336	90.9467	319.336	91.4903	319.336	90.9917	319.336	91.4724	319.336	91.1248	319.336	91.4736	319.336	91.2832	319.336	91.4982	319.336	91.4181	319.336	91.5343	319.336	91.5093	319.336	91.5595	319.336	91.5548
329.59	92.298	329.59	92.2793	329.59	92.3134	329.59	92.2609	329.59	92.3137	329.59	92.2386	329.59	92.2836	329.59	92.2046	329.59	92.2129	329.59	92.1509	329.59	92.1032	329.59	92.0719	329.59	91.9669	329.59	91.9669	329.59	91.8204	329.59	91.8384	329.59	91.6753	329.59	91.6868	329.59	91.5342	329.59	91.508	329.59	91.3936	329.59	91.3033	329.59	91.2516	329.59	91.0935	329.59	91.1135	329.59	90.9205	329.59	90.9927	329.59	90.8232	329.59	90.9041	329.59	90.8047	329.59	90.8556	329.59	90.8302	329.59	90.8434	329.59	90.8572	329.59	90.8529	329.59	90.8635
341.309	92.7218	341.309	92.6927	341.309	92.67	341.309	92.5835	341.309	92.5493	341.309	92.4114	341.309	92.3767	341.309	92.2083	341.309	92.1669	341.309	92.0132	341.309	91.929	341.309	91.8578	341.309	91.6718	341.309	91.7536	341.309	91.4139	341.309	91.6874	341.309	91.1924	341.309	91.6313	341.309	91.0564	341.309	91.5575	341.309	91.039	341.309	91.4526	341.309	91.1268	341.309	91.3239	341.309	91.262	341.309	91.1975	341.309	91.3804	341.309	91.1051	341.309	91.4459	341.309	91.069	341.309	91.4544	341.309	91.0927	341.309	91.4168	341.309	91.1624	341.309	91.3457	341.309	91.2547
353.027	92.4004	353.027	92.4064	353.027	92.3461	353.027	92.3699	353.027	92.243	353.027	92.2983	353.027	92.098	353.027	92.1981	353.027	91.9237	353.027	92.0774	353.027	91.7365	353.027	91.9504	353.027	91.5509	353.027	91.8362	353.027	91.3713	353.027	91.7517	353.027	91.1859	353.027	91.6989	353.027	90.9757	353.027	91.6603	353.027	90.7371	353.027	91.6056	353.027	90.5	353.027	91.5113	353.027	90.3184	353.027	91.3785	353.027	90.2338	353.027	91.2341	353.027	90.2521	353.027	91.1106	353.027	90.3524	353.027	91.0173	353.027	90.5046	353.027	90.9317	353.027	90.6728	353.027	90.8212
366.211	92.2293	366.211	92.1699	366.211	92.2552	366.211	92.0736	366.211	92.2502	366.211	91.9447	366.211	92.2123	366.211	91.7983	366.211	92.1367	366.211	91.652	366.211	92.0217	366.211	91.5155	366.211	91.8729	366.211	91.3883	366.211	91.7061	366.211	91.2697	366.211	91.5438	366.211	91.1735	366.211	91.4035	366.211	91.1294	366.211	91.2881	366.211	91.1641	366.211	91.1913	366.211	91.2727	366.211	91.1164	366.211	91.4131	366.211	91.0844	366.211	91.5345	366.211	91.1173	366.211	91.6069	366.211	91.2119	366.211	91.6269	366.211	91.3368	366.211	91.6041	366.211	91.4554	366.211	91.5463
379.395	92.2577	379.395	92.2365	379.395	92.222	379.395	92.1462	379.395	92.1392	379.395	91.9769	379.395	92.0201	379.395	91.7348	379.395	91.8811	379.395	91.4531	379.395	91.7439	379.395	91.1902	379.395	91.6257	379.395	91.0061	379.395	91.5326	379.395	90.9291	379.395	91.4623	379.395	90.941	379.395	91.4182	379.395	90.9985	379.395	91.413	379.395	91.0713	379.395	91.4529	379.395	91.1574	379.395	91.5191	379.395	91.2622	379.395	91.5763	379.395	91.3744	379.395	91.6005	379.395	91.468	379.395	91.5944	379.395	91.5258	379.395	91.5769	379.395	91.5507	379.395	91.5639	379.395	91.5581
392.578	91.971	392.578	91.8695	392.578	91.9856	392.578	91.7158	392.578	91.8958	392.578	91.5486	392.578	91.7002	392.578	91.388	392.578	91.4108	392.578	91.2289	392.578	91.0631	392.578	91.0616	392.578	90.7294	392.578	90.9027	392.578	90.508	392.578	90.8061	392.578	90.4632	392.578	90.8325	392.578	90.573	392.578	90.9915	392.578	90.7611	392.578	91.2232	392.578	90.9712	392.578	91.4473	392.578	91.1905	392.578	91.6142	392.578	91.4151	392.578	91.7136	392.578	91.6188	392.578	91.7563	392.578	91.7623	392.578	91.7648	392.578	91.8249	392.578	91.7688	392.578	91.8208	392.578	91.79
405.762	93.0645	405.762	92.8698	405.762	93.1058	405.762	92.5216	405.762	92.9944	405.762	92.0301	405.762	92.7282	405.762	91.4305	405.762	92.3043	405.762	90.7965	405.762	91.723	405.762	90.2334	405.762	90.9993	405.762	89.8407	405.762	90.1934	405.762	89.6693	405.762	89.4606	405.762	89.72	405.762	89.057	405.762	89.9701	405.762	89.1721	405.762	90.3748	405.762	89.7075	405.762	90.8585	405.762	90.3751	405.762	91.3358	405.762	90.9614	405.762	91.7486	405.762	91.4106	405.762	92.0749	405.762	91.76	405.762	92.3068	405.762	92.0521	405.762	92.4284	405.762	92.2845	405.762	92.4205
420.41	93.6522	420.41	93.6154	420.41	93.584	420.41	93.4667	420.41	93.4236	420.41	93.2027	420.41	93.1853	420.41	92.8165	420.41	92.8795	420.41	92.2962	420.41	92.5067	420.41	91.6395	420.41	92.053	420.41	90.8774	420.41	91.4952	420.41	90.0907	420.41	90.8219	420.41	89.4059	420.41	90.0672	420.41	88.9778	420.41	89.3426	420.41	88.9364	420.41	88.836	420.41	89.2774	420.41	88.7188	420.41	89.8376	420.41	88.9944	420.41	90.4258	420.41	89.4986	420.41	90.9214	420.41	90.0599	420.41	91.2593	420.41	90.5847	420.41	91.3953	420.41	91.0204	420.41	91.3089
435.059	93.2984	435.059	93.2747	435.059	93.2679	435.059	93.187	435.059	93.183	435.059	93.0171	435.059	93.0396	435.059	92.7409	435.059	92.8354	435.059	92.3326	435.059	92.5684	435.059	91.7759	435.059	92.2239	435.059	91.0886	435.059	91.7688	435.059	90.3446	435.059	91.1747	435.059	89.6598	435.059	90.4722	435.059	89.1463	435.059	89.7993	435.059	88.8878	435.059	89.365	435.059	88.9429	435.059	89.2975	435.059	89.298	435.059	89.5434	435.059	89.8152	435.059	89.9473	435.059	90.3056	435.059	90.3593	435.059	90.6527	435.059	90.6766	435.059	90.8424	435.059	90.8561	435.059	90.9059
451.172	93.905	451.172	93.7806	451.172	93.9112	451.172	93.5303	451.172	93.8102	451.172	93.1605	451.172	93.606	451.172	92.7023	451.172	93.2925	451.172	92.2103	451.172	92.8681	451.172	91.7334	451.172	92.3583	451.172	91.2714	451.172	91.8226	451.172	90.7797	451.172	91.3179	451.172	90.2397	451.172	90.8398	451.172	89.7204	451.172	90.3278	451.172	89.3295	451.172	89.7732	451.172	89.1048	451.172	89.317	451.172	89.022	451.172	89.1465	451.172	89.0836	451.172	89.2533	451.172	89.2888	451.172	89.4616	451.172	89.5553	451.172	89.6485	451.172	89.7602	451.172	89.7811	451.172	89.8328
465.82	93.514	465.82	93.4844	465.82	93.497	465.82	93.3888	465.82	93.4427	465.82	93.2095	465.82	93.3403	465.82	92.9301	465.82	93.1624	465.82	92.5318	465.82	92.8795	465.82	92.0041	465.82	92.4745	465.82	91.3693	465.82	91.952	465.82	90.6902	465.82	91.3491	465.82	90.0466	465.82	90.7443	465.82	89.5149	465.82	90.2307	465.82	89.1762	465.82	89.8452	465.82	89.0951	465.82	89.5526	465.82	89.2451	465.82	89.345	465.82	89.5085	465.82	89.3083	465.82	89.7774	465.82	89.5061	465.82	90.0059	465.82	89.838	465.82	90.1715	465.82	90.1164	465.82	90.2273
483.398	93.4903	483.398	93.431	483.398	93.4902	483.398	93.3258	483.398	93.4175	483.398	93.1749	483.398	93.2668	483.398	92.9586	483.398	93.0377	483.398	92.6482	483.398	92.7234	483.398	92.2241	483.398	92.3096	483.398	91.6905	483.398	91.791	483.398	91.0746	483.398	91.1841	483.398	90.4161	483.398	90.5107	483.398	89.7569	483.398	89.7869	483.398	89.1549	483.398	89.0818	483.398	88.7248	483.398	88.5833	483.398	88.6163	483.398	88.4739	483.398	88.8637	483.398	88.7097	483.398	89.3042	483.398	89.0945	483.398	89.7162	483.398	89.4838	483.398	89.957	483.398	89.8009	483.398	89.9785
499.512	93.4238	499.512	93.305	499.512	93.4523	499.512	93.1294	499.512	93.3762	499.512	92.9217	499.512	93.2059	499.512	92.6704	499.512	92.9675	499.512	92.3391	499.512	92.6826	499.512	91.909	499.512	92.3457	499.512	91.4017	499.512	91.9164	499.512	90.857	499.512	91.3558	499.512	90.3082	499.512	90.6944	499.512	89.8008	499.512	90.0696	499.512	89.4167	499.512	89.6539	499.512	89.226	499.512	89.5099	499.512	89.2186	499.512	89.5642	499.512	89.337	499.512	89.7092	499.512	89.5375	499.512	89.8668	499.512	89.776	499.512	89.9961	499.512	89.9795	499.512	90.0775	499.512	90.083
517.09	93.4438	517.09	93.3993	517.09	93.3645	517.09	93.1888	517.09	93.2153	517.09	92.8304	517.09	93.029	517.09	92.4113	517.09	92.808	517.09	92.0072	517.09	92.5349	517.09	91.5817	517.09	92.1998	517.09	91.0198	517.09	91.825	517.09	90.2796	517.09	91.4477	517.09	89.5014	517.09	91.0635	517.09	88.948	517.09	90.6182	517.09	88.7735	517.09	90.091	517.09	88.8965	517.09	89.5732	517.09	89.1343	517.09	89.2266	517.09	89.3573	517.09	89.1331	517.09	89.5193	517.09	89.2244	517.09	89.6177	517.09	89.3782	517.09	89.6505	517.09	89.5179	517.09	89.6142
536.133	93.4265	536.133	93.4053	536.133	93.3486	536.133	93.2804	536.133	93.1877	536.133	93.0616	536.133	92.9593	536.133	92.768	536.133	92.666	536.133	92.4224	536.133	92.2932	536.133	92.0392	536.133	91.8158	536.133	91.6057	536.133	91.2165	536.133	91.0815	536.133	90.5101	536.133	90.4285	536.133	89.7639	536.133	89.658	536.133	89.1081	536.133	88.897	536.133	88.6873	536.133	88.4173	536.133	88.5416	536.133	88.4272	536.133	88.591	536.133	88.7851	536.133	88.783	536.133	89.1867	536.133	89.1137	536.133	89.4889	536.133	89.4904	536.133	89.6972	536.133	89.7493	536.133	89.8061
555.176	93.6132	555.176	93.5956	555.176	93.6383	555.176	93.569	555.176	93.6394	555.176	93.4688	555.176	93.5588	555.176	93.2061	555.176	93.3517	555.176	92.7194	555.176	93.0113	555.176	92.0251	555.176	92.5528	555.176	91.2179	555.176	91.9907	555.176	90.4099	555.176	91.3448	555.176	89.6707	555.176	90.6379	555.176	89.0467	555.176	89.867	555.176	88.6116	555.176	89.0449	555.176	88.4414	555.176	88.3556	555.176	88.5467	555.176	88.1212	555.176	88.8691	555.176	88.3863	555.176	89.299	555.176	88.8476	555.176	89.6815	555.176	89.2675	555.176	89.8729	555.176	89.5993	555.176	89.826
574.219	93.515	574.219	93.4	574.219	93.5408	574.219	93.2347	574.219	93.4368	574.219	93.0357	574.219	93.2024	574.219	92.8067	574.219	92.8795	574.219	92.5427	574.219	92.5198	574.219	92.2187	574.219	92.1485	574.219	91.7687	574.219	91.7181	574.219	91.0995	574.219	91.1078	574.219	90.1882	574.219	90.2593	574.219	89.1974	574.219	89.338	574.219	88.4034	574.219	88.6642	574.219	87.9426	574.219	88.3975	574.219	87.8057	574.219	88.4206	574.219	87.9848	574.219	88.5577	574.219	88.4014	574.219	88.745	574.219	88.8931	574.219	89.0101	574.219	89.2889	574.219	89.3044	574.219	89.4414
594.727	93.4652	594.727	93.4582	594.727	93.4104	594.727	93.3553	594.727	93.3269	594.727	93.1318	594.727	93.2305	594.727	92.7803	594.727	93.0903	594.727	92.3153	594.727	92.8119	594.727	91.7653	594.727	92.3028	594.727	91.1514	594.727	91.6066	594.727	90.4712	594.727	90.9218	594.727	89.7297	594.727	90.3404	594.727	89.0272	594.727	89.6605	594.727	88.5581	594.727	88.6878	594.727	88.3837	594.727	87.6422	594.727	88.3918	594.727	87.1013	594.727	88.5754	594.727	87.3104	594.727	88.9607	594.727	87.9523	594.727	89.35	594.727	88.6463	594.727	89.5283	594.727	89.1715	594.727	89.4632
615.234	93.2221	615.234	93.1562	615.234	93.1891	615.234	93.0179	615.234	93.0698	615.234	92.8586	615.234	92.8785	615.234	92.6808	615.234	92.6205	615.234	92.4104	615.234	92.3189	615.234	91.9684	615.234	92.0036	615.234	91.3425	615.234	91.6408	615.234	90.5909	615.234	91.115	615.234	89.7805	615.234	90.3398	615.234	88.908	615.234	89.3775	615.234	88.0055	615.234	88.4309	615.234	87.4215	615.234	87.7297	615.234	87.5424	615.234	87.4342	615.234	88.0844	615.234	87.539	615.234	88.5965	615.234	87.8568	615.234	88.9691	615.234	88.2377	615.234	89.1448	615.234	88.658	615.234	89.0232
637.207	92.7966	637.207	92.7989	637.207	92.7271	637.207	92.7028	637.207	92.6368	637.207	92.5457	637.207	92.5301	637.207	92.3795	637.207	92.3753	637.207	92.1657	637.207	92.146	637.207	91.8328	637.207	91.824	637.207	91.4062	637.207	91.3597	637.207	90.9081	637.207	90.6986	637.207	90.1886	637.207	89.8789	637.207	89.1101	637.207	89.0103	637.207	87.8998	637.207	88.1237	637.207	87.0842	637.207	87.2411	637.207	86.7996	637.207	86.6307	637.207	86.7542	637.207	86.6579	637.207	86.8581	637.207	87.2394	637.207	87.1995	637.207	87.8832	637.207	87.6995	637.207	88.2065	637.207	88.11
659.18	92.5189	659.18	92.4851	659.18	92.5175	659.18	92.3773	659.18	92.4785	659.18	92.1553	659.18	92.3956	659.18	91.8621	659.18	92.258	659.18	91.5733	659.18	92.0014	659.18	91.2165	659.18	91.5531	659.18	90.6222	659.18	90.9612	659.18	89.7834	659.18	90.3678	659.18	88.9179	659.18	89.7777	659.18	88.1799	659.18	89.0076	659.18	87.4535	659.18	87.9837	659.18	86.7287	659.18	86.9922	659.18	86.4756	659.18	86.4232	659.18	87.0482	659.18	86.3259	659.18	87.9446	659.18	86.6359	659.18	88.5717	659.18	87.2717	659.18	88.7579	659.18	87.993	659.18	88.5392
682.617	92.6022	682.617	92.4817	682.617	92.6476	682.617	92.3682	682.617	92.5289	682.617	92.2253	682.617	92.2377	682.617	91.9314	682.617	91.8692	682.617	91.4761	682.617	91.5589	682.617	90.9978	682.617	91.3633	682.617	90.5568	682.617	91.1618	682.617	89.9963	682.617	90.7202	682.617	89.1187	682.617	89.9315	682.617	87.9079	682.617	88.93	682.617	86.6709	682.617	87.8648	682.617	85.9231	682.617	86.7741	682.617	85.829	682.617	86.0158	682.617	86.1665	682.617	86.0857	682.617	86.8252	682.617	86.6603	682.617	87.6301	682.617	87.2498	682.617	88.1855	682.617	87.8069	682.617	88.2159
707.52	92.3792	707.52	92.3073	707.52	92.3667	707.52	92.11	707.52	92.277	707.52	91.8604	707.52	92.1019	707.52	91.6884	707.52	91.8922	707.52	91.5103	707.52	91.6337	707.52	91.1094	707.52	91.1881	707.52	90.448	707.52	90.5193	707.52	89.6769	707.52	89.799	707.52	88.9086	707.52	89.0966	707.52	88.0963	707.52	88.2299	707.52	87.1055	707.52	87.1341	707.52	86.0208	707.52	86.049	707.52	85.4335	707.52	85.3261	707.52	85.6208	707.52	85.275	707.52	85.9454	707.52	85.8059	707.52	85.9704	707.52	86.3048	707.52	85.9182	707.52	86.3605	707.52	86.1025
732.422	92.3431	732.422	92.3555	732.422	92.2416	732.422	92.2488	732.422	92.1267	732.422	91.9891	732.422	92.0517	732.422	91.6083	732.422	91.9015	732.422	91.1966	732.422	91.5692	732.422	90.7681	732.422	91.1431	732.422	90.2631	732.422	90.6887	732.422	89.5848	732.422	90.0963	732.422	88.586	732.422	89.3079	732.422	87.2147	732.422	88.4042	732.422	85.7322	732.422	87.3779	732.422	84.6714	732.422	86.181	732.422	84.389	732.422	85.049	732.422	84.6893	732.422	84.4686	732.422	85.279	732.422	84.6902	732.422	86.043	732.422	85.4156	732.422	86.6175	732.422	86.2005	732.422	86.6761
757.324	92.1019	757.324	92.0471	757.324	92.1512	757.324	91.8828	757.324	92.1668	757.324	91.6438	757.324	91.9865	757.324	91.4581	757.324	91.6474	757.324	91.3387	757.324	91.3261	757.324	91.1618	757.324	91.0362	757.324	90.7927	757.324	90.7073	757.324	90.1927	757.324	90.3417	757.324	89.3587	757.324	89.8621	757.324	88.1935	757.324	89.0223	757.324	86.6543	757.324	87.6366	757.324	85.0331	757.324	85.9146	757.324	83.9347	757.324	84.6127	757.324	83.9631	757.324	84.2504	757.324	84.9601	757.324	84.5813	757.324	86.0469	757.324	85.3802	757.324	86.703	757.324	86.2905	757.324	86.7994
785.156	91.7945	785.156	91.6144	785.156	91.866	785.156	91.4703	785.156	91.7562	785.156	91.382	785.156	91.4987	785.156	91.1902	785.156	91.2071	785.156	90.8036	785.156	90.9933	785.156	90.3446	785.156	90.8221	785.156	89.926	785.156	90.5535	785.156	89.4324	785.156	90.1098	785.156	88.7119	785.156	89.4675	785.156	87.7762	785.156	88.5918	785.156	86.6339	785.156	87.4542	785.156	85.1514	785.156	86.098	785.156	83.7277	785.156	84.9127	785.156	83.5884	785.156	84.5088	785.156	84.6024	785.156	84.5538	785.156	85.5506	785.156	84.6144	785.156	85.8444	785.156	84.9409	785.156	85.4989
811.523	91.9084	811.523	91.8088	811.523	91.8836	811.523	91.6168	811.523	91.7015	811.523	91.3117	811.523	91.5007	811.523	90.9885	811.523	91.3577	811.523	90.7498	811.523	91.1294	811.523	90.5548	811.523	90.8035	811.523	90.3295	811.523	90.5183	811.523	89.9579	811.523	90.192	811.523	89.2119	811.523	89.6397	811.523	87.9415	811.523	88.7839	811.523	86.3337	811.523	87.6915	811.523	84.9263	811.523	86.404	811.523	84.0242	811.523	84.8233	811.523	83.6503	811.523	83.5772	811.523	84.2927	811.523	84.0742	811.523	85.4842	811.523	85.3755	811.523	86.1371	811.523	86.0678	811.523	86.2273
840.82	91.8291	840.82	91.7703	840.82	91.775	840.82	91.5248	840.82	91.6907	840.82	91.1429	840.82	91.4954	840.82	90.7599	840.82	91.1454	840.82	90.4629	840.82	90.7704	840.82	90.1555	840.82	90.5076	840.82	89.6676	840.82	90.3187	840.82	89.0108	840.82	90.0029	840.82	88.354	840.82	89.4689	840.82	87.7714	840.82	88.7678	840.82	86.9511	840.82	87.8242	840.82	85.2804	840.82	86.3756	840.82	83.1951	840.82	84.5876	840.82	83.049	840.82	83.3921	840.82	83.7879	840.82	83.3573	840.82	83.9452	840.82	84.2207	840.82	84.5091	840.82	85.202	840.82	85.3111
870.117	91.9854	870.117	91.8916	870.117	92.0116	870.117	91.6008	870.117	91.8984	870.117	91.1138	870.117	91.4884	870.117	90.6307	870.117	90.9708	870.117	90.3137	870.117	90.6595	870.117	90.1373	870.117	90.4878	870.117	90.0053	870.117	90.2501	870.117	89.8395	870.117	89.92	870.117	89.3226	870.117	89.4411	870.117	87.9716	870.117	88.5851	870.117	85.9851	870.117	87.2462	870.117	84.5555	870.117	85.6384	870.117	83.7036	870.117	84.0182	870.117	82.7611	870.117	83.0455	870.117	83.5423	870.117	83.4471	870.117	85.1031	870.117	84.3136	870.117	85.4976	870.117	84.8126	870.117	85.1613
900.879	92.0194	900.879	91.5982	900.879	92.0447	900.879	91.2985	900.879	91.8337	900.879	91.2418	900.879	91.6412	900.879	90.8908	900.879	91.2547	900.879	90.3639	900.879	90.6837	900.879	90.0757	900.879	90.3021	900.879	89.6751	900.879	90.2237	900.879	88.9493	900.879	90.1244	900.879	88.4718	900.879	89.6237	900.879	88.4507	900.879	88.837	900.879	87.8447	900.879	88.096	900.879	85.7307	900.879	86.9027	900.879	83.1186	900.879	84.7399	900.879	82.3047	900.879	82.5555	900.879	82.6046	900.879	81.7123	900.879	83.4441	900.879	82.4801	900.879	84.2222	900.879	83.6452	900.879	84.311
933.105	92.1115	933.105	92.1327	933.105	92.0809	933.105	91.6999	933.105	91.8951	933.105	90.903	933.105	91.3076	933.105	90.4721	933.105	90.5621	933.105	90.2029	933.105	89.993	933.105	89.6461	933.105	89.6774	933.105	89.437	933.105	89.3351	933.105	89.7355	933.105	88.938	933.105	89.6202	933.105	88.9262	933.105	88.4537	933.105	88.8742	933.105	86.8054	933.105	88.0099	933.105	85.845	933.105	86.7571	933.105	84.6109	933.105	85.3424	933.105	82.6739	933.105	83.3899	933.105	82.9589	933.105	82.9624	933.105	84.3676	933.105	83.9017	933.105	84.8822	933.105	84.2323	933.105	84.7358
965.332	92.8825	965.332	92.6437	965.332	92.7476	965.332	92.3394	965.332	92.4364	965.332	91.9316	965.332	92.0546	965.332	91.0256	965.332	91.3859	965.332	89.9933	965.332	90.5394	965.332	89.4325	965.332	89.6506	965.332	89.1949	965.332	88.9686	965.332	88.9176	965.332	89.0007	965.332	88.5419	965.332	89.0592	965.332	88.4423	965.332	88.5684	965.332	88.2915	965.332	88.1942	965.332	86.7178	965.332	87.4696	965.332	84.0203	965.332	85.4557	965.332	82.9136	965.332	83.6265	965.332	82.8135	965.332	82.8208	965.332	82.7403	965.332	82.3261	965.332	83.5945	965.332	83.2374	965.332	84.1619
1,000.49	93.5875	1,000.49	93.3633	1,000.49	93.6193	1,000.49	93.0256	1,000.49	93.202	1,000.49	92.4631	1,000.49	92.5522	1,000.49	91.8175	1,000.49	91.9624	1,000.49	91.1683	1,000.49	91.1923	1,000.49	90.3941	1,000.49	90.2375	1,000.49	89.7706	1,000.49	89.4531	1,000.49	89.7893	1,000.49	88.76	1,000.49	89.9966	1,000.49	88.4203	1,000.49	89.5373	1,000.49	88.5586	1,000.49	88.4026	1,000.49	87.9369	1,000.49	87.5703	1,000.49	86.4436	1,000.49	87.0173	1,000.49	85.295	1,000.49	85.5391	1,000.49	84.1612	1,000.49	84.1552	1,000.49	83.5045	1,000.49	84.6962	1,000.49	84.3816	1,000.49	85.026	1,000.49	84.6108	1,000.49	84.4965
1,035.64	93.7566	1,035.64	93.5958	1,035.64	93.5493	1,035.64	93.3131	1,035.64	93.2526	1,035.64	92.9397	1,035.64	93.0555	1,035.64	92.333	1,035.64	92.4672	1,035.64	91.4674	1,035.64	91.5664	1,035.64	90.5365	1,035.64	90.8386	1,035.64	89.9212	1,035.64	89.9704	1,035.64	89.4793	1,035.64	89.0761	1,035.64	88.7154	1,035.64	88.8423	1,035.64	88.0812	1,035.64	88.5547	1,035.64	87.9939	1,035.64	87.956	1,035.64	87.3316	1,035.64	87.4793	1,035.64	85.8415	1,035.64	86.2115	1,035.64	85.2387	1,035.64	84.5322	1,035.64	85.5737	1,035.64	83.8955	1,035.64	85.4675	1,035.64	83.2923	1,035.64	85.7471	1,035.64	84.3795	1,035.64	85.9037
1,072.27	93.3652	1,072.27	93.2101	1,072.27	93.3684	1,072.27	93.0215	1,072.27	93.179	1,072.27	92.715	1,072.27	92.6884	1,072.27	91.8643	1,072.27	92.0462	1,072.27	90.9384	1,072.27	91.2296	1,072.27	90.2809	1,072.27	90.2318	1,072.27	89.0377	1,072.27	89.2058	1,072.27	88.2416	1,072.27	88.2151	1,072.27	88.3979	1,072.27	88.2876	1,072.27	88.1674	1,072.27	88.6185	1,072.27	87.6054	1,072.27	87.4966	1,072.27	86.2972	1,072.27	86.0649	1,072.27	84.3059	1,072.27	85.1745	1,072.27	84.0389	1,072.27	83.4575	1,072.27	84.3727	1,072.27	82.8403	1,072.27	84.8488	1,072.27	83.9236	1,072.27	85.7309	1,072.27	84.876	1,072.27	85.6772
1,108.89	93.0779	1,108.89	92.9509	1,108.89	93.0793	1,108.89	92.5694	1,108.89	92.8572	1,108.89	91.827	1,108.89	92.3911	1,108.89	91.1744	1,108.89	91.8105	1,108.89	90.4451	1,108.89	91.3347	1,108.89	89.4172	1,108.89	90.4575	1,108.89	88.8733	1,108.89	89.1149	1,108.89	88.53	1,108.89	88.5272	1,108.89	87.8453	1,108.89	87.96	1,108.89	87.0693	1,108.89	87.0231	1,108.89	86.3491	1,108.89	86.8394	1,108.89	86.0295	1,108.89	85.9484	1,108.89	85.1886	1,108.89	84.6113	1,108.89	83.6212	1,108.89	84.3107	1,108.89	83.4665	1,108.89	82.8373	1,108.89	84.4829	1,108.89	82.314	1,108.89	85.7374	1,108.89	83.7639	1,108.89	85.5007
1,148.44	92.4728	1,148.44	92.5036	1,148.44	92.4712	1,148.44	92.0863	1,148.44	92.4244	1,148.44	91.6663	1,148.44	91.8655	1,148.44	91.1094	1,148.44	91.3453	1,148.44	90.3551	1,148.44	90.6761	1,148.44	89.7587	1,148.44	89.8361	1,148.44	88.7063	1,148.44	89.4263	1,148.44	87.7119	1,148.44	88.3051	1,148.44	87.0002	1,148.44	87.0459	1,148.44	86.1106	1,148.44	87.4083	1,148.44	85.6923	1,148.44	86.9567	1,148.44	84.1693	1,148.44	85.3896	1,148.44	82.1353	1,148.44	84.3516	1,148.44	81.7566	1,148.44	82.3276	1,148.44	81.7036	1,148.44	80.745	1,148.44	83.0875	1,148.44	82.1935	1,148.44	83.663	1,148.44	83.5838	1,148.44	83.7479
1,189.45	92.0292	1,189.45	91.7357	1,189.45	92.1907	1,189.45	91.7944	1,189.45	91.9243	1,189.45	91.4799	1,189.45	91.8441	1,189.45	90.8887	1,189.45	91.6938	1,189.45	90.4095	1,189.45	91.113	1,189.45	89.1143	1,189.45	90.3146	1,189.45	87.8458	1,189.45	89.0606	1,189.45	87.287	1,189.45	88.3373	1,189.45	85.9485	1,189.45	88.277	1,189.45	85.4883	1,189.45	86.8983	1,189.45	85.3007	1,189.45	85.7405	1,189.45	83.9288	1,189.45	85.42	1,189.45	83.0797	1,189.45	84.0243	1,189.45	81.3875	1,189.45	83.0567	1,189.45	81.0834	1,189.45	81.8648	1,189.45	82.2996	1,189.45	81.8489	1,189.45	83.2129	1,189.45	83.2276	1,189.45	83.7128
1,230.47	92.8194	1,230.47	92.5999	1,230.47	92.7772	1,230.47	92.1651	1,230.47	92.5219	1,230.47	91.646	1,230.47	92.0934	1,230.47	90.9892	1,230.47	91.5646	1,230.47	90.1738	1,230.47	90.9125	1,230.47	89.4948	1,230.47	90.1517	1,230.47	88.8582	1,230.47	89.6182	1,230.47	87.6966	1,230.47	89.1343	1,230.47	87.0159	1,230.47	88.035	1,230.47	86.834	1,230.47	87.2555	1,230.47	85.6614	1,230.47	86.8062	1,230.47	83.5223	1,230.47	85.5706	1,230.47	81.5342	1,230.47	83.8281	1,230.47	81.7585	1,230.47	81.894	1,230.47	82.0815	1,230.47	81.8511	1,230.47	82.8628	1,230.47	82.524	1,230.47	83.4649	1,230.47	83.3366	1,230.47	83.609
1,274.41	93.1829	1,274.41	92.9248	1,274.41	93.05	1,274.41	92.4385	1,274.41	92.8812	1,274.41	91.8163	1,274.41	92.3935	1,274.41	90.9247	1,274.41	91.5223	1,274.41	89.9284	1,274.41	90.6972	1,274.41	89.0496	1,274.41	89.8984	1,274.41	88.7156	1,274.41	88.866	1,274.41	88.51	1,274.41	88.125	1,274.41	88.0435	1,274.41	88.2075	1,274.41	86.9725	1,274.41	87.7128	1,274.41	85.5234	1,274.41	86.775	1,274.41	84.2458	1,274.41	85.4753	1,274.41	81.7481	1,274.41	83.804	1,274.41	79.4272	1,274.41	82.3461	1,274.41	80.3189	1,274.41	80.3248	1,274.41	81.7908	1,274.41	81.3764	1,274.41	83.2723	1,274.41	82.7604	1,274.41	83.4562
1,319.82	93.3876	1,319.82	93.0163	1,319.82	93.3786	1,319.82	92.6367	1,319.82	92.8902	1,319.82	91.995	1,319.82	92.3904	1,319.82	91.0787	1,319.82	91.7867	1,319.82	90.1641	1,319.82	90.6529	1,319.82	88.7275	1,319.82	89.4941	1,319.82	87.7827	1,319.82	88.6449	1,319.82	87.5031	1,319.82	87.9061	1,319.82	87.0401	1,319.82	87.1415	1,319.82	86.2491	1,319.82	86.9706	1,319.82	85.8177	1,319.82	86.4154	1,319.82	84.4643	1,319.82	85.4625	1,319.82	82.0236	1,319.82	83.8614	1,319.82	80.8313	1,319.82	81.1523	1,319.82	79.8885	1,319.82	80.0233	1,319.82	81.6417	1,319.82	81.3185	1,319.82	82.6525	1,319.82	82.5247	1,319.82	82.9941
1,366.7	92.965	1,366.7	92.9078	1,366.7	92.9144	1,366.7	92.6598	1,366.7	92.6638	1,366.7	91.8268	1,366.7	92.2029	1,366.7	91.0613	1,366.7	91.412	1,366.7	90.0342	1,366.7	90.4981	1,366.7	88.7107	1,366.7	89.3347	1,366.7	87.3986	1,366.7	87.9076	1,366.7	86.11	1,366.7	86.655	1,366.7	85.5485	1,366.7	86.0983	1,366.7	86.1823	1,366.7	86.2204	1,366.7	86.2212	1,366.7	86.3674	1,366.7	84.3189	1,366.7	85.4996	1,366.7	82.6184	1,366.7	83.7567	1,366.7	79.6843	1,366.7	80.3771	1,366.7	79.4199	1,366.7	78.2431	1,366.7	81.0617	1,366.7	79.8869	1,366.7	82.8122	1,366.7	81.735	1,366.7	83.2317
1,413.57	92.3371	1,413.57	92.3544	1,413.57	92.2335	1,413.57	91.9695	1,413.57	91.9699	1,413.57	91.4729	1,413.57	91.5554	1,413.57	90.7239	1,413.57	90.9221	1,413.57	89.5867	1,413.57	89.7626	1,413.57	88.4755	1,413.57	88.4447	1,413.57	87.176	1,413.57	87.2323	1,413.57	85.7592	1,413.57	86.2518	1,413.57	85.5354	1,413.57	85.275	1,413.57	86.0465	1,413.57	85.2954	1,413.57	84.9062	1,413.57	84.8314	1,413.57	84.3527	1,413.57	84.5815	1,413.57	82.2088	1,413.57	82.9503	1,413.57	78.9248	1,413.57	80.004	1,413.57	79.0169	1,413.57	77.9583	1,413.57	80.7993	1,413.57	77.6371	1,413.57	81.9173	1,413.57	79.9704	1,413.57	81.9855
1,463.38	91.5027	1,463.38	91.4657	1,463.38	91.1657	1,463.38	91.0294	1,463.38	91.0301	1,463.38	90.6588	1,463.38	90.585	1,463.38	90.0407	1,463.38	89.7963	1,463.38	88.9674	1,463.38	89.0976	1,463.38	87.5602	1,463.38	88.0186	1,463.38	86.2182	1,463.38	86.552	1,463.38	84.8887	1,463.38	84.7751	1,463.38	84.6247	1,463.38	83.9911	1,463.38	83.8863	1,463.38	83.9164	1,463.38	84.1387	1,463.38	83.4996	1,463.38	84.0256	1,463.38	83.2052	1,463.38	81.1383	1,463.38	82.0444	1,463.38	79.5922	1,463.38	80.0921	1,463.38	78.1373	1,463.38	77.7768	1,463.38	78.9783	1,463.38	76.9829	1,463.38	79.659	1,463.38	78.8345	1,463.38	80.1041
1,516.11	90.7306	1,516.11	90.5922	1,516.11	90.8368	1,516.11	90.2961	1,516.11	90.543	1,516.11	89.576	1,516.11	89.8705	1,516.11	88.9909	1,516.11	89.2972	1,516.11	87.8661	1,516.11	88.2919	1,516.11	86.6841	1,516.11	87.261	1,516.11	84.8998	1,516.11	85.8138	1,516.11	84.0738	1,516.11	84.0408	1,516.11	83.6929	1,516.11	83.3906	1,516.11	82.8204	1,516.11	82.5292	1,516.11	82.4944	1,516.11	82.2801	1,516.11	81.264	1,516.11	81.52	1,516.11	79.161	1,516.11	80.1511	1,516.11	76.2435	1,516.11	78.7696	1,516.11	74.5813	1,516.11	74.3972	1,516.11	76.7282	1,516.11	75.4394	1,516.11	78.507	1,516.11	77.8533	1,516.11	78.6353
1,568.85	90.3182	1,568.85	90.3718	1,568.85	90.2682	1,568.85	89.9173	1,568.85	90.2818	1,568.85	89.3205	1,568.85	89.7924	1,568.85	88.4022	1,568.85	89.3066	1,568.85	87.4592	1,568.85	88.2866	1,568.85	86.4264	1,568.85	87.5404	1,568.85	84.6317	1,568.85	86.1409	1,568.85	83.8958	1,568.85	85.0028	1,568.85	82.8863	1,568.85	83.144	1,568.85	81.9643	1,568.85	82.0802	1,568.85	82.0607	1,568.85	82.3764	1,568.85	80.8323	1,568.85	82.6539	1,568.85	78.6447	1,568.85	81.2658	1,568.85	75.4423	1,568.85	78.4355	1,568.85	73.4627	1,568.85	76.614	1,568.85	76.518	1,568.85	73.9171	1,568.85	77.1365	1,568.85	75.1024	1,568.85	76.7671
1,624.51	91.1134	1,624.51	90.8078	1,624.51	91.2219	1,624.51	90.4665	1,624.51	90.9621	1,624.51	89.6677	1,624.51	90.4164	1,624.51	89.0813	1,624.51	89.7878	1,624.51	87.8276	1,624.51	88.9491	1,624.51	86.5001	1,624.51	87.5197	1,624.51	85.0223	1,624.51	86.3664	1,624.51	83.5567	1,624.51	84.7697	1,624.51	81.8194	1,624.51	83.1425	1,624.51	81.2701	1,624.51	82.7687	1,624.51	81.4522	1,624.51	82.7797	1,624.51	81.0311	1,624.51	83.3625	1,624.51	80.3086	1,624.51	81.5988	1,624.51	76.3213	1,624.51	80.4507	1,624.51	72.1422	1,624.51	78.0194	1,624.51	73.1959	1,624.51	75.8072	1,624.51	78.0623	1,624.51	77.5578	1,624.51	77.9177
1,681.64	91.9837	1,681.64	91.9681	1,681.64	91.7589	1,681.64	91.2777	1,681.64	91.8806	1,681.64	90.5429	1,681.64	91.0565	1,681.64	89.3146	1,681.64	90.5892	1,681.64	88.7358	1,681.64	89.4761	1,681.64	86.9997	1,681.64	88.7839	1,681.64	85.6259	1,681.64	87.0184	1,681.64	84.6959	1,681.64	85.2225	1,681.64	83.5446	1,681.64	84.1346	1,681.64	82.9226	1,681.64	83.4421	1,681.64	82.839	1,681.64	83.7783	1,681.64	82.7652	1,681.64	84.3849	1,681.64	81.6651	1,681.64	82.8336	1,681.64	79.1635	1,681.64	80.8706	1,681.64	76.0124	1,681.64	77.2602	1,681.64	76.5555	1,681.64	76.9023	1,681.64	78.0666	1,681.64	78.6949	1,681.64	80.3092
1,741.7	92.5501	1,741.7	92.1156	1,741.7	92.3824	1,741.7	91.5411	1,741.7	91.9792	1,741.7	91.0358	1,741.7	91.3623	1,741.7	90.5734	1,741.7	90.7143	1,741.7	88.9163	1,741.7	89.9005	1,741.7	88.4482	1,741.7	88.2289	1,741.7	87.0313	1,741.7	86.4782	1,741.7	84.9224	1,741.7	84.9093	1,741.7	84.0385	1,741.7	83.4166	1,741.7	83.1621	1,741.7	82.5465	1,741.7	83.4667	1,741.7	82.8868	1,741.7	83.1117	1,741.7	82.0616	1,741.7	81.0767	1,741.7	82.0342	1,741.7	78.1978	1,741.7	79.6376	1,741.7	73.4966	1,741.7	76.228	1,741.7	77.3065	1,741.7	74.0207	1,741.7	79.033	1,741.7	79.0416	1,741.7	80.0163
1,803.22	92.3687	1,803.22	92.0892	1,803.22	92.6025	1,803.22	91.6092	1,803.22	91.9421	1,803.22	91.3817	1,803.22	90.987	1,803.22	89.9284	1,803.22	90.232	1,803.22	89.4556	1,803.22	89.1132	1,803.22	87.6296	1,803.22	88.6714	1,803.22	87.2537	1,803.22	85.9385	1,803.22	85.5379	1,803.22	85.7318	1,803.22	84.7185	1,803.22	83.1827	1,803.22	82.0673	1,803.22	82.4992	1,803.22	84.1735	1,803.22	81.107	1,803.22	83.4442	1,803.22	81.2123	1,803.22	82.5108	1,803.22	81.8351	1,803.22	79.3551	1,803.22	79.7873	1,803.22	76.8855	1,803.22	73.6296	1,803.22	74.6057	1,803.22	72.19	1,803.22	76.3688	1,803.22	74.195	1,803.22	77.4682
1,866.21	91.3287	1,866.21	90.9846	1,866.21	91.704	1,866.21	90.6102	1,866.21	90.348	1,866.21	90.2175	1,866.21	90.4734	1,866.21	89.1433	1,866.21	89.7673	1,866.21	88.1825	1,866.21	89.1703	1,866.21	87.7528	1,866.21	87.4214	1,866.21	85.3823	1,866.21	86.8456	1,866.21	84.5472	1,866.21	84.5219	1,866.21	82.3484	1,866.21	83.8223	1,866.21	80.9675	1,866.21	81.8832	1,866.21	82.7944	1,866.21	81.0743	1,866.21	83.0844	1,866.21	80.9236	1,866.21	81.6302	1,866.21	82.682	1,866.21	77.8895	1,866.21	78.8903	1,866.21	75.898	1,866.21	77.9813	1,866.21	75.1763	1,866.21	67.7049	1,866.21	73.9664	1,866.21	71.8015	1,866.21	74.3872
1,932.13	91.6641	1,932.13	90.7203	1,932.13	91.5075	1,932.13	90.5266	1,932.13	90.4772	1,932.13	89.3375	1,932.13	90.7656	1,932.13	88.7622	1,932.13	89.2287	1,932.13	87.87	1,932.13	89.1099	1,932.13	86.2467	1,932.13	87.4957	1,932.13	85.6527	1,932.13	87.6386	1,932.13	83.2165	1,932.13	86.1208	1,932.13	80.5721	1,932.13	84.3922	1,932.13	76.8178	1,932.13	80.4551	1,932.13	79.8608	1,932.13	79.4585	1,932.13	81.3775	1,932.13	84.4964	1,932.13	81.3699	1,932.13	81.9422	1,932.13	78.2962	1,932.13	82.4058	1,932.13	74.6725	1,932.13	78.0607	1,932.13	74.1161	1,932.13	73.48	1,932.13	78.2824	1,932.13	75.452	1,932.13	76.7913
1,999.51	92.6268	1,999.51	92.1744	1,999.51	92.7334	1,999.51	91.3074	1,999.51	92.402	1,999.51	90.2173	1,999.51	91.5258	1,999.51	88.8425	1,999.51	90.3145	1,999.51	88.3222	1,999.51	89.8119	1,999.51	87.1595	1,999.51	88.5992	1,999.51	85.743	1,999.51	87.8359	1,999.51	85.7658	1,999.51	87.1058	1,999.51	82.3375	1,999.51	85.0004	1,999.51	82.2087	1,999.51	81.2467	1,999.51	81.2363	1,999.51	81.5408	1,999.51	82.4453	1,999.51	80.1498	1,999.51	82.1859	1,999.51	82.5802	1,999.51	78.301	1,999.51	82.7981	1,999.51	72.7466	1,999.51	79.4936	1,999.51	72.8734	1,999.51	76.2851	1,999.51	72.0792	1,999.51	73.4312	1,999.51	77.2831
2,069.82	93.5126	2,069.82	93.6867	2,069.82	93.4318	2,069.82	92.8078	2,069.82	93.3255	2,069.82	91.5873	2,069.82	92.4725	2,069.82	90.6663	2,069.82	90.8061	2,069.82	89.0527	2,069.82	90.1038	2,069.82	87.8829	2,069.82	88.3695	2,069.82	86.5636	2,069.82	87.4889	2,069.82	85.3876	2,069.82	86.3086	2,069.82	84.2983	2,069.82	85.0883	2,069.82	80.6058	2,069.82	83.62	2,069.82	80.0026	2,069.82	78.297	2,069.82	80.8775	2,069.82	81.6852	2,069.82	82.6207	2,069.82	81.9183	2,069.82	80.0059	2,069.82	82.5483	2,069.82	75.7629	2,069.82	79.6895	2,069.82	75.07	2,069.82	75.1075	2,069.82	76.4767	2,069.82	73.3958	2,069.82	78.2088
2,143.07	93.808	2,143.07	94.0099	2,143.07	93.7422	2,143.07	93.028	2,143.07	92.9428	2,143.07	92.2023	2,143.07	92.3181	2,143.07	91.1214	2,143.07	90.464	2,143.07	89.1576	2,143.07	89.6568	2,143.07	87.4871	2,143.07	88.0337	2,143.07	86.5386	2,143.07	86.5417	2,143.07	86.7717	2,143.07	85.3653	2,143.07	84.8778	2,143.07	84.782	2,143.07	81.853	2,143.07	83.0518	2,143.07	79.8173	2,143.07	78.1659	2,143.07	79.1974	2,143.07	78.8672	2,143.07	81.5581	2,143.07	80.6936	2,143.07	77.7359	2,143.07	80.5763	2,143.07	78.7029	2,143.07	76.8326	2,143.07	74.1821	2,143.07	75.0876	2,143.07	75.8447	2,143.07	74.2516	2,143.07	78.1949
2,219.24	92.5227	2,219.24	92.7686	2,219.24	92.695	2,219.24	92.064	2,219.24	92.1904	2,219.24	91.6244	2,219.24	91.5392	2,219.24	90.8377	2,219.24	90.7287	2,219.24	88.4382	2,219.24	88.5037	2,219.24	87.4487	2,219.24	87.0234	2,219.24	85.808	2,219.24	84.3618	2,219.24	84.7851	2,219.24	84.105	2,219.24	83.4362	2,219.24	83.8929	2,219.24	81.0032	2,219.24	82.7369	2,219.24	81.4655	2,219.24	79.2087	2,219.24	81.5569	2,219.24	77.6401	2,219.24	81.408	2,219.24	77.6948	2,219.24	80.6097	2,219.24	80.314	2,219.24	76.6507	2,219.24	76.9915	2,219.24	73.8717	2,219.24	74.3935	2,219.24	76.1734	2,219.24	72.4011	2,219.24	69.3734
2,296.88	92.5297	2,296.88	92.4001	2,296.88	92.2248	2,296.88	91.8236	2,296.88	92.1678	2,296.88	91.6808	2,296.88	91.5332	2,296.88	89.4114	2,296.88	91.1992	2,296.88	89.8315	2,296.88	88.2421	2,296.88	87.0311	2,296.88	87.5099	2,296.88	85.1139	2,296.88	85.0497	2,296.88	82.9582	2,296.88	83.655	2,296.88	82.3749	2,296.88	84.0955	2,296.88	82.3786	2,296.88	82.2672	2,296.88	75.3784	2,296.88	80.8184	2,296.88	76.9882	2,296.88	78.7259	2,296.88	79.1489	2,296.88	80.5992	2,296.88	78.0103	2,296.88	79.854	2,296.88	76.4942	2,296.88	77.269	2,296.88	59.837	2,296.88	74.9958	2,296.88	71.4212	2,296.88	62.084	2,296.88	71.9443
2,378.91	93.5008	2,378.91	93.0667	2,378.91	93.6502	2,378.91	91.8488	2,378.91	92.8756	2,378.91	91.6341	2,378.91	92.2319	2,378.91	90.3059	2,378.91	91.4474	2,378.91	89.1075	2,378.91	90.671	2,378.91	86.9356	2,378.91	88.9031	2,378.91	85.6793	2,378.91	87.3733	2,378.91	82.8576	2,378.91	85.8862	2,378.91	84.3929	2,378.91	84.8712	2,378.91	80.0749	2,378.91	83.0613	2,378.91	79.802	2,378.91	80.9867	2,378.91	78.4276	2,378.91	79.4414	2,378.91	75.9591	2,378.91	80.824	2,378.91	79.1767	2,378.91	78.5693	2,378.91	74.9125	2,378.91	80.861	2,378.91	51.3132	2,378.91	73.5393	2,378.91	75.7852	2,378.91	72.7898	2,378.91	75.156
2,462.4	94.994	2,462.4	94.5742	2,462.4	94.8306	2,462.4	93.8303	2,462.4	94.5496	2,462.4	93.1904	2,462.4	93.7168	2,462.4	91.69	2,462.4	92.689	2,462.4	90.3975	2,462.4	91.3706	2,462.4	88.6675	2,462.4	89.9645	2,462.4	87.2764	2,462.4	88.1019	2,462.4	84.7758	2,462.4	86.4806	2,462.4	83.6256	2,462.4	85.1003	2,462.4	82.4847	2,462.4	84.0436	2,462.4	80.1846	2,462.4	82.7024	2,462.4	79.2892	2,462.4	81.2484	2,462.4	79.6577	2,462.4	79.9372	2,462.4	79.6833	2,462.4	80.9039	2,462.4	78.4109	2,462.4	80.0651	2,462.4	73.2865	2,462.4	77.1991	2,462.4	73.2181	2,462.4	73.7902	2,462.4	72.5026
2,548.83	94.2697	2,548.83	93.9428	2,548.83	94.3838	2,548.83	93.7251	2,548.83	93.6778	2,548.83	92.6236	2,548.83	93.1009	2,548.83	91.5234	2,548.83	91.9165	2,548.83	90.2157	2,548.83	90.767	2,548.83	88.7338	2,548.83	89.2243	2,548.83	86.3768	2,548.83	87.5592	2,548.83	85.629	2,548.83	85.3379	2,548.83	83.0861	2,548.83	83.4339	2,548.83	81.9312	2,548.83	82.0886	2,548.83	80.4393	2,548.83	80.7019	2,548.83	79.1111	2,548.83	80.077	2,548.83	79.5204	2,548.83	79.0993	2,548.83	79.218	2,548.83	80.0804	2,548.83	77.2898	2,548.83	78.6069	2,548.83	71.7389	2,548.83	75.0397	2,548.83	75.7844	2,548.83	72.0735	2,548.83	73.0003
2,639.65	92.6071	2,639.65	92.6337	2,639.65	92.812	2,639.65	92.0756	2,639.65	92.3794	2,639.65	91.1299	2,639.65	91.6122	2,639.65	89.9191	2,639.65	90.6421	2,639.65	88.7089	2,639.65	89.4892	2,639.65	87.8441	2,639.65	87.8998	2,639.65	86.1706	2,639.65	86.5314	2,639.65	84.5575	2,639.65	84.4398	2,639.65	82.0486	2,639.65	82.8956	2,639.65	80.2105	2,639.65	80.8221	2,639.65	78.1628	2,639.65	79.086	2,639.65	77.4943	2,639.65	77.5763	2,639.65	77.8852	2,639.65	77.1453	2,639.65	78.8128	2,639.65	78.4634	2,639.65	76.6854	2,639.65	77.8601	2,639.65	70.1947	2,639.65	73.6158	2,639.65	71.0607	2,639.65	64.5377	2,639.65	67.9827
2,731.93	92.1554	2,731.93	92.1351	2,731.93	92.4878	2,731.93	91.3058	2,731.93	92.0462	2,731.93	90.0797	2,731.93	91.262	2,731.93	88.7685	2,731.93	90.2455	2,731.93	87.2213	2,731.93	89.0075	2,731.93	86.6364	2,731.93	87.4575	2,731.93	85.421	2,731.93	86.4971	2,731.93	83.2195	2,731.93	84.6841	2,731.93	81.1243	2,731.93	82.181	2,731.93	79.9064	2,731.93	80.1487	2,731.93	78.7914	2,731.93	79.362	2,731.93	76.0206	2,731.93	76.9033	2,731.93	76.2412	2,731.93	76.5075	2,731.93	77.4994	2,731.93	77.3197	2,731.93	75.8624	2,731.93	78.0138	2,731.93	71.6819	2,731.93	74.9963	2,731.93	66.8494	2,731.93	68.6617	2,731.93	68.3813
2,828.61	93.1048	2,828.61	92.8991	2,828.61	92.6468	2,828.61	91.9418	2,828.61	92.6188	2,828.61	91.1219	2,828.61	91.7103	2,828.61	89.6652	2,828.61	90.7395	2,828.61	87.3282	2,828.61	89.3881	2,828.61	85.6351	2,828.61	87.9353	2,828.61	85.4154	2,828.61	85.6629	2,828.61	82.7646	2,828.61	84.5518	2,828.61	81.6344	2,828.61	82.7941	2,828.61	79.0676	2,828.61	80.9011	2,828.61	78.6049	2,828.61	79.5909	2,828.61	78.101	2,828.61	78.2357	2,828.61	76.7756	2,828.61	77.1762	2,828.61	76.2254	2,828.61	76.5895	2,828.61	74.1499	2,828.61	76.5799	2,828.61	71.6868	2,828.61	73.8134	2,828.61	71.3898	2,828.61	71.6834	2,828.61	74.1259
2,928.22	92.9381	2,928.22	92.6386	2,928.22	92.7719	2,928.22	91.9672	2,928.22	92.2277	2,928.22	91.2254	2,928.22	91.6718	2,928.22	90.0269	2,928.22	90.7456	2,928.22	87.9608	2,928.22	89.7689	2,928.22	85.9448	2,928.22	88.1829	2,928.22	84.4734	2,928.22	86.0962	2,928.22	82.1539	2,928.22	84.4491	2,928.22	81.6991	2,928.22	82.9694	2,928.22	79.4099	2,928.22	81.2058	2,928.22	78.6801	2,928.22	78.2906	2,928.22	77.2341	2,928.22	78.1223	2,928.22	77.4899	2,928.22	76.9805	2,928.22	76.1717	2,928.22	77.8437	2,928.22	75.153	2,928.22	76.1893	2,928.22	68.7306	2,928.22	73.7816	2,928.22	66.7141	2,928.22	70.7056	2,928.22	71.5725
3,030.76	92.3581	3,030.76	92.047	3,030.76	92.2722	3,030.76	91.2944	3,030.76	91.6758	3,030.76	90.609	3,030.76	90.9916	3,030.76	89.5611	3,030.76	90.0827	3,030.76	88.5704	3,030.76	88.8622	3,030.76	86.8504	3,030.76	87.9112	3,030.76	84.4906	3,030.76	86.0021	3,030.76	82.5463	3,030.76	83.9122	3,030.76	81.4357	3,030.76	82.3939	3,030.76	79.3021	3,030.76	80.0973	3,030.76	77.3977	3,030.76	77.9702	3,030.76	76.3406	3,030.76	76.5499	3,030.76	76.6566	3,030.76	76.9144	3,030.76	78.2189	3,030.76	77.4531	3,030.76	75.7178	3,030.76	76.5737	3,030.76	69.9062	3,030.76	71.851	3,030.76	71.1285	3,030.76	68.2363	3,030.76	71.73
3,137.7	91.8412	3,137.7	91.5931	3,137.7	91.7154	3,137.7	91.0754	3,137.7	91.335	3,137.7	90.3073	3,137.7	90.7163	3,137.7	89.5091	3,137.7	89.5464	3,137.7	88.0579	3,137.7	88.0481	3,137.7	86.4096	3,137.7	86.9613	3,137.7	85.0169	3,137.7	85.6065	3,137.7	83.6719	3,137.7	83.7811	3,137.7	81.9747	3,137.7	81.9022	3,137.7	79.3682	3,137.7	79.9424	3,137.7	78.1943	3,137.7	77.6655	3,137.7	75.9539	3,137.7	75.693	3,137.7	76.1845	3,137.7	74.9699	3,137.7	78.3833	3,137.7	76.5006	3,137.7	77.397	3,137.7	77.3654	3,137.7	71.8147	3,137.7	73.9966	3,137.7	66.1084	3,137.7	67.3676	3,137.7	67.5109
3,249.02	91.8011	3,249.02	91.3358	3,249.02	92.0798	3,249.02	90.9361	3,249.02	91.3178	3,249.02	89.8258	3,249.02	90.7289	3,249.02	88.7676	3,249.02	89.4718	3,249.02	87.2869	3,249.02	88.3247	3,249.02	85.459	3,249.02	86.9373	3,249.02	83.5472	3,249.02	85.2015	3,249.02	83.5917	3,249.02	83.8791	3,249.02	82.2069	3,249.02	82.4578	3,249.02	79.8372	3,249.02	80.74	3,249.02	78.1697	3,249.02	78.5895	3,249.02	76.4892	3,249.02	77.7047	3,249.02	75.7102	3,249.02	73.256	3,249.02	76.56	3,249.02	76.169	3,249.02	77.1326	3,249.02	77.4946	3,249.02	72.8298	3,249.02	74.9831	3,249.02	65.9125	3,249.02	66.9834	3,249.02	63.525
3,363.28	92.4811	3,363.28	92.1415	3,363.28	92.5729	3,363.28	91.5213	3,363.28	91.8274	3,363.28	90.1279	3,363.28	91.09	3,363.28	89.2589	3,363.28	89.6588	3,363.28	87.5111	3,363.28	88.186	3,363.28	85.9547	3,363.28	86.9352	3,363.28	83.858	3,363.28	85.5462	3,363.28	83.5787	3,363.28	83.4265	3,363.28	82.3651	3,363.28	81.8455	3,363.28	79.0061	3,363.28	80.8034	3,363.28	78.2823	3,363.28	79.0384	3,363.28	78.2276	3,363.28	78.0274	3,363.28	74.9474	3,363.28	75.9812	3,363.28	75.1688	3,363.28	75.9354	3,363.28	76.6513	3,363.28	76.7364	3,363.28	74.4294	3,363.28	76.4961	3,363.28	64.8702	3,363.28	71.0284	3,363.28	63.5004
3,481.93	92.8697	3,481.93	92.2342	3,481.93	93.1326	3,481.93	91.8128	3,481.93	91.7487	3,481.93	90.6937	3,481.93	90.9723	3,481.93	88.6387	3,481.93	89.6373	3,481.93	87.8718	3,481.93	88.2988	3,481.93	86.4535	3,481.93	86.5898	3,481.93	84.0401	3,481.93	85.0955	3,481.93	83.5083	3,481.93	84.0287	3,481.93	83.265	3,481.93	82.5309	3,481.93	81.2268	3,481.93	81.3306	3,481.93	77.4013	3,481.93	79.2271	3,481.93	78.2861	3,481.93	77.1937	3,481.93	76.2569	3,481.93	77.2077	3,481.93	75.7518	3,481.93	74.3426	3,481.93	77.1072	3,481.93	75.6849	3,481.93	74.2894	3,481.93	75.3488	3,481.93	69.3268	3,481.93	69.4865	3,481.93	69.0072
3,604.98	92.8842	3,604.98	92.5497	3,604.98	92.8584	3,604.98	91.5862	3,604.98	92.6016	3,604.98	90.691	3,604.98	91.6588	3,604.98	88.9062	3,604.98	90.7916	3,604.98	88.1352	3,604.98	89.2421	3,604.98	86.6512	3,604.98	86.7064	3,604.98	84.2804	3,604.98	84.7495	3,604.98	82.2725	3,604.98	84.2158	3,604.98	82.4089	3,604.98	82.1912	3,604.98	82.1667	3,604.98	82.2313	3,604.98	78.1478	3,604.98	80.6418	3,604.98	78.343	3,604.98	79.2497	3,604.98	74.5014	3,604.98	79.0853	3,604.98	76.1951	3,604.98	72.9352	3,604.98	76.4533	3,604.98	75.9532	3,604.98	72.9468	3,604.98	75.6784	3,604.98	71.1472	3,604.98	71.6229	3,604.98	72.8362
3,732.42	93.5023	3,732.42	93.0834	3,732.42	93.3383	3,732.42	92.6436	3,732.42	93.2308	3,732.42	91.6608	3,732.42	92.2623	3,732.42	89.7753	3,732.42	90.7278	3,732.42	88.3124	3,732.42	88.8642	3,732.42	86.9594	3,732.42	86.9078	3,732.42	85.908	3,732.42	85.379	3,732.42	82.667	3,732.42	84.0561	3,732.42	81.1324	3,732.42	80.6225	3,732.42	81.1034	3,732.42	80.4116	3,732.42	80.8661	3,732.42	78.5113	3,732.42	80.177	3,732.42	79.2584	3,732.42	78.2946	3,732.42	78.9277	3,732.42	77.2683	3,732.42	76.2364	3,732.42	78.1787	3,732.42	76.9608	3,732.42	75.1975	3,732.42	76.8229	3,732.42	73.5441	3,732.42	75.4575	3,732.42	75.3983
3,864.26	92.3418	3,864.26	92.1239	3,864.26	91.8017	3,864.26	91.764	3,864.26	92.4046	3,864.26	90.5885	3,864.26	91.7066	3,864.26	90.3316	3,864.26	90.201	3,864.26	87.6729	3,864.26	88.0133	3,864.26	85.8165	3,864.26	85.7911	3,864.26	85.14	3,864.26	84.2221	3,864.26	81.79	3,864.26	82.9247	3,864.26	80.0807	3,864.26	80.2132	3,864.26	78.3028	3,864.26	78.1247	3,864.26	79.7508	3,864.26	76.7725	3,864.26	79.3854	3,864.26	77.7488	3,864.26	78.8754	3,864.26	78.1886	3,864.26	76.6136	3,864.26	76.6469	3,864.26	76.55	3,864.26	74.602	3,864.26	74.4526	3,864.26	74.6755	3,864.26	73.0218	3,864.26	74.4056	3,864.26	75.2623
4,000.49	92.9488	4,000.49	93.2564	4,000.49	92.7352	4,000.49	92.4325	4,000.49	92.5405	4,000.49	91.1758	4,000.49	91.4631	4,000.49	90.35	4,000.49	90.1187	4,000.49	87.5746	4,000.49	88.489	4,000.49	84.8612	4,000.49	87.4607	4,000.49	83.7009	4,000.49	86.304	4,000.49	81.7878	4,000.49	80.5799	4,000.49	77.2599	4,000.49	78.862	4,000.49	74.8329	4,000.49	78.4861	4,000.49	75.5441	4,000.49	77.962	4,000.49	76.883	4,000.49	75.8019	4,000.49	77.3739	4,000.49	76.934	4,000.49	75.2422	4,000.49	78.3367	4,000.49	77.6328	4,000.49	76.1514	4,000.49	73.7541	4,000.49	74.9605	4,000.49	73.2076	4,000.49	73.8161	4,000.49	74.9644
4,141.11	93.5085	4,141.11	93.6577	4,141.11	93.4494	4,141.11	92.6101	4,141.11	92.6088	4,141.11	91.6831	4,141.11	91.6997	4,141.11	90.9602	4,141.11	90.2828	4,141.11	88.8765	4,141.11	88.8008	4,141.11	85.7026	4,141.11	87.8811	4,141.11	84.0498	4,141.11	86.0118	4,141.11	83.9516	4,141.11	83.4457	4,141.11	78.7347	4,141.11	81.6904	4,141.11	78.4353	4,141.11	77.5737	4,141.11	75.5082	4,141.11	76.0829	4,141.11	75.9311	4,141.11	73.8505	4,141.11	79.2705	4,141.11	77.1675	4,141.11	77.1584	4,141.11	75.8422	4,141.11	77.298	4,141.11	76.5575	4,141.11	75.5062	4,141.11	74.8839	4,141.11	75.2161	4,141.11	70.6568	4,141.11	75.4149
4,287.6	93.3917	4,287.6	92.557	4,287.6	93.6826	4,287.6	92.8311	4,287.6	92.1898	4,287.6	91.8975	4,287.6	91.8545	4,287.6	89.9096	4,287.6	90.8644	4,287.6	88.5861	4,287.6	89.1927	4,287.6	86.552	4,287.6	88.3624	4,287.6	84.3663	4,287.6	86.068	4,287.6	83.7735	4,287.6	83.4165	4,287.6	79.5935	4,287.6	82.0737	4,287.6	77.2903	4,287.6	77.3702	4,287.6	73.0752	4,287.6	76.83	4,287.6	74.5561	4,287.6	74.3112	4,287.6	80.0796	4,287.6	75.3136	4,287.6	77.9	4,287.6	74.8487	4,287.6	76.2958	4,287.6	76.785	4,287.6	74.1155	4,287.6	74.991	4,287.6	73.5493	4,287.6	65.8464	4,287.6	73.6153
4,438.48	93.3609	4,438.48	92.8068	4,438.48	93.4601	4,438.48	93.1286	4,438.48	91.8647	4,438.48	92.0229	4,438.48	90.983	4,438.48	89.6664	4,438.48	90.7197	4,438.48	88.4375	4,438.48	89.7495	4,438.48	87.0168	4,438.48	87.6433	4,438.48	85.1189	4,438.48	85.7472	4,438.48	83.2725	4,438.48	82.6199	4,438.48	80.3743	4,438.48	82.5968	4,438.48	76.8983	4,438.48	77.978	4,438.48	74.6356	4,438.48	77.9631	4,438.48	67.7096	4,438.48	70.4893	4,438.48	77.1857	4,438.48	74.3418	4,438.48	75.2018	4,438.48	75.8907	4,438.48	76.6939	4,438.48	76.6635	4,438.48	73.4577	4,438.48	77.6149	4,438.48	75.1584	4,438.48	72.1423	4,438.48	75.497
4,595.21	91.2983	4,595.21	91.2024	4,595.21	90.8132	4,595.21	89.7289	4,595.21	91.329	4,595.21	89.5236	4,595.21	90.1603	4,595.21	89.2006	4,595.21	90.4711	4,595.21	87.8167	4,595.21	89.9041	4,595.21	86.2626	4,595.21	86.7965	4,595.21	83.8621	4,595.21	82.9419	4,595.21	80.808	4,595.21	82.4156	4,595.21	80.0278	4,595.21	80.9149	4,595.21	78.7977	4,595.21	77.6746	4,595.21	76.6404	4,595.21	76.2416	4,595.21	67.625	4,595.21	72.4915	4,595.21	70.6756	4,595.21	68.3257	4,595.21	71.6809	4,595.21	75.7263	4,595.21	76.8741	4,595.21	73.3465	4,595.21	73.85	4,595.21	77.601	4,595.21	74.6891	4,595.21	72.9348	4,595.21	72.5931
4,756.35	91.8443	4,756.35	92.4343	4,756.35	92.1453	4,756.35	90.4477	4,756.35	92.3058	4,756.35	90.8524	4,756.35	92.1929	4,756.35	90.5733	4,756.35	90.2423	4,756.35	89.5345	4,756.35	89.049	4,756.35	87.5218	4,756.35	86.4626	4,756.35	84.437	4,756.35	84.9171	4,756.35	79.7995	4,756.35	84.6689	4,756.35	80.103	4,756.35	82.5344	4,756.35	81.4632	4,756.35	80.9694	4,756.35	72.8863	4,756.35	76.2381	4,756.35	74.4886	4,756.35	75.0998	4,756.35	65.5957	4,756.35	68.9945	4,756.35	72.2132	4,756.35	72.6135	4,756.35	76.5857	4,756.35	69.0701	4,756.35	72.5826	4,756.35	74.8712	4,756.35	73.9552	4,756.35	71.7047	4,756.35	73.8356
4,924.8	92.9562	4,924.8	91.7292	4,924.8	93.0735	4,924.8	93.3258	4,924.8	92.0125	4,924.8	91.7508	4,924.8	92.5486	4,924.8	91.161	4,924.8	89.4149	4,924.8	90.0646	4,924.8	86.0902	4,924.8	87.7205	4,924.8	85.5205	4,924.8	85.9162	4,924.8	84.6157	4,924.8	84.2245	4,924.8	84.0358	4,924.8	82.04	4,924.8	82.7143	4,924.8	80.9668	4,924.8	82.0051	4,924.8	78.0055	4,924.8	76.2279	4,924.8	78.0581	4,924.8	73.3653	4,924.8	68.0506	4,924.8	66.9718	4,924.8	72.1428	4,924.8	62.6163	4,924.8	74.7114	4,924.8	69.572	4,924.8	74.5559	4,924.8	72.1366	4,924.8	76.7084	4,924.8	68.1247	4,924.8	73.9922
5,097.66	93.1095	5,097.66	92.8416	5,097.66	92.3042	5,097.66	93.8094	5,097.66	92.4008	5,097.66	92.494	5,097.66	91.0291	5,097.66	91.0197	5,097.66	90.6102	5,097.66	87.7127	5,097.66	89.887	5,097.66	86.7596	5,097.66	87.7182	5,097.66	84.6575	5,097.66	85.7356	5,097.66	84.3515	5,097.66	86.2644	5,097.66	82.7915	5,097.66	82.5996	5,097.66	73.421	5,097.66	80.8098	5,097.66	77.3019	5,097.66	80.3989	5,097.66	76.9773	5,097.66	77.092	5,097.66	67.5297	5,097.66	74.2387	5,097.66	72.853	5,097.66	69.4832	5,097.66	64.1954	5,097.66	68.0742	5,097.66	68.5228	5,097.66	74.3967	5,097.66	73.3658	5,097.66	67.0124	5,097.66	74.0648
5,277.83	92.5632	5,277.83	93.0599	5,277.83	90.089	5,277.83	91.6228	5,277.83	92.0577	5,277.83	92.1984	5,277.83	90.8193	5,277.83	90.1303	5,277.83	91.6056	5,277.83	88.5372	5,277.83	91.0735	5,277.83	88.4158	5,277.83	89.7006	5,277.83	87.9497	5,277.83	87.5575	5,277.83	84.4731	5,277.83	82.5088	5,277.83	84.9551	5,277.83	81.8133	5,277.83	83.3189	5,277.83	81.6826	5,277.83	80.8219	5,277.83	80.0828	5,277.83	75.0673	5,277.83	79.6724	5,277.83	73.0081	5,277.83	75.1476	5,277.83	68.1744	5,277.83	66.6016	5,277.83	74.1747	5,277.83	69.7156	5,277.83	68.7381	5,277.83	71.0289	5,277.83	72.5996	5,277.83	69.8634	5,277.83	77.7078
5,463.87	91.4097	5,463.87	92.0754	5,463.87	92.6128	5,463.87	91.2345	5,463.87	91.1884	5,463.87	91.147	5,463.87	92.5402	5,463.87	90.3593	5,463.87	91.4376	5,463.87	89.4145	5,463.87	90.3576	5,463.87	87.1964	5,463.87	90.0331	5,463.87	86.2323	5,463.87	88.3014	5,463.87	83.051	5,463.87	83.7765	5,463.87	83.03	5,463.87	82.4054	5,463.87	83.5087	5,463.87	82.663	5,463.87	80.032	5,463.87	80.5925	5,463.87	76.4025	5,463.87	78.3173	5,463.87	74.6786	5,463.87	77.7512	5,463.87	66.1569	5,463.87	72.7012	5,463.87	74.0923	5,463.87	64.1858	5,463.87	72.433	5,463.87	72.4459	5,463.87	73.6963	5,463.87	71.565	5,463.87	75.042
5,657.23	92.3214	5,657.23	92.533	5,657.23	93.4258	5,657.23	92.6152	5,657.23	92.0974	5,657.23	92.3911	5,657.23	92.4854	5,657.23	92.3648	5,657.23	91.4498	5,657.23	90.7261	5,657.23	90.0529	5,657.23	88.5756	5,657.23	88.9105	5,657.23	85.0968	5,657.23	87.1539	5,657.23	84.7222	5,657.23	84.6597	5,657.23	80.1302	5,657.23	81.9957	5,657.23	80.682	5,657.23	79.8833	5,657.23	77.3752	5,657.23	78.9676	5,657.23	78.2777	5,657.23	79.9728	5,657.23	73.8702	5,657.23	76.2416	5,657.23	67.9601	5,657.23	70.0131	5,657.23	67.2692	5,657.23	68.9261	5,657.23	68.062	5,657.23	70.0819	5,657.23	68.7759	5,657.23	67.6153	5,657.23	75.2005
5,856.45	92.5204	5,856.45	91.7203	5,856.45	92.2467	5,856.45	91.9262	5,856.45	92.9685	5,856.45	91.2998	5,856.45	91.1368	5,856.45	90.7241	5,856.45	91.2865	5,856.45	89.0783	5,856.45	90.2789	5,856.45	88.1397	5,856.45	88.3851	5,856.45	84.6093	5,856.45	86.2932	5,856.45	83.364	5,856.45	86.0376	5,856.45	80.5258	5,856.45	82.5339	5,856.45	75.2316	5,856.45	79.5475	5,856.45	76.9502	5,856.45	77.7325	5,856.45	77.7817	5,856.45	76.8951	5,856.45	75.1285	5,856.45	75.6824	5,856.45	73.2193	5,856.45	72.9814	5,856.45	64.8866	5,856.45	72.8126	5,856.45	67.36	5,856.45	63.3804	5,856.45	71.3655	5,856.45	57.4282	5,856.45	74.4021
6,062.99	92.8395	6,062.99	92.3071	6,062.99	92.7529	6,062.99	92.2991	6,062.99	92.837	6,062.99	91.9138	6,062.99	91.8627	6,062.99	90.9741	6,062.99	91.0335	6,062.99	89.9287	6,062.99	90.2222	6,062.99	87.844	6,062.99	88.3422	6,062.99	86.8273	6,062.99	87.5553	6,062.99	82.7395	6,062.99	85.0925	6,062.99	81.1551	6,062.99	82.5353	6,062.99	75.9571	6,062.99	80.2429	6,062.99	74.5917	6,062.99	78.117	6,062.99	75.6392	6,062.99	74.8684	6,062.99	74.9852	6,062.99	75.3749	6,062.99	74.7252	6,062.99	75.1539	6,062.99	69.3913	6,062.99	71.7964	6,062.99	67.8979	6,062.99	67.3648	6,062.99	68.2504	6,062.99	61.2615	6,062.99	73.5681
6,276.86	91.85	6,276.86	91.9485	6,276.86	92.6166	6,276.86	91.6418	6,276.86	91.7174	6,276.86	91.3657	6,276.86	92.0953	6,276.86	89.6946	6,276.86	90.0571	6,276.86	88.5195	6,276.86	88.5813	6,276.86	85.2687	6,276.86	87.4726	6,276.86	84.6713	6,276.86	86.1548	6,276.86	79.5861	6,276.86	82.5103	6,276.86	79.6007	6,276.86	81.3362	6,276.86	78.5147	6,276.86	78.0236	6,276.86	74.569	6,276.86	74.6147	6,276.86	74.4703	6,276.86	75.8216	6,276.86	73.5793	6,276.86	76.7094	6,276.86	73.5888	6,276.86	75.4952	6,276.86	63.947	6,276.86	70.6315	6,276.86	64.1331	6,276.86	72.5352	6,276.86	66.7274	6,276.86	61.9229	6,276.86	68.0828
6,498.05	92.2603	6,498.05	91.836	6,498.05	91.9598	6,498.05	91.9629	6,498.05	91.503	6,498.05	90.9423	6,498.05	91.1533	6,498.05	89.9205	6,498.05	90.6153	6,498.05	87.6967	6,498.05	88.6248	6,498.05	84.9219	6,498.05	86.7961	6,498.05	82.2704	6,498.05	82.8578	6,498.05	80.3516	6,498.05	83.2004	6,498.05	78.7103	6,498.05	80.619	6,498.05	79.4677	6,498.05	79.0547	6,498.05	76.6422	6,498.05	76.5633	6,498.05	75.2555	6,498.05	72.1715	6,498.05	75.2124	6,498.05	73.8003	6,498.05	71.4697	6,498.05	72.4507	6,498.05	73.5331	6,498.05	74.3016	6,498.05	69.3357	6,498.05	71.9949	6,498.05	60.3611	6,498.05	65.7926	6,498.05	67.9553
6,726.56	91.8847	6,726.56	91.6035	6,726.56	91.3289	6,726.56	91.347	6,726.56	91.6754	6,726.56	89.7014	6,726.56	90.1066	6,726.56	88.7651	6,726.56	89.8333	6,726.56	85.9361	6,726.56	88.5586	6,726.56	85.6213	6,726.56	85.8581	6,726.56	80.0968	6,726.56	83.7237	6,726.56	80.2635	6,726.56	81.6329	6,726.56	77.5294	6,726.56	79.7393	6,726.56	77.485	6,726.56	77.737	6,726.56	76.6919	6,726.56	76.4093	6,726.56	71.7922	6,726.56	71.7497	6,726.56	72.7741	6,726.56	70.4965	6,726.56	73.1467	6,726.56	70.6414	6,726.56	72.1479	6,726.56	73.5289	6,726.56	67.7599	6,726.56	68.7425	6,726.56	62.9015	6,726.56	66.0884	6,726.56	69.0528
6,963.87	92.1309	6,963.87	91.813	6,963.87	92.4795	6,963.87	91.2057	6,963.87	91.6609	6,963.87	90.1609	6,963.87	90.9336	6,963.87	88.2462	6,963.87	89.1715	6,963.87	86.8767	6,963.87	87.4676	6,963.87	84.5897	6,963.87	86.3558	6,963.87	81.5183	6,963.87	84.1234	6,963.87	80.5079	6,963.87	81.8155	6,963.87	77.6846	6,963.87	78.3979	6,963.87	76.2611	6,963.87	78.2898	6,963.87	74.525	6,963.87	75.4802	6,963.87	68.2445	6,963.87	72.6536	6,963.87	68.456	6,963.87	68.4395	6,963.87	68.3408	6,963.87	70.6806	6,963.87	67.0851	6,963.87	71.1981	6,963.87	67.6743	6,963.87	67.5469	6,963.87	62.351	6,963.87	59.0707	6,963.87	67.3658
7,209.96	92.4345	7,209.96	91.9904	7,209.96	92.42	7,209.96	91.331	7,209.96	91.6752	7,209.96	89.9869	7,209.96	91.3348	7,209.96	88.0357	7,209.96	89.2142	7,209.96	86.0778	7,209.96	86.8603	7,209.96	83.5057	7,209.96	85.7036	7,209.96	82.7051	7,209.96	83.4397	7,209.96	80.9349	7,209.96	81.0983	7,209.96	78.4863	7,209.96	78.512	7,209.96	76.9069	7,209.96	78.2364	7,209.96	74.0543	7,209.96	74.4615	7,209.96	68.549	7,209.96	73.6512	7,209.96	67.8499	7,209.96	69.1479	7,209.96	68.0113	7,209.96	70.1569	7,209.96	71.09	7,209.96	71.8433	7,209.96	68.3746	7,209.96	70.965	7,209.96	55.4277	7,209.96	67.7389	7,209.96	65.3455
7,464.84	91.8544	7,464.84	91.2548	7,464.84	91.2579	7,464.84	90.6726	7,464.84	90.972	7,464.84	89.2441	7,464.84	89.9716	7,464.84	87.7189	7,464.84	88.8309	7,464.84	84.8449	7,464.84	87.3403	7,464.84	83.6776	7,464.84	85.3881	7,464.84	83.6664	7,464.84	83.112	7,464.84	80.0892	7,464.84	80.8531	7,464.84	77.5683	7,464.84	77.27	7,464.84	73.6241	7,464.84	76.0134	7,464.84	74.4523	7,464.84	75.3055	7,464.84	68.9957	7,464.84	73.3181	7,464.84	67.9687	7,464.84	66.6626	7,464.84	67.7726	7,464.84	64.606	7,464.84	72.1626	7,464.84	69.3138	7,464.84	67.3789	7,464.84	68.621	7,464.84	54.2973	7,464.84	66.2817	7,464.84	65.3251
7,727.05	91.9045	7,727.05	91.2415	7,727.05	91.598	7,727.05	89.9062	7,727.05	90.7945	7,727.05	89.2906	7,727.05	89.8218	7,727.05	88.1045	7,727.05	88.8604	7,727.05	86.0556	7,727.05	88.3829	7,727.05	85.2037	7,727.05	86.8982	7,727.05	83.3185	7,727.05	86.0823	7,727.05	80.1425	7,727.05	82.1653	7,727.05	77.2569	7,727.05	79.9661	7,727.05	74.0055	7,727.05	76.3363	7,727.05	72.769	7,727.05	75.5717	7,727.05	70.6093	7,727.05	74.9146	7,727.05	71.4698	7,727.05	71.7846	7,727.05	62.6948	7,727.05	66.7737	7,727.05	68.76	7,727.05	67.9928	7,727.05	67.9452	7,727.05	71.8461	7,727.05	52.209	7,727.05	69.0493	7,727.05	64.5939
7,999.51	90.9358	7,999.51	89.8669	7,999.51	90.8189	7,999.51	89.3385	7,999.51	89.9652	7,999.51	88.4626	7,999.51	89.6525	7,999.51	87.9138	7,999.51	88.3109	7,999.51	87.4221	7,999.51	87.4078	7,999.51	85.7806	7,999.51	86.7942	7,999.51	83.1936	7,999.51	85.6988	7,999.51	81.5492	7,999.51	83.547	7,999.51	78.4658	7,999.51	80.9213	7,999.51	76.0129	7,999.51	77.6772	7,999.51	73.6869	7,999.51	74.361	7,999.51	73.0733	7,999.51	75.3341	7,999.51	72.8212	7,999.51	71.7753	7,999.51	64.1976	7,999.51	67.5622	7,999.51	67.9237	7,999.51	66.4565	7,999.51	70.4081	7,999.51	70.2273	7,999.51	51.4764	7,999.51	67.4366	7,999.51	59.3877
8,282.23	90.9802	8,282.23	90.1988	8,282.23	90.6508	8,282.23	89.6587	8,282.23	90.6045	8,282.23	88.8737	8,282.23	90.2	8,282.23	89.1749	8,282.23	89.9643	8,282.23	87.6264	8,282.23	88.675	8,282.23	85.2938	8,282.23	87.5277	8,282.23	82.8056	8,282.23	84.3887	8,282.23	80.411	8,282.23	83.0218	8,282.23	77.8082	8,282.23	79.7471	8,282.23	75.71	8,282.23	77.4255	8,282.23	72.6025	8,282.23	75.8793	8,282.23	72.568	8,282.23	72.9928	8,282.23	69.8397	8,282.23	70.6968	8,282.23	61.3459	8,282.23	70.1006	8,282.23	67.1976	8,282.23	66.1166	8,282.23	69.6844	8,282.23	66.4241	8,282.23	48.5429	8,282.23	68.7328	8,282.23	61.839
8,573.73	90.6505	8,573.73	91.0646	8,573.73	91.1238	8,573.73	90.5589	8,573.73	90.7929	8,573.73	90.2025	8,573.73	90.5379	8,573.73	89.2003	8,573.73	90.0729	8,573.73	87.2757	8,573.73	88.3799	8,573.73	84.7784	8,573.73	86.1275	8,573.73	81.2975	8,573.73	83.9425	8,573.73	78.4337	8,573.73	80.0414	8,573.73	73.802	8,573.73	77.8694	8,573.73	72.4989	8,573.73	73.5631	8,573.73	69.921	8,573.73	72.8153	8,573.73	70.3081	8,573.73	69.392	8,573.73	66.6576	8,573.73	67.9175	8,573.73	65.2433	8,573.73	68.0602	8,573.73	66.8989	8,573.73	61.0713	8,573.73	69.5933	8,573.73	66.2207	8,573.73	46.369	8,573.73	65.1243	8,573.73	53.5667
8,876.95	92.419	8,876.95	92.0355	8,876.95	92.2371	8,876.95	91.4087	8,876.95	92.3195	8,876.95	89.7488	8,876.95	91.332	8,876.95	88.9606	8,876.95	89.8993	8,876.95	86.4521	8,876.95	87.7072	8,876.95	83.6441	8,876.95	85.0916	8,876.95	80.5886	8,876.95	82.1745	8,876.95	77.6104	8,876.95	80.9855	8,876.95	73.6039	8,876.95	77.0678	8,876.95	71.3602	8,876.95	72.3921	8,876.95	70.7082	8,876.95	72.7659	8,876.95	70.5964	8,876.95	69.654	8,876.95	67.6599	8,876.95	69.7928	8,876.95	65.9845	8,876.95	69.3	8,876.95	62.8894	8,876.95	61.6814	8,876.95	65.0594	8,876.95	63.324	8,876.95	57.1821	8,876.95	67.9695	8,876.95	58.0294
9,188.96	92.6553	9,188.96	91.6302	9,188.96	92.7154	9,188.96	90.8125	9,188.96	91.2848	9,188.96	89.4812	9,188.96	90.5285	9,188.96	87.9286	9,188.96	89.4035	9,188.96	84.9598	9,188.96	86.9553	9,188.96	82.0002	9,188.96	84.533	9,188.96	79.3408	9,188.96	81.2466	9,188.96	75.0204	9,188.96	78.6658	9,188.96	73.6425	9,188.96	75.6639	9,188.96	71.7598	9,188.96	73.8926	9,188.96	69.4014	9,188.96	71.2335	9,188.96	70.422	9,188.96	68.7499	9,188.96	65.7749	9,188.96	69.0393	9,188.96	63.6981	9,188.96	69.1217	9,188.96	63.0892	9,188.96	58.8504	9,188.96	65.3372	9,188.96	63.5873	9,188.96	60.0653	9,188.96	64.8631	9,188.96	59.7124
9,514.16	92.757	9,514.16	91.9811	9,514.16	92.6122	9,514.16	90.9231	9,514.16	92.0959	9,514.16	89.7947	9,514.16	90.5387	9,514.16	87.4607	9,514.16	88.5462	9,514.16	84.6894	9,514.16	87.1089	9,514.16	81.9353	9,514.16	83.7761	9,514.16	78.3513	9,514.16	80.5301	9,514.16	76.0116	9,514.16	79.2782	9,514.16	72.0067	9,514.16	75.6713	9,514.16	68.857	9,514.16	74.1175	9,514.16	68.1315	9,514.16	69.9985	9,514.16	67.1553	9,514.16	68.9269	9,514.16	66.2981	9,514.16	69.1552	9,514.16	65.3217	9,514.16	67.0727	9,514.16	58.79	9,514.16	64.206	9,514.16	63.1803	9,514.16	59.6107	9,514.16	60.9647	9,514.16	66.6286	9,514.16	58.1978
9,849.61	92.9229	9,849.61	91.8821	9,849.61	92.7255	9,849.61	91.1613	9,849.61	92.0964	9,849.61	89.2511	9,849.61	90.8344	9,849.61	87.1827	9,849.61	88.9973	9,849.61	84.2113	9,849.61	86.4544	9,849.61	80.5821	9,849.61	84.2358	9,849.61	78.0733	9,849.61	81.2548	9,849.61	74.1964	9,849.61	79.3687	9,849.61	74.1658	9,849.61	75.6648	9,849.61	69.2791	9,849.61	73.7288	9,849.61	68.1779	9,849.61	70.5168	9,849.61	64.1964	9,849.61	69.0919	9,849.61	64.0535	9,849.61	65.7177	9,849.61	64.1144	9,849.61	64.7695	9,849.61	60.4114	9,849.61	63.7246	9,849.61	61.3458	9,849.61	58.5903	9,849.61	59.1176	9,849.61	63.8718	9,849.61	61.1599
10,196.8	92.7244	10,196.8	91.8281	10,196.8	92.8475	10,196.8	90.6823	10,196.8	91.6665	10,196.8	89.1307	10,196.8	90.5236	10,196.8	86.1679	10,196.8	88.3311	10,196.8	83.1799	10,196.8	86.6713	10,196.8	81.1964	10,196.8	83.3889	10,196.8	78.0628	10,196.8	80.371	10,196.8	77.0693	10,196.8	78.8432	10,196.8	73.4621	10,196.8	75.1108	10,196.8	70.8018	10,196.8	73.3399	10,196.8	70.6418	10,196.8	71.2166	10,196.8	64.9453	10,196.8	69.3334	10,196.8	63.6998	10,196.8	66.272	10,196.8	64.3601	10,196.8	65.352	10,196.8	61.5702	10,196.8	62.8062	10,196.8	57.6665	10,196.8	60.9309	10,196.8	57.6986	10,196.8	62.9884	10,196.8	64.2663
10,555.7	92.8908	10,555.7	92.157	10,555.7	92.774	10,555.7	90.9342	10,555.7	92.1021	10,555.7	88.5757	10,555.7	90.543	10,555.7	86.3256	10,555.7	88.7309	10,555.7	84.1232	10,555.7	86.0518	10,555.7	82.242	10,555.7	84.3413	10,555.7	80.136	10,555.7	81.6348	10,555.7	77.3645	10,555.7	80.2106	10,555.7	74.591	10,555.7	76.3764	10,555.7	72.0927	10,555.7	74.7301	10,555.7	71.4329	10,555.7	70.0149	10,555.7	65.3862	10,555.7	70.5139	10,555.7	63.9114	10,555.7	68.1273	10,555.7	63.5977	10,555.7	64.3931	10,555.7	63.4577	10,555.7	62.8164	10,555.7	60.3769	10,555.7	63.3748	10,555.7	58.4248	10,555.7	63.8767	10,555.7	64.6727
10,927.7	93.1158	10,927.7	92.2761	10,927.7	93.1086	10,927.7	90.7748	10,927.7	91.8766	10,927.7	88.5866	10,927.7	90.2461	10,927.7	85.9248	10,927.7	88.2496	10,927.7	84.0696	10,927.7	86.1903	10,927.7	81.733	10,927.7	84.5296	10,927.7	79.1242	10,927.7	81.9973	10,927.7	76.2089	10,927.7	78.0354	10,927.7	72.5853	10,927.7	74.336	10,927.7	71.3464	10,927.7	72.6311	10,927.7	70.2768	10,927.7	69.0046	10,927.7	65.9026	10,927.7	69.7838	10,927.7	63.3434	10,927.7	61.0553	10,927.7	62.7892	10,927.7	63.3205	10,927.7	61.4567	10,927.7	62.0065	10,927.7	60.1777	10,927.7	62.4187	10,927.7	54.8298	10,927.7	63.1035	10,927.7	62.1813
11,313	92.8617	11,313	91.6956	11,313	92.8341	11,313	90.5838	11,313	91.8253	11,313	88.272	11,313	89.8218	11,313	86.5155	11,313	88.1699	11,313	82.7104	11,313	85.0509	11,313	79.802	11,313	82.7947	11,313	74.1614	11,313	78.8301	11,313	72.4478	11,313	73.941	11,313	69.1533	11,313	70.9698	11,313	65.3259	11,313	65.6886	11,313	67.1893	11,313	65.1448	11,313	62.7417	11,313	64.117	11,313	59.83	11,313	59.7427	11,313	59.5758	11,313	61.1663	11,313	58.6893	11,313	60.6941	11,313	56.3526	11,313	62.5032	11,313	59.0181	11,313	61.9772	11,313	60.3508
11,712.9	92.5481	11,712.9	91.5766	11,712.9	92.3834	11,712.9	89.9535	11,712.9	91.1637	11,712.9	88.0354	11,712.9	89.7285	11,712.9	85.5376	11,712.9	87.4522	11,712.9	82.2935	11,712.9	84.9949	11,712.9	80.0596	11,712.9	82.064	11,712.9	76.862	11,712.9	79.6613	11,712.9	74.899	11,712.9	76.161	11,712.9	72.449	11,712.9	74.7993	11,712.9	68.9636	11,712.9	71.2095	11,712.9	64.9306	11,712.9	69.9505	11,712.9	66.1434	11,712.9	66.066	11,712.9	63.2367	11,712.9	62.3117	11,712.9	60.3129	11,712.9	61.5595	11,712.9	56.5559	11,712.9	61.346	11,712.9	57.9217	11,712.9	62.447	11,712.9	53.1656	11,712.9	60.9563	11,712.9	57.1942
12,126	92.2183	12,126	91.1745	12,126	91.9226	12,126	89.8234	12,126	90.9018	12,126	87.3364	12,126	88.8358	12,126	85.9176	12,126	86.4657	12,126	82.8278	12,126	84.6131	12,126	81.1037	12,126	82.1968	12,126	78.7953	12,126	79.6678	12,126	75.9283	12,126	77.4334	12,126	72.4519	12,126	73.7874	12,126	68.8287	12,126	72.0622	12,126	66.9604	12,126	67.7572	12,126	64.8293	12,126	67.2968	12,126	63.9984	12,126	62.7596	12,126	58.4608	12,126	60.7696	12,126	55.554	12,126	61.8678	12,126	59.8018	12,126	60.6916	12,126	55.698	12,126	58.6879	12,126	54.444
12,553.7	92.072	12,553.7	91.512	12,553.7	91.9901	12,553.7	89.7272	12,553.7	90.7363	12,553.7	87.7696	12,553.7	89.0982	12,553.7	85.4019	12,553.7	86.7916	12,553.7	83.2273	12,553.7	84.2693	12,553.7	79.6096	12,553.7	81.6708	12,553.7	77.5842	12,553.7	78.8629	12,553.7	73.3256	12,553.7	74.9986	12,553.7	71.0719	12,553.7	71.8634	12,553.7	67.7246	12,553.7	70.0439	12,553.7	60.8537	12,553.7	66.7794	12,553.7	64.422	12,553.7	65.5641	12,553.7	62.4486	12,553.7	59.4718	12,553.7	53.4428	12,553.7	59.7702	12,553.7	48.833	12,553.7	59.5194	12,553.7	56.8223	12,553.7	59.5552	12,553.7	53.9467	12,553.7	50.2247	12,553.7	54.1411
12,996.1	91.8441	12,996.1	90.7872	12,996.1	91.4499	12,996.1	89.6578	12,996.1	90.3348	12,996.1	87.6259	12,996.1	88.3824	12,996.1	85.5262	12,996.1	86.5487	12,996.1	82.196	12,996.1	83.4765	12,996.1	78.6667	12,996.1	80.8629	12,996.1	74.5567	12,996.1	77.6084	12,996.1	71.7455	12,996.1	73.3756	12,996.1	68.767	12,996.1	69.9536	12,996.1	66.7616	12,996.1	67.1882	12,996.1	65.1078	12,996.1	64.4095	12,996.1	63.6959	12,996.1	62.3063	12,996.1	62.0842	12,996.1	58.9306	12,996.1	53.508	12,996.1	59.7895	12,996.1	54.1294	12,996.1	60.2715	12,996.1	54.3004	12,996.1	62.3687	12,996.1	51.8095	12,996.1	50.3525	12,996.1	50.6511
13,454.6	91.5236	13,454.6	90.9132	13,454.6	91.3235	13,454.6	89.2983	13,454.6	90.1916	13,454.6	87.3578	13,454.6	88.4402	13,454.6	84.8175	13,454.6	86.1685	13,454.6	82.1419	13,454.6	83.5079	13,454.6	78.7311	13,454.6	79.993	13,454.6	74.2685	13,454.6	75.7497	13,454.6	71.4758	13,454.6	73.6588	13,454.6	68.5419	13,454.6	68.9549	13,454.6	66.1345	13,454.6	64.8335	13,454.6	64.2765	13,454.6	63.3833	13,454.6	65.0893	13,454.6	60.2374	13,454.6	63.0084	13,454.6	58.0214	13,454.6	56.1706	13,454.6	58.6154	13,454.6	50.9463	13,454.6	56.0661	13,454.6	54.9866	13,454.6	60.3497	13,454.6	45.1068	13,454.6	53.1079	13,454.6	51.0918
13,929.2	91.6018	13,929.2	91.0192	13,929.2	91.5482	13,929.2	89.4907	13,929.2	90.3631	13,929.2	87.4297	13,929.2	88.4735	13,929.2	84.9451	13,929.2	86.0289	13,929.2	81.36	13,929.2	83.5342	13,929.2	77.7538	13,929.2	79.1092	13,929.2	72.6701	13,929.2	74.3674	13,929.2	70.7838	13,929.2	72.2401	13,929.2	65.6787	13,929.2	66.1828	13,929.2	62.9981	13,929.2	64.9306	13,929.2	63.625	13,929.2	60.2023	13,929.2	61.7038	13,929.2	58.9988	13,929.2	60.6957	13,929.2	54.5053	13,929.2	56.0333	13,929.2	57.4595	13,929.2	45.2387	13,929.2	50.3523	13,929.2	49.2044	13,929.2	55.1278	13,929.2	48.7731	13,929.2	53.5394	13,929.2	48.0405
14,419.9	91.8391	14,419.9	90.8193	14,419.9	91.3719	14,419.9	89.4812	14,419.9	90.4631	14,419.9	87.1932	14,419.9	88.5658	14,419.9	84.7993	14,419.9	85.8212	14,419.9	79.9243	14,419.9	82.4572	14,419.9	76.261	14,419.9	77.6956	14,419.9	72.5073	14,419.9	72.1996	14,419.9	68.972	14,419.9	69.174	14,419.9	62.6409	14,419.9	64.8629	14,419.9	63.5473	14,419.9	63.6908	14,419.9	61.1422	14,419.9	61.2564	14,419.9	53.0414	14,419.9	60.0094	14,419.9	54.9965	14,419.9	34.3857	14,419.9	55.028	14,419.9	54.2492	14,419.9	36.0392	14,419.9	55.0699	14,419.9	48.7784	14,419.9	55.5423	14,419.9	48.7779	14,419.9	46.2709	14,419.9	42.7645
14,928.2	91.8266	14,928.2	91.1293	14,928.2	91.5157	14,928.2	89.4442	14,928.2	90.3597	14,928.2	86.8933	14,928.2	88.3363	14,928.2	83.3278	14,928.2	85.2376	14,928.2	78.7337	14,928.2	81.2277	14,928.2	74.6265	14,928.2	76.3699	14,928.2	71.5429	14,928.2	71.4195	14,928.2	66.9508	14,928.2	66.8451	14,928.2	63.0191	14,928.2	63.1437	14,928.2	62.1033	14,928.2	57.0373	14,928.2	58.0532	14,928.2	60.2189	14,928.2	56.2016	14,928.2	58.2958	14,928.2	54.546	14,928.2	42.6265	14,928.2	40.9577	14,928.2	53.7058	14,928.2	38.3453	14,928.2	53.9124	14,928.2	46.8737	14,928.2	54.5397	14,928.2	48.2429	14,928.2	40.7044	14,928.2	36.1784
15,455.6	91.8747	15,455.6	90.9032	15,455.6	91.5194	15,455.6	89.302	15,455.6	90.3465	15,455.6	86.4458	15,455.6	88.0444	15,455.6	82.7909	15,455.6	84.7547	15,455.6	78.1088	15,455.6	80.0399	15,455.6	72.2496	15,455.6	74.6606	15,455.6	66.8895	15,455.6	67.098	15,455.6	60.8045	15,455.6	60.3241	15,455.6	59.8639	15,455.6	60.671	15,455.6	57.3748	15,455.6	55.1191	15,455.6	55.7518	15,455.6	57.0935	15,455.6	54.5642	15,455.6	52.7072	15,455.6	54.3802	15,455.6	53.0541	15,455.6	44.3759	15,455.6	52.4687	15,455.6	43.6847	15,455.6	52.3483	15,455.6	48.111	15,455.6	51.16	15,455.6	48.1766	15,455.6	38.0941	15,455.6	34.3185
16,000.5	91.708	16,000.5	90.6497	16,000.5	91.4302	16,000.5	88.9301	16,000.5	90.0662	16,000.5	86.1384	16,000.5	87.8671	16,000.5	82.0263	16,000.5	84.343	16,000.5	76.3618	16,000.5	79.444	16,000.5	70.0438	16,000.5	72.1398	16,000.5	62.5577	16,000.5	67.4399	16,000.5	64.0172	16,000.5	65.1291	16,000.5	60.5815	16,000.5	65.3753	16,000.5	59.4262	16,000.5	61.1159	16,000.5	58.7046	16,000.5	59.7816	16,000.5	54.4108	16,000.5	55.921	16,000.5	49.9474	16,000.5	52.1745	16,000.5	49.2085	16,000.5	52.2562	16,000.5	48.3669	16,000.5	52.2321	16,000.5	48.4149	16,000.5	46.7115	16,000.5	47.3585	16,000.5	36.8985	16,000.5	34.9351
16,564.5	91.0172	16,564.5	89.9886	16,564.5	90.8576	16,564.5	88.2534	16,564.5	89.7892	16,564.5	85.1322	16,564.5	87.6073	16,564.5	81.0222	16,564.5	83.674	16,564.5	74.9269	16,564.5	78.8092	16,564.5	70.6569	16,564.5	72.5979	16,564.5	65.7097	16,564.5	69.1092	16,564.5	63.487	16,564.5	65.8775	16,564.5	59.8324	16,564.5	64.3125	16,564.5	59.488	16,564.5	60.5287	16,564.5	56.7543	16,564.5	60.9544	16,564.5	49.9375	16,564.5	56.6735	16,564.5	49.2918	16,564.5	51.3439	16,564.5	48.9128	16,564.5	48.5021	16,564.5	48.5315	16,564.5	51.7437	16,564.5	47.9367	16,564.5	47.2157	16,564.5	45.7355	16,564.5	43.0002	16,564.5	37.0743
17,148.9	90.016	17,148.9	88.9479	17,148.9	90.0173	17,148.9	87.5122	17,148.9	89.2709	17,148.9	84.3993	17,148.9	87.1566	17,148.9	80.2637	17,148.9	83.5345	17,148.9	73.5628	17,148.9	78.2631	17,148.9	66.938	17,148.9	70.8617	17,148.9	61.3507	17,148.9	64.0005	17,148.9	54.7183	17,148.9	58.6804	17,148.9	55.0703	17,148.9	59.4127	17,148.9	55.8737	17,148.9	55.8174	17,148.9	50.8722	17,148.9	57.218	17,148.9	42.246	17,148.9	50.9985	17,148.9	46.487	17,148.9	47.0739	17,148.9	34.383	17,148.9	51.8886	17,148.9	46.3631	17,148.9	48.7787	17,148.9	48.085	17,148.9	44.9492	17,148.9	44.4675	17,148.9	40.4825	17,148.9	35.0581
17,752.4	89.2781	17,752.4	88.2395	17,752.4	89.4169	17,752.4	86.8187	17,752.4	88.7183	17,752.4	83.6548	17,752.4	86.7279	17,752.4	78.845	17,752.4	82.7742	17,752.4	70.0128	17,752.4	76.3222	17,752.4	55.0201	17,752.4	64.7167	17,752.4	57.9753	17,752.4	62.7724	17,752.4	58.3028	17,752.4	60.8418	17,752.4	56.3898	17,752.4	60.7085	17,752.4	54.9249	17,752.4	54.5342	17,752.4	49.4941	17,752.4	50.3555	17,752.4	48.4138	17,752.4	48.3887	17,752.4	51.1762	17,752.4	40.6036	17,752.4	48.8314	17,752.4	50.7158	17,752.4	39.7524	17,752.4	49.107	17,752.4	46.2151	17,752.4	47.694	17,752.4	47.72	17,752.4	43.418	17,752.4	37.4165
18,379.4	89.2898	18,379.4	87.9723	18,379.4	89.4208	18,379.4	86.36	18,379.4	88.5577	18,379.4	82.9018	18,379.4	86.3175	18,379.4	77.2163	18,379.4	81.6902	18,379.4	65.9074	18,379.4	73.2244	18,379.4	51.9758	18,379.4	53.0441	18,379.4	59.1397	18,379.4	63.3501	18,379.4	58.2835	18,379.4	63.1051	18,379.4	57.624	18,379.4	59.8328	18,379.4	51.5032	18,379.4	58.9372	18,379.4	49.3713	18,379.4	55.9035	18,379.4	48.7935	18,379.4	51.8625	18,379.4	36.1627	18,379.4	52.6782	18,379.4	36.4029	18,379.4	44.6406	18,379.4	47.7756	18,379.4	43.7564	18,379.4	42.6152	18,379.4	49.7106	18,379.4	44.1528	18,379.4	20.4759	18,379.4	39.9463
19,026.9	89.6055	19,026.9	87.9356	19,026.9	89.7694	19,026.9	85.4874	19,026.9	88.3611	19,026.9	81.5841	19,026.9	85.321	19,026.9	75.4317	19,026.9	80.1878	19,026.9	59.8817	19,026.9	69.2025	19,026.9	61.6541	19,026.9	61.8913	19,026.9	65.4397	19,026.9	67.1159	19,026.9	63.3393	19,026.9	66.53	19,026.9	60.3758	19,026.9	62.0714	19,026.9	55.8092	19,026.9	60.5538	19,026.9	48.0512	19,026.9	57.8723	19,026.9	46.6842	19,026.9	55.574	19,026.9	49.1916	19,026.9	51.1122	19,026.9	45.4242	19,026.9	49.192	19,026.9	48.1522	19,026.9	34.2512	19,026.9	45.0232	19,026.9	38.3765	19,026.9	43.5481	19,026.9	32.415	19,026.9	42.4501
19,697.8	89.9546	19,697.8	87.7922	19,697.8	89.8771	19,697.8	84.1184	19,697.8	87.7657	19,697.8	78.8205	19,697.8	83.4931	19,697.8	71.36	19,697.8	76.7497	19,697.8	58.1596	19,697.8	64.1642	19,697.8	60.5594	19,697.8	67.9369	19,697.8	61.935	19,697.8	67.1173	19,697.8	60.4671	19,697.8	66.6572	19,697.8	55.3306	19,697.8	62.0491	19,697.8	53.7768	19,697.8	58.149	19,697.8	44.7646	19,697.8	54.9616	19,697.8	47.6378	19,697.8	55.5085	19,697.8	48.4181	19,697.8	46.4462	19,697.8	45.9285	19,697.8	47.3709	19,697.8	35.1972	19,697.8	43.2063	19,697.8	43.3272	19,697.8	46.0872	19,697.8	42.6007	19,697.8	24.0066	19,697.8	42.2692
19,999.5	90.0766	19,999.5	87.5612	19,999.5	89.7486	19,999.5	83.5648	19,999.5	87.356	19,999.5	77.2834	19,999.5	82.4667	19,999.5	69.2146	19,999.5	74.7258	19,999.5	58.8463	19,999.5	65.65	19,999.5	58.5215	19,999.5	69.4316	19,999.5	60.8674	19,999.5	67.21	19,999.5	60.8778	19,999.5	67.6547	19,999.5	54.8227	19,999.5	62.9668	19,999.5	52.204	19,999.5	56.6153	19,999.5	49.7756	19,999.5	54.9816	19,999.5	52.18	19,999.5	56.178	19,999.5	47.1385	19,999.5	62.1993	19,999.5	56.5845	19,999.5	36.1539	19,999.5	58.255	19,999.5	46.0944	19,999.5	46.2309	19,999.5	53.6892	19,999.5	45.7671	19,999.5	54.9269	19,999.5	51.1637
