"SPL Vertical"
"On-Axis"		"10°"		"-10°"		"20°"		"-20°"		"30°"		"-30°"		"40°"		"-40°"		"50°"		"-50°"		"60°"		"-60°"		"70°"		"-70°"		"80°"		"-80°"		"90°"		"-90°"		"100°"		"-100°"		"110°"		"-110°"		"120°"		"-120°"		"130°"		"-130°"		"140°"		"-140°"		"150°"		"-150°"		"160°"		"-160°"		"170°"		"-170°"		"180°"
"Frequency / Hz"	"Sound Pressure Level / dB (re 20 µPa/V)  [2.83  V @ 1. m]"	"Frequency / Hz"	"Sound Pressure Level / dB (re 20 µPa/V)  [2.83  V @ 1. m]"	"Frequency / Hz"	"Sound Pressure Level / dB (re 20 µPa/V)  [2.83  V @ 1. m]"	"Frequency / Hz"	"Sound Pressure Level / dB (re 20 µPa/V)  [2.83  V @ 1. m]"	"Frequency / Hz"	"Sound Pressure Level / dB (re 20 µPa/V)  [2.83  V @ 1. m]"	"Frequency / Hz"	"Sound Pressure Level / dB (re 20 µPa/V)  [2.83  V @ 1. m]"	"Frequency / Hz"	"Sound Pressure Level / dB (re 20 µPa/V)  [2.83  V @ 1. m]"	"Frequency / Hz"	"Sound Pressure Level / dB (re 20 µPa/V)  [2.83  V @ 1. m]"	"Frequency / Hz"	"Sound Pressure Level / dB (re 20 µPa/V)  [2.83  V @ 1. m]"	"Frequency / Hz"	"Sound Pressure Level / dB (re 20 µPa/V)  [2.83  V @ 1. m]"	"Frequency / Hz"	"Sound Pressure Level / dB (re 20 µPa/V)  [2.83  V @ 1. m]"	"Frequency / Hz"	"Sound Pressure Level / dB (re 20 µPa/V)  [2.83  V @ 1. m]"	"Frequency / Hz"	"Sound Pressure Level / dB (re 20 µPa/V)  [2.83  V @ 1. m]"	"Frequency / Hz"	"Sound Pressure Level / dB (re 20 µPa/V)  [2.83  V @ 1. m]"	"Frequency / Hz"	"Sound Pressure Level / dB (re 20 µPa/V)  [2.83  V @ 1. m]"	"Frequency / Hz"	"Sound Pressure Level / dB (re 20 µPa/V)  [2.83  V @ 1. m]"	"Frequency / Hz"	"Sound Pressure Level / dB (re 20 µPa/V)  [2.83  V @ 1. m]"	"Frequency / Hz"	"Sound Pressure Level / dB (re 20 µPa/V)  [2.83  V @ 1. m]"	"Frequency / Hz"	"Sound Pressure Level / dB (re 20 µPa/V)  [2.83  V @ 1. m]"	"Frequency / Hz"	"Sound Pressure Level / dB (re 20 µPa/V)  [2.83  V @ 1. m]"	"Frequency / Hz"	"Sound Pressure Level / dB (re 20 µPa/V)  [2.83  V @ 1. m]"	"Frequency / Hz"	"Sound Pressure Level / dB (re 20 µPa/V)  [2.83  V @ 1. m]"	"Frequency / Hz"	"Sound Pressure Level / dB (re 20 µPa/V)  [2.83  V @ 1. m]"	"Frequency / Hz"	"Sound Pressure Level / dB (re 20 µPa/V)  [2.83  V @ 1. m]"	"Frequency / Hz"	"Sound Pressure Level / dB (re 20 µPa/V)  [2.83  V @ 1. m]"	"Frequency / Hz"	"Sound Pressure Level / dB (re 20 µPa/V)  [2.83  V @ 1. m]"	"Frequency / Hz"	"Sound Pressure Level / dB (re 20 µPa/V)  [2.83  V @ 1. m]"	"Frequency / Hz"	"Sound Pressure Level / dB (re 20 µPa/V)  [2.83  V @ 1. m]"	"Frequency / Hz"	"Sound Pressure Level / dB (re 20 µPa/V)  [2.83  V @ 1. m]"	"Frequency / Hz"	"Sound Pressure Level / dB (re 20 µPa/V)  [2.83  V @ 1. m]"	"Frequency / Hz"	"Sound Pressure Level / dB (re 20 µPa/V)  [2.83  V @ 1. m]"	"Frequency / Hz"	"Sound Pressure Level / dB (re 20 µPa/V)  [2.83  V @ 1. m]"	"Frequency / Hz"	"Sound Pressure Level / dB (re 20 µPa/V)  [2.83  V @ 1. m]"	"Frequency / Hz"	"Sound Pressure Level / dB (re 20 µPa/V)  [2.83  V @ 1. m]"	"Frequency / Hz"	"Sound Pressure Level / dB (re 20 µPa/V)  [2.83  V @ 1. m]"	"Frequency / Hz"	"Sound Pressure Level / dB (re 20 µPa/V)  [2.83  V @ 1. m]"
20.5078	30.7638	20.5078	31.5246	20.5078	30.2525	20.5078	32.5068	20.5078	29.9776	20.5078	33.6439	20.5078	29.9179	20.5078	34.8574	20.5078	30.0836	20.5078	36.0807	20.5078	30.5261	20.5078	37.2674	20.5078	31.2997	20.5078	38.3891	20.5078	32.3992	20.5078	39.429	20.5078	33.7392	20.5078	40.3772	20.5078	35.1952	20.5078	41.227	20.5078	36.6558	20.5078	41.9726	20.5078	38.0443	20.5078	42.6081	20.5078	39.3153	20.5078	43.1268	20.5078	40.4445	20.5078	43.5215	20.5078	41.4196	20.5078	43.7846	20.5078	42.235	20.5078	43.9085	20.5078	42.8885	20.5078	43.8862	20.5078	43.3802	20.5078	43.7116
21.9727	42.3306	21.9727	42.3053	21.9727	42.3792	21.9727	42.3204	21.9727	42.4373	21.9727	42.3935	21.9727	42.4952	21.9727	42.5397	21.9727	42.5499	21.9727	42.7683	21.9727	42.6059	21.9727	43.0805	21.9727	42.6759	21.9727	43.4681	21.9727	42.7804	21.9727	43.915	21.9727	42.9442	21.9727	44.3992	21.9727	43.1899	21.9727	44.8962	21.9727	43.5293	21.9727	45.3815	21.9727	43.9571	21.9727	45.8322	21.9727	44.4502	21.9727	46.2277	21.9727	44.9736	21.9727	46.55	21.9727	45.4883	21.9727	46.7843	21.9727	45.9588	21.9727	46.9188	21.9727	46.3564	21.9727	46.9452	21.9727	46.6608	21.9727	46.8591
23.4375	41.9675	23.4375	41.5198	23.4375	42.2906	23.4375	40.9712	23.4375	42.4775	23.4375	40.3671	23.4375	42.5232	23.4375	39.7881	23.4375	42.4273	23.4375	39.3556	23.4375	42.1941	23.4375	39.2083	23.4375	41.8378	23.4375	39.4333	23.4375	41.3902	23.4375	40.0041	23.4375	40.9148	23.4375	40.7997	23.4375	40.5184	23.4375	41.681	23.4375	40.3397	23.4375	42.5411	23.4375	40.4912	23.4375	43.3133	23.4375	40.9804	23.4375	43.9598	23.4375	41.7016	23.4375	44.4595	23.4375	42.5085	23.4375	44.8003	23.4375	43.281	23.4375	44.9744	23.4375	43.9442	23.4375	44.9768	23.4375	44.4581	23.4375	44.8045
24.9023	41.8787	24.9023	41.5106	24.9023	42.1805	24.9023	41.1458	24.9023	42.3752	24.9023	40.8871	24.9023	42.4428	24.9023	40.8533	24.9023	42.3786	24.9023	41.1317	24.9023	42.1946	24.9023	41.7249	24.9023	41.9264	24.9023	42.5506	24.9023	41.6456	24.9023	43.4938	24.9023	41.4686	24.9023	44.4543	24.9023	41.5375	24.9023	45.3639	24.9023	41.9512	24.9023	46.1813	24.9023	42.693	24.9023	46.8822	24.9023	43.6422	24.9023	47.4522	24.9023	44.6537	24.9023	47.8816	24.9023	45.6163	24.9023	48.1629	24.9023	46.4636	24.9023	48.2901	24.9023	47.1615	24.9023	48.2574	24.9023	47.6953	24.9023	48.0603
26.3672	43.6257	26.3672	43.4577	26.3672	43.7889	26.3672	43.3522	26.3672	43.8999	26.3672	43.3872	26.3672	43.9318	26.3672	43.6278	26.3672	43.8781	26.3672	44.0985	26.3672	43.7548	26.3672	44.7703	26.3672	43.6071	26.3672	45.5771	26.3672	43.5153	26.3672	46.4443	26.3672	43.5877	26.3672	47.3087	26.3672	43.9229	26.3672	48.124	26.3672	44.551	26.3672	48.8594	26.3672	45.4109	26.3672	49.494	26.3672	46.3885	26.3672	50.0135	26.3672	47.3737	26.3672	50.4073	26.3672	48.2875	26.3672	50.6667	26.3672	49.0826	26.3672	50.7846	26.3672	49.7344	26.3672	50.7546	26.3672	50.2318	26.3672	50.5715
27.832	46.9236	27.832	46.7396	27.832	47.0812	27.832	46.5771	27.832	47.1796	27.832	46.4971	27.832	47.2005	27.832	46.5619	27.832	47.1399	27.832	46.816	27.832	47.0097	27.832	47.2663	27.832	46.843	27.832	47.8796	27.832	46.6998	27.832	48.597	27.832	46.6658	27.832	49.3556	27.832	46.8314	27.832	50.1017	27.832	47.2497	27.832	50.7948	27.832	47.902	27.832	51.4061	27.832	48.7072	27.832	51.9153	27.832	49.5646	27.832	52.3076	27.832	50.3893	27.832	52.5719	27.832	51.1234	27.832	52.6991	27.832	51.7329	27.832	52.6825	27.832	52.1999	27.832	52.5169
29.2969	48.9069	29.2969	48.7072	29.2969	49.0759	29.2969	48.5277	29.2969	49.1799	29.2969	48.4335	29.2969	49.2005	29.2969	48.4923	29.2969	49.1341	29.2969	48.7517	29.2969	48.9949	29.2969	49.2183	29.2969	48.8193	29.2969	49.8546	29.2969	48.6732	29.2969	50.597	29.2969	48.6487	29.2969	51.3791	29.2969	48.8401	29.2969	52.1456	29.2969	49.2967	29.2969	52.8559	29.2969	49.9896	29.2969	53.4818	29.2969	50.8283	29.2969	54.0038	29.2969	51.708	29.2969	54.4078	29.2969	52.5442	29.2969	54.683	29.2969	53.2816	29.2969	54.8208	29.2969	53.8887	29.2969	54.8144	29.2969	54.3496	29.2969	54.6583
30.7617	50.3788	30.7617	50.2236	30.7617	50.5203	30.7617	50.111	30.7617	50.6094	30.7617	50.1091	30.7617	50.6255	30.7617	50.2806	30.7617	50.5662	30.7617	50.6589	30.7617	50.4497	30.7617	51.2327	30.7617	50.3197	30.7617	51.952	30.7617	50.2498	30.7617	52.7504	30.7617	50.3342	30.7617	53.5656	30.7617	50.6554	30.7617	54.349	30.7617	51.2382	30.7617	55.066	30.7617	52.031	30.7617	55.6928	30.7617	52.9361	30.7617	56.2126	30.7617	53.8543	30.7617	56.6132	30.7617	54.7112	30.7617	56.8846	30.7617	55.4594	30.7617	57.0187	30.7617	56.0724	30.7617	57.0088	30.7617	56.5374	30.7617	56.8494
32.2266	53.2496	32.2266	53.132	32.2266	53.3649	32.2266	53.0542	32.2266	53.4477	32.2266	53.0651	32.2266	53.4809	32.2266	53.2097	32.2266	53.4617	32.2266	53.5145	32.2266	53.4035	32.2266	53.9775	32.2266	53.3387	32.2266	54.5685	32.2266	53.3201	32.2266	55.2406	32.2266	53.4142	32.2266	55.9442	32.2266	53.6811	32.2266	56.6357	32.2266	54.1463	32.2266	57.2808	32.2266	54.7846	32.2266	57.8537	32.2266	55.5309	32.2266	58.3351	32.2266	56.3086	32.2266	58.7105	32.2266	57.0515	32.2266	58.9684	32.2266	57.7118	32.2266	59.0999	32.2266	58.2596	32.2266	59.0979	32.2266	58.6776	32.2266	58.9577
33.6914	55.696	33.6914	55.5528	33.6914	55.8214	33.6914	55.4295	33.6914	55.9032	33.6914	55.3724	33.6914	55.9271	33.6914	55.4289	33.6914	55.8913	33.6914	55.6345	33.6914	55.8081	33.6914	55.9998	33.6914	55.7068	33.6914	56.5063	33.6914	55.6359	33.6914	57.1132	33.6914	55.659	33.6914	57.7709	33.6914	55.8387	33.6914	58.4327	33.6914	56.2106	33.6914	59.0598	33.6914	56.7623	33.6914	59.6228	33.6914	57.4386	33.6914	60.0993	33.6914	58.1651	33.6914	60.473	33.6914	58.8732	33.6914	60.731	33.6914	59.5109	33.6914	60.8638	33.6914	60.0443	33.6914	60.8641	33.6914	60.4532	33.6914	60.7277
35.1562	56.763	35.1562	56.5828	35.1562	56.9229	35.1562	56.4289	35.1562	57.0313	35.1562	56.3591	35.1562	57.0715	35.1562	56.432	35.1562	57.0417	35.1562	56.6875	35.1562	56.9561	35.1562	57.1308	35.1562	56.849	35.1562	57.7292	35.1562	56.777	35.1562	58.4274	35.1562	56.814	35.1562	59.1658	35.1562	57.0311	35.1562	59.8934	35.1562	57.4636	35.1562	60.5716	35.1562	58.0895	35.1562	61.1724	35.1562	58.84	35.1562	61.6763	35.1562	59.631	35.1562	62.0687	35.1562	60.3902	35.1562	62.3386	35.1562	61.0658	35.1562	62.4774	35.1562	61.6259	35.1562	62.4786	35.1562	62.0526	35.1562	62.3376
36.6211	58.9728	36.6211	58.8681	36.6211	59.0806	36.6211	58.8032	36.6211	59.1648	36.6211	58.8198	36.6211	59.2103	36.6211	58.956	36.6211	59.2147	36.6211	59.2345	36.6211	59.1898	36.6211	59.6546	36.6211	59.1633	36.6211	60.1922	36.6211	59.1785	36.6211	60.8077	36.6211	59.2887	36.6211	61.4573	36.6211	59.5414	36.6211	62.1012	36.6211	59.9581	36.6211	62.7063	36.6211	60.5221	36.6211	63.2472	36.6211	61.1839	36.6211	63.7043	36.6211	61.8806	36.6211	64.0626	36.6211	62.5537	36.6211	64.3103	36.6211	63.1583	36.6211	64.4383	36.6211	63.6637	36.6211	64.44	36.6211	64.0514	36.6211	64.3113
38.0859	60.8501	38.0859	60.745	38.0859	60.9558	38.0859	60.6738	38.0859	61.0377	38.0859	60.6751	38.0859	61.0821	38.0859	60.7851	38.0859	61.0869	38.0859	61.0274	38.0859	61.0626	38.0859	61.4049	38.0859	61.0343	38.0859	61.8985	38.0859	61.0413	38.0859	62.473	38.0859	61.1325	38.0859	63.0873	38.0859	61.3528	38.0859	63.7022	38.0859	61.7258	38.0859	64.2846	38.0859	62.2406	38.0859	64.8081	38.0859	62.8545	38.0859	65.2523	38.0859	63.5097	38.0859	65.6014	38.0859	64.1497	38.0859	65.8433	38.0859	64.7294	38.0859	65.9685	38.0859	65.217	38.0859	65.9704	38.0859	65.5926	38.0859	65.8452
39.5508	62.5413	39.5508	62.4199	39.5508	62.6577	39.5508	62.3253	39.5508	62.7458	39.5508	62.2955	39.5508	62.7927	39.5508	62.3672	39.5508	62.7964	39.5508	62.5663	39.5508	62.7664	39.5508	62.8996	39.5508	62.7256	39.5508	63.3516	39.5508	62.7103	39.5508	63.8897	39.5508	62.7663	39.5508	64.4739	39.5508	62.9385	39.5508	65.0647	39.5508	63.2542	39.5508	65.6278	39.5508	63.7096	39.5508	66.136	39.5508	64.2695	39.5508	66.568	39.5508	64.8806	39.5508	66.9073	39.5508	65.4876	39.5508	67.1415	39.5508	66.0443	39.5508	67.2611	39.5508	66.5173	39.5508	67.2597	39.5508	66.8847	39.5508	67.134
41.0156	64.572	41.0156	64.4611	41.0156	64.6777	41.0156	64.3716	41.0156	64.759	41.0156	64.3346	41.0156	64.8051	41.0156	64.3811	41.0156	64.8138	41.0156	64.5349	41.0156	64.793	41.0156	64.8055	41.0156	64.7614	41.0156	65.1849	41.0156	64.7489	41.0156	65.6492	41.0156	64.7938	41.0156	66.1653	41.0156	64.9343	41.0156	66.6981	41.0156	65.1965	41.0156	67.2149	41.0156	65.5822	41.0156	67.6879	41.0156	66.066	41.0156	68.0949	41.0156	66.6044	41.0156	68.4182	41.0156	67.1482	41.0156	68.6441	41.0156	67.6536	41.0156	68.7626	41.0156	68.0869	41.0156	68.7669	41.0156	68.425	41.0156	68.6539
42.4805	65.6482	42.4805	65.5215	42.4805	65.7625	42.4805	65.4091	42.4805	65.8452	42.4805	65.3433	42.4805	65.8856	42.4805	65.3574	42.4805	65.8817	42.4805	65.4785	42.4805	65.8412	42.4805	65.7198	42.4805	65.783	42.4805	66.0757	42.4805	65.7374	42.4805	66.523	42.4805	65.744	42.4805	67.0282	42.4805	65.8444	42.4805	67.5541	42.4805	66.0688	42.4805	68.0663	42.4805	66.423	42.4805	68.5358	42.4805	66.8845	42.4805	68.9389	42.4805	67.4095	42.4805	69.2577	42.4805	67.9475	42.4805	69.4783	42.4805	68.4525	42.4805	69.5905	42.4805	68.8891	42.4805	69.588	42.4805	69.2326	42.4805	69.4681
43.9453	67.1964	43.9453	67.0861	43.9453	67.2996	43.9453	66.9925	43.9453	67.3786	43.9453	66.9441	43.9453	67.4235	43.9453	66.9696	43.9453	67.4325	43.9453	67.0924	43.9453	67.4127	43.9453	67.3237	43.9453	67.3809	43.9453	67.6589	43.9453	67.3636	43.9453	68.0784	43.9453	67.3948	43.9453	68.5527	43.9453	67.5094	43.9453	69.0485	43.9453	67.7324	43.9453	69.5342	43.9453	68.0687	43.9453	69.9819	43.9453	68.4992	43.9453	70.3691	43.9453	68.9866	43.9453	70.6775	43.9453	69.4863	43.9453	70.8933	43.9453	69.9565	43.9453	71.0063	43.9453	70.3636	43.9453	71.01	43.9453	70.6837	43.9453	70.9018
45.4102	68.4545	45.4102	68.3564	45.4102	68.5507	45.4102	68.2781	45.4102	68.6292	45.4102	68.2448	45.4102	68.6808	45.4102	68.2818	45.4102	68.7036	45.4102	68.4093	45.4102	68.7037	45.4102	68.6367	45.4102	68.696	45.4102	68.9595	45.4102	68.7035	45.4102	69.36	45.4102	68.7557	45.4102	69.8118	45.4102	68.8823	45.4102	70.2845	45.4102	69.1045	45.4102	70.7486	45.4102	69.4262	45.4102	71.178	45.4102	69.8314	45.4102	71.5507	45.4102	70.2875	45.4102	71.8491	45.4102	70.7548	45.4102	72.0595	45.4102	71.1952	45.4102	72.1718	45.4102	71.577	45.4102	72.1797	45.4102	71.8771	45.4102	72.0807
46.875	70.2342	46.875	70.1243	46.875	70.3315	46.875	70.0191	46.875	70.4032	46.875	69.9399	46.875	70.4419	46.875	69.9093	46.875	70.4456	46.875	69.9477	46.875	70.4187	46.875	70.0694	46.875	70.3727	46.875	70.2782	46.875	70.3266	46.875	70.5659	46.875	70.3062	46.875	70.914	46.875	70.3401	46.875	71.2973	46.875	70.4532	46.875	71.6882	46.875	70.6583	46.875	72.0601	46.875	70.95	46.875	72.3895	46.875	71.3055	46.875	72.6568	46.875	71.6906	46.875	72.8466	46.875	72.0681	46.875	72.9477	46.875	72.4049	46.875	72.9533	46.875	72.6752	46.875	72.8613
48.3398	70.7296	48.3398	70.6306	48.3398	70.8197	48.3398	70.5429	48.3398	70.8866	48.3398	70.4903	48.3398	70.9221	48.3398	70.4972	48.3398	70.9252	48.3398	70.5837	48.3398	70.9023	48.3398	70.7609	48.3398	70.8678	48.3398	71.0274	48.3398	70.8435	48.3398	71.3695	48.3398	70.8573	48.3398	71.7643	48.3398	70.9376	48.3398	72.1843	48.3398	71.1061	48.3398	72.6014	48.3398	71.3698	48.3398	72.9903	48.3398	71.7169	48.3398	73.329	48.3398	72.1197	48.3398	73.5999	48.3398	72.542	48.3398	73.7891	48.3398	72.9473	48.3398	73.8866	48.3398	73.3041	48.3398	73.8861	48.3398	73.589	48.3398	73.7859
51.2695	73.2314	51.2695	73.1618	51.2695	73.3005	51.2695	73.105	51.2695	73.3588	51.2695	73.0767	51.2695	73.4002	51.2695	73.0928	51.2695	73.4233	51.2695	73.1665	51.2695	73.4318	51.2695	73.3064	51.2695	73.4349	51.2695	73.5135	51.2695	73.4467	51.2695	73.7806	51.2695	73.4855	51.2695	74.0936	51.2695	73.5703	51.2695	74.4333	51.2695	73.716	51.2695	74.7783	51.2695	73.9288	51.2695	75.107	51.2695	74.2027	51.2695	75.3998	51.2695	74.5196	51.2695	75.6395	51.2695	74.854	51.2695	75.8124	51.2695	75.1775	51.2695	75.908	51.2695	75.464	51.2695	75.9203	51.2695	75.6923	51.2695	75.8473
52.7344	74.3225	52.7344	74.2417	52.7344	74.3983	52.7344	74.1683	52.7344	74.4598	52.7344	74.1174	52.7344	74.5014	52.7344	74.1043	52.7344	74.5218	52.7344	74.1434	52.7344	74.5241	52.7344	74.2445	52.7344	74.5167	52.7344	74.411	52.7344	74.5127	52.7344	74.6387	52.7344	74.5291	52.7344	74.9155	52.7344	74.5841	52.7344	75.2239	52.7344	74.6935	52.7344	75.5433	52.7344	74.8653	52.7344	75.8522	52.7344	75.0964	52.7344	76.1306	52.7344	75.3723	52.7344	76.3609	52.7344	75.6699	52.7344	76.5289	52.7344	75.9624	52.7344	76.6242	52.7344	76.2242	52.7344	76.6403	52.7344	76.4337	52.7344	76.5756
54.1992	75.2428	54.1992	75.1613	54.1992	75.3156	54.1992	75.0836	54.1992	75.371	54.1992	75.0246	54.1992	75.4039	54.1992	75.0002	54.1992	75.4139	54.1992	75.0254	54.1992	75.4051	54.1992	75.111	54.1992	75.3865	54.1992	75.2614	54.1992	75.3718	54.1992	75.4733	54.1992	75.3785	54.1992	75.7354	54.1992	75.4248	54.1992	76.0309	54.1992	75.5263	54.1992	76.3392	54.1992	75.6903	54.1992	76.6392	54.1992	75.9136	54.1992	76.9107	54.1992	76.1815	54.1992	77.1363	54.1992	76.471	54.1992	77.3016	54.1992	76.7557	54.1992	77.396	54.1992	77.0104	54.1992	77.4132	54.1992	77.2141	54.1992	77.3514
55.6641	75.7259	55.6641	75.6713	55.6641	75.7867	55.6641	75.6351	55.6641	75.8443	55.6641	75.6311	55.6641	75.8937	55.6641	75.6727	55.6641	75.934	55.6641	75.7703	55.6641	75.9691	55.6641	75.9291	55.6641	76.0072	55.6641	76.1475	55.6641	76.0604	55.6641	76.4175	55.6641	76.1424	55.6641	76.7252	55.6641	76.2665	55.6641	77.0532	55.6641	76.4413	55.6641	77.3825	55.6641	76.6684	55.6641	77.6944	55.6641	76.9399	55.6641	77.9719	55.6641	77.2399	55.6641	78.2	55.6641	77.5471	55.6641	78.3665	55.6641	77.8384	55.6641	78.4625	55.6641	78.0927	55.6641	78.4825	55.6641	78.2924	55.6641	78.4249
58.5938	78.0929	58.5938	78.0454	58.5938	78.1461	58.5938	78.0113	58.5938	78.199	58.5938	77.9996	58.5938	78.2475	58.5938	78.0188	58.5938	78.2904	58.5938	78.0766	58.5938	78.3291	58.5938	78.1777	58.5938	78.3679	58.5938	78.3235	58.5938	78.4137	58.5938	78.5105	58.5938	78.4752	58.5938	78.7313	58.5938	78.5615	58.5938	78.9746	58.5938	78.6799	58.5938	79.2264	58.5938	78.8336	58.5938	79.4718	58.5938	79.0201	58.5938	79.6957	58.5938	79.2306	58.5938	79.8844	58.5938	79.4511	58.5938	80.0262	58.5938	79.6645	58.5938	80.1122	58.5938	79.8534	58.5938	80.1371	58.5938	80.0024	58.5938	80.0995
60.0586	78.9319	60.0586	78.8839	60.0586	78.9842	60.0586	78.8479	60.0586	79.0354	60.0586	78.8323	60.0586	79.0817	60.0586	78.8455	60.0586	79.1221	60.0586	78.8949	60.0586	79.1583	60.0586	78.9855	60.0586	79.1945	60.0586	79.1187	60.0586	79.2373	60.0586	79.2918	60.0586	79.2949	60.0586	79.4978	60.0586	79.3757	60.0586	79.7263	60.0586	79.4865	60.0586	79.9642	60.0586	79.6302	60.0586	80.1971	60.0586	79.8044	60.0586	80.4108	60.0586	80.0008	60.0586	80.5919	60.0586	80.2065	60.0586	80.729	60.0586	80.4053	60.0586	80.8136	60.0586	80.5811	60.0586	80.8404	60.0586	80.7191	60.0586	80.808
62.9883	80.623	62.9883	80.5892	62.9883	80.6649	62.9883	80.5689	62.9883	80.7107	62.9883	80.5681	62.9883	80.7576	62.9883	80.5926	62.9883	80.8046	62.9883	80.6472	62.9883	80.8523	62.9883	80.7351	62.9883	80.9034	62.9883	80.8569	62.9883	80.962	62.9883	81.0103	62.9883	81.0331	62.9883	81.1899	62.9883	81.1218	62.9883	81.3877	62.9883	81.2322	62.9883	81.5935	62.9883	81.3655	62.9883	81.7956	62.9883	81.5196	62.9883	81.9823	62.9883	81.6881	62.9883	82.1422	62.9883	81.8611	62.9883	82.2653	62.9883	82.0264	62.9883	82.344	62.9883	82.1708	62.9883	82.3734	62.9883	82.2825	62.9883	82.3521
64.4531	81.4561	64.4531	81.4259	64.4531	81.4956	64.4531	81.4093	64.4531	81.5405	64.4531	81.411	64.4531	81.5883	64.4531	81.4356	64.4531	81.6377	64.4531	81.4869	64.4531	81.6889	64.4531	81.5674	64.4531	81.7434	64.4531	81.6775	64.4531	81.8042	64.4531	81.8154	64.4531	81.8752	64.4531	81.9766	64.4531	81.9601	64.4531	82.1545	64.4531	82.0624	64.4531	82.3403	64.4531	82.183	64.4531	82.5238	64.4531	82.3203	64.4531	82.6944	64.4531	82.4691	64.4531	82.8417	64.4531	82.6212	64.4531	82.9565	64.4531	82.7658	64.4531	83.0314	64.4531	82.8918	64.4531	83.0621	64.4531	82.9884	64.4531	83.047
67.3828	82.8114	67.3828	82.784	67.3828	82.8481	67.3828	82.769	67.3828	82.8914	67.3828	82.77	67.3828	82.9391	67.3828	82.7901	67.3828	82.99	67.3828	82.8322	67.3828	83.0437	67.3828	82.8981	67.3828	83.101	67.3828	82.9883	67.3828	83.1631	67.3828	83.1017	67.3828	83.2324	67.3828	83.2351	67.3828	83.3111	67.3828	83.3835	67.3828	83.4011	67.3828	83.54	67.3828	83.5031	67.3828	83.6964	67.3828	83.6156	67.3828	83.8438	67.3828	83.735	67.3828	83.9732	67.3828	83.8551	67.3828	84.0765	67.3828	83.968	67.3828	84.1472	67.3828	84.0647	67.3828	84.1812	67.3828	84.1368	67.3828	84.1772
68.8477	83.3148	68.8477	83.2896	68.8477	83.3495	68.8477	83.2767	68.8477	83.3915	68.8477	83.2788	68.8477	83.4388	68.8477	83.2987	68.8477	83.4902	68.8477	83.3386	68.8477	83.5452	68.8477	83.4	68.8477	83.6039	68.8477	83.4833	68.8477	83.6674	68.8477	83.5875	68.8477	83.7369	68.8477	83.7098	68.8477	83.814	68.8477	83.8459	68.8477	83.9	68.8477	83.9897	68.8477	83.9952	68.8477	84.134	68.8477	84.0983	68.8477	84.2706	68.8477	84.2061	68.8477	84.3914	68.8477	84.3133	68.8477	84.489	68.8477	84.4131	68.8477	84.5572	68.8477	84.4977	68.8477	84.5921	68.8477	84.5595	68.8477	84.5923
71.7773	83.9797	71.7773	83.9584	71.7773	84.0107	71.7773	83.9485	71.7773	84.0497	71.7773	83.9517	71.7773	84.0955	71.7773	83.9695	71.7773	84.1468	71.7773	84.0033	71.7773	84.2026	71.7773	84.054	71.7773	84.2626	71.7773	84.1219	71.7773	84.3264	71.7773	84.2062	71.7773	84.3942	71.7773	84.3052	71.7773	84.4661	71.7773	84.4158	71.7773	84.5425	71.7773	84.5335	71.7773	84.6231	71.7773	84.653	71.7773	84.7067	71.7773	84.7678	71.7773	84.791	71.7773	84.8712	71.7773	84.8725	71.7773	84.957	71.7773	84.9463	71.7773	85.0201	71.7773	85.0066	71.7773	85.0568	71.7773	85.048	71.7773	85.0658
74.707	84.1985	74.707	84.1805	74.707	84.2272	74.707	84.1738	74.707	84.2656	74.707	84.1794	74.707	84.3124	74.707	84.1977	74.707	84.3664	74.707	84.2293	74.707	84.4263	74.707	84.2744	74.707	84.4908	74.707	84.333	74.707	84.5587	74.707	84.4044	74.707	84.6288	74.707	84.4874	74.707	84.7003	74.707	84.58	74.707	84.7724	74.707	84.679	74.707	84.8444	74.707	84.7804	74.707	84.9151	74.707	84.8793	74.707	84.9828	74.707	84.9704	74.707	85.0449	74.707	85.0486	74.707	85.0983	74.707	85.1093	74.707	85.1389	74.707	85.1493	74.707	85.1629	74.707	85.167
77.6367	84.181	77.6367	84.1638	77.6367	84.2084	77.6367	84.1573	77.6367	84.2457	77.6367	84.1614	77.6367	84.2918	77.6367	84.1762	77.6367	84.3458	77.6367	84.2017	77.6367	84.4059	77.6367	84.2378	77.6367	84.4707	77.6367	84.2845	77.6367	84.5382	77.6367	84.3414	77.6367	84.6065	77.6367	84.4079	77.6367	84.6742	77.6367	84.4826	77.6367	84.7397	77.6367	84.5635	77.6367	84.8017	77.6367	84.6478	77.6367	84.8592	77.6367	84.7319	77.6367	84.9107	77.6367	84.8116	77.6367	84.9547	77.6367	84.8827	77.6367	84.989	77.6367	84.9413	77.6367	85.0112	77.6367	84.9844	77.6367	85.019	77.6367	85.0104
79.1016	84.1526	79.1016	84.1373	79.1016	84.1783	79.1016	84.1324	79.1016	84.2141	79.1016	84.1377	79.1016	84.2594	79.1016	84.1528	79.1016	84.3129	79.1016	84.1775	79.1016	84.3732	79.1016	84.2115	79.1016	84.4383	79.1016	84.2546	79.1016	84.5062	79.1016	84.3064	79.1016	84.5747	79.1016	84.3664	79.1016	84.6417	79.1016	84.4337	79.1016	84.7055	79.1016	84.5067	79.1016	84.7645	79.1016	84.5831	79.1016	84.8174	79.1016	84.6599	79.1016	84.8629	79.1016	84.7337	79.1016	84.8999	79.1016	84.8007	79.1016	84.9267	79.1016	84.8573	79.1016	84.9417	79.1016	84.9009	79.1016	84.9431	79.1016	84.9297
82.0312	84.0807	82.0312	84.0689	82.0312	84.1035	82.0312	84.0676	82.0312	84.1374	82.0312	84.076	82.0312	84.182	82.0312	84.0933	82.0312	84.2362	82.0312	84.1186	82.0312	84.2984	82.0312	84.1513	82.0312	84.3666	82.0312	84.1908	82.0312	84.438	82.0312	84.2367	82.0312	84.5098	82.0312	84.2888	82.0312	84.5794	82.0312	84.3465	82.0312	84.644	82.0312	84.409	82.0312	84.7015	82.0312	84.4749	82.0312	84.7503	82.0312	84.5423	82.0312	84.789	82.0312	84.6085	82.0312	84.8168	82.0312	84.6707	82.0312	84.8329	82.0312	84.7259	82.0312	84.8368	82.0312	84.7717	82.0312	84.8279	82.0312	84.806
84.9609	84.0346	84.9609	84.0301	84.9609	84.0523	84.9609	84.0375	84.9609	84.0842	84.9609	84.055	84.9609	84.1303	84.9609	84.0806	84.9609	84.1894	84.9609	84.1127	84.9609	84.2597	84.9609	84.1497	84.9609	84.338	84.9609	84.1906	84.9609	84.4208	84.9609	84.2348	84.9609	84.5039	84.9609	84.2823	84.9609	84.5832	84.9609	84.3328	84.9609	84.6549	84.9609	84.3865	84.9609	84.7159	84.9609	84.4429	84.9609	84.764	84.9609	84.5014	84.9609	84.7981	84.9609	84.5604	84.9609	84.8178	84.9609	84.6184	84.9609	84.8233	84.9609	84.673	84.9609	84.8153	84.9609	84.722	84.9609	84.7948	84.9609	84.7632
87.8906	84.1625	87.8906	84.1534	87.8906	84.1812	87.8906	84.1521	87.8906	84.2104	87.8906	84.1567	87.8906	84.2505	87.8906	84.1651	87.8906	84.3005	87.8906	84.1758	87.8906	84.3586	87.8906	84.1875	87.8906	84.4219	87.8906	84.1998	87.8906	84.4868	87.8906	84.213	87.8906	84.5493	87.8906	84.2278	87.8906	84.6056	87.8906	84.2454	87.8906	84.652	87.8906	84.267	87.8906	84.6859	87.8906	84.2939	87.8906	84.7054	87.8906	84.3267	87.8906	84.7101	87.8906	84.3654	87.8906	84.7004	87.8906	84.4094	87.8906	84.6779	87.8906	84.4573	87.8906	84.6448	87.8906	84.5071	87.8906	84.6035	87.8906	84.5567
90.8203	84.1618	90.8203	84.1494	90.8203	84.1806	90.8203	84.1418	90.8203	84.2068	90.8203	84.1375	90.8203	84.2411	90.8203	84.135	90.8203	84.2833	90.8203	84.1334	90.8203	84.3321	90.8203	84.1319	90.8203	84.3853	90.8203	84.1306	90.8203	84.4398	90.8203	84.1298	90.8203	84.4917	90.8203	84.1305	90.8203	84.5371	90.8203	84.1341	90.8203	84.572	90.8203	84.1419	90.8203	84.5934	90.8203	84.1553	90.8203	84.5996	90.8203	84.1756	90.8203	84.5901	90.8203	84.2033	90.8203	84.5661	90.8203	84.2387	90.8203	84.5297	90.8203	84.281	90.8203	84.4844	90.8203	84.3289	90.8203	84.4335	90.8203	84.3806
95.2148	84.0234	95.2148	84.0105	95.2148	84.0498	95.2148	84.0094	95.2148	84.0904	95.2148	84.0182	95.2148	84.1449	95.2148	84.0344	95.2148	84.2118	95.2148	84.0557	95.2148	84.2884	95.2148	84.08	95.2148	84.3708	95.2148	84.1055	95.2148	84.4543	95.2148	84.1314	95.2148	84.5338	95.2148	84.1571	95.2148	84.6041	95.2148	84.1831	95.2148	84.6606	95.2148	84.2102	95.2148	84.6999	95.2148	84.2398	95.2148	84.7198	95.2148	84.2732	95.2148	84.7202	95.2148	84.3115	95.2148	84.7024	95.2148	84.3555	95.2148	84.6692	95.2148	84.4048	95.2148	84.6241	95.2148	84.4587	95.2148	84.5715	95.2148	84.5152
98.1445	83.9629	98.1445	83.9581	98.1445	83.9821	98.1445	83.9655	98.1445	84.0168	98.1445	83.9827	98.1445	84.0669	98.1445	84.0066	98.1445	84.1314	98.1445	84.0344	98.1445	84.2079	98.1445	84.0635	98.1445	84.2925	98.1445	84.0917	98.1445	84.3806	98.1445	84.1179	98.1445	84.4666	98.1445	84.1417	98.1445	84.5448	98.1445	84.1638	98.1445	84.6098	98.1445	84.1859	98.1445	84.6573	98.1445	84.2099	98.1445	84.6843	98.1445	84.2381	98.1445	84.6898	98.1445	84.2725	98.1445	84.6748	98.1445	84.3143	98.1445	84.6419	98.1445	84.3637	98.1445	84.5951	98.1445	84.4195	98.1445	84.5393	98.1445	84.4792
101.074	84.0253	101.074	84.0327	101.074	84.0329	101.074	84.0519	101.074	84.0578	101.074	84.079	101.074	84.1008	101.074	84.11	101.074	84.1611	101.074	84.1409	101.074	84.2363	101.074	84.1687	101.074	84.3225	101.074	84.191	101.074	84.4142	101.074	84.2071	101.074	84.5051	101.074	84.2173	101.074	84.5884	101.074	84.2234	101.074	84.6578	101.074	84.2283	101.074	84.7077	101.074	84.2357	101.074	84.7347	101.074	84.2492	101.074	84.7371	101.074	84.2723	101.074	84.7159	101.074	84.3073	101.074	84.6741	101.074	84.3547	101.074	84.6167	101.074	84.4133	101.074	84.5498	101.074	84.48
105.469	84.1677	105.469	84.1689	105.469	84.1758	105.469	84.1766	105.469	84.195	105.469	84.1876	105.469	84.2259	105.469	84.1982	105.469	84.2677	105.469	84.2053	105.469	84.3184	105.469	84.2062	105.469	84.3746	105.469	84.1992	105.469	84.4317	105.469	84.184	105.469	84.4849	105.469	84.1612	105.469	84.5285	105.469	84.1334	105.469	84.5577	105.469	84.1038	105.469	84.5684	105.469	84.0768	105.469	84.5581	105.469	84.0572	105.469	84.5266	105.469	84.0497	105.469	84.4758	105.469	84.0579	105.469	84.4101	105.469	84.0839	105.469	84.3354	105.469	84.1279	105.469	84.2589	105.469	84.1877
108.398	84.2144	108.398	84.2195	108.398	84.2174	108.398	84.2298	108.398	84.2305	108.398	84.2418	108.398	84.2549	108.398	84.2519	108.398	84.2901	108.398	84.2568	108.398	84.3347	108.398	84.2541	108.398	84.3855	108.398	84.2422	108.398	84.4385	108.398	84.2209	108.398	84.4885	108.398	84.1913	108.398	84.5301	108.398	84.1559	108.398	84.5578	108.398	84.1187	108.398	84.5673	108.398	84.0844	108.398	84.5557	108.398	84.058	108.398	84.5225	108.398	84.0447	108.398	84.4696	108.398	84.0483	108.398	84.4015	108.398	84.0713	108.398	84.3245	108.398	84.1138	108.398	84.246	108.398	84.1736
112.793	84.3863	112.793	84.3853	112.793	84.3935	112.793	84.3878	112.793	84.4091	112.793	84.3905	112.793	84.4344	112.793	84.3904	112.793	84.4695	112.793	84.3845	112.793	84.5132	112.793	84.3707	112.793	84.5629	112.793	84.3477	112.793	84.6146	112.793	84.3157	112.793	84.6632	112.793	84.276	112.793	84.7028	112.793	84.2316	112.793	84.7277	112.793	84.1865	112.793	84.7328	112.793	84.146	112.793	84.715	112.793	84.1159	112.793	84.6733	112.793	84.1014	112.793	84.6096	112.793	84.1073	112.793	84.5288	112.793	84.1359	112.793	84.4377	112.793	84.1874	112.793	84.3449	112.793	84.259
117.188	84.497	117.188	84.4988	117.188	84.4998	117.188	84.5021	117.188	84.5097	117.188	84.5038	117.188	84.5283	117.188	84.5007	117.188	84.5565	117.188	84.4902	117.188	84.5935	117.188	84.4702	117.188	84.6371	117.188	84.4398	117.188	84.6837	117.188	84.3993	117.188	84.7282	117.188	84.3505	117.188	84.7646	117.188	84.2964	117.188	84.7867	117.188	84.2417	117.188	84.7892	117.188	84.1921	117.188	84.7682	117.188	84.1537	117.188	84.7228	117.188	84.1325	117.188	84.6546	117.188	84.1336	117.188	84.5686	117.188	84.1597	117.188	84.4722	117.188	84.2111	117.188	84.3745	117.188	84.2847
120.117	84.5548	120.117	84.559	120.117	84.5562	120.117	84.5659	120.117	84.5659	120.117	84.572	120.117	84.5858	120.117	84.5743	120.117	84.6166	120.117	84.5699	120.117	84.6578	120.117	84.5568	120.117	84.707	120.117	84.5339	120.117	84.7605	120.117	84.5011	120.117	84.8127	120.117	84.4599	120.117	84.8574	120.117	84.4132	120.117	84.8879	120.117	84.3652	120.117	84.8984	120.117	84.3212	120.117	84.8849	120.117	84.2873	120.117	84.8458	120.117	84.2694	120.117	84.783	120.117	84.2725	120.117	84.7012	120.117	84.2997	120.117	84.608	120.117	84.3512	120.117	84.5125	120.117	84.4241
124.512	84.7382	124.512	84.7378	124.512	84.7456	124.512	84.7416	124.512	84.7625	124.512	84.7462	124.512	84.7905	124.512	84.7482	124.512	84.8298	124.512	84.7446	124.512	84.8795	124.512	84.7329	124.512	84.937	124.512	84.7116	124.512	84.9979	124.512	84.6804	124.512	85.0565	124.512	84.6405	124.512	85.1061	124.512	84.5947	124.512	85.1397	124.512	84.5474	124.512	85.1514	124.512	84.5042	124.512	85.1369	124.512	84.4715	124.512	85.0947	124.512	84.456	124.512	85.0266	124.512	84.4628	124.512	84.9379	124.512	84.4953	124.512	84.8365	124.512	84.5537	124.512	84.7321	124.512	84.6348
128.906	84.9506	128.906	84.9488	128.906	84.9594	128.906	84.9511	128.906	84.9774	128.906	84.954	128.906	85.0061	128.906	84.954	128.906	85.0454	128.906	84.9479	128.906	85.0944	128.906	84.9328	128.906	85.1502	128.906	84.9072	128.906	85.2085	128.906	84.8706	128.906	85.2636	128.906	84.8241	128.906	85.3087	128.906	84.7708	128.906	85.3371	128.906	84.7154	128.906	85.3426	128.906	84.664	128.906	85.3212	128.906	84.6237	128.906	85.2715	128.906	84.6017	128.906	85.1956	128.906	84.604	128.906	85.0989	128.906	84.6343	128.906	84.9899	128.906	84.693	128.906	84.879	128.906	84.7768
133.301	85.1526	133.301	85.1477	133.301	85.1642	133.301	85.1467	133.301	85.1845	133.301	85.1464	133.301	85.2146	133.301	85.1433	133.301	85.2548	133.301	85.134	133.301	85.3037	133.301	85.1157	133.301	85.3589	133.301	85.0868	133.301	85.4163	133.301	85.0466	133.301	85.4701	133.301	84.9966	133.301	85.5137	133.301	84.9397	133.301	85.5403	133.301	84.8808	133.301	85.5435	133.301	84.8264	133.301	85.519	133.301	84.7839	133.301	85.4654	133.301	84.7606	133.301	85.3847	133.301	84.7628	133.301	85.2826	133.301	84.7945	133.301	85.1679	133.301	84.856	133.301	85.0513	133.301	84.944
139.16	85.3347	139.16	85.3235	139.16	85.3503	139.16	85.3143	139.16	85.3721	139.16	85.3043	139.16	85.4017	139.16	85.2907	139.16	85.4395	139.16	85.2706	139.16	85.4852	139.16	85.2419	139.16	85.5366	139.16	85.203	139.16	85.5901	139.16	85.1539	139.16	85.6403	139.16	85.096	139.16	85.6805	139.16	85.0325	139.16	85.7033	139.16	84.9684	139.16	85.7023	139.16	84.9105	139.16	85.6727	139.16	84.8662	139.16	85.6128	139.16	84.8432	139.16	85.5247	139.16	84.8479	139.16	85.4141	139.16	84.884	139.16	85.2901	139.16	84.9519	139.16	85.1641	139.16	85.0479
143.555	85.4433	143.555	85.4309	143.555	85.4596	143.555	85.4199	143.555	85.482	143.555	85.4077	143.555	85.5119	143.555	85.3914	143.555	85.5499	143.555	85.368	143.555	85.5958	143.555	85.3354	143.555	85.6474	143.555	85.2921	143.555	85.7012	143.555	85.238	143.555	85.7515	143.555	85.1747	143.555	85.7913	143.555	85.1055	143.555	85.8132	143.555	85.036	143.555	85.8102	143.555	84.9731	143.555	85.7773	143.555	84.9249	143.555	85.7129	143.555	84.8994	143.555	85.6188	143.555	84.9034	143.555	85.5014	143.555	84.941	143.555	85.37	143.555	85.0124	143.555	85.2366	143.555	85.1137
147.949	85.5168	147.949	85.5006	147.949	85.5358	147.949	85.4849	147.949	85.5595	147.949	85.467	147.949	85.5894	147.949	85.4443	147.949	85.6262	147.949	85.4141	147.949	85.6698	147.949	85.3742	147.949	85.7186	147.949	85.3234	147.949	85.7691	147.949	85.2618	147.949	85.8161	147.949	85.1912	147.949	85.8527	147.949	85.1154	147.949	85.8713	147.949	85.0402	147.949	85.8648	147.949	84.9728	147.949	85.8279	147.949	84.9217	147.949	85.7586	147.949	84.8951	147.949	85.6588	147.949	84.9001	147.949	85.5346	147.949	84.9408	147.949	85.3958	147.949	85.0171	147.949	85.2548	147.949	85.1247
153.809	85.5813	153.809	85.563	153.809	85.6012	153.809	85.5443	153.809	85.6245	153.809	85.5226	153.809	85.6527	153.809	85.4957	153.809	85.687	153.809	85.461	153.809	85.7274	153.809	85.4165	153.809	85.7729	153.809	85.3611	153.809	85.8204	153.809	85.2949	153.809	85.8649	153.809	85.2198	153.809	85.8996	153.809	85.1396	153.809	85.9168	153.809	85.0603	153.809	85.9091	153.809	84.9894	153.809	85.8708	153.809	84.9358	153.809	85.7996	153.809	84.9081	153.809	85.6972	153.809	84.9133	153.809	85.5696	153.809	84.9556	153.809	85.4268	153.809	85.035	153.809	85.2813	153.809	85.1466
159.668	85.6263	159.668	85.6101	159.668	85.6438	159.668	85.5934	159.668	85.6645	159.668	85.5737	159.668	85.69	159.668	85.5488	159.668	85.7217	159.668	85.5163	159.668	85.7603	159.668	85.4738	159.668	85.805	159.668	85.42	159.668	85.8534	159.668	85.3549	159.668	85.9005	159.668	85.2803	159.668	85.9394	159.668	85.1999	159.668	85.9618	159.668	85.1198	159.668	85.9598	159.668	85.0481	159.668	85.927	159.668	84.9938	159.668	85.8605	159.668	84.9661	159.668	85.7615	159.668	84.9721	159.668	85.6359	159.668	85.016	159.668	85.4937	159.668	85.0975	159.668	85.3476	159.668	85.2113
165.527	85.6659	165.527	85.6493	165.527	85.683	165.527	85.6315	165.527	85.7021	165.527	85.6108	165.527	85.7248	165.527	85.585	165.527	85.7527	165.527	85.5522	165.527	85.7868	165.527	85.5101	165.527	85.8269	165.527	85.4573	165.527	85.8708	165.527	85.3937	165.527	85.914	165.527	85.3206	165.527	85.9497	165.527	85.2415	165.527	85.9696	165.527	85.1622	165.527	85.9657	165.527	85.0901	165.527	85.9316	165.527	85.0343	165.527	85.8644	165.527	85.0035	165.527	85.7654	165.527	85.0051	165.527	85.6409	165.527	85.0437	165.527	85.501	165.527	85.1192	165.527	85.3586	165.527	85.2272
171.387	85.7828	171.387	85.7572	171.387	85.8057	171.387	85.728	171.387	85.8266	171.387	85.6937	171.387	85.8464	171.387	85.6527	171.387	85.8658	171.387	85.6031	171.387	85.8859	171.387	85.5427	171.387	85.9067	171.387	85.4705	171.387	85.927	171.387	85.3864	171.387	85.9438	171.387	85.2922	171.387	85.9519	171.387	85.1919	171.387	85.9443	171.387	85.0918	171.387	85.9143	171.387	85.0003	171.387	85.8565	171.387	84.9269	171.387	85.7685	171.387	84.8813	171.387	85.652	171.387	84.8713	171.387	85.5136	171.387	84.9016	171.387	85.3633	171.387	84.9727	171.387	85.2143	171.387	85.08
177.246	85.7738	177.246	85.7426	177.246	85.8007	177.246	85.7064	177.246	85.824	177.246	85.6645	177.246	85.8452	177.246	85.6158	177.246	85.8657	177.246	85.5588	177.246	85.8873	177.246	85.4924	177.246	85.9107	177.246	85.4158	177.246	85.9349	177.246	85.3291	177.246	85.9564	177.246	85.2344	177.246	85.969	177.246	85.1354	177.246	85.9649	177.246	85.0382	177.246	85.9364	177.246	84.9506	177.246	85.8774	177.246	84.8818	177.246	85.7857	177.246	84.8411	177.246	85.6635	177.246	84.8361	177.246	85.5179	177.246	84.8718	177.246	85.36	177.246	84.9485	177.246	85.2034	177.246	85.0621
183.105	85.7185	183.105	85.69	183.105	85.7398	183.105	85.6534	183.105	85.7557	183.105	85.6077	183.105	85.7689	183.105	85.5524	183.105	85.7827	183.105	85.4867	183.105	85.8005	183.105	85.4098	183.105	85.8244	183.105	85.3217	183.105	85.8541	183.105	85.2235	183.105	85.8854	183.105	85.1179	183.105	85.9109	183.105	85.0098	183.105	85.9206	183.105	84.9063	183.105	85.9046	183.105	84.8161	183.105	85.8548	183.105	84.749	183.105	85.7673	183.105	84.7145	183.105	85.6439	183.105	84.7202	183.105	85.4917	183.105	84.7698	183.105	85.3226	183.105	84.8628	183.105	85.1514	183.105	84.9935
188.965	85.6629	188.965	85.6407	188.965	85.6768	188.965	85.6092	188.965	85.684	188.965	85.5675	188.965	85.6871	188.965	85.5148	188.965	85.6899	188.965	85.45	188.965	85.6962	188.965	85.3723	188.965	85.7094	188.965	85.2817	188.965	85.7303	188.965	85.1793	188.965	85.7566	188.965	85.0684	188.965	85.7818	188.965	84.9544	188.965	85.7962	188.965	84.8453	188.965	85.7891	188.965	84.751	188.965	85.7515	188.965	84.6819	188.965	85.6777	188.965	84.6479	188.965	85.5676	188.965	84.6564	188.965	85.4268	188.965	84.7104	188.965	85.2658	188.965	84.8077	188.965	85.0988	188.965	84.9411
196.289	85.7608	196.289	85.7282	196.289	85.7823	196.289	85.6848	196.289	85.7932	196.289	85.6312	196.289	85.7953	196.289	85.5676	196.289	85.7918	196.289	85.4941	196.289	85.787	196.289	85.4103	196.289	85.785	196.289	85.3162	196.289	85.7879	196.289	85.2128	196.289	85.7947	196.289	85.1023	196.289	85.8004	196.289	84.9893	196.289	85.7966	196.289	84.8803	196.289	85.7735	196.289	84.7841	196.289	85.7225	196.289	84.7103	196.289	85.6389	196.289	84.6685	196.289	85.5229	196.289	84.6664	196.289	85.3803	196.289	84.7079	196.289	85.2218	196.289	84.7922	196.289	85.0612	196.289	84.9135
203.613	85.7592	203.613	85.7225	203.613	85.7777	203.613	85.6684	203.613	85.7784	203.613	85.5989	203.613	85.7635	203.613	85.5156	203.613	85.7379	203.613	85.4204	203.613	85.7076	203.613	85.3146	203.613	85.6794	203.613	85.2	203.613	85.6579	203.613	85.0787	203.613	85.6445	203.613	84.9542	203.613	85.6352	203.613	84.8316	203.613	85.6222	203.613	84.7176	203.613	85.5951	203.613	84.6206	203.613	85.5445	203.613	84.5494	203.613	85.4644	203.613	84.5123	203.613	85.3539	203.613	84.5154	203.613	85.2178	203.613	84.5609	203.613	85.066	203.613	84.647	203.613	84.9111	203.613	84.7671
210.938	85.7389	210.938	85.7116	210.938	85.7497	210.938	85.6682	210.938	85.7443	210.938	85.6099	210.938	85.7251	210.938	85.5378	210.938	85.6967	210.938	85.4526	210.938	85.6654	210.938	85.355	210.938	85.638	210.938	85.2458	210.938	85.6195	210.938	85.1269	210.938	85.6113	210.938	85.0014	210.938	85.6095	210.938	84.8747	210.938	85.6055	210.938	84.7541	210.938	85.5883	210.938	84.6488	210.938	85.5471	210.938	84.569	210.938	85.4747	210.938	84.5244	210.938	85.3694	210.938	84.5222	210.938	85.2354	210.938	84.5657	210.938	85.0825	210.938	84.6528	210.938	84.9244	210.938	84.7763
218.262	85.6189	218.262	85.5831	218.262	85.6389	218.262	85.5335	218.262	85.6424	218.262	85.4724	218.262	85.631	218.262	85.4016	218.262	85.609	218.262	85.3224	218.262	85.5833	218.262	85.2355	218.262	85.5614	218.262	85.1417	218.262	85.5496	218.262	85.0426	218.262	85.5506	218.262	84.9414	218.262	85.5617	218.262	84.8435	218.262	85.5751	218.262	84.7561	218.262	85.58	218.262	84.6874	218.262	85.5657	218.262	84.646	218.262	85.524	218.262	84.6385	218.262	85.4518	218.262	84.6685	218.262	85.3508	218.262	84.7355	218.262	85.2277	218.262	84.8346	218.262	85.0926	218.262	84.9574
225.586	85.7275	225.586	85.6798	225.586	85.7527	225.586	85.6131	225.586	85.7539	225.586	85.5316	225.586	85.7322	225.586	85.439	225.586	85.6923	225.586	85.3383	225.586	85.6419	225.586	85.2316	225.586	85.5907	225.586	85.1207	225.586	85.5474	225.586	85.0075	225.586	85.5173	225.586	84.8951	225.586	85.4998	225.586	84.7886	225.586	85.489	225.586	84.6949	225.586	85.4751	225.586	84.6222	225.586	85.4482	225.586	84.5785	225.586	85.4007	225.586	84.57	225.586	85.329	225.586	84.5993	225.586	85.2343	225.586	84.6644	225.586	85.1214	225.586	84.7589	225.586	84.998	225.586	84.8736
232.91	85.7713	232.91	85.7236	232.91	85.7899	232.91	85.6505	232.91	85.7779	232.91	85.5568	232.91	85.7371	232.91	85.4473	232.91	85.6733	232.91	85.3265	232.91	85.5958	232.91	85.198	232.91	85.5162	232.91	85.0648	232.91	85.4452	232.91	84.9301	232.91	85.3898	232.91	84.7976	232.91	85.3505	232.91	84.6727	232.91	85.3216	232.91	84.5624	232.91	85.2929	232.91	84.4746	232.91	85.2538	232.91	84.4173	232.91	85.1961	232.91	84.3965	232.91	85.1167	232.91	84.4145	232.91	85.0171	232.91	84.4691	232.91	84.9026	232.91	84.5545	232.91	84.7811	232.91	84.6617
241.699	85.7033	241.699	85.641	241.699	85.7361	241.699	85.5536	241.699	85.7375	241.699	85.4465	241.699	85.7092	241.699	85.3257	241.699	85.6568	241.699	85.1964	241.699	85.5893	241.699	85.063	241.699	85.5173	241.699	84.9286	241.699	85.4503	241.699	84.7963	241.699	85.3934	241.699	84.669	241.699	85.3456	241.699	84.5506	241.699	85.3002	241.699	84.4464	241.699	85.2479	241.699	84.3627	241.699	85.1804	241.699	84.3061	241.699	85.0933	241.699	84.2817	241.699	84.9876	241.699	84.292	241.699	84.8684	241.699	84.336	241.699	84.7433	241.699	84.4095	241.699	84.6201	241.699	84.5065
250.488	85.9222	250.488	85.8226	250.488	85.9814	250.488	85.689	250.488	85.997	250.488	85.5292	250.488	85.9695	250.488	85.3515	250.488	85.9047	250.488	85.1638	250.488	85.8132	250.488	84.9729	250.488	85.7089	250.488	84.7849	250.488	85.6064	250.488	84.605	250.488	85.5159	250.488	84.4384	250.488	85.4402	250.488	84.2912	250.488	85.3737	250.488	84.1701	250.488	85.3054	250.488	84.0825	250.488	85.2233	250.488	84.0347	250.488	85.1195	250.488	84.0303	250.488	84.9924	250.488	84.0688	250.488	84.8468	250.488	84.1459	250.488	84.6912	250.488	84.2546	250.488	84.535	250.488	84.3869
259.277	86.0885	259.277	85.9977	259.277	86.1345	259.277	85.8673	259.277	86.1341	259.277	85.7046	259.277	86.0898	259.277	85.5188	259.277	86.0093	259.277	85.3194	259.277	85.905	259.277	85.1163	259.277	85.7918	259.277	84.9183	259.277	85.6848	259.277	84.7331	259.277	85.5941	259.277	84.5668	259.277	85.5221	259.277	84.4245	259.277	85.4628	259.277	84.3105	259.277	85.4041	259.277	84.229	259.277	85.3329	259.277	84.184	259.277	85.2395	259.277	84.1782	259.277	85.1207	259.277	84.2124	259.277	84.98	259.277	84.2843	259.277	84.8257	259.277	84.3891	259.277	84.6688	259.277	84.52
268.066	86.1183	268.066	86.0233	268.066	86.1646	268.066	85.8843	268.066	86.1609	268.066	85.708	268.066	86.1105	268.066	85.5025	268.066	86.022	268.066	85.2766	268.066	85.9098	268.066	85.0402	268.066	85.7917	268.066	84.804	268.066	85.6853	268.066	84.5796	268.066	85.6029	268.066	84.3788	268.066	85.5471	268.066	84.2132	268.066	85.5099	268.066	84.0927	268.066	85.4759	268.066	84.0245	268.066	85.4284	268.066	84.012	268.066	85.3543	268.066	84.0535	268.066	85.248	268.066	84.1431	268.066	85.1111	268.066	84.2712	268.066	84.9508	268.066	84.4266	268.066	84.7765	268.066	84.5985
276.855	86.3991	276.855	86.3106	276.855	86.441	276.855	86.1797	276.855	86.4344	276.855	86.0123	276.855	86.381	276.855	85.8146	276.855	86.2873	276.855	85.5933	276.855	86.1655	276.855	85.355	276.855	86.032	276.855	85.1067	276.855	85.9044	276.855	84.8567	276.855	85.7965	276.855	84.6154	276.855	85.7134	276.855	84.3958	276.855	85.65	276.855	84.2134	276.855	85.5932	276.855	84.0835	276.855	85.5267	276.855	84.0181	276.855	85.4368	276.855	84.0227	276.855	85.3159	276.855	84.0942	276.855	85.163	276.855	84.222	276.855	84.9834	276.855	84.3909	276.855	84.7864	276.855	84.5843
287.109	86.1332	287.109	86.0559	287.109	86.1613	287.109	85.9353	287.109	86.1382	287.109	85.7802	287.109	86.0676	287.109	85.6004	287.109	85.9595	287.109	85.406	287.109	85.8301	287.109	85.2064	287.109	85.6994	287.109	85.0097	287.109	85.5873	287.109	84.8234	287.109	85.5082	287.109	84.6542	287.109	85.4665	287.109	84.5093	287.109	85.4558	287.109	84.3976	287.109	85.4616	287.109	84.3288	287.109	85.4663	287.109	84.312	287.109	85.4543	287.109	84.352	287.109	85.4141	287.109	84.4462	287.109	85.3393	287.109	84.5843	287.109	85.2291	287.109	84.7494	287.109	85.0874	287.109	84.9229
297.363	86.6974	297.363	86.6029	297.363	86.7298	297.363	86.4562	297.363	86.6925	297.363	86.2681	297.363	86.5824	297.363	86.0491	297.363	86.4039	297.363	85.8093	297.363	86.1713	297.363	85.5587	297.363	85.9092	297.363	85.3072	297.363	85.6501	297.363	85.0655	297.363	85.427	297.363	84.8458	297.363	85.2647	297.363	84.6615	297.363	85.1722	297.363	84.5264	297.363	85.1417	297.363	84.4521	297.363	85.1539	297.363	84.4446	297.363	85.1853	297.363	84.501	297.363	85.2138	297.363	84.609	297.363	85.2218	297.363	84.7484	297.363	85.1967	297.363	84.8956	297.363	85.1322	297.363	85.029
307.617	86.8808	307.617	86.7593	307.617	86.9376	307.617	86.5832	307.617	86.9229	307.617	86.3633	307.617	86.8347	307.617	86.1109	307.617	86.6782	307.617	85.837	307.617	86.467	307.617	85.553	307.617	86.2222	307.617	85.27	307.617	85.9684	307.617	84.9992	307.617	85.7276	307.617	84.7514	307.617	85.5138	307.617	84.5378	307.617	85.3305	307.617	84.3692	307.617	85.1743	307.617	84.256	307.617	85.0399	307.617	84.2047	307.617	84.9255	307.617	84.2148	307.617	84.8316	307.617	84.2754	307.617	84.757	307.617	84.3671	307.617	84.6947	307.617	84.4672	307.617	84.6324	307.617	84.558
319.336	86.811	319.336	86.671	319.336	86.8721	319.336	86.4596	319.336	86.8524	319.336	86.19	319.336	86.7562	319.336	85.8804	319.336	86.5954	319.336	85.5529	319.336	86.3887	319.336	85.2325	319.336	86.1606	319.336	84.9426	319.336	85.9378	319.336	84.7018	319.336	85.7445	319.336	84.5205	319.336	85.5962	319.336	84.4007	319.336	85.4959	319.336	84.3388	319.336	85.4347	319.336	84.3291	319.336	85.3957	319.336	84.3657	319.336	85.361	319.336	84.4423	319.336	85.3169	319.336	84.5505	319.336	85.2552	319.336	84.6794	319.336	85.1729	319.336	84.8163	319.336	85.0701	319.336	84.9495
329.59	86.9069	329.59	86.7667	329.59	86.9798	329.59	86.5667	329.59	86.9799	329.59	86.3152	329.59	86.9058	329.59	86.0208	329.59	86.7613	329.59	85.6932	329.59	86.557	329.59	85.3441	329.59	86.3097	329.59	84.9893	329.59	86.0398	329.59	84.6498	329.59	85.7682	329.59	84.3502	329.59	85.5126	329.59	84.1159	329.59	85.286	329.59	83.9675	329.59	85.0978	329.59	83.9149	329.59	84.9542	329.59	83.9535	329.59	84.8578	329.59	84.0647	329.59	84.8039	329.59	84.2196	329.59	84.7781	329.59	84.3862	329.59	84.7585	329.59	84.5359	329.59	84.7217	329.59	84.6499
341.309	87.0855	341.309	86.9067	341.309	87.1783	341.309	86.6492	341.309	87.1823	341.309	86.3247	341.309	87.1015	341.309	85.9486	341.309	86.9479	341.309	85.5403	341.309	86.7417	341.309	85.1229	341.309	86.5086	341.309	84.7213	341.309	86.2739	341.309	84.3609	341.309	86.0556	341.309	84.0647	341.309	85.8603	341.309	83.852	341.309	85.6848	341.309	83.736	341.309	85.5229	341.309	83.7216	341.309	85.3722	341.309	83.8025	341.309	85.2364	341.309	83.9591	341.309	85.1213	341.309	84.1615	341.309	85.0271	341.309	84.3754	341.309	84.9433	341.309	84.5711	341.309	84.8509	341.309	84.7306
353.027	87.2462	353.027	87.0834	353.027	87.3194	353.027	86.8375	353.027	87.3009	353.027	86.517	353.027	87.1961	353.027	86.1307	353.027	87.02	353.027	85.6873	353.027	86.7973	353.027	85.1966	353.027	86.5581	353.027	84.6708	353.027	86.33	353.027	84.1282	353.027	86.1278	353.027	83.5971	353.027	85.9478	353.027	83.1198	353.027	85.7712	353.027	82.7501	353.027	85.5749	353.027	82.54	353.027	85.345	353.027	82.5159	353.027	85.0836	353.027	82.6605	353.027	84.8074	353.027	82.9188	353.027	84.5375	353.027	83.2243	353.027	84.2853	353.027	83.5254	353.027	84.0452	353.027	83.7981
366.211	87.4165	366.211	87.2978	366.211	87.4322	366.211	87.0841	366.211	87.3429	366.211	86.7892	366.211	87.1545	366.211	86.4316	366.211	86.8828	366.211	86.0338	366.211	86.5554	366.211	85.62	366.211	86.2115	366.211	85.2122	366.211	85.8972	366.211	84.8265	366.211	85.6532	366.211	84.4718	366.211	85.4987	366.211	84.1536	366.211	85.4239	366.211	83.881	366.211	85.3957	366.211	83.672	366.211	85.3749	366.211	83.552	366.211	85.3299	366.211	83.5431	366.211	85.2418	366.211	83.65	366.211	85.1025	366.211	83.8538	366.211	84.9117	366.211	84.1179	366.211	84.6743	366.211	84.4024
379.395	87.4079	379.395	87.2765	379.395	87.4569	379.395	87.0692	379.395	87.4177	379.395	86.792	379.395	87.2876	379.395	86.451	379.395	87.0699	379.395	86.0539	379.395	86.7769	379.395	85.6139	379.395	86.4317	379.395	85.1519	379.395	86.066	379.395	84.6972	379.395	85.7139	379.395	84.2848	379.395	85.4035	379.395	83.9496	379.395	85.1523	379.395	83.7195	379.395	84.9676	379.395	83.6109	379.395	84.8499	379.395	83.625	379.395	84.7927	379.395	83.7464	379.395	84.7797	379.395	83.944	379.395	84.783	379.395	84.1766	379.395	84.7689	379.395	84.4018	379.395	84.7083	379.395	84.5855
392.578	87.2488	392.578	87.0965	392.578	87.308	392.578	86.8641	392.578	87.2642	392.578	86.5662	392.578	87.1135	392.578	86.2175	392.578	86.8629	392.578	85.8312	392.578	86.5342	392.578	85.4193	392.578	86.1644	392.578	84.9934	392.578	85.7995	392.578	84.5666	392.578	85.4802	392.578	84.1572	392.578	85.2271	392.578	83.7911	392.578	85.0363	392.578	83.5024	392.578	84.8893	392.578	83.3287	392.578	84.7697	392.578	83.2963	392.578	84.673	392.578	83.4039	392.578	84.6021	392.578	83.6158	392.578	84.554	392.578	83.8737	392.578	84.5097	392.578	84.1193	392.578	84.4385	392.578	84.3122
405.762	87.2957	405.762	87.1908	405.762	87.2935	405.762	86.9892	405.762	87.1789	405.762	86.7041	405.762	86.9568	405.762	86.3504	405.762	86.6474	405.762	85.9449	405.762	86.2883	405.762	85.5055	405.762	85.9298	405.762	85.0511	405.762	85.6209	405.762	84.5998	405.762	85.3916	405.762	84.1706	405.762	85.2418	405.762	83.7853	405.762	85.1455	405.762	83.4716	405.762	85.0686	405.762	83.2624	405.762	84.9871	405.762	83.1864	405.762	84.8949	405.762	83.253	405.762	84.7966	405.762	83.4408	405.762	84.6946	405.762	83.7019	405.762	84.5786	405.762	83.9801	405.762	84.4294	405.762	84.2302
420.41	86.9089	420.41	86.8618	420.41	86.8644	420.41	86.7372	420.41	86.7218	420.41	86.5514	420.41	86.4868	420.41	86.319	420.41	86.18	420.41	86.0507	420.41	85.8357	420.41	85.7524	420.41	85.4954	420.41	85.4263	420.41	85.1977	420.41	85.0735	420.41	84.9653	420.41	84.699	420.41	84.7982	420.41	84.3173	420.41	84.6787	420.41	83.9587	420.41	84.5867	420.41	83.6688	420.41	84.5135	420.41	83.4984	420.41	84.4632	420.41	83.4797	420.41	84.4411	420.41	83.6037	420.41	84.4385	420.41	83.819	420.41	84.428	420.41	84.0546	420.41	84.374	420.41	84.25
435.059	86.372	435.059	86.1682	435.059	86.4778	435.059	85.8968	435.059	86.4642	435.059	85.5936	435.059	86.323	435.059	85.2935	435.059	86.0634	435.059	85.0248	435.059	85.7162	435.059	84.8041	435.059	85.3344	435.059	84.6331	435.059	84.9834	435.059	84.5017	435.059	84.7177	435.059	84.3938	435.059	84.5555	435.059	84.2958	435.059	84.476	435.059	84.2036	435.059	84.4423	435.059	84.1254	435.059	84.4288	435.059	84.0791	435.059	84.43	435.059	84.0829	435.059	84.4485	435.059	84.1431	435.059	84.4792	435.059	84.2451	435.059	84.5037	435.059	84.3582	435.059	84.499	435.059	84.4498
451.172	87.3504	451.172	87.0132	451.172	87.5011	451.172	86.5107	451.172	87.4525	451.172	85.876	451.172	87.2006	451.172	85.1587	451.172	86.7564	451.172	84.4279	451.172	86.157	451.172	83.7664	451.172	85.4786	451.172	83.2538	451.172	84.8408	451.172	82.9414	451.172	84.3776	451.172	82.8357	451.172	84.1682	451.172	82.9022	451.172	84.1811	451.172	83.085	451.172	84.3035	451.172	83.3277	451.172	84.421	451.172	83.585	451.172	84.4714	451.172	83.8247	451.172	84.4521	451.172	84.0248	451.172	84.3986	451.172	84.1717	451.172	84.3508	451.172	84.2617	451.172	84.3244	451.172	84.3045
465.82	87.9116	465.82	87.65	465.82	87.9878	465.82	87.212	465.82	87.8702	465.82	86.6075	465.82	87.5538	465.82	85.8521	465.82	87.045	465.82	84.9757	465.82	86.3723	465.82	84.0366	465.82	85.5976	465.82	83.1347	465.82	84.8225	465.82	82.4091	465.82	84.1789	465.82	81.9957	465.82	83.7948	465.82	81.9556	465.82	83.7359	465.82	82.2435	465.82	83.968	465.82	82.7495	465.82	84.3795	465.82	83.3604	465.82	84.8427	465.82	83.9869	465.82	85.2577	465.82	84.5651	465.82	85.5648	465.82	85.052	465.82	85.7373	465.82	85.4222	465.82	85.7693	465.82	85.663
483.398	87.9688	483.398	87.8239	483.398	87.9542	483.398	87.5215	483.398	87.7786	483.398	87.061	483.398	87.4476	483.398	86.4425	483.398	86.98	483.398	85.6729	483.398	86.4108	483.398	84.7747	483.398	85.7866	483.398	83.7963	483.398	85.161	483.398	82.8246	483.398	84.5931	483.398	81.9957	483.398	84.1469	483.398	81.4816	483.398	83.882	483.398	81.4152	483.398	83.8352	483.398	81.7879	483.398	84.0006	483.398	82.4487	483.398	84.3219	483.398	83.2119	483.398	84.706	483.398	83.9391	483.398	85.0553	483.398	84.55	483.398	85.2939	483.398	85.0037	483.398	85.3762	483.398	85.2811
499.512	88.2389	499.512	88.0551	499.512	88.2764	499.512	87.73	499.512	88.1585	499.512	87.2648	499.512	87.8765	499.512	86.6611	499.512	87.4278	499.512	85.9288	499.512	86.8221	499.512	85.0932	499.512	86.0866	499.512	84.1995	499.512	85.2709	499.512	83.3137	499.512	84.4537	499.512	82.5225	499.512	83.7465	499.512	81.9384	499.512	83.281	499.512	81.691	499.512	83.1645	499.512	81.8704	499.512	83.4174	499.512	82.4434	499.512	83.9465	499.512	83.2512	499.512	84.5884	499.512	84.1035	499.512	85.1817	499.512	84.8549	499.512	85.6093	499.512	85.4166	499.512	85.8048	499.512	85.7406
517.09	87.9221	517.09	87.7467	517.09	87.9562	517.09	87.4407	517.09	87.8402	517.09	87.0138	517.09	87.5725	517.09	86.4756	517.09	87.1659	517.09	85.8391	517.09	86.6511	517.09	85.1225	517.09	86.0733	517.09	84.3491	517.09	85.4781	517.09	83.5461	517.09	84.8944	517.09	82.7508	517.09	84.3282	517.09	82.0305	517.09	83.7799	517.09	81.5039	517.09	83.2823	517.09	81.3236	517.09	82.9274	517.09	81.5775	517.09	82.8346	517.09	82.1859	517.09	83.0491	517.09	82.9411	517.09	83.4746	517.09	83.6328	517.09	83.9304	517.09	84.1186	517.09	84.2502	517.09	84.328
536.133	88.5838	536.133	88.3403	536.133	88.6038	536.133	87.8971	536.133	88.3843	536.133	87.2843	536.133	87.9248	536.133	86.5429	536.133	87.2516	536.133	85.728	536.133	86.4244	536.133	84.9013	536.133	85.5372	536.133	84.1148	536.133	84.7158	536.133	83.3956	536.133	84.0967	536.133	82.7521	536.133	83.7583	536.133	82.2066	536.133	83.6594	536.133	81.8274	536.133	83.6864	536.133	81.7161	536.133	83.757	536.133	81.9323	536.133	83.8593	536.133	82.4256	536.133	84.0143	536.133	83.0561	536.133	84.2163	536.133	83.6698	536.133	84.4087	536.133	84.1499	536.133	84.5059	536.133	84.4322
555.176	88.7387	555.176	88.4725	555.176	88.8196	555.176	88.0314	555.176	88.7078	555.176	87.4309	555.176	88.4005	555.176	86.698	555.176	87.9015	555.176	85.8754	555.176	87.2168	555.176	85.0144	555.176	86.3507	555.176	84.1582	555.176	85.3176	555.176	83.3289	555.176	84.1758	555.176	82.5468	555.176	83.0774	555.176	81.8857	555.176	82.2866	555.176	81.508	555.176	82.0712	555.176	81.5801	555.176	82.4646	555.176	82.0988	555.176	83.2145	555.176	82.8743	555.176	84.0119	555.176	83.6875	555.176	84.6616	555.176	84.3905	555.176	85.0841	555.176	84.9063	555.176	85.2628	555.176	85.2014
574.219	88.6543	574.219	88.3148	574.219	88.8414	574.219	87.8283	574.219	88.8645	574.219	87.2022	574.219	88.7089	574.219	86.4594	574.219	88.3678	574.219	85.6478	574.219	87.8523	574.219	84.8309	574.219	87.1852	574.219	84.0594	574.219	86.3802	574.219	83.3434	574.219	85.4286	574.219	82.6609	574.219	84.3177	574.219	82.008	574.219	83.0848	574.219	81.4724	574.219	81.9261	574.219	81.2625	574.219	81.2888	574.219	81.58	574.219	81.5613	574.219	82.3808	574.219	82.5162	574.219	83.3779	574.219	83.6043	574.219	84.2753	574.219	84.4775	574.219	84.8912	574.219	85.0034	574.219	85.1428
594.727	88.9997	594.727	88.8026	594.727	89.0026	594.727	88.4256	594.727	88.8091	594.727	87.8832	594.727	88.4415	594.727	87.1838	594.727	87.9488	594.727	86.3278	594.727	87.387	594.727	85.313	594.727	86.7898	594.727	84.1446	594.727	86.1682	594.727	82.8506	594.727	85.5364	594.727	81.5101	594.727	84.898	594.727	80.3105	594.727	84.1853	594.727	79.5857	594.727	83.2733	594.727	79.6419	594.727	82.1407	594.727	80.4267	594.727	81.1575	594.727	81.5784	594.727	81.0901	594.727	82.7416	594.727	82.0446	594.727	83.6851	594.727	83.2281	594.727	84.2724	594.727	84.0727	594.727	84.4193
615.234	89.988	615.234	89.7107	615.234	90.1163	615.234	89.2856	615.234	90.0879	615.234	88.7081	615.234	89.8969	615.234	87.981	615.234	89.5474	615.234	87.1348	615.234	89.0545	615.234	86.2326	615.234	88.4364	615.234	85.3364	615.234	87.7078	615.234	84.4479	615.234	86.8844	615.234	83.481	615.234	85.9934	615.234	82.3171	615.234	85.0822	615.234	80.9563	615.234	84.2295	615.234	79.7746	615.234	83.5597	615.234	79.5581	615.234	83.2142	615.234	80.518	615.234	83.2419	615.234	81.9088	615.234	83.5361	615.234	83.1056	615.234	83.9127	615.234	83.886	615.234	84.1943	615.234	84.2263
637.207	89.1517	637.207	88.8654	637.207	89.2772	637.207	88.4408	637.207	89.237	637.207	87.9142	637.207	89.0389	637.207	87.3263	637.207	88.6959	637.207	86.7164	637.207	88.2205	637.207	86.1224	637.207	87.6223	637.207	85.5648	637.207	86.9144	637.207	85.0164	637.207	86.1354	637.207	84.3999	637.207	85.3673	637.207	83.6233	637.207	84.693	637.207	82.6328	637.207	84.103	637.207	81.5009	637.207	83.5071	637.207	80.5636	637.207	82.9234	637.207	80.3888	637.207	82.6309	637.207	81.156	637.207	82.8937	637.207	82.3293	637.207	83.4793	637.207	83.3306	637.207	83.9059	637.207	83.8813
659.18	88.6613	659.18	88.373	659.18	88.7643	659.18	87.9183	659.18	88.6714	659.18	87.3313	659.18	88.3878	659.18	86.6748	659.18	87.9498	659.18	86.0374	659.18	87.4228	659.18	85.4863	659.18	86.8676	659.18	85.0001	659.18	86.3029	659.18	84.4694	659.18	85.7165	659.18	83.7798	659.18	85.1179	659.18	82.8914	659.18	84.5654	659.18	81.8775	659.18	84.0988	659.18	80.9826	659.18	83.6453	659.18	80.6846	659.18	83.1104	659.18	81.3603	659.18	82.6661	659.18	82.6708	659.18	82.7911	659.18	83.9338	659.18	83.5744	659.18	84.7274	659.18	84.447	659.18	84.897
682.617	88.2694	682.617	88.0474	682.617	88.1795	682.617	87.5402	682.617	87.8297	682.617	86.8369	682.617	87.3528	682.617	86.0649	682.617	86.9063	682.617	85.346	682.617	86.5481	682.617	84.7467	682.617	86.2045	682.617	84.2622	682.617	85.8197	682.617	83.8427	682.617	85.4552	682.617	83.4144	682.617	85.1559	682.617	82.8651	682.617	84.8156	682.617	82.0514	682.617	84.3236	682.617	80.9097	682.617	83.8278	682.617	79.7122	682.617	83.6898	682.617	79.248	682.617	83.9234	682.617	79.9754	682.617	84.1182	682.617	81.2381	682.617	84.0272	682.617	82.3577	682.617	83.6863	682.617	83.1514
707.52	87.5973	707.52	87.1078	707.52	87.7914	707.52	86.341	707.52	87.7257	707.52	85.4162	707.52	87.4563	707.52	84.5842	707.52	87.0188	707.52	84.1135	707.52	86.401	707.52	84.0277	707.52	85.5854	707.52	84.0219	707.52	84.6324	707.52	83.7197	707.52	83.71	707.52	82.9574	707.52	83.029	707.52	81.9048	707.52	82.6741	707.52	80.9825	707.52	82.4329	707.52	80.4905	707.52	81.912	707.52	80.3557	707.52	80.9249	707.52	80.4375	707.52	79.9049	707.52	80.806	707.52	79.8609	707.52	81.4781	707.52	80.851	707.52	82.1221	707.52	81.8694	707.52	82.3222
732.422	87.0478	732.422	86.6445	732.422	87.1348	732.422	85.9943	732.422	86.9173	732.422	85.2521	732.422	86.4674	732.422	84.6235	732.422	85.8646	732.422	84.2574	732.422	85.1609	732.422	84.1237	732.422	84.4202	732.422	84.0271	732.422	83.731	732.422	83.7557	732.422	83.108	732.422	83.1873	732.422	82.4919	732.422	82.3026	732.422	81.9904	732.422	81.1876	732.422	81.9093	732.422	80.1081	732.422	82.1311	732.422	79.5721	732.422	82.0392	732.422	79.8913	732.422	81.3531	732.422	80.7076	732.422	80.6652	732.422	81.5137	732.422	80.8823	732.422	82.0318	732.422	81.6377	732.422	82.1007
757.324	86.786	757.324	86.162	757.324	87.277	757.324	85.493	757.324	87.505	757.324	84.8386	757.324	87.3811	757.324	84.3253	757.324	86.9128	757.324	84.0791	757.324	86.158	757.324	83.9835	757.324	85.1596	757.324	83.6682	757.324	84.0427	757.324	82.8466	757.324	83.1676	757.324	81.6684	757.324	82.8198	757.324	80.6313	757.324	82.6011	757.324	79.8341	757.324	81.8344	757.324	78.8115	757.324	80.5824	757.324	77.3482	757.324	80.0323	757.324	76.4288	757.324	80.4812	757.324	77.7647	757.324	80.7749	757.324	79.9226	757.324	80.7559	757.324	81.216	757.324	81.0262	757.324	81.4353
785.156	86.6702	785.156	86.1658	785.156	86.6903	785.156	85.1927	785.156	86.3094	785.156	83.9313	785.156	85.6728	785.156	82.8279	785.156	84.9542	785.156	82.5256	785.156	84.2953	785.156	83.0859	785.156	83.7022	785.156	83.6673	785.156	82.9841	785.156	83.6215	785.156	81.8877	785.156	82.9555	785.156	80.5638	785.156	82.0547	785.156	80.0718	785.156	81.1923	785.156	80.8765	785.156	80.2346	785.156	81.5479	785.156	79.0375	785.156	81.2117	785.156	78.0187	785.156	80.2835	785.156	77.8693	785.156	79.6579	785.156	78.3598	785.156	79.3752	785.156	78.7865	785.156	79.1262	785.156	78.9658
811.523	83.8652	811.523	83.1043	811.523	86.084	811.523	84.6299	811.523	87.8629	811.523	86.3718	811.523	88.7481	811.523	87.4256	811.523	88.7433	811.523	87.701	811.523	87.917	811.523	87.1923	811.523	86.3663	811.523	86.0636	811.523	84.2894	811.523	84.8001	811.523	82.1707	811.523	83.9536	811.523	80.8958	811.523	83.5962	811.523	81.1576	811.523	83.2646	811.523	82.5151	811.523	82.4247	811.523	83.7853	811.523	80.9534	811.523	84.0834	811.523	79.7087	811.523	83.0241	811.523	79.8672	811.523	80.7873	811.523	80.7773	811.523	79.2598	811.523	81.3775	811.523	80.1381	811.523	81.2058
840.82	84.2963	840.82	85.4089	840.82	83.5855	840.82	85.9917	840.82	84.51	840.82	85.9353	840.82	86.0641	840.82	85.2849	840.82	86.8967	840.82	84.0613	840.82	86.7951	840.82	82.4787	840.82	86.0372	840.82	81.0631	840.82	84.8025	840.82	80.3985	840.82	83.0157	840.82	80.9526	840.82	80.9775	840.82	82.8333	840.82	80.0705	840.82	84.984	840.82	80.8934	840.82	86.1107	840.82	82.5557	840.82	85.8531	840.82	84.3956	840.82	84.7201	840.82	85.6631	840.82	83.3807	840.82	85.6921	840.82	81.6433	840.82	84.1482	840.82	79.1292	840.82	81.0088	840.82	77.9509
870.117	85.891	870.117	85.6485	870.117	86.2933	870.117	85.4249	870.117	86.6298	870.117	85.0188	870.117	86.4688	870.117	84.3182	870.117	85.6047	870.117	83.2923	870.117	84.1386	870.117	82.1851	870.117	82.1163	870.117	81.6239	870.117	79.3066	870.117	81.7898	870.117	75.8885	870.117	81.9941	870.117	73.5334	870.117	81.9098	870.117	73.8841	870.117	82.0333	870.117	75.8728	870.117	82.4355	870.117	78.4015	870.117	82.5307	870.117	80.8821	870.117	82.4629	870.117	82.4369	870.117	82.6001	870.117	82.8423	870.117	82.6118	870.117	82.5211	870.117	82.3318	870.117	82.1254	870.117	82.0656
900.879	85.6896	900.879	85.977	900.879	85.8984	900.879	86.1817	900.879	86.6541	900.879	85.9912	900.879	87.3011	900.879	85.3299	900.879	87.2344	900.879	83.9559	900.879	86.1984	900.879	81.5045	900.879	84.3304	900.879	78.197	900.879	82.1592	900.879	75.9041	900.879	80.258	900.879	76.2929	900.879	78.5873	900.879	78.0688	900.879	76.5199	900.879	79.9808	900.879	74.8165	900.879	81.252	900.879	75.3957	900.879	81.3765	900.879	77.6076	900.879	81.1032	900.879	80.2917	900.879	81.3379	900.879	82.4436	900.879	81.0302	900.879	83.3804	900.879	80.1802	900.879	82.8156	900.879	81.0668
933.105	85.4072	933.105	85.7358	933.105	86.0061	933.105	86.3396	933.105	87.0159	933.105	86.579	933.105	87.5243	933.105	86.285	933.105	86.9158	933.105	85.3704	933.105	84.7961	933.105	83.8837	933.105	81.0551	933.105	82.2937	933.105	75.9362	933.105	80.969	933.105	70.0083	933.105	79.6342	933.105	65.9539	933.105	78.5431	933.105	68.7342	933.105	79.1273	933.105	73.8878	933.105	80.5011	933.105	77.9187	933.105	80.8154	933.105	80.5443	933.105	80.2853	933.105	81.4391	933.105	79.9719	933.105	80.9175	933.105	80.41	933.105	80.9306	933.105	81.4449	933.105	81.97	933.105	82.2363
965.332	87.2346	965.332	86.5032	965.332	87.2516	965.332	85.1752	965.332	86.4578	965.332	83.5966	965.332	84.8425	965.332	82.4656	965.332	83.0729	965.332	82.4928	965.332	82.6086	965.332	83.4624	965.332	83.2625	965.332	84.7269	965.332	83.8726	965.332	86.0692	965.332	84.2163	965.332	87.0766	965.332	84.3042	965.332	87.1566	965.332	83.8876	965.332	86.3076	965.332	82.371	965.332	85.1698	965.332	78.9011	965.332	83.8871	965.332	73.667	965.332	82.3314	965.332	78.1173	965.332	80.5941	965.332	82.6638	965.332	77.4211	965.332	84.4145	965.332	75.8846	965.332	83.9162	965.332	80.9601
1,000.49	85.8346	1,000.49	87.7516	1,000.49	83.403	1,000.49	88.2365	1,000.49	84.2659	1,000.49	87.3617	1,000.49	86.7623	1,000.49	84.6855	1,000.49	87.8058	1,000.49	78.3724	1,000.49	87.0935	1,000.49	57.6798	1,000.49	85.1424	1,000.49	76.023	1,000.49	83.012	1,000.49	80.1836	1,000.49	81.4382	1,000.49	82.0262	1,000.49	80.8707	1,000.49	81.9295	1,000.49	81.6035	1,000.49	80.5028	1,000.49	82.6714	1,000.49	78.9141	1,000.49	82.9063	1,000.49	77.1083	1,000.49	81.5232	1,000.49	73.7579	1,000.49	76.1324	1,000.49	70.1116	1,000.49	68.1077	1,000.49	76.5115	1,000.49	81.4462	1,000.49	81.9163	1,000.49	84.8029	1,000.49	84.6678
1,035.64	85.0641	1,035.64	84.9419	1,035.64	87.4983	1,035.64	87.1293	1,035.64	88.8268	1,035.64	88.4241	1,035.64	88.3691	1,035.64	88.1714	1,035.64	85.9045	1,035.64	86.3433	1,035.64	80.5597	1,035.64	83.6359	1,035.64	70.2418	1,035.64	81.2683	1,035.64	72.8512	1,035.64	79.2536	1,035.64	76.4688	1,035.64	77.0024	1,035.64	77.0765	1,035.64	75.7694	1,035.64	76.5753	1,035.64	77.494	1,035.64	76.4652	1,035.64	78.0501	1,035.64	73.9916	1,035.64	76.0184	1,035.64	68.5422	1,035.64	75.3038	1,035.64	72.4792	1,035.64	76.5264	1,035.64	74.4521	1,035.64	78.7484	1,035.64	78.6262	1,035.64	81.4051	1,035.64	82.0634	1,035.64	82.8011
1,072.27	87.8144	1,072.27	88.7745	1,072.27	87.0155	1,072.27	88.9817	1,072.27	87.1389	1,072.27	88.0761	1,072.27	87.5625	1,072.27	85.8369	1,072.27	87.4689	1,072.27	82.2609	1,072.27	86.5103	1,072.27	78.9245	1,072.27	84.606	1,072.27	79.9019	1,072.27	82.5293	1,072.27	83.3015	1,072.27	81.7533	1,072.27	85.3197	1,072.27	81.928	1,072.27	85.2375	1,072.27	82.6996	1,072.27	83.6161	1,072.27	84.1012	1,072.27	80.5887	1,072.27	84.9382	1,072.27	73.9725	1,072.27	84.2982	1,072.27	70.0056	1,072.27	80.9819	1,072.27	62.6354	1,072.27	68.42	1,072.27	75.5905	1,072.27	77.79	1,072.27	82.4516	1,072.27	83.5146	1,072.27	84.5691
1,108.89	87.086	1,108.89	86.5934	1,108.89	88.7951	1,108.89	87.9558	1,108.89	89.5573	1,108.89	88.9599	1,108.89	88.7934	1,108.89	88.4995	1,108.89	86.4558	1,108.89	85.7038	1,108.89	82.5315	1,108.89	79.3319	1,108.89	76.936	1,108.89	65.8727	1,108.89	70.939	1,108.89	74.139	1,108.89	66.0347	1,108.89	79.8271	1,108.89	65.9933	1,108.89	81.092	1,108.89	75.1468	1,108.89	80.2366	1,108.89	79.1617	1,108.89	77.6296	1,108.89	80.9639	1,108.89	66.9118	1,108.89	81.8209	1,108.89	68.9447	1,108.89	81.153	1,108.89	70.6685	1,108.89	75.7011	1,108.89	76.413	1,108.89	70.3415	1,108.89	82.3297	1,108.89	81.7041	1,108.89	83.995
1,148.44	85.9713	1,148.44	86.3717	1,148.44	86.8266	1,148.44	87.2143	1,148.44	87.8706	1,148.44	87.5065	1,148.44	87.8392	1,148.44	86.3122	1,148.44	86.1993	1,148.44	82.5756	1,148.44	82.2712	1,148.44	74.9102	1,148.44	73.7067	1,148.44	61.5206	1,148.44	70.9557	1,148.44	78.6497	1,148.44	76.1144	1,148.44	83.4572	1,148.44	78.3088	1,148.44	83.6986	1,148.44	79.1362	1,148.44	81.2627	1,148.44	78.5152	1,148.44	76.7616	1,148.44	80.6587	1,148.44	70.9845	1,148.44	83.2156	1,148.44	79.4654	1,148.44	83.5793	1,148.44	79.7609	1,148.44	81.008	1,148.44	80.6349	1,148.44	70.2712	1,148.44	83.4916	1,148.44	77.0158	1,148.44	82.9929
1,189.45	86.6485	1,189.45	86.1547	1,189.45	88.0836	1,189.45	87.0457	1,189.45	88.6493	1,189.45	87.636	1,189.45	87.4849	1,189.45	86.4895	1,189.45	84.1561	1,189.45	82.5382	1,189.45	77.9931	1,189.45	74.7899	1,189.45	75.6555	1,189.45	59.6865	1,189.45	78.541	1,189.45	76	1,189.45	78.1631	1,189.45	79.5412	1,189.45	77.5778	1,189.45	78.5544	1,189.45	76.7533	1,189.45	74.2517	1,189.45	68.6227	1,189.45	70.1033	1,189.45	70.5245	1,189.45	75.3997	1,189.45	77.0013	1,189.45	78.9269	1,189.45	79.5289	1,189.45	76.9466	1,189.45	79.7743	1,189.45	75.4216	1,189.45	75.5902	1,189.45	79.9203	1,189.45	76.3726	1,189.45	80.4534
1,230.47	87.4563	1,230.47	85.8735	1,230.47	88.3769	1,230.47	85.4728	1,230.47	87.7263	1,230.47	86.6971	1,230.47	84.8356	1,230.47	87.1584	1,230.47	79.7236	1,230.47	85.6298	1,230.47	79.7197	1,230.47	82.714	1,230.47	82.664	1,230.47	77.5417	1,230.47	83.9595	1,230.47	70.3963	1,230.47	83.7451	1,230.47	75.5429	1,230.47	82.5859	1,230.47	74.2116	1,230.47	81.1064	1,230.47	49.1297	1,230.47	78.3163	1,230.47	73.3692	1,230.47	72.2091	1,230.47	78.7859	1,230.47	51.6472	1,230.47	81.5638	1,230.47	74.7919	1,230.47	80.9348	1,230.47	79.602	1,230.47	80.1479	1,230.47	79.3702	1,230.47	80.7516	1,230.47	76.1652	1,230.47	78.5994
1,274.41	88.0388	1,274.41	86.5414	1,274.41	88.3887	1,274.41	85.4798	1,274.41	86.8742	1,274.41	85.8968	1,274.41	83.3702	1,274.41	85.9651	1,274.41	80.7932	1,274.41	84.2657	1,274.41	82.772	1,274.41	81.5137	1,274.41	84.2687	1,274.41	77.3297	1,274.41	83.7671	1,274.41	69.2667	1,274.41	81.6669	1,274.41	67.787	1,274.41	79.8488	1,274.41	72.7515	1,274.41	78.5432	1,274.41	75.4054	1,274.41	75.014	1,274.41	75.8411	1,274.41	74.3002	1,274.41	76.3053	1,274.41	77.3238	1,274.41	77.271	1,274.41	77.1149	1,274.41	76.7406	1,274.41	74.7076	1,274.41	74.7849	1,274.41	75.7393	1,274.41	76.3603	1,274.41	78.7368	1,274.41	78.9272
1,319.82	88.1898	1,319.82	87.4846	1,319.82	87.4095	1,319.82	85.9543	1,319.82	85.2004	1,319.82	84.8316	1,319.82	82.8606	1,319.82	84.6361	1,319.82	82.7186	1,319.82	83.8267	1,319.82	83.77	1,319.82	82.534	1,319.82	83.6835	1,319.82	79.3186	1,319.82	82.3545	1,319.82	73.7837	1,319.82	80.2191	1,319.82	72.4862	1,319.82	78.7041	1,319.82	68.1277	1,319.82	78.5482	1,319.82	65.0447	1,319.82	77.8473	1,319.82	73.7708	1,319.82	76.5539	1,319.82	77.6507	1,319.82	72.8658	1,319.82	79.0024	1,319.82	69.0509	1,319.82	77.8509	1,319.82	76.4566	1,319.82	76.7458	1,319.82	76.5319	1,319.82	78.5706	1,319.82	75.9969	1,319.82	78.67
1,366.7	87.2396	1,366.7	87.462	1,366.7	86.0637	1,366.7	86.4151	1,366.7	85.3357	1,366.7	84.2428	1,366.7	84.8729	1,366.7	82.4797	1,366.7	82.9908	1,366.7	81.9417	1,366.7	81.1552	1,366.7	80.3498	1,366.7	80.8873	1,366.7	73.5904	1,366.7	80.4572	1,366.7	70.3618	1,366.7	79.8111	1,366.7	75.2698	1,366.7	79.1985	1,366.7	77.0807	1,366.7	78.7085	1,366.7	77.7399	1,366.7	78.0486	1,366.7	75.573	1,366.7	75.2867	1,366.7	72.2138	1,366.7	61.2295	1,366.7	76.7708	1,366.7	72.381	1,366.7	78.6779	1,366.7	76.4016	1,366.7	77.3033	1,366.7	74.1203	1,366.7	78.2188	1,366.7	74.4264	1,366.7	78.4407
1,413.57	86.691	1,413.57	87.7765	1,413.57	85.3816	1,413.57	87.2228	1,413.57	85.6389	1,413.57	84.4834	1,413.57	85.611	1,413.57	80.9139	1,413.57	84.2496	1,413.57	81.0343	1,413.57	82.3715	1,413.57	82.0628	1,413.57	79.041	1,413.57	79.9004	1,413.57	73.9783	1,413.57	75.4915	1,413.57	71.5276	1,413.57	70.0117	1,413.57	71.2739	1,413.57	60.5462	1,413.57	72.4487	1,413.57	66.6118	1,413.57	75.4191	1,413.57	67.8669	1,413.57	76.5363	1,413.57	63.5239	1,413.57	75.267	1,413.57	74.2801	1,413.57	68.5172	1,413.57	77.1595	1,413.57	73.8454	1,413.57	77.6664	1,413.57	76.2021	1,413.57	78.2739	1,413.57	72.75	1,413.57	76.2967
1,463.38	85.4674	1,463.38	86.5119	1,463.38	84.7965	1,463.38	85.9505	1,463.38	85.8077	1,463.38	83.3113	1,463.38	85.6922	1,463.38	80.5338	1,463.38	83.1096	1,463.38	81.9426	1,463.38	78.1745	1,463.38	83.3103	1,463.38	73.4631	1,463.38	82.9473	1,463.38	77.5091	1,463.38	82.9393	1,463.38	78.4272	1,463.38	82.3962	1,463.38	76.3796	1,463.38	80.1833	1,463.38	72.5114	1,463.38	76.8716	1,463.38	62.7407	1,463.38	71.9525	1,463.38	76.7526	1,463.38	73.6109	1,463.38	79.4072	1,463.38	78.9723	1,463.38	73.8118	1,463.38	78.8383	1,463.38	69.875	1,463.38	74.9139	1,463.38	76.431	1,463.38	73.1918	1,463.38	74.1067	1,463.38	71.1537
1,516.11	85.5238	1,516.11	86.0257	1,516.11	85.8727	1,516.11	86.0444	1,516.11	85.9954	1,516.11	84.9941	1,516.11	84.117	1,516.11	83.0309	1,516.11	82.1143	1,516.11	80.1579	1,516.11	81.7404	1,516.11	77.8447	1,516.11	80.4321	1,516.11	78.3841	1,516.11	79.344	1,516.11	78.7186	1,516.11	78.0517	1,516.11	76.8084	1,516.11	76.1996	1,516.11	73.6162	1,516.11	75.3914	1,516.11	66.353	1,516.11	75.5219	1,516.11	54.231	1,516.11	75.9377	1,516.11	61.7991	1,516.11	73.9064	1,516.11	73.1224	1,516.11	70.5952	1,516.11	75.9579	1,516.11	69.9113	1,516.11	74.512	1,516.11	74.1543	1,516.11	73.1527	1,516.11	74.3054	1,516.11	72.5972
1,568.85	84.7107	1,568.85	84.9211	1,568.85	85.7304	1,568.85	85.5084	1,568.85	86.544	1,568.85	84.6667	1,568.85	84.5923	1,568.85	81.2317	1,568.85	78.8713	1,568.85	78.1126	1,568.85	81.9473	1,568.85	81.1511	1,568.85	84.8303	1,568.85	83.9645	1,568.85	84.7037	1,568.85	84.7783	1,568.85	83.2832	1,568.85	83.6343	1,568.85	81.8912	1,568.85	81.6151	1,568.85	79.506	1,568.85	78.6117	1,568.85	74.6344	1,568.85	73.1291	1,568.85	68.676	1,568.85	71.8903	1,568.85	73.7255	1,568.85	76.346	1,568.85	73.7379	1,568.85	77.6035	1,568.85	49.9535	1,568.85	75.6151	1,568.85	74.1487	1,568.85	73.4547	1,568.85	75.9074	1,568.85	73.4784
1,624.51	86.2146	1,624.51	85.8978	1,624.51	86.1331	1,624.51	85.1062	1,624.51	85.6285	1,624.51	84.4072	1,624.51	84.0136	1,624.51	83.6749	1,624.51	82.3323	1,624.51	81.6172	1,624.51	82.193	1,624.51	79.8316	1,624.51	81.609	1,624.51	81.3127	1,624.51	81.7408	1,624.51	82.2221	1,624.51	81.5858	1,624.51	80.9177	1,624.51	80.3502	1,624.51	80.178	1,624.51	79.5225	1,624.51	80.0329	1,624.51	77.4708	1,624.51	78.3173	1,624.51	72.7513	1,624.51	75.2311	1,624.51	61.702	1,624.51	74.5143	1,624.51	71.2894	1,624.51	75.3333	1,624.51	71.5572	1,624.51	73.1145	1,624.51	64.9886	1,624.51	72.6257	1,624.51	73.8511	1,624.51	74.3479
1,681.64	87.2742	1,681.64	86.0828	1,681.64	86.8655	1,681.64	84.2293	1,681.64	85.5107	1,681.64	83.7951	1,681.64	84.4766	1,681.64	83.8298	1,681.64	83.8946	1,681.64	82.1373	1,681.64	82.161	1,681.64	79.7741	1,681.64	80.1752	1,681.64	78.3534	1,681.64	79.3178	1,681.64	74.1196	1,681.64	78.4297	1,681.64	64.1781	1,681.64	78.9081	1,681.64	57.916	1,681.64	77.7083	1,681.64	60.1923	1,681.64	73.9058	1,681.64	71.6425	1,681.64	67.4324	1,681.64	74.5111	1,681.64	71.6495	1,681.64	73.7244	1,681.64	74.5978	1,681.64	71.679	1,681.64	73.7806	1,681.64	67.8599	1,681.64	67.0983	1,681.64	72.308	1,681.64	72.4368	1,681.64	76.2835
1,741.7	87.0257	1,741.7	86.7706	1,741.7	87.619	1,741.7	86.0301	1,741.7	87.04	1,741.7	83.3068	1,741.7	83.6353	1,741.7	79.5654	1,741.7	81.3684	1,741.7	81.6822	1,741.7	83.0009	1,741.7	82.5904	1,741.7	83.266	1,741.7	78.0857	1,741.7	82.3294	1,741.7	69.8206	1,741.7	81.6597	1,741.7	77.4939	1,741.7	82.292	1,741.7	78.3787	1,741.7	81.7917	1,741.7	73.5651	1,741.7	78.9067	1,741.7	59.475	1,741.7	68.0402	1,741.7	72.8448	1,741.7	71.0658	1,741.7	73.39	1,741.7	71.7631	1,741.7	73.4254	1,741.7	69.3192	1,741.7	72.5455	1,741.7	73.075	1,741.7	72.3793	1,741.7	72.7648	1,741.7	74.0215
1,803.22	87.172	1,803.22	86.9045	1,803.22	87.3842	1,803.22	86.1714	1,803.22	87.0045	1,803.22	83.6147	1,803.22	85.6207	1,803.22	80.0162	1,803.22	83.4283	1,803.22	78.774	1,803.22	81.5929	1,803.22	77.2418	1,803.22	78.9959	1,803.22	74.6177	1,803.22	76.2401	1,803.22	75.8581	1,803.22	71.1743	1,803.22	74.4834	1,803.22	65.9415	1,803.22	72.7791	1,803.22	67.0108	1,803.22	70.7871	1,803.22	69.4203	1,803.22	63.269	1,803.22	72.3728	1,803.22	72.2261	1,803.22	72.5338	1,803.22	73.3521	1,803.22	71.541	1,803.22	71.6162	1,803.22	72.3058	1,803.22	72.1294	1,803.22	72.2478	1,803.22	71.8522	1,803.22	73.3088	1,803.22	72.8769
1,866.21	85.9529	1,866.21	86.1582	1,866.21	86.2637	1,866.21	85.6416	1,866.21	86.5148	1,866.21	82.7108	1,866.21	85.5699	1,866.21	79.4405	1,866.21	83.4921	1,866.21	78.306	1,866.21	81.624	1,866.21	76.2997	1,866.21	78.82	1,866.21	74.0326	1,866.21	75.1099	1,866.21	74.6834	1,866.21	70.9148	1,866.21	72.2478	1,866.21	66.0613	1,866.21	66.7514	1,866.21	60.6373	1,866.21	71.1706	1,866.21	66.3939	1,866.21	68.7094	1,866.21	73.6848	1,866.21	68.9827	1,866.21	73.4158	1,866.21	73.5606	1,866.21	69.1129	1,866.21	71.6526	1,866.21	69.1386	1,866.21	69.6362	1,866.21	72.6518	1,866.21	70.4709	1,866.21	72.4167	1,866.21	71.3317
1,932.13	85.0486	1,932.13	84.8905	1,932.13	85.3679	1,932.13	84.2066	1,932.13	85.7151	1,932.13	82.1259	1,932.13	85.0024	1,932.13	80.0064	1,932.13	83.3011	1,932.13	76.3757	1,932.13	81.7572	1,932.13	71.4398	1,932.13	78.8008	1,932.13	73.1487	1,932.13	74.7528	1,932.13	73.5606	1,932.13	70.1307	1,932.13	70.4052	1,932.13	69.7041	1,932.13	68.123	1,932.13	69.3593	1,932.13	66.597	1,932.13	45.1826	1,932.13	71.4769	1,932.13	72.8299	1,932.13	73.973	1,932.13	74.8539	1,932.13	75.3224	1,932.13	69.4283	1,932.13	75.9031	1,932.13	62.1878	1,932.13	75.6605	1,932.13	75.2417	1,932.13	74.4652	1,932.13	77.6519	1,932.13	75.7265
1,999.51	86.0741	1,999.51	84.1826	1,999.51	86.5098	1,999.51	81.7975	1,999.51	86.2048	1,999.51	80.4332	1,999.51	85.2434	1,999.51	79.196	1,999.51	83.6176	1,999.51	76.1088	1,999.51	81.9535	1,999.51	71.4702	1,999.51	79.4106	1,999.51	72.1485	1,999.51	76.3757	1,999.51	73.0413	1,999.51	69.6702	1,999.51	67.0932	1,999.51	65.0226	1,999.51	65.1864	1,999.51	71.0997	1,999.51	65.8024	1,999.51	69.0456	1,999.51	67.9814	1,999.51	71.3625	1,999.51	74.9801	1,999.51	77.2508	1,999.51	77.1199	1,999.51	77.0939	1,999.51	77.0114	1,999.51	72.2965	1,999.51	77.5485	1,999.51	72.1046	1,999.51	77.6828	1,999.51	78.4122	1,999.51	78.3913
2,069.82	86.2293	2,069.82	84.4209	2,069.82	86.4791	2,069.82	80.7047	2,069.82	85.5234	2,069.82	77.0533	2,069.82	83.2374	2,069.82	76.7758	2,069.82	81.1072	2,069.82	75.9799	2,069.82	79.6531	2,069.82	72.298	2,069.82	77.0265	2,069.82	67.882	2,069.82	73.1102	2,069.82	68.5512	2,069.82	65.9997	2,069.82	72.0396	2,069.82	59.3472	2,069.82	71.459	2,069.82	66.9434	2,069.82	64.0945	2,069.82	69.373	2,069.82	60.426	2,069.82	66.4754	2,069.82	70.3473	2,069.82	72.9592	2,069.82	74.8395	2,069.82	75.6323	2,069.82	74.8702	2,069.82	73.7082	2,069.82	74.6883	2,069.82	57.5212	2,069.82	75.0945	2,069.82	73.5771	2,069.82	75.3902
2,143.07	85.9678	2,143.07	84.5846	2,143.07	86.6066	2,143.07	81.6789	2,143.07	85.9137	2,143.07	77.1525	2,143.07	83.1053	2,143.07	73.8754	2,143.07	79.8417	2,143.07	72.5257	2,143.07	77.3024	2,143.07	69.9227	2,143.07	73.2975	2,143.07	69.4018	2,143.07	68.4615	2,143.07	69.7073	2,143.07	64.6058	2,143.07	70.9191	2,143.07	56.4714	2,143.07	70.872	2,143.07	61.9995	2,143.07	67.5152	2,143.07	66.1582	2,143.07	66.6628	2,143.07	64.1046	2,143.07	65.5483	2,143.07	65.8802	2,143.07	71.6445	2,143.07	72.5407	2,143.07	73.4584	2,143.07	72.9578	2,143.07	73.1122	2,143.07	63.5553	2,143.07	72.5944	2,143.07	64.027	2,143.07	70.4891
2,219.24	85.5416	2,219.24	84.3376	2,219.24	86.4624	2,219.24	82.1104	2,219.24	86.2298	2,219.24	77.2185	2,219.24	84.0586	2,219.24	68.4795	2,219.24	80.5631	2,219.24	66.1631	2,219.24	75.2945	2,219.24	68.1343	2,219.24	69.2831	2,219.24	67.4983	2,219.24	63.7771	2,219.24	66.1727	2,219.24	65.7194	2,219.24	66.9543	2,219.24	65.3491	2,219.24	68.3396	2,219.24	64.1602	2,219.24	67.1494	2,219.24	66.0377	2,219.24	66.573	2,219.24	65.1629	2,219.24	65.8958	2,219.24	58.6339	2,219.24	70.0106	2,219.24	70.3214	2,219.24	71.7774	2,219.24	72.6855	2,219.24	68.8185	2,219.24	68.7164	2,219.24	67.2955	2,219.24	60.8734	2,219.24	67.5663
2,296.88	84.7304	2,296.88	82.9267	2,296.88	85.7671	2,296.88	80.7553	2,296.88	85.9393	2,296.88	76.5596	2,296.88	84.7682	2,296.88	67.4124	2,296.88	81.4978	2,296.88	64.5788	2,296.88	74.8082	2,296.88	69.4013	2,296.88	63.8731	2,296.88	69.1765	2,296.88	61.3779	2,296.88	67.0487	2,296.88	69.3106	2,296.88	68.6227	2,296.88	70.6992	2,296.88	67.6136	2,296.88	70.5393	2,296.88	68.2413	2,296.88	67.5066	2,296.88	69.63	2,296.88	59.3849	2,296.88	66.1787	2,296.88	56.424	2,296.88	66.6728	2,296.88	68.7844	2,296.88	69.3442	2,296.88	72.7511	2,296.88	67.8901	2,296.88	72.5185	2,296.88	63.6396	2,296.88	68.5648	2,296.88	49.0791
2,378.91	85.4978	2,378.91	83.087	2,378.91	85.5734	2,378.91	78.6207	2,378.91	84.1091	2,378.91	69.5682	2,378.91	82.5322	2,378.91	57.541	2,378.91	79.2998	2,378.91	68.3446	2,378.91	72.7962	2,378.91	71.7067	2,378.91	63.7308	2,378.91	71.6744	2,378.91	66.8822	2,378.91	72.5842	2,378.91	72.2909	2,378.91	69.2753	2,378.91	71.0927	2,378.91	67.6572	2,378.91	69.6275	2,378.91	67.1992	2,378.91	68.0224	2,378.91	70.4402	2,378.91	60.9929	2,378.91	70.0778	2,378.91	56.4786	2,378.91	64.799	2,378.91	56.0589	2,378.91	64.6189	2,378.91	64.6662	2,378.91	60.8336	2,378.91	70.7743	2,378.91	65.4999	2,378.91	71.9936	2,378.91	69.2455
2,462.4	86.1702	2,462.4	83.4376	2,462.4	86.6766	2,462.4	77.5305	2,462.4	84.3743	2,462.4	66.6386	2,462.4	80.2612	2,462.4	56.5711	2,462.4	76.8836	2,462.4	67.4075	2,462.4	72.1216	2,462.4	72.721	2,462.4	68.7749	2,462.4	70.2194	2,462.4	70.6312	2,462.4	69.5858	2,462.4	66.859	2,462.4	72.2525	2,462.4	66.484	2,462.4	70.3327	2,462.4	63.2971	2,462.4	66.3537	2,462.4	63.8335	2,462.4	68.3219	2,462.4	62.6822	2,462.4	70.4116	2,462.4	61.0787	2,462.4	68.1536	2,462.4	53.6366	2,462.4	65.7869	2,462.4	45.5228	2,462.4	58.6885	2,462.4	63.103	2,462.4	62.9148	2,462.4	70.5959	2,462.4	69.5709
2,548.83	85.3393	2,548.83	82.7028	2,548.83	86.6833	2,548.83	77.304	2,548.83	85.101	2,548.83	68.1378	2,548.83	80.1379	2,548.83	60.7571	2,548.83	74.7701	2,548.83	71.4785	2,548.83	71.4157	2,548.83	72.9108	2,548.83	69.4359	2,548.83	73.5034	2,548.83	72.3604	2,548.83	71.1866	2,548.83	75.0912	2,548.83	68.304	2,548.83	70.1431	2,548.83	70.244	2,548.83	58.6527	2,548.83	69.039	2,548.83	58.2578	2,548.83	66.3448	2,548.83	64.9304	2,548.83	70.9267	2,548.83	63.0216	2,548.83	69.32	2,548.83	46.3312	2,548.83	68.8189	2,548.83	61.6015	2,548.83	60.8767	2,548.83	60.7729	2,548.83	59.5455	2,548.83	70.8039	2,548.83	69.1563
2,639.65	83.8016	2,639.65	81.3109	2,639.65	85.1791	2,639.65	77.2537	2,639.65	84.5937	2,639.65	68.293	2,639.65	80.4705	2,639.65	68.3178	2,639.65	73.4055	2,639.65	71.7988	2,639.65	71.6819	2,639.65	72.76	2,639.65	73.0988	2,639.65	71.8446	2,639.65	75.8684	2,639.65	70.6659	2,639.65	76.2052	2,639.65	72.4453	2,639.65	71.8685	2,639.65	68.8133	2,639.65	67.7653	2,639.65	69.7975	2,639.65	64.2234	2,639.65	68.1144	2,639.65	62.8839	2,639.65	69.8243	2,639.65	65.0032	2,639.65	70.0425	2,639.65	56.7582	2,639.65	66.6981	2,639.65	56.1984	2,639.65	52.5882	2,639.65	66.8972	2,639.65	58.8012	2,639.65	70.559	2,639.65	63.0828
2,731.93	83.2826	2,731.93	80.7834	2,731.93	83.8698	2,731.93	76.3106	2,731.93	82.8505	2,731.93	64.5841	2,731.93	79.1307	2,731.93	69.7762	2,731.93	72.297	2,731.93	72.4474	2,731.93	72.8556	2,731.93	73.2611	2,731.93	74.5817	2,731.93	73.4749	2,731.93	74.5886	2,731.93	73.3456	2,731.93	75.2815	2,731.93	70.6257	2,731.93	72.2777	2,731.93	70.145	2,731.93	71.815	2,731.93	69.187	2,731.93	60.5222	2,731.93	67.9184	2,731.93	65.0135	2,731.93	68.7378	2,731.93	60.5977	2,731.93	67.7783	2,731.93	56.6892	2,731.93	68.405	2,731.93	39.0444	2,731.93	58.5701	2,731.93	63.5265	2,731.93	59.4628	2,731.93	70.0184	2,731.93	66.1172
2,828.61	83.1382	2,828.61	80.5946	2,828.61	83.7891	2,828.61	73.4197	2,828.61	82.0628	2,828.61	64.4132	2,828.61	76.7978	2,828.61	69.6033	2,828.61	72.3002	2,828.61	73.2479	2,828.61	74.0679	2,828.61	73.913	2,828.61	74.6803	2,828.61	74.0827	2,828.61	75.4059	2,828.61	71.9794	2,828.61	75.0751	2,828.61	69.5262	2,828.61	70.2525	2,828.61	66.9716	2,828.61	72.6358	2,828.61	64.2357	2,828.61	66.7379	2,828.61	68.4997	2,828.61	64.4389	2,828.61	68.3956	2,828.61	60.2937	2,828.61	68.4727	2,828.61	59.6247	2,828.61	66.9909	2,828.61	45.8718	2,828.61	59.8902	2,828.61	64.4975	2,828.61	56.1611	2,828.61	69.2983	2,828.61	61.9235
2,928.22	83.4158	2,928.22	80.8854	2,928.22	84.0496	2,928.22	74.0966	2,928.22	82.1591	2,928.22	67.2006	2,928.22	75.5204	2,928.22	72.1846	2,928.22	71.7452	2,928.22	73.6944	2,928.22	74.5871	2,928.22	74.58	2,928.22	74.3703	2,928.22	73.6507	2,928.22	75.2133	2,928.22	67.2836	2,928.22	73.2709	2,928.22	67.4319	2,928.22	74.8445	2,928.22	69.6248	2,928.22	71.3712	2,928.22	69.671	2,928.22	67.3646	2,928.22	67.1942	2,928.22	58.4799	2,928.22	69.5754	2,928.22	60.3178	2,928.22	68.4886	2,928.22	59.3553	2,928.22	67.4383	2,928.22	53.6206	2,928.22	59.8682	2,928.22	63.5848	2,928.22	57.7508	2,928.22	68.8861	2,928.22	66.4102
3,030.76	82.9333	3,030.76	80.046	3,030.76	83.7368	3,030.76	73.6843	3,030.76	82.0998	3,030.76	69.1458	3,030.76	75.6691	3,030.76	74.2218	3,030.76	73.3732	3,030.76	73.8577	3,030.76	75.4944	3,030.76	74.4055	3,030.76	72.4301	3,030.76	69.9355	3,030.76	73.4756	3,030.76	71.8396	3,030.76	73.2017	3,030.76	71.2502	3,030.76	76.0401	3,030.76	68.6346	3,030.76	67.1526	3,030.76	67.4416	3,030.76	56.396	3,030.76	67.7652	3,030.76	60.7781	3,030.76	68.0657	3,030.76	64.0755	3,030.76	68.5628	3,030.76	55.5295	3,030.76	67.092	3,030.76	49.0792	3,030.76	60.8492	3,030.76	64.2188	3,030.76	60.4975	3,030.76	69.7275	3,030.76	63.136
3,137.7	82.5419	3,137.7	79.6677	3,137.7	83.571	3,137.7	71.3545	3,137.7	82.6843	3,137.7	74.0242	3,137.7	77.0329	3,137.7	76.3517	3,137.7	74.4319	3,137.7	75.9434	3,137.7	76.575	3,137.7	73.2782	3,137.7	74.8002	3,137.7	73.7754	3,137.7	73.8245	3,137.7	74.8912	3,137.7	76.216	3,137.7	70.1851	3,137.7	75.8686	3,137.7	66.6509	3,137.7	62.6656	3,137.7	64.874	3,137.7	46.5036	3,137.7	68.8945	3,137.7	56.1614	3,137.7	67.5009	3,137.7	66.8846	3,137.7	68.7947	3,137.7	47.1347	3,137.7	67.3618	3,137.7	54.8585	3,137.7	64.5782	3,137.7	66.6293	3,137.7	60.0457	3,137.7	69.4763	3,137.7	63.1886
3,249.02	83.0679	3,249.02	78.6716	3,249.02	83.3209	3,249.02	73.5032	3,249.02	82.8164	3,249.02	77.5976	3,249.02	79.4011	3,249.02	78.1596	3,249.02	75.9778	3,249.02	76.9808	3,249.02	76.5712	3,249.02	76.4932	3,249.02	78.104	3,249.02	76.8674	3,249.02	78.5136	3,249.02	72.8055	3,249.02	79.7865	3,249.02	68.4784	3,249.02	77.2026	3,249.02	71.2103	3,249.02	70.2282	3,249.02	68.6861	3,249.02	54.1919	3,249.02	68.2184	3,249.02	56.9455	3,249.02	69.2519	3,249.02	65.7317	3,249.02	69.2342	3,249.02	56.8821	3,249.02	68.6184	3,249.02	54.2328	3,249.02	64.5347	3,249.02	67.2622	3,249.02	63.2615	3,249.02	70.2744	3,249.02	64.6488
3,363.28	83.9118	3,363.28	80.7079	3,363.28	84.3006	3,363.28	77.4354	3,363.28	82.7933	3,363.28	79.7353	3,363.28	79.1568	3,363.28	79.8105	3,363.28	76.9535	3,363.28	79.1773	3,363.28	76.3765	3,363.28	78.3608	3,363.28	79.6353	3,363.28	76.1138	3,363.28	80.0881	3,363.28	72.7027	3,363.28	80.7816	3,363.28	73.8792	3,363.28	76.3388	3,363.28	70.9873	3,363.28	69.1474	3,363.28	68.6967	3,363.28	59.7278	3,363.28	66.1233	3,363.28	63.0154	3,363.28	70.0689	3,363.28	65.2147	3,363.28	70.0868	3,363.28	60.0777	3,363.28	68.2862	3,363.28	50.9788	3,363.28	64.6651	3,363.28	67.1116	3,363.28	64.87	3,363.28	71.0967	3,363.28	68.0752
3,481.93	84.6879	3,481.93	81.045	3,481.93	85.0888	3,481.93	80.5323	3,481.93	83.6466	3,481.93	81.5907	3,481.93	79.4595	3,481.93	80.3712	3,481.93	78.3655	3,481.93	79.9847	3,481.93	78.6007	3,481.93	78.4858	3,481.93	80.791	3,481.93	75.5053	3,481.93	80.1719	3,481.93	76.0684	3,481.93	81.0236	3,481.93	72.6952	3,481.93	73.834	3,481.93	68.1996	3,481.93	68.991	3,481.93	70.5643	3,481.93	59.7312	3,481.93	68.4028	3,481.93	62.5236	3,481.93	68.8731	3,481.93	63.651	3,481.93	71.2659	3,481.93	62.8823	3,481.93	68.2958	3,481.93	57.5406	3,481.93	66.6646	3,481.93	68.3946	3,481.93	64.9836	3,481.93	71.0479	3,481.93	68.1743
3,604.98	84.9095	3,604.98	80.6197	3,604.98	85.1037	3,604.98	82.418	3,604.98	82.7291	3,604.98	81.971	3,604.98	79.5395	3,604.98	80.7225	3,604.98	76.7716	3,604.98	79.6821	3,604.98	80.8442	3,604.98	77.9137	3,604.98	82.3222	3,604.98	77.6427	3,604.98	79.877	3,604.98	72.4359	3,604.98	76.7848	3,604.98	69.8143	3,604.98	71.5299	3,604.98	69.1593	3,604.98	69.654	3,604.98	69.4974	3,604.98	52.2365	3,604.98	67.9325	3,604.98	65.6185	3,604.98	69.3864	3,604.98	67.8687	3,604.98	69.5163	3,604.98	61.3092	3,604.98	67.5204	3,604.98	57.6059	3,604.98	67.0046	3,604.98	68.3262	3,604.98	62.8466	3,604.98	71.1347	3,604.98	67.5266
3,732.42	84.53	3,732.42	81.9653	3,732.42	86.448	3,732.42	82.6762	3,732.42	82.7727	3,732.42	81.2876	3,732.42	77.7148	3,732.42	80.7134	3,732.42	76.6426	3,732.42	79.3772	3,732.42	80.4346	3,732.42	77.9592	3,732.42	80.3818	3,732.42	75.6779	3,732.42	78.2986	3,732.42	71.7377	3,732.42	72.1132	3,732.42	70.9718	3,732.42	74.2203	3,732.42	67.6048	3,732.42	71.1862	3,732.42	67.0773	3,732.42	43.416	3,732.42	67.0689	3,732.42	66.6512	3,732.42	69.3424	3,732.42	68.205	3,732.42	69.0761	3,732.42	62.673	3,732.42	67.2271	3,732.42	57.0557	3,732.42	65.1245	3,732.42	69.2472	3,732.42	56.3572	3,732.42	70.465	3,732.42	67.521
3,864.26	83.4224	3,864.26	82.1175	3,864.26	85.4708	3,864.26	83.0656	3,864.26	84.0907	3,864.26	79.6166	3,864.26	77.8372	3,864.26	80.6463	3,864.26	78.2909	3,864.26	79.0088	3,864.26	81.3118	3,864.26	76.5727	3,864.26	79.8722	3,864.26	72.8709	3,864.26	77.3854	3,864.26	74.6822	3,864.26	74.7233	3,864.26	70.7863	3,864.26	74.6817	3,864.26	69.1734	3,864.26	72.4642	3,864.26	65.684	3,864.26	49.3627	3,864.26	67.0652	3,864.26	68.1379	3,864.26	66.4784	3,864.26	68.484	3,864.26	69.2028	3,864.26	64.4359	3,864.26	65.6347	3,864.26	61.3754	3,864.26	62.9567	3,864.26	70.6529	3,864.26	60.9671	3,864.26	69.8226	3,864.26	67.2926
4,000.49	82.6243	4,000.49	83.8721	4,000.49	84.5278	4,000.49	81.9183	4,000.49	83.5689	4,000.49	80.5324	4,000.49	78.9847	4,000.49	79.9516	4,000.49	76.7094	4,000.49	78.9589	4,000.49	81.7284	4,000.49	74.5829	4,000.49	81.0581	4,000.49	76.596	4,000.49	76.4394	4,000.49	72.682	4,000.49	74.5658	4,000.49	68.673	4,000.49	75.8984	4,000.49	65.8128	4,000.49	69.8563	4,000.49	67.8002	4,000.49	66.5058	4,000.49	66.0361	4,000.49	63.6401	4,000.49	67.823	4,000.49	64.789	4,000.49	67.4433	4,000.49	62.5424	4,000.49	66.6656	4,000.49	58.9516	4,000.49	61.5849	4,000.49	69.7137	4,000.49	59.8751	4,000.49	69.2393	4,000.49	68.272
4,141.11	82.183	4,141.11	84.1651	4,141.11	85.0459	4,141.11	80.2985	4,141.11	83.1771	4,141.11	81.4248	4,141.11	79.4039	4,141.11	80.77	4,141.11	77.2867	4,141.11	76.63	4,141.11	82.3496	4,141.11	77.7894	4,141.11	80.0555	4,141.11	74.5399	4,141.11	73.1982	4,141.11	74.145	4,141.11	76.506	4,141.11	74.226	4,141.11	77.7083	4,141.11	69.0478	4,141.11	48.7281	4,141.11	66.4781	4,141.11	69.5625	4,141.11	66.0003	4,141.11	65.5852	4,141.11	70.4812	4,141.11	64.7852	4,141.11	67.0032	4,141.11	55.6111	4,141.11	69.0987	4,141.11	59.145	4,141.11	60.789	4,141.11	69.2751	4,141.11	57.7087	4,141.11	68.9416	4,141.11	66.701
4,287.6	83.2838	4,287.6	83.1753	4,287.6	84.1138	4,287.6	81.1806	4,287.6	83.9397	4,287.6	81.9012	4,287.6	79.6252	4,287.6	78.3989	4,287.6	77.9569	4,287.6	78.9185	4,287.6	81.9186	4,287.6	77.5043	4,287.6	77.5737	4,287.6	74.7249	4,287.6	78.3142	4,287.6	75.2405	4,287.6	79.58	4,287.6	64.1431	4,287.6	74.6996	4,287.6	66.8578	4,287.6	71.268	4,287.6	67.0414	4,287.6	69.1193	4,287.6	67.2451	4,287.6	66.002	4,287.6	67.6549	4,287.6	68.6647	4,287.6	67.9495	4,287.6	59.5826	4,287.6	68.2148	4,287.6	57.0679	4,287.6	61.7418	4,287.6	68.6449	4,287.6	57.5295	4,287.6	68.7891	4,287.6	67.1078
4,438.48	84.0156	4,438.48	83.0655	4,438.48	83.5666	4,438.48	82.3362	4,438.48	84.109	4,438.48	81.5065	4,438.48	80.1833	4,438.48	80.3366	4,438.48	80.2726	4,438.48	78.9626	4,438.48	80.0635	4,438.48	77.2201	4,438.48	74.3606	4,438.48	77.0474	4,438.48	79.7439	4,438.48	72.0332	4,438.48	79.8792	4,438.48	72.1286	4,438.48	72.28	4,438.48	66.8512	4,438.48	73.1294	4,438.48	67.1326	4,438.48	54.4638	4,438.48	64.3825	4,438.48	65.7048	4,438.48	64.7534	4,438.48	66.1287	4,438.48	68.2647	4,438.48	63.0616	4,438.48	65.3319	4,438.48	56.142	4,438.48	57.8967	4,438.48	68.0987	4,438.48	57.968	4,438.48	65.6061	4,438.48	64.4858
4,595.21	83.7155	4,595.21	83.3495	4,595.21	82.2858	4,595.21	82.984	4,595.21	84.4842	4,595.21	80.4462	4,595.21	80.9628	4,595.21	80.068	4,595.21	80.832	4,595.21	77.7032	4,595.21	76.9926	4,595.21	78.0554	4,595.21	79.6859	4,595.21	71.1178	4,595.21	80.8858	4,595.21	73.8733	4,595.21	77.8949	4,595.21	66.9207	4,595.21	75.5654	4,595.21	66.7135	4,595.21	70.1378	4,595.21	65.3441	4,595.21	57.3483	4,595.21	65.2203	4,595.21	59.3624	4,595.21	65.4871	4,595.21	63.8764	4,595.21	66.9343	4,595.21	64.1796	4,595.21	65.9554	4,595.21	56.6998	4,595.21	62.4809	4,595.21	66.595	4,595.21	48.9824	4,595.21	67.0563	4,595.21	65.7199
4,756.35	84.0292	4,756.35	81.5125	4,756.35	82.0904	4,756.35	82.2297	4,756.35	83.8173	4,756.35	80.4936	4,756.35	82.1526	4,756.35	79.7563	4,756.35	80.2049	4,756.35	79.861	4,756.35	75.2983	4,756.35	74.9314	4,756.35	82.7382	4,756.35	76.1153	4,756.35	80.685	4,756.35	71.0113	4,756.35	76.1095	4,756.35	68.5223	4,756.35	74.8255	4,756.35	66.2025	4,756.35	68.8363	4,756.35	65.5252	4,756.35	64.0275	4,756.35	65.4739	4,756.35	60.2233	4,756.35	65.0396	4,756.35	62.5858	4,756.35	66.8276	4,756.35	61.5809	4,756.35	64.7859	4,756.35	53.9822	4,756.35	63.094	4,756.35	65.8932	4,756.35	50.9576	4,756.35	65.854	4,756.35	63.8848
4,924.8	84.8493	4,924.8	83.4743	4,924.8	82.8417	4,924.8	82.9126	4,924.8	83.4293	4,924.8	80.5419	4,924.8	81.064	4,924.8	81.0431	4,924.8	78.9886	4,924.8	77.6825	4,924.8	76.0526	4,924.8	75.0655	4,924.8	82.7211	4,924.8	72.8369	4,924.8	77.7013	4,924.8	73.2907	4,924.8	76.3198	4,924.8	70.6673	4,924.8	73.6731	4,924.8	66.0117	4,924.8	71.5103	4,924.8	63.2399	4,924.8	62.7018	4,924.8	63.3701	4,924.8	66.2183	4,924.8	65.2035	4,924.8	59.6286	4,924.8	66.5848	4,924.8	64.8391	4,924.8	67.387	4,924.8	54.919	4,924.8	61.1746	4,924.8	65.7872	4,924.8	47.0725	4,924.8	68.2287	4,924.8	63.7556
5,097.66	84.2164	5,097.66	83.3698	5,097.66	82.789	5,097.66	82.2806	5,097.66	83.0192	5,097.66	81.1391	5,097.66	83.2136	5,097.66	79.9295	5,097.66	76.3293	5,097.66	77.379	5,097.66	79.6392	5,097.66	74.1002	5,097.66	81.5669	5,097.66	75.664	5,097.66	75.7732	5,097.66	73.0647	5,097.66	74.547	5,097.66	68.6578	5,097.66	70.0003	5,097.66	66.3065	5,097.66	65.5868	5,097.66	65.9373	5,097.66	61.5936	5,097.66	66.0862	5,097.66	65.3434	5,097.66	66.0307	5,097.66	51.4522	5,097.66	66.3986	5,097.66	63.3204	5,097.66	67.1059	5,097.66	55.8523	5,097.66	63.6974	5,097.66	64.6196	5,097.66	47.971	5,097.66	68.3368	5,097.66	59.7021
5,277.83	84.0547	5,277.83	83.4	5,277.83	83.2022	5,277.83	80.7358	5,277.83	81.1733	5,277.83	82.4951	5,277.83	84.455	5,277.83	78.9148	5,277.83	74.9997	5,277.83	78.2532	5,277.83	81.2084	5,277.83	76.2723	5,277.83	78.8406	5,277.83	74.3021	5,277.83	76.8081	5,277.83	72.5811	5,277.83	73.7232	5,277.83	69.328	5,277.83	71.2613	5,277.83	67.2929	5,277.83	66.1851	5,277.83	62.4478	5,277.83	61.2455	5,277.83	64.7991	5,277.83	66.9027	5,277.83	62.9881	5,277.83	58.7765	5,277.83	67.3252	5,277.83	65.46	5,277.83	67.1514	5,277.83	56.7407	5,277.83	62.7605	5,277.83	64.3363	5,277.83	55.5115	5,277.83	66.0146	5,277.83	60.6157
5,463.87	83.3393	5,463.87	83.2865	5,463.87	83.5035	5,463.87	82.1211	5,463.87	80.9248	5,463.87	82.0676	5,463.87	83.6171	5,463.87	78.6749	5,463.87	77.9815	5,463.87	77.6639	5,463.87	79.4898	5,463.87	76.1484	5,463.87	76.4492	5,463.87	74.1874	5,463.87	76.752	5,463.87	72.1856	5,463.87	73.6112	5,463.87	64.3313	5,463.87	73.2437	5,463.87	66.6832	5,463.87	65.2655	5,463.87	62.2198	5,463.87	56.9688	5,463.87	65.6129	5,463.87	64.2803	5,463.87	62.7884	5,463.87	56.976	5,463.87	67.3838	5,463.87	65.7627	5,463.87	65.6548	5,463.87	54.9927	5,463.87	63.096	5,463.87	66.8494	5,463.87	51.7604	5,463.87	65.2078	5,463.87	62.7041
5,657.23	84.0742	5,657.23	82.4878	5,657.23	84.4817	5,657.23	82.4042	5,657.23	81.6902	5,657.23	81.3883	5,657.23	82.6515	5,657.23	79.4711	5,657.23	80.0134	5,657.23	77.5651	5,657.23	77.0473	5,657.23	75.4634	5,657.23	76.1392	5,657.23	71.4377	5,657.23	77.3876	5,657.23	72.7612	5,657.23	74.3037	5,657.23	69.4159	5,657.23	72.782	5,657.23	66.3512	5,657.23	64.6552	5,657.23	62.0138	5,657.23	55.7722	5,657.23	65.7823	5,657.23	60.2256	5,657.23	63.5169	5,657.23	54.7292	5,657.23	65.8276	5,657.23	63.7975	5,657.23	66.3189	5,657.23	45.4618	5,657.23	63.8898	5,657.23	65.8133	5,657.23	57.3879	5,657.23	64.8814	5,657.23	59.4057
5,856.45	83.8167	5,856.45	83.222	5,856.45	83.9036	5,856.45	83.7429	5,856.45	80.9824	5,856.45	81.0256	5,856.45	80.9971	5,856.45	79.4074	5,856.45	78.8459	5,856.45	77.7538	5,856.45	77.3144	5,856.45	76.0334	5,856.45	76.483	5,856.45	75.2125	5,856.45	77.3655	5,856.45	72.7421	5,856.45	76.039	5,856.45	69.1298	5,856.45	73.6173	5,856.45	67.3965	5,856.45	61.4758	5,856.45	61.5597	5,856.45	61.1581	5,856.45	66.1852	5,856.45	62.2061	5,856.45	66.229	5,856.45	61.5185	5,856.45	65.3722	5,856.45	65.5201	5,856.45	65.4699	5,856.45	60.3319	5,856.45	63.5468	5,856.45	63.8968	5,856.45	56.1613	5,856.45	65.1228	5,856.45	59.8155
6,062.99	83.8029	6,062.99	83.37	6,062.99	83.8966	6,062.99	83.8175	6,062.99	79.0776	6,062.99	80.4461	6,062.99	81.0972	6,062.99	80.0818	6,062.99	79.3672	6,062.99	78.0893	6,062.99	75.3913	6,062.99	76.9983	6,062.99	76.83	6,062.99	74.4245	6,062.99	77.6328	6,062.99	73.7392	6,062.99	76.689	6,062.99	70.1398	6,062.99	73.0269	6,062.99	65.8374	6,062.99	68.9369	6,062.99	63.394	6,062.99	65.2851	6,062.99	64.4783	6,062.99	53.558	6,062.99	66.4188	6,062.99	61.3597	6,062.99	64.2143	6,062.99	61.1633	6,062.99	66.0369	6,062.99	60.2306	6,062.99	64.5125	6,062.99	60.4117	6,062.99	48.2123	6,062.99	62.97	6,062.99	61.0118
6,276.86	83.358	6,276.86	83.7539	6,276.86	83.9638	6,276.86	83.5064	6,276.86	82.3177	6,276.86	81.3262	6,276.86	81.3233	6,276.86	80.4078	6,276.86	79.1166	6,276.86	78.6583	6,276.86	73.1699	6,276.86	76.4016	6,276.86	76.873	6,276.86	75.9276	6,276.86	77.0208	6,276.86	71.1348	6,276.86	74.6034	6,276.86	69.8628	6,276.86	71.3865	6,276.86	63.6575	6,276.86	69.4463	6,276.86	63.3415	6,276.86	61.4789	6,276.86	63.3109	6,276.86	42.057	6,276.86	65.342	6,276.86	62.6534	6,276.86	66.3771	6,276.86	62.9311	6,276.86	67.3331	6,276.86	57.7115	6,276.86	64.731	6,276.86	60.4932	6,276.86	56.6446	6,276.86	65.3715	6,276.86	56.4612
6,498.05	83.8312	6,498.05	84.6356	6,498.05	85.2265	6,498.05	83.5417	6,498.05	83.7421	6,498.05	81.8135	6,498.05	81.0321	6,498.05	80.453	6,498.05	80.9931	6,498.05	79.4227	6,498.05	73.1773	6,498.05	76.6757	6,498.05	77.5745	6,498.05	74.1333	6,498.05	76.0941	6,498.05	72.2358	6,498.05	71.5794	6,498.05	69.393	6,498.05	70.168	6,498.05	65.7397	6,498.05	66.2909	6,498.05	62.2759	6,498.05	61.4315	6,498.05	63.0053	6,498.05	56.5798	6,498.05	64.3406	6,498.05	56.8049	6,498.05	66.2825	6,498.05	58.9763	6,498.05	67.7012	6,498.05	61.1547	6,498.05	64.943	6,498.05	61.6944	6,498.05	58.9896	6,498.05	63.3133	6,498.05	53.8418
6,726.56	83.3865	6,726.56	84.455	6,726.56	84.8927	6,726.56	83.2007	6,726.56	83.427	6,726.56	82.5907	6,726.56	81.2178	6,726.56	79.9627	6,726.56	81.7297	6,726.56	79.6004	6,726.56	73.1333	6,726.56	75.7163	6,726.56	77.4804	6,726.56	74.5816	6,726.56	72.1646	6,726.56	70.4013	6,726.56	69.6909	6,726.56	69.3708	6,726.56	69.8252	6,726.56	63.4107	6,726.56	58.5668	6,726.56	62.5845	6,726.56	66.1357	6,726.56	62.736	6,726.56	56.9705	6,726.56	63.4511	6,726.56	58.4132	6,726.56	66.1662	6,726.56	57.5307	6,726.56	68.1894	6,726.56	59.3404	6,726.56	64.6489	6,726.56	57.0781	6,726.56	60.7965	6,726.56	63.4282	6,726.56	54.6794
6,963.87	83.9894	6,963.87	84.1964	6,963.87	83.6727	6,963.87	83.5604	6,963.87	82.9255	6,963.87	82.0893	6,963.87	82.3077	6,963.87	80.837	6,963.87	81.9374	6,963.87	78.989	6,963.87	73.5599	6,963.87	76.2644	6,963.87	76.7494	6,963.87	75.0239	6,963.87	67.3117	6,963.87	72.6146	6,963.87	73.6395	6,963.87	68.8841	6,963.87	58.9561	6,963.87	64.4679	6,963.87	65.233	6,963.87	62.1861	6,963.87	64.9808	6,963.87	62.4013	6,963.87	60.1686	6,963.87	62.9966	6,963.87	58.0177	6,963.87	65.9252	6,963.87	55.7973	6,963.87	67.37	6,963.87	60.2661	6,963.87	65.5733	6,963.87	60.3003	6,963.87	60.2817	6,963.87	63.4248	6,963.87	55.1935
7,209.96	84.685	7,209.96	84.1284	7,209.96	83.8976	7,209.96	84.2023	7,209.96	82.5744	7,209.96	81.944	7,209.96	82.873	7,209.96	80.8872	7,209.96	79.9669	7,209.96	78.9585	7,209.96	75.9812	7,209.96	77.6776	7,209.96	74.2493	7,209.96	75.3049	7,209.96	76.3044	7,209.96	72.1882	7,209.96	73.2216	7,209.96	69.8408	7,209.96	71.3906	7,209.96	63.1252	7,209.96	68.5326	7,209.96	63.5801	7,209.96	67.0345	7,209.96	60.6019	7,209.96	62.1551	7,209.96	65.0455	7,209.96	51.4815	7,209.96	65.5213	7,209.96	56.6458	7,209.96	67.8068	7,209.96	57.8293	7,209.96	66.5045	7,209.96	60.1134	7,209.96	61.3108	7,209.96	63.5042	7,209.96	54.6694
7,464.84	84.5305	7,464.84	83.9742	7,464.84	84.752	7,464.84	84.2318	7,464.84	84.0945	7,464.84	82.3222	7,464.84	83.1648	7,464.84	80.9979	7,464.84	78.7437	7,464.84	79.5724	7,464.84	76.6857	7,464.84	77.1628	7,464.84	70.057	7,464.84	75.2375	7,464.84	78.5263	7,464.84	70.9528	7,464.84	74.0228	7,464.84	69.5126	7,464.84	73.0504	7,464.84	63.4726	7,464.84	61.4198	7,464.84	61.7172	7,464.84	67.8354	7,464.84	60.3945	7,464.84	59.6733	7,464.84	64.9532	7,464.84	60.7568	7,464.84	64.4378	7,464.84	58.6681	7,464.84	66.6455	7,464.84	58.9489	7,464.84	65.633	7,464.84	58.3553	7,464.84	61.1237	7,464.84	62.7008	7,464.84	57.2189
7,727.05	85.2703	7,727.05	85.0925	7,727.05	84.7675	7,727.05	84.744	7,727.05	84.5304	7,727.05	82.7741	7,727.05	82.8704	7,727.05	81.0651	7,727.05	79.4235	7,727.05	80.369	7,727.05	76.8846	7,727.05	77.2049	7,727.05	69.11	7,727.05	75.1761	7,727.05	77.2295	7,727.05	71.6068	7,727.05	71.0529	7,727.05	66.9572	7,727.05	65.8486	7,727.05	63.6966	7,727.05	66.3305	7,727.05	60.0939	7,727.05	66.3024	7,727.05	59.1931	7,727.05	56.013	7,727.05	64.5177	7,727.05	61.5123	7,727.05	64.2379	7,727.05	58.191	7,727.05	66.6567	7,727.05	61.1671	7,727.05	66.676	7,727.05	53.9604	7,727.05	60.3101	7,727.05	60.8022	7,727.05	54.107
7,999.51	85.2115	7,999.51	84.7762	7,999.51	84.1697	7,999.51	84.4088	7,999.51	85.6583	7,999.51	82.8692	7,999.51	81.2677	7,999.51	81.4836	7,999.51	82.0933	7,999.51	80.2541	7,999.51	75.684	7,999.51	77.1216	7,999.51	73.6993	7,999.51	73.6318	7,999.51	72.4729	7,999.51	71.7808	7,999.51	67.9463	7,999.51	68.3493	7,999.51	65.8203	7,999.51	63.4866	7,999.51	67.2877	7,999.51	58.2691	7,999.51	67.272	7,999.51	58.8739	7,999.51	63.0518	7,999.51	64.5696	7,999.51	60.7478	7,999.51	64.6784	7,999.51	46.6528	7,999.51	66.1026	7,999.51	62.5027	7,999.51	64.9488	7,999.51	58.8037	7,999.51	64.4855	7,999.51	60.4732	7,999.51	53.6624
8,282.23	86.0302	8,282.23	85.2028	8,282.23	85.4897	8,282.23	84.922	8,282.23	85.482	8,282.23	83.4746	8,282.23	81.3824	8,282.23	81.4426	8,282.23	82.9712	8,282.23	79.8075	8,282.23	78.1105	8,282.23	76.6545	8,282.23	73.9863	8,282.23	73.8127	8,282.23	72.5659	8,282.23	69.6764	8,282.23	71.7442	8,282.23	69.6583	8,282.23	71.5889	8,282.23	59.3097	8,282.23	64.1798	8,282.23	60.9049	8,282.23	65.665	8,282.23	60.0928	8,282.23	61.9675	8,282.23	61.867	8,282.23	65.1669	8,282.23	63.5364	8,282.23	53.773	8,282.23	65.629	8,282.23	61.0646	8,282.23	66.6586	8,282.23	48.7856	8,282.23	65.3479	8,282.23	63.8066	8,282.23	52.1403
8,573.73	85.9216	8,573.73	84.6015	8,573.73	86.8408	8,573.73	84.5354	8,573.73	86.0784	8,573.73	83.4378	8,573.73	82.8705	8,573.73	81.3936	8,573.73	83.2923	8,573.73	78.982	8,573.73	81.3731	8,573.73	77.2166	8,573.73	70.8804	8,573.73	73.0309	8,573.73	78.663	8,573.73	68.5008	8,573.73	73.7831	8,573.73	66.68	8,573.73	72.8894	8,573.73	59.8897	8,573.73	67.2377	8,573.73	59.1316	8,573.73	69.1173	8,573.73	58.9257	8,573.73	59.9941	8,573.73	61.3472	8,573.73	62.7275	8,573.73	64.5912	8,573.73	61.4833	8,573.73	66.7759	8,573.73	64.0156	8,573.73	65.5029	8,573.73	55.1178	8,573.73	66.3971	8,573.73	62.7266	8,573.73	53.9911
8,876.95	85.4059	8,876.95	85.4069	8,876.95	86.0875	8,876.95	84.9164	8,876.95	88.1453	8,876.95	83.4745	8,876.95	84.4742	8,876.95	81.9074	8,876.95	83.221	8,876.95	79.6198	8,876.95	82.5745	8,876.95	77.3472	8,876.95	63.7936	8,876.95	72.8316	8,876.95	79.3402	8,876.95	70.0871	8,876.95	69.4786	8,876.95	66.8243	8,876.95	71.5004	8,876.95	60.1117	8,876.95	70.6379	8,876.95	60.2462	8,876.95	68.4516	8,876.95	59.0036	8,876.95	61.7142	8,876.95	59.5622	8,876.95	50.9897	8,876.95	64.522	8,876.95	60.3333	8,876.95	67.0369	8,876.95	62.2971	8,876.95	66.9192	8,876.95	53.4123	8,876.95	64.5383	8,876.95	63.706	8,876.95	53.0916
9,188.96	85.7956	9,188.96	85.7548	9,188.96	86.4761	9,188.96	84.6069	9,188.96	87.1548	9,188.96	84.338	9,188.96	86.013	9,188.96	82.5199	9,188.96	81.8399	9,188.96	79.2546	9,188.96	83.4558	9,188.96	77.4961	9,188.96	71.0501	9,188.96	73.9263	9,188.96	78.6238	9,188.96	69.8935	9,188.96	72.2434	9,188.96	67.2942	9,188.96	71.8865	9,188.96	60.1025	9,188.96	70.5734	9,188.96	59.3692	9,188.96	66.7465	9,188.96	56.6804	9,188.96	63.7214	9,188.96	63.6656	9,188.96	57.0576	9,188.96	65.2984	9,188.96	50.1686	9,188.96	67.1319	9,188.96	58.9345	9,188.96	66.1621	9,188.96	54.8647	9,188.96	66.9573	9,188.96	60.5222	9,188.96	55.8104
9,514.16	85.4044	9,514.16	85.5481	9,514.16	85.5798	9,514.16	85.1306	9,514.16	85.1008	9,514.16	84.7362	9,514.16	86.5329	9,514.16	82.4507	9,514.16	80.2083	9,514.16	78.7673	9,514.16	81.812	9,514.16	77.2801	9,514.16	75.9635	9,514.16	73.6575	9,514.16	76.1549	9,514.16	70.1928	9,514.16	73.0131	9,514.16	68.6375	9,514.16	70.6356	9,514.16	58.4031	9,514.16	72.2949	9,514.16	56.365	9,514.16	66.6768	9,514.16	57.0378	9,514.16	58.2409	9,514.16	64.0884	9,514.16	62.1446	9,514.16	65.6921	9,514.16	53.278	9,514.16	66.2831	9,514.16	58.8737	9,514.16	65.3677	9,514.16	56.2913	9,514.16	66.5875	9,514.16	60.1846	9,514.16	58.4153
9,849.61	85.2743	9,849.61	85.582	9,849.61	86.0476	9,849.61	85.762	9,849.61	85.2058	9,849.61	83.8502	9,849.61	85.3874	9,849.61	82.3954	9,849.61	80.6957	9,849.61	79.6807	9,849.61	82.3888	9,849.61	77.8113	9,849.61	76.5541	9,849.61	75.012	9,849.61	76.2138	9,849.61	71.1617	9,849.61	73.7817	9,849.61	69.0308	9,849.61	74.2592	9,849.61	62.1447	9,849.61	74.5556	9,849.61	60.2671	9,849.61	68.98	9,849.61	55.2591	9,849.61	50.4475	9,849.61	62.5207	9,849.61	60.3674	9,849.61	66.2015	9,849.61	51.0282	9,849.61	65.3672	9,849.61	58.3463	9,849.61	66.6947	9,849.61	46.4758	9,849.61	68.4172	9,849.61	62.5721	9,849.61	58.6791
10,196.8	84.1989	10,196.8	85.9217	10,196.8	86.1919	10,196.8	85.4113	10,196.8	85.5546	10,196.8	83.8602	10,196.8	84.3493	10,196.8	83.4082	10,196.8	80.7711	10,196.8	80.1123	10,196.8	82.4538	10,196.8	78.1214	10,196.8	76.3891	10,196.8	74.1463	10,196.8	73.2795	10,196.8	71.2148	10,196.8	77.1672	10,196.8	67.3119	10,196.8	72.4698	10,196.8	62.7443	10,196.8	76.0953	10,196.8	59.8675	10,196.8	68.6355	10,196.8	54.8224	10,196.8	54.7716	10,196.8	62.9899	10,196.8	53.9661	10,196.8	64.9762	10,196.8	58.0503	10,196.8	64.4485	10,196.8	58.4249	10,196.8	68.1682	10,196.8	55.217	10,196.8	67.0699	10,196.8	60.4567	10,196.8	58.137
10,555.7	84.5488	10,555.7	86.0056	10,555.7	85.2051	10,555.7	85.5562	10,555.7	85.1274	10,555.7	84.8437	10,555.7	84.1319	10,555.7	83.5285	10,555.7	82.456	10,555.7	80.7225	10,555.7	82.7807	10,555.7	78.1715	10,555.7	76.8373	10,555.7	74.3092	10,555.7	74.5076	10,555.7	71.86	10,555.7	75.3384	10,555.7	67.5648	10,555.7	72.7964	10,555.7	64.8807	10,555.7	75.1424	10,555.7	57.7646	10,555.7	68.1082	10,555.7	56.2555	10,555.7	50.6624	10,555.7	64.3611	10,555.7	51.0361	10,555.7	65.1077	10,555.7	56.1538	10,555.7	65.2085	10,555.7	42.1912	10,555.7	67.8208	10,555.7	57.0349	10,555.7	67.6023	10,555.7	60.682	10,555.7	59.6325
10,927.7	85.0228	10,927.7	85.7985	10,927.7	85.9486	10,927.7	86.0163	10,927.7	85.6918	10,927.7	84.9318	10,927.7	84.9834	10,927.7	83.1561	10,927.7	83.1798	10,927.7	80.9921	10,927.7	81.5739	10,927.7	77.8837	10,927.7	77.4645	10,927.7	74.3493	10,927.7	70.474	10,927.7	70.6106	10,927.7	74.5593	10,927.7	66.6398	10,927.7	73.083	10,927.7	62.9617	10,927.7	75.434	10,927.7	54.4751	10,927.7	67.7767	10,927.7	49.5585	10,927.7	50.0906	10,927.7	63.0573	10,927.7	46.1887	10,927.7	64.7395	10,927.7	58.4424	10,927.7	63.4285	10,927.7	49.7976	10,927.7	66.5905	10,927.7	54.0638	10,927.7	66.5414	10,927.7	58.4617	10,927.7	59.5129
11,313	86.0552	11,313	86.8146	11,313	86.1185	11,313	86.2366	11,313	86.3339	11,313	84.1201	11,313	85.7422	11,313	83.5081	11,313	82.022	11,313	79.9787	11,313	80.4552	11,313	76.7336	11,313	77.5504	11,313	71.906	11,313	60.3294	11,313	69.6028	11,313	76.588	11,313	65.3171	11,313	73.9506	11,313	61.1132	11,313	75.924	11,313	49.9948	11,313	68.2346	11,313	54.5131	11,313	54.0744	11,313	62.4607	11,313	41.18	11,313	63.8232	11,313	38.086	11,313	61.7795	11,313	41.4193	11,313	64.5105	11,313	54.9719	11,313	62.7121	11,313	53.8913	11,313	56.8434
11,712.9	86.9479	11,712.9	87.4863	11,712.9	86.9662	11,712.9	86.2902	11,712.9	85.4901	11,712.9	84.6885	11,712.9	85.9124	11,712.9	83.4837	11,712.9	81.5867	11,712.9	79.1475	11,712.9	81.4098	11,712.9	76.2518	11,712.9	75.5931	11,712.9	71.2	11,712.9	67.8688	11,712.9	69.1622	11,712.9	75.5699	11,712.9	64.8405	11,712.9	73.786	11,712.9	59.7604	11,712.9	76.0751	11,712.9	50.6863	11,712.9	69.9719	11,712.9	53.645	11,712.9	50.625	11,712.9	62.6835	11,712.9	53.055	11,712.9	63.2303	11,712.9	55.6791	11,712.9	58.9492	11,712.9	49.4479	11,712.9	62.418	11,712.9	51.6935	11,712.9	62.7156	11,712.9	45.3102	11,712.9	60.1688
12,126	87.6989	12,126	87.6519	12,126	87.606	12,126	86.9531	12,126	86.8792	12,126	85.2048	12,126	85.6011	12,126	82.7282	12,126	82.6023	12,126	79.476	12,126	80.8775	12,126	76.2824	12,126	75.6428	12,126	70.7375	12,126	67.3827	12,126	68.9816	12,126	71.8638	12,126	64.269	12,126	74.2451	12,126	60.6047	12,126	76.506	12,126	47.0411	12,126	69.0255	12,126	50.2311	12,126	55.3384	12,126	60.8959	12,126	53.7338	12,126	62.4038	12,126	50.5772	12,126	57.7458	12,126	28.7642	12,126	62.4175	12,126	46.1334	12,126	63.4848	12,126	46.0005	12,126	58.9422
12,553.7	88.3351	12,553.7	88.0022	12,553.7	87.7064	12,553.7	87.3208	12,553.7	86.7645	12,553.7	84.8486	12,553.7	84.9775	12,553.7	82.7325	12,553.7	82.5254	12,553.7	79.2152	12,553.7	80.1269	12,553.7	76.0998	12,553.7	74.1573	12,553.7	70.0753	12,553.7	69.0471	12,553.7	68.5295	12,553.7	71.3296	12,553.7	63.434	12,553.7	75.5274	12,553.7	60.9437	12,553.7	76.3252	12,553.7	24.4841	12,553.7	68.783	12,553.7	50.9017	12,553.7	58.1621	12,553.7	58.1963	12,553.7	49.7945	12,553.7	63.0633	12,553.7	27.339	12,553.7	56.7867	12,553.7	39.6835	12,553.7	61.3186	12,553.7	52.3121	12,553.7	60.4138	12,553.7	46.217	12,553.7	56.1564
12,996.1	88.5445	12,996.1	88.3911	12,996.1	88.2418	12,996.1	87.1984	12,996.1	86.8317	12,996.1	84.7943	12,996.1	85.3776	12,996.1	82.8104	12,996.1	81.4696	12,996.1	78.1596	12,996.1	80.2024	12,996.1	75.9742	12,996.1	73.7785	12,996.1	70.2068	12,996.1	69.5138	12,996.1	67.8335	12,996.1	70.9	12,996.1	63.9574	12,996.1	75.204	12,996.1	57.6501	12,996.1	76.2211	12,996.1	28.3118	12,996.1	67.5656	12,996.1	48.8639	12,996.1	58.7679	12,996.1	59.1984	12,996.1	46.5522	12,996.1	61.609	12,996.1	49.7143	12,996.1	59.811	12,996.1	46.9934	12,996.1	61.1178	12,996.1	51.4062	12,996.1	58.1599	12,996.1	46.3858	12,996.1	56.0244
13,454.6	88.5076	13,454.6	88.5417	13,454.6	88.1639	13,454.6	87.2003	13,454.6	86.9735	13,454.6	84.7546	13,454.6	86.7107	13,454.6	81.8992	13,454.6	81.6874	13,454.6	78.3239	13,454.6	79.9321	13,454.6	75.456	13,454.6	74.3752	13,454.6	68.9336	13,454.6	68.5526	13,454.6	67.2697	13,454.6	70.5195	13,454.6	62.3553	13,454.6	75.2928	13,454.6	57.4625	13,454.6	76.3048	13,454.6	34.278	13,454.6	66.4417	13,454.6	50.8373	13,454.6	55.0141	13,454.6	57.881	13,454.6	53.2783	13,454.6	60.86	13,454.6	43.1557	13,454.6	58.8348	13,454.6	42.9727	13,454.6	59.1739	13,454.6	55.8567	13,454.6	57.4776	13,454.6	50.5315	13,454.6	54.8268
13,929.2	88.7715	13,929.2	88.607	13,929.2	88.6732	13,929.2	87.1655	13,929.2	87.4833	13,929.2	83.9749	13,929.2	86.4061	13,929.2	81.5293	13,929.2	81.3984	13,929.2	77.1701	13,929.2	79.5121	13,929.2	73.686	13,929.2	73.3381	13,929.2	66.7673	13,929.2	69.157	13,929.2	64.7355	13,929.2	65.8566	13,929.2	59.5117	13,929.2	75.091	13,929.2	56.1069	13,929.2	76.0637	13,929.2	42.4864	13,929.2	66.2206	13,929.2	46.9462	13,929.2	55.3341	13,929.2	56.1253	13,929.2	52.5163	13,929.2	59.9866	13,929.2	31.4608	13,929.2	53.636	13,929.2	49.511	13,929.2	56.1497	13,929.2	53.6751	13,929.2	54.1764	13,929.2	52.0684	13,929.2	52.8253
14,419.9	88.7376	14,419.9	88.446	14,419.9	88.6288	14,419.9	86.4936	14,419.9	86.6868	14,419.9	82.9459	14,419.9	84.911	14,419.9	80.1906	14,419.9	81.3027	14,419.9	74.6589	14,419.9	78.0416	14,419.9	71.1528	14,419.9	71.3675	14,419.9	62.2692	14,419.9	64.2133	14,419.9	60.4581	14,419.9	67.1534	14,419.9	58.2283	14,419.9	73.9124	14,419.9	45.6237	14,419.9	75.126	14,419.9	48.201	14,419.9	64.5863	14,419.9	44.6452	14,419.9	54.818	14,419.9	55.0153	14,419.9	51.2531	14,419.9	55.8046	14,419.9	29.879	14,419.9	50.9255	14,419.9	44.2841	14,419.9	50.526	14,419.9	50.7043	14,419.9	53.0224	14,419.9	48.9498	14,419.9	55.0561
14,928.2	88.132	14,928.2	87.8722	14,928.2	88.2658	14,928.2	85.6958	14,928.2	87.006	14,928.2	81.5796	14,928.2	83.3676	14,928.2	78.0221	14,928.2	80.2499	14,928.2	72.7174	14,928.2	75.2043	14,928.2	66.3773	14,928.2	67.7552	14,928.2	60.4415	14,928.2	62.3438	14,928.2	57.6036	14,928.2	63.0986	14,928.2	56.6853	14,928.2	73.7526	14,928.2	45.8411	14,928.2	74.7944	14,928.2	45.3813	14,928.2	64.203	14,928.2	45.6499	14,928.2	47.3841	14,928.2	53.6274	14,928.2	51.3504	14,928.2	53.0886	14,928.2	43.3287	14,928.2	51.211	14,928.2	45.7463	14,928.2	51.6374	14,928.2	46.6164	14,928.2	54.8806	14,928.2	53.5549	14,928.2	54.3393
15,455.6	86.7485	15,455.6	86.7544	15,455.6	86.8511	15,455.6	84.2194	15,455.6	85.794	15,455.6	80.0413	15,455.6	82.7161	15,455.6	77.2842	15,455.6	78.1837	15,455.6	70.5346	15,455.6	74.1569	15,455.6	67.6814	15,455.6	65.8388	15,455.6	62.1295	15,455.6	64.4741	15,455.6	59.4869	15,455.6	63.6199	15,455.6	59.6814	15,455.6	74.5891	15,455.6	52.1235	15,455.6	75.2263	15,455.6	46.8894	15,455.6	65.1123	15,455.6	48.3109	15,455.6	50.1733	15,455.6	56.9795	15,455.6	52.9236	15,455.6	55.2297	15,455.6	45.4138	15,455.6	55.162	15,455.6	48.9969	15,455.6	56.3812	15,455.6	43.4926	15,455.6	52.0227	15,455.6	54.7756	15,455.6	54.7281
16,000.5	84.8452	16,000.5	85.0292	16,000.5	84.4462	16,000.5	82.3846	16,000.5	83.6453	16,000.5	79.7049	16,000.5	81.0341	16,000.5	77.093	16,000.5	76.4392	16,000.5	72.9114	16,000.5	74.2658	16,000.5	69.6974	16,000.5	70.0307	16,000.5	65.7615	16,000.5	64.7517	16,000.5	61.8963	16,000.5	64.0966	16,000.5	60.0263	16,000.5	75.3438	16,000.5	54.2844	16,000.5	75.8134	16,000.5	45.8072	16,000.5	67.2047	16,000.5	46.9355	16,000.5	53.0744	16,000.5	57.2737	16,000.5	51.3037	16,000.5	53.9963	16,000.5	47.8682	16,000.5	56.8466	16,000.5	48.776	16,000.5	57.5472	16,000.5	50.6464	16,000.5	50.4358	16,000.5	54.5641	16,000.5	55.4613
16,564.5	83.3194	16,564.5	83.5988	16,564.5	82.3865	16,564.5	81.8291	16,564.5	82.773	16,564.5	79.6118	16,564.5	80.4252	16,564.5	77.9302	16,564.5	76.8345	16,564.5	73.6882	16,564.5	73.4032	16,564.5	71.2411	16,564.5	71.3727	16,564.5	64.5634	16,564.5	66.8455	16,564.5	61.2747	16,564.5	63.9188	16,564.5	59.9469	16,564.5	75.5391	16,564.5	54.7707	16,564.5	76.0566	16,564.5	41.8331	16,564.5	68.0702	16,564.5	46.8917	16,564.5	54.4219	16,564.5	56.9118	16,564.5	49.97	16,564.5	53.986	16,564.5	45.3851	16,564.5	58.0357	16,564.5	50.8176	16,564.5	59.1264	16,564.5	50.2579	16,564.5	55.0223	16,564.5	51.651	16,564.5	56.5664
17,148.9	82.7248	17,148.9	83.6166	17,148.9	81.8684	17,148.9	82.0839	17,148.9	80.1594	17,148.9	80.365	17,148.9	78.6501	17,148.9	78.4096	17,148.9	74.9121	17,148.9	74.0789	17,148.9	72.9464	17,148.9	71.1645	17,148.9	68.804	17,148.9	66.1772	17,148.9	64.2745	17,148.9	61.0429	17,148.9	63.3135	17,148.9	60.2227	17,148.9	75.0514	17,148.9	54.2371	17,148.9	75.7852	17,148.9	41.722	17,148.9	68.3836	17,148.9	46.5045	17,148.9	58.1983	17,148.9	53.9449	17,148.9	51.2653	17,148.9	53.5332	17,148.9	51.0793	17,148.9	57.2535	17,148.9	47.2726	17,148.9	59.2457	17,148.9	52.9519	17,148.9	51.7083	17,148.9	51.2102	17,148.9	56.57
17,752.4	83.4644	17,752.4	84.2204	17,752.4	82.2973	17,752.4	83.2358	17,752.4	81.057	17,752.4	81.4627	17,752.4	78.6093	17,752.4	79.1921	17,752.4	74.6237	17,752.4	74.4252	17,752.4	71.592	17,752.4	71.5635	17,752.4	69.5155	17,752.4	65.0398	17,752.4	60.2835	17,752.4	59.7484	17,752.4	63.8641	17,752.4	58.8495	17,752.4	74.8904	17,752.4	54.7268	17,752.4	75.4361	17,752.4	42.6587	17,752.4	66.9894	17,752.4	47.5906	17,752.4	57.9581	17,752.4	52.559	17,752.4	52.0679	17,752.4	51.9339	17,752.4	51.5734	17,752.4	56.7345	17,752.4	48.8671	17,752.4	58.6298	17,752.4	53.1071	17,752.4	49.6798	17,752.4	49.1936	17,752.4	56.3588
18,379.4	84.882	18,379.4	85.4929	18,379.4	83.9011	18,379.4	84.3019	18,379.4	81.5547	18,379.4	81.8963	18,379.4	79.0312	18,379.4	79.3878	18,379.4	74.1843	18,379.4	74.2532	18,379.4	70.6913	18,379.4	70.8626	18,379.4	67.5444	18,379.4	65.1632	18,379.4	57.6338	18,379.4	58.637	18,379.4	61.7268	18,379.4	57.468	18,379.4	74.6798	18,379.4	54.4533	18,379.4	74.9858	18,379.4	41.4191	18,379.4	66.0889	18,379.4	46.7717	18,379.4	58.9242	18,379.4	49.5131	18,379.4	52.3056	18,379.4	50.1802	18,379.4	51.8929	18,379.4	54.9086	18,379.4	34.1548	18,379.4	56.71	18,379.4	55.1983	18,379.4	50.4013	18,379.4	48.8772	18,379.4	55.2056
19,026.9	85.6996	19,026.9	86.2101	19,026.9	84.8059	19,026.9	84.7082	19,026.9	82.2579	19,026.9	82.0236	19,026.9	78.5088	19,026.9	78.9218	19,026.9	74.9367	19,026.9	73.3044	19,026.9	70.3718	19,026.9	69.7103	19,026.9	68.8483	19,026.9	63.2529	19,026.9	56.2861	19,026.9	56.1387	19,026.9	59.3136	19,026.9	54.7407	19,026.9	73.8847	19,026.9	54.6118	19,026.9	73.8304	19,026.9	34.3055	19,026.9	63.6999	19,026.9	45.6017	19,026.9	59.1833	19,026.9	44.3304	19,026.9	52.0639	19,026.9	46.3303	19,026.9	47.9369	19,026.9	52.443	19,026.9	39.5927	19,026.9	54.8621	19,026.9	52.5917	19,026.9	46.5056	19,026.9	44.7138	19,026.9	52.9854
19,697.8	86.3237	19,697.8	86.3835	19,697.8	85.4585	19,697.8	84.9459	19,697.8	82.7452	19,697.8	81.7474	19,697.8	78.3379	19,697.8	78.51	19,697.8	75.1951	19,697.8	71.9921	19,697.8	71.7989	19,697.8	67.9794	19,697.8	67.2091	19,697.8	62.3971	19,697.8	52.5945	19,697.8	53.7435	19,697.8	58.4076	19,697.8	50.2394	19,697.8	72.5634	19,697.8	53.276	19,697.8	72.0539	19,697.8	30.8311	19,697.8	60.0495	19,697.8	42.9722	19,697.8	60.084	19,697.8	44.5064	19,697.8	52.7579	19,697.8	43.3304	19,697.8	49.6591	19,697.8	50.8249	19,697.8	42.4918	19,697.8	52.2304	19,697.8	50.7871	19,697.8	45.2454	19,697.8	43.1879	19,697.8	50.3544
19,999.5	86.4963	19,999.5	86.4735	19,999.5	85.6865	19,999.5	84.904	19,999.5	83.78	19,999.5	81.8162	19,999.5	78.5485	19,999.5	78.0704	19,999.5	74.48	19,999.5	71.6917	19,999.5	70.5716	19,999.5	66.0355	19,999.5	68.0944	19,999.5	59.9674	19,999.5	46.3086	19,999.5	51.4249	19,999.5	55.6996	19,999.5	45.5222	19,999.5	71.4491	19,999.5	51.8981	19,999.5	71.0089	19,999.5	33.5736	19,999.5	57.7054	19,999.5	47.8008	19,999.5	61.5574	19,999.5	37.6797	19,999.5	54.4779	19,999.5	48.7201	19,999.5	51.2629	19,999.5	56.3923	19,999.5	49.9202	19,999.5	56.3124	19,999.5	58.2313	19,999.5	41.3569	19,999.5	44.8176	19,999.5	50.9182
