"SPL Horizontal"
"On-Axis"		"10°"		"-10°"		"20°"		"-20°"		"30°"		"-30°"		"40°"		"-40°"		"50°"		"-50°"		"60°"		"-60°"		"70°"		"-70°"		"80°"		"-80°"		"90°"		"-90°"		"100°"		"-100°"		"110°"		"-110°"		"120°"		"-120°"		"130°"		"-130°"		"140°"		"-140°"		"150°"		"-150°"		"160°"		"-160°"		"170°"		"-170°"		"180°"
"Frequency / Hz"	"Sound Pressure Level / dB (re 20 µPa/V)  [2.83  V @ 1. m]"	"Frequency / Hz"	"Sound Pressure Level / dB (re 20 µPa/V)  [2.83  V @ 1. m]"	"Frequency / Hz"	"Sound Pressure Level / dB (re 20 µPa/V)  [2.83  V @ 1. m]"	"Frequency / Hz"	"Sound Pressure Level / dB (re 20 µPa/V)  [2.83  V @ 1. m]"	"Frequency / Hz"	"Sound Pressure Level / dB (re 20 µPa/V)  [2.83  V @ 1. m]"	"Frequency / Hz"	"Sound Pressure Level / dB (re 20 µPa/V)  [2.83  V @ 1. m]"	"Frequency / Hz"	"Sound Pressure Level / dB (re 20 µPa/V)  [2.83  V @ 1. m]"	"Frequency / Hz"	"Sound Pressure Level / dB (re 20 µPa/V)  [2.83  V @ 1. m]"	"Frequency / Hz"	"Sound Pressure Level / dB (re 20 µPa/V)  [2.83  V @ 1. m]"	"Frequency / Hz"	"Sound Pressure Level / dB (re 20 µPa/V)  [2.83  V @ 1. m]"	"Frequency / Hz"	"Sound Pressure Level / dB (re 20 µPa/V)  [2.83  V @ 1. m]"	"Frequency / Hz"	"Sound Pressure Level / dB (re 20 µPa/V)  [2.83  V @ 1. m]"	"Frequency / Hz"	"Sound Pressure Level / dB (re 20 µPa/V)  [2.83  V @ 1. m]"	"Frequency / Hz"	"Sound Pressure Level / dB (re 20 µPa/V)  [2.83  V @ 1. m]"	"Frequency / Hz"	"Sound Pressure Level / dB (re 20 µPa/V)  [2.83  V @ 1. m]"	"Frequency / Hz"	"Sound Pressure Level / dB (re 20 µPa/V)  [2.83  V @ 1. m]"	"Frequency / Hz"	"Sound Pressure Level / dB (re 20 µPa/V)  [2.83  V @ 1. m]"	"Frequency / Hz"	"Sound Pressure Level / dB (re 20 µPa/V)  [2.83  V @ 1. m]"	"Frequency / Hz"	"Sound Pressure Level / dB (re 20 µPa/V)  [2.83  V @ 1. m]"	"Frequency / Hz"	"Sound Pressure Level / dB (re 20 µPa/V)  [2.83  V @ 1. m]"	"Frequency / Hz"	"Sound Pressure Level / dB (re 20 µPa/V)  [2.83  V @ 1. m]"	"Frequency / Hz"	"Sound Pressure Level / dB (re 20 µPa/V)  [2.83  V @ 1. m]"	"Frequency / Hz"	"Sound Pressure Level / dB (re 20 µPa/V)  [2.83  V @ 1. m]"	"Frequency / Hz"	"Sound Pressure Level / dB (re 20 µPa/V)  [2.83  V @ 1. m]"	"Frequency / Hz"	"Sound Pressure Level / dB (re 20 µPa/V)  [2.83  V @ 1. m]"	"Frequency / Hz"	"Sound Pressure Level / dB (re 20 µPa/V)  [2.83  V @ 1. m]"	"Frequency / Hz"	"Sound Pressure Level / dB (re 20 µPa/V)  [2.83  V @ 1. m]"	"Frequency / Hz"	"Sound Pressure Level / dB (re 20 µPa/V)  [2.83  V @ 1. m]"	"Frequency / Hz"	"Sound Pressure Level / dB (re 20 µPa/V)  [2.83  V @ 1. m]"	"Frequency / Hz"	"Sound Pressure Level / dB (re 20 µPa/V)  [2.83  V @ 1. m]"	"Frequency / Hz"	"Sound Pressure Level / dB (re 20 µPa/V)  [2.83  V @ 1. m]"	"Frequency / Hz"	"Sound Pressure Level / dB (re 20 µPa/V)  [2.83  V @ 1. m]"	"Frequency / Hz"	"Sound Pressure Level / dB (re 20 µPa/V)  [2.83  V @ 1. m]"	"Frequency / Hz"	"Sound Pressure Level / dB (re 20 µPa/V)  [2.83  V @ 1. m]"	"Frequency / Hz"	"Sound Pressure Level / dB (re 20 µPa/V)  [2.83  V @ 1. m]"	"Frequency / Hz"	"Sound Pressure Level / dB (re 20 µPa/V)  [2.83  V @ 1. m]"
20.5078	30.7638	20.5078	30.096	20.5078	31.5514	20.5078	29.617	20.5078	32.4312	20.5078	29.45	20.5078	33.3913	20.5078	29.7325	20.5078	34.418	20.5078	30.5152	20.5078	35.4892	20.5078	31.7033	20.5078	36.5769	20.5078	33.1213	20.5078	37.6528	20.5078	34.6117	20.5078	38.6919	20.5078	36.0735	20.5078	39.6736	20.5078	37.4519	20.5078	40.5814	20.5078	38.7199	20.5078	41.4008	20.5078	39.8632	20.5078	42.1192	20.5078	40.8732	20.5078	42.7247	20.5078	41.743	20.5078	43.2062	20.5078	42.4663	20.5078	43.5534	20.5078	43.0378	20.5078	43.7578	20.5078	43.4536	20.5078	43.8121	20.5078	43.7116
21.9727	42.3306	21.9727	42.2086	21.9727	42.4613	21.9727	42.1041	21.9727	42.5983	21.9727	42.0322	21.9727	42.7438	21.9727	42.0132	21.9727	42.9039	21.9727	42.0702	21.9727	43.0869	21.9727	42.2241	21.9727	43.3018	21.9727	42.487	21.9727	43.5567	21.9727	42.858	21.9727	43.8567	21.9727	43.321	21.9727	44.2017	21.9727	43.8482	21.9727	44.5852	21.9727	44.4058	21.9727	44.9937	21.9727	44.9595	21.9727	45.4085	21.9727	45.4787	21.9727	45.8075	21.9727	45.9378	21.9727	46.1682	21.9727	46.3171	21.9727	46.4698	21.9727	46.6023	21.9727	46.6941	21.9727	46.7843	21.9727	46.8272	21.9727	46.8591
23.4375	41.9675	23.4375	41.8543	23.4375	41.9564	23.4375	41.6176	23.4375	41.8249	23.4375	41.2644	23.4375	41.5825	23.4375	40.812	23.4375	41.2478	23.4375	40.296	23.4375	40.8547	23.4375	39.7837	23.4375	40.4609	23.4375	39.3832	23.4375	40.1541	23.4375	39.23	23.4375	40.0402	23.4375	39.4279	23.4375	40.2029	23.4375	39.9758	23.4375	40.6529	23.4375	40.7659	23.4375	41.3176	23.4375	41.6541	23.4375	42.0838	23.4375	42.522	23.4375	42.847	23.4375	43.2936	23.4375	43.5322	23.4375	43.9254	23.4375	44.0925	23.4375	44.3943	23.4375	44.5004	23.4375	44.689	23.4375	44.7405	23.4375	44.8045
24.9023	41.8787	24.9023	41.7131	24.9023	41.9419	24.9023	41.4539	24.9023	41.91	24.9023	41.1288	24.9023	41.8067	24.9023	40.7928	24.9023	41.6757	24.9023	40.5341	24.9023	41.5836	24.9023	40.4672	24.9023	41.6149	24.9023	40.6948	24.9023	41.8485	24.9023	41.2495	24.9023	42.3216	24.9023	42.0704	24.9023	43.0074	24.9023	43.0423	24.9023	43.8296	24.9023	44.0524	24.9023	44.6989	24.9023	45.0176	24.9023	45.5399	24.9023	45.8856	24.9023	46.2996	24.9023	46.6259	24.9023	46.9441	24.9023	47.221	24.9023	47.4525	24.9023	47.6614	24.9023	47.8125	24.9023	47.9419	24.9023	48.0165	24.9023	48.0603
26.3672	43.6257	26.3672	43.5479	26.3672	43.6493	26.3672	43.4303	26.3672	43.6236	26.3672	43.3074	26.3672	43.5721	26.3672	43.2343	26.3672	43.5386	26.3672	43.2811	26.3672	43.5837	26.3672	43.514	26.3672	43.7736	26.3672	43.9681	26.3672	44.1571	26.3672	44.6282	26.3672	44.7413	26.3672	45.4361	26.3672	45.4869	26.3672	46.3161	26.3672	46.3256	26.3672	47.1987	26.3672	47.1862	26.3672	48.0306	26.3672	48.0095	26.3672	48.7749	26.3672	48.7531	26.3672	49.4072	26.3672	49.3886	26.3672	49.9115	26.3672	49.8976	26.3672	50.2776	26.3672	50.2685	26.3672	50.4988	26.3672	50.4944	26.3672	50.5715
27.832	46.9236	27.832	46.8966	27.832	46.8916	27.832	46.8199	27.832	46.8049	27.832	46.7171	27.832	46.6832	27.832	46.6258	27.832	46.5635	27.832	46.5964	27.832	46.4998	27.832	46.6836	27.832	46.5564	27.832	46.9322	27.832	46.7892	27.832	47.3584	27.832	47.2212	27.832	47.9421	27.832	47.8302	27.832	48.6343	27.832	48.5581	27.832	49.3747	27.832	49.3346	27.832	50.1069	27.832	50.0968	27.832	50.7859	27.832	50.7962	27.832	51.3784	27.832	51.3996	27.832	51.8611	27.832	51.8847	27.832	52.218	27.832	52.2375	27.832	52.4388	27.832	52.4496	27.832	52.5169
29.2969	48.9069	29.2969	48.9244	29.2969	48.8278	29.2969	48.885	29.2969	48.6963	29.2969	48.8086	29.2969	48.5377	29.2969	48.7305	29.2969	48.3954	29.2969	48.7014	29.2969	48.3293	29.2969	48.7803	29.2969	48.4069	29.2969	49.019	29.2969	48.6811	29.2969	49.4412	29.2969	49.1655	29.2969	50.0297	29.2969	49.8264	29.2969	50.7336	29.2969	50.5976	29.2969	51.4884	29.2969	51.4066	29.2969	52.2339	29.2969	52.1913	29.2969	52.9228	29.2969	52.9061	29.2969	53.5214	29.2969	53.5199	29.2969	54.0068	29.2969	54.0124	29.2969	54.3639	29.2969	54.3708	29.2969	54.583	29.2969	54.5874	29.2969	54.6583
30.7617	50.3788	30.7617	50.3571	30.7617	50.3512	30.7617	50.2918	30.7617	50.2855	30.7617	50.206	30.7617	50.21	30.7617	50.1412	30.7617	50.1699	30.7617	50.1552	30.7617	50.2232	30.7617	50.3106	30.7617	50.4267	30.7617	50.6539	30.7617	50.8158	30.7617	51.1933	30.7617	51.387	30.7617	51.8931	30.7617	52.0992	30.7617	52.6899	30.7617	52.8903	30.7617	53.5156	30.7617	53.6976	30.7617	54.3123	30.7617	54.469	30.7617	55.0373	30.7617	55.1661	30.7617	55.6613	30.7617	55.7619	30.7617	56.1647	30.7617	56.2383	30.7617	56.5351	30.7617	56.5831	30.7617	56.7647	30.7617	56.7883	30.7617	56.8494
32.2266	53.2496	32.2266	53.2647	32.2266	53.203	32.2266	53.2526	32.2266	53.1337	32.2266	53.2299	32.2266	53.0641	32.2266	53.2254	32.2266	53.0297	32.2266	53.2776	32.2266	53.0754	32.2266	53.4278	32.2266	53.2465	32.2266	53.709	32.2266	53.5731	32.2266	54.1331	32.2266	54.0571	32.2266	54.6848	32.2266	54.6699	32.2266	55.3266	32.2266	55.3623	32.2266	56.0101	32.2266	56.0802	32.2266	56.6878	32.2266	56.7754	32.2266	57.3193	32.2266	57.4099	32.2266	57.8735	32.2266	57.9563	32.2266	58.3278	32.2266	58.3952	32.2266	58.6662	32.2266	58.7134	32.2266	58.8782	32.2266	58.9024	32.2266	58.9577
33.6914	55.696	33.6914	55.6886	33.6914	55.6632	33.6914	55.6437	33.6914	55.599	33.6914	55.5754	33.6914	55.5239	33.6914	55.5101	33.6914	55.47	33.6914	55.4851	33.6914	55.4785	33.6914	55.5446	33.6914	55.5924	33.6914	55.7294	33.6914	55.8441	33.6914	56.0623	33.6914	56.2431	33.6914	56.5384	33.6914	56.7707	33.6914	57.125	33.6914	57.3862	33.6914	57.7735	33.6914	58.04	33.6914	58.4322	33.6914	58.6844	33.6914	59.0563	33.6914	59.2798	33.6914	59.6106	33.6914	59.7962	33.6914	60.0695	33.6914	60.2118	33.6914	60.4154	33.6914	60.5115	33.6914	60.637	33.6914	60.6853	33.6914	60.7277
35.1562	56.763	35.1562	56.7334	35.1562	56.7455	35.1562	56.6595	35.1562	56.692	35.1562	56.558	35.1562	56.6267	35.1562	56.4612	35.1562	56.5871	35.1562	56.4163	35.1562	56.6202	35.1562	56.4796	35.1562	56.7736	35.1562	56.701	35.1562	57.0799	35.1562	57.1041	35.1562	57.5437	35.1562	57.6735	35.1562	58.1384	35.1562	58.3613	35.1562	58.816	35.1562	59.1046	35.1562	59.5226	35.1562	59.8442	35.1562	60.2094	35.1562	60.5326	35.1562	60.8374	35.1562	61.1357	35.1562	61.3779	35.1562	61.6301	35.1562	61.81	35.1562	62.0008	35.1562	62.1197	35.1562	62.2383	35.1562	62.2974	35.1562	62.3376
36.6211	58.9728	36.6211	58.9522	36.6211	58.9715	36.6211	58.9141	36.6211	58.955	36.6211	58.8742	36.6211	58.941	36.6211	58.8592	36.6211	58.9568	36.6211	58.9043	36.6211	59.0359	36.6211	59.0468	36.6211	59.2118	36.6211	59.3156	36.6211	59.5075	36.6211	59.72	36.6211	59.9275	36.6211	60.2449	36.6211	60.4544	36.6211	60.8548	36.6211	61.054	36.6211	61.5043	36.6211	61.6843	36.6211	62.1487	36.6211	62.3043	36.6211	62.7497	36.6211	62.8788	36.6211	63.2775	36.6211	63.3797	36.6211	63.7104	36.6211	63.7861	36.6211	64.0329	36.6211	64.0828	36.6211	64.2351	36.6211	64.2599	36.6211	64.3113
38.0859	60.8501	38.0859	60.8301	38.0859	60.8478	38.0859	60.7921	38.0859	60.8292	38.0859	60.7506	38.0859	60.81	38.0859	60.7302	38.0859	60.8151	38.0859	60.7638	38.0859	60.8753	38.0859	60.8865	38.0859	61.0223	38.0859	61.1266	38.0859	61.2798	38.0859	61.4952	38.0859	61.6556	38.0859	61.9804	38.0859	62.1372	38.0859	62.5507	38.0859	62.6949	38.0859	63.1638	38.0859	63.2898	38.0859	63.7764	38.0859	63.8822	38.0859	64.3508	38.0859	64.4364	38.0859	64.8571	38.0859	64.9235	38.0859	65.2729	38.0859	65.3214	38.0859	65.5824	38.0859	65.6141	38.0859	65.7751	38.0859	65.7908	38.0859	65.8452
39.5508	62.5413	39.5508	62.5256	39.5508	62.5305	39.5508	62.4874	39.5508	62.4987	39.5508	62.4407	39.5508	62.4609	39.5508	62.4089	39.5508	62.441	39.5508	62.4233	39.5508	62.469	39.5508	62.518	39.5508	62.5769	39.5508	62.7217	39.5508	62.7901	39.5508	63.0476	39.5508	63.1195	39.5508	63.4876	39.5508	63.5568	39.5508	64.014	39.5508	64.0757	39.5508	64.5872	39.5508	64.6392	39.5508	65.1654	39.5508	65.2075	39.5508	65.7112	39.5508	65.7443	39.5508	66.1943	39.5508	66.2196	39.5508	66.5919	39.5508	66.6104	39.5508	66.8876	39.5508	66.8998	39.5508	67.0704	39.5508	67.0765	39.5508	67.134
41.0156	64.572	41.0156	64.583	41.0156	64.5376	41.0156	64.5734	41.0156	64.4852	41.0156	64.5538	41.0156	64.4284	41.0156	64.5425	41.0156	64.3883	41.0156	64.5641	41.0156	64.3918	41.0156	64.646	41.0156	64.4677	41.0156	64.8126	41.0156	64.6402	41.0156	65.0781	41.0156	64.9214	41.0156	65.441	41.0156	65.3067	41.0156	65.8831	41.0156	65.7744	41.0156	66.3745	41.0156	66.2913	41.0156	66.8798	41.0156	66.8198	41.0156	67.3649	41.0156	67.3243	41.0156	67.8001	41.0156	67.7745	41.0156	68.1617	41.0156	68.1468	41.0156	68.432	41.0156	68.4242	41.0156	68.5985	41.0156	68.5953	41.0156	68.6539
42.4805	65.6482	42.4805	65.6346	42.4805	65.6328	42.4805	65.5946	42.4805	65.5935	42.4805	65.5388	42.4805	65.5432	42.4805	65.4862	42.4805	65.5022	42.4805	65.4625	42.4805	65.4969	42.4805	65.498	42.4805	65.5563	42.4805	65.6209	42.4805	65.7055	42.4805	65.85	42.4805	65.959	42.4805	66.187	42.4805	66.3144	42.4805	66.6154	42.4805	66.7519	42.4805	67.1038	42.4805	67.24	42.4805	67.6146	42.4805	67.7418	42.4805	68.1104	42.4805	68.2223	42.4805	68.5589	42.4805	68.6513	42.4805	68.9347	42.4805	69.0053	42.4805	69.219	42.4805	69.2665	42.4805	69.3992	42.4805	69.4231	42.4805	69.4681
43.9453	67.1964	43.9453	67.1852	43.9453	67.1851	43.9453	67.1541	43.9453	67.1557	43.9453	67.1131	43.9453	67.1198	43.9453	67.0794	43.9453	67.0953	43.9453	67.0759	43.9453	67.1056	43.9453	67.1287	43.9453	67.1756	43.9453	67.262	43.9453	67.3271	43.9453	67.4906	43.9453	67.5723	43.9453	67.8155	43.9453	67.9091	43.9453	68.2216	43.9453	68.3209	43.9453	68.6813	43.9453	68.7797	43.9453	69.1611	43.9453	69.2526	43.9453	69.627	43.9453	69.7071	43.9453	70.049	43.9453	70.1149	43.9453	70.4029	43.9453	70.453	43.9453	70.6704	43.9453	70.704	43.9453	70.8391	43.9453	70.8559	43.9453	70.9018
45.4102	68.4545	45.4102	68.4455	45.4102	68.4472	45.4102	68.4231	45.4102	68.4271	45.4102	68.3968	45.4102	68.4044	45.4102	68.382	45.4102	68.3947	45.4102	68.3993	45.4102	68.4183	45.4102	68.4712	45.4102	68.4969	45.4102	68.6176	45.4102	68.6495	45.4102	68.8505	45.4102	68.8868	45.4102	69.1693	45.4102	69.2076	45.4102	69.56	45.4102	69.5975	45.4102	69.9978	45.4102	70.0321	45.4102	70.4521	45.4102	70.4815	45.4102	70.8919	45.4102	70.9156	45.4102	71.2895	45.4102	71.3074	45.4102	71.6219	45.4102	71.6344	45.4102	71.8717	45.4102	71.8796	45.4102	72.027	45.4102	72.0307	45.4102	72.0807
46.875	70.2342	46.875	70.2353	46.875	70.2102	46.875	70.2158	46.875	70.1661	46.875	70.1828	46.875	70.1097	46.875	70.1483	46.875	70.0539	46.875	70.1285	46.875	70.0163	46.875	70.1424	46.875	70.0172	46.875	70.2086	46.875	70.0767	46.875	70.3416	46.875	70.2103	46.875	70.5477	46.875	70.4239	46.875	70.8218	46.875	70.7111	46.875	71.1483	46.875	71.054	46.875	71.5035	46.875	71.4268	46.875	71.8601	46.875	71.8003	46.875	72.1912	46.875	72.1468	46.875	72.4733	46.875	72.4421	46.875	72.6873	46.875	72.6676	46.875	72.8194	46.875	72.8099	46.875	72.8613
48.3398	70.7296	48.3398	70.7299	48.3398	70.7085	48.3398	70.7115	48.3398	70.6709	48.3398	70.6824	48.3398	70.6264	48.3398	70.6563	48.3398	70.5906	48.3398	70.6514	48.3398	70.583	48.3398	70.6886	48.3398	70.625	48.3398	70.7875	48.3398	70.7353	48.3398	70.9616	48.3398	70.9255	48.3398	71.2142	48.3398	71.196	48.3398	71.5362	48.3398	71.5349	48.3398	71.9082	48.3398	71.9204	48.3398	72.3036	48.3398	72.3247	48.3398	72.6941	48.3398	72.7193	48.3398	73.0529	48.3398	73.0779	48.3398	73.3569	48.3398	73.3784	48.3398	73.5881	48.3398	73.6037	48.3398	73.7337	48.3398	73.7419	48.3398	73.7859
51.2695	73.2314	51.2695	73.2419	51.2695	73.2113	51.2695	73.2441	51.2695	73.184	51.2695	73.2436	51.2695	73.1564	51.2695	73.2494	51.2695	73.1388	51.2695	73.2732	51.2695	73.1447	51.2695	73.328	51.2695	73.1887	51.2695	73.4263	51.2695	73.2842	51.2695	73.5766	51.2695	73.4401	51.2695	73.7819	51.2695	73.6586	51.2695	74.0374	51.2695	73.9327	51.2695	74.3312	51.2695	74.2477	51.2695	74.6453	51.2695	74.5831	51.2695	74.9587	51.2695	74.9155	51.2695	75.2498	51.2695	75.2221	51.2695	75.4988	51.2695	75.4825	51.2695	75.689	51.2695	75.6804	51.2695	75.8078	51.2695	75.8043	51.2695	75.8473
52.7344	74.3225	52.7344	74.3295	52.7344	74.3034	52.7344	74.3251	52.7344	74.275	52.7344	74.3137	52.7344	74.2437	52.7344	74.3032	52.7344	74.2193	52.7344	74.3044	52.7344	74.2139	52.7344	74.33	52.7344	74.2411	52.7344	74.3928	52.7344	74.3139	52.7344	74.5032	52.7344	74.4412	52.7344	74.6667	52.7344	74.6264	52.7344	74.8816	52.7344	74.8645	52.7344	75.1386	52.7344	75.1429	52.7344	75.4219	52.7344	75.4429	52.7344	75.7113	52.7344	75.7428	52.7344	75.9855	52.7344	76.0207	52.7344	76.2242	52.7344	76.2567	52.7344	76.4101	52.7344	76.4348	52.7344	76.53	52.7344	76.5433	52.7344	76.5756
54.1992	75.2428	54.1992	75.2377	54.1992	75.2333	54.1992	75.2195	54.1992	75.2115	54.1992	75.1929	54.1992	75.1832	54.1992	75.1667	54.1992	75.1578	54.1992	75.152	54.1992	75.1473	54.1992	75.1624	54.1992	75.1655	54.1992	75.2113	54.1992	75.2257	54.1992	75.3097	54.1992	75.3381	54.1992	75.4633	54.1992	75.5066	54.1992	75.6706	54.1992	75.7276	54.1992	75.9221	54.1992	75.9892	54.1992	76.2014	54.1992	76.2734	54.1992	76.4881	54.1992	76.5589	54.1992	76.7603	54.1992	76.8243	54.1992	76.9978	54.1992	77.05	54.1992	77.1833	54.1992	77.2201	54.1992	77.3038	54.1992	77.3228	54.1992	77.3514
55.6641	75.7259	55.6641	75.722	55.6641	75.7285	55.6641	75.7181	55.6641	75.7322	55.6641	75.719	55.6641	75.7431	55.6641	75.733	55.6641	75.7701	55.6641	75.7707	55.6641	75.8239	55.6641	75.8431	55.6641	75.915	55.6641	75.9604	55.6641	76.0518	55.6641	76.1286	55.6641	76.2383	55.6641	76.3482	55.6641	76.4724	55.6641	76.6129	55.6641	76.7455	55.6641	76.9101	55.6641	77.0439	55.6641	77.2227	55.6641	77.3503	55.6641	77.5315	55.6641	77.6463	55.6641	77.817	55.6641	77.9137	55.6641	78.0617	55.6641	78.1368	55.6641	78.2511	55.6641	78.3022	55.6641	78.3744	55.6641	78.4002	55.6641	78.4249
58.5938	78.0929	58.5938	78.0943	58.5938	78.0922	58.5938	78.0972	58.5938	78.0936	58.5938	78.1048	58.5938	78.1005	58.5938	78.1219	58.5938	78.1181	58.5938	78.155	58.5938	78.1529	58.5938	78.211	58.5938	78.2118	58.5938	78.2962	58.5938	78.3011	58.5938	78.4153	58.5938	78.425	58.5938	78.5697	58.5938	78.5844	58.5938	78.7568	58.5938	78.7763	58.5938	78.9695	58.5938	78.9929	58.5938	79.1971	58.5938	79.2229	58.5938	79.4259	58.5938	79.4521	58.5938	79.6409	58.5938	79.6653	58.5938	79.8274	58.5938	79.8479	58.5938	79.9722	58.5938	79.987	58.5938	80.0651	58.5938	80.0729	58.5938	80.0995
60.0586	78.9319	60.0586	78.9333	60.0586	78.9309	60.0586	78.936	60.0586	78.9316	60.0586	78.9428	60.0586	78.9372	60.0586	78.9583	60.0586	78.9525	60.0586	78.9884	60.0586	78.9835	60.0586	79.0397	60.0586	79.0368	60.0586	79.1183	60.0586	79.1184	60.0586	79.2285	60.0586	79.2327	60.0586	79.3721	60.0586	79.3807	60.0586	79.5466	60.0586	79.5598	60.0586	79.7457	60.0586	79.7629	60.0586	79.9592	60.0586	79.9792	60.0586	80.1742	60.0586	80.1953	60.0586	80.3764	60.0586	80.3967	60.0586	80.552	60.0586	80.5694	60.0586	80.6883	60.0586	80.7011	60.0586	80.7757	60.0586	80.7825	60.0586	80.808
62.9883	80.623	62.9883	80.6255	62.9883	80.6254	62.9883	80.6334	62.9883	80.6336	62.9883	80.6487	62.9883	80.6499	62.9883	80.6747	62.9883	80.6778	62.9883	80.7154	62.9883	80.7213	62.9883	80.7751	62.9883	80.7849	62.9883	80.8575	62.9883	80.8722	62.9883	80.9653	62.9883	80.9854	62.9883	81.0988	62.9883	81.1246	62.9883	81.2557	62.9883	81.2868	62.9883	81.4307	62.9883	81.466	62.9883	81.6159	62.9883	81.6535	62.9883	81.8012	62.9883	81.8387	62.9883	81.9752	62.9883	82.0098	62.9883	82.1266	62.9883	82.1555	62.9883	82.245	62.9883	82.2658	62.9883	82.322	62.9883	82.3329	62.9883	82.3521
64.4531	81.4561	64.4531	81.4572	64.4531	81.4616	64.4531	81.4652	64.4531	81.4741	64.4531	81.4815	64.4531	81.4954	64.4531	81.5085	64.4531	81.5278	64.4531	81.5492	64.4531	81.5743	64.4531	81.6068	64.4531	81.6381	64.4531	81.6842	64.4531	81.7219	64.4531	81.7835	64.4531	81.8273	64.4531	81.905	64.4531	81.9542	64.4531	82.047	64.4531	82.1002	64.4531	82.2051	64.4531	82.2604	64.4531	82.3726	64.4531	82.4275	64.4531	82.5405	64.4531	82.5923	64.4531	82.699	64.4531	82.7447	64.4531	82.8374	64.4531	82.8745	64.4531	82.9464	64.4531	82.9724	64.4531	83.0179	64.4531	83.0314	64.4531	83.047
67.3828	82.8114	67.3828	82.8149	67.3828	82.8153	67.3828	82.8262	67.3828	82.8271	67.3828	82.8461	67.3828	82.8477	67.3828	82.876	67.3828	82.8787	67.3828	82.9177	67.3828	82.922	67.3828	82.9732	67.3828	82.9795	67.3828	83.0444	67.3828	83.0531	67.3828	83.1324	67.3828	83.1439	67.3828	83.2372	67.3828	83.2515	67.3828	83.3574	67.3828	83.3743	67.3828	83.4895	67.3828	83.5085	67.3828	83.6282	67.3828	83.6484	67.3828	83.7667	67.3828	83.7868	67.3828	83.8968	67.3828	83.9153	67.3828	84.01	67.3828	84.0255	67.3828	84.0985	67.3828	84.1096	67.3828	84.1556	67.3828	84.1614	67.3828	84.1772
68.8477	83.3148	68.8477	83.3202	68.8477	83.3176	68.8477	83.3339	68.8477	83.329	68.8477	83.3565	68.8477	83.3497	68.8477	83.3892	68.8477	83.3808	68.8477	83.4331	68.8477	83.4237	68.8477	83.4897	68.8477	83.4798	68.8477	83.5601	68.8477	83.5504	68.8477	83.6452	68.8477	83.636	68.8477	83.7446	68.8477	83.7364	68.8477	83.8568	68.8477	83.8498	68.8477	83.9787	68.8477	83.973	68.8477	84.1054	68.8477	84.101	68.8477	84.2307	68.8477	84.2276	68.8477	84.3476	68.8477	84.3454	68.8477	84.4485	68.8477	84.4471	68.8477	84.5264	68.8477	84.5256	68.8477	84.5756	68.8477	84.5753	68.8477	84.5923
71.7773	83.9797	71.7773	83.9849	71.7773	83.9833	71.7773	83.9991	71.7773	83.9957	71.7773	84.0225	71.7773	84.0173	71.7773	84.0555	71.7773	84.0485	71.7773	84.0985	71.7773	84.0897	71.7773	84.1521	71.7773	84.1416	71.7773	84.2166	71.7773	84.2046	71.7773	84.292	71.7773	84.2788	71.7773	84.3775	71.7773	84.3637	71.7773	84.4719	71.7773	84.4581	71.7773	84.5725	71.7773	84.5593	71.7773	84.6759	71.7773	84.6638	71.7773	84.7773	71.7773	84.7668	71.7773	84.8713	71.7773	84.8628	71.7773	84.9522	71.7773	84.9457	71.7773	85.0143	71.7773	85.0099	71.7773	85.0532	71.7773	85.051	71.7773	85.0658
74.707	84.1985	74.707	84.2015	74.707	84.206	74.707	84.2151	74.707	84.2238	74.707	84.239	74.707	84.2515	74.707	84.2732	74.707	84.2887	74.707	84.3171	74.707	84.3349	74.707	84.3704	74.707	84.3898	74.707	84.4325	74.707	84.4526	74.707	84.5027	74.707	84.5229	74.707	84.5799	74.707	84.5996	74.707	84.6628	74.707	84.6815	74.707	84.7494	74.707	84.7666	74.707	84.837	74.707	84.8523	74.707	84.9222	74.707	84.9353	74.707	85.0008	74.707	85.0115	74.707	85.0685	74.707	85.0766	74.707	85.121	74.707	85.1264	74.707	85.1546	74.707	85.1574	74.707	85.167
77.6367	84.181	77.6367	84.1853	77.6367	84.1872	77.6367	84.2001	77.6367	84.2037	77.6367	84.2249	77.6367	84.23	77.6367	84.2592	77.6367	84.2652	77.6367	84.3021	77.6367	84.3085	77.6367	84.3527	77.6367	84.3589	77.6367	84.4098	77.6367	84.4154	77.6367	84.4725	77.6367	84.4771	77.6367	84.5396	77.6367	84.543	77.6367	84.6098	77.6367	84.612	77.6367	84.6815	77.6367	84.6825	77.6367	84.7527	77.6367	84.7528	77.6367	84.8209	77.6367	84.8204	77.6367	84.883	77.6367	84.8822	77.6367	84.9358	77.6367	84.9351	77.6367	84.9764	77.6367	84.9758	77.6367	85.0018	77.6367	85.0015	77.6367	85.0104
79.1016	84.1526	79.1016	84.1578	79.1016	84.1582	79.1016	84.1738	79.1016	84.1745	79.1016	84.2	79.1016	84.2007	79.1016	84.2356	79.1016	84.236	79.1016	84.2795	79.1016	84.279	79.1016	84.3303	79.1016	84.3287	79.1016	84.3867	79.1016	84.3837	79.1016	84.4475	79.1016	84.4429	79.1016	84.5114	79.1016	84.5051	79.1016	84.5769	79.1016	84.5693	79.1016	84.6426	79.1016	84.6341	79.1016	84.7067	79.1016	84.6978	79.1016	84.7672	79.1016	84.7585	79.1016	84.8216	79.1016	84.8139	79.1016	84.8673	79.1016	84.8611	79.1016	84.9019	79.1016	84.8976	79.1016	84.9232	79.1016	84.921	79.1016	84.9297
82.0312	84.0807	82.0312	84.0851	82.0312	84.0881	82.0312	84.1012	82.0312	84.107	82.0312	84.1284	82.0312	84.1364	82.0312	84.1653	82.0312	84.1748	82.0312	84.2105	82.0312	84.2206	82.0312	84.2623	82.0312	84.272	82.0312	84.3189	82.0312	84.3274	82.0312	84.3786	82.0312	84.3851	82.0312	84.4398	82.0312	84.4438	82.0312	84.501	82.0312	84.5024	82.0312	84.5607	82.0312	84.5596	82.0312	84.6175	82.0312	84.6145	82.0312	84.6699	82.0312	84.6657	82.0312	84.7162	82.0312	84.7115	82.0312	84.7545	82.0312	84.7502	82.0312	84.7832	82.0312	84.7799	82.0312	84.8007	82.0312	84.7989	82.0312	84.806
84.9609	84.0346	84.9609	84.0457	84.9609	84.0374	84.9609	84.0703	84.9609	84.0538	84.9609	84.1075	84.9609	84.0826	84.9609	84.1553	84.9609	84.1222	84.9609	84.2117	84.9609	84.1704	84.9609	84.2741	84.9609	84.2248	84.9609	84.34	84.9609	84.2831	84.9609	84.4067	84.9609	84.3432	84.9609	84.4721	84.9609	84.4031	84.9609	84.534	84.9609	84.4616	84.9609	84.5908	84.9609	84.5174	84.9609	84.6412	84.9609	84.5698	84.9609	84.684	84.9609	84.6179	84.9609	84.7186	84.9609	84.661	84.9609	84.7442	84.9609	84.6981	84.9609	84.7603	84.9609	84.7281	84.9609	84.7667	84.9609	84.7502	84.9609	84.7632
87.8906	84.1625	87.8906	84.1755	87.8906	84.16	87.8906	84.1985	87.8906	84.1677	87.8906	84.2303	87.8906	84.1846	87.8906	84.2691	87.8906	84.2093	87.8906	84.3123	87.8906	84.2399	87.8906	84.3576	87.8906	84.2742	87.8906	84.4022	87.8906	84.3103	87.8906	84.4439	87.8906	84.3464	87.8906	84.4808	87.8906	84.3809	87.8906	84.5116	87.8906	84.4126	87.8906	84.5357	87.8906	84.441	87.8906	84.5531	87.8906	84.4659	87.8906	84.5643	87.8906	84.4874	87.8906	84.5701	87.8906	84.5058	87.8906	84.5715	87.8906	84.5217	87.8906	84.5693	87.8906	84.5354	87.8906	84.5642	87.8906	84.5471	87.8906	84.5567
90.8203	84.1618	90.8203	84.1659	90.8203	84.1662	90.8203	84.1783	90.8203	84.1784	90.8203	84.1982	90.8203	84.1972	90.8203	84.2242	90.8203	84.2209	90.8203	84.2542	90.8203	84.2474	90.8203	84.286	90.8203	84.2747	90.8203	84.3174	90.8203	84.3009	90.8203	84.3461	90.8203	84.3243	90.8203	84.3704	90.8203	84.3436	90.8203	84.389	90.8203	84.3582	90.8203	84.4014	90.8203	84.3679	90.8203	84.4077	90.8203	84.3734	90.8203	84.4087	90.8203	84.3755	90.8203	84.4055	90.8203	84.3757	90.8203	84.3997	90.8203	84.3753	90.8203	84.3928	90.8203	84.3754	90.8203	84.3861	90.8203	84.3771	90.8203	84.3806
95.2148	84.0234	95.2148	84.0335	95.2148	84.0278	95.2148	84.0576	95.2148	84.0463	95.2148	84.094	95.2148	84.0776	95.2148	84.1406	95.2148	84.1194	95.2148	84.1941	95.2148	84.1689	95.2148	84.2513	95.2148	84.2228	95.2148	84.3086	95.2148	84.2778	95.2148	84.3626	95.2148	84.3305	95.2148	84.4105	95.2148	84.3784	95.2148	84.4503	95.2148	84.4192	95.2148	84.4809	95.2148	84.4519	95.2148	84.5021	95.2148	84.4762	95.2148	84.5149	95.2148	84.4928	95.2148	84.5209	95.2148	84.5029	95.2148	84.522	95.2148	84.5084	95.2148	84.5204	95.2148	84.5113	95.2148	84.5177	95.2148	84.5132	95.2148	84.5152
98.1445	83.9629	98.1445	83.9759	98.1445	83.9658	98.1445	84.0035	98.1445	83.9843	98.1445	84.044	98.1445	84.0173	98.1445	84.0945	98.1445	84.0626	98.1445	84.1518	98.1445	84.1168	98.1445	84.2122	98.1445	84.1763	98.1445	84.272	98.1445	84.2369	98.1445	84.3278	98.1445	84.2949	98.1445	84.3769	98.1445	84.3469	98.1445	84.4173	98.1445	84.3905	98.1445	84.4478	98.1445	84.4244	98.1445	84.4687	98.1445	84.4486	98.1445	84.481	98.1445	84.4639	98.1445	84.4862	98.1445	84.4723	98.1445	84.4867	98.1445	84.4759	98.1445	84.4845	98.1445	84.4771	98.1445	84.4816	98.1445	84.4778	98.1445	84.4792
101.074	84.0253	101.074	84.0318	101.074	84.0356	101.074	84.0544	101.074	84.0621	101.074	84.0913	101.074	84.1029	101.074	84.1397	101.074	84.1551	101.074	84.1959	101.074	84.2147	101.074	84.2559	101.074	84.2775	101.074	84.3155	101.074	84.3389	101.074	84.3707	101.074	84.3948	101.074	84.4184	101.074	84.4419	101.074	84.456	101.074	84.4778	101.074	84.4825	101.074	84.5015	101.074	84.4978	101.074	84.5133	101.074	84.5034	101.074	84.5149	101.074	84.5016	101.074	84.5092	101.074	84.4954	101.074	84.4997	101.074	84.4879	101.074	84.49	101.074	84.482	101.074	84.4828	101.074	84.48
105.469	84.1677	105.469	84.1677	105.469	84.1791	105.469	84.1792	105.469	84.2007	105.469	84.2011	105.469	84.2301	105.469	84.2314	105.469	84.2644	105.469	84.2669	105.469	84.2998	105.469	84.3041	105.469	84.3327	105.469	84.3388	105.469	84.3594	105.469	84.3672	105.469	84.3769	105.469	84.3859	105.469	84.383	105.469	84.3925	105.469	84.377	105.469	84.3859	105.469	84.3592	105.469	84.3666	105.469	84.3316	105.469	84.3368	105.469	84.2976	105.469	84.3004	105.469	84.2615	105.469	84.2621	105.469	84.2282	105.469	84.2275	105.469	84.2025	105.469	84.2014	105.469	84.1882	105.469	84.1877
108.398	84.2144	108.398	84.2168	108.398	84.2225	108.398	84.2296	108.398	84.2403	108.398	84.2514	108.398	84.2659	108.398	84.2799	108.398	84.2965	108.398	84.3123	108.398	84.3286	108.398	84.345	108.398	84.3585	108.398	84.3743	108.398	84.3824	108.398	84.3966	108.398	84.397	108.398	84.4089	108.398	84.4001	108.398	84.4091	108.398	84.3905	108.398	84.3963	108.398	84.3687	108.398	84.3713	108.398	84.3367	108.398	84.3363	108.398	84.2979	108.398	84.2953	108.398	84.2573	108.398	84.2533	108.398	84.2199	108.398	84.2158	108.398	84.191	108.398	84.188	108.398	84.1747	108.398	84.1736
112.793	84.3863	112.793	84.3941	112.793	84.3878	112.793	84.4107	112.793	84.3984	112.793	84.4345	112.793	84.4167	112.793	84.463	112.793	84.4404	112.793	84.4935	112.793	84.4662	112.793	84.5226	112.793	84.4905	112.793	84.5467	112.793	84.5095	112.793	84.5625	112.793	84.5196	112.793	84.5671	112.793	84.5182	112.793	84.5587	112.793	84.5038	112.793	84.5366	112.793	84.4768	112.793	84.5018	112.793	84.4391	112.793	84.4571	112.793	84.3946	112.793	84.4066	112.793	84.3486	112.793	84.3559	112.793	84.3069	112.793	84.3109	112.793	84.2753	112.793	84.2772	112.793	84.2584	112.793	84.259
117.188	84.497	117.188	84.5116	117.188	84.491	117.188	84.5344	117.188	84.493	117.188	84.5638	117.188	84.5014	117.188	84.5976	117.188	84.5139	117.188	84.6325	117.188	84.5278	117.188	84.6645	117.188	84.5398	117.188	84.6897	117.188	84.5467	117.188	84.7042	117.188	84.5457	117.188	84.7048	117.188	84.5345	117.188	84.6895	117.188	84.512	117.188	84.6578	117.188	84.4789	117.188	84.6111	117.188	84.4374	117.188	84.5528	117.188	84.3916	117.188	84.4877	117.188	84.3465	117.188	84.422	117.188	84.3083	117.188	84.3624	117.188	84.2826	117.188	84.3151	117.188	84.2739	117.188	84.2847
120.117	84.5548	120.117	84.567	120.117	84.5524	120.117	84.5887	120.117	84.5591	120.117	84.6186	120.117	84.5732	120.117	84.6542	120.117	84.5921	120.117	84.6923	120.117	84.6127	120.117	84.7289	120.117	84.6317	120.117	84.7598	120.117	84.6456	120.117	84.781	120.117	84.6512	120.117	84.7892	120.117	84.6463	120.117	84.7819	120.117	84.6299	120.117	84.7585	120.117	84.6024	120.117	84.72	120.117	84.566	120.117	84.6693	120.117	84.5246	120.117	84.611	120.117	84.4831	120.117	84.5511	120.117	84.4473	120.117	84.4961	120.117	84.423	120.117	84.4522	120.117	84.4144	120.117	84.4241
124.512	84.7382	124.512	84.7466	124.512	84.7402	124.512	84.7651	124.512	84.7521	124.512	84.7922	124.512	84.7721	124.512	84.8256	124.512	84.7976	124.512	84.8617	124.512	84.8254	124.512	84.8969	124.512	84.8517	124.512	84.9269	124.512	84.8728	124.512	84.9477	124.512	84.8852	124.512	84.956	124.512	84.8863	124.512	84.9497	124.512	84.8744	124.512	84.9279	124.512	84.8497	124.512	84.8919	124.512	84.814	124.512	84.8447	124.512	84.7709	124.512	84.7911	124.512	84.7255	124.512	84.7372	124.512	84.6837	124.512	84.6895	124.512	84.6516	124.512	84.6539	124.512	84.6343	124.512	84.6348
128.906	84.9506	128.906	84.957	128.906	84.9544	128.906	84.9731	128.906	84.9677	128.906	84.9975	128.906	84.9885	128.906	85.0278	128.906	85.0144	128.906	85.0606	128.906	85.0417	128.906	85.0921	128.906	85.0666	128.906	85.1179	128.906	85.085	128.906	85.1341	128.906	85.0934	128.906	85.1373	128.906	85.0889	128.906	85.1253	128.906	85.0703	128.906	85.0974	128.906	85.0378	128.906	85.055	128.906	84.9937	128.906	85.0015	128.906	84.942	128.906	84.9421	128.906	84.8884	128.906	84.8834	128.906	84.8392	128.906	84.8323	128.906	84.8009	128.906	84.7953	128.906	84.779	128.906	84.7768
133.301	85.1526	133.301	85.1638	133.301	85.1506	133.301	85.1836	133.301	85.1574	133.301	85.2104	133.301	85.1718	133.301	85.2418	133.301	85.1915	133.301	85.2746	133.301	85.2134	133.301	85.305	133.301	85.2337	133.301	85.3292	133.301	85.2486	133.301	85.3433	133.301	85.2542	133.301	85.344	133.301	85.2476	133.301	85.3292	133.301	85.2272	133.301	85.2983	133.301	85.1932	133.301	85.2525	133.301	85.1479	133.301	85.1951	133.301	85.0956	133.301	85.1313	133.301	85.0422	133.301	85.0676	133.301	84.9944	133.301	85.0111	133.301	84.9589	133.301	84.9682	133.301	84.941	133.301	84.944
139.16	85.3347	139.16	85.344	139.16	85.3332	139.16	85.3604	139.16	85.3391	139.16	85.3824	139.16	85.3516	139.16	85.408	139.16	85.3685	139.16	85.4343	139.16	85.387	139.16	85.458	139.16	85.4034	139.16	85.4756	139.16	85.4137	139.16	85.4836	139.16	85.4141	139.16	85.4787	139.16	85.4016	139.16	85.4591	139.16	85.3745	139.16	85.4239	139.16	85.3333	139.16	85.3743	139.16	85.2803	139.16	85.3133	139.16	85.2203	139.16	85.246	139.16	85.1596	139.16	85.1788	139.16	85.1056	139.16	85.1189	139.16	85.0656	139.16	85.0734	139.16	85.0453	139.16	85.0479
143.555	85.4433	143.555	85.448	143.555	85.446	143.555	85.4594	143.555	85.4558	143.555	85.4763	143.555	85.4717	143.555	85.4966	143.555	85.4916	143.555	85.5174	143.555	85.5125	143.555	85.5358	143.555	85.5306	143.555	85.5481	143.555	85.542	143.555	85.5511	143.555	85.5427	143.555	85.5416	143.555	85.5295	143.555	85.5178	143.555	85.5005	143.555	85.4791	143.555	85.4559	143.555	85.4268	143.555	85.3978	143.555	85.3642	143.555	85.331	143.555	85.2964	143.555	85.262	143.555	85.2303	143.555	85.1987	143.555	85.1733	143.555	85.149	143.555	85.1326	143.555	85.1193	143.555	85.1137
147.949	85.5168	147.949	85.5194	147.949	85.5211	147.949	85.5283	147.949	85.5319	147.949	85.5423	147.949	85.548	147.949	85.5594	147.949	85.5672	147.949	85.577	147.949	85.5865	147.949	85.5916	147.949	85.6024	147.949	85.5995	147.949	85.6107	147.949	85.5972	147.949	85.6076	147.949	85.5818	147.949	85.5901	147.949	85.5512	147.949	85.5562	147.949	85.5055	147.949	85.5063	147.949	85.4464	147.949	85.4426	147.949	85.3779	147.949	85.3699	147.949	85.3057	147.949	85.2948	147.949	85.237	147.949	85.2255	147.949	85.1796	147.949	85.1699	147.949	85.1404	147.949	85.1348	147.949	85.1247
153.809	85.5813	153.809	85.5876	153.809	85.5805	153.809	85.5991	153.809	85.5845	153.809	85.6148	153.809	85.5923	153.809	85.6329	153.809	85.602	153.809	85.6506	153.809	85.6113	153.809	85.6645	153.809	85.6173	153.809	85.6708	153.809	85.617	153.809	85.6658	153.809	85.6071	153.809	85.6467	153.809	85.585	153.809	85.6116	153.809	85.5491	153.809	85.5607	153.809	85.4995	153.809	85.4959	153.809	85.4383	153.809	85.4215	153.809	85.3696	153.809	85.3438	153.809	85.2995	153.809	85.2702	153.809	85.2352	153.809	85.2085	153.809	85.1842	153.809	85.1657	153.809	85.1533	153.809	85.1466
159.668	85.6263	159.668	85.6315	159.668	85.6268	159.668	85.6424	159.668	85.6323	159.668	85.6582	159.668	85.6416	159.668	85.6775	159.668	85.6531	159.668	85.6976	159.668	85.6643	159.668	85.7151	159.668	85.6723	159.668	85.7261	159.668	85.674	159.668	85.7263	159.668	85.6659	159.668	85.7121	159.668	85.6453	159.668	85.6812	159.668	85.6105	159.668	85.6332	159.668	85.5614	159.668	85.5698	159.668	85.5003	159.668	85.4955	159.668	85.4315	159.668	85.4166	159.668	85.3612	159.668	85.3411	159.668	85.2969	159.668	85.2772	159.668	85.2465	159.668	85.2322	159.668	85.2164	159.668	85.2113
165.527	85.6659	165.527	85.6618	165.527	85.6739	165.527	85.6622	165.527	85.6849	165.527	85.6671	165.527	85.6978	165.527	85.676	165.527	85.7108	165.527	85.6874	165.527	85.7219	165.527	85.699	165.527	85.7284	165.527	85.7073	165.527	85.727	165.527	85.7084	165.527	85.7148	165.527	85.6984	165.527	85.689	165.527	85.6741	165.527	85.6482	165.527	85.6339	165.527	85.5929	165.527	85.5782	165.527	85.5256	165.527	85.5103	165.527	85.4514	165.527	85.4358	165.527	85.3769	165.527	85.3621	165.527	85.3103	165.527	85.2977	165.527	85.2592	165.527	85.2508	165.527	85.2302	165.527	85.2272
171.387	85.7828	171.387	85.7687	171.387	85.7967	171.387	85.7548	171.387	85.8095	171.387	85.7414	171.387	85.8203	171.387	85.7283	171.387	85.8277	171.387	85.7147	171.387	85.8299	171.387	85.6992	171.387	85.8245	171.387	85.6795	171.387	85.8088	171.387	85.6528	171.387	85.7798	171.387	85.6165	171.387	85.7351	171.387	85.5682	171.387	85.6735	171.387	85.5071	171.387	85.5958	171.387	85.4344	171.387	85.505	171.387	85.3536	171.387	85.4067	171.387	85.2709	171.387	85.3084	171.387	85.194	171.387	85.2188	171.387	85.1317	171.387	85.1465	171.387	85.0918	171.387	85.0986	171.387	85.08
177.246	85.7738	177.246	85.7789	177.246	85.7675	177.246	85.7819	177.246	85.7608	177.246	85.7818	177.246	85.7541	177.246	85.7775	177.246	85.7469	177.246	85.7675	177.246	85.7382	177.246	85.7506	177.246	85.7255	177.246	85.7253	177.246	85.7059	177.246	85.6901	177.246	85.6759	177.246	85.644	177.246	85.6327	177.246	85.5864	177.246	85.5747	177.246	85.5177	177.246	85.5025	177.246	85.4397	177.246	85.4192	177.246	85.3557	177.246	85.3305	177.246	85.2709	177.246	85.2435	177.246	85.192	177.246	85.1664	177.246	85.1265	177.246	85.1068	177.246	85.0815	177.246	85.0707	177.246	85.0621
183.105	85.7185	183.105	85.7399	183.105	85.6952	183.105	85.7587	183.105	85.671	183.105	85.7739	183.105	85.6467	183.105	85.7843	183.105	85.6227	183.105	85.788	183.105	85.5988	183.105	85.7828	183.105	85.574	183.105	85.7663	183.105	85.546	183.105	85.7361	183.105	85.5117	183.105	85.691	183.105	85.468	183.105	85.6305	183.105	85.4126	183.105	85.5557	183.105	85.3451	183.105	85.469	183.105	85.2681	183.105	85.3742	183.105	85.1868	183.105	85.2766	183.105	85.1091	183.105	85.1825	183.105	85.0438	183.105	85.0992	183.105	84.9993	183.105	85.0341	183.105	84.9816	183.105	84.9935
188.965	85.6629	188.965	85.6767	188.965	85.6465	188.965	85.6884	188.965	85.6272	188.965	85.6985	188.965	85.6049	188.965	85.7069	188.965	85.5798	188.965	85.7125	188.965	85.552	188.965	85.7131	188.965	85.521	188.965	85.7054	188.965	85.4858	188.965	85.6857	188.965	85.4447	188.965	85.6505	188.965	85.3959	188.965	85.5977	188.965	85.3377	188.965	85.5272	188.965	85.27	188.965	85.4413	188.965	85.1947	188.965	85.3444	188.965	85.1163	188.965	85.2429	188.965	85.0419	188.965	85.1442	188.965	84.98	188.965	85.0561	188.965	84.939	188.965	84.9862	188.965	84.9251	188.965	84.9411
196.289	85.7608	196.289	85.7619	196.289	85.75	196.289	85.7537	196.289	85.7303	196.289	85.7374	196.289	85.7029	196.289	85.7144	196.289	85.6693	196.289	85.6863	196.289	85.6309	196.289	85.6535	196.289	85.5882	196.289	85.6158	196.289	85.5408	196.289	85.5719	196.289	85.4879	196.289	85.5202	196.289	85.4282	196.289	85.4591	196.289	85.3613	196.289	85.3881	196.289	85.2877	196.289	85.308	196.289	85.2095	196.289	85.2219	196.289	85.1307	196.289	85.1348	196.289	85.0561	196.289	85.0535	196.289	84.9916	196.289	84.9854	196.289	84.9432	196.289	84.9372	196.289	84.9159	196.289	84.9135
203.613	85.7592	203.613	85.7489	203.613	85.7571	203.613	85.7264	203.613	85.7433	203.613	85.6937	203.613	85.7195	203.613	85.6531	203.613	85.6874	203.613	85.6074	203.613	85.6485	203.613	85.5584	203.613	85.603	203.613	85.5064	203.613	85.5503	203.613	85.4502	203.613	85.4889	203.613	85.3878	203.613	85.4172	203.613	85.3172	203.613	85.3347	203.613	85.2379	203.613	85.2424	203.613	85.1513	203.613	85.1437	203.613	85.0613	203.613	85.0441	203.613	84.9733	203.613	84.9506	203.613	84.8938	203.613	84.8707	203.613	84.8295	203.613	84.8107	203.613	84.7859	203.613	84.7754	203.613	84.7671
210.938	85.7389	210.938	85.7277	210.938	85.7419	210.938	85.7075	210.938	85.7371	210.938	85.6783	210.938	85.7255	210.938	85.6401	210.938	85.7074	210.938	85.5934	210.938	85.6824	210.938	85.5383	210.938	85.6497	210.938	85.4751	210.938	85.6077	210.938	85.404	210.938	85.5547	210.938	85.3252	210.938	85.4893	210.938	85.2401	210.938	85.4114	210.938	85.1507	210.938	85.3222	210.938	85.0605	210.938	85.225	210.938	84.974	210.938	85.1244	210.938	84.8967	210.938	85.0262	210.938	84.8339	210.938	84.9367	210.938	84.7907	210.938	84.862	210.938	84.7708	210.938	84.8073	210.938	84.7763
218.262	85.6189	218.262	85.6221	218.262	85.6052	218.262	85.6149	218.262	85.5816	218.262	85.5984	218.262	85.5499	218.262	85.5741	218.262	85.5122	218.262	85.5433	218.262	85.4699	218.262	85.5068	218.262	85.4243	218.262	85.4645	218.262	85.3757	218.262	85.4159	218.262	85.3241	218.262	85.3606	218.262	85.2702	218.262	85.2991	218.262	85.2153	218.262	85.233	218.262	85.1618	218.262	85.1657	218.262	85.1122	218.262	85.1018	218.262	85.0685	218.262	85.0462	218.262	85.032	218.262	85.003	218.262	85.0028	218.262	84.9742	218.262	84.9805	218.262	84.9596	218.262	84.965	218.262	84.9574
225.586	85.7275	225.586	85.7449	225.586	85.6966	225.586	85.7491	225.586	85.6531	225.586	85.7414	225.586	85.5993	225.586	85.7237	225.586	85.5381	225.586	85.6975	225.586	85.4723	225.586	85.6632	225.586	85.4037	225.586	85.6202	225.586	85.3325	225.586	85.5671	225.586	85.2582	225.586	85.5026	225.586	85.1803	225.586	85.4267	225.586	85.0999	225.586	85.3414	225.586	85.021	225.586	85.2512	225.586	84.9494	225.586	85.1622	225.586	84.8918	225.586	85.0803	225.586	84.853	225.586	85.01	225.586	84.8345	225.586	84.9529	225.586	84.8343	225.586	84.9081	225.586	84.8485	225.586	84.8736
232.91	85.7713	232.91	85.7738	232.91	85.7507	232.91	85.7595	232.91	85.7116	232.91	85.7308	232.91	85.6548	232.91	85.6904	232.91	85.5825	232.91	85.6412	232.91	85.4973	232.91	85.5852	232.91	85.4023	232.91	85.5235	232.91	85.2999	232.91	85.4556	232.91	85.1919	232.91	85.3804	232.91	85.0804	232.91	85.2971	232.91	84.9684	232.91	85.2064	232.91	84.8608	232.91	85.1114	232.91	84.7643	232.91	85.0165	232.91	84.6861	232.91	84.9263	232.91	84.6322	232.91	84.8445	232.91	84.6052	232.91	84.7728	232.91	84.6041	232.91	84.7118	232.91	84.6246	232.91	84.6617
241.699	85.7033	241.699	85.6859	241.699	85.7033	241.699	85.6528	241.699	85.6852	241.699	85.6068	241.699	85.65	241.699	85.5509	241.699	85.5996	241.699	85.4881	241.699	85.5358	241.699	85.4207	241.699	85.4604	241.699	85.3497	241.699	85.3737	241.699	85.2753	241.699	85.2755	241.699	85.1971	241.699	85.1657	241.699	85.1144	241.699	85.0458	241.699	85.0272	241.699	84.9205	241.699	84.9369	241.699	84.797	241.699	84.8457	241.699	84.6849	241.699	84.7572	241.699	84.5934	241.699	84.6753	241.699	84.5289	241.699	84.6039	241.699	84.494	241.699	84.5465	241.699	84.4877	241.699	84.5065
250.488	85.9222	250.488	85.8964	250.488	85.9166	250.488	85.8425	250.488	85.8798	250.488	85.7653	250.488	85.8148	250.488	85.6711	250.488	85.7279	250.488	85.5665	250.488	85.6269	250.488	85.4575	250.488	85.5194	250.488	85.3494	250.488	85.4108	250.488	85.2449	250.488	85.3031	250.488	85.1446	250.488	85.1952	250.488	85.0462	250.488	85.084	250.488	84.9469	250.488	84.9672	250.488	84.8447	250.488	84.8449	250.488	84.7408	250.488	84.7212	250.488	84.6392	250.488	84.6044	250.488	84.5462	250.488	84.5047	250.488	84.4689	250.488	84.4319	250.488	84.414	250.488	84.3921	250.488	84.3869
259.277	86.0885	259.277	86.0801	259.277	86.0572	259.277	86.0328	259.277	85.9893	259.277	85.9502	259.277	85.891	259.277	85.8387	259.277	85.7708	259.277	85.7064	259.277	85.638	259.277	85.5625	259.277	85.5011	259.277	85.4167	259.277	85.3666	259.277	85.2786	259.277	85.2379	259.277	85.1561	259.277	85.1159	259.277	85.0529	259.277	85.0001	259.277	84.9677	259.277	84.8903	259.277	84.8944	259.277	84.7876	259.277	84.8253	259.277	84.695	259.277	84.7551	259.277	84.6167	259.277	84.6832	259.277	84.5569	259.277	84.6147	259.277	84.5194	259.277	84.5577	259.277	84.5067	259.277	84.52
268.066	86.1183	268.066	86.0625	268.066	86.1343	268.066	85.9728	268.066	86.1075	268.066	85.8556	268.066	86.0385	268.066	85.7173	268.066	85.9322	268.066	85.5632	268.066	85.7978	268.066	85.3983	268.066	85.6474	268.066	85.2275	268.066	85.4947	268.066	85.0573	268.066	85.352	268.066	84.8957	268.066	85.2277	268.066	84.753	268.066	85.1237	268.066	84.6391	268.066	85.0365	268.066	84.5608	268.066	84.9593	268.066	84.5189	268.066	84.8865	268.066	84.5072	268.066	84.816	268.066	84.5164	268.066	84.7495	268.066	84.5373	268.066	84.6899	268.066	84.5649	268.066	84.6395	268.066	84.5985
276.855	86.3991	276.855	86.4012	276.855	86.374	276.855	86.3735	276.855	86.3308	276.855	86.3115	276.855	86.2694	276.855	86.215	276.855	86.1844	276.855	86.0885	276.855	86.068	276.855	85.939	276.855	85.9128	276.855	85.7736	276.855	85.7155	276.855	85.5994	276.855	85.48	276.855	85.4229	276.855	85.2204	276.855	85.2513	276.855	84.9605	276.855	85.0925	276.855	84.7302	276.855	84.9547	276.855	84.5562	276.855	84.8444	276.855	84.4522	276.855	84.7636	276.855	84.4156	276.855	84.7078	276.855	84.4305	276.855	84.6668	276.855	84.4756	276.855	84.6286	276.855	84.5314	276.855	84.5843
287.109	86.1332	287.109	86.1329	287.109	86.1091	287.109	86.1057	287.109	86.0663	287.109	86.0517	287.109	86.0132	287.109	85.972	287.109	85.9575	287.109	85.868	287.109	85.902	287.109	85.743	287.109	85.8426	287.109	85.603	287.109	85.7712	287.109	85.4563	287.109	85.6805	287.109	85.3118	287.109	85.57	287.109	85.1776	287.109	85.4482	287.109	85.0598	287.109	85.3297	287.109	84.9631	287.109	85.2286	287.109	84.8917	287.109	85.152	287.109	84.8487	287.109	85.097	287.109	84.8347	287.109	85.0543	287.109	84.847	287.109	85.0138	287.109	84.8792	287.109	84.9698	287.109	84.9229
297.363	86.6974	297.363	86.7464	297.363	86.6041	297.363	86.7578	297.363	86.4631	297.363	86.7379	297.363	86.2776	297.363	86.6899	297.363	86.0596	297.363	86.6123	297.363	85.8294	297.363	86.5001	297.363	85.6103	297.363	86.3481	297.363	85.42	297.363	86.1561	297.363	85.2632	297.363	85.9315	297.363	85.1325	297.363	85.6918	297.363	85.0171	297.363	85.4613	297.363	84.9133	297.363	85.2664	297.363	84.8301	297.363	85.1275	297.363	84.7839	297.363	85.0515	297.363	84.7873	297.363	85.0285	297.363	84.8365	297.363	85.0352	297.363	84.911	297.363	85.0432	297.363	84.9826	297.363	85.029
307.617	86.8808	307.617	86.7788	307.617	86.9271	307.617	86.6297	307.617	86.9135	307.617	86.447	307.617	86.838	307.617	86.2489	307.617	86.7015	307.617	86.0537	307.617	86.5089	307.617	85.8745	307.617	86.2701	307.617	85.7154	307.617	86.001	307.617	85.573	307.617	85.7206	307.617	85.4408	307.617	85.4477	307.617	85.3134	307.617	85.1976	307.617	85.1871	307.617	84.9806	307.617	85.0599	307.617	84.8032	307.617	84.9332	307.617	84.6699	307.617	84.814	307.617	84.5829	307.617	84.7127	307.617	84.5391	307.617	84.6375	307.617	84.5286	307.617	84.5885	307.617	84.5381	307.617	84.558
319.336	86.811	319.336	86.7408	319.336	86.8091	319.336	86.6007	319.336	86.7385	319.336	86.3981	319.336	86.6097	319.336	86.1451	319.336	86.4387	319.336	85.8594	319.336	86.2429	319.336	85.5648	319.336	86.0376	319.336	85.2876	319.336	85.8331	319.336	85.0508	319.336	85.6364	319.336	84.8705	319.336	85.4521	319.336	84.7546	319.336	85.2846	319.336	84.7045	319.336	85.1385	319.336	84.7142	319.336	85.0186	319.336	84.7679	319.336	84.9309	319.336	84.8416	319.336	84.88	319.336	84.91	319.336	84.8662	319.336	84.954	319.336	84.8828	319.336	84.966	319.336	84.9163	319.336	84.9495
329.59	86.9069	329.59	86.8646	329.59	86.8994	329.59	86.7702	329.59	86.8445	329.59	86.6221	329.59	86.746	329.59	86.4204	329.59	86.6089	329.59	86.1684	329.59	86.4396	329.59	85.8741	329.59	86.2436	329.59	85.5518	329.59	86.0251	329.59	85.2226	329.59	85.7884	329.59	84.9137	329.59	85.5419	329.59	84.6554	329.59	85.2992	329.59	84.4755	329.59	85.0777	329.59	84.3902	329.59	84.8924	329.59	84.3947	329.59	84.7526	329.59	84.4611	329.59	84.661	329.59	84.5484	329.59	84.6156	329.59	84.619	329.59	84.6091	329.59	84.6526	329.59	84.6275	329.59	84.6499
341.309	87.0855	341.309	87.1049	341.309	86.9928	341.309	87.0538	341.309	86.8281	341.309	86.9381	341.309	86.5984	341.309	86.7651	341.309	86.3163	341.309	86.5418	341.309	85.9993	341.309	86.2745	341.309	85.6682	341.309	85.9669	341.309	85.3471	341.309	85.6224	341.309	85.0616	341.309	85.2488	341.309	84.836	341.309	84.8652	341.309	84.6874	341.309	84.508	341.309	84.6199	341.309	84.2274	341.309	84.6226	341.309	84.0721	341.309	84.6739	341.309	84.0641	341.309	84.7471	341.309	84.1826	341.309	84.8138	341.309	84.3729	341.309	84.8469	341.309	84.5718	341.309	84.8235	341.309	84.7306
353.027	87.2462	353.027	87.3058	353.027	87.1444	353.027	87.3184	353.027	87.005	353.027	87.2773	353.027	86.8344	353.027	87.1748	353.027	86.6395	353.027	87.0053	353.027	86.4227	353.027	86.7701	353.027	86.1756	353.027	86.4788	353.027	85.8785	353.027	86.1462	353.027	85.5109	353.027	85.7868	353.027	85.0697	353.027	85.4108	353.027	84.5865	353.027	85.027	353.027	84.1297	353.027	84.6531	353.027	83.7788	353.027	84.3205	353.027	83.581	353.027	84.0675	353.027	83.5272	353.027	83.9157	353.027	83.5694	353.027	83.8507	353.027	83.654	353.027	83.8272	353.027	83.7389	353.027	83.7981
366.211	87.4165	366.211	87.2874	366.211	87.4715	366.211	87.0911	366.211	87.4497	366.211	86.8436	366.211	87.3514	366.211	86.5713	366.211	87.182	366.211	86.305	366.211	86.9576	366.211	86.0683	366.211	86.7038	366.211	85.8665	366.211	86.4461	366.211	85.6877	366.211	86.1938	366.211	85.5151	366.211	85.9338	366.211	85.3416	366.211	85.6437	366.211	85.1721	366.211	85.3159	366.211	85.0144	366.211	84.9763	366.211	84.8698	366.211	84.6794	366.211	84.7348	366.211	84.4769	366.211	84.6118	366.211	84.3818	366.211	84.5114	366.211	84.3629	366.211	84.4428	366.211	84.3772	366.211	84.4024
379.395	87.4079	379.395	87.3981	379.395	87.3726	379.395	87.3375	379.395	87.2973	379.395	87.2175	379.395	87.1884	379.395	87.027	379.395	87.051	379.395	86.7571	379.395	86.8859	379.395	86.4109	379.395	86.6892	379.395	86.0092	379.395	86.4562	379.395	85.589	379.395	86.1889	379.395	85.1923	379.395	85.8995	379.395	84.8538	379.395	85.6069	379.395	84.5983	379.395	85.331	379.395	84.4424	379.395	85.0873	379.395	84.3891	379.395	84.8873	379.395	84.417	379.395	84.7388	379.395	84.4831	379.395	84.6446	379.395	84.5439	379.395	84.5984	379.395	84.5773	379.395	84.5853	379.395	84.5855
392.578	87.2488	392.578	87.2307	392.578	87.217	392.578	87.1684	392.578	87.1298	392.578	87.0659	392.578	86.9856	392.578	86.9239	392.578	86.7912	392.578	86.7387	392.578	86.5637	392.578	86.5033	392.578	86.325	392.578	86.2134	392.578	86.0915	392.578	85.8734	392.578	85.8672	392.578	85.4985	392.578	85.6463	392.578	85.1104	392.578	85.4235	392.578	84.7322	392.578	85.2039	392.578	84.3909	392.578	85.0032	392.578	84.1237	392.578	84.8379	392.578	83.9709	392.578	84.7127	392.578	83.9497	392.578	84.6166	392.578	84.0346	392.578	84.5295	392.578	84.1717	392.578	84.4321	392.578	84.3122
405.762	87.2957	405.762	87.2746	405.762	87.2296	405.762	87.168	405.762	87.0781	405.762	86.9875	405.762	86.8441	405.762	86.7598	405.762	86.5349	405.762	86.5224	405.762	86.1668	405.762	86.3066	405.762	85.7682	405.762	86.1189	405.762	85.3779	405.762	85.9398	405.762	85.0373	405.762	85.7428	405.762	84.7756	405.762	85.5162	405.762	84.5953	405.762	85.2679	405.762	84.4738	405.762	85.0146	405.762	84.3845	405.762	84.7705	405.762	84.3169	405.762	84.5492	405.762	84.2764	405.762	84.3713	405.762	84.264	405.762	84.2596	405.762	84.2635	405.762	84.2199	405.762	84.2531	405.762	84.2302
420.41	86.9089	420.41	86.9443	420.41	86.7889	420.41	86.8993	420.41	86.597	420.41	86.7848	420.41	86.3646	420.41	86.6102	420.41	86.1311	420.41	86.3833	420.41	85.9232	420.41	86.1166	420.41	85.7397	420.41	85.8292	420.41	85.551	420.41	85.5385	420.41	85.3193	420.41	85.2483	420.41	85.0235	420.41	84.9535	420.41	84.6759	420.41	84.6639	420.41	84.3186	420.41	84.4216	420.41	84.005	420.41	84.2805	420.41	83.7812	420.41	84.2594	420.41	83.6786	420.41	84.3165	420.41	83.7096	420.41	84.3736	420.41	83.8558	420.41	84.3611	420.41	84.0611	420.41	84.25
435.059	86.372	435.059	86.3935	435.059	86.2705	435.059	86.3359	435.059	86.1	435.059	86.2109	435.059	85.8804	435.059	86.0329	435.059	85.6362	435.059	85.812	435.059	85.395	435.059	85.5563	435.059	85.1807	435.059	85.2813	435.059	85.0006	435.059	85.0153	435.059	84.8404	435.059	84.79	435.059	84.679	435.059	84.6249	435.059	84.5133	435.059	84.5173	435.059	84.3701	435.059	84.4475	435.059	84.2913	435.059	84.394	435.059	84.2996	435.059	84.3494	435.059	84.375	435.059	84.3249	435.059	84.4631	435.059	84.3359	435.059	84.5124	435.059	84.3837	435.059	84.5032	435.059	84.4498
451.172	87.3504	451.172	87.1544	451.172	87.3605	451.172	86.7983	451.172	87.1694	451.172	86.3251	451.172	86.7776	451.172	85.8037	451.172	86.2138	451.172	85.3243	451.172	85.5506	451.172	84.9662	451.172	84.9074	451.172	84.7586	451.172	84.4204	451.172	84.6761	451.172	84.1738	451.172	84.67	451.172	84.1471	451.172	84.6958	451.172	84.2433	451.172	84.7186	451.172	84.3618	451.172	84.7117	451.172	84.4417	451.172	84.6632	451.172	84.4631	451.172	84.5825	451.172	84.4332	451.172	84.4919	451.172	84.3758	451.172	84.4102	451.172	84.3211	451.172	84.346	451.172	84.2943	451.172	84.3045
465.82	87.9116	465.82	87.9698	465.82	87.7447	465.82	87.8732	465.82	87.5023	465.82	87.5831	465.82	87.1897	465.82	87.0833	465.82	86.7877	465.82	86.3912	465.82	86.2734	465.82	85.573	465.82	85.6476	465.82	84.7601	465.82	84.9594	465.82	84.1283	465.82	84.318	465.82	83.8063	465.82	83.8669	465.82	83.7921	465.82	83.7057	465.82	83.9916	465.82	83.8208	465.82	84.3083	465.82	84.1117	465.82	84.6725	465.82	84.4711	465.82	85.0285	465.82	84.828	465.82	85.3294	465.82	85.1438	465.82	85.543	465.82	85.3972	465.82	85.6546	465.82	85.5741	465.82	85.663
483.398	87.9688	483.398	87.8653	483.398	87.9681	483.398	87.6736	483.398	87.847	483.398	87.4006	483.398	87.5962	483.398	87.0398	483.398	87.2159	483.398	86.5733	483.398	86.7122	483.398	85.9823	483.398	86.095	483.398	85.2663	483.398	85.3818	483.398	84.4662	483.398	84.6137	483.398	83.6869	483.398	83.8769	483.398	83.0951	483.398	83.3088	483.398	82.8587	483.398	83.0498	483.398	83.0314	483.398	83.1478	483.398	83.504	483.398	83.5168	483.398	84.0881	483.398	84.0059	483.398	84.6245	483.398	84.4869	483.398	85.0209	483.398	84.8833	483.398	85.2406	483.398	85.1557	483.398	85.2811
499.512	88.2389	499.512	88.175	499.512	88.2138	499.512	88.0159	499.512	88.0739	499.512	87.7235	499.512	87.7843	499.512	87.2574	499.512	87.3249	499.512	86.6114	499.512	86.7025	499.512	85.832	499.512	85.9513	499.512	85.0041	499.512	85.1344	499.512	84.2197	499.512	84.3483	499.512	83.5599	499.512	83.718	499.512	83.1055	499.512	83.3562	499.512	82.9349	499.512	83.3032	499.512	83.0766	499.512	83.5196	499.512	83.471	499.512	83.935	499.512	84.0075	499.512	84.4703	499.512	84.5807	499.512	85.0238	499.512	85.1076	499.512	85.4766	499.512	85.5164	499.512	85.7308	499.512	85.7406
517.09	87.9221	517.09	87.8756	517.09	87.9329	517.09	87.7924	517.09	87.8661	517.09	87.6339	517.09	87.6635	517.09	87.3518	517.09	87.289	517.09	86.9086	517.09	86.7438	517.09	86.283	517.09	86.0499	517.09	85.4773	517.09	85.2239	517.09	84.5433	517.09	84.2838	517.09	83.6091	517.09	83.3175	517.09	82.8578	517.09	82.555	517.09	82.4449	517.09	82.2697	517.09	82.4263	517.09	82.4855	517.09	82.7435	517.09	82.9435	517.09	83.2461	517.09	83.3931	517.09	83.7529	517.09	83.7427	517.09	84.1287	517.09	84.0067	517.09	84.3171	517.09	84.2079	517.09	84.328
536.133	88.5838	536.133	88.5429	536.133	88.4734	536.133	88.3596	536.133	88.2394	536.133	88.0639	536.133	87.9289	536.133	87.6831	536.133	87.5665	536.133	87.2263	536.133	87.1249	536.133	86.6822	536.133	86.5346	536.133	86.0222	536.133	85.7263	536.133	85.2188	536.133	84.6764	536.133	84.286	536.133	83.4491	536.133	83.328	536.133	82.2533	536.133	82.5628	536.133	81.4774	536.133	82.2464	536.133	81.4505	536.133	82.4594	536.133	82.0351	536.133	82.9997	536.133	82.8141	536.133	83.5849	536.133	83.5094	536.133	84.0484	536.133	84.0219	536.133	84.3356	536.133	84.3297	536.133	84.4322
555.176	88.7387	555.176	88.6823	555.176	88.7219	555.176	88.5619	555.176	88.6345	555.176	88.3776	555.176	88.4779	555.176	88.0938	555.176	88.2315	555.176	87.6477	555.176	87.8599	555.176	86.9908	555.176	87.3474	555.176	86.1269	555.176	86.7142	555.176	85.1201	555.176	85.9885	555.176	84.0749	555.176	85.1675	555.176	83.116	555.176	84.2498	555.176	82.4038	555.176	83.3618	555.176	82.1367	555.176	82.817	555.176	82.4196	555.176	82.8424	555.176	83.1169	555.176	83.2963	555.176	83.9504	555.176	83.9029	555.176	84.6701	555.176	84.4942	555.176	85.1109	555.176	84.9644	555.176	85.2014
574.219	88.6543	574.219	88.5041	574.219	88.6807	574.219	88.254	574.219	88.5445	574.219	87.9081	574.219	88.2388	574.219	87.4929	574.219	87.8074	574.219	87.0596	574.219	87.3003	574.219	86.6137	574.219	86.7262	574.219	86.0623	574.219	86.0614	574.219	85.2816	574.219	85.2985	574.219	84.2696	574.219	84.469	574.219	83.2754	574.219	83.6493	574.219	82.6942	574.219	83.0044	574.219	82.6362	574.219	82.7678	574.219	82.8736	574.219	83.0193	574.219	83.2507	574.219	83.575	574.219	83.7564	574.219	84.198	574.219	84.3442	574.219	84.7393	574.219	84.8644	574.219	85.0893	574.219	85.1428
594.727	88.9997	594.727	89.0106	594.727	88.9634	594.727	88.9538	594.727	88.9069	594.727	88.7853	594.727	88.7796	594.727	88.4605	594.727	88.5072	594.727	87.9207	594.727	88.0322	594.727	87.1096	594.727	87.3221	594.727	86.0095	594.727	86.3701	594.727	84.6423	594.727	85.2238	594.727	83.0364	594.727	84.0035	594.727	81.2895	594.727	82.8534	594.727	79.8839	594.727	81.8961	594.727	79.7307	594.727	81.3168	594.727	80.8353	594.727	81.3845	594.727	82.2137	594.727	82.1104	594.727	83.2799	594.727	83.0853	594.727	83.9391	594.727	83.8801	594.727	84.2876	594.727	84.3153	594.727	84.4193
615.234	89.988	615.234	90.1046	615.234	89.8681	615.234	90.1422	615.234	89.7659	615.234	90.0098	615.234	89.6308	615.234	89.6538	615.234	89.3682	615.234	89.0926	615.234	88.8913	615.234	88.3964	615.234	88.1464	615.234	87.6143	615.234	87.1105	615.234	86.7222	615.234	85.7966	615.234	85.6335	615.234	84.2751	615.234	84.2453	615.234	82.7408	615.234	82.5404	615.234	81.6602	615.234	80.8322	615.234	81.4988	615.234	79.9592	615.234	81.9697	615.234	80.4674	615.234	82.5125	615.234	81.7651	615.234	83.0005	615.234	83.0664	615.234	83.5206	615.234	83.9371	615.234	84.0096	615.234	84.2263
637.207	89.1517	637.207	89.1166	637.207	89.1271	637.207	89.0704	637.207	89.0247	637.207	89.0485	637.207	88.8381	637.207	89.0219	637.207	88.5297	637.207	88.9098	637.207	88.061	637.207	88.639	637.207	87.4637	637.207	88.1743	637.207	86.8019	637.207	87.4809	637.207	86.0338	637.207	86.4696	637.207	84.9861	637.207	85.0297	637.207	83.5535	637.207	83.1936	637.207	82.0263	637.207	81.3919	637.207	81.1874	637.207	80.4487	637.207	81.4812	637.207	80.682	637.207	82.4098	637.207	81.5328	637.207	83.3482	637.207	82.4706	637.207	83.969	637.207	83.2851	637.207	84.1442	637.207	83.8813
659.18	88.6613	659.18	88.4863	659.18	88.7218	659.18	88.2804	659.18	88.5858	659.18	88.1024	659.18	88.2459	659.18	87.9787	659.18	87.8051	659.18	87.8456	659.18	87.3857	659.18	87.5326	659.18	86.9922	659.18	86.8981	659.18	86.5029	659.18	85.9872	659.18	85.7655	659.18	85.0271	659.18	84.666	659.18	84.1467	659.18	83.1971	659.18	83.1813	659.18	81.6362	659.18	82.0835	659.18	80.7081	659.18	81.518	659.18	80.9456	659.18	82.1821	659.18	81.9334	659.18	83.4245	659.18	83.0353	659.18	84.4096	659.18	83.9337	659.18	84.8859	659.18	84.5573	659.18	84.897
682.617	88.2694	682.617	88.3391	682.617	88.182	682.617	88.3669	682.617	88.1163	682.617	88.3214	682.617	88.0619	682.617	88.1388	682.617	87.9201	682.617	87.7974	682.617	87.6038	682.617	87.38	682.617	87.1104	682.617	86.9297	682.617	86.4459	682.617	86.2444	682.617	85.5436	682.617	84.9951	682.617	84.2696	682.617	83.0733	682.617	82.5066	682.617	80.8242	682.617	80.4588	682.617	79.036	682.617	79.1363	682.617	78.6646	682.617	79.3593	682.617	79.6737	682.617	80.3742	682.617	80.9265	682.617	81.5086	682.617	81.8939	682.617	82.5182	682.617	82.6564	682.617	83.1298	682.617	83.1514
707.52	87.5973	707.52	87.6724	707.52	87.4767	707.52	87.6351	707.52	87.3837	707.52	87.5005	707.52	87.359	707.52	87.3513	707.52	87.3651	707.52	87.214	707.52	87.2515	707.52	86.9813	707.52	86.8569	707.52	86.4964	707.52	86.1056	707.52	85.7478	707.52	85.0161	707.52	84.9073	707.52	83.6807	707.52	84.0098	707.52	82.2037	707.52	82.8264	707.52	80.5039	707.52	81.3347	707.52	78.4311	707.52	80.0869	707.52	77.1109	707.52	79.7926	707.52	78.6062	707.52	80.4503	707.52	80.8452	707.52	81.3371	707.52	82.1211	707.52	81.9499	707.52	82.4755	707.52	82.3222
732.422	87.0478	732.422	87.0334	732.422	87.0943	732.422	87.061	732.422	87.0429	732.422	87.0547	732.422	86.8468	732.422	87.0122	732.422	86.6424	732.422	86.9434	732.422	86.525	732.422	86.7713	732.422	86.3486	732.422	86.4181	732.422	85.9234	732.422	85.8619	732.422	85.2216	732.422	85.0433	732.422	84.2682	732.422	83.8038	732.422	83.0283	732.422	81.9649	732.422	81.4848	732.422	79.5944	732.422	79.745	732.422	77.6517	732.422	78.3423	732.422	77.7067	732.422	78.2895	732.422	79.1617	732.422	79.3018	732.422	80.748	732.422	80.4561	732.422	81.8567	732.422	81.5021	732.422	82.1007
757.324	86.786	757.324	86.4132	757.324	86.7681	757.324	86.0139	757.324	86.4197	757.324	85.8981	757.324	86.0737	757.324	85.9266	757.324	85.8765	757.324	85.9568	757.324	85.7545	757.324	85.9836	757.324	85.7358	757.324	85.808	757.324	85.8076	757.324	85.3299	757.324	85.6141	757.324	84.7292	757.324	84.7435	757.324	83.8443	757.324	83.2268	757.324	82.1387	757.324	81.5505	757.324	79.7832	757.324	79.5662	757.324	78.0869	757.324	77.0814	757.324	77.9236	757.324	76.3765	757.324	79.0914	757.324	78.0655	757.324	80.5153	757.324	79.7585	757.324	81.3093	757.324	80.9103	757.324	81.4353
785.156	86.6702	785.156	86.9463	785.156	86.4673	785.156	87.0076	785.156	86.3513	785.156	86.7771	785.156	86.2025	785.156	86.4305	785.156	86.1047	785.156	86.0392	785.156	86.0279	785.156	85.6851	785.156	85.8507	785.156	85.2858	785.156	85.7759	785.156	84.4862	785.156	85.8074	785.156	83.5289	785.156	85.3288	785.156	83.0038	785.156	83.9844	785.156	82.1541	785.156	82.3135	785.156	79.8706	785.156	80.982	785.156	77.2869	785.156	79.3906	785.156	77.2345	785.156	77.501	785.156	78.1011	785.156	77.1466	785.156	78.8875	785.156	77.7259	785.156	79.3272	785.156	78.2441	785.156	78.9658
811.523	83.8652	811.523	83.6262	811.523	83.6735	811.523	83.4735	811.523	83.2012	811.523	83.5436	811.523	82.6926	811.523	83.3118	811.523	81.9898	811.523	82.6576	811.523	81.3035	811.523	82.0456	811.523	81.214	811.523	82.0896	811.523	81.0056	811.523	82.3314	811.523	80.0481	811.523	81.3503	811.523	79.5934	811.523	78.6715	811.523	80.0715	811.523	76.2731	811.523	79.4697	811.523	75.5396	811.523	77.3418	811.523	75.189	811.523	77.2588	811.523	75.9037	811.523	79.7904	811.523	77.8866	811.523	80.8893	811.523	79.502	811.523	80.9815	811.523	80.5326	811.523	81.2774	811.523	81.2058
840.82	84.2963	840.82	84.4836	840.82	84.1931	840.82	84.3333	840.82	84.0554	840.82	84.0401	840.82	83.4953	840.82	84.2143	840.82	82.8686	840.82	84.5116	840.82	82.6414	840.82	84.6862	840.82	82.6374	840.82	84.5601	840.82	82.7542	840.82	83.5451	840.82	82.9834	840.82	81.869	840.82	82.8124	840.82	80.9749	840.82	81.7985	840.82	80.2386	840.82	80.7099	840.82	77.2704	840.82	79.9439	840.82	72.589	840.82	76.9691	840.82	74.3128	840.82	69.3664	840.82	76.7702	840.82	72.093	840.82	77.8959	840.82	75.3286	840.82	78.3842	840.82	76.7391	840.82	77.9509
870.117	85.891	870.117	85.6402	870.117	85.8741	870.117	85.2214	870.117	85.7796	870.117	84.8111	870.117	85.7009	870.117	84.4002	870.117	85.3793	870.117	84.1212	870.117	84.8743	870.117	84.0904	870.117	84.728	870.117	84.3145	870.117	85.0489	870.117	84.4392	870.117	85.6043	870.117	83.4083	870.117	85.7852	870.117	80.8063	870.117	84.8442	870.117	77.6828	870.117	82.9041	870.117	74.982	870.117	80.8237	870.117	73.5276	870.117	79.1923	870.117	75.9125	870.117	78.4893	870.117	79.2419	870.117	78.4851	870.117	81.7311	870.117	79.3957	870.117	82.5912	870.117	80.9054	870.117	82.0656
900.879	85.6896	900.879	85.5342	900.879	85.464	900.879	84.7853	900.879	85.2726	900.879	83.8399	900.879	85.1161	900.879	83.2697	900.879	84.6432	900.879	82.8365	900.879	83.9564	900.879	82.4281	900.879	83.6351	900.879	82.3217	900.879	83.7743	900.879	82.2814	900.879	84.0004	900.879	82.3315	900.879	83.8183	900.879	82.2831	900.879	82.6002	900.879	81.3162	900.879	80.4534	900.879	78.7798	900.879	77.8124	900.879	74.7352	900.879	74.7488	900.879	74.0289	900.879	76.3438	900.879	76.8981	900.879	78.9707	900.879	79.125	900.879	79.7498	900.879	80.6291	900.879	80.4243	900.879	81.0668
933.105	85.4072	933.105	85.4795	933.105	85.5435	933.105	85.4107	933.105	85.3715	933.105	84.7829	933.105	84.6852	933.105	84.1161	933.105	83.891	933.105	83.4613	933.105	83.433	933.105	82.6839	933.105	83.3398	933.105	82.4744	933.105	83.1345	933.105	82.1973	933.105	82.7589	933.105	80.671	933.105	82.3818	933.105	78.4927	933.105	81.7719	933.105	76.6477	933.105	81.0569	933.105	74.2046	933.105	79.6891	933.105	71.5381	933.105	75.5084	933.105	71.9891	933.105	74.4888	933.105	75.8606	933.105	78.6046	933.105	79.2726	933.105	80.0168	933.105	81.3904	933.105	81.4393	933.105	82.2363
965.332	87.2346	965.332	86.769	965.332	87.4751	965.332	86.1291	965.332	87.5321	965.332	85.3593	965.332	87.238	965.332	84.5305	965.332	86.4722	965.332	84.1043	965.332	85.6144	965.332	84.1442	965.332	85.1411	965.332	84.4384	965.332	85.2013	965.332	84.9888	965.332	85.6203	965.332	85.3587	965.332	85.5818	965.332	85.3333	965.332	84.5856	965.332	85.033	965.332	83.2473	965.332	83.7699	965.332	81.8645	965.332	81.0196	965.332	79.3345	965.332	79.2717	965.332	76.7099	965.332	79.907	965.332	77.7294	965.332	80.7922	965.332	79.4618	965.332	81.1583	965.332	80.5031	965.332	80.9601
1,000.49	85.8346	1,000.49	85.8936	1,000.49	85.9729	1,000.49	85.5596	1,000.49	85.9455	1,000.49	84.349	1,000.49	85.3406	1,000.49	83.3103	1,000.49	84.124	1,000.49	82.852	1,000.49	83.0323	1,000.49	82.8046	1,000.49	82.7771	1,000.49	84.135	1,000.49	82.5832	1,000.49	85.2136	1,000.49	82.9618	1,000.49	84.9262	1,000.49	83.8295	1,000.49	84.2278	1,000.49	83.1502	1,000.49	83.1655	1,000.49	80.9931	1,000.49	81.3476	1,000.49	79.1132	1,000.49	80.954	1,000.49	74.9336	1,000.49	81.6303	1,000.49	71.5307	1,000.49	82.4481	1,000.49	76.9203	1,000.49	83.4263	1,000.49	79.934	1,000.49	84.2072	1,000.49	83.1978	1,000.49	84.6678
1,035.64	85.0641	1,035.64	85.4352	1,035.64	84.9433	1,035.64	85.2586	1,035.64	85.0922	1,035.64	83.9467	1,035.64	84.8344	1,035.64	82.0526	1,035.64	84.0724	1,035.64	80.672	1,035.64	83.1451	1,035.64	78.4613	1,035.64	82.5855	1,035.64	74.2325	1,035.64	82.4184	1,035.64	73.2016	1,035.64	82.4654	1,035.64	73.8331	1,035.64	83.5718	1,035.64	72.5787	1,035.64	84.532	1,035.64	72.9502	1,035.64	84.1758	1,035.64	71.3693	1,035.64	82.9796	1,035.64	58.0463	1,035.64	80.7565	1,035.64	72.7872	1,035.64	78.0962	1,035.64	77.8369	1,035.64	78.6199	1,035.64	80.0951	1,035.64	79.6926	1,035.64	82.0289	1,035.64	81.3005	1,035.64	82.8011
1,072.27	87.8144	1,072.27	87.132	1,072.27	88.2696	1,072.27	86.5038	1,072.27	88.2473	1,072.27	85.3996	1,072.27	87.9345	1,072.27	83.5693	1,072.27	87.3133	1,072.27	82.3434	1,072.27	86.0541	1,072.27	81.7337	1,072.27	85.1964	1,072.27	80.797	1,072.27	85.1398	1,072.27	81.7684	1,072.27	84.9048	1,072.27	82.9465	1,072.27	84.9618	1,072.27	83.056	1,072.27	84.4851	1,072.27	82.694	1,072.27	83.2703	1,072.27	80.5581	1,072.27	82.243	1,072.27	77.2461	1,072.27	78.8451	1,072.27	77.8319	1,072.27	75.2811	1,072.27	78.9762	1,072.27	79.3338	1,072.27	81.5007	1,072.27	81.9936	1,072.27	83.7371	1,072.27	83.9514	1,072.27	84.5691
1,108.89	87.086	1,108.89	87.5359	1,108.89	86.25	1,108.89	87.158	1,108.89	85.764	1,108.89	86.3082	1,108.89	85.4459	1,108.89	85.1501	1,108.89	84.4327	1,108.89	83.3927	1,108.89	83.0024	1,108.89	81.2349	1,108.89	82.3882	1,108.89	77.6845	1,108.89	82.2813	1,108.89	74.305	1,108.89	81.5806	1,108.89	77.2405	1,108.89	81.9531	1,108.89	77.7724	1,108.89	82.3535	1,108.89	77.2666	1,108.89	81.7113	1,108.89	75.5994	1,108.89	81.9463	1,108.89	66.6453	1,108.89	80.3203	1,108.89	71.9346	1,108.89	76.8852	1,108.89	77.1782	1,108.89	78.7723	1,108.89	81.0603	1,108.89	81.2412	1,108.89	83.4858	1,108.89	83.0409	1,108.89	83.995
1,148.44	85.9713	1,148.44	86.2627	1,148.44	85.5439	1,148.44	85.6925	1,148.44	85.1891	1,148.44	84.7118	1,148.44	84.3721	1,148.44	84.1017	1,148.44	83.5785	1,148.44	83.1251	1,148.44	83.2484	1,148.44	81.5037	1,148.44	83.005	1,148.44	80.2423	1,148.44	82.6761	1,148.44	79.1276	1,148.44	81.4808	1,148.44	79.0592	1,148.44	79.1839	1,148.44	79.606	1,148.44	79.1137	1,148.44	78.9068	1,148.44	78.0678	1,148.44	76.378	1,148.44	73.9248	1,148.44	68.2891	1,148.44	71.0271	1,148.44	75.3847	1,148.44	75.448	1,148.44	77.4881	1,148.44	79.2266	1,148.44	79.9335	1,148.44	81.383	1,148.44	82.6416	1,148.44	82.608	1,148.44	82.9929
1,189.45	86.6485	1,189.45	86.9193	1,189.45	85.7014	1,189.45	86.6519	1,189.45	84.8622	1,189.45	86.4004	1,189.45	84.2236	1,189.45	85.7268	1,189.45	83.6679	1,189.45	84.6022	1,189.45	82.3164	1,189.45	82.9692	1,189.45	80.6008	1,189.45	81.0751	1,189.45	79.808	1,189.45	79.3897	1,189.45	79.1814	1,189.45	78.696	1,189.45	79.564	1,189.45	78.6487	1,189.45	78.6066	1,189.45	78.1463	1,189.45	76.7402	1,189.45	75.9765	1,189.45	76.8865	1,189.45	64.2362	1,189.45	72.0568	1,189.45	67.2152	1,189.45	56.1625	1,189.45	73.6257	1,189.45	71.1395	1,189.45	77.8405	1,189.45	76.3093	1,189.45	79.8203	1,189.45	79.4705	1,189.45	80.4534
1,230.47	87.4563	1,230.47	87.7794	1,230.47	87.1861	1,230.47	87.5436	1,230.47	86.2096	1,230.47	86.5732	1,230.47	85.2712	1,230.47	85.7841	1,230.47	84.2818	1,230.47	84.8379	1,230.47	82.4344	1,230.47	84.2872	1,230.47	81.2452	1,230.47	82.8971	1,230.47	81.5045	1,230.47	81.1366	1,230.47	81.0739	1,230.47	80.7633	1,230.47	78.5869	1,230.47	81.5685	1,230.47	77.4769	1,230.47	81.2794	1,230.47	76.5516	1,230.47	79.3313	1,230.47	71.3183	1,230.47	77.5253	1,230.47	68.0444	1,230.47	72.1078	1,230.47	67.2916	1,230.47	64.7041	1,230.47	74.6008	1,230.47	70.9459	1,230.47	77.8775	1,230.47	75.6228	1,230.47	79.0156	1,230.47	78.5994
1,274.41	88.0388	1,274.41	88.0741	1,274.41	87.1723	1,274.41	87.7325	1,274.41	86.6842	1,274.41	87.4414	1,274.41	86.5357	1,274.41	86.5311	1,274.41	85.6886	1,274.41	84.9768	1,274.41	84.0254	1,274.41	83.4964	1,274.41	81.892	1,274.41	81.9065	1,274.41	79.6175	1,274.41	79.4748	1,274.41	76.985	1,274.41	77.6132	1,274.41	76.3463	1,274.41	76.7497	1,274.41	76.8877	1,274.41	76.6312	1,274.41	77.2112	1,274.41	76.1887	1,274.41	76.5906	1,274.41	71.6146	1,274.41	72.2428	1,274.41	58.7582	1,274.41	62.9626	1,274.41	69.6078	1,274.41	68.7422	1,274.41	75.3533	1,274.41	75.8209	1,274.41	78.0245	1,274.41	78.2016	1,274.41	78.9272
1,319.82	88.1898	1,319.82	88.1565	1,319.82	87.9673	1,319.82	87.8608	1,319.82	86.9743	1,319.82	87.2408	1,319.82	86.1913	1,319.82	86.4722	1,319.82	84.8612	1,319.82	85.0412	1,319.82	82.3215	1,319.82	84.2646	1,319.82	80.4414	1,319.82	84.2547	1,319.82	79.8553	1,319.82	83.283	1,319.82	80.2374	1,319.82	82.0435	1,319.82	80.5919	1,319.82	81.9622	1,319.82	80.5337	1,319.82	82.1958	1,319.82	79.0189	1,319.82	82.0269	1,319.82	75.7321	1,319.82	80.2102	1,319.82	73.0703	1,319.82	76.0093	1,319.82	62.0709	1,319.82	64.3414	1,319.82	72.3105	1,319.82	74.7767	1,319.82	78.152	1,319.82	77.0483	1,319.82	79.8642	1,319.82	78.67
1,366.7	87.2396	1,366.7	86.9582	1,366.7	87.151	1,366.7	86.5488	1,366.7	86.7666	1,366.7	86.5262	1,366.7	85.4908	1,366.7	86.189	1,366.7	84.1434	1,366.7	85.3386	1,366.7	83.4722	1,366.7	84.5525	1,366.7	82.1463	1,366.7	83.5388	1,366.7	80.322	1,366.7	82.5021	1,366.7	79.9992	1,366.7	81.0963	1,366.7	78.9322	1,366.7	81.5737	1,366.7	79.8059	1,366.7	81.2732	1,366.7	81.3389	1,366.7	78.8094	1,366.7	79.1249	1,366.7	76.0756	1,366.7	74.3966	1,366.7	70.4197	1,366.7	69.9123	1,366.7	63.9014	1,366.7	70.4566	1,366.7	76.18	1,366.7	76.7483	1,366.7	78.002	1,366.7	79.3053	1,366.7	78.4407
1,413.57	86.691	1,413.57	86.2501	1,413.57	87.0123	1,413.57	85.8339	1,413.57	87.2097	1,413.57	85.8075	1,413.57	86.5975	1,413.57	85.8128	1,413.57	85.5019	1,413.57	84.9003	1,413.57	84.7182	1,413.57	83.5786	1,413.57	83.7446	1,413.57	82.2349	1,413.57	82.5631	1,413.57	80.8584	1,413.57	81.1649	1,413.57	80.4175	1,413.57	81.0909	1,413.57	80.7159	1,413.57	81.6634	1,413.57	80.9444	1,413.57	81.2744	1,413.57	79.9802	1,413.57	81.4541	1,413.57	76.6852	1,413.57	78.946	1,413.57	67.5007	1,413.57	72.188	1,413.57	65.3352	1,413.57	66.0785	1,413.57	73.6295	1,413.57	74.0312	1,413.57	76.0704	1,413.57	77.2655	1,413.57	76.2967
1,463.38	85.4674	1,463.38	85.7143	1,463.38	85.5125	1,463.38	85.9428	1,463.38	85.5276	1,463.38	85.6019	1,463.38	85.327	1,463.38	84.4126	1,463.38	84.5842	1,463.38	83.0954	1,463.38	83.8077	1,463.38	81.5318	1,463.38	82.6052	1,463.38	79.8794	1,463.38	80.7745	1,463.38	78.7685	1,463.38	80.3007	1,463.38	77.8389	1,463.38	80.2233	1,463.38	77.7686	1,463.38	80.5299	1,463.38	79.1095	1,463.38	81.5527	1,463.38	78.4307	1,463.38	79.6403	1,463.38	76.3323	1,463.38	78.335	1,463.38	69.6695	1,463.38	75.1081	1,463.38	59.1395	1,463.38	61.8232	1,463.38	64.5749	1,463.38	68.7035	1,463.38	70.3031	1,463.38	71.1873	1,463.38	71.1537
1,516.11	85.5238	1,516.11	85.7164	1,516.11	85.6752	1,516.11	85.981	1,516.11	85.738	1,516.11	85.6603	1,516.11	85.0401	1,516.11	85.3469	1,516.11	83.9733	1,516.11	84.2061	1,516.11	83.7979	1,516.11	82.0038	1,516.11	82.7144	1,516.11	78.6399	1,516.11	82.3679	1,516.11	74.3056	1,516.11	81.2635	1,516.11	73.9677	1,516.11	79.0502	1,516.11	73.7853	1,516.11	77.0516	1,516.11	76.5412	1,516.11	77.8811	1,516.11	75.7778	1,516.11	78.4091	1,516.11	75.0972	1,516.11	74.4643	1,516.11	69.688	1,516.11	68.4218	1,516.11	46.342	1,516.11	62.4121	1,516.11	61.1248	1,516.11	71.7028	1,516.11	70.722	1,516.11	73.8369	1,516.11	72.5972
1,568.85	84.7107	1,568.85	85.2833	1,568.85	84.9647	1,568.85	84.9198	1,568.85	84.1264	1,568.85	84.3255	1,568.85	83.6191	1,568.85	83.4532	1,568.85	83.1902	1,568.85	82.6867	1,568.85	82.2526	1,568.85	81.5708	1,568.85	81.2069	1,568.85	79.2016	1,568.85	79.1579	1,568.85	76.0199	1,568.85	75.5986	1,568.85	74.3382	1,568.85	74.2246	1,568.85	76.6453	1,568.85	77.7206	1,568.85	79.7546	1,568.85	78.4974	1,568.85	78.7713	1,568.85	79.0482	1,568.85	76.2062	1,568.85	78.5382	1,568.85	71.3233	1,568.85	74.1056	1,568.85	57.4485	1,568.85	65.8645	1,568.85	68.7824	1,568.85	60.3759	1,568.85	75.7831	1,568.85	69.6955	1,568.85	73.4784
1,624.51	86.2146	1,624.51	86.2698	1,624.51	85.7334	1,624.51	85.9601	1,624.51	85.8017	1,624.51	85.4585	1,624.51	85.2616	1,624.51	84.2829	1,624.51	84.489	1,624.51	83.5559	1,624.51	84.1026	1,624.51	82.2578	1,624.51	82.9562	1,624.51	79.3688	1,624.51	81.2954	1,624.51	75.4442	1,624.51	78.1128	1,624.51	71.1239	1,624.51	76.5225	1,624.51	72.5794	1,624.51	75.4272	1,624.51	74.1614	1,624.51	76.8728	1,624.51	75.2715	1,624.51	79.2146	1,624.51	75.5435	1,624.51	76.2957	1,624.51	73.221	1,624.51	72.0729	1,624.51	63.8113	1,624.51	60.1215	1,624.51	61.1486	1,624.51	68.5199	1,624.51	73.2142	1,624.51	73.8159	1,624.51	74.3479
1,681.64	87.2742	1,681.64	87.1277	1,681.64	87.1523	1,681.64	86.5654	1,681.64	86.7921	1,681.64	86.0601	1,681.64	85.8831	1,681.64	85.078	1,681.64	84.9171	1,681.64	84.0147	1,681.64	84.0332	1,681.64	83.5407	1,681.64	83.5101	1,681.64	80.9405	1,681.64	80.6387	1,681.64	78.8741	1,681.64	76.705	1,681.64	75.6838	1,681.64	75.0307	1,681.64	75.8997	1,681.64	75.4446	1,681.64	76.424	1,681.64	76.3502	1,681.64	76.1229	1,681.64	77.5823	1,681.64	76.2276	1,681.64	78.6502	1,681.64	74.737	1,681.64	75.1327	1,681.64	70.347	1,681.64	64.7474	1,681.64	68.6389	1,681.64	63.194	1,681.64	73.7836	1,681.64	73.8506	1,681.64	76.2835
1,741.7	87.0257	1,741.7	86.8639	1,741.7	86.5306	1,741.7	86.7519	1,741.7	85.9102	1,741.7	86.2515	1,741.7	84.809	1,741.7	85.032	1,741.7	83.3509	1,741.7	84.9121	1,741.7	82.6118	1,741.7	82.0045	1,741.7	81.5833	1,741.7	82.4844	1,741.7	79.8067	1,741.7	81.2196	1,741.7	78.7607	1,741.7	78.9955	1,741.7	78.6399	1,741.7	76.6964	1,741.7	77.7737	1,741.7	77.5304	1,741.7	77.8824	1,741.7	78.6722	1,741.7	78.5199	1,741.7	76.7705	1,741.7	76.5362	1,741.7	74.9638	1,741.7	73.3336	1,741.7	67.8898	1,741.7	58.1144	1,741.7	65.396	1,741.7	62.0578	1,741.7	75.8633	1,741.7	73.6443	1,741.7	74.0215
1,803.22	87.172	1,803.22	87.0665	1,803.22	86.737	1,803.22	86.5961	1,803.22	85.9921	1,803.22	85.9248	1,803.22	84.8352	1,803.22	85.0878	1,803.22	83.608	1,803.22	84.4263	1,803.22	82.1635	1,803.22	83	1,803.22	81.3427	1,803.22	82.0776	1,803.22	80.41	1,803.22	80.7744	1,803.22	78.8293	1,803.22	78.7021	1,803.22	76.6223	1,803.22	77.2331	1,803.22	75.6498	1,803.22	76.5314	1,803.22	73.6635	1,803.22	76.5852	1,803.22	75.2426	1,803.22	77.2365	1,803.22	75.7237	1,803.22	74.5761	1,803.22	72.8078	1,803.22	70.3334	1,803.22	66.469	1,803.22	64.7916	1,803.22	58.6364	1,803.22	70.9266	1,803.22	70.3167	1,803.22	72.8769
1,866.21	85.9529	1,866.21	85.7655	1,866.21	85.5667	1,866.21	85.407	1,866.21	84.9417	1,866.21	84.7928	1,866.21	84.2894	1,866.21	84.2731	1,866.21	83.3309	1,866.21	83.2096	1,866.21	82.1584	1,866.21	82.3539	1,866.21	80.7092	1,866.21	81.5038	1,866.21	79.6284	1,866.21	79.7398	1,866.21	78.1003	1,866.21	78.1074	1,866.21	76.7001	1,866.21	77.02	1,866.21	74.9229	1,866.21	76.9086	1,866.21	74.4447	1,866.21	76.3254	1,866.21	75.0659	1,866.21	74.2467	1,866.21	73.6273	1,866.21	72.6919	1,866.21	71.8168	1,866.21	69.2895	1,866.21	65.6983	1,866.21	66.015	1,866.21	61.496	1,866.21	71.1512	1,866.21	69.1722	1,866.21	71.3317
1,932.13	85.0486	1,932.13	84.8253	1,932.13	84.7236	1,932.13	84.1581	1,932.13	84.2374	1,932.13	82.8171	1,932.13	83.2976	1,932.13	82.4916	1,932.13	82.6632	1,932.13	81.8463	1,932.13	82.0711	1,932.13	81.732	1,932.13	81.4366	1,932.13	80.3884	1,932.13	80.0865	1,932.13	78.7581	1,932.13	77.9777	1,932.13	75.6064	1,932.13	75.4199	1,932.13	75.7214	1,932.13	75.4463	1,932.13	77.2516	1,932.13	75.6266	1,932.13	77.144	1,932.13	75.8448	1,932.13	76.1111	1,932.13	75.4521	1,932.13	71.463	1,932.13	71.9069	1,932.13	63.4186	1,932.13	61.6425	1,932.13	71.7355	1,932.13	69.6894	1,932.13	75.0221	1,932.13	73.927	1,932.13	75.7265
1,999.51	86.0741	1,999.51	86.1534	1,999.51	85.8786	1,999.51	85.3665	1,999.51	84.9778	1,999.51	84.429	1,999.51	83.338	1,999.51	82.2451	1,999.51	81.6754	1,999.51	80.4386	1,999.51	80.2608	1,999.51	80.3305	1,999.51	80.1623	1,999.51	80.5137	1,999.51	79.7503	1,999.51	79.4143	1,999.51	78.8344	1,999.51	76.1305	1,999.51	75.9828	1,999.51	71.112	1,999.51	74.1016	1,999.51	75.2538	1,999.51	75.2526	1,999.51	78.0531	1,999.51	78.0171	1,999.51	77.0731	1,999.51	77.4089	1,999.51	72.7685	1,999.51	75.1182	1,999.51	59.6358	1,999.51	66.2931	1,999.51	72.4624	1,999.51	71.5815	1,999.51	77.2472	1,999.51	76.5541	1,999.51	78.3913
2,069.82	86.2293	2,069.82	86.3216	2,069.82	86.0848	2,069.82	86.1017	2,069.82	85.4878	2,069.82	85.5213	2,069.82	84.4958	2,069.82	84.0424	2,069.82	82.9015	2,069.82	82	2,069.82	80.8234	2,069.82	80.5848	2,069.82	78.7059	2,069.82	79.7863	2,069.82	78.4035	2,069.82	80.2724	2,069.82	78.5663	2,069.82	78.9277	2,069.82	77.5735	2,069.82	73.9951	2,069.82	72.0707	2,069.82	71.4271	2,069.82	72.6227	2,069.82	76.7453	2,069.82	76.8333	2,069.82	79.1273	2,069.82	79.0654	2,069.82	77.9072	2,069.82	77.8489	2,069.82	72.7242	2,069.82	73.6999	2,069.82	68.4227	2,069.82	69.604	2,069.82	73.9385	2,069.82	72.9943	2,069.82	75.3902
2,143.07	85.9678	2,143.07	86.1865	2,143.07	85.4366	2,143.07	86.1714	2,143.07	84.9238	2,143.07	85.8154	2,143.07	84.0787	2,143.07	84.8128	2,143.07	82.9509	2,143.07	83.3236	2,143.07	81.3825	2,143.07	80.6435	2,143.07	79.471	2,143.07	79.8706	2,143.07	77.1845	2,143.07	79.1602	2,143.07	77.1629	2,143.07	78.9457	2,143.07	76.5419	2,143.07	75.8182	2,143.07	74.8312	2,143.07	71.5611	2,143.07	70.1163	2,143.07	74.7377	2,143.07	74.1451	2,143.07	77.9165	2,143.07	77.1509	2,143.07	77.2888	2,143.07	78.0536	2,143.07	73.5185	2,143.07	74.6258	2,143.07	63.3053	2,143.07	66.9129	2,143.07	68.7078	2,143.07	68.208	2,143.07	70.4891
2,219.24	85.5416	2,219.24	85.4599	2,219.24	85.1716	2,219.24	85.4698	2,219.24	84.3923	2,219.24	85.0494	2,219.24	83.554	2,219.24	84.2066	2,219.24	82.5063	2,219.24	83.0823	2,219.24	81.137	2,219.24	80.639	2,219.24	79.357	2,219.24	78.3318	2,219.24	77.3648	2,219.24	78.4201	2,219.24	75.9988	2,219.24	77.8134	2,219.24	76.1619	2,219.24	76.2279	2,219.24	74.5183	2,219.24	71.0815	2,219.24	70.3954	2,219.24	71.8515	2,219.24	70.0924	2,219.24	75.7073	2,219.24	74.156	2,219.24	76.6235	2,219.24	76.0823	2,219.24	74.5682	2,219.24	74.2562	2,219.24	65.1691	2,219.24	68.0613	2,219.24	62.1067	2,219.24	62.1706	2,219.24	67.5663
2,296.88	84.7304	2,296.88	84.3283	2,296.88	84.5822	2,296.88	83.9098	2,296.88	83.9765	2,296.88	83.0584	2,296.88	82.9728	2,296.88	81.9808	2,296.88	82.2057	2,296.88	81.333	2,296.88	81.2553	2,296.88	79.4415	2,296.88	80.0437	2,296.88	77.5696	2,296.88	78.5242	2,296.88	75.1253	2,296.88	76.986	2,296.88	75.6692	2,296.88	76.2609	2,296.88	75.1093	2,296.88	75.1194	2,296.88	72.793	2,296.88	73.8709	2,296.88	68.6196	2,296.88	69.3643	2,296.88	73.8056	2,296.88	72.8909	2,296.88	74.6174	2,296.88	75.09	2,296.88	72.7512	2,296.88	74.9195	2,296.88	66.2058	2,296.88	71.3767	2,296.88	49.0418	2,296.88	60.3572	2,296.88	49.0791
2,378.91	85.4978	2,378.91	85.1642	2,378.91	85.3388	2,378.91	84.4664	2,378.91	84.8747	2,378.91	83.5091	2,378.91	83.8792	2,378.91	82.2799	2,378.91	82.7091	2,378.91	80.7666	2,378.91	81.498	2,378.91	78.845	2,378.91	80.2514	2,378.91	77.0238	2,378.91	79.4818	2,378.91	75.7236	2,378.91	78.4179	2,378.91	74.0723	2,378.91	76.4349	2,378.91	73.2793	2,378.91	75.2151	2,378.91	71.1999	2,378.91	75.3987	2,378.91	69.502	2,378.91	73.9346	2,378.91	68.8563	2,378.91	73.3458	2,378.91	72.2665	2,378.91	74.0768	2,378.91	70.2329	2,378.91	73.0264	2,378.91	66.4687	2,378.91	71.1806	2,378.91	68.4248	2,378.91	70.2684	2,378.91	69.2455
2,462.4	86.1702	2,462.4	85.8713	2,462.4	86.0205	2,462.4	85.2076	2,462.4	85.4551	2,462.4	84.1583	2,462.4	84.6137	2,462.4	82.9571	2,462.4	83.5375	2,462.4	81.7081	2,462.4	82.1898	2,462.4	80.623	2,462.4	80.8918	2,462.4	78.7486	2,462.4	79.7084	2,462.4	77.098	2,462.4	78.5227	2,462.4	76.455	2,462.4	77.5584	2,462.4	74.9858	2,462.4	76.1841	2,462.4	73.4544	2,462.4	73.8892	2,462.4	70.4361	2,462.4	74.0799	2,462.4	73.0552	2,462.4	75.0431	2,462.4	73.2827	2,462.4	75.0655	2,462.4	70.9133	2,462.4	72.0274	2,462.4	58.822	2,462.4	67.1119	2,462.4	61.9325	2,462.4	69.0334	2,462.4	69.5709
2,548.83	85.3393	2,548.83	85.4027	2,548.83	85.0904	2,548.83	84.765	2,548.83	84.484	2,548.83	83.8461	2,548.83	83.6014	2,548.83	82.6809	2,548.83	82.4631	2,548.83	81.6797	2,548.83	81.1542	2,548.83	80.6052	2,548.83	79.5782	2,548.83	79.0676	2,548.83	78.0668	2,548.83	78.6283	2,548.83	77.357	2,548.83	77.0074	2,548.83	76.8226	2,548.83	75.4224	2,548.83	75.2319	2,548.83	72.7997	2,548.83	72.4361	2,548.83	72.288	2,548.83	70.9195	2,548.83	72.0446	2,548.83	73.2389	2,548.83	74.717	2,548.83	74.2691	2,548.83	73.8167	2,548.83	71.0033	2,548.83	66.8903	2,548.83	63.4273	2,548.83	66.7143	2,548.83	66.6455	2,548.83	69.1563
2,639.65	83.8016	2,639.65	83.7205	2,639.65	83.5958	2,639.65	83.102	2,639.65	83.143	2,639.65	82.4023	2,639.65	82.2854	2,639.65	81.325	2,639.65	81.4171	2,639.65	79.8791	2,639.65	80.3273	2,639.65	78.5846	2,639.65	78.8211	2,639.65	77.2662	2,639.65	76.9264	2,639.65	75.0415	2,639.65	75.1922	2,639.65	75.3056	2,639.65	74.3864	2,639.65	74.1906	2,639.65	74.0775	2,639.65	73.6548	2,639.65	73.0663	2,639.65	70.4875	2,639.65	69.8992	2,639.65	72.123	2,639.65	70.7606	2,639.65	72.3804	2,639.65	72.7075	2,639.65	70.4014	2,639.65	70.8817	2,639.65	62.5314	2,639.65	65.2919	2,639.65	57.7517	2,639.65	61.6172	2,639.65	63.0828
2,731.93	83.2826	2,731.93	82.9489	2,731.93	82.6489	2,731.93	82.2465	2,731.93	82.346	2,731.93	81.3889	2,731.93	81.3123	2,731.93	80.3887	2,731.93	80.6005	2,731.93	78.6621	2,731.93	79.347	2,731.93	76.9789	2,731.93	78.3661	2,731.93	76.1106	2,731.93	76.3602	2,731.93	73.2946	2,731.93	74.79	2,731.93	71.8686	2,731.93	74.0644	2,731.93	70.8894	2,731.93	72.2811	2,731.93	71.0015	2,731.93	71.3456	2,731.93	69.1056	2,731.93	69.8346	2,731.93	65.7611	2,731.93	70.3912	2,731.93	71.4111	2,731.93	71.0983	2,731.93	70.485	2,731.93	70.2175	2,731.93	65.6088	2,731.93	63.7482	2,731.93	61.0656	2,731.93	59.512	2,731.93	66.1172
2,828.61	83.1382	2,828.61	82.6463	2,828.61	83.2363	2,828.61	82.1997	2,828.61	82.2123	2,828.61	81.0278	2,828.61	81.3574	2,828.61	80.068	2,828.61	80.216	2,828.61	79.4239	2,828.61	79.3936	2,828.61	77.7897	2,828.61	77.8925	2,828.61	75.3905	2,828.61	76.399	2,828.61	74.6414	2,828.61	75.3283	2,828.61	72.6491	2,828.61	74.3642	2,828.61	71.3794	2,828.61	72.7385	2,828.61	72.4302	2,828.61	70.3988	2,828.61	68.2088	2,828.61	70.0899	2,828.61	67.4602	2,828.61	69.457	2,828.61	69.4843	2,828.61	71.8886	2,828.61	70.6128	2,828.61	70.672	2,828.61	66.3177	2,828.61	65.9254	2,828.61	56.9612	2,828.61	64.2065	2,828.61	61.9235
2,928.22	83.4158	2,928.22	83.1029	2,928.22	83.2208	2,928.22	82.5953	2,928.22	82.467	2,928.22	81.5445	2,928.22	81.7094	2,928.22	80.3821	2,928.22	80.2955	2,928.22	79.4167	2,928.22	79.285	2,928.22	78.286	2,928.22	78.135	2,928.22	76.1428	2,928.22	76.6554	2,928.22	75.865	2,928.22	75.0234	2,928.22	72.63	2,928.22	72.942	2,928.22	72.6343	2,928.22	72.62	2,928.22	70.6195	2,928.22	71.7529	2,928.22	70.2563	2,928.22	69.5785	2,928.22	67.0921	2,928.22	69.8021	2,928.22	69.9551	2,928.22	71.255	2,928.22	71.12	2,928.22	71.0316	2,928.22	67.4421	2,928.22	65.1406	2,928.22	65.0982	2,928.22	62.7292	2,928.22	66.4102
3,030.76	82.9333	3,030.76	82.6248	3,030.76	82.9375	3,030.76	82.4147	3,030.76	82.0335	3,030.76	81.5862	3,030.76	81.4326	3,030.76	80.2151	3,030.76	80.1876	3,030.76	79.3158	3,030.76	78.9934	3,030.76	78.1217	3,030.76	77.3632	3,030.76	76.302	3,030.76	75.8004	3,030.76	75.603	3,030.76	74.069	3,030.76	73.4052	3,030.76	72.9956	3,030.76	72.7443	3,030.76	71.8183	3,030.76	72.0811	3,030.76	71.3918	3,030.76	70.33	3,030.76	69.4506	3,030.76	67.2743	3,030.76	68.2027	3,030.76	68.8223	3,030.76	69.878	3,030.76	71.329	3,030.76	71.2131	3,030.76	69.1247	3,030.76	66.1948	3,030.76	58.2466	3,030.76	61.8801	3,030.76	63.136
3,137.7	82.5419	3,137.7	82.5747	3,137.7	82.1293	3,137.7	82.1	3,137.7	81.9479	3,137.7	81.3654	3,137.7	80.892	3,137.7	80.5739	3,137.7	79.8533	3,137.7	79.3205	3,137.7	78.369	3,137.7	78.2159	3,137.7	76.9998	3,137.7	76.7072	3,137.7	75.0682	3,137.7	74.7696	3,137.7	73.4854	3,137.7	72.76	3,137.7	72.8967	3,137.7	70.9704	3,137.7	71.0851	3,137.7	71.303	3,137.7	70.5354	3,137.7	71.2574	3,137.7	70.2899	3,137.7	68.7333	3,137.7	66.1072	3,137.7	68.3343	3,137.7	69.0605	3,137.7	70.0623	3,137.7	70.1003	3,137.7	68.8612	3,137.7	66.3582	3,137.7	62.681	3,137.7	62.904	3,137.7	63.1886
3,249.02	83.0679	3,249.02	83.1777	3,249.02	82.9826	3,249.02	82.3575	3,249.02	82.6579	3,249.02	81.6598	3,249.02	81.4654	3,249.02	80.6119	3,249.02	80.4425	3,249.02	78.9907	3,249.02	79.0692	3,249.02	78.2065	3,249.02	77.8474	3,249.02	77.0939	3,249.02	76.37	3,249.02	74.2967	3,249.02	74.4281	3,249.02	72.6984	3,249.02	73.3438	3,249.02	71.2655	3,249.02	71.4294	3,249.02	70.1893	3,249.02	71.8325	3,249.02	71.4124	3,249.02	71.1083	3,249.02	68.7206	3,249.02	68.5252	3,249.02	67.4736	3,249.02	68.4121	3,249.02	69.0959	3,249.02	69.6581	3,249.02	67.809	3,249.02	67.6075	3,249.02	60.9258	3,249.02	61.5198	3,249.02	64.6488
3,363.28	83.9118	3,363.28	84.1038	3,363.28	83.3309	3,363.28	83.3622	3,363.28	83.7158	3,363.28	83.049	3,363.28	82.8288	3,363.28	82.3027	3,363.28	81.8824	3,363.28	80.5435	3,363.28	80.6111	3,363.28	79.0125	3,363.28	79.1075	3,363.28	77.6728	3,363.28	77.0787	3,363.28	75.7038	3,363.28	75.2613	3,363.28	74.7984	3,363.28	73.1854	3,363.28	72.3086	3,363.28	71.3924	3,363.28	69.7232	3,363.28	70.2969	3,363.28	71.4765	3,363.28	71.0528	3,363.28	71.7896	3,363.28	70.014	3,363.28	67.1319	3,363.28	66.9057	3,363.28	69.698	3,363.28	70.6054	3,363.28	67.7534	3,363.28	67.2796	3,363.28	65.2709	3,363.28	61.3553	3,363.28	68.0752
3,481.93	84.6879	3,481.93	84.8496	3,481.93	84.5303	3,481.93	84.652	3,481.93	84.0773	3,481.93	84.3419	3,481.93	83.6253	3,481.93	83.7072	3,481.93	82.384	3,481.93	81.4772	3,481.93	81.2135	3,481.93	80.1691	3,481.93	80.3371	3,481.93	78.9447	3,481.93	78.7755	3,481.93	76.6764	3,481.93	76.8591	3,481.93	75.4865	3,481.93	74.1098	3,481.93	73.5514	3,481.93	73.0661	3,481.93	71.5241	3,481.93	69.7848	3,481.93	71.9598	3,481.93	71.306	3,481.93	71.9542	3,481.93	70.5105	3,481.93	70.8465	3,481.93	69.6692	3,481.93	71.3585	3,481.93	71.6433	3,481.93	69.3317	3,481.93	68.5963	3,481.93	66.0376	3,481.93	65.2053	3,481.93	68.1743
3,604.98	84.9095	3,604.98	84.3229	3,604.98	85.0658	3,604.98	84.1925	3,604.98	84.3399	3,604.98	83.9427	3,604.98	84.2788	3,604.98	82.9582	3,604.98	83.6327	3,604.98	82.3698	3,604.98	82.6798	3,604.98	80.4813	3,604.98	80.9653	3,604.98	78.3313	3,604.98	79.9351	3,604.98	77.6012	3,604.98	77.6931	3,604.98	75.2137	3,604.98	75.6327	3,604.98	74.6539	3,604.98	75.1545	3,604.98	72.4499	3,604.98	72.8876	3,604.98	71.4959	3,604.98	72.19	3,604.98	73.5091	3,604.98	72.7436	3,604.98	70.017	3,604.98	71.8898	3,604.98	71.6538	3,604.98	72.2301	3,604.98	70.5559	3,604.98	70.5486	3,604.98	65.8139	3,604.98	67.9462	3,604.98	67.5266
3,732.42	84.53	3,732.42	84.3376	3,732.42	85.2091	3,732.42	84.2647	3,732.42	84.4018	3,732.42	84.3342	3,732.42	84.5932	3,732.42	83.6649	3,732.42	84.0692	3,732.42	83.3042	3,732.42	83.2039	3,732.42	81.7531	3,732.42	81.5796	3,732.42	79.7122	3,732.42	79.4885	3,732.42	78.8574	3,732.42	77.9758	3,732.42	74.992	3,732.42	75.1724	3,732.42	75.2515	3,732.42	74.1095	3,732.42	71.1342	3,732.42	71.895	3,732.42	70.5418	3,732.42	72.4238	3,732.42	72.3824	3,732.42	72.8326	3,732.42	69.5918	3,732.42	72.3471	3,732.42	72.3679	3,732.42	72.4844	3,732.42	71.5654	3,732.42	70.9832	3,732.42	67.6492	3,732.42	68.8369	3,732.42	67.521
3,864.26	83.4224	3,864.26	83.2265	3,864.26	83.9466	3,864.26	83.4223	3,864.26	83.7078	3,864.26	83.7225	3,864.26	83.3768	3,864.26	82.6691	3,864.26	83.0162	3,864.26	82.8591	3,864.26	82.3663	3,864.26	81.2914	3,864.26	80.1975	3,864.26	79.7694	3,864.26	78.5177	3,864.26	78.4479	3,864.26	76.9603	3,864.26	75.4827	3,864.26	74.6719	3,864.26	74.5613	3,864.26	71.825	3,864.26	72.3978	3,864.26	70.5038	3,864.26	70.5921	3,864.26	68.9195	3,864.26	72.3738	3,864.26	73.0526	3,864.26	71.6697	3,864.26	69.9991	3,864.26	71.1176	3,864.26	70.9978	3,864.26	71.1026	3,864.26	70.655	3,864.26	66.9927	3,864.26	65.8303	3,864.26	67.2926
4,000.49	82.6243	4,000.49	82.6672	4,000.49	82.4715	4,000.49	83.4278	4,000.49	83.5488	4,000.49	83.4468	4,000.49	83.7827	4,000.49	83.5133	4,000.49	83.6129	4,000.49	82.8142	4,000.49	82.0616	4,000.49	81.2043	4,000.49	80.0679	4,000.49	79.3587	4,000.49	78.1029	4,000.49	77.0165	4,000.49	76.3466	4,000.49	75.1518	4,000.49	74.7182	4,000.49	73.0723	4,000.49	73.1796	4,000.49	72.1942	4,000.49	70.3191	4,000.49	69.8114	4,000.49	69.0182	4,000.49	71.172	4,000.49	73.0078	4,000.49	70.2595	4,000.49	68.5012	4,000.49	70.2902	4,000.49	71.3807	4,000.49	70.6579	4,000.49	69.967	4,000.49	66.1257	4,000.49	65.1476	4,000.49	68.272
4,141.11	82.183	4,141.11	83.4006	4,141.11	82.5643	4,141.11	83.3247	4,141.11	84.1196	4,141.11	83.7976	4,141.11	84.1989	4,141.11	84.2593	4,141.11	83.2907	4,141.11	82.8039	4,141.11	82.5486	4,141.11	81.5765	4,141.11	80.0144	4,141.11	79.7743	4,141.11	77.6707	4,141.11	76.697	4,141.11	76.8	4,141.11	74.9717	4,141.11	74.5177	4,141.11	72.1159	4,141.11	72.4825	4,141.11	70.9227	4,141.11	71.6637	4,141.11	69.5452	4,141.11	70.1886	4,141.11	68.6711	4,141.11	70.349	4,141.11	69.8303	4,141.11	70.5829	4,141.11	71.7866	4,141.11	71.1909	4,141.11	70.2286	4,141.11	69.8618	4,141.11	66.8438	4,141.11	66.2206	4,141.11	66.701
4,287.6	83.2838	4,287.6	83.6088	4,287.6	83.3338	4,287.6	84.2847	4,287.6	83.7264	4,287.6	84.4991	4,287.6	84.1523	4,287.6	84.2073	4,287.6	83.0704	4,287.6	82.6487	4,287.6	81.5802	4,287.6	80.2951	4,287.6	80.8063	4,287.6	78.2065	4,287.6	78.0081	4,287.6	77.6023	4,287.6	77.283	4,287.6	74.3372	4,287.6	74.5425	4,287.6	72.1184	4,287.6	72.2287	4,287.6	71.6552	4,287.6	71.3216	4,287.6	69.9978	4,287.6	68.5612	4,287.6	68.6432	4,287.6	70.9199	4,287.6	71.2391	4,287.6	71.5027	4,287.6	71.7051	4,287.6	69.7371	4,287.6	70.7508	4,287.6	70.0873	4,287.6	67.2109	4,287.6	66.4993	4,287.6	67.1078
4,438.48	84.0156	4,438.48	83.5024	4,438.48	84.2418	4,438.48	84.8346	4,438.48	83.8276	4,438.48	84.3544	4,438.48	83.5405	4,438.48	82.7855	4,438.48	82.9927	4,438.48	82.1044	4,438.48	81.7059	4,438.48	80.813	4,438.48	80.3995	4,438.48	78.9574	4,438.48	78.5868	4,438.48	77.2882	4,438.48	76.2385	4,438.48	73.6683	4,438.48	74.0951	4,438.48	69.8431	4,438.48	71.1406	4,438.48	70.5169	4,438.48	70.3194	4,438.48	69.2181	4,438.48	65.8625	4,438.48	68.6823	4,438.48	71.2385	4,438.48	71.0548	4,438.48	68.8013	4,438.48	69.94	4,438.48	68.5644	4,438.48	70.6919	4,438.48	68.9309	4,438.48	64.3501	4,438.48	64.3521	4,438.48	64.4858
4,595.21	83.7155	4,595.21	84.2823	4,595.21	83.4276	4,595.21	83.678	4,595.21	84.038	4,595.21	83.6636	4,595.21	82.6095	4,595.21	82.6092	4,595.21	82.771	4,595.21	81.1992	4,595.21	82.5009	4,595.21	80.6003	4,595.21	80.4697	4,595.21	79.704	4,595.21	77.5279	4,595.21	76.6181	4,595.21	76.4485	4,595.21	75.4174	4,595.21	73.7647	4,595.21	72.035	4,595.21	71.6145	4,595.21	72.2962	4,595.21	69.8321	4,595.21	69.2686	4,595.21	67.4075	4,595.21	67.6343	4,595.21	67.7426	4,595.21	70.1821	4,595.21	68.7826	4,595.21	67.5325	4,595.21	69.1103	4,595.21	71.0872	4,595.21	68.5056	4,595.21	62.041	4,595.21	59.1241	4,595.21	65.7199
4,756.35	84.0292	4,756.35	84.7562	4,756.35	85.0405	4,756.35	83.6699	4,756.35	84.6644	4,756.35	84.1587	4,756.35	84.3718	4,756.35	83.9175	4,756.35	83.4349	4,756.35	82.5519	4,756.35	82.0621	4,756.35	80.4103	4,756.35	80.3851	4,756.35	77.6133	4,756.35	77.8895	4,756.35	75.6027	4,756.35	75.5411	4,756.35	73.0917	4,756.35	73.814	4,756.35	74.0565	4,756.35	71.8706	4,756.35	68.62	4,756.35	71.7365	4,756.35	68.6969	4,756.35	69.1943	4,756.35	65.8032	4,756.35	67.3765	4,756.35	67.8264	4,756.35	70.5312	4,756.35	68.4016	4,756.35	69.7541	4,756.35	69.8683	4,756.35	69.6789	4,756.35	65.2241	4,756.35	61.8211	4,756.35	63.8848
4,924.8	84.8493	4,924.8	84.2876	4,924.8	85.5381	4,924.8	85.4926	4,924.8	84.306	4,924.8	84.8517	4,924.8	84.459	4,924.8	84.6861	4,924.8	82.7389	4,924.8	83.8021	4,924.8	80.7718	4,924.8	81.6125	4,924.8	79.2822	4,924.8	78.9898	4,924.8	77.8209	4,924.8	76.4523	4,924.8	75.8038	4,924.8	74.2322	4,924.8	74.6292	4,924.8	74.6776	4,924.8	71.8233	4,924.8	68.4967	4,924.8	67.6865	4,924.8	69.8036	4,924.8	69.2796	4,924.8	68.3362	4,924.8	68.1854	4,924.8	69.374	4,924.8	69.3573	4,924.8	68.7962	4,924.8	68.0498	4,924.8	70.1124	4,924.8	69.8226	4,924.8	66.9131	4,924.8	62.835	4,924.8	63.7556
5,097.66	84.2164	5,097.66	84.2394	5,097.66	83.9739	5,097.66	84.8475	5,097.66	84.5199	5,097.66	84.4147	5,097.66	83.68	5,097.66	83.2763	5,097.66	82.9672	5,097.66	81.4284	5,097.66	81.8534	5,097.66	79.8685	5,097.66	78.9434	5,097.66	77.2478	5,097.66	77.5436	5,097.66	76.3386	5,097.66	76.7701	5,097.66	73.9598	5,097.66	74.1535	5,097.66	69.7495	5,097.66	70.3559	5,097.66	68.5044	5,097.66	69.2586	5,097.66	69.7783	5,097.66	67.7651	5,097.66	70.0546	5,097.66	62.4685	5,097.66	69.853	5,097.66	67.8946	5,097.66	66.7188	5,097.66	66.4034	5,097.66	70.6019	5,097.66	69.7095	5,097.66	62.1053	5,097.66	62.8584	5,097.66	59.7021
5,277.83	84.0547	5,277.83	84.3046	5,277.83	83.2385	5,277.83	83.8245	5,277.83	84.1442	5,277.83	84.4149	5,277.83	83.3309	5,277.83	82.3457	5,277.83	83.1317	5,277.83	81.2405	5,277.83	82.2302	5,277.83	79.6364	5,277.83	79.6767	5,277.83	78.9134	5,277.83	77.5765	5,277.83	75.7614	5,277.83	74.9764	5,277.83	74.6471	5,277.83	74.3245	5,277.83	71.1824	5,277.83	68.7585	5,277.83	70.4539	5,277.83	70.3504	5,277.83	68.2328	5,277.83	67.2446	5,277.83	61.4113	5,277.83	66.8507	5,277.83	67.1691	5,277.83	69.5905	5,277.83	65.8001	5,277.83	68.5528	5,277.83	69.8122	5,277.83	69.2402	5,277.83	65.2553	5,277.83	62.3395	5,277.83	60.6157
5,463.87	83.3393	5,463.87	83.9196	5,463.87	84.0737	5,463.87	83.6242	5,463.87	83.4054	5,463.87	83.1024	5,463.87	84.1665	5,463.87	81.8763	5,463.87	82.213	5,463.87	81.0454	5,463.87	80.7262	5,463.87	78.8345	5,463.87	79.8075	5,463.87	78.232	5,463.87	77.4977	5,463.87	75.5007	5,463.87	73.1648	5,463.87	74.2041	5,463.87	71.4807	5,463.87	73.2144	5,463.87	70.2819	5,463.87	70.1918	5,463.87	68.4741	5,463.87	66.4806	5,463.87	65.4043	5,463.87	62.9479	5,463.87	67.486	5,463.87	66.9412	5,463.87	67.0191	5,463.87	68.5945	5,463.87	67.5152	5,463.87	69.6168	5,463.87	68.9803	5,463.87	64.7831	5,463.87	62.7584	5,463.87	62.7041
5,657.23	84.0742	5,657.23	84.4343	5,657.23	84.2933	5,657.23	83.919	5,657.23	83.5689	5,657.23	83.6939	5,657.23	83.3061	5,657.23	83.1257	5,657.23	82.2492	5,657.23	80.9045	5,657.23	79.9199	5,657.23	79.3472	5,657.23	78.8792	5,657.23	75.8703	5,657.23	75.2383	5,657.23	74.6119	5,657.23	73.8975	5,657.23	68.794	5,657.23	70.9053	5,657.23	71.0553	5,657.23	70.2249	5,657.23	67.0972	5,657.23	66.7416	5,657.23	65.1024	5,657.23	65.3335	5,657.23	64.9401	5,657.23	66.9555	5,657.23	64.3711	5,657.23	66.8599	5,657.23	67.9683	5,657.23	66.4551	5,657.23	68.5297	5,657.23	66.897	5,657.23	64.1719	5,657.23	64.4012	5,657.23	59.4057
5,856.45	83.8167	5,856.45	83.6201	5,856.45	83.523	5,856.45	82.8407	5,856.45	83.9354	5,856.45	82.6065	5,856.45	82.2105	5,856.45	81.7983	5,856.45	81.7159	5,856.45	80.3694	5,856.45	80.9328	5,856.45	79.3956	5,856.45	78.6552	5,856.45	77.4379	5,856.45	76.8126	5,856.45	75.3982	5,856.45	75.9183	5,856.45	72.4551	5,856.45	72.2292	5,856.45	68.3853	5,856.45	70.0519	5,856.45	67.3688	5,856.45	67.2454	5,856.45	67.4101	5,856.45	66.8574	5,856.45	65.6663	5,856.45	67.8354	5,856.45	64.9765	5,856.45	67.8579	5,856.45	66.2839	5,856.45	65.9291	5,856.45	67.5562	5,856.45	68.6519	5,856.45	65.4806	5,856.45	61.2206	5,856.45	59.8155
6,062.99	83.8029	6,062.99	83.3583	6,062.99	84.086	6,062.99	83.2804	6,062.99	83.1451	6,062.99	82.9267	6,062.99	82.6029	6,062.99	82.0395	6,062.99	81.3585	6,062.99	81.5943	6,062.99	80.2567	6,062.99	79.2079	6,062.99	78.6674	6,062.99	78.7698	6,062.99	78.0948	6,062.99	73.9985	6,062.99	74.1357	6,062.99	72.6328	6,062.99	72.2333	6,062.99	68.8547	6,062.99	70.7885	6,062.99	64.1518	6,062.99	68.1139	6,062.99	64.735	6,062.99	66.0649	6,062.99	67.261	6,062.99	68.1101	6,062.99	67.2607	6,062.99	67.4993	6,062.99	68.5989	6,062.99	69.3766	6,062.99	67.5054	6,062.99	68.5716	6,062.99	63.3488	6,062.99	60.6865	6,062.99	61.0118
6,276.86	83.358	6,276.86	83.2495	6,276.86	83.4824	6,276.86	82.979	6,276.86	82.1612	6,276.86	82.0628	6,276.86	82.6598	6,276.86	81.4171	6,276.86	81.7175	6,276.86	80.4598	6,276.86	80.2084	6,276.86	78.0472	6,276.86	77.9474	6,276.86	76.3195	6,276.86	75.4391	6,276.86	72.3718	6,276.86	73.2505	6,276.86	71.4091	6,276.86	71.9199	6,276.86	71.4888	6,276.86	68.0703	6,276.86	68.0901	6,276.86	66.2334	6,276.86	67.95	6,276.86	67.3606	6,276.86	65.7041	6,276.86	63.6017	6,276.86	65.0541	6,276.86	64.8351	6,276.86	67.2949	6,276.86	67.5107	6,276.86	67.7486	6,276.86	66.9813	6,276.86	63.5777	6,276.86	62.1972	6,276.86	56.4612
6,498.05	83.8312	6,498.05	83.6777	6,498.05	82.7408	6,498.05	83.4137	6,498.05	83.0455	6,498.05	81.7416	6,498.05	81.3381	6,498.05	81.5442	6,498.05	82.0256	6,498.05	79.7042	6,498.05	81.0313	6,498.05	79.7311	6,498.05	78.6053	6,498.05	75.2301	6,498.05	75.9925	6,498.05	74.7179	6,498.05	74.2257	6,498.05	71.9896	6,498.05	72.4572	6,498.05	70.4362	6,498.05	67.9641	6,498.05	67.4382	6,498.05	65.9574	6,498.05	67.7514	6,498.05	66.3889	6,498.05	66.7291	6,498.05	63.8615	6,498.05	62.4658	6,498.05	65.3075	6,498.05	67.4169	6,498.05	66.1789	6,498.05	67.7031	6,498.05	67.6801	6,498.05	64.8507	6,498.05	61.4927	6,498.05	53.8418
6,726.56	83.3865	6,726.56	83.5314	6,726.56	83.4485	6,726.56	82.7106	6,726.56	82.2457	6,726.56	81.9353	6,726.56	81.7972	6,726.56	80.639	6,726.56	80.7102	6,726.56	81.391	6,726.56	80.1853	6,726.56	79.5475	6,726.56	78.8065	6,726.56	77.1026	6,726.56	76.6925	6,726.56	75.4763	6,726.56	73.8099	6,726.56	72.7652	6,726.56	72.1573	6,726.56	69.3734	6,726.56	67.9578	6,726.56	67.2859	6,726.56	66.9301	6,726.56	65.2799	6,726.56	62.3185	6,726.56	65.2329	6,726.56	65.393	6,726.56	67.466	6,726.56	65.1461	6,726.56	68.7999	6,726.56	67.6475	6,726.56	66.248	6,726.56	67.9695	6,726.56	65.4582	6,726.56	63.9573	6,726.56	54.6794
6,963.87	83.9894	6,963.87	83.6952	6,963.87	83.4045	6,963.87	82.7456	6,963.87	82.3461	6,963.87	82.435	6,963.87	82.4301	6,963.87	81.705	6,963.87	81.6074	6,963.87	80.6864	6,963.87	80.4822	6,963.87	78.629	6,963.87	79.0895	6,963.87	77.6169	6,963.87	75.3704	6,963.87	74.7984	6,963.87	74.4429	6,963.87	71.1947	6,963.87	71.234	6,963.87	69.8021	6,963.87	69.6107	6,963.87	66.6586	6,963.87	66.0052	6,963.87	64.2422	6,963.87	64.4125	6,963.87	60.6727	6,963.87	64.7845	6,963.87	62.4101	6,963.87	64.7852	6,963.87	65.1895	6,963.87	67.6666	6,963.87	65.4863	6,963.87	64.3658	6,963.87	66.1323	6,963.87	64.3587	6,963.87	55.1935
7,209.96	84.685	7,209.96	84.069	7,209.96	83.7039	7,209.96	82.8392	7,209.96	82.8737	7,209.96	82.503	7,209.96	82.1555	7,209.96	82.3389	7,209.96	81.946	7,209.96	80.4849	7,209.96	81.3658	7,209.96	79.7078	7,209.96	79.3171	7,209.96	78.6692	7,209.96	76.4673	7,209.96	74.5764	7,209.96	74.8559	7,209.96	72.8549	7,209.96	71.2986	7,209.96	69.1711	7,209.96	69.2521	7,209.96	68.1875	7,209.96	66.1918	7,209.96	64.7921	7,209.96	65.3663	7,209.96	64.0473	7,209.96	64.2372	7,209.96	62.9781	7,209.96	63.8241	7,209.96	67.6946	7,209.96	67.4576	7,209.96	66.1293	7,209.96	66.3866	7,209.96	65.3118	7,209.96	63.0426	7,209.96	54.6694
7,464.84	84.5305	7,464.84	84.3353	7,464.84	84.3438	7,464.84	82.848	7,464.84	82.6164	7,464.84	83.1344	7,464.84	82.2007	7,464.84	82.4156	7,464.84	81.3953	7,464.84	81.8527	7,464.84	80.5595	7,464.84	80.1925	7,464.84	78.636	7,464.84	77.2157	7,464.84	77.3898	7,464.84	74.7773	7,464.84	72.6594	7,464.84	71.7236	7,464.84	70.2959	7,464.84	68.8384	7,464.84	68.0047	7,464.84	66.4932	7,464.84	66.36	7,464.84	63.1446	7,464.84	62.2333	7,464.84	65.2006	7,464.84	62.8769	7,464.84	63.4104	7,464.84	62.9899	7,464.84	67.856	7,464.84	66.58	7,464.84	65.0107	7,464.84	65.285	7,464.84	65.841	7,464.84	64.2789	7,464.84	57.2189
7,727.05	85.2703	7,727.05	85.184	7,727.05	84.9392	7,727.05	83.9646	7,727.05	84.0453	7,727.05	82.557	7,727.05	83.3519	7,727.05	82.2945	7,727.05	82.5921	7,727.05	81.57	7,727.05	80.7992	7,727.05	79.1505	7,727.05	79.7808	7,727.05	76.1505	7,727.05	77.6815	7,727.05	74.1302	7,727.05	74.625	7,727.05	71.8512	7,727.05	72.5424	7,727.05	69.5944	7,727.05	67.7357	7,727.05	66.0565	7,727.05	63.8131	7,727.05	63.8514	7,727.05	63.2855	7,727.05	64.6277	7,727.05	65.175	7,727.05	62.658	7,727.05	65.6624	7,727.05	66.1585	7,727.05	68.347	7,727.05	65.8285	7,727.05	66.1082	7,727.05	65.0812	7,727.05	64.2454	7,727.05	54.107
7,999.51	85.2115	7,999.51	85.1758	7,999.51	84.9786	7,999.51	83.48	7,999.51	83.5227	7,999.51	82.5858	7,999.51	82.924	7,999.51	82.5051	7,999.51	82.7667	7,999.51	80.7509	7,999.51	81.503	7,999.51	79.438	7,999.51	79.6966	7,999.51	77.5351	7,999.51	77.1065	7,999.51	74.6195	7,999.51	73.9388	7,999.51	71.7535	7,999.51	72.4092	7,999.51	70.13	7,999.51	68.8417	7,999.51	65.0817	7,999.51	66.8185	7,999.51	65.9795	7,999.51	64.3476	7,999.51	64.9102	7,999.51	62.9357	7,999.51	62.491	7,999.51	62.3446	7,999.51	66.2753	7,999.51	67.9157	7,999.51	67.8877	7,999.51	66.8195	7,999.51	64.9696	7,999.51	63.8598	7,999.51	53.6624
8,282.23	86.0302	8,282.23	85.2683	8,282.23	85.2213	8,282.23	84.9325	8,282.23	84.3104	8,282.23	83.3028	8,282.23	83.6484	8,282.23	82.1512	8,282.23	82.2444	8,282.23	81.2024	8,282.23	81.1231	8,282.23	79.9818	8,282.23	79.1811	8,282.23	77.5569	8,282.23	76.9441	8,282.23	75.5961	8,282.23	75.352	8,282.23	71.9924	8,282.23	72.7133	8,282.23	69.483	8,282.23	68.7861	8,282.23	67.8692	8,282.23	66.7487	8,282.23	63.573	8,282.23	59.4904	8,282.23	66.0403	8,282.23	66.9478	8,282.23	62.8995	8,282.23	65.0986	8,282.23	64.0049	8,282.23	67.7399	8,282.23	65.7824	8,282.23	65.2473	8,282.23	64.9401	8,282.23	66.0063	8,282.23	52.1403
8,573.73	85.9216	8,573.73	85.3649	8,573.73	85.5221	8,573.73	84.4042	8,573.73	83.9044	8,573.73	83.2568	8,573.73	83.2413	8,573.73	81.6343	8,573.73	82.4215	8,573.73	80.8449	8,573.73	81.3647	8,573.73	78.7203	8,573.73	79.8685	8,573.73	77.4305	8,573.73	76.1297	8,573.73	74.089	8,573.73	75.5076	8,573.73	72.845	8,573.73	71.7639	8,573.73	69.7204	8,573.73	69.7085	8,573.73	65.4358	8,573.73	68.0233	8,573.73	62.3068	8,573.73	63.0878	8,573.73	64.2169	8,573.73	67.1419	8,573.73	66.1744	8,573.73	63.8429	8,573.73	64.5012	8,573.73	67.1647	8,573.73	64.9113	8,573.73	68.5448	8,573.73	63.8753	8,573.73	64.7642	8,573.73	53.9911
8,876.95	85.4059	8,876.95	85.7916	8,876.95	85.5749	8,876.95	84.3358	8,876.95	85.0296	8,876.95	83.3254	8,876.95	82.9781	8,876.95	81.7384	8,876.95	81.2287	8,876.95	80.7074	8,876.95	81.5719	8,876.95	79.7175	8,876.95	79.6738	8,876.95	77.959	8,876.95	78.1685	8,876.95	74.8119	8,876.95	74.6759	8,876.95	72.1217	8,876.95	72.1029	8,876.95	67.5424	8,876.95	69.6729	8,876.95	66.5302	8,876.95	66.8238	8,876.95	61.9817	8,876.95	61.3999	8,876.95	61.9012	8,876.95	66.8757	8,876.95	62.8478	8,876.95	64.698	8,876.95	64.4045	8,876.95	66.4778	8,876.95	64.7744	8,876.95	66.8704	8,876.95	63.2428	8,876.95	64.3024	8,876.95	53.0916
9,188.96	85.7956	9,188.96	85.798	9,188.96	85.7194	9,188.96	84.3161	9,188.96	83.716	9,188.96	82.552	9,188.96	82.5331	9,188.96	81.8341	9,188.96	81.6467	9,188.96	81.4465	9,188.96	80.3236	9,188.96	79.9662	9,188.96	79.8402	9,188.96	78.4679	9,188.96	77.9949	9,188.96	75.5656	9,188.96	74.6514	9,188.96	73.6306	9,188.96	71.372	9,188.96	70.0436	9,188.96	68.4843	9,188.96	67.8208	9,188.96	64.8071	9,188.96	63.777	9,188.96	62.8758	9,188.96	57.1117	9,188.96	65.0831	9,188.96	62.4822	9,188.96	62.9232	9,188.96	66.6675	9,188.96	65.2368	9,188.96	66.4371	9,188.96	64.0667	9,188.96	64.5404	9,188.96	63.0681	9,188.96	55.8104
9,514.16	85.4044	9,514.16	85.2092	9,514.16	85.1368	9,514.16	83.7755	9,514.16	83.6344	9,514.16	83.1528	9,514.16	81.8898	9,514.16	81.6385	9,514.16	81.2751	9,514.16	80.9085	9,514.16	80.6306	9,514.16	79.5495	9,514.16	78.8321	9,514.16	77.8998	9,514.16	77.7507	9,514.16	74.9721	9,514.16	71.7438	9,514.16	72.447	9,514.16	71.1108	9,514.16	68.7404	9,514.16	67.2762	9,514.16	65.3832	9,514.16	64.3781	9,514.16	63.4355	9,514.16	60.868	9,514.16	60.0767	9,514.16	61.6491	9,514.16	56.1977	9,514.16	61.5047	9,514.16	63.9853	9,514.16	66.5471	9,514.16	65.6512	9,514.16	65.0386	9,514.16	63.4795	9,514.16	61.9123	9,514.16	58.4153
9,849.61	85.2743	9,849.61	85.2903	9,849.61	84.791	9,849.61	84.319	9,849.61	83.9981	9,849.61	82.0699	9,849.61	82.4082	9,849.61	81.1569	9,849.61	81.6231	9,849.61	80.5704	9,849.61	79.9622	9,849.61	79.3541	9,849.61	79.3794	9,849.61	77.716	9,849.61	76.9362	9,849.61	74.5755	9,849.61	74.6175	9,849.61	71.6473	9,849.61	71.4811	9,849.61	68.7549	9,849.61	68.4403	9,849.61	65.4386	9,849.61	64.3767	9,849.61	60.5619	9,849.61	57.4272	9,849.61	62.2235	9,849.61	66.9559	9,849.61	62.4412	9,849.61	63.8067	9,849.61	64.9994	9,849.61	65.4389	9,849.61	65.356	9,849.61	63.3345	9,849.61	64.3106	9,849.61	63.4375	9,849.61	58.6791
10,196.8	84.1989	10,196.8	84.4492	10,196.8	84.5599	10,196.8	83.4644	10,196.8	83.5719	10,196.8	82.3826	10,196.8	81.8983	10,196.8	80.5375	10,196.8	80.5458	10,196.8	80.3401	10,196.8	80.8129	10,196.8	79.2117	10,196.8	79.2927	10,196.8	78.1667	10,196.8	77.1377	10,196.8	74.2576	10,196.8	73.5109	10,196.8	73.5493	10,196.8	71.6665	10,196.8	68.7427	10,196.8	68.5529	10,196.8	64.7883	10,196.8	65.86	10,196.8	63.2519	10,196.8	61.0732	10,196.8	55.8605	10,196.8	63.9995	10,196.8	60.3686	10,196.8	62.9157	10,196.8	66.0215	10,196.8	66.0157	10,196.8	65.9623	10,196.8	65.3326	10,196.8	64.4003	10,196.8	62.9376	10,196.8	58.137
10,555.7	84.5488	10,555.7	84.8782	10,555.7	84.4453	10,555.7	84.3296	10,555.7	84.1039	10,555.7	82.2367	10,555.7	83.0883	10,555.7	81.0326	10,555.7	81.7003	10,555.7	80.3592	10,555.7	81.1047	10,555.7	79.4936	10,555.7	79.008	10,555.7	76.9338	10,555.7	76.5991	10,555.7	73.8967	10,555.7	74.2417	10,555.7	71.5443	10,555.7	72.321	10,555.7	66.9225	10,555.7	68.8161	10,555.7	65.7508	10,555.7	65.2901	10,555.7	58.2008	10,555.7	61.3314	10,555.7	52.6816	10,555.7	62.7156	10,555.7	53.06	10,555.7	62.83	10,555.7	63.6555	10,555.7	65.7327	10,555.7	64.9036	10,555.7	66.6929	10,555.7	64.4986	10,555.7	63.0291	10,555.7	59.6325
10,927.7	85.0228	10,927.7	84.7074	10,927.7	85.4334	10,927.7	84.6149	10,927.7	84.7681	10,927.7	83.1185	10,927.7	83.3915	10,927.7	81.1821	10,927.7	82.2072	10,927.7	80.9496	10,927.7	81.5841	10,927.7	78.7899	10,927.7	79.5468	10,927.7	76.4767	10,927.7	77.2771	10,927.7	73.3304	10,927.7	74.3489	10,927.7	71.1843	10,927.7	70.582	10,927.7	67.3968	10,927.7	68.2633	10,927.7	62.2389	10,927.7	65.8209	10,927.7	60.3362	10,927.7	62.168	10,927.7	59.4705	10,927.7	63.791	10,927.7	52.9022	10,927.7	61.9041	10,927.7	62.5827	10,927.7	64.6758	10,927.7	65.6646	10,927.7	66.9177	10,927.7	63.0369	10,927.7	61.1536	10,927.7	59.5129
11,313	86.0552	11,313	86.0735	11,313	86.1573	11,313	85.2359	11,313	85.8876	11,313	84.1515	11,313	84.7314	11,313	82.4911	11,313	83.5273	11,313	79.9972	11,313	81.9059	11,313	78.9469	11,313	80.5614	11,313	76.2273	11,313	78.5377	11,313	74.0677	11,313	74.6442	11,313	70.9142	11,313	71.8891	11,313	67.3622	11,313	68.8134	11,313	63.4221	11,313	64.9348	11,313	63.3382	11,313	61.9539	11,313	61.6034	11,313	63.5763	11,313	52.5492	11,313	62.5037	11,313	60.4509	11,313	64.4361	11,313	64.6628	11,313	65.64	11,313	59.8377	11,313	55.7346	11,313	56.8434
11,712.9	86.9479	11,712.9	86.5472	11,712.9	86.8727	11,712.9	85.8818	11,712.9	86.6231	11,712.9	84.7579	11,712.9	85.0782	11,712.9	82.6279	11,712.9	83.2307	11,712.9	80.5886	11,712.9	81.6675	11,712.9	78.7364	11,712.9	80.0432	11,712.9	77.2544	11,712.9	77.8585	11,712.9	72.2975	11,712.9	74.1181	11,712.9	71.6751	11,712.9	71.8233	11,712.9	64.5261	11,712.9	65.403	11,712.9	63.0427	11,712.9	66.2795	11,712.9	62.3213	11,712.9	63.1079	11,712.9	59.4452	11,712.9	57.6755	11,712.9	52.5789	11,712.9	57.9645	11,712.9	60.3205	11,712.9	63.5591	11,712.9	63.4891	11,712.9	63.5658	11,712.9	59.0777	11,712.9	53.7721	11,712.9	60.1688
12,126	87.6989	12,126	87.8214	12,126	87.6592	12,126	86.6993	12,126	86.8593	12,126	85.4158	12,126	85.8182	12,126	82.7108	12,126	83.062	12,126	80.7109	12,126	81.0738	12,126	78.2642	12,126	78.2886	12,126	76.0154	12,126	74.9816	12,126	71.7311	12,126	72.6767	12,126	69.5376	12,126	69.6689	12,126	65.9605	12,126	66.3238	12,126	62.7446	12,126	63.034	12,126	57.9626	12,126	57.2555	12,126	56.6169	12,126	59.7728	12,126	51.5301	12,126	60.236	12,126	60.1458	12,126	61.7564	12,126	63.1376	12,126	61.8837	12,126	57.2448	12,126	42.8143	12,126	58.9422
12,553.7	88.3351	12,553.7	87.7575	12,553.7	87.9926	12,553.7	87.1562	12,553.7	87.1894	12,553.7	85.4579	12,553.7	85.2778	12,553.7	82.8599	12,553.7	82.55	12,553.7	79.3755	12,553.7	80.213	12,553.7	77.6478	12,553.7	78.4341	12,553.7	73.1309	12,553.7	74.879	12,553.7	71.8638	12,553.7	72.0598	12,553.7	66.9102	12,553.7	67.7509	12,553.7	64.5528	12,553.7	66.3343	12,553.7	62.3965	12,553.7	61.3036	12,553.7	57.4927	12,553.7	57.7419	12,553.7	57.738	12,553.7	54.4386	12,553.7	49.3248	12,553.7	55.8117	12,553.7	56.2892	12,553.7	61.1832	12,553.7	62.3138	12,553.7	63.8974	12,553.7	54.3819	12,553.7	40.0154	12,553.7	56.1564
12,996.1	88.5445	12,996.1	88.0941	12,996.1	87.9433	12,996.1	87.3894	12,996.1	87.1696	12,996.1	85.2617	12,996.1	85.4067	12,996.1	82.4994	12,996.1	82.3326	12,996.1	79.9376	12,996.1	79.8171	12,996.1	77.2513	12,996.1	77.3711	12,996.1	74.4419	12,996.1	74.225	12,996.1	69.9851	12,996.1	71.492	12,996.1	69.2784	12,996.1	66.9422	12,996.1	64.8737	12,996.1	64.0609	12,996.1	60.6635	12,996.1	60.5355	12,996.1	60.4653	12,996.1	58.0484	12,996.1	59.0656	12,996.1	55.8479	12,996.1	51.1259	12,996.1	51.5912	12,996.1	59.0351	12,996.1	59.1132	12,996.1	63.2783	12,996.1	60.9745	12,996.1	55.5045	12,996.1	50.6306	12,996.1	56.0244
13,454.6	88.5076	13,454.6	88.5559	13,454.6	88.2352	13,454.6	87.4754	13,454.6	87.2525	13,454.6	86.002	13,454.6	85.3521	13,454.6	82.7884	13,454.6	82.226	13,454.6	79.9256	13,454.6	79.6094	13,454.6	77.529	13,454.6	76.3204	13,454.6	75.8631	13,454.6	74.0526	13,454.6	72.1545	13,454.6	71.2301	13,454.6	70.6977	13,454.6	66.9505	13,454.6	64.7484	13,454.6	63.9209	13,454.6	65.1731	13,454.6	62.0999	13,454.6	61.1335	13,454.6	56.1465	13,454.6	59.6405	13,454.6	53.6977	13,454.6	44.8998	13,454.6	48.365	13,454.6	54.7653	13,454.6	57.0185	13,454.6	62.6469	13,454.6	62.5098	13,454.6	53.614	13,454.6	49.5492	13,454.6	54.8268
13,929.2	88.7715	13,929.2	88.5805	13,929.2	88.2438	13,929.2	87.8349	13,929.2	87.4059	13,929.2	86.1541	13,929.2	85.0717	13,929.2	82.7391	13,929.2	81.9133	13,929.2	80.0784	13,929.2	78.9835	13,929.2	77.688	13,929.2	77.2013	13,929.2	75.8952	13,929.2	74.3203	13,929.2	73.6687	13,929.2	71.9679	13,929.2	70.6099	13,929.2	68.4256	13,929.2	68.1586	13,929.2	66.8103	13,929.2	65.8328	13,929.2	62.5039	13,929.2	60.9896	13,929.2	57.6704	13,929.2	58.9039	13,929.2	57.4826	13,929.2	54.8721	13,929.2	51.4002	13,929.2	58.2938	13,929.2	54.7906	13,929.2	62.9972	13,929.2	62.1849	13,929.2	46.5417	13,929.2	50.5319	13,929.2	52.8253
14,419.9	88.7376	14,419.9	88.292	14,419.9	88.1617	14,419.9	87.5755	14,419.9	87.1719	14,419.9	85.7722	14,419.9	85.1889	14,419.9	82.738	14,419.9	82.1273	14,419.9	80.3712	14,419.9	80.0263	14,419.9	78.3368	14,419.9	78.2473	14,419.9	76.7719	14,419.9	76.0512	14,419.9	73.9657	14,419.9	72.5914	14,419.9	72.2335	14,419.9	69.7497	14,419.9	68.1357	14,419.9	66.8675	14,419.9	64.7305	14,419.9	63.1713	14,419.9	62.7967	14,419.9	60.6009	14,419.9	62.0887	14,419.9	59.7578	14,419.9	54.8256	14,419.9	54.0795	14,419.9	58.7525	14,419.9	57.7454	14,419.9	62.882	14,419.9	61.405	14,419.9	47.4725	14,419.9	55.3168	14,419.9	55.0561
14,928.2	88.132	14,928.2	87.794	14,928.2	87.686	14,928.2	86.7573	14,928.2	86.6981	14,928.2	85.0892	14,928.2	84.7788	14,928.2	82.378	14,928.2	82.1038	14,928.2	80.1009	14,928.2	79.9133	14,928.2	78.6744	14,928.2	78.4424	14,928.2	77.8399	14,928.2	76.7121	14,928.2	74.4224	14,928.2	73.752	14,928.2	72.6541	14,928.2	70.1527	14,928.2	67.7049	14,928.2	67.0146	14,928.2	65.7849	14,928.2	62.9524	14,928.2	63.5332	14,928.2	60.0511	14,928.2	61.5566	14,928.2	59.5487	14,928.2	56.9491	14,928.2	55.4112	14,928.2	59.1815	14,928.2	59.615	14,928.2	62.0995	14,928.2	61.2387	14,928.2	49.915	14,928.2	54.0484	14,928.2	54.3393
15,455.6	86.7485	15,455.6	86.6248	15,455.6	86.441	15,455.6	85.5837	15,455.6	85.6808	15,455.6	84.0923	15,455.6	83.8809	15,455.6	81.6418	15,455.6	81.3357	15,455.6	80.0639	15,455.6	79.2456	15,455.6	79.1387	15,455.6	78.5172	15,455.6	77.9677	15,455.6	76.69	15,455.6	74.7477	15,455.6	73.6802	15,455.6	72.2049	15,455.6	70.0992	15,455.6	67.6358	15,455.6	65.7126	15,455.6	64.8693	15,455.6	63.2459	15,455.6	62.5384	15,455.6	60.5551	15,455.6	60.3052	15,455.6	59.4903	15,455.6	56.4963	15,455.6	53.5327	15,455.6	59.9096	15,455.6	58.9186	15,455.6	61.7673	15,455.6	60.7573	15,455.6	48.4419	15,455.6	51.9296	15,455.6	54.7281
16,000.5	84.8452	16,000.5	85.0274	16,000.5	84.8309	16,000.5	84.0077	16,000.5	84.1097	16,000.5	83.5043	16,000.5	83.0597	16,000.5	81.5357	16,000.5	80.9344	16,000.5	80.1982	16,000.5	79.1435	16,000.5	79.1023	16,000.5	78.2005	16,000.5	77.8323	16,000.5	75.7936	16,000.5	74.5249	16,000.5	72.4486	16,000.5	72.4977	16,000.5	69.4068	16,000.5	67.8248	16,000.5	65.8559	16,000.5	64.3584	16,000.5	63.7	16,000.5	62.2477	16,000.5	61.8711	16,000.5	60.0616	16,000.5	59.0094	16,000.5	54.9062	16,000.5	50.8982	16,000.5	60.6053	16,000.5	58.7567	16,000.5	60.0975	16,000.5	60.1566	16,000.5	50.1565	16,000.5	48.4246	16,000.5	55.4613
16,564.5	83.3194	16,564.5	83.8057	16,564.5	83.7429	16,564.5	83.1377	16,564.5	82.9125	16,564.5	83.1606	16,564.5	82.6087	16,564.5	81.5173	16,564.5	80.7379	16,564.5	80.0575	16,564.5	79.4127	16,564.5	78.3471	16,564.5	77.7423	16,564.5	77.1992	16,564.5	75.7266	16,564.5	73.7425	16,564.5	71.6698	16,564.5	72.0151	16,564.5	68.7466	16,564.5	66.4135	16,564.5	65.2631	16,564.5	63.7946	16,564.5	61.6602	16,564.5	61.6446	16,564.5	60.3028	16,564.5	57.4598	16,564.5	56.3963	16,564.5	54.7278	16,564.5	50.3367	16,564.5	59.9482	16,564.5	57.6773	16,564.5	55.9872	16,564.5	58.8518	16,564.5	49.2578	16,564.5	40.5285	16,564.5	56.5664
17,148.9	82.7248	17,148.9	83.5037	17,148.9	83.2546	17,148.9	83.1598	17,148.9	83.2152	17,148.9	83.3122	17,148.9	82.912	17,148.9	82.3587	17,148.9	81.2594	17,148.9	80.7608	17,148.9	79.3069	17,148.9	78.9699	17,148.9	77.8037	17,148.9	77.3584	17,148.9	75.7483	17,148.9	74.0463	17,148.9	72.3467	17,148.9	71.7582	17,148.9	68.408	17,148.9	66.8481	17,148.9	64.1828	17,148.9	63.6121	17,148.9	61.4169	17,148.9	61.6597	17,148.9	58.9891	17,148.9	56.0411	17,148.9	55.7428	17,148.9	56.5741	17,148.9	52.3902	17,148.9	59.6376	17,148.9	56.5504	17,148.9	53.403	17,148.9	57.3822	17,148.9	49.9573	17,148.9	49.6374	17,148.9	56.57
17,752.4	83.4644	17,752.4	84.0632	17,752.4	83.6639	17,752.4	83.8183	17,752.4	83.5791	17,752.4	83.9997	17,752.4	83.4079	17,752.4	83.1226	17,752.4	81.9267	17,752.4	80.9364	17,752.4	79.331	17,752.4	78.772	17,752.4	77.5523	17,752.4	77.1394	17,752.4	75.2191	17,752.4	73.1729	17,752.4	71.2327	17,752.4	71.5741	17,752.4	67.6126	17,752.4	65.7548	17,752.4	63.5777	17,752.4	62.0783	17,752.4	61.7201	17,752.4	59.4225	17,752.4	58.5115	17,752.4	54.9526	17,752.4	53.2024	17,752.4	55.1605	17,752.4	51.9333	17,752.4	58.8972	17,752.4	56.4364	17,752.4	41.5754	17,752.4	56.7524	17,752.4	45.9522	17,752.4	50.9971	17,752.4	56.3588
18,379.4	84.882	18,379.4	84.9435	18,379.4	84.8213	18,379.4	84.5783	18,379.4	84.2591	18,379.4	84.293	18,379.4	83.5663	18,379.4	83.0415	18,379.4	81.7029	18,379.4	80.4075	18,379.4	78.9327	18,379.4	78.1758	18,379.4	76.3161	18,379.4	75.6759	18,379.4	72.9997	18,379.4	72.0234	18,379.4	68.6944	18,379.4	69.3817	18,379.4	65.2822	18,379.4	64.1307	18,379.4	61.4752	18,379.4	61.3507	18,379.4	58.9363	18,379.4	58.5161	18,379.4	57.3991	18,379.4	53.9812	18,379.4	46.1111	18,379.4	54.64	18,379.4	51.8214	18,379.4	55.9143	18,379.4	54.5049	18,379.4	33.6965	18,379.4	54.931	18,379.4	48.8921	18,379.4	52.1101	18,379.4	55.2056
19,026.9	85.6996	19,026.9	85.688	19,026.9	85.3391	19,026.9	85.2361	19,026.9	84.3861	19,026.9	84.3463	19,026.9	82.9182	19,026.9	82.5828	19,026.9	80.2762	19,026.9	79.8251	19,026.9	77.1965	19,026.9	76.8522	19,026.9	73.9507	19,026.9	74.2837	19,026.9	70.184	19,026.9	70.2835	19,026.9	65.6378	19,026.9	67.8144	19,026.9	62.1226	19,026.9	62.7166	19,026.9	58.0403	19,026.9	59.536	19,026.9	55.5088	19,026.9	57.3766	19,026.9	54.7397	19,026.9	50.0525	19,026.9	45.1219	19,026.9	52.7641	19,026.9	49.6429	19,026.9	52.9944	19,026.9	50.8643	19,026.9	43.0852	19,026.9	52.3899	19,026.9	46.6754	19,026.9	53.0491	19,026.9	52.9854
19,697.8	86.3237	19,697.8	86.2652	19,697.8	85.7342	19,697.8	85.446	19,697.8	84.5061	19,697.8	84.3172	19,697.8	82.5243	19,697.8	82.2224	19,697.8	79.1532	19,697.8	79.0376	19,697.8	75.0721	19,697.8	75.2405	19,697.8	70.2769	19,697.8	72.8527	19,697.8	66.8274	19,697.8	68.405	19,697.8	62.4128	19,697.8	66.1002	19,697.8	58.3612	19,697.8	61.217	19,697.8	55.6818	19,697.8	58.6011	19,697.8	53.7664	19,697.8	53.9903	19,697.8	50.563	19,697.8	42.7675	19,697.8	41.9799	19,697.8	51.4245	19,697.8	49.6166	19,697.8	51.8696	19,697.8	50.4251	19,697.8	48.4679	19,697.8	49.3876	19,697.8	39.8197	19,697.8	52.6601	19,697.8	50.3544
19,999.5	86.4963	19,999.5	86.7807	19,999.5	85.8388	19,999.5	85.558	19,999.5	84.5516	19,999.5	84.308	19,999.5	82.388	19,999.5	81.9225	19,999.5	78.9576	19,999.5	78.0663	19,999.5	74.0174	19,999.5	74.2722	19,999.5	69.6326	19,999.5	71.6707	19,999.5	66.2313	19,999.5	67.1537	19,999.5	62.4748	19,999.5	65.8969	19,999.5	59.4598	19,999.5	60.6428	19,999.5	53.293	19,999.5	62.1184	19,999.5	51.3868	19,999.5	55.4406	19,999.5	54.3226	19,999.5	56.3046	19,999.5	51.0674	19,999.5	54.8925	19,999.5	51.9884	19,999.5	58.2652	19,999.5	45.5091	19,999.5	48.7643	19,999.5	54.5058	19,999.5	50.6153	19,999.5	57.8848	19,999.5	50.9182
