"SPL Horizontal"
"On-Axis"		"10°"		"-10°"		"20°"		"-20°"		"30°"		"-30°"		"40°"		"-40°"		"50°"		"-50°"		"60°"		"-60°"		"70°"		"-70°"		"80°"		"-80°"		"90°"		"-90°"		"100°"		"-100°"		"110°"		"-110°"		"120°"		"-120°"		"130°"		"-130°"		"140°"		"-140°"		"150°"		"-150°"		"160°"		"-160°"		"170°"		"-170°"		"180°"
"Frequency / Hz"	"Sound Pressure Level / dB (re 20 µPa/V)  [2.83  V @ 1. m]"	"Frequency / Hz"	"Sound Pressure Level / dB (re 20 µPa/V)  [2.83  V @ 1. m]"	"Frequency / Hz"	"Sound Pressure Level / dB (re 20 µPa/V)  [2.83  V @ 1. m]"	"Frequency / Hz"	"Sound Pressure Level / dB (re 20 µPa/V)  [2.83  V @ 1. m]"	"Frequency / Hz"	"Sound Pressure Level / dB (re 20 µPa/V)  [2.83  V @ 1. m]"	"Frequency / Hz"	"Sound Pressure Level / dB (re 20 µPa/V)  [2.83  V @ 1. m]"	"Frequency / Hz"	"Sound Pressure Level / dB (re 20 µPa/V)  [2.83  V @ 1. m]"	"Frequency / Hz"	"Sound Pressure Level / dB (re 20 µPa/V)  [2.83  V @ 1. m]"	"Frequency / Hz"	"Sound Pressure Level / dB (re 20 µPa/V)  [2.83  V @ 1. m]"	"Frequency / Hz"	"Sound Pressure Level / dB (re 20 µPa/V)  [2.83  V @ 1. m]"	"Frequency / Hz"	"Sound Pressure Level / dB (re 20 µPa/V)  [2.83  V @ 1. m]"	"Frequency / Hz"	"Sound Pressure Level / dB (re 20 µPa/V)  [2.83  V @ 1. m]"	"Frequency / Hz"	"Sound Pressure Level / dB (re 20 µPa/V)  [2.83  V @ 1. m]"	"Frequency / Hz"	"Sound Pressure Level / dB (re 20 µPa/V)  [2.83  V @ 1. m]"	"Frequency / Hz"	"Sound Pressure Level / dB (re 20 µPa/V)  [2.83  V @ 1. m]"	"Frequency / Hz"	"Sound Pressure Level / dB (re 20 µPa/V)  [2.83  V @ 1. m]"	"Frequency / Hz"	"Sound Pressure Level / dB (re 20 µPa/V)  [2.83  V @ 1. m]"	"Frequency / Hz"	"Sound Pressure Level / dB (re 20 µPa/V)  [2.83  V @ 1. m]"	"Frequency / Hz"	"Sound Pressure Level / dB (re 20 µPa/V)  [2.83  V @ 1. m]"	"Frequency / Hz"	"Sound Pressure Level / dB (re 20 µPa/V)  [2.83  V @ 1. m]"	"Frequency / Hz"	"Sound Pressure Level / dB (re 20 µPa/V)  [2.83  V @ 1. m]"	"Frequency / Hz"	"Sound Pressure Level / dB (re 20 µPa/V)  [2.83  V @ 1. m]"	"Frequency / Hz"	"Sound Pressure Level / dB (re 20 µPa/V)  [2.83  V @ 1. m]"	"Frequency / Hz"	"Sound Pressure Level / dB (re 20 µPa/V)  [2.83  V @ 1. m]"	"Frequency / Hz"	"Sound Pressure Level / dB (re 20 µPa/V)  [2.83  V @ 1. m]"	"Frequency / Hz"	"Sound Pressure Level / dB (re 20 µPa/V)  [2.83  V @ 1. m]"	"Frequency / Hz"	"Sound Pressure Level / dB (re 20 µPa/V)  [2.83  V @ 1. m]"	"Frequency / Hz"	"Sound Pressure Level / dB (re 20 µPa/V)  [2.83  V @ 1. m]"	"Frequency / Hz"	"Sound Pressure Level / dB (re 20 µPa/V)  [2.83  V @ 1. m]"	"Frequency / Hz"	"Sound Pressure Level / dB (re 20 µPa/V)  [2.83  V @ 1. m]"	"Frequency / Hz"	"Sound Pressure Level / dB (re 20 µPa/V)  [2.83  V @ 1. m]"	"Frequency / Hz"	"Sound Pressure Level / dB (re 20 µPa/V)  [2.83  V @ 1. m]"	"Frequency / Hz"	"Sound Pressure Level / dB (re 20 µPa/V)  [2.83  V @ 1. m]"	"Frequency / Hz"	"Sound Pressure Level / dB (re 20 µPa/V)  [2.83  V @ 1. m]"	"Frequency / Hz"	"Sound Pressure Level / dB (re 20 µPa/V)  [2.83  V @ 1. m]"	"Frequency / Hz"	"Sound Pressure Level / dB (re 20 µPa/V)  [2.83  V @ 1. m]"
20.5078	40.61	20.5078	40.5774	20.5078	40.6648	20.5078	40.573	20.5078	40.7347	20.5078	40.6009	20.5078	40.8128	20.5078	40.662	20.5078	40.8925	20.5078	40.7536	20.5078	40.9681	20.5078	40.8689	20.5078	41.035	20.5078	40.9978	20.5078	41.0904	20.5078	41.1279	20.5078	41.1331	20.5078	41.2467	20.5078	41.1641	20.5078	41.3434	20.5078	41.1857	20.5078	41.4108	20.5078	41.2013	20.5078	41.4464	20.5078	41.2137	20.5078	41.4529	20.5078	41.2253	20.5078	41.4368	20.5078	41.2375	20.5078	41.4069	20.5078	41.251	20.5078	41.3717	20.5078	41.2666	20.5078	41.3379	20.5078	41.2854	20.5078	41.3089
21.9727	49.2511	21.9727	49.2275	21.9727	49.269	21.9727	49.2002	21.9727	49.2794	21.9727	49.1709	21.9727	49.2805	21.9727	49.1409	21.9727	49.2715	21.9727	49.1106	21.9727	49.2517	21.9727	49.0802	21.9727	49.2215	21.9727	49.0492	21.9727	49.1816	21.9727	49.0169	21.9727	49.1334	21.9727	48.9827	21.9727	49.0787	21.9727	48.9459	21.9727	49.0199	21.9727	48.9064	21.9727	48.9595	21.9727	48.8649	21.9727	48.9001	21.9727	48.8229	21.9727	48.8444	21.9727	48.7826	21.9727	48.7945	21.9727	48.7469	21.9727	48.7528	21.9727	48.7186	21.9727	48.7212	21.9727	48.7005	21.9727	48.7014	21.9727	48.6945
23.4375	47.0437	23.4375	47.0105	23.4375	47.0727	23.4375	46.9747	23.4375	47.0962	23.4375	46.9378	23.4375	47.113	23.4375	46.9008	23.4375	47.1222	23.4375	46.864	23.4375	47.1233	23.4375	46.8271	23.4375	47.116	23.4375	46.7894	23.4375	47.1003	23.4375	46.7499	23.4375	47.0767	23.4375	46.7084	23.4375	47.0458	23.4375	46.6655	23.4375	47.0083	23.4375	46.6231	23.4375	46.9652	23.4375	46.5844	23.4375	46.9173	23.4375	46.5531	23.4375	46.8655	23.4375	46.5329	23.4375	46.8105	23.4375	46.5268	23.4375	46.7539	23.4375	46.536	23.4375	46.6975	23.4375	46.5601	23.4375	46.6442	23.4375	46.5972
24.9023	47.4997	24.9023	47.4789	24.9023	47.5184	24.9023	47.4544	24.9023	47.5357	24.9023	47.4249	24.9023	47.5519	24.9023	47.3887	24.9023	47.5664	24.9023	47.3448	24.9023	47.5782	24.9023	47.2927	24.9023	47.5854	24.9023	47.2327	24.9023	47.5863	24.9023	47.1662	24.9023	47.5788	24.9023	47.0958	24.9023	47.5611	24.9023	47.0254	24.9023	47.5319	24.9023	46.9595	24.9023	47.4902	24.9023	46.9035	24.9023	47.4361	24.9023	46.8624	24.9023	47.3703	24.9023	46.8406	24.9023	47.2947	24.9023	46.8408	24.9023	47.2124	24.9023	46.8636	24.9023	47.1274	24.9023	46.9077	24.9023	47.0446	24.9023	46.9696
26.3672	49.9553	26.3672	49.9281	26.3672	49.977	26.3672	49.8949	26.3672	49.9937	26.3672	49.8547	26.3672	50.0049	26.3672	49.8067	26.3672	50.0099	26.3672	49.7507	26.3672	50.0071	26.3672	49.687	26.3672	49.9952	26.3672	49.617	26.3672	49.9729	26.3672	49.5425	26.3672	49.9392	26.3672	49.4666	26.3672	49.8942	26.3672	49.3927	26.3672	49.8384	26.3672	49.3247	26.3672	49.7733	26.3672	49.2666	26.3672	49.7009	26.3672	49.2222	26.3672	49.6236	26.3672	49.1943	26.3672	49.5442	26.3672	49.1849	26.3672	49.4656	26.3672	49.1944	26.3672	49.3909	26.3672	49.2221	26.3672	49.3232	26.3672	49.2659
27.832	51.8811	27.832	51.8724	27.832	51.8847	27.832	51.8581	27.832	51.883	27.832	51.8375	27.832	51.8757	27.832	51.8096	27.832	51.8616	27.832	51.7736	27.832	51.8395	27.832	51.729	27.832	51.8083	27.832	51.6758	27.832	51.7673	27.832	51.6149	27.832	51.7165	27.832	51.548	27.832	51.6569	27.832	51.4774	27.832	51.5902	27.832	51.4064	27.832	51.5191	27.832	51.3385	27.832	51.4467	27.832	51.2772	27.832	51.3764	27.832	51.2258	27.832	51.3115	27.832	51.1867	27.832	51.2549	27.832	51.1616	27.832	51.2091	27.832	51.1514	27.832	51.1758	27.832	51.1563
29.2969	52.7136	29.2969	52.7091	29.2969	52.7095	29.2969	52.6952	29.2969	52.6976	29.2969	52.6712	29.2969	52.6781	29.2969	52.6362	29.2969	52.6507	29.2969	52.5897	29.2969	52.6152	29.2969	52.5319	29.2969	52.5711	29.2969	52.4633	29.2969	52.5182	29.2969	52.3855	29.2969	52.4566	29.2969	52.3009	29.2969	52.3875	29.2969	52.2126	29.2969	52.3126	29.2969	52.1248	29.2969	52.2344	29.2969	52.042	29.2969	52.1558	29.2969	51.9684	29.2969	52.0799	29.2969	51.9079	29.2969	52.0097	29.2969	51.8633	29.2969	51.948	29.2969	51.8361	29.2969	51.8969	29.2969	51.8268	29.2969	51.8586	29.2969	51.8347
30.7617	54.4125	30.7617	54.3852	30.7617	54.4332	30.7617	54.3515	30.7617	54.4476	30.7617	54.3113	30.7617	54.4554	30.7617	54.2651	30.7617	54.4564	30.7617	54.2136	30.7617	54.45	30.7617	54.158	30.7617	54.4355	30.7617	54.0995	30.7617	54.4126	30.7617	54.0402	30.7617	54.381	30.7617	53.9822	30.7617	54.3411	30.7617	53.9279	30.7617	54.2937	30.7617	53.8799	30.7617	54.2404	30.7617	53.8406	30.7617	54.1826	30.7617	53.8121	30.7617	54.1225	30.7617	53.7958	30.7617	54.062	30.7617	53.7926	30.7617	54.0032	30.7617	53.8022	30.7617	53.9481	30.7617	53.824	30.7617	53.8986	30.7617	53.8566
32.2266	55.7536	32.2266	55.742	32.2266	55.7606	32.2266	55.7253	32.2266	55.7631	32.2266	55.703	32.2266	55.7607	32.2266	55.6742	32.2266	55.7526	32.2266	55.6383	32.2266	55.7382	32.2266	55.5952	32.2266	55.7167	32.2266	55.5457	32.2266	55.6878	32.2266	55.491	32.2266	55.6518	32.2266	55.4335	32.2266	55.6093	32.2266	55.3758	32.2266	55.5616	32.2266	55.3211	32.2266	55.5104	32.2266	55.2723	32.2266	55.4574	32.2266	55.2322	32.2266	55.4046	32.2266	55.2026	32.2266	55.3538	32.2266	55.1849	32.2266	55.3066	32.2266	55.1793	32.2266	55.2646	32.2266	55.1855	32.2266	55.2295	32.2266	55.2026
33.6914	57.0364	33.6914	57.0138	33.6914	57.0522	33.6914	56.9846	33.6914	57.061	33.6914	56.949	33.6914	57.0623	33.6914	56.9075	33.6914	57.0559	33.6914	56.8607	33.6914	57.0411	33.6914	56.8093	33.6914	57.0179	33.6914	56.7546	33.6914	56.9863	33.6914	56.6982	33.6914	56.9467	33.6914	56.6419	33.6914	56.9002	33.6914	56.5879	33.6914	56.8482	33.6914	56.5387	33.6914	56.7926	33.6914	56.4963	33.6914	56.7352	33.6914	56.4627	33.6914	56.6782	33.6914	56.4395	33.6914	56.6234	33.6914	56.4275	33.6914	56.5726	33.6914	56.4269	33.6914	56.5272	33.6914	56.4375	33.6914	56.4887	33.6914	56.4584
35.1562	58.0423	35.1562	58.027	35.1562	58.0495	35.1562	58.0036	35.1562	58.0486	35.1562	57.972	35.1562	58.0396	35.1562	57.932	35.1562	58.0223	35.1562	57.8839	35.1562	57.9964	35.1562	57.8283	35.1562	57.9622	35.1562	57.7662	35.1562	57.9197	35.1562	57.6995	35.1562	57.8699	35.1562	57.6306	35.1562	57.8138	35.1562	57.5622	35.1562	57.7529	35.1562	57.4976	35.1562	57.6892	35.1562	57.4397	35.1562	57.6248	35.1562	57.3913	35.1562	57.5618	35.1562	57.3543	35.1562	57.5023	35.1562	57.3301	35.1562	57.4483	35.1562	57.3193	35.1562	57.4017	35.1562	57.3218	35.1562	57.3641	35.1562	57.3371
36.6211	59.0267	36.6211	59.0081	36.6211	59.0378	36.6211	58.982	36.6211	59.0412	36.6211	58.9486	36.6211	59.0366	36.6211	58.9081	36.6211	59.0235	36.6211	58.8606	36.6211	59.0016	36.6211	58.8072	36.6211	58.971	36.6211	58.7489	36.6211	58.9319	36.6211	58.6876	36.6211	58.8851	36.6211	58.6255	36.6211	58.8321	36.6211	58.5653	36.6211	58.7745	36.6211	58.5094	36.6211	58.7144	36.6211	58.4605	36.6211	58.6538	36.6211	58.4206	36.6211	58.595	36.6211	58.3911	36.6211	58.5398	36.6211	58.3728	36.6211	58.49	36.6211	58.3662	36.6211	58.4471	36.6211	58.3709	36.6211	58.4122	36.6211	58.3865
38.0859	60.0589	38.0859	60.0443	38.0859	60.0639	38.0859	60.0203	38.0859	60.0594	38.0859	59.9871	38.0859	60.0455	38.0859	59.9451	38.0859	60.0223	38.0859	59.8951	38.0859	59.9901	38.0859	59.8383	38.0859	59.9493	38.0859	59.7761	38.0859	59.9008	38.0859	59.7104	38.0859	59.8456	38.0859	59.6435	38.0859	59.7854	38.0859	59.5778	38.0859	59.7219	38.0859	59.5159	38.0859	59.6573	38.0859	59.4602	38.0859	59.5938	38.0859	59.4129	38.0859	59.5335	38.0859	59.3756	38.0859	59.4785	38.0859	59.3495	38.0859	59.4305	38.0859	59.335	38.0859	59.3909	38.0859	59.3322	38.0859	59.3608	38.0859	59.341
39.5508	61.0401	39.5508	61.0259	39.5508	61.0447	39.5508	61.0022	39.5508	61.0399	39.5508	60.9692	39.5508	61.0259	39.5508	60.9275	39.5508	61.0029	39.5508	60.8779	39.5508	60.9714	39.5508	60.8217	39.5508	60.9319	39.5508	60.7604	39.5508	60.8851	39.5508	60.6961	39.5508	60.8323	39.5508	60.6309	39.5508	60.7748	39.5508	60.5673	39.5508	60.7143	39.5508	60.5077	39.5508	60.6528	39.5508	60.4544	39.5508	60.5922	39.5508	60.4094	39.5508	60.5345	39.5508	60.3742	39.5508	60.4814	39.5508	60.3498	39.5508	60.4346	39.5508	60.3368	39.5508	60.3955	39.5508	60.3352	39.5508	60.3653	39.5508	60.3449
41.0156	61.8154	41.0156	61.8053	41.0156	61.8147	41.0156	61.7844	41.0156	61.8033	41.0156	61.753	41.0156	61.7815	41.0156	61.7114	41.0156	61.7495	41.0156	61.6606	41.0156	61.7081	41.0156	61.6017	41.0156	61.6581	41.0156	61.5364	41.0156	61.6009	41.0156	61.4668	41.0156	61.5381	41.0156	61.3952	41.0156	61.4716	41.0156	61.3243	41.0156	61.4036	41.0156	61.2565	41.0156	61.3365	41.0156	61.1945	41.0156	61.2722	41.0156	61.1404	41.0156	61.2127	41.0156	61.0961	41.0156	61.1596	41.0156	61.0628	41.0156	61.1142	41.0156	61.0416	41.0156	61.0778	41.0156	61.0327	41.0156	61.0514	41.0156	61.0361
42.4805	62.955	42.4805	62.9505	42.4805	62.9513	42.4805	62.9377	42.4805	62.9394	42.4805	62.9168	42.4805	62.9194	42.4805	62.8879	42.4805	62.8914	42.4805	62.8514	42.4805	62.8557	42.4805	62.8082	42.4805	62.813	42.4805	62.7592	42.4805	62.7639	42.4805	62.706	42.4805	62.7098	42.4805	62.6502	42.4805	62.6524	42.4805	62.5938	42.4805	62.5934	42.4805	62.5387	42.4805	62.5352	42.4805	62.4868	42.4805	62.48	42.4805	62.4396	42.4805	62.43	42.4805	62.3985	42.4805	62.3872	42.4805	62.3645	42.4805	62.3534	42.4805	62.3386	42.4805	62.3296	42.4805	62.3215	42.4805	62.3165	42.4805	62.3139
43.9453	63.9151	43.9453	63.9046	43.9453	63.9162	43.9453	63.885	43.9453	63.9078	43.9453	63.8565	43.9453	63.89	43.9453	63.8199	43.9453	63.8631	43.9453	63.7759	43.9453	63.8275	43.9453	63.7258	43.9453	63.7839	43.9453	63.6709	43.9453	63.7336	43.9453	63.6129	43.9453	63.6779	43.9453	63.5538	43.9453	63.6185	43.9453	63.4956	43.9453	63.5577	43.9453	63.4402	43.9453	63.4976	43.9453	63.3895	43.9453	63.4406	43.9453	63.3451	43.9453	63.3885	43.9453	63.3082	43.9453	63.3432	43.9453	63.2797	43.9453	63.3059	43.9453	63.2602	43.9453	63.2775	43.9453	63.25	43.9453	63.2586	43.9453	63.2494
45.4102	64.8718	45.4102	64.8605	45.4102	64.8745	45.4102	64.8411	45.4102	64.8685	45.4102	64.814	45.4102	64.8533	45.4102	64.7799	45.4102	64.8292	45.4102	64.7397	45.4102	64.7962	45.4102	64.6944	45.4102	64.7551	45.4102	64.6453	45.4102	64.7069	45.4102	64.5938	45.4102	64.6533	45.4102	64.5416	45.4102	64.5961	45.4102	64.4904	45.4102	64.5378	45.4102	64.4417	45.4102	64.4807	45.4102	64.397	45.4102	64.4273	45.4102	64.3574	45.4102	64.3794	45.4102	64.3239	45.4102	64.3388	45.4102	64.2973	45.4102	64.3065	45.4102	64.278	45.4102	64.283	45.4102	64.2665	45.4102	64.2687	45.4102	64.2632
46.875	65.8451	46.875	65.835	46.875	65.845	46.875	65.815	46.875	65.8344	46.875	65.7859	46.875	65.813	46.875	65.7485	46.875	65.7811	46.875	65.7036	46.875	65.7391	46.875	65.6523	46.875	65.6881	46.875	65.596	46.875	65.6295	46.875	65.5361	46.875	65.5652	46.875	65.4742	46.875	65.4974	46.875	65.4121	46.875	65.4288	46.875	65.3517	46.875	65.3619	46.875	65.2946	46.875	65.2993	46.875	65.2428	46.875	65.2432	46.875	65.1978	46.875	65.1955	46.875	65.1609	46.875	65.1575	46.875	65.1333	46.875	65.1302	46.875	65.116	46.875	65.1141	46.875	65.1094
48.3398	66.6945	48.3398	66.6853	48.3398	66.6943	48.3398	66.6671	48.3398	66.6843	48.3398	66.6403	48.3398	66.6646	48.3398	66.6057	48.3398	66.6353	48.3398	66.564	48.3398	66.5969	48.3398	66.5163	48.3398	66.5503	48.3398	66.4637	48.3398	66.4967	48.3398	66.4076	48.3398	66.4377	48.3398	66.3494	48.3398	66.3754	48.3398	66.291	48.3398	66.3121	48.3398	66.2341	48.3398	66.25	48.3398	66.1805	48.3398	66.1914	48.3398	66.1319	48.3398	66.1385	48.3398	66.0897	48.3398	66.0931	48.3398	66.0553	48.3398	66.0565	48.3398	66.0297	48.3398	66.0299	48.3398	66.0139	48.3398	66.0138	48.3398	66.0085
51.2695	68.3285	51.2695	68.3312	51.2695	68.3165	51.2695	68.3245	51.2695	68.2957	51.2695	68.3084	51.2695	68.2669	51.2695	68.2835	51.2695	68.2309	51.2695	68.2505	51.2695	68.1891	51.2695	68.2106	51.2695	68.1431	51.2695	68.1656	51.2695	68.0947	51.2695	68.1173	51.2695	68.0457	51.2695	68.0678	51.2695	67.9982	51.2695	68.0191	51.2695	67.9537	51.2695	67.9731	51.2695	67.9137	51.2695	67.9312	51.2695	67.879	51.2695	67.8943	51.2695	67.8502	51.2695	67.863	51.2695	67.8275	51.2695	67.8376	51.2695	67.811	51.2695	67.8183	51.2695	67.8006	51.2695	67.805	51.2695	67.7961	51.2695	67.7976
52.7344	69.1756	52.7344	69.19	52.7344	69.1492	52.7344	69.1919	52.7344	69.1118	52.7344	69.1814	52.7344	69.065	52.7344	69.1591	52.7344	69.0107	52.7344	69.1261	52.7344	68.9511	52.7344	69.084	52.7344	68.8889	52.7344	69.035	52.7344	68.8267	52.7344	68.9816	52.7344	68.7671	52.7344	68.926	52.7344	68.7125	52.7344	68.8708	52.7344	68.6649	52.7344	68.8177	52.7344	68.6256	52.7344	68.7685	52.7344	68.5952	52.7344	68.724	52.7344	68.5738	52.7344	68.6847	52.7344	68.5611	52.7344	68.6507	52.7344	68.5561	52.7344	68.622	52.7344	68.5581	52.7344	68.5983	52.7344	68.5662	52.7344	68.5797
54.1992	69.9368	54.1992	69.9294	54.1992	69.9292	54.1992	69.9071	54.1992	69.9072	54.1992	69.8709	54.1992	69.8718	54.1992	69.8224	54.1992	69.8248	54.1992	69.7639	54.1992	69.7684	54.1992	69.6984	54.1992	69.7051	54.1992	69.6289	54.1992	69.6378	54.1992	69.5588	54.1992	69.5694	54.1992	69.4912	54.1992	69.5027	54.1992	69.4288	54.1992	69.4404	54.1992	69.3734	54.1992	69.3845	54.1992	69.3264	54.1992	69.3364	54.1992	69.2882	54.1992	69.2968	54.1992	69.2586	54.1992	69.2658	54.1992	69.2371	54.1992	69.2427	54.1992	69.2229	54.1992	69.2267	54.1992	69.2152	54.1992	69.2172	54.1992	69.2134
55.6641	70.723	55.6641	70.7082	55.6641	70.7223	55.6641	70.6783	55.6641	70.7063	55.6641	70.6342	55.6641	70.6759	55.6641	70.5775	55.6641	70.6324	55.6641	70.5105	55.6641	70.5776	55.6641	70.4356	55.6641	70.5137	55.6641	70.3559	55.6641	70.4434	55.6641	70.2746	55.6641	70.3694	55.6641	70.1949	55.6641	70.2945	55.6641	70.1198	55.6641	70.2216	55.6641	70.0522	55.6641	70.1531	55.6641	69.9941	55.6641	70.0909	55.6641	69.9471	55.6641	70.0361	55.6641	69.9118	55.6641	69.9895	55.6641	69.8884	55.6641	69.9508	55.6641	69.8761	55.6641	69.92	55.6641	69.8741	55.6641	69.8968	55.6641	69.8813
58.5938	72.2953	58.5938	72.2835	58.5938	72.293	58.5938	72.2582	58.5938	72.2764	58.5938	72.2206	58.5938	72.2461	58.5938	72.1724	58.5938	72.2033	58.5938	72.1158	58.5938	72.1495	58.5938	72.0531	58.5938	72.0869	58.5938	71.9868	58.5938	72.0179	58.5938	71.9195	58.5938	71.9452	58.5938	71.8535	58.5938	71.8716	58.5938	71.7907	58.5938	71.7999	58.5938	71.7328	58.5938	71.7327	58.5938	71.6808	58.5938	71.6723	58.5938	71.6354	58.5938	71.6205	58.5938	71.5968	58.5938	71.5786	58.5938	71.5654	58.5938	71.5473	58.5938	71.5411	58.5938	71.5268	58.5938	71.5245	58.5938	71.5166	58.5938	71.5161
60.0586	72.8341	60.0586	72.8239	60.0586	72.8309	60.0586	72.8007	60.0586	72.8145	60.0586	72.7657	60.0586	72.7856	60.0586	72.7202	60.0586	72.7454	60.0586	72.6665	60.0586	72.696	60.0586	72.6068	60.0586	72.6394	60.0586	72.5437	60.0586	72.5782	60.0586	72.4797	60.0586	72.5149	60.0586	72.4174	60.0586	72.4522	60.0586	72.359	60.0586	72.3922	60.0586	72.306	60.0586	72.3367	60.0586	72.2597	60.0586	72.2871	60.0586	72.2209	60.0586	72.2444	60.0586	72.1897	60.0586	72.2089	60.0586	72.1663	60.0586	72.1808	60.0586	72.1504	60.0586	72.1601	60.0586	72.1419	60.0586	72.1468	60.0586	72.1408
62.9883	73.942	62.9883	73.9375	62.9883	73.9334	62.9883	73.9203	62.9883	73.912	62.9883	73.8915	62.9883	73.8787	62.9883	73.8526	62.9883	73.8352	62.9883	73.8058	62.9883	73.7837	62.9883	73.7537	62.9883	73.7266	62.9883	73.6989	62.9883	73.6669	62.9883	73.6442	62.9883	73.6075	62.9883	73.5918	62.9883	73.5511	62.9883	73.5437	62.9883	73.5001	62.9883	73.5012	62.9883	73.456	62.9883	73.4649	62.9883	73.4198	62.9883	73.4347	62.9883	73.392	62.9883	73.4102	62.9883	73.3722	62.9883	73.3907	62.9883	73.3596	62.9883	73.3754	62.9883	73.3534	62.9883	73.364	62.9883	73.3526	62.9883	73.3563
64.4531	74.6153	64.4531	74.6087	64.4531	74.608	64.4531	74.5884	64.4531	74.587	64.4531	74.5556	64.4531	74.5534	64.4531	74.5122	64.4531	74.5091	64.4531	74.4605	64.4531	74.4563	64.4531	74.4033	64.4531	74.3979	64.4531	74.3436	64.4531	74.337	64.4531	74.2843	64.4531	74.2766	64.4531	74.2281	64.4531	74.2195	64.4531	74.1772	64.4531	74.1679	64.4531	74.1331	64.4531	74.1234	64.4531	74.0966	64.4531	74.0869	64.4531	74.0677	64.4531	74.0584	64.4531	74.0457	64.4531	74.0374	64.4531	74.0298	64.4531	74.023	64.4531	74.0189	64.4531	74.0141	64.4531	74.0123	64.4531	74.0098	64.4531	74.0093
67.3828	75.8621	67.3828	75.8521	67.3828	75.8572	67.3828	75.8276	67.3828	75.8378	67.3828	75.79	67.3828	75.8049	67.3828	75.7413	67.3828	75.7605	67.3828	75.6844	67.3828	75.7072	67.3828	75.6222	67.3828	75.6481	67.3828	75.5582	67.3828	75.5865	67.3828	75.4956	67.3828	75.5256	67.3828	75.4376	67.3828	75.4684	67.3828	75.3864	67.3828	75.4172	67.3828	75.3436	67.3828	75.3735	67.3828	75.3099	67.3828	75.3381	67.3828	75.2852	67.3828	75.3106	67.3828	75.2684	67.3828	75.2903	67.3828	75.2584	67.3828	75.2757	67.3828	75.2535	67.3828	75.2655	67.3828	75.2525	67.3828	75.2587	67.3828	75.2544
68.8477	76.4363	68.8477	76.4243	68.8477	76.4328	68.8477	76.3973	68.8477	76.414	68.8477	76.3567	68.8477	76.3813	68.8477	76.305	68.8477	76.3366	68.8477	76.2448	68.8477	76.2828	68.8477	76.1797	68.8477	76.2229	68.8477	76.1133	68.8477	76.1605	68.8477	76.049	68.8477	76.0991	68.8477	75.9899	68.8477	76.0415	68.8477	75.9386	68.8477	75.9903	68.8477	75.8966	68.8477	75.9468	68.8477	75.8645	68.8477	75.9117	68.8477	75.8418	68.8477	75.8846	68.8477	75.8277	68.8477	75.8643	68.8477	75.8204	68.8477	75.8495	68.8477	75.8184	68.8477	75.8386	68.8477	75.8201	68.8477	75.8304	68.8477	75.8243
71.7773	77.5016	71.7773	77.4914	71.7773	77.4949	71.7773	77.4647	71.7773	77.4717	71.7773	77.423	71.7773	77.4337	71.7773	77.3688	71.7773	77.3833	71.7773	77.3052	71.7773	77.3237	71.7773	77.236	71.7773	77.2586	71.7773	77.1651	71.7773	77.1919	71.7773	77.0965	71.7773	77.1273	71.7773	77.0337	71.7773	77.068	71.7773	76.9794	71.7773	77.0163	71.7773	76.9354	71.7773	76.9736	71.7773	76.9022	71.7773	76.9402	71.7773	76.8794	71.7773	76.9153	71.7773	76.8658	71.7773	76.8976	71.7773	76.8594	71.7773	76.8853	71.7773	76.8582	71.7773	76.8765	71.7773	76.8604	71.7773	76.8699	71.7773	76.8645
74.707	78.4829	74.707	78.4757	74.707	78.4725	74.707	78.4514	74.707	78.4453	74.707	78.4114	74.707	78.403	74.707	78.3584	74.707	78.3485	74.707	78.2956	74.707	78.2854	74.707	78.2269	74.707	78.2177	74.707	78.1567	74.707	78.1497	74.707	78.0889	74.707	78.0853	74.707	78.0272	74.707	78.028	74.707	77.9744	74.707	77.9799	74.707	77.9321	74.707	77.9422	74.707	77.9008	74.707	77.9147	74.707	77.8801	74.707	77.8962	74.707	77.8683	74.707	77.8848	74.707	77.8634	74.707	77.8781	74.707	77.863	74.707	77.8741	74.707	77.8651	74.707	77.8711	74.707	77.8681
77.6367	79.4264	77.6367	79.4233	77.6367	79.4104	77.6367	79.4014	77.6367	79.376	77.6367	79.3627	77.6367	79.3252	77.6367	79.3097	77.6367	79.2612	77.6367	79.2461	77.6367	79.188	77.6367	79.1762	77.6367	79.1105	77.6367	79.1043	77.6367	79.0334	77.6367	79.0347	77.6367	78.9616	77.6367	78.9712	77.6367	78.899	77.6367	78.9165	77.6367	78.8483	77.6367	78.8723	77.6367	78.8108	77.6367	78.839	77.6367	78.7861	77.6367	78.8159	77.6367	78.7727	77.6367	78.8013	77.6367	78.768	77.6367	78.7929	77.6367	78.7691	77.6367	78.7882	77.6367	78.7731	77.6367	78.7851	77.6367	78.7778	77.6367	78.7819
79.1016	79.8628	79.1016	79.8597	79.1016	79.8461	79.1016	79.8374	79.1016	79.8105	79.1016	79.7979	79.1016	79.758	79.1016	79.744	79.1016	79.6918	79.1016	79.6796	79.1016	79.6162	79.1016	79.6091	79.1016	79.536	79.1016	79.537	79.1016	79.4566	79.1016	79.4677	79.1016	79.3827	79.1016	79.4051	79.1016	79.3186	79.1016	79.3517	79.1016	79.2673	79.1016	79.3092	79.1016	79.2301	79.1016	79.2777	79.1016	79.2067	79.1016	79.2562	79.1016	79.1954	79.1016	79.2427	79.1016	79.1936	79.1016	79.2348	79.1016	79.198	79.1016	79.2298	79.1016	79.2054	79.1016	79.2254	79.1016	79.2133	79.1016	79.2202
82.0312	80.6706	82.0312	80.6668	82.0312	80.6534	82.0312	80.6426	82.0312	80.6158	82.0312	80.6001	82.0312	80.56	82.0312	80.5423	82.0312	80.4895	82.0312	80.4736	82.0312	80.4088	82.0312	80.3987	82.0312	80.3231	82.0312	80.3226	82.0312	80.2379	82.0312	80.25	82.0312	80.1585	82.0312	80.1849	82.0312	80.0893	82.0312	80.13	82.0312	80.0337	82.0312	80.0868	82.0312	79.9932	82.0312	80.0551	82.0312	79.9677	82.0312	80.0337	82.0312	79.9557	82.0312	80.0201	82.0312	79.9544	82.0312	80.0116	82.0312	79.9604	82.0312	80.0053	82.0312	79.9703	82.0312	79.9989	82.0312	79.9812	82.0312	79.991
84.9609	81.3517	84.9609	81.3442	84.9609	81.3375	84.9609	81.3158	84.9609	81.3023	84.9609	81.2686	84.9609	81.2484	84.9609	81.2063	84.9609	81.1793	84.9609	81.1334	84.9609	81.0999	84.9609	81.0552	84.9609	81.0156	84.9609	80.977	84.9609	80.9322	84.9609	80.9038	84.9609	80.8549	84.9609	80.8398	84.9609	80.7885	84.9609	80.788	84.9609	80.7359	84.9609	80.7495	84.9609	80.6986	84.9609	80.724	84.9609	80.6762	84.9609	80.7097	84.9609	80.6669	84.9609	80.7037	84.9609	80.6675	84.9609	80.7027	84.9609	80.6743	84.9609	80.7033	84.9609	80.6838	84.9609	80.7029	84.9609	80.6929	84.9609	80.6996
87.8906	82.0672	87.8906	82.0627	87.8906	82.0477	87.8906	82.035	87.8906	82.0053	87.8906	81.9863	87.8906	81.9428	87.8906	81.9205	87.8906	81.8645	87.8906	81.8428	87.8906	81.776	87.8906	81.7588	87.8906	81.6835	87.8906	81.6748	87.8906	81.5937	87.8906	81.5965	87.8906	81.5124	87.8906	81.5285	87.8906	81.4446	87.8906	81.4742	87.8906	81.3935	87.8906	81.4351	87.8906	81.3602	87.8906	81.4107	87.8906	81.3438	87.8906	81.3989	87.8906	81.3417	87.8906	81.3963	87.8906	81.3498	87.8906	81.3989	87.8906	81.3637	87.8906	81.4025	87.8906	81.3791	87.8906	81.4039	87.8906	81.3921	87.8906	81.4007
90.8203	82.6329	90.8203	82.6235	90.8203	82.6183	90.8203	82.5908	90.8203	82.5805	90.8203	82.5376	90.8203	82.5224	90.8203	82.4679	90.8203	82.4482	90.8203	82.3871	90.8203	82.3633	90.8203	82.3014	90.8203	82.2741	90.8203	82.2171	90.8203	82.1873	90.8203	82.1399	90.8203	82.1087	90.8203	82.0747	90.8203	82.0434	90.8203	82.0246	90.8203	81.9946	90.8203	81.9909	90.8203	81.9634	90.8203	81.9726	90.8203	81.9487	90.8203	81.9675	90.8203	81.9478	90.8203	81.9716	90.8203	81.9564	90.8203	81.9808	90.8203	81.9699	90.8203	81.9906	90.8203	81.9837	90.8203	81.9975	90.8203	81.9941	90.8203	81.999
95.2148	83.4718	95.2148	83.4622	95.2148	83.4541	95.2148	83.4265	95.2148	83.4102	95.2148	83.3674	95.2148	83.3431	95.2148	83.2899	95.2148	83.2577	95.2148	83.1998	95.2148	83.1601	95.2148	83.1041	95.2148	83.0576	95.2148	83.0099	95.2148	82.9578	95.2148	82.9239	95.2148	82.8677	95.2148	82.8512	95.2148	82.793	95.2148	82.7956	95.2148	82.7376	95.2148	82.7584	95.2148	82.7029	95.2148	82.7386	95.2148	82.6879	95.2148	82.7334	95.2148	82.6893	95.2148	82.7383	95.2148	82.7021	95.2148	82.7483	95.2148	82.7209	95.2148	82.7585	95.2148	82.7402	95.2148	82.7647	95.2148	82.7555	95.2148	82.764
98.1445	83.8944	98.1445	83.8862	98.1445	83.8748	98.1445	83.851	98.1445	83.8285	98.1445	83.7921	98.1445	83.7588	98.1445	83.7144	98.1445	83.6713	98.1445	83.6247	98.1445	83.5726	98.1445	83.5302	98.1445	83.4707	98.1445	83.4386	98.1445	83.3733	98.1445	83.3567	98.1445	83.2878	98.1445	83.29	98.1445	83.2199	98.1445	83.2419	98.1445	83.1729	98.1445	83.2132	98.1445	83.1477	98.1445	83.2024	98.1445	83.1426	98.1445	83.2058	98.1445	83.1536	98.1445	83.2186	98.1445	83.1754	98.1445	83.235	98.1445	83.2019	98.1445	83.2496	98.1445	83.2273	98.1445	83.2581	98.1445	83.2469	98.1445	83.2575
101.074	84.2928	101.074	84.2861	101.074	84.269	101.074	84.25	101.074	84.2162	101.074	84.1877	101.074	84.1383	101.074	84.1045	101.074	84.0413	101.074	84.0074	101.074	83.9327	101.074	83.9046	101.074	83.8211	101.074	83.8044	101.074	83.7152	101.074	83.7144	101.074	83.6231	101.074	83.6408	101.074	83.5509	101.074	83.5875	101.074	83.5024	101.074	83.5555	101.074	83.4783	101.074	83.5435	101.074	83.4762	101.074	83.5475	101.074	83.4916	101.074	83.562	101.074	83.5181	101.074	83.581	101.074	83.5488	101.074	83.5983	101.074	83.5774	101.074	83.609	101.074	83.5987	101.074	83.6095
105.469	84.7996	105.469	84.7901	105.469	84.7773	105.469	84.7501	105.469	84.7248	105.469	84.683	105.469	84.646	105.469	84.5947	105.469	84.547	105.469	84.4927	105.469	84.4358	105.469	84.3855	105.469	84.3214	105.469	84.2818	105.469	84.2129	105.469	84.1898	105.469	84.1187	105.469	84.1155	105.469	84.0452	105.469	84.0629	105.469	83.996	105.469	84.0328	105.469	83.9717	105.469	84.0232	105.469	83.9699	105.469	84.0298	105.469	83.9855	105.469	84.0468	105.469	84.012	105.469	84.0679	105.469	84.0424	105.469	84.0869	105.469	84.0704	105.469	84.0989	105.469	84.0908	105.469	84.1007
108.398	85.1301	108.398	85.117	108.398	85.1091	108.398	85.0713	108.398	85.0556	108.398	84.9971	108.398	84.9736	108.398	84.9007	108.398	84.8696	108.398	84.7904	108.398	84.7523	108.398	84.6755	108.398	84.6314	108.398	84.5657	108.398	84.517	108.398	84.4698	108.398	84.4184	108.398	84.3947	108.398	84.3426	108.398	84.3444	108.398	84.2939	108.398	84.3197	108.398	84.2728	108.398	84.3182	108.398	84.2766	108.398	84.3347	108.398	84.2995	108.398	84.3622	108.398	84.334	108.398	84.393	108.398	84.3721	108.398	84.42	108.398	84.4063	108.398	84.4375	108.398	84.4307	108.398	84.4415
112.793	85.6707	112.793	85.6557	112.793	85.6484	112.793	85.605	112.793	85.5903	112.793	85.5231	112.793	85.5008	112.793	85.4169	112.793	85.3871	112.793	85.2956	112.793	85.2583	112.793	85.1693	112.793	85.1254	112.793	85.0489	112.793	84.9991	112.793	84.9438	112.793	84.8898	112.793	84.8617	112.793	84.8055	112.793	84.8071	112.793	84.7508	112.793	84.781	112.793	84.7267	112.793	84.7805	112.793	84.7302	112.793	84.7998	112.793	84.7554	112.793	84.831	112.793	84.7939	112.793	84.8656	112.793	84.837	112.793	84.8956	112.793	84.8761	112.793	84.9143	112.793	84.9045	112.793	84.9178
117.188	85.9549	117.188	85.9401	117.188	85.931	117.188	85.8883	117.188	85.87	117.188	85.804	117.188	85.7763	117.188	85.6947	117.188	85.6574	117.188	85.5695	117.188	85.523	117.188	85.4393	117.188	85.3842	117.188	85.3149	117.188	85.2525	117.188	85.2063	117.188	85.1384	117.188	85.1213	117.188	85.0502	117.188	85.0646	117.188	84.9929	117.188	85.037	117.188	84.9676	117.188	85.0357	117.188	84.971	117.188	85.0545	117.188	84.9971	117.188	85.0855	117.188	85.0372	117.188	85.1198	117.188	85.0823	117.188	85.1491	117.188	85.1235	117.188	85.1669	117.188	85.1539	117.188	85.169
120.117	86.1635	120.117	86.1501	120.117	86.1367	120.117	86.0982	120.117	86.0715	120.117	86.0125	120.117	85.973	120.117	85.9007	120.117	85.8493	120.117	85.7728	120.117	85.7107	120.117	85.6402	120.117	85.5692	120.117	85.5144	120.117	85.437	120.117	85.4061	120.117	85.3251	120.117	85.3234	120.117	85.2417	120.117	85.271	120.117	85.1918	120.117	85.2495	120.117	85.1755	120.117	85.2555	120.117	85.1891	120.117	85.2824	120.117	85.2253	120.117	85.3213	120.117	85.2748	120.117	85.3627	120.117	85.3275	120.117	85.398	120.117	85.3744	120.117	85.4198	120.117	85.408	120.117	85.4237
124.512	86.4089	124.512	86.3939	124.512	86.3808	124.512	86.3376	124.512	86.3116	124.512	86.2453	124.512	86.2066	124.512	86.1255	124.512	86.0746	124.512	85.9889	124.512	85.9269	124.512	85.848	124.512	85.7765	124.512	85.7157	124.512	85.6369	124.512	85.6034	124.512	85.5203	124.512	85.5203	124.512	85.4359	124.512	85.4713	124.512	85.3888	124.512	85.4569	124.512	85.3794	124.512	85.473	124.512	85.403	124.512	85.5117	124.512	85.4513	124.512	85.5628	124.512	85.5133	124.512	85.6154	124.512	85.5778	124.512	85.6595	124.512	85.6342	124.512	85.6869	124.512	85.6742	124.512	85.6923
128.906	86.6276	128.906	86.6101	128.906	86.5992	128.906	86.5487	128.906	86.527	128.906	86.449	128.906	86.4168	128.906	86.3198	128.906	86.2777	128.906	86.1728	128.906	86.122	128.906	86.0214	128.906	85.9635	128.906	85.8792	128.906	85.8165	128.906	85.7591	128.906	85.6942	128.906	85.6708	128.906	85.6067	128.906	85.62	128.906	85.5594	128.906	85.6075	128.906	85.5527	128.906	85.6287	128.906	85.5813	128.906	85.6752	128.906	85.636	128.906	85.7357	128.906	85.7049	128.906	85.798	128.906	85.7755	128.906	85.8508	128.906	85.8362	128.906	85.8851	128.906	85.8779	128.906	85.8948
133.301	86.7943	133.301	86.7788	133.301	86.7606	133.301	86.7162	133.301	86.68	133.301	86.6122	133.301	86.5588	133.301	86.4766	133.301	86.4071	133.301	86.3217	133.301	86.2381	133.301	86.1619	133.301	86.0669	133.301	86.0119	133.301	85.9091	133.301	85.8853	133.301	85.7791	133.301	85.7926	133.301	85.6875	133.301	85.7399	133.301	85.6403	133.301	85.7277	133.301	85.6375	133.301	85.7513	133.301	85.6731	133.301	85.8014	133.301	85.7368	133.301	85.866	133.301	85.8155	133.301	85.9322	133.301	85.8953	133.301	85.9879	133.301	85.964	133.301	86.0232	133.301	86.0115	133.301	86.0319
139.16	86.9521	139.16	86.9328	139.16	86.9185	139.16	86.8627	139.16	86.8342	139.16	86.7485	139.16	86.706	139.16	86.6009	139.16	86.5447	139.16	86.4337	139.16	86.3648	139.16	86.2626	139.16	86.1827	139.16	86.1038	139.16	86.0157	139.16	85.9723	139.16	85.8794	139.16	85.8794	139.16	85.7856	139.16	85.8311	139.16	85.7405	139.16	85.8276	139.16	85.7438	139.16	85.8628	139.16	85.7888	139.16	85.9262	139.16	85.8637	139.16	86.0039	139.16	85.9541	139.16	86.0817	139.16	86.0447	139.16	86.1463	139.16	86.122	139.16	86.1872	139.16	86.1752	139.16	86.1976
143.555	87.0466	143.555	87.0231	143.555	87.0136	143.555	86.9457	143.555	86.9265	143.555	86.8215	143.555	86.7924	143.555	86.662	143.555	86.6227	143.555	86.4819	143.555	86.4325	143.555	86.2981	143.555	86.2397	143.555	86.1283	143.555	86.0625	143.555	85.9883	143.555	85.9179	143.555	85.8906	143.555	85.8188	143.555	85.8415	143.555	85.772	143.555	85.8412	143.555	85.7772	143.555	85.883	143.555	85.8273	143.555	85.9552	143.555	85.9092	143.555	86.0428	143.555	86.0072	143.555	86.1303	143.555	86.1048	143.555	86.2034	143.555	86.1871	143.555	86.2506	143.555	86.2427	143.555	86.2646
147.949	87.12	147.949	87.095	147.949	87.0842	147.949	87.0119	147.949	86.99	147.949	86.8782	147.949	86.845	147.949	86.706	147.949	86.6612	147.949	86.5112	147.949	86.4551	147.949	86.312	147.949	86.2456	147.949	86.1274	147.949	86.0525	147.949	85.9749	147.949	85.8942	147.949	85.8678	147.949	85.785	147.949	85.8133	147.949	85.7326	147.949	85.8116	147.949	85.7366	147.949	85.8555	147.949	85.7894	147.949	85.9321	147.949	85.8771	147.949	86.0254	147.949	85.9823	147.949	86.1186	147.949	86.0874	147.949	86.1963	147.949	86.1762	147.949	86.2463	147.949	86.2365	147.949	86.2606
153.809	87.1105	153.809	87.0837	153.809	87.0716	153.809	86.9941	153.809	86.9696	153.809	86.8502	153.809	86.8124	153.809	86.6651	153.809	86.6133	153.809	86.456	153.809	86.3899	153.809	86.2428	153.809	86.1629	153.809	86.0461	153.809	85.954	153.809	85.8848	153.809	85.7833	153.809	85.7734	153.809	85.6667	153.809	85.7198	153.809	85.6129	153.809	85.7239	153.809	85.6217	153.809	85.7776	153.809	85.6847	153.809	85.8666	153.809	85.7866	153.809	85.9729	153.809	85.9081	153.809	86.0778	153.809	86.0293	153.809	86.1642	153.809	86.1322	153.809	86.2187	153.809	86.2028	153.809	86.2326
159.668	87.2317	159.668	87.1986	159.668	87.1944	159.668	87.098	159.668	87.0893	159.668	86.9386	159.668	86.9251	159.668	86.7343	159.668	86.7155	159.668	86.5035	159.668	86.4792	159.668	86.2677	159.668	86.2378	159.668	86.0494	159.668	86.0145	159.668	85.8697	159.668	85.8306	159.668	85.7447	159.668	85.7029	159.668	85.6836	159.668	85.6409	159.668	85.6863	159.668	85.6447	159.668	85.744	159.668	85.7054	159.668	85.841	159.668	85.8071	159.668	85.9576	159.668	85.9297	159.668	86.0734	159.668	86.0522	159.668	86.1698	159.668	86.1556	159.668	86.2324	159.668	86.2253	159.668	86.252
165.527	87.2608	165.527	87.23	165.527	87.2173	165.527	87.128	165.527	87.1027	165.527	86.9638	165.527	86.9262	165.527	86.752	165.527	86.7029	165.527	86.5119	165.527	86.4528	165.527	86.2664	165.527	86.1994	165.527	86.0393	165.527	85.9676	165.527	85.8531	165.527	85.7804	165.527	85.7255	165.527	85.6558	165.527	85.6664	165.527	85.603	165.527	85.6759	165.527	85.6214	165.527	85.7447	165.527	85.7003	165.527	85.8556	165.527	85.8215	165.527	85.9872	165.527	85.9626	165.527	86.1172	165.527	86.1007	165.527	86.2256	165.527	86.2156	165.527	86.2965	165.527	86.2919	165.527	86.3198
171.387	87.1266	171.387	87.0919	171.387	87.0822	171.387	86.9814	171.387	86.962	171.387	86.8049	171.387	86.7758	171.387	86.5779	171.387	86.5396	171.387	86.321	171.387	86.2748	171.387	86.0587	171.387	86.0067	171.387	85.8167	171.387	85.762	171.387	85.6192	171.387	85.5656	171.387	85.4854	171.387	85.4369	171.387	85.4263	171.387	85.386	171.387	85.4419	171.387	85.4119	171.387	85.522	171.387	85.5028	171.387	85.6479	171.387	85.6382	171.387	85.7962	171.387	85.7937	171.387	85.9424	171.387	85.9441	171.387	86.0648	171.387	86.0678	171.387	86.146	171.387	86.1482	171.387	86.1753
177.246	87.0108	177.246	86.9784	177.246	86.959	177.246	86.8651	177.246	86.8266	177.246	86.6813	177.246	86.6241	177.246	86.4434	177.246	86.3686	177.246	86.1734	177.246	86.083	177.246	85.8976	177.246	85.7943	177.246	85.6436	177.246	85.5313	177.246	85.4376	177.246	85.3209	177.246	85.3003	177.246	85.184	177.246	85.2427	177.246	85.1317	177.246	85.2646	177.246	85.1631	177.246	85.3541	177.246	85.2654	177.246	85.4905	177.246	85.4166	177.246	85.6484	177.246	85.5902	177.246	85.8018	177.246	85.7591	177.246	85.9275	177.246	85.8997	177.246	86.0078	177.246	85.9942	177.246	86.0314
183.105	86.893	183.105	86.8579	183.105	86.8389	183.105	86.7368	183.105	86.6995	183.105	86.5406	183.105	86.4861	183.105	86.2866	183.105	86.2171	183.105	85.9988	183.105	85.9169	183.105	85.7054	183.105	85.6145	183.105	85.437	183.105	85.341	183.105	85.2226	183.105	85.1253	183.105	85.0852	183.105	84.9902	183.105	85.037	183.105	84.9473	183.105	85.0772	183.105	84.9951	183.105	85.1916	183.105	85.1188	183.105	85.356	183.105	85.294	183.105	85.5415	183.105	85.4912	183.105	85.7191	183.105	85.681	183.105	85.8634	183.105	85.8379	183.105	85.9553	183.105	85.9426	183.105	85.983
188.965	86.8801	188.965	86.8441	188.965	86.8199	188.965	86.7154	188.965	86.6676	188.965	86.5046	188.965	86.4344	188.965	86.2294	188.965	86.139	188.965	85.914	188.965	85.8069	188.965	85.5876	188.965	85.4686	188.965	85.2828	188.965	85.1578	188.965	85.0316	188.965	84.9067	188.965	84.8608	188.965	84.7417	188.965	84.7867	188.965	84.6777	188.965	84.8111	188.965	84.715	188.965	84.9208	188.965	84.8388	188.965	85.0902	188.965	85.0228	188.965	85.2872	188.965	85.2342	188.965	85.479	188.965	85.44	188.965	85.6366	188.965	85.611	188.965	85.7378	188.965	85.7251	188.965	85.7689
196.289	86.8905	196.289	86.8487	196.289	86.8307	196.289	86.7091	196.289	86.6732	196.289	86.4831	196.289	86.4297	196.289	86.1895	196.289	86.119	196.289	85.854	196.289	85.7672	196.289	85.5077	196.289	85.406	196.289	85.1844	196.289	85.0706	196.289	84.9172	196.289	84.7954	196.289	84.7331	196.289	84.6091	196.289	84.6485	196.289	84.5287	196.289	84.6654	196.289	84.5556	196.289	84.7708	196.289	84.675	196.289	84.9392	196.289	84.8594	196.289	85.138	196.289	85.0746	196.289	85.3331	196.289	85.2858	196.289	85.494	196.289	85.4625	196.289	85.5971	196.289	85.5814	196.289	85.6279
203.613	86.6893	203.613	86.6413	203.613	86.6277	203.613	86.4876	203.613	86.4613	203.613	86.241	203.613	86.2036	203.613	85.9227	203.613	85.8764	203.613	85.5617	203.613	85.5091	203.613	85.1932	203.613	85.1368	203.613	84.8553	203.613	84.7978	203.613	84.5844	203.613	84.5282	203.613	84.4093	203.613	84.3571	203.613	84.3456	203.613	84.2998	203.613	84.3925	203.613	84.3553	203.613	84.5325	203.613	84.5057	203.613	84.7365	203.613	84.72	203.613	84.9688	203.613	84.9613	203.613	85.1937	203.613	85.1923	203.613	85.3794	203.613	85.381	203.613	85.5017	203.613	85.5033	203.613	85.545
210.938	86.6018	210.938	86.5483	210.938	86.5372	210.938	86.3817	210.938	86.3588	210.938	86.1154	210.938	86.0799	210.938	85.7715	210.938	85.7228	210.938	85.3798	210.938	85.3183	210.938	84.9763	210.938	84.904	210.938	84.6009	210.938	84.5216	210.938	84.2933	210.938	84.2121	210.938	84.0867	210.938	84.0091	210.938	84.0014	210.938	83.9323	210.938	84.0396	210.938	83.9822	210.938	84.1843	210.938	84.1395	210.938	84.403	210.938	84.3703	210.938	84.6553	210.938	84.633	210.938	84.9003	210.938	84.8862	210.938	85.1022	210.938	85.0942	210.938	85.234	210.938	85.2304	210.938	85.2787
218.262	86.3963	218.262	86.3391	218.262	86.331	218.262	86.1648	218.262	86.1476	218.262	85.8882	218.262	85.86	218.262	85.5329	218.262	85.4922	218.262	85.1311	218.262	85.0772	218.262	84.7212	218.262	84.6558	218.262	84.3458	218.262	84.2731	218.262	84.0464	218.262	83.9727	218.262	83.857	218.262	83.7895	218.262	83.7973	218.262	83.7417	218.262	83.8673	218.262	83.8263	218.262	84.047	218.262	84.0199	218.262	84.3009	218.262	84.2849	218.262	84.5859	218.262	84.5773	218.262	84.8587	218.262	84.8543	218.262	85.0817	218.262	85.0796	218.262	85.2269	218.262	85.2261	218.262	85.277
225.586	86.3661	225.586	86.3123	225.586	86.2856	225.586	86.1297	225.586	86.0752	225.586	85.8334	225.586	85.7494	225.586	85.4483	225.586	85.3334	225.586	85.0084	225.586	84.8625	225.586	84.5558	225.586	84.3815	225.586	84.1376	225.586	83.9416	225.586	83.8012	225.586	83.5945	225.586	83.5859	225.586	83.3828	225.586	83.5147	225.586	83.3298	225.586	83.5879	225.586	83.4321	225.586	83.7827	225.586	83.661	225.586	84.0588	225.586	83.9702	225.586	84.3681	225.586	84.3076	225.586	84.6631	225.586	84.6244	225.586	84.9031	225.586	84.8806	225.586	85.0578	225.586	85.0475	225.586	85.1082
232.91	86.2706	232.91	86.2082	232.91	86.1897	232.91	86.0079	232.91	85.9696	232.91	85.6851	232.91	85.6246	232.91	85.2648	232.91	85.1792	232.91	84.7822	232.91	84.6683	232.91	84.2812	232.91	84.1374	232.91	83.8122	232.91	83.6399	232.91	83.4267	232.91	83.2323	232.91	83.169	232.91	82.9648	232.91	83.0663	232.91	82.869	232.91	83.1214	232.91	82.9472	232.91	83.3107	232.91	83.1714	232.91	83.5916	232.91	83.4907	232.91	83.9121	232.91	83.8461	232.91	84.221	232.91	84.1821	232.91	84.4743	232.91	84.4541	232.91	84.6389	232.91	84.6306	232.91	84.6937
241.699	86.0643	241.699	85.9962	241.699	85.9822	241.699	85.7833	241.699	85.7548	241.699	85.4413	241.699	85.3973	241.699	84.9964	241.699	84.9355	241.699	84.4851	241.699	84.4057	241.699	83.9533	241.699	83.854	241.699	83.4537	241.699	83.3342	241.699	83.0413	241.699	82.903	241.699	82.7643	241.699	82.6116	241.699	82.654	241.699	82.4946	241.699	82.7146	241.699	82.5585	241.699	82.9209	241.699	82.7783	241.699	83.2252	241.699	83.1038	241.699	83.5699	241.699	83.4735	241.699	83.8986	241.699	83.8279	241.699	84.1645	241.699	84.1185	241.699	84.3334	241.699	84.3108	241.699	84.3845
250.488	86.0568	250.488	85.9759	250.488	85.9725	250.488	85.7358	250.488	85.7276	250.488	85.3532	250.488	85.3381	250.488	84.8554	250.488	84.8315	250.488	84.2807	250.488	84.2475	250.488	83.6776	250.488	83.6376	250.488	83.1037	250.488	83.0624	250.488	82.6204	250.488	82.5855	250.488	82.2851	250.488	82.2642	250.488	82.1373	250.488	82.1352	250.488	82.1865	250.488	82.2033	250.488	82.4068	250.488	82.4381	250.488	82.7444	250.488	82.7831	250.488	83.1325	250.488	83.1713	250.488	83.5066	250.488	83.5396	250.488	83.8133	250.488	83.8368	250.488	84.0148	250.488	84.0269	250.488	84.0885
259.277	86.0568	259.277	85.9791	259.277	85.9667	259.277	85.7394	259.277	85.7137	259.277	85.3538	259.277	85.3138	259.277	84.8492	259.277	84.7943	259.277	84.2633	259.277	84.1948	259.277	83.6447	259.277	83.5658	259.277	83.0515	259.277	82.9675	259.277	82.5474	259.277	82.4652	259.277	82.1926	259.277	82.12	259.277	82.0313	259.277	81.9755	259.277	82.0764	259.277	82.0424	259.277	82.3037	259.277	82.2921	259.277	82.6573	259.277	82.6644	259.277	83.0665	259.277	83.0851	259.277	83.4619	259.277	83.4842	259.277	83.7866	259.277	83.8057	259.277	83.9999	259.277	84.0107	259.277	84.0775
268.066	85.9082	268.066	85.821	268.066	85.8109	268.066	85.5552	268.066	85.5354	268.066	85.1298	268.066	85.1003	268.066	84.5771	268.066	84.5352	268.066	83.9419	268.066	83.8814	268.066	83.2794	268.066	83.1908	268.066	82.651	268.066	82.5259	268.066	82.1185	268.066	81.9568	268.066	81.7367	268.066	81.5545	268.066	81.5458	268.066	81.3757	268.066	81.5633	268.066	81.4426	268.066	81.7767	268.066	81.7294	268.066	82.1414	268.066	82.1672	268.066	82.5887	268.066	82.6663	268.066	83.0413	268.066	83.1386	268.066	83.4284	268.066	83.5139	268.066	83.6953	268.066	83.7446	268.066	83.8062
276.855	85.9083	276.855	85.8225	276.855	85.8219	276.855	85.5664	276.855	85.5701	276.855	85.15	276.855	85.1686	276.855	84.5938	276.855	84.6429	276.855	83.932	276.855	84.0279	276.855	83.218	276.855	83.3687	276.855	82.5267	276.855	82.7207	276.855	81.948	276.855	82.1468	276.855	81.5662	276.855	81.7117	276.855	81.4303	276.855	81.4685	276.855	81.5343	276.855	81.4436	276.855	81.8239	276.855	81.6255	276.855	82.2224	276.855	81.9662	276.855	82.6544	276.855	82.3948	276.855	83.0554	276.855	82.8345	276.855	83.3724	276.855	83.2156	276.855	83.5644	276.855	83.4838	276.855	83.6044
287.109	85.9558	287.109	85.8536	287.109	85.8478	287.109	85.5504	287.109	85.5347	287.109	85.0698	287.109	85.0369	287.109	84.4494	287.109	84.3906	287.109	83.7399	287.109	83.65	287.109	83.0028	287.109	82.8863	287.109	82.3089	287.109	82.1833	287.109	81.7343	287.109	81.6273	287.109	81.3527	287.109	81.2891	287.109	81.2188	287.109	81.2053	287.109	81.3452	287.109	81.3665	287.109	81.6905	287.109	81.7222	287.109	82.1723	287.109	82.1966	287.109	82.696	287.109	82.7079	287.109	83.1791	287.109	83.1818	287.109	83.5612	287.109	83.5601	287.109	83.8038	287.109	83.8025	287.109	83.8863
297.363	86.1078	297.363	86.024	297.363	85.9861	297.363	85.7407	297.363	85.6635	297.363	85.2747	297.363	85.1553	297.363	84.6547	297.363	84.4885	297.363	83.9225	297.363	83.704	297.363	83.1336	297.363	82.8589	297.363	82.3566	297.363	82.03	297.363	81.6716	297.363	81.3138	297.363	81.1649	297.363	80.8161	297.363	80.9164	297.363	80.6227	297.363	80.9715	297.363	80.7594	297.363	81.3112	297.363	81.1739	297.363	81.8494	297.363	81.7599	297.363	82.4661	297.363	82.4007	297.363	83.049	297.363	82.9972	297.363	83.514	297.363	83.4759	297.363	83.8074	297.363	83.7869	297.363	83.901
307.617	86.0873	307.617	85.9787	307.617	85.9637	307.617	85.6426	307.617	85.6171	307.617	85.0986	307.617	85.0706	307.617	84.3818	307.617	84.3609	307.617	83.5436	307.617	83.5374	307.617	82.6519	307.617	82.6617	307.617	81.7889	307.617	81.807	307.617	81.0451	307.617	81.0576	307.617	80.5071	307.617	80.505	307.617	80.2403	307.617	80.2319	307.617	80.2714	307.617	80.2808	307.617	80.5766	307.617	80.6242	307.617	81.0839	307.617	81.1681	307.617	81.6905	307.617	81.7905	307.617	82.2881	307.617	82.3795	307.617	82.7842	307.617	82.8506	307.617	83.1135	307.617	83.1476	307.617	83.2387
319.336	85.6714	319.336	85.5704	319.336	85.5381	319.336	85.2425	319.336	85.1752	319.336	84.7062	319.336	84.6014	319.336	83.992	319.336	83.8511	319.336	83.1435	319.336	82.9761	319.336	82.2216	319.336	82.0463	319.336	81.3083	319.336	81.1478	319.336	80.5082	319.336	80.3784	319.336	79.9371	319.336	79.8392	319.336	79.69	319.336	79.6145	319.336	79.7974	319.336	79.7395	319.336	80.2052	319.336	80.1717	319.336	80.8011	319.336	80.7998	319.336	81.4602	319.336	81.4882	319.336	82.076	319.336	82.1194	319.336	82.5705	319.336	82.6116	319.336	82.8923	319.336	82.9167	319.336	83.0117
329.59	85.6256	329.59	85.52	329.59	85.4922	329.59	85.1834	329.59	85.1245	329.59	84.6351	329.59	84.5397	329.59	83.9062	329.59	83.7699	329.59	83.0407	329.59	82.8636	329.59	82.0959	329.59	81.8869	329.59	81.1459	329.59	80.9234	329.59	80.2844	329.59	80.0719	329.59	79.6258	329.59	79.4407	329.59	79.288	329.59	79.1315	329.59	79.344	329.59	79.2042	329.59	79.7699	329.59	79.6371	329.59	80.4455	329.59	80.3208	329.59	81.213	329.59	81.1038	329.59	81.933	329.59	81.8459	329.59	82.5047	329.59	82.4441	329.59	82.8641	329.59	82.833	329.59	82.977
341.309	85.5706	341.309	85.4701	341.309	85.3923	341.309	85.0998	341.309	84.9434	341.309	84.4854	341.309	84.2509	341.309	83.6685	341.309	83.3612	341.309	82.7067	341.309	82.3399	341.309	81.6738	341.309	81.2714	341.309	80.6591	341.309	80.2563	341.309	79.7646	341.309	79.4062	341.309	79.0966	341.309	78.8301	341.309	78.7496	341.309	78.609	341.309	78.7793	341.309	78.7639	341.309	79.1705	341.309	79.2412	341.309	79.8273	341.309	79.9301	341.309	80.6042	341.309	80.6982	341.309	81.3548	341.309	81.4226	341.309	81.9649	341.309	82.0055	341.309	82.3603	341.309	82.3787	341.309	82.5018
353.027	85.5667	353.027	85.4424	353.027	85.4295	353.027	85.0607	353.027	85.0369	353.027	84.4383	353.027	84.4041	353.027	83.6082	353.027	83.5579	353.027	82.6226	353.027	82.5404	353.027	81.5535	353.027	81.414	353.027	80.4907	353.027	80.2641	353.027	79.5377	353.027	79.2014	353.027	78.8061	353.027	78.3626	353.027	78.4047	353.027	77.9016	353.027	78.4095	353.027	77.9392	353.027	78.8179	353.027	78.4729	353.027	79.5285	353.027	79.3465	353.027	80.3804	353.027	80.3361	353.027	81.2132	353.027	81.25	353.027	81.9013	353.027	81.9615	353.027	82.3585	353.027	82.3996	353.027	82.5327
366.211	86.2756	366.211	86.112	366.211	86.1492	366.211	85.6678	366.211	85.738	366.211	84.9651	366.211	85.0614	366.211	84.0395	366.211	84.1529	366.211	82.9417	366.211	83.0606	366.211	81.7427	366.211	81.8492	366.211	80.5406	366.211	80.6068	366.211	79.4652	366.211	79.4522	366.211	78.6704	366.211	78.5361	366.211	78.2967	366.211	78.0169	366.211	78.4037	366.211	77.9948	366.211	78.9252	366.211	78.4418	366.211	79.7027	366.211	79.2091	366.211	80.5585	366.211	80.1074	366.211	81.3439	366.211	80.9733	366.211	81.9514	366.211	81.6889	366.211	82.3122	366.211	82.1762	366.211	82.3899
379.395	86.7738	379.395	86.6432	379.395	86.6267	379.395	86.2443	379.395	86.2052	379.395	85.5981	379.395	85.5285	379.395	84.736	379.395	84.6345	379.395	83.7023	379.395	83.5809	379.395	82.5562	379.395	82.442	379.395	81.3748	379.395	81.303	379.395	80.2562	379.395	80.257	379.395	79.3219	379.395	79.4102	379.395	78.7134	379.395	78.8908	379.395	78.5616	379.395	78.8217	379.395	78.9133	379.395	79.2347	379.395	79.6689	379.395	80.0086	379.395	80.6212	379.395	80.9308	379.395	81.5582	379.395	81.8038	379.395	82.3255	379.395	82.4916	379.395	82.8317	379.395	82.9146	379.395	83.0323
392.578	86.2267	392.578	86.0856	392.578	86.0675	392.578	85.65	392.578	85.6133	392.578	84.9384	392.578	84.8823	392.578	83.9859	392.578	83.9089	392.578	82.8484	392.578	82.7484	392.578	81.6078	392.578	81.4812	392.578	80.3712	392.578	80.2117	392.578	79.2653	392.578	79.0628	392.578	78.423	392.578	78.1664	392.578	77.9651	392.578	77.6531	392.578	77.965	392.578	77.6279	392.578	78.4069	392.578	78.1058	392.578	79.1738	392.578	78.9622	392.578	80.0923	392.578	79.9807	392.578	80.9901	392.578	80.9527	392.578	81.7295	392.578	81.7293	392.578	82.2141	392.578	82.2217	392.578	82.3861
405.762	86.0441	405.762	85.8807	405.762	85.8761	405.762	85.3936	405.762	85.385	405.762	84.6076	405.762	84.5955	405.762	83.5669	405.762	83.5516	405.762	82.3387	405.762	82.3204	405.762	81.0148	405.762	80.9945	405.762	79.7127	405.762	79.6906	405.762	78.5718	405.762	78.5414	405.762	77.7405	405.762	77.6843	405.762	77.3477	405.762	77.2452	405.762	77.4559	405.762	77.3034	405.762	78.0216	405.762	77.836	405.762	78.8989	405.762	78.7008	405.762	79.8932	405.762	79.6977	405.762	80.8229	405.762	80.6458	405.762	81.5533	405.762	81.4156	405.762	82.0013	405.762	81.9254	405.762	82.1275
420.41	86.5421	420.41	86.3916	420.41	86.3385	420.41	85.8912	420.41	85.7957	420.41	85.0647	420.41	84.947	420.41	83.9547	420.41	83.8423	420.41	82.6215	420.41	82.5471	420.41	81.1439	420.41	81.1427	420.41	79.6245	420.41	79.7271	420.41	78.2045	420.41	78.4195	420.41	77.0804	420.41	77.368	420.41	76.4813	420.41	76.7475	420.41	76.5473	420.41	76.7074	420.41	77.2041	420.41	77.2599	420.41	78.2181	420.41	78.2328	420.41	79.3465	420.41	79.3684	420.41	80.4027	420.41	80.4403	420.41	81.2533	420.41	81.2926	420.41	81.8063	420.41	81.8307	420.41	82.006
435.059	86.0346	435.059	85.8868	435.059	85.8287	435.059	85.3928	435.059	85.2789	435.059	84.5757	435.059	84.415	435.059	83.4728	435.059	83.2861	435.059	82.1368	435.059	81.9582	435.059	80.6398	435.059	80.5081	435.059	79.08	435.059	79.0212	435.059	77.5911	435.059	77.6021	435.059	76.3541	435.059	76.4026	435.059	75.6027	435.059	75.6555	435.059	75.5693	435.059	75.6383	435.059	76.3125	435.059	76.4558	435.059	77.6043	435.059	77.8556	435.059	79.086	435.059	79.4157	435.059	80.468	435.059	80.8083	435.059	81.575	435.059	81.852	435.059	82.309	435.059	82.4637	435.059	82.6147
451.172	86.6304	451.172	86.4553	451.172	86.4294	451.172	85.9132	451.172	85.854	451.172	85.0224	451.172	84.9195	451.172	83.813	451.172	83.6608	451.172	82.3325	451.172	82.1418	451.172	80.6553	451.172	80.4666	451.172	78.8934	451.172	78.7876	451.172	77.2053	451.172	77.2923	451.172	75.7999	451.172	76.1601	451.172	74.9282	451.172	75.518	451.172	74.8155	451.172	75.4322	451.172	75.4906	451.172	75.907	451.172	76.6965	451.172	76.8407	451.172	78.0617	451.172	78.0135	451.172	79.2979	451.172	79.1727	451.172	80.2406	451.172	80.1221	451.172	80.8119	451.172	80.7441	451.172	80.981
465.82	86.2157	465.82	86.024	465.82	86.0244	465.82	85.4612	465.82	85.4499	465.82	84.551	465.82	84.5051	465.82	83.3297	465.82	83.2193	465.82	81.8481	465.82	81.6474	465.82	80.1802	465.82	79.8846	465.82	78.4374	465.82	78.0819	465.82	76.785	465.82	76.4481	465.82	75.4494	465.82	75.2158	465.82	74.6991	465.82	74.5852	465.82	74.7301	465.82	74.6661	465.82	75.4834	465.82	75.4027	465.82	76.6711	465.82	76.562	465.82	77.9878	465.82	77.8607	465.82	79.2095	465.82	79.0777	465.82	80.1781	465.82	80.0642	465.82	80.7845	465.82	80.7174	465.82	80.9682
483.398	85.7904	483.398	85.5864	483.398	85.567	483.398	84.9711	483.398	84.9192	483.398	83.9794	483.398	83.8734	483.398	82.6659	483.398	82.4874	483.398	81.1078	483.398	80.8579	483.398	79.4058	483.398	79.1239	483.398	77.6861	483.398	77.4567	483.398	76.1056	483.398	76.0328	483.398	74.8553	483.398	75.0042	483.398	74.1458	483.398	74.4845	483.398	74.1497	483.398	74.5536	483.398	74.8858	483.398	75.2263	483.398	76.1423	483.398	76.372	483.398	77.5796	483.398	77.7194	483.398	78.9039	483.398	78.987	483.398	79.9341	483.398	79.9818	483.398	80.5804	483.398	80.6026	483.398	80.8062
499.512	86.2218	499.512	86.04	499.512	85.8874	499.512	85.3457	499.512	85.0493	499.512	84.1606	499.512	83.7364	499.512	82.5272	499.512	81.9938	499.512	80.5216	499.512	79.8904	499.512	78.2809	499.512	77.5514	499.512	76.0524	499.512	75.2375	499.512	74.2515	499.512	73.4533	499.512	73.4095	499.512	72.8408	499.512	73.8065	499.512	73.5832	499.512	75.1499	499.512	75.1767	499.512	76.897	499.512	77.0347	499.512	78.6534	499.512	78.8228	499.512	80.2177	499.512	80.3875	499.512	81.5001	499.512	81.6529	499.512	82.4568	499.512	82.5741	499.512	83.0591	499.512	83.123	499.512	83.2851
517.09	87.0818	517.09	86.8781	517.09	86.8166	517.09	86.2033	517.09	86.0856	517.09	85.0574	517.09	84.8935	517.09	83.4464	517.09	83.2503	517.09	81.3861	517.09	81.1746	517.09	78.9014	517.09	78.7003	517.09	76.0269	517.09	75.8851	517.09	72.8123	517.09	72.8221	517.09	69.4394	517.09	69.7378	517.09	67.2503	517.09	67.8449	517.09	69.137	517.09	69.5372	517.09	73.0355	517.09	73.1457	517.09	76.5323	517.09	76.4671	517.09	79.2702	517.09	79.11	517.09	81.2893	517.09	81.1029	517.09	82.6588	517.09	82.5025	517.09	83.4356	517.09	83.348	517.09	83.6588
536.133	86.3643	536.133	86.0621	536.133	86.1534	536.133	85.2729	536.133	85.4172	536.133	84.0319	536.133	84.162	536.133	82.3791	536.133	82.4201	536.133	80.3567	536.133	80.2584	536.133	78.0164	536.133	77.7877	536.133	75.442	536.133	75.1605	536.133	72.7761	536.133	72.5366	536.133	70.2176	536.133	70.0378	536.133	68.1434	536.133	68.0342	536.133	67.7875	536.133	68.1071	536.133	70.1567	536.133	70.908	536.133	73.5859	536.133	74.3025	536.133	76.7026	536.133	77.205	536.133	79.1662	536.133	79.4588	536.133	80.9256	536.133	81.0688	536.133	81.9817	536.133	82.036	536.133	82.3465
555.176	86.5528	555.176	86.3378	555.176	86.2463	555.176	85.5924	555.176	85.4283	555.176	84.3111	555.176	84.1051	555.176	82.4921	555.176	82.2745	555.176	80.1448	555.176	79.9349	555.176	77.3135	555.176	77.1237	555.176	74.1228	555.176	73.9993	555.176	70.8021	555.176	70.8987	555.176	67.5627	555.176	68.121	555.176	64.6051	555.176	65.6803	555.176	64.1755	555.176	64.9854	555.176	68.2118	555.176	68.4688	555.176	72.7388	555.176	72.9032	555.176	76.3624	555.176	76.4787	555.176	79.0669	555.176	79.1292	555.176	80.9377	555.176	80.9617	555.176	82.0364	555.176	82.0425	555.176	82.3995
574.219	86.332	574.219	86.0968	574.219	86.0112	574.219	85.2881	574.219	85.1486	574.219	83.8969	574.219	83.7517	574.219	81.9373	574.219	81.8311	574.219	79.4583	574.219	79.4222	574.219	76.5516	574.219	76.6184	574.219	73.3578	574.219	73.6012	574.219	70.0548	574.219	70.6135	574.219	66.7407	574.219	67.7829	574.219	63.1929	574.219	64.8673	574.219	60.4401	574.219	62.2202	574.219	64.795	574.219	65.1929	574.219	70.6609	574.219	70.9148	574.219	75.0377	574.219	75.2841	574.219	78.1405	574.219	78.3161	574.219	80.2004	574.219	80.2901	574.219	81.3695	574.219	81.3999	574.219	81.7523
594.727	86.0238	594.727	85.6621	594.727	85.7931	594.727	84.741	594.727	84.9436	594.727	83.2928	594.727	83.4731	594.727	81.3502	594.727	81.422	594.727	78.9447	594.727	78.8771	594.727	76.0891	594.727	75.9509	594.727	72.7761	594.727	72.7825	594.727	69.0865	594.727	69.6361	594.727	65.3277	594.727	66.8414	594.727	61.3452	594.727	63.9293	594.727	54.9409	594.727	59.2687	594.727	58.4966	594.727	60.7027	594.727	67.1363	594.727	68.2257	594.727	72.657	594.727	73.2985	594.727	76.5105	594.727	76.8388	594.727	79.1338	594.727	79.2765	594.727	80.6765	594.727	80.7257	594.727	81.1976
615.234	86.7414	615.234	86.3977	615.234	86.4312	615.234	85.396	615.234	85.4891	615.234	83.7467	615.234	83.9451	615.234	81.4654	615.234	81.8176	615.234	78.5622	615.234	79.1033	615.234	75.0457	615.234	75.8199	615.234	70.9885	615.234	72.156	615.234	66.8278	615.234	68.7468	615.234	63.5882	615.234	66.3842	615.234	61.0958	615.234	64.5065	615.234	57.9464	615.234	61.8839	615.234	60.3427	615.234	62.7073	615.234	67.1179	615.234	68.8165	615.234	72.2688	615.234	73.6421	615.234	75.97	615.234	76.9193	615.234	78.4834	615.234	79.032	615.234	79.9593	615.234	80.1986	615.234	80.5086
637.207	86.49	637.207	86.1591	637.207	86.1729	637.207	85.1833	637.207	85.2093	637.207	83.5683	637.207	83.5953	637.207	81.3048	637.207	81.3158	637.207	78.3453	637.207	78.3486	637.207	74.6164	637.207	74.7058	637.207	70.2246	637.207	70.5982	637.207	66.4591	637.207	66.8729	637.207	65.2968	637.207	64.7537	637.207	64.4724	637.207	63.4114	637.207	60.7474	637.207	60.1295	637.207	40.4746	637.207	53.1953	637.207	63.5771	637.207	65.1521	637.207	70.6921	637.207	72.0207	637.207	75.0763	637.207	76.2331	637.207	78.0269	637.207	78.8671	637.207	79.8303	637.207	80.267	637.207	80.5718
659.18	85.3927	659.18	85.0662	659.18	85.0237	659.18	84.0443	659.18	83.9646	659.18	82.297	659.18	82.2229	659.18	79.7146	659.18	79.7816	659.18	76.1145	659.18	76.567	659.18	71.3702	659.18	72.4264	659.18	65.8602	659.18	67.3753	659.18	62.2601	659.18	63.6599	659.18	63.2463	659.18	63.8123	659.18	64.5338	659.18	63.5361	659.18	63.0849	659.18	59.5895	659.18	52.7413	659.18	48.5485	659.18	62.0522	659.18	66.156	659.18	70.9493	659.18	72.626	659.18	75.7906	659.18	76.4911	659.18	78.8027	659.18	78.9559	659.18	80.4496	659.18	80.409	659.18	80.9337
682.617	86.1102	682.617	85.6702	682.617	85.7771	682.617	84.4393	682.617	84.6583	682.617	82.3969	682.617	82.7115	682.617	79.5323	682.617	79.9081	682.617	75.7891	682.617	76.2652	682.617	70.9364	682.617	71.7346	682.617	65.2015	682.617	66.0302	682.617	64.0696	682.617	61.6424	682.617	66.3347	682.617	63.5025	682.617	67.1229	682.617	64.5107	682.617	65.8169	682.617	62.889	682.617	60.7996	682.617	56.6758	682.617	62.3587	682.617	61.866	682.617	70.8174	682.617	70.8095	682.617	75.7187	682.617	75.9068	682.617	78.8137	682.617	79.0147	682.617	80.6152	682.617	80.7237	682.617	81.2432
707.52	86.3817	707.52	85.9309	707.52	85.9864	707.52	84.6607	707.52	84.7234	707.52	82.5607	707.52	82.6003	707.52	79.5219	707.52	79.6309	707.52	75.2283	707.52	75.7259	707.52	69.0564	707.52	70.4064	707.52	62.6285	707.52	61.5273	707.52	64.8659	707.52	54.8801	707.52	67.4849	707.52	64.4556	707.52	68.5718	707.52	67.7851	707.52	68.3752	707.52	68.6861	707.52	66.5003	707.52	67.1195	707.52	61.0302	707.52	61.441	707.52	64.6602	707.52	65.5473	707.52	72.4688	707.52	72.8925	707.52	76.4758	707.52	76.7763	707.52	78.4828	707.52	78.6851	707.52	79.1779
732.422	86.0266	732.422	85.7685	732.422	85.4127	732.422	84.6254	732.422	83.8936	732.422	82.5245	732.422	81.3465	732.422	79.3218	732.422	77.4055	732.422	74.7756	732.422	70.9923	732.422	68.3652	732.422	55.2382	732.422	61.5183	732.422	62.5458	732.422	65.4295	732.422	67.7073	732.422	68.6127	732.422	69.4377	732.422	69.2529	732.422	69.8053	732.422	67.9193	732.422	69.0913	732.422	64.461	732.422	66.9782	732.422	60.6684	732.422	64.2603	732.422	68.7247	732.422	68.6915	732.422	74.6395	732.422	74.3809	732.422	78.2127	732.422	78.0518	732.422	80.1994	732.422	80.1198	732.422	80.8195
757.324	86.2093	757.324	85.8557	757.324	85.6069	757.324	84.5854	757.324	83.9799	757.324	82.3894	757.324	81.2641	757.324	79.1455	757.324	77.3726	757.324	74.3518	757.324	71.8721	757.324	66.3863	757.324	62.6074	757.324	58.407	757.324	60.9376	757.324	65.4851	757.324	67.466	757.324	69.3692	757.324	70.0898	757.324	71.7652	757.324	71.4467	757.324	72.5998	757.324	72.2201	757.324	71.8798	757.324	71.8001	757.324	69.4546	757.324	69.0975	757.324	66.6893	757.324	65.1337	757.324	71.7552	757.324	70.344	757.324	76.3789	757.324	75.4604	757.324	78.6482	757.324	78.2362	757.324	79.2173
785.156	86.1996	785.156	85.8159	785.156	85.5451	785.156	84.3592	785.156	83.8399	785.156	81.7489	785.156	80.9731	785.156	77.8498	785.156	76.5536	785.156	72.3112	785.156	69.1701	785.156	62.8235	785.156	49.1885	785.156	57.5846	785.156	64.0765	785.156	66.7194	785.156	67.8588	785.156	69.1628	785.156	69.9847	785.156	69.9711	785.156	71.3947	785.156	70.7458	785.156	72.0553	785.156	71.013	785.156	71.9984	785.156	69.3223	785.156	70.337	785.156	61.6452	785.156	63.4644	785.156	62.8631	785.156	62.9395	785.156	72.1389	785.156	72.7028	785.156	75.5563	785.156	75.9932	785.156	76.6946
811.523	86.3558	811.523	85.8371	811.523	85.7954	811.523	84.2515	811.523	84.1084	811.523	81.6245	811.523	81.1433	811.523	77.7487	811.523	76.5678	811.523	71.3118	811.523	69.3958	811.523	51.6798	811.523	57.1747	811.523	64.1507	811.523	62.9443	811.523	67.7899	811.523	65.9415	811.523	69.6154	811.523	67.1048	811.523	71.0734	811.523	68.6065	811.523	71.4968	811.523	69.8087	811.523	70.8924	811.523	69.3695	811.523	68.4931	811.523	66.3313	811.523	59.3651	811.523	55.9661	811.523	66.0126	811.523	67.6568	811.523	73.7013	811.523	74.6501	811.523	77.0364	811.523	77.5945	811.523	78.2291
840.82	84.5256	840.82	83.9496	840.82	83.8752	840.82	82.0806	840.82	81.8626	840.82	78.4898	840.82	78.188	840.82	72.3522	840.82	71.8823	840.82	64.8484	840.82	58.2697	840.82	66.6284	840.82	65.7352	840.82	68.582	840.82	70.1711	840.82	68.6387	840.82	71.9266	840.82	67.8932	840.82	72.2094	840.82	67.7578	840.82	71.5845	840.82	68.1005	840.82	71.4101	840.82	68.4082	840.82	70.8278	840.82	67.1972	840.82	67.8773	840.82	57.6513	840.82	57.3354	840.82	67.4697	840.82	65.6352	840.82	75.2349	840.82	74.3649	840.82	78.3502	840.82	78.0119	840.82	79.1335
870.117	85.087	870.117	84.5238	870.117	84.2773	870.117	82.4092	870.117	82.0698	870.117	78.1808	870.117	78.0059	870.117	69.2863	870.117	70.236	870.117	61.6698	870.117	65.3065	870.117	71.3627	870.117	72.3157	870.117	73.7637	870.117	74.7348	870.117	74.3354	870.117	75.2915	870.117	73.9107	870.117	74.8036	870.117	73.1211	870.117	74.1188	870.117	71.9917	870.117	73.7917	870.117	70.2273	870.117	73.1119	870.117	67.3711	870.117	70.7102	870.117	65.2014	870.117	64.2126	870.117	71.8376	870.117	69.3337	870.117	76.9483	870.117	76.3633	870.117	79.8161	870.117	79.7357	870.117	80.771
900.879	86.7377	900.879	86.0192	900.879	86.0746	900.879	83.8253	900.879	83.9611	900.879	79.8521	900.879	80.1686	900.879	73.2364	900.879	73.9262	900.879	63.3963	900.879	60.1583	900.879	69.5693	900.879	66.0555	900.879	72.9219	900.879	70.2909	900.879	73.9196	900.879	70.9629	900.879	73.7109	900.879	72.1177	900.879	72.7351	900.879	73.0983	900.879	71.417	900.879	73.2673	900.879	70.2248	900.879	74.2207	900.879	69.3386	900.879	74.3706	900.879	66.2647	900.879	71.7046	900.879	63.8812	900.879	64.4646	900.879	71.6234	900.879	68.9179	900.879	75.2323	900.879	74.6048	900.879	76.2066
933.105	86.9974	933.105	86.5496	933.105	86.0841	933.105	84.6507	933.105	83.6513	933.105	80.9045	933.105	79.0685	933.105	74.1131	933.105	69.2785	933.105	58.8259	933.105	66.1215	933.105	70.3827	933.105	73.7154	933.105	73.7076	933.105	75.9678	933.105	73.9033	933.105	76.3651	933.105	72.9764	933.105	75.2327	933.105	71.7428	933.105	73.3153	933.105	70.8758	933.105	72.2483	933.105	71.6615	933.105	71.6474	933.105	71.7251	933.105	69.9147	933.105	68.1436	933.105	65.1772	933.105	63.6215	933.105	54.053	933.105	72.2296	933.105	71.9774	933.105	76.7047	933.105	77.0974	933.105	78.2963
965.332	86.8974	965.332	86.2393	965.332	86.0692	965.332	84.2266	965.332	83.479	965.332	80.2911	965.332	78.8912	965.332	71.6702	965.332	71.4897	965.332	64.166	965.332	65.3644	965.332	73.6629	965.332	72.5195	965.332	76.8082	965.332	74.557	965.332	78.008	965.332	74.5618	965.332	77.1122	965.332	74.6022	965.332	74.8562	965.332	73.4094	965.332	72.9256	965.332	71.8394	965.332	70.3994	965.332	73.3457	965.332	69.7673	965.332	73.8966	965.332	68.6282	965.332	71.6921	965.332	63.1662	965.332	63.8549	965.332	70.4539	965.332	68.4799	965.332	74.4439	965.332	74.0475	965.332	75.4798
1,000.49	86.0181	1,000.49	85.3321	1,000.49	85.0923	1,000.49	82.7402	1,000.49	82.547	1,000.49	77.591	1,000.49	77.4382	1,000.49	65.7925	1,000.49	63.4339	1,000.49	68.1016	1,000.49	68.7172	1,000.49	74.5861	1,000.49	73.8533	1,000.49	75.8526	1,000.49	75.7754	1,000.49	75.7154	1,000.49	75.9576	1,000.49	75.4622	1,000.49	74.9673	1,000.49	73.968	1,000.49	74.411	1,000.49	71.7313	1,000.49	73.0389	1,000.49	71.8158	1,000.49	71.7747	1,000.49	71.3467	1,000.49	71.8087	1,000.49	68.6945	1,000.49	68.9353	1,000.49	59.1463	1,000.49	56.8596	1,000.49	67.0482	1,000.49	67.2005	1,000.49	74.1372	1,000.49	74.0576	1,000.49	75.8059
1,035.64	86.9572	1,035.64	86.3222	1,035.64	85.9419	1,035.64	84.0445	1,035.64	82.9131	1,035.64	79.3087	1,035.64	77.11	1,035.64	68.827	1,035.64	64.1428	1,035.64	68.7542	1,035.64	70.6456	1,035.64	74.5244	1,035.64	75.464	1,035.64	76.901	1,035.64	76.6547	1,035.64	77.9296	1,035.64	76.4398	1,035.64	77.4926	1,035.64	75.6998	1,035.64	75.5119	1,035.64	73.9666	1,035.64	72.2578	1,035.64	70.8782	1,035.64	68.3083	1,035.64	70.7105	1,035.64	66.8776	1,035.64	72.0748	1,035.64	64.9457	1,035.64	70.9231	1,035.64	31.4454	1,035.64	62.4204	1,035.64	69.4716	1,035.64	67.115	1,035.64	75.2138	1,035.64	74.0767	1,035.64	76.2885
1,072.27	86.9182	1,072.27	86.0436	1,072.27	85.8841	1,072.27	83.071	1,072.27	82.9542	1,072.27	77.4063	1,072.27	77.2992	1,072.27	62.7229	1,072.27	61.5835	1,072.27	70.2419	1,072.27	70.5232	1,072.27	74.8095	1,072.27	74.7433	1,072.27	75.7374	1,072.27	76.3736	1,072.27	75.9617	1,072.27	76.5706	1,072.27	75.3454	1,072.27	75.4229	1,072.27	74.0014	1,072.27	74.5807	1,072.27	72.2885	1,072.27	73.432	1,072.27	70.6773	1,072.27	71.117	1,072.27	70.2627	1,072.27	70.2748	1,072.27	69.0566	1,072.27	68.112	1,072.27	65.1675	1,072.27	61.8619	1,072.27	69.4286	1,072.27	66.3919	1,072.27	74.1176	1,072.27	74.2713	1,072.27	75.9459
1,108.89	86.5022	1,108.89	85.5594	1,108.89	85.4222	1,108.89	82.4504	1,108.89	81.919	1,108.89	75.7697	1,108.89	74.2988	1,108.89	61.57	1,108.89	61.6336	1,108.89	72.0526	1,108.89	74.0456	1,108.89	75.5374	1,108.89	76.8662	1,108.89	76.5255	1,108.89	77.7368	1,108.89	76.8225	1,108.89	77.4437	1,108.89	77.0615	1,108.89	76.3845	1,108.89	76.46	1,108.89	75.2608	1,108.89	74.7346	1,108.89	73.1596	1,108.89	71.9481	1,108.89	71.6154	1,108.89	70.1196	1,108.89	72.3058	1,108.89	69.1854	1,108.89	71.3416	1,108.89	63.9156	1,108.89	67.2301	1,108.89	60.5191	1,108.89	61.2192	1,108.89	72.5675	1,108.89	71.2737	1,108.89	74.7993
1,148.44	86.5751	1,148.44	85.6995	1,148.44	85.6322	1,148.44	82.6418	1,148.44	82.2382	1,148.44	75.6529	1,148.44	75.0791	1,148.44	45.5853	1,148.44	68.5286	1,148.44	71.5949	1,148.44	74.6806	1,148.44	74.3845	1,148.44	76.4862	1,148.44	75.2093	1,148.44	76.5514	1,148.44	75.8503	1,148.44	76.5497	1,148.44	75.6489	1,148.44	75.8416	1,148.44	74.5001	1,148.44	75.0835	1,148.44	72.4012	1,148.44	73.8711	1,148.44	67.9348	1,148.44	70.6583	1,148.44	66.8522	1,148.44	68.8987	1,148.44	67.2544	1,148.44	67.1124	1,148.44	59.3945	1,148.44	61.399	1,148.44	63.8632	1,148.44	66.6977	1,148.44	73.0952	1,148.44	74.1134	1,148.44	75.6837
1,189.45	86.5729	1,189.45	85.4043	1,189.45	85.38	1,189.45	81.8885	1,189.45	81.3423	1,189.45	75.5563	1,189.45	73.0221	1,189.45	71.8907	1,189.45	69.7549	1,189.45	75.3124	1,189.45	76.2148	1,189.45	76.1695	1,189.45	78.4033	1,189.45	76.3367	1,189.45	78.6605	1,189.45	76.7643	1,189.45	78.4192	1,189.45	76.2126	1,189.45	77.5513	1,189.45	75.3573	1,189.45	75.9509	1,189.45	75.229	1,189.45	73.1684	1,189.45	73.6609	1,189.45	68.89	1,189.45	69.6796	1,189.45	67.048	1,189.45	65.1623	1,189.45	66.1273	1,189.45	57.7493	1,189.45	68.1659	1,189.45	66.5221	1,189.45	68.613	1,189.45	74.6047	1,189.45	74.3706	1,189.45	76.5678
1,230.47	87.124	1,230.47	86.2285	1,230.47	85.8409	1,230.47	82.7847	1,230.47	82.0254	1,230.47	75.8128	1,230.47	74.4574	1,230.47	70.0685	1,230.47	71.6344	1,230.47	74.842	1,230.47	76.7598	1,230.47	76.389	1,230.47	78.3553	1,230.47	75.5807	1,230.47	78.0167	1,230.47	75.1894	1,230.47	77.2112	1,230.47	75.3248	1,230.47	76.4549	1,230.47	74.7534	1,230.47	75.5076	1,230.47	75.3969	1,230.47	74.5373	1,230.47	75.14	1,230.47	72.4577	1,230.47	72.6166	1,230.47	70.2812	1,230.47	70.7647	1,230.47	67.9171	1,230.47	65.8266	1,230.47	56.3994	1,230.47	58.6821	1,230.47	63.7645	1,230.47	72.0862	1,230.47	71.8579	1,230.47	74.5792
1,274.41	87.1688	1,274.41	86.3103	1,274.41	85.9409	1,274.41	83.0603	1,274.41	82.6326	1,274.41	77.2353	1,274.41	77.4	1,274.41	73.6998	1,274.41	75.0581	1,274.41	74.7714	1,274.41	76.5921	1,274.41	75.0608	1,274.41	77.3654	1,274.41	73.5415	1,274.41	76.2742	1,274.41	72.5301	1,274.41	74.2515	1,274.41	72.0307	1,274.41	73.2957	1,274.41	71.0549	1,274.41	72.609	1,274.41	71.5453	1,274.41	71.1183	1,274.41	70.5668	1,274.41	68.5715	1,274.41	68.6143	1,274.41	69.7905	1,274.41	65.9703	1,274.41	69.1255	1,274.41	61.1916	1,274.41	66.2534	1,274.41	64.6528	1,274.41	66.6923	1,274.41	73.3028	1,274.41	73.2799	1,274.41	75.8625
1,319.82	86.3223	1,319.82	85.3623	1,319.82	85.3208	1,319.82	82.1786	1,319.82	82.5326	1,319.82	77.3162	1,319.82	78.1717	1,319.82	74.3079	1,319.82	75.5189	1,319.82	75.013	1,319.82	75.7183	1,319.82	74.8898	1,319.82	75.1091	1,319.82	73.1372	1,319.82	73.5489	1,319.82	70.8073	1,319.82	71.8768	1,319.82	69.7376	1,319.82	69.1711	1,319.82	68.9977	1,319.82	67.9752	1,319.82	69.0403	1,319.82	65.5442	1,319.82	69.1719	1,319.82	63.8274	1,319.82	66.8192	1,319.82	65.2217	1,319.82	65.7722	1,319.82	65.2103	1,319.82	64.483	1,319.82	63.6791	1,319.82	63.1512	1,319.82	66.6015	1,319.82	70.0288	1,319.82	71.2972	1,319.82	72.3347
1,366.7	86.2306	1,366.7	85.2118	1,366.7	85.4787	1,366.7	82.4582	1,366.7	82.9891	1,366.7	78.8108	1,366.7	79.041	1,366.7	75.6046	1,366.7	75.9467	1,366.7	74.0345	1,366.7	74.4778	1,366.7	72.9073	1,366.7	72.7039	1,366.7	68.9884	1,366.7	71.1126	1,366.7	63.2743	1,366.7	70.2476	1,366.7	66.1511	1,366.7	69.5504	1,366.7	67.8123	1,366.7	68.4944	1,366.7	71.1333	1,366.7	67.5705	1,366.7	70.3266	1,366.7	65.9037	1,366.7	64.0457	1,366.7	67.887	1,366.7	63.6864	1,366.7	65.9603	1,366.7	64.2109	1,366.7	63.1237	1,366.7	68.1654	1,366.7	65.6471	1,366.7	71.5141	1,366.7	71.6963	1,366.7	73.3659
1,413.57	86.6961	1,413.57	85.9383	1,413.57	85.9002	1,413.57	83.4165	1,413.57	83.6511	1,413.57	79.9043	1,413.57	80.2937	1,413.57	77.3486	1,413.57	78.1077	1,413.57	76.1223	1,413.57	76.6159	1,413.57	74.8476	1,413.57	73.8373	1,413.57	71.4253	1,413.57	71.1024	1,413.57	64.8177	1,413.57	70.332	1,413.57	60.3514	1,413.57	68.1489	1,413.57	64.1247	1,413.57	62.977	1,413.57	68.1392	1,413.57	59.2759	1,413.57	66.6283	1,413.57	65.0306	1,413.57	61.9036	1,413.57	67.1633	1,413.57	58.6509	1,413.57	65.6666	1,413.57	62.1094	1,413.57	62.6116	1,413.57	66.4566	1,413.57	61.096	1,413.57	68.7953	1,413.57	67.1879	1,413.57	67.1349
1,463.38	86.4354	1,463.38	86.0513	1,463.38	85.8573	1,463.38	84.2577	1,463.38	83.8557	1,463.38	81.5014	1,463.38	80.8597	1,463.38	79.0208	1,463.38	78.7364	1,463.38	76.5686	1,463.38	76.9225	1,463.38	73.9955	1,463.38	74.6296	1,463.38	70.9558	1,463.38	71.2191	1,463.38	62.8979	1,463.38	69.7271	1,463.38	63.5155	1,463.38	69.9866	1,463.38	67.3117	1,463.38	69.4774	1,463.38	71.0906	1,463.38	70.5422	1,463.38	72.6217	1,463.38	70.5327	1,463.38	67.9253	1,463.38	71.0278	1,463.38	64.392	1,463.38	69.762	1,463.38	66.7639	1,463.38	69.5246	1,463.38	68.3035	1,463.38	70.5723	1,463.38	68.2525	1,463.38	70.6745	1,463.38	70.8471
1,516.11	86.8701	1,516.11	86.5479	1,516.11	85.8638	1,516.11	85.3512	1,516.11	84.3961	1,516.11	83.2383	1,516.11	82.4299	1,516.11	81.1195	1,516.11	80.5205	1,516.11	79.0933	1,516.11	78.4949	1,516.11	77.0036	1,516.11	76.0302	1,516.11	74.8994	1,516.11	71.5613	1,516.11	71.7785	1,516.11	67.8528	1,516.11	68.0146	1,516.11	69.4136	1,516.11	69.2626	1,516.11	70.2708	1,516.11	71.9478	1,516.11	72.9653	1,516.11	75.2004	1,516.11	74.2295	1,516.11	73.1333	1,516.11	74.3655	1,516.11	72.2845	1,516.11	73.7177	1,516.11	72.1618	1,516.11	71.938	1,516.11	74.1617	1,516.11	71.3331	1,516.11	71.3835	1,516.11	72.9134	1,516.11	70.9854
1,568.85	86.7447	1,568.85	86.0629	1,568.85	86.2386	1,568.85	84.7481	1,568.85	84.8719	1,568.85	82.6147	1,568.85	82.945	1,568.85	80.1886	1,568.85	80.4085	1,568.85	77.8244	1,568.85	78.0448	1,568.85	75.549	1,568.85	75.6423	1,568.85	73.7887	1,568.85	72.6319	1,568.85	70.153	1,568.85	70.0217	1,568.85	65.7057	1,568.85	69.8466	1,568.85	69.9711	1,568.85	68.2629	1,568.85	72.7546	1,568.85	69.6215	1,568.85	72.4392	1,568.85	71.8782	1,568.85	70.1842	1,568.85	72.5215	1,568.85	69.0328	1,568.85	72.7278	1,568.85	71.1111	1,568.85	73.1693	1,568.85	72.2915	1,568.85	73.0297	1,568.85	70.8525	1,568.85	71.6141	1,568.85	70.4856
1,624.51	86.7635	1,624.51	86.0128	1,624.51	86.0867	1,624.51	84.2253	1,624.51	84.3913	1,624.51	82.0142	1,624.51	82.6705	1,624.51	80.1331	1,624.51	80.4686	1,624.51	77.5927	1,624.51	78.2894	1,624.51	76.1624	1,624.51	77.5287	1,624.51	75.2253	1,624.51	74.7269	1,624.51	74.5087	1,624.51	71.6026	1,624.51	70.0146	1,624.51	71.6714	1,624.51	66.2881	1,624.51	69.2969	1,624.51	71.0616	1,624.51	67.7365	1,624.51	73.2623	1,624.51	69.7005	1,624.51	72.33	1,624.51	69.6773	1,624.51	70.9957	1,624.51	68.5531	1,624.51	65.7915	1,624.51	68.954	1,624.51	71.7892	1,624.51	72.1226	1,624.51	70.3667	1,624.51	70.9283	1,624.51	69.0555
1,681.64	86.8178	1,681.64	85.8839	1,681.64	86.1939	1,681.64	84.2155	1,681.64	84.3688	1,681.64	81.7808	1,681.64	82.4069	1,681.64	79.4682	1,681.64	80.4402	1,681.64	77.3943	1,681.64	78.183	1,681.64	76.5386	1,681.64	76.6898	1,681.64	76.1155	1,681.64	74.1041	1,681.64	75.3777	1,681.64	71.923	1,681.64	72.6818	1,681.64	71.1938	1,681.64	67.5011	1,681.64	66.2363	1,681.64	71.2654	1,681.64	68.2643	1,681.64	74.4549	1,681.64	71.4907	1,681.64	74.3943	1,681.64	71.0134	1,681.64	68.4654	1,681.64	68.6319	1,681.64	60.2579	1,681.64	67.869	1,681.64	62.7107	1,681.64	65.1247	1,681.64	64.9397	1,681.64	62.7258	1,681.64	67.86
1,741.7	87.5703	1,741.7	86.4352	1,741.7	86.7799	1,741.7	84.2031	1,741.7	84.9664	1,741.7	82.0699	1,741.7	82.6709	1,741.7	79.9397	1,741.7	79.9997	1,741.7	77.9974	1,741.7	78.8527	1,741.7	77.5274	1,741.7	77.3448	1,741.7	76.7393	1,741.7	76.861	1,741.7	76.1456	1,741.7	76.1496	1,741.7	75.6606	1,741.7	74.1464	1,741.7	72.2112	1,741.7	68.3277	1,741.7	68.0149	1,741.7	68.104	1,741.7	71.3378	1,741.7	71.5824	1,741.7	73.6977	1,741.7	74.3904	1,741.7	72.4932	1,741.7	71.324	1,741.7	68.7775	1,741.7	64.3634	1,741.7	68.7073	1,741.7	68.1861	1,741.7	68.957	1,741.7	64.0896	1,741.7	71.1336
1,803.22	87.8933	1,803.22	86.9354	1,803.22	87.052	1,803.22	84.7936	1,803.22	85.1916	1,803.22	83.0745	1,803.22	82.1048	1,803.22	81.0179	1,803.22	80.4499	1,803.22	80.106	1,803.22	79.685	1,803.22	78.2017	1,803.22	78.4412	1,803.22	77.8799	1,803.22	76.7131	1,803.22	74.821	1,803.22	76.1504	1,803.22	74.3275	1,803.22	75.5632	1,803.22	72.7275	1,803.22	74.3034	1,803.22	68.2831	1,803.22	69.0166	1,803.22	72.6843	1,803.22	70.2044	1,803.22	75.3504	1,803.22	75.7163	1,803.22	74.3717	1,803.22	74.1173	1,803.22	67.5179	1,803.22	73.3668	1,803.22	69.8716	1,803.22	70.2335	1,803.22	71.8435	1,803.22	68.891	1,803.22	72.168
1,866.21	87.4935	1,866.21	86.4264	1,866.21	86.599	1,866.21	84.3755	1,866.21	84.3322	1,866.21	82.533	1,866.21	81.0601	1,866.21	80.617	1,866.21	80.1939	1,866.21	80.1229	1,866.21	78.0963	1,866.21	79.2898	1,866.21	77.4904	1,866.21	78.6157	1,866.21	77.2105	1,866.21	76.7401	1,866.21	75.2386	1,866.21	74.176	1,866.21	73.4122	1,866.21	73.2866	1,866.21	71.2201	1,866.21	71.0066	1,866.21	70.7322	1,866.21	73.4072	1,866.21	70.4808	1,866.21	73.8542	1,866.21	71.564	1,866.21	74.4582	1,866.21	70.3231	1,866.21	68.4921	1,866.21	68.6162	1,866.21	69.5661	1,866.21	70.4172	1,866.21	67.5963	1,866.21	70.9481	1,866.21	69.9951
1,932.13	86.1515	1,932.13	85.3806	1,932.13	84.9195	1,932.13	82.5744	1,932.13	81.5771	1,932.13	79.7807	1,932.13	77.9628	1,932.13	77.7347	1,932.13	76.0791	1,932.13	76.0968	1,932.13	76.6873	1,932.13	77.1597	1,932.13	77.1005	1,932.13	77.5517	1,932.13	76.3426	1,932.13	76.1425	1,932.13	74.7197	1,932.13	75.1226	1,932.13	73.1935	1,932.13	72.2833	1,932.13	71.9992	1,932.13	70.1029	1,932.13	70.1837	1,932.13	72.0008	1,932.13	70.3069	1,932.13	72.5063	1,932.13	71.672	1,932.13	74.6833	1,932.13	71.9154	1,932.13	71.1107	1,932.13	61.6494	1,932.13	70.2855	1,932.13	63.5077	1,932.13	59.682	1,932.13	67.24	1,932.13	67.9906
1,999.51	87.8217	1,999.51	86.2545	1,999.51	86.5986	1,999.51	82.9239	1,999.51	83.4562	1,999.51	79.6251	1,999.51	80.1652	1,999.51	78.4177	1,999.51	78.9906	1,999.51	78.6805	1,999.51	78.9085	1,999.51	77.6291	1,999.51	78.9302	1,999.51	77.3275	1,999.51	78.1842	1,999.51	75.8053	1,999.51	75.922	1,999.51	74.6139	1,999.51	74.6294	1,999.51	72.2415	1,999.51	73.1086	1,999.51	71.2677	1,999.51	73.94	1,999.51	70.6141	1,999.51	71.9395	1,999.51	71.2194	1,999.51	71.9257	1,999.51	71.3684	1,999.51	72.1653	1,999.51	66.7615	1,999.51	67.5369	1,999.51	69.3621	1,999.51	68.8284	1,999.51	68.4702	1,999.51	66.8427	1,999.51	71.8216
2,069.82	88.8298	2,069.82	87.6105	2,069.82	87.2235	2,069.82	84.3053	2,069.82	83.5645	2,069.82	81.1746	2,069.82	80.9821	2,069.82	80.3021	2,069.82	80.1264	2,069.82	80.1604	2,069.82	80.7057	2,069.82	79.9681	2,069.82	80.5377	2,069.82	78.8079	2,069.82	79.3259	2,069.82	77.8111	2,069.82	77.7726	2,069.82	75.8683	2,069.82	75.8507	2,069.82	74.0922	2,069.82	74.9242	2,069.82	72.4174	2,069.82	74.009	2,069.82	72.0575	2,069.82	72.6363	2,069.82	71.9939	2,069.82	73.6332	2,069.82	70.638	2,069.82	71.4068	2,069.82	66.2698	2,069.82	67.0522	2,069.82	67.7433	2,069.82	69.966	2,069.82	67.9831	2,069.82	66.4901	2,069.82	70.7404
2,143.07	88.402	2,143.07	87.4124	2,143.07	86.5464	2,143.07	84.0299	2,143.07	82.5411	2,143.07	81.4134	2,143.07	80.2978	2,143.07	81.0542	2,143.07	80.4811	2,143.07	81.3754	2,143.07	81.5354	2,143.07	81.4302	2,143.07	80.8882	2,143.07	79.7573	2,143.07	79.5654	2,143.07	78.4302	2,143.07	77.0715	2,143.07	76.5069	2,143.07	74.1762	2,143.07	75.6043	2,143.07	74.0903	2,143.07	74.4266	2,143.07	73.6744	2,143.07	73.9725	2,143.07	73.3036	2,143.07	73.9924	2,143.07	72.3455	2,143.07	73.3182	2,143.07	71.4347	2,143.07	68.124	2,143.07	63.7909	2,143.07	68.2865	2,143.07	66.187	2,143.07	64.3951	2,143.07	68.2226	2,143.07	71.2205
2,219.24	87.917	2,219.24	86.1995	2,219.24	86.1012	2,219.24	82.3585	2,219.24	81.7879	2,219.24	79.8176	2,219.24	79.237	2,219.24	80.8999	2,219.24	80.9057	2,219.24	81.6772	2,219.24	81.7389	2,219.24	81.2412	2,219.24	81.0828	2,219.24	79.8735	2,219.24	79.5611	2,219.24	76.6114	2,219.24	77.3208	2,219.24	75.3334	2,219.24	74.7972	2,219.24	74.2516	2,219.24	73.6251	2,219.24	74.1981	2,219.24	72.6343	2,219.24	73.5713	2,219.24	73.1573	2,219.24	73.5401	2,219.24	72.1794	2,219.24	72.8646	2,219.24	71.9906	2,219.24	68.0465	2,219.24	65.2927	2,219.24	65.8018	2,219.24	65.1975	2,219.24	64.6778	2,219.24	64.898	2,219.24	71.7689
2,296.88	88.4732	2,296.88	86.914	2,296.88	86.5857	2,296.88	82.7203	2,296.88	81.9098	2,296.88	80.5738	2,296.88	80.5155	2,296.88	82.1262	2,296.88	82.2204	2,296.88	83.0915	2,296.88	83.4304	2,296.88	81.9284	2,296.88	82.862	2,296.88	79.8972	2,296.88	81.038	2,296.88	77.3728	2,296.88	78.748	2,296.88	74.574	2,296.88	74.939	2,296.88	73.193	2,296.88	74.9829	2,296.88	72.9138	2,296.88	74.1374	2,296.88	73.5971	2,296.88	74.8395	2,296.88	71.9649	2,296.88	74.1172	2,296.88	72.742	2,296.88	73.9433	2,296.88	67.6454	2,296.88	68.1056	2,296.88	60.6915	2,296.88	60.125	2,296.88	63.8469	2,296.88	65.7645	2,296.88	71.9043
2,378.91	88.6117	2,378.91	87.2468	2,378.91	86.2327	2,378.91	83.5594	2,378.91	82.6577	2,378.91	81.8821	2,378.91	81.6283	2,378.91	83.36	2,378.91	83.3812	2,378.91	84.232	2,378.91	83.682	2,378.91	83.1996	2,378.91	82.5444	2,378.91	81.7526	2,378.91	80.5012	2,378.91	79.0299	2,378.91	77.7867	2,378.91	76.4062	2,378.91	75.4793	2,378.91	74.7039	2,378.91	73.6283	2,378.91	72.969	2,378.91	72.9749	2,378.91	74.4363	2,378.91	73.5271	2,378.91	73.8299	2,378.91	73.9355	2,378.91	71.3665	2,378.91	72.6165	2,378.91	69.3618	2,378.91	68.9544	2,378.91	60.5375	2,378.91	55.9649	2,378.91	64.1342	2,378.91	67.5831	2,378.91	71.8017
2,462.4	88.4696	2,462.4	86.5381	2,462.4	86.6818	2,462.4	82.7546	2,462.4	83.1752	2,462.4	81.6229	2,462.4	82.0086	2,462.4	83.6256	2,462.4	83.3903	2,462.4	83.7561	2,462.4	83.7699	2,462.4	83.2949	2,462.4	82.7804	2,462.4	81.2171	2,462.4	80.3386	2,462.4	79.333	2,462.4	78.6924	2,462.4	76.2662	2,462.4	74.3063	2,462.4	75.4803	2,462.4	73.008	2,462.4	74.61	2,462.4	72.6025	2,462.4	74.7478	2,462.4	73.2762	2,462.4	75.6908	2,462.4	73.7653	2,462.4	72.8184	2,462.4	71.7652	2,462.4	69.9332	2,462.4	68.4017	2,462.4	58.9539	2,462.4	51.3718	2,462.4	63.1486	2,462.4	64.7596	2,462.4	73.6977
2,548.83	88.5092	2,548.83	87.0674	2,548.83	87.3142	2,548.83	84.2308	2,548.83	84.9335	2,548.83	82.9527	2,548.83	83.9754	2,548.83	84.1264	2,548.83	85.0317	2,548.83	83.7271	2,548.83	84.7052	2,548.83	82.758	2,548.83	83.3612	2,548.83	79.6928	2,548.83	81.1929	2,548.83	78.6126	2,548.83	78.7731	2,548.83	75.7229	2,548.83	76.6675	2,548.83	73.4124	2,548.83	74.2314	2,548.83	72.9029	2,548.83	73.2297	2,548.83	72.2421	2,548.83	75.0146	2,548.83	75.4676	2,548.83	74.6689	2,548.83	72.6622	2,548.83	71.9264	2,548.83	68.802	2,548.83	70.0494	2,548.83	57.1635	2,548.83	50.6358	2,548.83	67.3906	2,548.83	63.0457	2,548.83	75.5858
2,639.65	88.4467	2,639.65	87.8369	2,639.65	87.6312	2,639.65	85.5264	2,639.65	86.1805	2,639.65	84.4641	2,639.65	85.073	2,639.65	84.4797	2,639.65	85.6261	2,639.65	84.5058	2,639.65	84.8952	2,639.65	83.7651	2,639.65	83.2252	2,639.65	81.7521	2,639.65	80.7191	2,639.65	79.2132	2,639.65	78.0616	2,639.65	75.0246	2,639.65	74.8906	2,639.65	74.0953	2,639.65	73.7278	2,639.65	73.2293	2,639.65	73.8475	2,639.65	71.6051	2,639.65	74.4937	2,639.65	74.5134	2,639.65	75.2973	2,639.65	71.8993	2,639.65	72.2725	2,639.65	68.7405	2,639.65	67.3915	2,639.65	58.719	2,639.65	45.5737	2,639.65	58.672	2,639.65	65.8804	2,639.65	73.3905
2,731.93	87.6769	2,731.93	87.2449	2,731.93	87.6513	2,731.93	85.8614	2,731.93	86.2491	2,731.93	84.3847	2,731.93	85.3262	2,731.93	84.6754	2,731.93	85.526	2,731.93	84.5915	2,731.93	85.1488	2,731.93	83.2135	2,731.93	83.1557	2,731.93	80.5176	2,731.93	80.9595	2,731.93	78.5547	2,731.93	77.6531	2,731.93	75.1267	2,731.93	75.0256	2,731.93	73.7414	2,731.93	72.9678	2,731.93	74.2187	2,731.93	73.5353	2,731.93	72.2907	2,731.93	73.5158	2,731.93	74.1916	2,731.93	74.0146	2,731.93	73.4792	2,731.93	73.1159	2,731.93	68.5125	2,731.93	67.1422	2,731.93	54.8323	2,731.93	58.0215	2,731.93	62.5667	2,731.93	65.3004	2,731.93	73.0191
2,828.61	88.6944	2,828.61	88.388	2,828.61	88.1562	2,828.61	87.1972	2,828.61	87.6944	2,828.61	85.5287	2,828.61	86.2317	2,828.61	85.2008	2,828.61	85.9099	2,828.61	85.1313	2,828.61	85.4509	2,828.61	84.1502	2,828.61	83.7005	2,828.61	81.9688	2,828.61	81.5678	2,828.61	78.4719	2,828.61	78.6786	2,828.61	74.0369	2,828.61	75.5256	2,828.61	73.2977	2,828.61	72.6989	2,828.61	74.3564	2,828.61	75.5552	2,828.61	72.773	2,828.61	73.8183	2,828.61	73.248	2,828.61	75.0555	2,828.61	73.0508	2,828.61	74.3104	2,828.61	68.0296	2,828.61	68.7638	2,828.61	56.804	2,828.61	61.0077	2,828.61	66.3713	2,828.61	66.9141	2,828.61	74.3615
2,928.22	88.515	2,928.22	88.1124	2,928.22	88.5914	2,928.22	87.4523	2,928.22	87.682	2,928.22	85.3833	2,928.22	85.3929	2,928.22	84.465	2,928.22	84.5981	2,928.22	84.3251	2,928.22	84.5175	2,928.22	83.5595	2,928.22	82.9259	2,928.22	81.9094	2,928.22	80.8504	2,928.22	77.9307	2,928.22	78.3628	2,928.22	75.4847	2,928.22	76.8129	2,928.22	73.1921	2,928.22	71.8536	2,928.22	73.928	2,928.22	74.2326	2,928.22	75.1311	2,928.22	73.8968	2,928.22	72.9597	2,928.22	75.0595	2,928.22	73.374	2,928.22	74.0603	2,928.22	69.1037	2,928.22	65.789	2,928.22	58.0161	2,928.22	57.2114	2,928.22	65.8734	2,928.22	64.8751	2,928.22	70.691
3,030.76	88.3602	3,030.76	88.5258	3,030.76	88.709	3,030.76	88.1116	3,030.76	88.4506	3,030.76	85.5181	3,030.76	86.2294	3,030.76	84.232	3,030.76	85.258	3,030.76	83.9894	3,030.76	84.7517	3,030.76	81.9012	3,030.76	83.5176	3,030.76	80.7247	3,030.76	80.83	3,030.76	76.3577	3,030.76	78.1346	3,030.76	75.6696	3,030.76	76.6237	3,030.76	70.7605	3,030.76	72.6924	3,030.76	72.2284	3,030.76	71.2626	3,030.76	75.609	3,030.76	74.7987	3,030.76	72.0742	3,030.76	73.743	3,030.76	74.6285	3,030.76	73.4345	3,030.76	66.348	3,030.76	64.9989	3,030.76	57.5953	3,030.76	60.6536	3,030.76	69.2614	3,030.76	64.4217	3,030.76	71.861
3,137.7	88.4383	3,137.7	89.1967	3,137.7	88.9974	3,137.7	88.833	3,137.7	88.6787	3,137.7	86.3351	3,137.7	86.3121	3,137.7	85.336	3,137.7	84.7265	3,137.7	84.4387	3,137.7	85.1021	3,137.7	83.061	3,137.7	83.9712	3,137.7	80.3504	3,137.7	81.427	3,137.7	77.7424	3,137.7	78.5803	3,137.7	76.4501	3,137.7	75.4851	3,137.7	71.8304	3,137.7	74.1507	3,137.7	71.6328	3,137.7	70.7841	3,137.7	74.8086	3,137.7	75.1804	3,137.7	73.1209	3,137.7	73.9081	3,137.7	74.9124	3,137.7	73.8353	3,137.7	65.3964	3,137.7	65.0015	3,137.7	62.5568	3,137.7	56.7559	3,137.7	65.8698	3,137.7	68.6922	3,137.7	70.8922
3,249.02	87.9256	3,249.02	88.6199	3,249.02	89.0507	3,249.02	88.4282	3,249.02	88.0338	3,249.02	85.7713	3,249.02	85.4796	3,249.02	84.4861	3,249.02	84.2351	3,249.02	84.2187	3,249.02	84.7548	3,249.02	82.7602	3,249.02	83.7149	3,249.02	79.2383	3,249.02	80.7147	3,249.02	78.2631	3,249.02	78.4135	3,249.02	75.0217	3,249.02	74.6638	3,249.02	72.4616	3,249.02	72.4771	3,249.02	72.2377	3,249.02	70.8958	3,249.02	71.8405	3,249.02	72.7517	3,249.02	74.8391	3,249.02	74.3537	3,249.02	73.4366	3,249.02	74.4574	3,249.02	64.1451	3,249.02	65.0021	3,249.02	63.5534	3,249.02	59.2012	3,249.02	67.3244	3,249.02	66.3253	3,249.02	68.7729
3,363.28	87.3132	3,363.28	88.0009	3,363.28	88.58	3,363.28	87.8993	3,363.28	87.5271	3,363.28	85.4656	3,363.28	85.4075	3,363.28	84.3125	3,363.28	84.6179	3,363.28	84.4663	3,363.28	84.6281	3,363.28	82.839	3,363.28	83.229	3,363.28	79.8111	3,363.28	80.1624	3,363.28	77.7731	3,363.28	77.1346	3,363.28	74.1953	3,363.28	74.4599	3,363.28	71.3065	3,363.28	71.2203	3,363.28	69.82	3,363.28	70.6133	3,363.28	70.6892	3,363.28	71.9469	3,363.28	72.908	3,363.28	72.5274	3,363.28	72.0935	3,363.28	71.4602	3,363.28	61.3838	3,363.28	63.7078	3,363.28	53.8078	3,363.28	55.3675	3,363.28	66.7981	3,363.28	66.4231	3,363.28	66.16
3,481.93	87.8935	3,481.93	88.1704	3,481.93	88.6582	3,481.93	87.7725	3,481.93	87.1605	3,481.93	85.5758	3,481.93	85.2851	3,481.93	84.4935	3,481.93	84.8884	3,481.93	84.8903	3,481.93	84.5116	3,481.93	83.0242	3,481.93	83.3402	3,481.93	79.6753	3,481.93	80.1982	3,481.93	77.968	3,481.93	77.4553	3,481.93	73.9002	3,481.93	73.9507	3,481.93	70.3482	3,481.93	71.8341	3,481.93	70.4688	3,481.93	71.497	3,481.93	70.8449	3,481.93	73.244	3,481.93	73.3542	3,481.93	72.6128	3,481.93	72.5767	3,481.93	69.648	3,481.93	65.3755	3,481.93	62.2372	3,481.93	46.3058	3,481.93	61.1782	3,481.93	68.9995	3,481.93	68.5893	3,481.93	66.1784
3,604.98	87.7343	3,604.98	87.5666	3,604.98	87.4846	3,604.98	86.9595	3,604.98	86.9738	3,604.98	85.0898	3,604.98	85.1194	3,604.98	83.2363	3,604.98	84.4687	3,604.98	84.2602	3,604.98	83.5441	3,604.98	82.3761	3,604.98	82.0807	3,604.98	79.8369	3,604.98	79.3526	3,604.98	76.9654	3,604.98	75.2347	3,604.98	73.1452	3,604.98	73.012	3,604.98	71.3644	3,604.98	70.7368	3,604.98	67.8955	3,604.98	69.118	3,604.98	70.1916	3,604.98	71.0418	3,604.98	73.1115	3,604.98	72.442	3,604.98	72.0615	3,604.98	69.6242	3,604.98	63.9521	3,604.98	62.3732	3,604.98	52.8566	3,604.98	62.897	3,604.98	68.8437	3,604.98	67.6222	3,604.98	61.3609
3,732.42	87.684	3,732.42	87.2766	3,732.42	87.3417	3,732.42	86.815	3,732.42	86.8448	3,732.42	85.6625	3,732.42	85.3403	3,732.42	83.8462	3,732.42	84.1694	3,732.42	83.8911	3,732.42	82.9	3,732.42	82.0814	3,732.42	81.395	3,732.42	80.5658	3,732.42	79.0817	3,732.42	75.9809	3,732.42	74.4403	3,732.42	73.4024	3,732.42	72.2676	3,732.42	70.657	3,732.42	70.8247	3,732.42	67.5664	3,732.42	69.7904	3,732.42	70.6601	3,732.42	69.3137	3,732.42	71.9203	3,732.42	70.6414	3,732.42	69.7161	3,732.42	70.1076	3,732.42	64.1516	3,732.42	64.9278	3,732.42	54.7097	3,732.42	63.6479	3,732.42	67.5808	3,732.42	67.4585	3,732.42	60.7233
3,864.26	88.1249	3,864.26	87.2299	3,864.26	86.6366	3,864.26	86.5479	3,864.26	87.0209	3,864.26	85.629	3,864.26	85.5019	3,864.26	83.2126	3,864.26	83.0665	3,864.26	82.758	3,864.26	81.9836	3,864.26	81.6256	3,864.26	81.291	3,864.26	80.7266	3,864.26	79.1273	3,864.26	76.3284	3,864.26	76.3326	3,864.26	74.6473	3,864.26	72.8119	3,864.26	70.5039	3,864.26	69.9924	3,864.26	69.2299	3,864.26	70.3833	3,864.26	71.8414	3,864.26	70.0413	3,864.26	69.9724	3,864.26	71.278	3,864.26	70.8063	3,864.26	69.7667	3,864.26	63.1398	3,864.26	62.5532	3,864.26	62.221	3,864.26	63.8714	3,864.26	69.5655	3,864.26	67.4346	3,864.26	59.7386
4,000.49	88.2829	4,000.49	86.7908	4,000.49	86.4927	4,000.49	86.2756	4,000.49	87.0796	4,000.49	85.5465	4,000.49	85.5982	4,000.49	82.622	4,000.49	81.5708	4,000.49	81.6534	4,000.49	81.21	4,000.49	81.366	4,000.49	81.2507	4,000.49	79.7529	4,000.49	79.7852	4,000.49	74.7594	4,000.49	75.7846	4,000.49	72.7834	4,000.49	73.2633	4,000.49	68.7075	4,000.49	70.6223	4,000.49	69.4332	4,000.49	69.1003	4,000.49	71.0738	4,000.49	70.7718	4,000.49	69.6902	4,000.49	71.763	4,000.49	69.55	4,000.49	69.5878	4,000.49	61.1487	4,000.49	56.9804	4,000.49	64.4006	4,000.49	66.1122	4,000.49	68.5035	4,000.49	67.2199	4,000.49	52.7511
4,141.11	88.442	4,141.11	86.6935	4,141.11	86.5563	4,141.11	86.6319	4,141.11	87.0204	4,141.11	85.6696	4,141.11	85.609	4,141.11	82.4362	4,141.11	81.2538	4,141.11	80.9914	4,141.11	81.5266	4,141.11	81.4112	4,141.11	81.5707	4,141.11	78.9912	4,141.11	79.9776	4,141.11	76.0804	4,141.11	76.8576	4,141.11	72.4556	4,141.11	73.104	4,141.11	70.6025	4,141.11	71.4986	4,141.11	70.0996	4,141.11	68.4063	4,141.11	69.6746	4,141.11	69.855	4,141.11	69.4478	4,141.11	72.2253	4,141.11	68.8756	4,141.11	69.1367	4,141.11	60.7265	4,141.11	57.9359	4,141.11	64.4297	4,141.11	66.6923	4,141.11	65.7876	4,141.11	64.043	4,141.11	55.902
4,287.6	88.9174	4,287.6	87.6247	4,287.6	86.832	4,287.6	86.6917	4,287.6	86.6305	4,287.6	86.0208	4,287.6	85.4207	4,287.6	82.7683	4,287.6	81.0949	4,287.6	80.5191	4,287.6	81.36	4,287.6	80.6862	4,287.6	81.6111	4,287.6	77.4656	4,287.6	79.8009	4,287.6	75.2385	4,287.6	75.9654	4,287.6	69.2793	4,287.6	72.8836	4,287.6	69.2083	4,287.6	70.4516	4,287.6	68.5505	4,287.6	70.1761	4,287.6	67.8853	4,287.6	69.0689	4,287.6	70.5056	4,287.6	72.4707	4,287.6	69.6001	4,287.6	68.1183	4,287.6	56.5493	4,287.6	55.1871	4,287.6	65.8152	4,287.6	67.0743	4,287.6	63.8671	4,287.6	62.5874	4,287.6	59.7215
4,438.48	88.7491	4,438.48	87.3315	4,438.48	87.3041	4,438.48	85.5263	4,438.48	85.9769	4,438.48	85.3256	4,438.48	85.727	4,438.48	81.7701	4,438.48	81.347	4,438.48	79.5438	4,438.48	81.2934	4,438.48	80.1259	4,438.48	81.0243	4,438.48	77.7105	4,438.48	78.5697	4,438.48	74.847	4,438.48	77.1499	4,438.48	71.5971	4,438.48	72.4582	4,438.48	71.6005	4,438.48	69.5996	4,438.48	65.6766	4,438.48	69.4145	4,438.48	64.2903	4,438.48	66.8567	4,438.48	72.3837	4,438.48	72.9415	4,438.48	68.2567	4,438.48	66.8046	4,438.48	49.3351	4,438.48	51.8731	4,438.48	65.8912	4,438.48	67.5038	4,438.48	63.8138	4,438.48	60.4099	4,438.48	57.6682
4,595.21	89.7364	4,595.21	87.5713	4,595.21	88.8546	4,595.21	86.4913	4,595.21	86.0765	4,595.21	86.2693	4,595.21	86.2588	4,595.21	80.6569	4,595.21	81.9539	4,595.21	79.2861	4,595.21	81.4454	4,595.21	79.9719	4,595.21	81.1446	4,595.21	77.7626	4,595.21	78.7774	4,595.21	75.0289	4,595.21	76.4159	4,595.21	70.6869	4,595.21	71.7682	4,595.21	70.1944	4,595.21	70.4527	4,595.21	64.4658	4,595.21	66.2763	4,595.21	66.4325	4,595.21	69.7819	4,595.21	70.0689	4,595.21	73.1279	4,595.21	68.0321	4,595.21	68.5568	4,595.21	50.298	4,595.21	56.3604	4,595.21	63.5578	4,595.21	67.2595	4,595.21	64.1739	4,595.21	60.1969	4,595.21	58.8195
4,756.35	88.7605	4,756.35	87.0417	4,756.35	87.7228	4,756.35	85.7312	4,756.35	86.2657	4,756.35	85.0505	4,756.35	85.5358	4,756.35	77.9908	4,756.35	82.7938	4,756.35	78.0138	4,756.35	81.3497	4,756.35	78.8732	4,756.35	80.7331	4,756.35	77.7755	4,756.35	79.4953	4,756.35	75.5601	4,756.35	74.8124	4,756.35	71.4512	4,756.35	70.4007	4,756.35	70.133	4,756.35	66.8741	4,756.35	68.5227	4,756.35	68.2168	4,756.35	69.1664	4,756.35	69.4647	4,756.35	69.5691	4,756.35	72.0529	4,756.35	69.65	4,756.35	69.614	4,756.35	42.945	4,756.35	58.4084	4,756.35	65.8943	4,756.35	68.7364	4,756.35	62.1485	4,756.35	48.3255	4,756.35	63.219
4,924.8	88.2422	4,924.8	88.2774	4,924.8	87.0731	4,924.8	85.9773	4,924.8	86.3553	4,924.8	85.6518	4,924.8	85.7372	4,924.8	82.2374	4,924.8	82.7443	4,924.8	79.0678	4,924.8	79.3339	4,924.8	80.0585	4,924.8	79.5011	4,924.8	79.7431	4,924.8	78.7491	4,924.8	75.8778	4,924.8	76.1143	4,924.8	73.3481	4,924.8	73.8852	4,924.8	59.8439	4,924.8	66.7823	4,924.8	69.1632	4,924.8	68.2013	4,924.8	69.2383	4,924.8	71.1334	4,924.8	67.3479	4,924.8	70.5509	4,924.8	67.3832	4,924.8	66.3572	4,924.8	35.9805	4,924.8	61.2764	4,924.8	65.3842	4,924.8	69.2965	4,924.8	61.5789	4,924.8	60.0638	4,924.8	61.2302
5,097.66	86.9433	5,097.66	88.36	5,097.66	87.521	5,097.66	85.4375	5,097.66	86.1427	5,097.66	85.107	5,097.66	85.9988	5,097.66	83.7919	5,097.66	82.035	5,097.66	78.9053	5,097.66	77.0882	5,097.66	78.4437	5,097.66	79.7096	5,097.66	77.6093	5,097.66	78.6253	5,097.66	73.7909	5,097.66	74.9918	5,097.66	70.7341	5,097.66	72.798	5,097.66	67.0218	5,097.66	64.4182	5,097.66	69.8341	5,097.66	66.8424	5,097.66	69.239	5,097.66	68.9489	5,097.66	69.8051	5,097.66	61.8819	5,097.66	63.8588	5,097.66	57.9745	5,097.66	57.4845	5,097.66	62.2396	5,097.66	66.6468	5,097.66	67.2657	5,097.66	60.5451	5,097.66	58.9103	5,097.66	59.2506
5,277.83	86.6142	5,277.83	87.7451	5,277.83	87.8478	5,277.83	86.0328	5,277.83	85.3632	5,277.83	85.2232	5,277.83	84.9899	5,277.83	84.1155	5,277.83	81.4567	5,277.83	80.1497	5,277.83	75.7289	5,277.83	79.9503	5,277.83	78.5918	5,277.83	79.0756	5,277.83	77.9163	5,277.83	77.0231	5,277.83	76.4604	5,277.83	73.2515	5,277.83	71.8354	5,277.83	70.6359	5,277.83	67.9359	5,277.83	64.5607	5,277.83	66.5225	5,277.83	68.7503	5,277.83	69.3625	5,277.83	71.1186	5,277.83	67.8685	5,277.83	60.8832	5,277.83	62.6045	5,277.83	59.9404	5,277.83	50.7625	5,277.83	64.3903	5,277.83	61.3267	5,277.83	57.5857	5,277.83	55.5597	5,277.83	60.1814
5,463.87	87.768	5,463.87	87.812	5,463.87	88.1108	5,463.87	87.5707	5,463.87	85.5212	5,463.87	85.8502	5,463.87	84.0115	5,463.87	84.0733	5,463.87	82.0821	5,463.87	79.279	5,463.87	78.0622	5,463.87	80.0928	5,463.87	79.39	5,463.87	77.9075	5,463.87	77.9052	5,463.87	76.239	5,463.87	74.4923	5,463.87	67.6097	5,463.87	68.3904	5,463.87	67.3113	5,463.87	64.8523	5,463.87	66.1369	5,463.87	67.3253	5,463.87	67.4834	5,463.87	69.438	5,463.87	67.6009	5,463.87	66.8353	5,463.87	58.9735	5,463.87	62.6164	5,463.87	54.8925	5,463.87	60.9617	5,463.87	62.0083	5,463.87	64.903	5,463.87	53.743	5,463.87	54.9909	5,463.87	60.3199
5,657.23	87.5968	5,657.23	87.2659	5,657.23	86.7249	5,657.23	86.4769	5,657.23	85.5168	5,657.23	84.4604	5,657.23	82.9522	5,657.23	82.1153	5,657.23	82.4536	5,657.23	76.1525	5,657.23	79.1942	5,657.23	78.9935	5,657.23	79.8871	5,657.23	77.1226	5,657.23	77.5192	5,657.23	75.442	5,657.23	72.9724	5,657.23	68.8909	5,657.23	69.0989	5,657.23	62.5939	5,657.23	67.9858	5,657.23	65.7986	5,657.23	66.2923	5,657.23	68.5491	5,657.23	65.1821	5,657.23	67.1371	5,657.23	64.509	5,657.23	64.3143	5,657.23	65.5558	5,657.23	44.82	5,657.23	62.2439	5,657.23	63.0825	5,657.23	66.0893	5,657.23	58.5557	5,657.23	47.8864	5,657.23	61.9636
5,856.45	87.3424	5,856.45	87.4443	5,856.45	85.9337	5,856.45	85.2538	5,856.45	85.6056	5,856.45	84.1025	5,856.45	83.5559	5,856.45	80.7825	5,856.45	82.7595	5,856.45	76.2127	5,856.45	79.4685	5,856.45	77.8693	5,856.45	78.5996	5,856.45	78.3781	5,856.45	78.3375	5,856.45	75.5758	5,856.45	72.4581	5,856.45	73.1624	5,856.45	70.1644	5,856.45	63.7807	5,856.45	67.9102	5,856.45	67.1349	5,856.45	67.4556	5,856.45	69.1994	5,856.45	67.1282	5,856.45	63.7877	5,856.45	63.5884	5,856.45	58.9383	5,856.45	61.2426	5,856.45	58.562	5,856.45	66.241	5,856.45	64.2743	5,856.45	67.1982	5,856.45	54.4326	5,856.45	39.5523	5,856.45	62.0828
6,062.99	87.3232	6,062.99	87.2157	6,062.99	86.6139	6,062.99	84.5935	6,062.99	84.8728	6,062.99	82.6594	6,062.99	84.1281	6,062.99	81.1505	6,062.99	81.6255	6,062.99	76.2503	6,062.99	76.0688	6,062.99	76.4937	6,062.99	76.5333	6,062.99	77.4351	6,062.99	76.2956	6,062.99	71.6882	6,062.99	73.5905	6,062.99	70.7318	6,062.99	70.0174	6,062.99	65.2966	6,062.99	64.1451	6,062.99	63.4496	6,062.99	61.0396	6,062.99	68.305	6,062.99	66.1272	6,062.99	67.1948	6,062.99	62.099	6,062.99	54.8914	6,062.99	44.2565	6,062.99	63.5327	6,062.99	63.6204	6,062.99	63.0946	6,062.99	63.0575	6,062.99	53.1925	6,062.99	47.812	6,062.99	63.5496
6,276.86	87.9886	6,276.86	87.2886	6,276.86	88.0562	6,276.86	85.8362	6,276.86	85.5556	6,276.86	82.1533	6,276.86	83.6939	6,276.86	83.2366	6,276.86	82.4784	6,276.86	77.4021	6,276.86	76.6536	6,276.86	75.011	6,276.86	75.431	6,276.86	74.993	6,276.86	73.984	6,276.86	70.7583	6,276.86	75.3432	6,276.86	66.8853	6,276.86	71.6338	6,276.86	68.0397	6,276.86	62.8727	6,276.86	61.476	6,276.86	63.8623	6,276.86	62.8064	6,276.86	69.5857	6,276.86	65.6554	6,276.86	63.377	6,276.86	58.648	6,276.86	54.156	6,276.86	62.0189	6,276.86	57.7461	6,276.86	59.8215	6,276.86	56.2182	6,276.86	55.6392	6,276.86	58.7341	6,276.86	59.9324
6,498.05	88.3659	6,498.05	87.2795	6,498.05	87.7714	6,498.05	86.9868	6,498.05	86.7702	6,498.05	82.5281	6,498.05	82.8241	6,498.05	83.8571	6,498.05	83.4177	6,498.05	78.157	6,498.05	79.8741	6,498.05	76.2198	6,498.05	75.5628	6,498.05	72.1315	6,498.05	77.1357	6,498.05	74.0267	6,498.05	75.881	6,498.05	66.5689	6,498.05	71.231	6,498.05	69.6516	6,498.05	70.4464	6,498.05	64.2103	6,498.05	67.0529	6,498.05	64.6587	6,498.05	63.665	6,498.05	66.765	6,498.05	59.7753	6,498.05	57.2568	6,498.05	49.9622	6,498.05	61.1542	6,498.05	61.6243	6,498.05	61.866	6,498.05	58.3567	6,498.05	52.167	6,498.05	58.2101	6,498.05	58.7397
6,726.56	87.9807	6,726.56	86.6383	6,726.56	86.0547	6,726.56	86.3452	6,726.56	86.316	6,726.56	82.9812	6,726.56	83.92	6,726.56	83.0435	6,726.56	82.2116	6,726.56	78.4581	6,726.56	78.9376	6,726.56	75.746	6,726.56	75.4878	6,726.56	77.2856	6,726.56	78.6698	6,726.56	73.9938	6,726.56	74.9555	6,726.56	71.0648	6,726.56	71.3492	6,726.56	65.872	6,726.56	70.8206	6,726.56	64.0246	6,726.56	68.1183	6,726.56	66.4143	6,726.56	68.3983	6,726.56	61.6952	6,726.56	62.6534	6,726.56	52.1297	6,726.56	35.1374	6,726.56	47.0542	6,726.56	65.9827	6,726.56	62.4273	6,726.56	63.5259	6,726.56	47.2547	6,726.56	51.0168	6,726.56	58.6413
6,963.87	87.4516	6,963.87	86.4775	6,963.87	86.16	6,963.87	85.5617	6,963.87	85.3283	6,963.87	84.478	6,963.87	85.8944	6,963.87	81.3868	6,963.87	82.0629	6,963.87	80.2505	6,963.87	77.5474	6,963.87	74.1897	6,963.87	76.3053	6,963.87	80.0282	6,963.87	77.8227	6,963.87	74.7546	6,963.87	72.9785	6,963.87	71.5374	6,963.87	72.5628	6,963.87	67.9945	6,963.87	70.3353	6,963.87	65.3584	6,963.87	64.8039	6,963.87	67.1186	6,963.87	60.6349	6,963.87	63.8925	6,963.87	66.1102	6,963.87	56.1469	6,963.87	40.5327	6,963.87	60.8448	6,963.87	67.1716	6,963.87	63.1931	6,963.87	63.4822	6,963.87	45.0665	6,963.87	50.2424	6,963.87	62.6126
7,209.96	86.7288	7,209.96	86.2864	7,209.96	86.4699	7,209.96	86.0055	7,209.96	85.6877	7,209.96	85.9998	7,209.96	85.6849	7,209.96	83.5136	7,209.96	85.0515	7,209.96	81.2696	7,209.96	80.5221	7,209.96	74.2482	7,209.96	75.7016	7,209.96	79.5851	7,209.96	78.8995	7,209.96	74.7442	7,209.96	74.7393	7,209.96	73.8601	7,209.96	74.1256	7,209.96	70.2571	7,209.96	67.4464	7,209.96	65.755	7,209.96	59.8403	7,209.96	65.3511	7,209.96	58.7559	7,209.96	57.7145	7,209.96	68.5839	7,209.96	57.7848	7,209.96	53.5931	7,209.96	54.3574	7,209.96	66.7581	7,209.96	58.7336	7,209.96	55.0529	7,209.96	55.1542	7,209.96	55.4398	7,209.96	62.8544
7,464.84	86.6283	7,464.84	86.4416	7,464.84	86.0016	7,464.84	86.795	7,464.84	87.2258	7,464.84	86.143	7,464.84	83.9653	7,464.84	84.9567	7,464.84	85.5994	7,464.84	80.9048	7,464.84	82.8411	7,464.84	75.3592	7,464.84	74.9616	7,464.84	78.5388	7,464.84	80.2602	7,464.84	76.3353	7,464.84	77.0023	7,464.84	74.6304	7,464.84	75.1953	7,464.84	68.8271	7,464.84	59.7999	7,464.84	62.074	7,464.84	61.0459	7,464.84	60.6153	7,464.84	65.2337	7,464.84	64.9494	7,464.84	68.4707	7,464.84	56.4938	7,464.84	60.3833	7,464.84	54.8649	7,464.84	62.482	7,464.84	57.6934	7,464.84	51.655	7,464.84	54.955	7,464.84	59.026	7,464.84	59.7217
7,727.05	86.9563	7,727.05	87.0426	7,727.05	86.3253	7,727.05	86.7622	7,727.05	87.9466	7,727.05	85.7732	7,727.05	85.3918	7,727.05	84.1022	7,727.05	83.6803	7,727.05	81.5851	7,727.05	83.1286	7,727.05	77.1193	7,727.05	75.5547	7,727.05	77.278	7,727.05	80.0951	7,727.05	76.0092	7,727.05	76.6263	7,727.05	72.001	7,727.05	72.1925	7,727.05	66.9132	7,727.05	66.8893	7,727.05	61.298	7,727.05	65.6034	7,727.05	64.2337	7,727.05	66.3392	7,727.05	68.4007	7,727.05	68.0871	7,727.05	60.2533	7,727.05	60.5552	7,727.05	56.0678	7,727.05	61.4511	7,727.05	58.0718	7,727.05	59.8126	7,727.05	55.9477	7,727.05	57.1473	7,727.05	56.4166
7,999.51	87.6044	7,999.51	87.4087	7,999.51	88.2631	7,999.51	86.7069	7,999.51	87.3819	7,999.51	86.4361	7,999.51	87.1926	7,999.51	83.78	7,999.51	82.9631	7,999.51	83.4107	7,999.51	82.2515	7,999.51	75.5616	7,999.51	75.6152	7,999.51	76.3516	7,999.51	77.2531	7,999.51	74.0657	7,999.51	75.2617	7,999.51	68.5254	7,999.51	69.7847	7,999.51	65.6005	7,999.51	67.4451	7,999.51	63.5536	7,999.51	62.9069	7,999.51	61.1978	7,999.51	60.0842	7,999.51	65.8728	7,999.51	68.3688	7,999.51	62.9665	7,999.51	60.2294	7,999.51	55.4931	7,999.51	59.0985	7,999.51	59.2204	7,999.51	60.8056	7,999.51	54.3209	7,999.51	56.3966	7,999.51	50.1548
8,282.23	88.4235	8,282.23	87.7561	8,282.23	88.7718	8,282.23	87.5671	8,282.23	87.7293	8,282.23	86.9866	8,282.23	87.3853	8,282.23	83.594	8,282.23	85.2352	8,282.23	83.2248	8,282.23	82.6545	8,282.23	73.6476	8,282.23	74.9668	8,282.23	74.4174	8,282.23	71.5813	8,282.23	73.4011	8,282.23	74.9303	8,282.23	70.5398	8,282.23	68.3868	8,282.23	64.1112	8,282.23	65.7496	8,282.23	63.2554	8,282.23	61.9562	8,282.23	57.6502	8,282.23	55.8209	8,282.23	62.2089	8,282.23	64.9713	8,282.23	57.6239	8,282.23	52.8112	8,282.23	61.7916	8,282.23	60.2555	8,282.23	59.1802	8,282.23	57.7627	8,282.23	53.3141	8,282.23	57.929	8,282.23	56.8387
8,573.73	89.2262	8,573.73	88.6081	8,573.73	88.1382	8,573.73	88.5132	8,573.73	88.8509	8,573.73	86.2936	8,573.73	86.6929	8,573.73	84.2069	8,573.73	85.6507	8,573.73	81.5653	8,573.73	83.3795	8,573.73	73.5091	8,573.73	74.3436	8,573.73	71.5231	8,573.73	72.6915	8,573.73	71.7133	8,573.73	73.7048	8,573.73	66.5351	8,573.73	65.7349	8,573.73	63.6123	8,573.73	66.2628	8,573.73	61.1102	8,573.73	60.9837	8,573.73	61.3052	8,573.73	60.0374	8,573.73	63.089	8,573.73	65.1969	8,573.73	55.781	8,573.73	54.4937	8,573.73	56.1675	8,573.73	59.704	8,573.73	53.8404	8,573.73	57.5147	8,573.73	53.934	8,573.73	58.9032	8,573.73	58.5957
8,876.95	89.785	8,876.95	89.6924	8,876.95	89.572	8,876.95	88.2137	8,876.95	88.7808	8,876.95	86.3818	8,876.95	86.9988	8,876.95	83.1726	8,876.95	84.4506	8,876.95	79.8196	8,876.95	82.1102	8,876.95	72.3627	8,876.95	74.2157	8,876.95	71.5177	8,876.95	73.2442	8,876.95	67.8306	8,876.95	74.4839	8,876.95	62.3535	8,876.95	66.4404	8,876.95	60.2681	8,876.95	67.1619	8,876.95	57.2247	8,876.95	61.7681	8,876.95	56.4496	8,876.95	60.718	8,876.95	62.3644	8,876.95	67.9198	8,876.95	54.3281	8,876.95	56.9424	8,876.95	49.7574	8,876.95	57.566	8,876.95	55.1455	8,876.95	54.8578	8,876.95	52.7255	8,876.95	44.2219	8,876.95	57.335
9,188.96	89.8031	9,188.96	89.8911	9,188.96	90.5219	9,188.96	87.9821	9,188.96	88.9163	9,188.96	86.3848	9,188.96	87.2916	9,188.96	82.4581	9,188.96	84.0495	9,188.96	79.3428	9,188.96	79.3814	9,188.96	72.3477	9,188.96	76.4375	9,188.96	68.37	9,188.96	70.7024	9,188.96	71.7306	9,188.96	74.4351	9,188.96	67.3942	9,188.96	68.0683	9,188.96	62.8106	9,188.96	68.0668	9,188.96	58.513	9,188.96	59.5064	9,188.96	59.3903	9,188.96	54.4257	9,188.96	63.3647	9,188.96	63.5662	9,188.96	53.4263	9,188.96	61.0533	9,188.96	47.7124	9,188.96	39.8342	9,188.96	49.8036	9,188.96	52.4644	9,188.96	44.4727	9,188.96	49.6848	9,188.96	56.8958
9,514.16	90.3045	9,514.16	89.4627	9,514.16	89.8227	9,514.16	88.802	9,514.16	88.9625	9,514.16	84.8629	9,514.16	86.3973	9,514.16	82.1265	9,514.16	84.2159	9,514.16	79.5677	9,514.16	79.5772	9,514.16	71.9271	9,514.16	76.119	9,514.16	70.4592	9,514.16	73.4443	9,514.16	72.2286	9,514.16	71.9295	9,514.16	69.1145	9,514.16	67.6767	9,514.16	64.7038	9,514.16	65.2258	9,514.16	57.1913	9,514.16	55.9821	9,514.16	61.1211	9,514.16	54.0762	9,514.16	61.0689	9,514.16	65.8046	9,514.16	58.4726	9,514.16	57.5402	9,514.16	55.4031	9,514.16	48.9459	9,514.16	51.5757	9,514.16	44.9996	9,514.16	38.0221	9,514.16	48.1652	9,514.16	52.1336
9,849.61	89.7496	9,849.61	89.1984	9,849.61	89.7334	9,849.61	87.7144	9,849.61	87.8136	9,849.61	85.1091	9,849.61	85.7296	9,849.61	82.3019	9,849.61	83.3432	9,849.61	77.7294	9,849.61	78.9697	9,849.61	76.0166	9,849.61	76.181	9,849.61	66.9931	9,849.61	73.5721	9,849.61	71.9565	9,849.61	70.7078	9,849.61	66.4973	9,849.61	66.7863	9,849.61	61.85	9,849.61	61.0587	9,849.61	55.9008	9,849.61	60.4531	9,849.61	46.2298	9,849.61	58.7287	9,849.61	62.5667	9,849.61	62.0192	9,849.61	60.3949	9,849.61	58.554	9,849.61	54.9019	9,849.61	44.5593	9,849.61	57.7546	9,849.61	55.8181	9,849.61	45.1727	9,849.61	49.9744	9,849.61	51.2267
10,196.8	88.978	10,196.8	89.3216	10,196.8	89.4625	10,196.8	87.0287	10,196.8	87.9071	10,196.8	85.1775	10,196.8	85.3961	10,196.8	82.1003	10,196.8	82.7007	10,196.8	78.1242	10,196.8	77.7765	10,196.8	78.9417	10,196.8	77.4337	10,196.8	68.7472	10,196.8	67.7529	10,196.8	72.9063	10,196.8	72.9046	10,196.8	66.2161	10,196.8	65.3657	10,196.8	63.7248	10,196.8	64.4081	10,196.8	63.0107	10,196.8	59.3532	10,196.8	60.8223	10,196.8	58.4788	10,196.8	57.4535	10,196.8	58.0795	10,196.8	61.175	10,196.8	53.6042	10,196.8	53.5335	10,196.8	50.0967	10,196.8	58.2643	10,196.8	54.7994	10,196.8	46.5262	10,196.8	51.0742	10,196.8	50.1032
10,555.7	88.9671	10,555.7	88.5864	10,555.7	88.6484	10,555.7	87.0546	10,555.7	87.512	10,555.7	84.4825	10,555.7	84.6115	10,555.7	82.6997	10,555.7	82.3086	10,555.7	79.9043	10,555.7	79.207	10,555.7	78.5229	10,555.7	77.5249	10,555.7	72.6133	10,555.7	70.68	10,555.7	71.2329	10,555.7	69.6646	10,555.7	66.0033	10,555.7	64.5936	10,555.7	63.7882	10,555.7	63.5338	10,555.7	62.1534	10,555.7	55.2393	10,555.7	59.83	10,555.7	52.4116	10,555.7	62.4388	10,555.7	59.6638	10,555.7	56.7445	10,555.7	51.7699	10,555.7	53.3696	10,555.7	55.7649	10,555.7	54.9603	10,555.7	55.809	10,555.7	56.0828	10,555.7	53.5161	10,555.7	44.53
10,927.7	88.0458	10,927.7	87.4959	10,927.7	87.7894	10,927.7	85.9484	10,927.7	84.8771	10,927.7	84.8678	10,927.7	83.9001	10,927.7	82.8539	10,927.7	81.2478	10,927.7	80.7613	10,927.7	80.851	10,927.7	79.8709	10,927.7	78.3122	10,927.7	71.3825	10,927.7	68.2435	10,927.7	69.5206	10,927.7	68.587	10,927.7	68.9442	10,927.7	68.6289	10,927.7	64.6628	10,927.7	65.3796	10,927.7	58.2575	10,927.7	59.1984	10,927.7	58.7357	10,927.7	56.1577	10,927.7	59.6295	10,927.7	62.8468	10,927.7	53.1878	10,927.7	49.4634	10,927.7	50.7306	10,927.7	56.5311	10,927.7	54.3703	10,927.7	59.2665	10,927.7	57.1112	10,927.7	48.2468	10,927.7	43.094
11,313	86.285	11,313	86.9162	11,313	86.8974	11,313	85.1652	11,313	85.0378	11,313	85.1212	11,313	83.8526	11,313	83.3868	11,313	83.443	11,313	82.2234	11,313	82.1647	11,313	80.363	11,313	79.2363	11,313	71.8202	11,313	73.8067	11,313	71.8395	11,313	70.9482	11,313	70.7469	11,313	69.874	11,313	63.116	11,313	65.7411	11,313	62.5888	11,313	57.4179	11,313	60.0167	11,313	55.6978	11,313	62.516	11,313	63.9161	11,313	48.6637	11,313	58.7495	11,313	49.6662	11,313	58.8227	11,313	53.6506	11,313	58.3497	11,313	60.584	11,313	51.6387	11,313	35.4988
11,712.9	85.8568	11,712.9	86.5721	11,712.9	86.203	11,712.9	85.3891	11,712.9	86.1813	11,712.9	84.3359	11,712.9	84.7754	11,712.9	83.8522	11,712.9	84.0032	11,712.9	83.3385	11,712.9	83.4629	11,712.9	79.5806	11,712.9	79.1481	11,712.9	74.3835	11,712.9	73.4229	11,712.9	70.0357	11,712.9	70.0177	11,712.9	70.1836	11,712.9	70.3537	11,712.9	63.5697	11,712.9	65.3643	11,712.9	57.7326	11,712.9	59.1197	11,712.9	60.1195	11,712.9	52.3845	11,712.9	59.6239	11,712.9	62.1473	11,712.9	54.5323	11,712.9	56.7344	11,712.9	46.7535	11,712.9	53.8169	11,712.9	34.164	11,712.9	45.5144	11,712.9	53.3704	11,712.9	41.1494	11,712.9	52.0417
12,126	85.6173	12,126	85.3558	12,126	85.8724	12,126	84.8682	12,126	85.8654	12,126	84.5441	12,126	85.1583	12,126	83.6954	12,126	84.183	12,126	82.1657	12,126	82.0217	12,126	79.7623	12,126	78.1981	12,126	74.3932	12,126	72.6214	12,126	69.7586	12,126	69.054	12,126	68.7669	12,126	67.9949	12,126	62.4143	12,126	63.3013	12,126	61.5599	12,126	58.6885	12,126	59.6025	12,126	56.8475	12,126	56.5448	12,126	54.8355	12,126	52.0964	12,126	42.3937	12,126	48.5682	12,126	46.5857	12,126	55.3632	12,126	41.2712	12,126	54.2472	12,126	44.4337	12,126	51.4634
12,553.7	84.989	12,553.7	83.9908	12,553.7	84.8205	12,553.7	85.4461	12,553.7	86.771	12,553.7	83.8534	12,553.7	85.4283	12,553.7	84.4552	12,553.7	84.6396	12,553.7	81.5959	12,553.7	82.4899	12,553.7	78.8818	12,553.7	78.572	12,553.7	74.2343	12,553.7	72.378	12,553.7	65.9076	12,553.7	66.5791	12,553.7	65.9207	12,553.7	66.9114	12,553.7	60.3683	12,553.7	60.7517	12,553.7	58.7323	12,553.7	49.4719	12,553.7	59.1664	12,553.7	50.7242	12,553.7	53.8986	12,553.7	48.2449	12,553.7	43.3678	12,553.7	53.7816	12,553.7	49.9943	12,553.7	56.0109	12,553.7	55.5373	12,553.7	34.991	12,553.7	43.5367	12,553.7	50.1227	12,553.7	42.5844
12,996.1	84.8833	12,996.1	84.0327	12,996.1	84.7454	12,996.1	84.7898	12,996.1	86.2299	12,996.1	84.0369	12,996.1	85.2415	12,996.1	83.4123	12,996.1	84.2215	12,996.1	81.4105	12,996.1	81.3601	12,996.1	77.8189	12,996.1	77.5961	12,996.1	72.1714	12,996.1	69.8859	12,996.1	59.9973	12,996.1	64.1903	12,996.1	63.9312	12,996.1	64.7747	12,996.1	56.1469	12,996.1	61.8869	12,996.1	56.7065	12,996.1	56.4763	12,996.1	57.7638	12,996.1	55.3013	12,996.1	58.136	12,996.1	56.5109	12,996.1	43.2874	12,996.1	52.7744	12,996.1	51.2121	12,996.1	56.6984	12,996.1	51.0437	12,996.1	50.4919	12,996.1	49.1474	12,996.1	49.8099	12,996.1	47.6735
13,454.6	83.7086	13,454.6	83.0641	13,454.6	84.0351	13,454.6	84.0913	13,454.6	85.8165	13,454.6	83.6109	13,454.6	84.3152	13,454.6	83.4626	13,454.6	84.1699	13,454.6	81.3249	13,454.6	81.4234	13,454.6	76.4683	13,454.6	76.5648	13,454.6	69.7596	13,454.6	68.2693	13,454.6	62.5223	13,454.6	65.0497	13,454.6	63.8468	13,454.6	64.2283	13,454.6	54.818	13,454.6	60.3997	13,454.6	54.1144	13,454.6	52.2155	13,454.6	52.7597	13,454.6	47.454	13,454.6	56.6637	13,454.6	52.1485	13,454.6	38.9029	13,454.6	52.4625	13,454.6	43.1494	13,454.6	46.1455	13,454.6	51.2151	13,454.6	52.5538	13,454.6	46.5084	13,454.6	47.5699	13,454.6	47.6447
13,929.2	83.6442	13,929.2	83.6349	13,929.2	84.9316	13,929.2	83.9669	13,929.2	85.4445	13,929.2	84.6	13,929.2	85.5646	13,929.2	82.3331	13,929.2	83.501	13,929.2	81.0165	13,929.2	80.8159	13,929.2	74.7253	13,929.2	75.1161	13,929.2	67.6841	13,929.2	69.4849	13,929.2	64.9459	13,929.2	65.4916	13,929.2	62.8961	13,929.2	63.9368	13,929.2	55.6114	13,929.2	52.7794	13,929.2	56.0256	13,929.2	39.8819	13,929.2	50.853	13,929.2	53.3112	13,929.2	53.643	13,929.2	48.0551	13,929.2	48.5619	13,929.2	48.5944	13,929.2	45.7635	13,929.2	47.7698	13,929.2	50.0967	13,929.2	46.8362	13,929.2	50.3032	13,929.2	44.4415	13,929.2	47.9825
14,419.9	85.212	14,419.9	84.8251	14,419.9	85.2416	14,419.9	84.9062	14,419.9	85.4539	14,419.9	84.137	14,419.9	84.8647	14,419.9	81.8735	14,419.9	82.7759	14,419.9	79.614	14,419.9	79.2638	14,419.9	72.8707	14,419.9	73.0637	14,419.9	67.2322	14,419.9	68.0286	14,419.9	64.3489	14,419.9	63.8015	14,419.9	59.8849	14,419.9	61.0203	14,419.9	55.2464	14,419.9	38.2813	14,419.9	52.3839	14,419.9	48.3345	14,419.9	50.9273	14,419.9	55.669	14,419.9	52.4978	14,419.9	58.1239	14,419.9	49.2267	14,419.9	46.7795	14,419.9	43.257	14,419.9	46.0063	14,419.9	36.128	14,419.9	46.363	14,419.9	46.1951	14,419.9	45.4124	14,419.9	47.526
14,928.2	85.3437	14,928.2	85.6876	14,928.2	86.0388	14,928.2	84.7725	14,928.2	85.2955	14,928.2	84.0121	14,928.2	84.7879	14,928.2	80.739	14,928.2	82.2319	14,928.2	76.8723	14,928.2	77.805	14,928.2	70.8307	14,928.2	72.1522	14,928.2	65.7614	14,928.2	65.5487	14,928.2	59.2358	14,928.2	62.8067	14,928.2	55.4748	14,928.2	56.1723	14,928.2	52.3063	14,928.2	52.5286	14,928.2	50.4623	14,928.2	52.7794	14,928.2	49.977	14,928.2	54.1724	14,928.2	52.3602	14,928.2	53.873	14,928.2	45.5848	14,928.2	37.5138	14,928.2	42.6554	14,928.2	48.6407	14,928.2	40.4366	14,928.2	42.0006	14,928.2	49.1414	14,928.2	45.2473	14,928.2	48.2151
15,455.6	85.7754	15,455.6	85.465	15,455.6	85.76	15,455.6	84.3677	15,455.6	85.3243	15,455.6	82.5776	15,455.6	83.7952	15,455.6	79.6133	15,455.6	81.035	15,455.6	74.5256	15,455.6	75.7689	15,455.6	70.3985	15,455.6	70.3721	15,455.6	63.203	15,455.6	62.5441	15,455.6	56.5416	15,455.6	57.1432	15,455.6	48.9244	15,455.6	54.8844	15,455.6	45.7393	15,455.6	51.5661	15,455.6	35.9683	15,455.6	49.527	15,455.6	38.0494	15,455.6	53.1613	15,455.6	46.0313	15,455.6	53.9377	15,455.6	45.7176	15,455.6	28.7371	15,455.6	46.5902	15,455.6	49.9718	15,455.6	39.7767	15,455.6	47.8452	15,455.6	37.0128	15,455.6	42.1031	15,455.6	41.5229
16,000.5	85.0503	16,000.5	84.9798	16,000.5	85.7105	16,000.5	83.3492	16,000.5	84.7187	16,000.5	81.5967	16,000.5	82.6404	16,000.5	78.2623	16,000.5	79.7159	16,000.5	71.9043	16,000.5	74.1828	16,000.5	68.079	16,000.5	68.3762	16,000.5	59.5425	16,000.5	59.0245	16,000.5	55.7441	16,000.5	54.6973	16,000.5	46.8946	16,000.5	50.9078	16,000.5	47.1972	16,000.5	49.9147	16,000.5	44.6476	16,000.5	46.991	16,000.5	38.9459	16,000.5	48.3909	16,000.5	33.9233	16,000.5	49.9236	16,000.5	42.5367	16,000.5	38.2359	16,000.5	43.7605	16,000.5	44.2649	16,000.5	47.0884	16,000.5	46.9093	16,000.5	47.9182	16,000.5	35.1098	16,000.5	37.6426
16,564.5	84.5138	16,564.5	83.5531	16,564.5	85.0184	16,564.5	82.0547	16,564.5	84.1943	16,564.5	80.1389	16,564.5	81.3935	16,564.5	76.5408	16,564.5	77.5699	16,564.5	70.5736	16,564.5	71.3717	16,564.5	63.9344	16,564.5	63.6448	16,564.5	56.6805	16,564.5	59.9131	16,564.5	57.4138	16,564.5	54.2338	16,564.5	43.5118	16,564.5	48.5546	16,564.5	40.9625	16,564.5	46.8948	16,564.5	42.1066	16,564.5	44.3966	16,564.5	28.4263	16,564.5	47.9692	16,564.5	40.914	16,564.5	49.1732	16,564.5	46.3992	16,564.5	41.876	16,564.5	45.7674	16,564.5	37.4978	16,564.5	42.5156	16,564.5	44.0661	16,564.5	45.5754	16,564.5	40.9465	16,564.5	37.3167
17,148.9	83.5916	17,148.9	82.8937	17,148.9	84.1317	17,148.9	81.1694	17,148.9	82.8234	17,148.9	78.3254	17,148.9	79.8203	17,148.9	74.1501	17,148.9	75.3745	17,148.9	67.827	17,148.9	68.4871	17,148.9	59.6537	17,148.9	62.838	17,148.9	52.7013	17,148.9	60.6765	17,148.9	53.0905	17,148.9	52.4798	17,148.9	33.6767	17,148.9	45.1187	17,148.9	40.1096	17,148.9	42.0981	17,148.9	45.7083	17,148.9	42.8582	17,148.9	30.1532	17,148.9	44.0081	17,148.9	37.4398	17,148.9	48.1742	17,148.9	43.9905	17,148.9	38.8341	17,148.9	39.2491	17,148.9	31.1813	17,148.9	28.3742	17,148.9	39.3872	17,148.9	32.2129	17,148.9	37.5367	17,148.9	28.7609
17,752.4	83.2773	17,752.4	82.4527	17,752.4	83.2235	17,752.4	80.184	17,752.4	81.9067	17,752.4	76.9459	17,752.4	77.8779	17,752.4	71.429	17,752.4	72.7435	17,752.4	64.9204	17,752.4	66.4812	17,752.4	61.4678	17,752.4	63.7882	17,752.4	48.2682	17,752.4	63.6641	17,752.4	50.5934	17,752.4	49.5466	17,752.4	39.2966	17,752.4	43.4085	17,752.4	38.4431	17,752.4	40.2166	17,752.4	43.4527	17,752.4	39.5396	17,752.4	32.4248	17,752.4	35.2638	17,752.4	32.3554	17,752.4	42.2219	17,752.4	43.3468	17,752.4	25.7819	17,752.4	42.462	17,752.4	42.0048	17,752.4	37.6263	17,752.4	39.0493	17,752.4	37.5414	17,752.4	42.9711	17,752.4	26.7136
18,379.4	83.271	18,379.4	82.1823	18,379.4	82.3412	18,379.4	79.2901	18,379.4	80.5161	18,379.4	75.2868	18,379.4	75.5998	18,379.4	68.5646	18,379.4	70.4448	18,379.4	62.5997	18,379.4	65.5989	18,379.4	62.1604	18,379.4	63.5613	18,379.4	55.7172	18,379.4	63.1029	18,379.4	48.7259	18,379.4	51.9193	18,379.4	42.5888	18,379.4	44.6636	18,379.4	38.3157	18,379.4	34.5044	18,379.4	43.8943	18,379.4	41.5542	18,379.4	26.2685	18,379.4	39.4034	18,379.4	36.6185	18,379.4	47.9897	18,379.4	37.1196	18,379.4	39.61	18,379.4	41.9059	18,379.4	41.7067	18,379.4	29.2686	18,379.4	39.0009	18,379.4	37.9079	18,379.4	40.7854	18,379.4	34.3463
19,026.9	83.0701	19,026.9	81.554	19,026.9	81.7219	19,026.9	77.7877	19,026.9	78.6187	19,026.9	73.0557	19,026.9	72.871	19,026.9	67.7035	19,026.9	67.7679	19,026.9	63.7238	19,026.9	65.3558	19,026.9	60.9023	19,026.9	61.9095	19,026.9	59.3163	19,026.9	61.4374	19,026.9	51.3752	19,026.9	52.5112	19,026.9	43.1369	19,026.9	30.7562	19,026.9	33.2633	19,026.9	30.3125	19,026.9	42.0481	19,026.9	40.5905	19,026.9	38.9847	19,026.9	31.6073	19,026.9	41.7092	19,026.9	43.0923	19,026.9	38.5848	19,026.9	31.3348	19,026.9	42.6066	19,026.9	35.1553	19,026.9	36.3696	19,026.9	29.3675	19,026.9	38.3357	19,026.9	39.6007	19,026.9	37.9469
19,697.8	82.4533	19,697.8	80.6288	19,697.8	80.6532	19,697.8	76.2963	19,697.8	76.5421	19,697.8	70.6259	19,697.8	69.3629	19,697.8	67.7124	19,697.8	65.6722	19,697.8	64.749	19,697.8	64.9671	19,697.8	59.4194	19,697.8	59.726	19,697.8	57.8526	19,697.8	58.8476	19,697.8	50.4109	19,697.8	51.6875	19,697.8	45.4472	19,697.8	40.5542	19,697.8	21.0569	19,697.8	34.459	19,697.8	37.8571	19,697.8	37.0111	19,697.8	33.5608	19,697.8	32.5722	19,697.8	39.2757	19,697.8	40.9888	19,697.8	34.8787	19,697.8	32.7197	19,697.8	38.0456	19,697.8	36.3667	19,697.8	38.1751	19,697.8	36.8346	19,697.8	37.5604	19,697.8	36.3708	19,697.8	28.7953
19,999.5	82.2744	19,999.5	79.7903	19,999.5	80.0208	19,999.5	75.2037	19,999.5	75.3108	19,999.5	70.9351	19,999.5	69.0156	19,999.5	67.7959	19,999.5	65.5207	19,999.5	66.4269	19,999.5	64.5356	19,999.5	61.7656	19,999.5	59.889	19,999.5	56.846	19,999.5	58.2651	19,999.5	56.0842	19,999.5	50.161	19,999.5	41.2257	19,999.5	30.5513	19,999.5	34.7535	19,999.5	37.5303	19,999.5	48.2122	19,999.5	36.0221	19,999.5	25.148	19,999.5	29.6241	19,999.5	36.3547	19,999.5	46.3538	19,999.5	33.9711	19,999.5	33.4155	19,999.5	35.508	19,999.5	39.9608	19,999.5	40.5912	19,999.5	22.5935	19,999.5	43.4954	19,999.5	31.7365	19,999.5	41.9519
