"SPL Vertical"
"On-Axis"		"10°"		"-10°"		"20°"		"-20°"		"30°"		"-30°"		"40°"		"-40°"		"50°"		"-50°"		"60°"		"-60°"		"70°"		"-70°"		"80°"		"-80°"		"90°"		"-90°"		"100°"		"-100°"		"110°"		"-110°"		"120°"		"-120°"		"130°"		"-130°"		"140°"		"-140°"		"150°"		"-150°"		"160°"		"-160°"		"170°"		"-170°"		"180°"
"Frequency / Hz"	"Sound Pressure Level / dB (re 20 µPa/V)  [2.83  V @ 1. m]"	"Frequency / Hz"	"Sound Pressure Level / dB (re 20 µPa/V)  [2.83  V @ 1. m]"	"Frequency / Hz"	"Sound Pressure Level / dB (re 20 µPa/V)  [2.83  V @ 1. m]"	"Frequency / Hz"	"Sound Pressure Level / dB (re 20 µPa/V)  [2.83  V @ 1. m]"	"Frequency / Hz"	"Sound Pressure Level / dB (re 20 µPa/V)  [2.83  V @ 1. m]"	"Frequency / Hz"	"Sound Pressure Level / dB (re 20 µPa/V)  [2.83  V @ 1. m]"	"Frequency / Hz"	"Sound Pressure Level / dB (re 20 µPa/V)  [2.83  V @ 1. m]"	"Frequency / Hz"	"Sound Pressure Level / dB (re 20 µPa/V)  [2.83  V @ 1. m]"	"Frequency / Hz"	"Sound Pressure Level / dB (re 20 µPa/V)  [2.83  V @ 1. m]"	"Frequency / Hz"	"Sound Pressure Level / dB (re 20 µPa/V)  [2.83  V @ 1. m]"	"Frequency / Hz"	"Sound Pressure Level / dB (re 20 µPa/V)  [2.83  V @ 1. m]"	"Frequency / Hz"	"Sound Pressure Level / dB (re 20 µPa/V)  [2.83  V @ 1. m]"	"Frequency / Hz"	"Sound Pressure Level / dB (re 20 µPa/V)  [2.83  V @ 1. m]"	"Frequency / Hz"	"Sound Pressure Level / dB (re 20 µPa/V)  [2.83  V @ 1. m]"	"Frequency / Hz"	"Sound Pressure Level / dB (re 20 µPa/V)  [2.83  V @ 1. m]"	"Frequency / Hz"	"Sound Pressure Level / dB (re 20 µPa/V)  [2.83  V @ 1. m]"	"Frequency / Hz"	"Sound Pressure Level / dB (re 20 µPa/V)  [2.83  V @ 1. m]"	"Frequency / Hz"	"Sound Pressure Level / dB (re 20 µPa/V)  [2.83  V @ 1. m]"	"Frequency / Hz"	"Sound Pressure Level / dB (re 20 µPa/V)  [2.83  V @ 1. m]"	"Frequency / Hz"	"Sound Pressure Level / dB (re 20 µPa/V)  [2.83  V @ 1. m]"	"Frequency / Hz"	"Sound Pressure Level / dB (re 20 µPa/V)  [2.83  V @ 1. m]"	"Frequency / Hz"	"Sound Pressure Level / dB (re 20 µPa/V)  [2.83  V @ 1. m]"	"Frequency / Hz"	"Sound Pressure Level / dB (re 20 µPa/V)  [2.83  V @ 1. m]"	"Frequency / Hz"	"Sound Pressure Level / dB (re 20 µPa/V)  [2.83  V @ 1. m]"	"Frequency / Hz"	"Sound Pressure Level / dB (re 20 µPa/V)  [2.83  V @ 1. m]"	"Frequency / Hz"	"Sound Pressure Level / dB (re 20 µPa/V)  [2.83  V @ 1. m]"	"Frequency / Hz"	"Sound Pressure Level / dB (re 20 µPa/V)  [2.83  V @ 1. m]"	"Frequency / Hz"	"Sound Pressure Level / dB (re 20 µPa/V)  [2.83  V @ 1. m]"	"Frequency / Hz"	"Sound Pressure Level / dB (re 20 µPa/V)  [2.83  V @ 1. m]"	"Frequency / Hz"	"Sound Pressure Level / dB (re 20 µPa/V)  [2.83  V @ 1. m]"	"Frequency / Hz"	"Sound Pressure Level / dB (re 20 µPa/V)  [2.83  V @ 1. m]"	"Frequency / Hz"	"Sound Pressure Level / dB (re 20 µPa/V)  [2.83  V @ 1. m]"	"Frequency / Hz"	"Sound Pressure Level / dB (re 20 µPa/V)  [2.83  V @ 1. m]"	"Frequency / Hz"	"Sound Pressure Level / dB (re 20 µPa/V)  [2.83  V @ 1. m]"	"Frequency / Hz"	"Sound Pressure Level / dB (re 20 µPa/V)  [2.83  V @ 1. m]"	"Frequency / Hz"	"Sound Pressure Level / dB (re 20 µPa/V)  [2.83  V @ 1. m]"
20.5078	40.61	20.5078	40.6567	20.5078	40.5824	20.5078	40.7204	20.5078	40.574	20.5078	40.7977	20.5078	40.5836	20.5078	40.8836	20.5078	40.6085	20.5078	40.973	20.5078	40.6457	20.5078	41.0603	20.5078	40.6918	20.5078	41.1408	20.5078	40.7437	20.5078	41.2108	20.5078	40.7991	20.5078	41.2681	20.5078	40.8565	20.5078	41.3119	20.5078	40.9147	20.5078	41.3426	20.5078	40.9732	20.5078	41.3614	20.5078	41.0313	20.5078	41.3703	20.5078	41.0881	20.5078	41.3709	20.5078	41.1425	20.5078	41.3647	20.5078	41.193	20.5078	41.3523	20.5078	41.2382	20.5078	41.3338	20.5078	41.277	20.5078	41.3089
21.9727	49.2511	21.9727	49.2736	21.9727	49.2201	21.9727	49.2868	21.9727	49.1817	21.9727	49.2903	21.9727	49.1373	21.9727	49.284	21.9727	49.0886	21.9727	49.2683	21.9727	49.0372	21.9727	49.2435	21.9727	48.9848	21.9727	49.2101	21.9727	48.9329	21.9727	49.169	21.9727	48.8831	21.9727	49.1211	21.9727	48.8367	21.9727	49.0679	21.9727	48.7947	21.9727	49.0109	21.9727	48.7581	21.9727	48.9525	21.9727	48.7276	21.9727	48.8949	21.9727	48.7036	21.9727	48.8406	21.9727	48.6865	21.9727	48.7919	21.9727	48.6766	21.9727	48.7506	21.9727	48.6743	21.9727	48.718	21.9727	48.68	21.9727	48.6945
23.4375	47.0437	23.4375	47.0585	23.4375	47.0223	23.4375	47.066	23.4375	46.9954	23.4375	47.0656	23.4375	46.964	23.4375	47.057	23.4375	46.9292	23.4375	47.0401	23.4375	46.8921	23.4375	47.0153	23.4375	46.8537	23.4375	46.9833	23.4375	46.8149	23.4375	46.945	23.4375	46.7767	23.4375	46.9019	23.4375	46.7401	23.4375	46.8558	23.4375	46.7061	23.4375	46.8087	23.4375	46.6756	23.4375	46.7628	23.4375	46.6492	23.4375	46.7201	23.4375	46.6275	23.4375	46.6824	23.4375	46.6108	23.4375	46.6509	23.4375	46.5993	23.4375	46.6262	23.4375	46.5931	23.4375	46.6084	23.4375	46.5923	23.4375	46.5972
24.9023	47.4997	24.9023	47.5042	24.9023	47.4906	24.9023	47.5036	24.9023	47.4771	24.9023	47.4972	24.9023	47.4592	24.9023	47.4841	24.9023	47.4368	24.9023	47.4638	24.9023	47.4098	24.9023	47.4359	24.9023	47.3782	24.9023	47.4004	24.9023	47.3423	24.9023	47.358	24.9023	47.3025	24.9023	47.3099	24.9023	47.2597	24.9023	47.2578	24.9023	47.215	24.9023	47.2038	24.9023	47.1697	24.9023	47.1505	24.9023	47.1253	24.9023	47.1004	24.9023	47.0834	24.9023	47.0559	24.9023	47.0458	24.9023	47.0192	24.9023	47.0141	24.9023	46.992	24.9023	46.9899	24.9023	46.9753	24.9023	46.9747	24.9023	46.9696
26.3672	49.9553	26.3672	49.9539	26.3672	49.949	26.3672	49.9448	26.3672	49.9354	26.3672	49.9276	26.3672	49.9145	26.3672	49.902	26.3672	49.8864	26.3672	49.8678	26.3672	49.8513	26.3672	49.8251	26.3672	49.8098	26.3672	49.7745	26.3672	49.7625	26.3672	49.717	26.3672	49.7103	26.3672	49.6544	26.3672	49.6545	26.3672	49.5886	26.3672	49.5964	26.3672	49.5224	26.3672	49.5378	26.3672	49.4586	26.3672	49.4804	26.3672	49.4001	26.3672	49.426	26.3672	49.3497	26.3672	49.3767	26.3672	49.3098	26.3672	49.3343	26.3672	49.282	26.3672	49.3006	26.3672	49.2673	26.3672	49.2773	26.3672	49.2659
27.832	51.8811	27.832	51.8755	27.832	51.878	27.832	51.8611	27.832	51.8664	27.832	51.8378	27.832	51.8464	27.832	51.8058	27.832	51.8183	27.832	51.7653	27.832	51.7826	27.832	51.7169	27.832	51.7398	27.832	51.6615	27.832	51.6907	27.832	51.6004	27.832	51.6362	27.832	51.5353	27.832	51.5776	27.832	51.4685	27.832	51.5163	27.832	51.4023	27.832	51.454	27.832	51.3393	27.832	51.3925	27.832	51.2821	27.832	51.3338	27.832	51.2333	27.832	51.2802	27.832	51.1949	27.832	51.2337	27.832	51.1687	27.832	51.1964	27.832	51.1557	27.832	51.1701	27.832	51.1563
29.2969	52.7136	29.2969	52.7189	29.2969	52.698	29.2969	52.7134	29.2969	52.6728	29.2969	52.6964	29.2969	52.6388	29.2969	52.6677	29.2969	52.5966	29.2969	52.6272	29.2969	52.5467	29.2969	52.5755	29.2969	52.4898	29.2969	52.5135	29.2969	52.4269	29.2969	52.4427	29.2969	52.359	29.2969	52.3651	29.2969	52.2874	29.2969	52.2833	29.2969	52.2139	29.2969	52.2001	29.2969	52.1404	29.2969	52.1188	29.2969	52.0693	29.2969	52.0425	29.2969	52.0031	29.2969	51.9745	29.2969	51.9446	29.2969	51.9176	29.2969	51.8963	29.2969	51.8743	29.2969	51.8607	29.2969	51.8463	29.2969	51.8397	29.2969	51.8347
30.7617	54.4125	30.7617	54.4058	30.7617	54.4111	30.7617	54.3911	30.7617	54.4018	30.7617	54.3687	30.7617	54.385	30.7617	54.339	30.7617	54.3611	30.7617	54.3028	30.7617	54.331	30.7617	54.2611	30.7617	54.2955	30.7617	54.2149	30.7617	54.2555	30.7617	54.1657	30.7617	54.2121	30.7617	54.115	30.7617	54.1664	30.7617	54.0645	30.7617	54.1197	30.7617	54.0161	30.7617	54.0732	30.7617	53.9714	30.7617	54.0282	30.7617	53.9323	30.7617	53.9859	30.7617	53.9	30.7617	53.9476	30.7617	53.8758	30.7617	53.9144	30.7617	53.8603	30.7617	53.8876	30.7617	53.8539	30.7617	53.868	30.7617	53.8566
32.2266	55.7536	32.2266	55.7435	32.2266	55.7558	32.2266	55.7258	32.2266	55.7501	32.2266	55.701	32.2266	55.7364	32.2266	55.6697	32.2266	55.7151	32.2266	55.6325	32.2266	55.6866	32.2266	55.5905	32.2266	55.6516	32.2266	55.5447	32.2266	55.6112	32.2266	55.4965	32.2266	55.5665	32.2266	55.4473	32.2266	55.5189	32.2266	55.3988	32.2266	55.4701	32.2266	55.3527	32.2266	55.4214	32.2266	55.3106	32.2266	55.3745	32.2266	55.2738	32.2266	55.3309	32.2266	55.2436	32.2266	55.292	32.2266	55.2209	32.2266	55.2588	32.2266	55.2063	32.2266	55.2324	32.2266	55.2002	32.2266	55.2135	32.2266	55.2026
33.6914	57.0364	33.6914	57.0377	33.6914	57.0261	33.6914	57.0298	33.6914	57.0071	33.6914	57.0128	33.6914	56.9803	33.6914	56.9871	33.6914	56.9465	33.6914	56.9536	33.6914	56.9067	33.6914	56.9132	33.6914	56.8623	33.6914	56.8674	33.6914	56.8146	33.6914	56.8175	33.6914	56.765	33.6914	56.7655	33.6914	56.7151	33.6914	56.713	33.6914	56.6663	33.6914	56.662	33.6914	56.6202	33.6914	56.6141	33.6914	56.5781	33.6914	56.5708	33.6914	56.541	33.6914	56.5335	33.6914	56.51	33.6914	56.503	33.6914	56.4858	33.6914	56.4802	33.6914	56.4689	33.6914	56.4652	33.6914	56.4597	33.6914	56.4584
35.1562	58.0423	35.1562	58.0393	35.1562	58.0351	35.1562	58.0261	35.1562	58.018	35.1562	58.0031	35.1562	57.9913	35.1562	57.9709	35.1562	57.9558	35.1562	57.9301	35.1562	57.9124	35.1562	57.8819	35.1562	57.8623	35.1562	57.8277	35.1562	57.8069	35.1562	57.7689	35.1562	57.7477	35.1562	57.7075	35.1562	57.6864	35.1562	57.6453	35.1562	57.6251	35.1562	57.5844	35.1562	57.5655	35.1562	57.5267	35.1562	57.5095	35.1562	57.4741	35.1562	57.459	35.1562	57.4283	35.1562	57.4156	35.1562	57.3906	35.1562	57.3808	35.1562	57.3624	35.1562	57.3556	35.1562	57.3443	35.1562	57.3409	35.1562	57.3371
36.6211	59.0267	36.6211	59.0263	36.6211	59.0172	36.6211	59.0159	36.6211	58.9981	36.6211	58.9957	36.6211	58.9701	36.6211	58.9663	36.6211	58.9342	36.6211	58.9285	36.6211	58.8914	36.6211	58.8835	36.6211	58.843	36.6211	58.8328	36.6211	58.7905	36.6211	58.7782	36.6211	58.7355	36.6211	58.7215	36.6211	58.6798	36.6211	58.6645	36.6211	58.6249	36.6211	58.6093	36.6211	58.5727	36.6211	58.5574	36.6211	58.5246	36.6211	58.5105	36.6211	58.482	36.6211	58.4698	36.6211	58.4463	36.6211	58.4363	36.6211	58.4182	36.6211	58.4109	36.6211	58.3986	36.6211	58.3942	36.6211	58.388	36.6211	58.3865
38.0859	60.0589	38.0859	60.0546	38.0859	60.0518	38.0859	60.0391	38.0859	60.0336	38.0859	60.0127	38.0859	60.0049	38.0859	59.9763	38.0859	59.9668	38.0859	59.9311	38.0859	59.9205	38.0859	59.8785	38.0859	59.8674	38.0859	59.8203	38.0859	59.8094	38.0859	59.7584	38.0859	59.7482	38.0859	59.6949	38.0859	59.6857	38.0859	59.6318	38.0859	59.6239	38.0859	59.5711	38.0859	59.5647	38.0859	59.5148	38.0859	59.5098	38.0859	59.4644	38.0859	59.4607	38.0859	59.4214	38.0859	59.4188	38.0859	59.3869	38.0859	59.3852	38.0859	59.3617	38.0859	59.3607	38.0859	59.3463	38.0859	59.3458	38.0859	59.341
39.5508	61.0401	39.5508	61.0353	39.5508	61.0339	39.5508	61.0196	39.5508	61.017	39.5508	60.9935	39.5508	60.9899	39.5508	60.9579	39.5508	60.9535	39.5508	60.9138	39.5508	60.909	39.5508	60.8629	39.5508	60.8579	39.5508	60.8067	39.5508	60.8018	39.5508	60.7471	39.5508	60.7425	39.5508	60.686	39.5508	60.6818	39.5508	60.6254	39.5508	60.6216	39.5508	60.5671	39.5508	60.5638	39.5508	60.513	39.5508	60.5101	39.5508	60.4645	39.5508	60.4621	39.5508	60.423	39.5508	60.4211	39.5508	60.3896	39.5508	60.3881	39.5508	60.3651	39.5508	60.3641	39.5508	60.3501	39.5508	60.3496	39.5508	60.3449
41.0156	61.8154	41.0156	61.8093	41.0156	61.8095	41.0156	61.7913	41.0156	61.7918	41.0156	61.7618	41.0156	61.7629	41.0156	61.7217	41.0156	61.7236	41.0156	61.6723	41.0156	61.6751	41.0156	61.615	41.0156	61.6191	41.0156	61.5517	41.0156	61.5571	41.0156	61.4845	41.0156	61.4911	41.0156	61.4156	41.0156	61.4232	41.0156	61.3472	41.0156	61.3556	41.0156	61.2816	41.0156	61.2903	41.0156	61.2207	41.0156	61.2293	41.0156	61.1664	41.0156	61.1744	41.0156	61.1202	41.0156	61.1271	41.0156	61.0833	41.0156	61.0888	41.0156	61.0566	41.0156	61.0605	41.0156	61.0408	41.0156	61.0428	41.0156	61.0361
42.4805	62.955	42.4805	62.9472	42.4805	62.9533	42.4805	62.93	42.4805	62.9421	42.4805	62.904	42.4805	62.9217	42.4805	62.8696	42.4805	62.8927	42.4805	62.828	42.4805	62.8559	42.4805	62.7803	42.4805	62.8123	42.4805	62.728	42.4805	62.7631	42.4805	62.6727	42.4805	62.7099	42.4805	62.6163	42.4805	62.6542	42.4805	62.5606	42.4805	62.5979	42.4805	62.5072	42.4805	62.5426	42.4805	62.4579	42.4805	62.4901	42.4805	62.414	42.4805	62.4422	42.4805	62.377	42.4805	62.4002	42.4805	62.3477	42.4805	62.3655	42.4805	62.3271	42.4805	62.3391	42.4805	62.3157	42.4805	62.3217	42.4805	62.3139
43.9453	63.9151	43.9453	63.9065	43.9453	63.9134	43.9453	63.8879	43.9453	63.9014	43.9453	63.8597	43.9453	63.8796	43.9453	63.823	43.9453	63.8485	43.9453	63.7787	43.9453	63.8092	43.9453	63.7282	43.9453	63.7628	43.9453	63.673	43.9453	63.7109	43.9453	63.615	43.9453	63.6551	43.9453	63.5558	43.9453	63.5972	43.9453	63.4975	43.9453	63.5391	43.9453	63.442	43.9453	63.4825	43.9453	63.391	43.9453	63.4292	43.9453	63.3461	43.9453	63.3808	43.9453	63.3088	43.9453	63.3385	43.9453	63.2799	43.9453	63.3034	43.9453	63.2602	43.9453	63.2765	43.9453	63.25	43.9453	63.2584	43.9453	63.2494
45.4102	64.8718	45.4102	64.8669	45.4102	64.8674	45.4102	64.8527	45.4102	64.854	45.4102	64.8298	45.4102	64.8317	45.4102	64.7985	45.4102	64.8015	45.4102	64.7597	45.4102	64.764	45.4102	64.7146	45.4102	64.7205	45.4102	64.6645	45.4102	64.6722	45.4102	64.6109	45.4102	64.6209	45.4102	64.5558	45.4102	64.5681	45.4102	64.501	45.4102	64.5155	45.4102	64.4485	45.4102	64.4648	45.4102	64.4001	45.4102	64.4174	45.4102	64.3575	45.4102	64.3748	45.4102	64.3219	45.4102	64.3381	45.4102	64.2943	45.4102	64.3079	45.4102	64.2752	45.4102	64.2851	45.4102	64.2649	45.4102	64.2701	45.4102	64.2632
46.875	65.8451	46.875	65.8427	46.875	65.837	46.875	65.8296	46.875	65.8185	46.875	65.8063	46.875	65.79	46.875	65.7734	46.875	65.7522	46.875	65.7315	46.875	65.7061	46.875	65.6819	46.875	65.653	46.875	65.6259	46.875	65.5944	46.875	65.5651	46.875	65.5319	46.875	65.5014	46.875	65.4675	46.875	65.4366	46.875	65.4031	46.875	65.3729	46.875	65.3409	46.875	65.3124	46.875	65.2829	46.875	65.257	46.875	65.2309	46.875	65.2084	46.875	65.1865	46.875	65.1683	46.875	65.1513	46.875	65.1379	46.875	65.1263	46.875	65.1181	46.875	65.1122	46.875	65.1094
48.3398	66.6945	48.3398	66.695	48.3398	66.6847	48.3398	66.6861	48.3398	66.6661	48.3398	66.6677	48.3398	66.639	48.3398	66.64	48.3398	66.604	48.3398	66.6035	48.3398	66.5619	48.3398	66.559	48.3398	66.5137	48.3398	66.5078	48.3398	66.4605	48.3398	66.4513	48.3398	66.4036	48.3398	66.3913	48.3398	66.3447	48.3398	66.3298	48.3398	66.2855	48.3398	66.2688	48.3398	66.2277	48.3398	66.2103	48.3398	66.1733	48.3398	66.1563	48.3398	66.1241	48.3398	66.1085	48.3398	66.0818	48.3398	66.0686	48.3398	66.048	48.3398	66.038	48.3398	66.024	48.3398	66.0177	48.3398	66.0106	48.3398	66.0085
51.2695	68.3285	51.2695	68.3176	51.2695	68.3302	51.2695	68.2978	51.2695	68.3226	51.2695	68.27	51.2695	68.306	51.2695	68.2351	51.2695	68.2809	51.2695	68.1943	51.2695	68.2485	51.2695	68.1493	51.2695	68.2099	51.2695	68.1015	51.2695	68.1668	51.2695	68.0527	51.2695	68.1208	51.2695	68.0047	51.2695	68.0736	51.2695	67.959	51.2695	68.027	51.2695	67.9173	51.2695	67.9824	51.2695	67.8805	51.2695	67.9409	51.2695	67.8498	51.2695	67.9037	51.2695	67.8256	51.2695	67.8713	51.2695	67.8083	51.2695	67.8442	51.2695	67.798	51.2695	67.8227	51.2695	67.7945	51.2695	67.8071	51.2695	67.7976
52.7344	69.1756	52.7344	69.1666	52.7344	69.1724	52.7344	69.1461	52.7344	69.1573	52.7344	69.115	52.7344	69.131	52.7344	69.0748	52.7344	69.0947	52.7344	69.0276	52.7344	69.0504	52.7344	68.9754	52.7344	69.0001	52.7344	68.9205	52.7344	68.9461	52.7344	68.8652	52.7344	68.8909	52.7344	68.8114	52.7344	68.8367	52.7344	68.761	52.7344	68.7855	52.7344	68.7155	52.7344	68.7389	52.7344	68.676	52.7344	68.6978	52.7344	68.6432	52.7344	68.663	52.7344	68.6173	52.7344	68.6345	52.7344	68.5983	52.7344	68.6122	52.7344	68.586	52.7344	68.5958	52.7344	68.5799	52.7344	68.585	52.7344	68.5797
54.1992	69.9368	54.1992	69.9414	54.1992	69.9172	54.1992	69.9309	54.1992	69.8833	54.1992	69.9062	54.1992	69.8367	54.1992	69.8688	54.1992	69.7795	54.1992	69.8208	54.1992	69.7143	54.1992	69.7647	54.1992	69.6441	54.1992	69.7034	54.1992	69.5719	54.1992	69.6395	54.1992	69.5007	54.1992	69.5755	54.1992	69.4333	54.1992	69.5136	54.1992	69.3722	54.1992	69.4556	54.1992	69.3192	54.1992	69.4027	54.1992	69.2758	54.1992	69.3557	54.1992	69.2424	54.1992	69.3149	54.1992	69.2192	54.1992	69.2803	54.1992	69.2055	54.1992	69.2519	54.1992	69.2006	54.1992	69.2296	54.1992	69.2035	54.1992	69.2134
55.6641	70.723	55.6641	70.7229	55.6641	70.7092	55.6641	70.709	55.6641	70.682	55.6641	70.6815	55.6641	70.6424	55.6641	70.6416	55.6641	70.5916	55.6641	70.5907	55.6641	70.5314	55.6641	70.5307	55.6641	70.4637	55.6641	70.4637	55.6641	70.3906	55.6641	70.3923	55.6641	70.3145	55.6641	70.3191	55.6641	70.2379	55.6641	70.2464	55.6641	70.1636	55.6641	70.1765	55.6641	70.094	55.6641	70.1112	55.6641	70.0316	55.6641	70.052	55.6641	69.9781	55.6641	70.0001	55.6641	69.9353	55.6641	69.9564	55.6641	69.904	55.6641	69.9216	55.6641	69.8847	55.6641	69.8963	55.6641	69.8772	55.6641	69.8813
58.5938	72.2953	58.5938	72.2896	58.5938	72.2892	58.5938	72.2721	58.5938	72.2715	58.5938	72.2431	58.5938	72.2428	58.5938	72.2034	58.5938	72.204	58.5938	72.1542	58.5938	72.1562	58.5938	72.0968	58.5938	72.101	58.5938	72.0332	58.5938	72.04	58.5938	71.9653	58.5938	71.975	58.5938	71.8956	58.5938	71.908	58.5938	71.8262	58.5938	71.8411	58.5938	71.7596	58.5938	71.7762	58.5938	71.698	58.5938	71.7152	58.5938	71.6432	58.5938	71.66	58.5938	71.5968	58.5938	71.6121	58.5938	71.5602	58.5938	71.5728	58.5938	71.5342	58.5938	71.5432	58.5938	71.5194	58.5938	71.5241	58.5938	71.5161
60.0586	72.8341	60.0586	72.8278	60.0586	72.8289	60.0586	72.8102	60.0586	72.8125	60.0586	72.7819	60.0586	72.7853	60.0586	72.7439	60.0586	72.7484	60.0586	72.6975	60.0586	72.7031	60.0586	72.6444	60.0586	72.651	60.0586	72.5865	60.0586	72.5938	60.0586	72.5257	60.0586	72.5337	60.0586	72.4641	60.0586	72.4726	60.0586	72.4037	60.0586	72.4125	60.0586	72.3465	60.0586	72.3554	60.0586	72.2942	60.0586	72.3028	60.0586	72.248	60.0586	72.2562	60.0586	72.2093	60.0586	72.2165	60.0586	72.1787	60.0586	72.1846	60.0586	72.157	60.0586	72.1611	60.0586	72.1443	60.0586	72.1464	60.0586	72.1408
62.9883	73.942	62.9883	73.9337	62.9883	73.9394	62.9883	73.9148	62.9883	73.9258	62.9883	73.8863	62.9883	73.9019	62.9883	73.8494	62.9883	73.8685	62.9883	73.8056	62.9883	73.8271	62.9883	73.7569	62.9883	73.7795	62.9883	73.7052	62.9883	73.7276	62.9883	73.6525	62.9883	73.6736	62.9883	73.6006	62.9883	73.6196	62.9883	73.5514	62.9883	73.5677	62.9883	73.5062	62.9883	73.5196	62.9883	73.4661	62.9883	73.4767	62.9883	73.432	62.9883	73.4399	62.9883	73.4042	62.9883	73.4098	62.9883	73.3827	62.9883	73.3865	62.9883	73.3677	62.9883	73.3699	62.9883	73.3589	62.9883	73.3599	62.9883	73.3563
64.4531	74.6153	64.4531	74.6077	64.4531	74.6117	64.4531	74.5893	64.4531	74.597	64.4531	74.5608	64.4531	74.5717	64.4531	74.5234	64.4531	74.537	64.4531	74.4788	64.4531	74.4941	64.4531	74.4288	64.4531	74.445	64.4531	74.3752	64.4531	74.3916	64.4531	74.3203	64.4531	74.3362	64.4531	74.2661	64.4531	74.2809	64.4531	74.2143	64.4531	74.2277	64.4531	74.1667	64.4531	74.1784	64.4531	74.1244	64.4531	74.1343	64.4531	74.0883	64.4531	74.0965	64.4531	74.0589	64.4531	74.0654	64.4531	74.0364	64.4531	74.0412	64.4531	74.0207	64.4531	74.0239	64.4531	74.0117	64.4531	74.0133	64.4531	74.0093
67.3828	75.8621	67.3828	75.8553	67.3828	75.8575	67.3828	75.8373	67.3828	75.8416	67.3828	75.809	67.3828	75.8151	67.3828	75.7714	67.3828	75.7791	67.3828	75.7262	67.3828	75.735	67.3828	75.6753	67.3828	75.6848	67.3828	75.6208	67.3828	75.6306	67.3828	75.5649	67.3828	75.5746	67.3828	75.5098	67.3828	75.5191	67.3828	75.4574	67.3828	75.4661	67.3828	75.4094	67.3828	75.4173	67.3828	75.3671	67.3828	75.3742	67.3828	75.3313	67.3828	75.3374	67.3828	75.3024	67.3828	75.3075	67.3828	75.2805	67.3828	75.2845	67.3828	75.2654	67.3828	75.2681	67.3828	75.2568	67.3828	75.2581	67.3828	75.2544
68.8477	76.4363	68.8477	76.4283	68.8477	76.4325	68.8477	76.4088	68.8477	76.4171	68.8477	76.3788	68.8477	76.3908	68.8477	76.3395	68.8477	76.3546	68.8477	76.2926	68.8477	76.3101	68.8477	76.2401	68.8477	76.2594	68.8477	76.1843	68.8477	76.2046	68.8477	76.1276	68.8477	76.1479	68.8477	76.072	68.8477	76.0919	68.8477	76.0196	68.8477	76.0384	68.8477	75.9721	68.8477	75.9893	68.8477	75.9306	68.8477	75.9459	68.8477	75.8959	68.8477	75.909	68.8477	75.8682	68.8477	75.8789	68.8477	75.8475	68.8477	75.8557	68.8477	75.8335	68.8477	75.8391	68.8477	75.8259	68.8477	75.8287	68.8477	75.8243
71.7773	77.5016	71.7773	77.4958	71.7773	77.4947	71.7773	77.4775	71.7773	77.4754	71.7773	77.4477	71.7773	77.4445	71.7773	77.4078	71.7773	77.4034	71.7773	77.3596	71.7773	77.3539	71.7773	77.3054	71.7773	77.2983	71.7773	77.2475	71.7773	77.2391	71.7773	77.1884	71.7773	77.1788	71.7773	77.1304	71.7773	77.12	71.7773	77.0758	71.7773	77.0648	71.7773	77.0262	71.7773	77.0151	71.7773	76.9828	71.7773	76.9721	71.7773	76.9462	71.7773	76.9365	71.7773	76.9168	71.7773	76.9085	71.7773	76.8943	71.7773	76.8878	71.7773	76.8783	71.7773	76.8739	71.7773	76.8685	71.7773	76.8662	71.7773	76.8645
74.707	78.4829	74.707	78.4787	74.707	78.4747	74.707	78.4623	74.707	78.4543	74.707	78.4346	74.707	78.4226	74.707	78.3969	74.707	78.3808	74.707	78.3512	74.707	78.331	74.707	78.2994	74.707	78.2754	74.707	78.2439	74.707	78.2164	74.707	78.1872	74.707	78.1568	74.707	78.1315	74.707	78.0991	74.707	78.0789	74.707	78.0455	74.707	78.031	74.707	77.998	74.707	77.989	74.707	77.9576	74.707	77.9534	74.707	77.9251	74.707	77.9243	74.707	77.9003	74.707	77.9017	74.707	77.8829	74.707	77.8851	74.707	77.8721	74.707	77.874	74.707	77.8674	74.707	77.8681
77.6367	79.4264	77.6367	79.4219	77.6367	79.4177	77.6367	79.4045	77.6367	79.396	77.6367	79.3751	77.6367	79.3623	77.6367	79.3352	77.6367	79.3181	77.6367	79.2866	77.6367	79.2653	77.6367	79.2317	77.6367	79.2064	77.6367	79.1729	77.6367	79.1441	77.6367	79.1129	77.6367	79.0812	77.6367	79.0542	77.6367	79.0204	77.6367	78.999	77.6367	78.9643	77.6367	78.949	77.6367	78.9146	77.6367	78.9053	77.6367	78.8727	77.6367	78.8686	77.6367	78.8391	77.6367	78.839	77.6367	78.8138	77.6367	78.816	77.6367	78.7962	77.6367	78.7991	77.6367	78.7855	77.6367	78.7879	77.6367	78.781	77.6367	78.7819
79.1016	79.8628	79.1016	79.8576	79.1016	79.8545	79.1016	79.8394	79.1016	79.8332	79.1016	79.8091	79.1016	79.7997	79.1016	79.7682	79.1016	79.7555	79.1016	79.7187	79.1016	79.7026	79.1016	79.663	79.1016	79.6435	79.1016	79.6036	79.1016	79.581	79.1016	79.5432	79.1016	79.518	79.1016	79.4845	79.1016	79.4573	79.1016	79.4295	79.1016	79.4012	79.1016	79.38	79.1016	79.3518	79.1016	79.3372	79.1016	79.3102	79.1016	79.3016	79.1016	79.2771	79.1016	79.2731	79.1016	79.2522	79.1016	79.2514	79.1016	79.2349	79.1016	79.2357	79.1016	79.2244	79.1016	79.2255	79.1016	79.2197	79.1016	79.2202
82.0312	80.6706	82.0312	80.6639	82.0312	80.6631	82.0312	80.6434	82.0312	80.6417	82.0312	80.61	82.0312	80.6072	82.0312	80.5654	82.0312	80.5613	82.0312	80.5118	82.0312	80.5062	82.0312	80.4517	82.0312	80.4444	82.0312	80.3878	82.0312	80.3788	82.0312	80.3232	82.0312	80.3125	82.0312	80.2605	82.0312	80.2485	82.0312	80.2022	82.0312	80.1892	82.0312	80.1501	82.0312	80.1368	82.0312	80.1055	82.0312	80.0926	82.0312	80.0688	82.0312	80.057	82.0312	80.0401	82.0312	80.03	82.0312	80.0187	82.0312	80.0108	82.0312	80.0039	82.0312	79.9985	82.0312	79.9949	82.0312	79.9921	82.0312	79.991
84.9609	81.3517	84.9609	81.3447	84.9609	81.3448	84.9609	81.324	84.9609	81.3241	84.9609	81.2907	84.9609	81.2906	84.9609	81.2465	84.9609	81.2458	84.9609	81.1936	84.9609	81.1921	84.9609	81.1346	84.9609	81.132	84.9609	81.0722	84.9609	81.0684	84.9609	81.0094	84.9609	81.0044	84.9609	80.9489	84.9609	80.9429	84.9609	80.893	84.9609	80.8864	84.9609	80.8436	84.9609	80.8368	84.9609	80.8017	84.9609	80.7952	84.9609	80.7678	84.9609	80.762	84.9609	80.7416	84.9609	80.7369	84.9609	80.7226	84.9609	80.719	84.9609	80.7098	84.9609	80.7075	84.9609	80.7024	84.9609	80.7012	84.9609	80.6996
87.8906	82.0672	87.8906	82.0618	87.8906	82.0573	87.8906	82.0414	87.8906	82.0325	87.8906	82.0072	87.8906	81.9942	87.8906	81.9609	87.8906	81.9443	87.8906	81.905	87.8906	81.8853	87.8906	81.8424	87.8906	81.8203	87.8906	81.7763	87.8906	81.7527	87.8906	81.71	87.8906	81.6858	87.8906	81.6466	87.8906	81.6228	87.8906	81.5886	87.8906	81.5662	87.8906	81.5381	87.8906	81.5178	87.8906	81.4962	87.8906	81.4788	87.8906	81.4631	87.8906	81.449	87.8906	81.4385	87.8906	81.4276	87.8906	81.4213	87.8906	81.4135	87.8906	81.41	87.8906	81.4051	87.8906	81.4035	87.8906	81.4012	87.8906	81.4007
90.8203	82.6329	90.8203	82.6278	90.8203	82.6237	90.8203	82.6089	90.8203	82.6005	90.8203	82.577	90.8203	82.5644	90.8203	82.534	90.8203	82.5171	90.8203	82.4819	90.8203	82.461	90.8203	82.4235	90.8203	82.3989	90.8203	82.3617	90.8203	82.334	90.8203	82.2994	90.8203	82.2696	90.8203	82.2395	90.8203	82.2087	90.8203	82.1845	90.8203	82.1541	90.8203	82.1361	90.8203	82.1074	90.8203	82.0957	90.8203	82.0699	90.8203	82.0635	90.8203	82.0415	90.8203	82.0392	90.8203	82.0215	90.8203	82.0217	90.8203	82.0086	90.8203	82.01	90.8203	82.0014	90.8203	82.0027	90.8203	81.9984	90.8203	81.999
95.2148	83.4718	95.2148	83.4676	95.2148	83.4596	95.2148	83.4474	95.2148	83.4316	95.2148	83.4125	95.2148	83.389	95.2148	83.3647	95.2148	83.3337	95.2148	83.3066	95.2148	83.2686	95.2148	83.2412	95.2148	83.1969	95.2148	83.1719	95.2148	83.1225	95.2148	83.1021	95.2148	83.0491	95.2148	83.0352	95.2148	82.9802	95.2148	82.9738	95.2148	82.919	95.2148	82.9202	95.2148	82.8675	95.2148	82.8755	95.2148	82.8269	95.2148	82.84	95.2148	82.7972	95.2148	82.8131	95.2148	82.7774	95.2148	82.7935	95.2148	82.766	95.2148	82.7797	95.2148	82.761	95.2148	82.7702	95.2148	82.7608	95.2148	82.764
98.1445	83.8944	98.1445	83.8939	98.1445	83.8788	98.1445	83.8776	98.1445	83.8476	98.1445	83.8467	98.1445	83.8022	98.1445	83.8032	98.1445	83.7452	98.1445	83.7497	98.1445	83.6794	98.1445	83.6894	98.1445	83.6087	98.1445	83.6257	98.1445	83.5369	98.1445	83.5619	98.1445	83.468	98.1445	83.5011	98.1445	83.4054	98.1445	83.4461	98.1445	83.3519	98.1445	83.3986	98.1445	83.3093	98.1445	83.3595	98.1445	83.2781	98.1445	83.3288	98.1445	83.2578	98.1445	83.3057	98.1445	83.247	98.1445	83.2886	98.1445	83.2436	98.1445	83.2758	98.1445	83.2454	98.1445	83.2658	98.1445	83.2505	98.1445	83.2575
101.074	84.2928	101.074	84.2979	101.074	84.2697	101.074	84.2851	101.074	84.2294	101.074	84.2557	101.074	84.1739	101.074	84.2118	101.074	84.106	101.074	84.1562	101.074	84.0294	101.074	84.0923	101.074	83.9484	101.074	84.0239	101.074	83.8676	101.074	83.9548	101.074	83.7915	101.074	83.8885	101.074	83.724	101.074	83.828	101.074	83.6681	101.074	83.7754	101.074	83.6256	101.074	83.7319	101.074	83.5969	101.074	83.6974	101.074	83.5811	101.074	83.671	101.074	83.5759	101.074	83.651	101.074	83.5788	101.074	83.6353	101.074	83.5869	101.074	83.6219	101.074	83.5976	101.074	83.6095
105.469	84.7996	105.469	84.8092	105.469	84.772	105.469	84.8011	105.469	84.7273	105.469	84.7765	105.469	84.6673	105.469	84.7375	105.469	84.5948	105.469	84.6867	105.469	84.5134	105.469	84.6276	105.469	84.4275	105.469	84.5635	105.469	84.3418	105.469	84.4979	105.469	84.261	105.469	84.4341	105.469	84.1893	105.469	84.3744	105.469	84.1303	105.469	84.3208	105.469	84.0859	105.469	84.2741	105.469	84.0568	105.469	84.2343	105.469	84.0421	105.469	84.2006	105.469	84.0399	105.469	84.1717	105.469	84.0473	105.469	84.1461	105.469	84.0615	105.469	84.1227	105.469	84.0799	105.469	84.1007
108.398	85.1301	108.398	85.1361	108.398	85.1055	108.398	85.1239	108.398	85.0628	108.398	85.0951	108.398	85.0039	108.398	85.052	108.398	84.9315	108.398	84.9978	108.398	84.8492	108.398	84.936	108.398	84.7617	108.398	84.8705	108.398	84.6738	108.398	84.805	108.398	84.5907	108.398	84.7428	108.398	84.517	108.398	84.6863	108.398	84.4565	108.398	84.637	108.398	84.4115	108.398	84.5955	108.398	84.383	108.398	84.5611	108.398	84.37	108.398	84.5326	108.398	84.3704	108.398	84.508	108.398	84.381	108.398	84.4855	108.398	84.3983	108.398	84.4636	108.398	84.4193	108.398	84.4415
112.793	85.6707	112.793	85.6705	112.793	85.6505	112.793	85.6506	112.793	85.6106	112.793	85.6127	112.793	85.5526	112.793	85.5595	112.793	85.4794	112.793	85.4946	112.793	85.3946	112.793	85.4221	112.793	85.303	112.793	85.3465	112.793	85.2097	112.793	85.2722	112.793	85.1202	112.793	85.2029	112.793	85.0393	112.793	85.1417	112.793	84.9715	112.793	85.0902	112.793	84.9194	112.793	85.0488	112.793	84.8843	112.793	85.0166	112.793	84.8656	112.793	84.9916	112.793	84.8612	112.793	84.9714	112.793	84.8677	112.793	84.9535	112.793	84.8815	112.793	84.936	112.793	84.8991	112.793	84.9178
117.188	85.9549	117.188	85.9565	117.188	85.9327	117.188	85.9381	117.188	85.8903	117.188	85.9012	117.188	85.8295	117.188	85.8486	117.188	85.753	117.188	85.7838	117.188	85.6649	117.188	85.7107	117.188	85.5698	117.188	85.6337	117.188	85.4732	117.188	85.5571	117.188	85.3804	117.188	85.4848	117.188	85.2969	117.188	85.4199	117.188	85.2268	117.188	85.3641	117.188	85.173	117.188	85.3182	117.188	85.1367	117.188	85.2815	117.188	85.1171	117.188	85.2525	117.188	85.1119	117.188	85.2288	117.188	85.1181	117.188	85.2081	117.188	85.1318	117.188	85.1885	117.188	85.1496	117.188	85.169
120.117	86.1635	120.117	86.1665	120.117	86.1399	120.117	86.1496	120.117	86.0961	120.117	86.1148	120.117	86.0339	120.117	86.0647	120.117	85.9561	120.117	86.003	120.117	85.8668	120.117	85.9339	120.117	85.7709	120.117	85.8617	120.117	85.6741	120.117	85.7907	120.117	85.5821	120.117	85.7245	120.117	85.5003	120.117	85.6656	120.117	85.4333	120.117	85.6156	120.117	85.3838	120.117	85.5746	120.117	85.3529	120.117	85.5416	120.117	85.3396	120.117	85.5147	120.117	85.3414	120.117	85.4915	120.117	85.3545	120.117	85.4697	120.117	85.375	120.117	85.4474	120.117	85.399	120.117	85.4237
124.512	86.4089	124.512	86.404	124.512	86.392	124.512	86.3783	124.512	86.3537	124.512	86.334	124.512	86.2956	124.512	86.2746	124.512	86.2207	124.512	86.2042	124.512	86.1332	124.512	86.1278	124.512	86.0382	124.512	86.0505	124.512	85.9417	124.512	85.9773	124.512	85.8498	124.512	85.912	124.512	85.7682	124.512	85.8575	124.512	85.7016	124.512	85.8149	124.512	85.653	124.512	85.7839	124.512	85.6235	124.512	85.7624	124.512	85.6118	124.512	85.7474	124.512	85.615	124.512	85.7357	124.512	85.629	124.512	85.7241	124.512	85.6493	124.512	85.71	124.512	85.6715	124.512	85.6923
128.906	86.6276	128.906	86.6193	128.906	86.6128	128.906	86.5892	128.906	86.5754	128.906	86.5396	128.906	86.5169	128.906	86.4742	128.906	86.4404	128.906	86.3976	128.906	86.3502	128.906	86.3151	128.906	86.252	128.906	86.2322	128.906	86.1518	128.906	86.1543	128.906	86.0564	128.906	86.0859	128.906	85.9717	128.906	86.03	128.906	85.9029	128.906	85.9881	128.906	85.8532	128.906	85.9595	128.906	85.8236	128.906	85.942	128.906	85.8127	128.906	85.9321	128.906	85.8172	128.906	85.9258	128.906	85.8326	128.906	85.9193	128.906	85.8536	128.906	85.9094	128.906	85.8755	128.906	85.8948
133.301	86.7943	133.301	86.7847	133.301	86.779	133.301	86.7513	133.301	86.7393	133.301	86.6968	133.301	86.677	133.301	86.6251	133.301	86.5957	133.301	86.5415	133.301	86.5002	133.301	86.4518	133.301	86.3964	133.301	86.3622	133.301	86.2911	133.301	86.2788	133.301	86.1912	133.301	86.2065	133.301	86.1031	133.301	86.1487	133.301	86.0322	133.301	86.1067	133.301	85.9817	133.301	86.0797	133.301	85.9525	133.301	86.0651	133.301	85.9429	133.301	86.0588	133.301	85.9494	133.301	86.0562	133.301	85.9668	133.301	86.0528	133.301	85.9896	133.301	86.0453	133.301	86.0126	133.301	86.0319
139.16	86.9521	139.16	86.9387	139.16	86.94	139.16	86.9008	139.16	86.9025	139.16	86.8415	139.16	86.8416	139.16	86.7648	139.16	86.7609	139.16	86.6763	139.16	86.6652	139.16	86.5822	139.16	86.5608	139.16	86.4893	139.16	86.4545	139.16	86.4037	139.16	86.3538	139.16	86.3309	139.16	86.2654	139.16	86.2742	139.16	86.1948	139.16	86.2351	139.16	86.1453	139.16	86.2125	139.16	86.1177	139.16	86.2034	139.16	86.11	139.16	86.2032	139.16	86.1182	139.16	86.2069	139.16	86.1366	139.16	86.2095	139.16	86.1593	139.16	86.2071	139.16	86.181	139.16	86.1976
143.555	87.0466	143.555	87.0293	143.555	87.0369	143.555	86.9865	143.555	87.0005	143.555	86.9212	143.555	86.9393	143.555	86.8379	143.555	86.8569	143.555	86.7423	143.555	86.7582	143.555	86.6414	143.555	86.6498	143.555	86.5422	143.555	86.5388	143.555	86.4516	143.555	86.4332	143.555	86.3754	143.555	86.3402	143.555	86.3173	143.555	86.2657	143.555	86.2787	143.555	86.2135	143.555	86.2584	143.555	86.1845	143.555	86.2528	143.555	86.1765	143.555	86.2569	143.555	86.1851	143.555	86.2648	143.555	86.2042	143.555	86.2713	143.555	86.2275	143.555	86.272	143.555	86.2491	143.555	86.2646
147.949	87.12	147.949	87.0995	147.949	87.1111	147.949	87.051	147.949	87.073	147.949	86.9777	147.949	87.0076	147.949	86.8845	147.949	86.9188	147.949	86.7776	147.949	86.812	147.949	86.6647	147.949	86.694	147.949	86.5536	147.949	86.573	147.949	86.4522	147.949	86.4575	147.949	86.3671	147.949	86.3553	147.949	86.3026	147.949	86.2732	147.949	86.2604	147.949	86.2152	147.949	86.2392	147.949	86.1823	147.949	86.2349	147.949	86.1724	147.949	86.2417	147.949	86.1805	147.949	86.2532	147.949	86.2001	147.949	86.2629	147.949	86.2239	147.949	86.2663	147.949	86.2457	147.949	86.2606
153.809	87.1105	153.809	87.0872	153.809	87.1023	153.809	87.0337	153.809	87.0632	153.809	86.9533	153.809	86.9955	153.809	86.8513	153.809	86.9035	153.809	86.7344	153.809	86.793	153.809	86.6111	153.809	86.6713	153.809	86.4902	153.809	86.5469	153.809	86.3806	153.809	86.4284	153.809	86.2898	153.809	86.3242	153.809	86.223	153.809	86.241	153.809	86.1821	153.809	86.183	153.809	86.1655	153.809	86.1512	153.809	86.1685	153.809	86.143	153.809	86.1842	153.809	86.1532	153.809	86.2048	153.809	86.1745	153.809	86.2231	153.809	86.1992	153.809	86.2334	153.809	86.2203	153.809	86.2326
159.668	87.2317	159.668	87.2019	159.668	87.2281	159.668	87.1399	159.668	87.1919	159.668	87.0485	159.668	87.1257	159.668	86.933	159.668	87.034	159.668	86.8001	159.668	86.9228	159.668	86.6586	159.668	86.7995	159.668	86.5182	159.668	86.6726	159.668	86.3888	159.668	86.551	159.668	86.2796	159.668	86.4429	159.668	86.1971	159.668	86.3548	159.668	86.145	159.668	86.2908	159.668	86.1226	159.668	86.2514	159.668	86.1257	159.668	86.2339	159.668	86.147	159.668	86.233	159.668	86.1779	159.668	86.2413	159.668	86.2099	159.668	86.2513	159.668	86.236	159.668	86.2565	159.668	86.252
165.527	87.2608	165.527	87.2401	165.527	87.247	165.527	87.1862	165.527	87.1995	165.527	87.1025	165.527	87.121	165.527	86.9943	165.527	87.0163	165.527	86.8687	165.527	86.8921	165.527	86.7344	165.527	86.7569	165.527	86.6011	165.527	86.6204	165.527	86.4785	165.527	86.4926	165.527	86.3753	165.527	86.3826	165.527	86.2978	165.527	86.2979	165.527	86.2492	165.527	86.2423	165.527	86.2284	165.527	86.2158	165.527	86.2309	165.527	86.2147	165.527	86.2494	165.527	86.2321	165.527	86.2753	165.527	86.2594	165.527	86.2999	165.527	86.2877	165.527	86.3162	165.527	86.3096	165.527	86.3198
171.387	87.1266	171.387	87.103	171.387	87.114	171.387	87.0449	171.387	87.0661	171.387	86.9558	171.387	86.9856	171.387	86.8414	171.387	86.8773	171.387	86.7093	171.387	86.7483	171.387	86.5689	171.387	86.6072	171.387	86.4305	171.387	86.4642	171.387	86.3045	171.387	86.3301	171.387	86.2001	171.387	86.215	171.387	86.1238	171.387	86.1268	171.387	86.0785	171.387	86.0701	171.387	86.0629	171.387	86.045	171.387	86.0714	171.387	86.0473	171.387	86.0959	171.387	86.0696	171.387	86.1267	171.387	86.1025	171.387	86.1546	171.387	86.1361	171.387	86.1723	171.387	86.1623	171.387	86.1753
177.246	87.0108	177.246	86.981	177.246	87.0031	177.246	86.9152	177.246	86.9585	177.246	86.8174	177.246	86.8797	177.246	86.6936	177.246	86.7716	177.246	86.5518	177.246	86.6411	177.246	86.4022	177.246	86.4971	177.246	86.2557	177.246	86.3502	177.246	86.1236	177.246	86.2114	177.246	86.0158	177.246	86.0913	177.246	85.9391	177.246	85.9983	177.246	85.8963	177.246	85.9375	177.246	85.8854	177.246	85.9093	177.246	85.9003	177.246	85.9095	177.246	85.9317	177.246	85.9306	177.246	85.9692	177.246	85.9626	177.246	86.0029	177.246	85.9956	177.246	86.0252	177.246	86.0205	177.246	86.0314
183.105	86.893	183.105	86.86	183.105	86.8867	183.105	86.7894	183.105	86.842	183.105	86.6849	183.105	86.7619	183.105	86.5531	183.105	86.6518	183.105	86.4027	183.105	86.5194	183.105	86.2444	183.105	86.3743	183.105	86.0907	183.105	86.2279	183.105	85.9541	183.105	86.0919	183.105	85.8459	183.105	85.9774	183.105	85.774	183.105	85.8929	183.105	85.7413	183.105	85.8428	183.105	85.7453	183.105	85.8266	183.105	85.7782	183.105	85.8389	183.105	85.8289	183.105	85.8708	183.105	85.8848	183.105	85.9113	183.105	85.9345	183.105	85.9493	183.105	85.969	183.105	85.9755	183.105	85.983
188.965	86.8801	188.965	86.8467	188.965	86.8697	188.965	86.771	188.965	86.8163	188.965	86.6569	188.965	86.7232	188.965	86.5105	188.965	86.5959	188.965	86.3406	188.965	86.4426	188.965	86.1585	188.965	86.274	188.965	85.9772	188.965	86.1026	188.965	85.8111	188.965	85.942	188.965	85.6735	188.965	85.8051	188.965	85.575	188.965	85.7023	188.965	85.5212	188.965	85.639	188.965	85.5113	188.965	85.6151	188.965	85.5379	188.965	85.6246	188.965	85.589	188.965	85.6569	188.965	85.6501	188.965	85.6993	188.965	85.7072	188.965	85.7388	188.965	85.7491	188.965	85.7644	188.965	85.7689
196.289	86.8905	196.289	86.8667	196.289	86.8697	196.289	86.7994	196.289	86.8055	196.289	86.6918	196.289	86.7012	196.289	86.5492	196.289	86.5626	196.289	86.3796	196.289	86.398	196.289	86.1931	196.289	86.2182	196.289	86.0024	196.289	86.0363	196.289	85.8215	196.289	85.8661	196.289	85.6641	196.289	85.721	196.289	85.5419	196.289	85.6112	196.289	85.4626	196.289	85.5419	196.289	85.4275	196.289	85.5125	196.289	85.4318	196.289	85.5162	196.289	85.4651	196.289	85.5422	196.289	85.5141	196.289	85.5776	196.289	85.5649	196.289	85.6098	196.289	85.6055	196.289	85.6288	196.289	85.6279
203.613	86.6893	203.613	86.6701	203.613	86.661	203.613	86.6054	203.613	86.5859	203.613	86.4998	203.613	86.4672	203.613	86.3602	203.613	86.3112	203.613	86.1961	203.613	86.1273	203.613	86.0191	203.613	85.9282	203.613	85.8425	203.613	85.7292	203.613	85.6801	203.613	85.547	203.613	85.5448	203.613	85.3973	203.613	85.4463	203.613	85.2922	203.613	85.3894	203.613	85.2377	203.613	85.3732	203.613	85.232	203.613	85.3907	203.613	85.2665	203.613	85.4302	203.613	85.3276	203.613	85.4779	203.613	85.3994	203.613	85.5199	203.613	85.4669	203.613	85.5447	203.613	85.5181	203.613	85.545
210.938	86.6018	210.938	86.5742	210.938	86.5782	210.938	86.4976	210.938	86.5035	210.938	86.3767	210.938	86.3807	210.938	86.2187	210.938	86.2154	210.938	86.0334	210.938	86.0168	210.938	85.8332	210.938	85.7974	210.938	85.6327	210.938	85.5732	210.938	85.4476	210.938	85.3622	210.938	85.2927	210.938	85.1827	210.938	85.1796	210.938	85.0498	210.938	85.1142	210.938	84.9724	210.938	85.0954	210.938	84.9511	210.938	85.1148	210.938	84.9778	210.938	85.1588	210.938	85.0379	210.938	85.2112	210.938	85.1138	210.938	85.2562	210.938	85.1881	210.938	85.2813	210.938	85.2463	210.938	85.2787
218.262	86.3963	218.262	86.3651	218.262	86.3764	218.262	86.2855	218.262	86.3055	218.262	86.1626	218.262	86.187	218.262	86.0045	218.262	86.0272	218.262	85.822	218.262	85.8361	218.262	85.6284	218.262	85.6271	218.262	85.4387	218.262	85.4168	218.262	85.2686	218.262	85.2236	218.262	85.1327	218.262	85.0652	218.262	85.0414	218.262	84.9556	218.262	84.9995	218.262	84.9016	218.262	85.0045	218.262	84.9019	218.262	85.0465	218.262	84.9468	218.262	85.1109	218.262	85.021	218.262	85.1805	218.262	85.1066	218.262	85.2391	218.262	85.1866	218.262	85.2739	218.262	85.2465	218.262	85.277
225.586	86.3661	225.586	86.3366	225.586	86.337	225.586	86.2511	225.586	86.2494	225.586	86.1154	225.586	86.1064	225.586	85.9379	225.586	85.915	225.586	85.7305	225.586	85.6861	225.586	85.508	225.586	85.4355	225.586	85.2879	225.586	85.1834	225.586	85.089	225.586	84.9531	225.586	84.9287	225.586	84.7674	225.586	84.8206	225.586	84.6444	225.586	84.771	225.586	84.5924	225.586	84.7773	225.586	84.6082	225.586	84.8283	225.586	84.6778	225.586	84.9061	225.586	84.7805	225.586	84.9904	225.586	84.8935	225.586	85.0616	225.586	84.9957	225.586	85.1041	225.586	85.0708	225.586	85.1082
232.91	86.2706	232.91	86.2355	232.91	86.2434	232.91	86.1414	232.91	86.1526	232.91	85.9942	232.91	85.9997	232.91	85.8027	232.91	85.7897	232.91	85.5786	232.91	85.5316	232.91	85.3368	232.91	85.2401	232.91	85.0952	232.91	84.9358	232.91	84.8733	232.91	84.6449	232.91	84.6897	232.91	84.3963	232.91	84.5586	232.91	84.2157	232.91	84.4871	232.91	84.1195	232.91	84.4729	232.91	84.1091	232.91	84.5048	232.91	84.1711	232.91	84.5647	232.91	84.2812	232.91	84.6318	232.91	84.4115	232.91	84.6856	232.91	84.5359	232.91	84.7098	232.91	84.6342	232.91	84.6937
241.699	86.0643	241.699	86.0041	241.699	86.0624	241.699	85.8861	241.699	85.9962	241.699	85.7171	241.699	85.866	241.699	85.5066	241.699	85.675	241.699	85.2674	241.699	85.4301	241.699	85.0158	241.699	85.1432	241.699	84.7709	241.699	84.8322	241.699	84.5532	241.699	84.5212	241.699	84.3808	241.699	84.2386	241.699	84.2665	241.699	84.0134	241.699	84.2138	241.699	83.8682	241.699	84.2162	241.699	83.8128	241.699	84.2584	241.699	83.8407	241.699	84.3201	241.699	83.9315	241.699	84.3799	241.699	84.0572	241.699	84.4188	241.699	84.1893	241.699	84.4228	241.699	84.3039	241.699	84.3845
250.488	86.0568	250.488	85.9577	250.488	86.0851	250.488	85.7905	250.488	86.0419	250.488	85.5606	250.488	85.9288	250.488	85.2772	250.488	85.75	250.488	84.9538	250.488	85.5125	250.488	84.6099	250.488	85.2281	250.488	84.271	250.488	84.9137	250.488	83.9667	250.488	84.5918	250.488	83.7269	250.488	84.29	250.488	83.5749	250.488	84.0366	250.488	83.5199	250.488	83.8552	250.488	83.5532	250.488	83.7582	250.488	83.6513	250.488	83.7426	250.488	83.7819	250.488	83.7912	250.488	83.9128	250.488	83.8775	250.488	84.0176	250.488	83.9722	250.488	84.0787	250.488	84.0492	250.488	84.0885
259.277	86.0568	259.277	85.9732	259.277	86.0746	259.277	85.8262	259.277	86.0259	259.277	85.6202	259.277	85.9118	259.277	85.3623	259.277	85.7355	259.277	85.0634	259.277	85.5039	259.277	84.7393	259.277	85.228	259.277	84.411	259.277	84.9242	259.277	84.1046	259.277	84.6145	259.277	83.848	259.277	84.3254	259.277	83.6656	259.277	84.0839	259.277	83.5719	259.277	83.9118	259.277	83.5662	259.277	83.82	259.277	83.6321	259.277	83.8042	259.277	83.7425	259.277	83.8468	259.277	83.8663	259.277	83.9216	259.277	83.9756	259.277	84.0002	259.277	84.0497	259.277	84.0581	259.277	84.0775
268.066	85.9082	268.066	85.8169	268.066	85.9245	268.066	85.6514	268.066	85.8669	268.066	85.415	268.066	85.7384	268.066	85.1141	268.066	85.5447	268.066	84.7605	268.066	85.2941	268.066	84.3723	268.066	84.9992	268.066	83.9761	268.066	84.6772	268.066	83.6064	268.066	84.3503	268.066	83.302	268.066	84.0448	268.066	83.0978	268.066	83.7881	268.066	83.0136	268.066	83.6036	268.066	83.0456	268.066	83.5044	268.066	83.1671	268.066	83.4886	268.066	83.3379	268.066	83.5386	268.066	83.5159	268.066	83.626	268.066	83.6666	268.066	83.7183	268.066	83.7669	268.066	83.7858	268.066	83.8062
276.855	85.9083	276.855	85.8183	276.855	85.9256	276.855	85.6593	276.855	85.8685	276.855	85.4368	276.855	85.7379	276.855	85.1583	276.855	85.5383	276.855	84.8335	276.855	85.279	276.855	84.4753	276.855	84.9756	276.855	84.1007	276.855	84.6498	276.855	83.7318	276.855	84.3283	276.855	83.3971	276.855	84.0391	276.855	83.1285	276.855	83.8061	276.855	82.9554	276.855	83.6436	276.855	82.894	276.855	83.5535	276.855	82.9393	276.855	83.5261	276.855	83.0644	276.855	83.5434	276.855	83.229	276.855	83.5829	276.855	83.3924	276.855	83.6205	276.855	83.5231	276.855	83.6336	276.855	83.6044
287.109	85.9558	287.109	85.8842	287.109	85.944	287.109	85.7304	287.109	85.8503	287.109	85.4994	287.109	85.6794	287.109	85.2003	287.109	85.4388	287.109	84.8484	287.109	85.1403	287.109	84.4656	287.109	84.8011	287.109	84.0812	287.109	84.4446	287.109	83.73	287.109	84.1013	287.109	83.4468	287.109	83.8055	287.109	83.2588	287.109	83.5889	287.109	83.1778	287.109	83.4711	287.109	83.1968	287.109	83.452	287.109	83.293	287.109	83.5114	287.109	83.4348	287.109	83.6168	287.109	83.5897	287.109	83.7327	287.109	83.7296	287.109	83.8289	287.109	83.833	287.109	83.8841	287.109	83.8863
297.363	86.1078	297.363	86.0411	297.363	86.0939	297.363	85.8967	297.363	85.9969	297.363	85.6781	297.363	85.8154	297.363	85.3895	297.363	85.551	297.363	85.0375	297.363	85.2097	297.363	84.633	297.363	84.8056	297.363	84.1954	297.363	84.3638	297.363	83.7561	297.363	83.9226	297.363	83.3598	297.363	83.532	297.363	83.059	297.363	83.2438	297.363	82.8988	297.363	83.0948	297.363	82.8963	297.363	83.0912	297.363	83.0296	297.363	83.2056	297.363	83.2467	297.363	83.3892	297.363	83.4866	297.363	83.5893	297.363	83.6968	297.363	83.7609	297.363	83.8413	297.363	83.8715	297.363	83.901
307.617	86.0873	307.617	85.9822	307.617	86.1087	307.617	85.797	307.617	86.044	307.617	85.5366	307.617	85.8919	307.617	85.2081	307.617	85.6531	307.617	84.8216	307.617	85.331	307.617	84.3907	307.617	84.9346	307.617	83.9348	307.617	84.4803	307.617	83.4794	307.617	83.9958	307.617	83.0587	307.617	83.5219	307.617	82.7138	307.617	83.1102	307.617	82.4854	307.617	82.8128	307.617	82.4004	307.617	82.6636	307.617	82.4565	307.617	82.6624	307.617	82.6183	307.617	82.773	307.617	82.8294	307.617	82.9382	307.617	83.031	307.617	83.0992	307.617	83.1766	307.617	83.2092	307.617	83.2387
319.336	85.6714	319.336	85.5971	319.336	85.6656	319.336	85.4448	319.336	85.5785	319.336	85.2184	319.336	85.4104	319.336	84.9234	319.336	85.1638	319.336	84.5692	319.336	84.8442	319.336	84.1701	319.336	84.4625	319.336	83.7476	319.336	84.0368	319.336	83.3312	319.336	83.5951	319.336	82.9575	319.336	83.1754	319.336	82.6641	319.336	82.8224	319.336	82.4806	319.336	82.5776	319.336	82.4176	319.336	82.464	319.336	82.4622	319.336	82.4763	319.336	82.5817	319.336	82.5809	319.336	82.7336	319.336	82.7296	319.336	82.8762	319.336	82.8736	319.336	82.9761	319.336	82.9752	319.336	83.0117
329.59	85.6256	329.59	85.5373	329.59	85.6302	329.59	85.3682	329.59	85.549	329.59	85.1215	329.59	85.3805	329.59	84.8018	329.59	85.1252	329.59	84.4164	329.59	84.7867	329.59	83.977	329.59	84.3747	329.59	83.5037	329.59	83.9082	329.59	83.028	329.59	83.4191	329.59	82.5957	329.59	82.953	329.59	82.2612	329.59	82.565	329.59	82.0725	329.59	82.3058	329.59	82.0487	329.59	82.203	329.59	82.1681	329.59	82.2476	329.59	82.3764	329.59	82.3977	329.59	82.6087	329.59	82.5955	329.59	82.809	329.59	82.7848	329.59	82.9384	329.59	82.9215	329.59	82.977
341.309	85.5706	341.309	85.4728	341.309	85.5804	341.309	85.2881	341.309	85.5025	341.309	85.0198	341.309	85.3388	341.309	84.6737	341.309	85.0921	341.309	84.2593	341.309	84.7672	341.309	83.7905	341.309	84.3719	341.309	83.2879	341.309	83.9197	341.309	82.7806	341.309	83.4332	341.309	82.3081	341.309	82.9473	341.309	81.9186	341.309	82.5091	341.309	81.6606	341.309	82.1715	341.309	81.5659	341.309	81.9767	341.309	81.6313	341.309	81.9369	341.309	81.815	341.309	82.0249	341.309	82.0517	341.309	82.1845	341.309	82.2754	341.309	82.3508	341.309	82.4351	341.309	82.4687	341.309	82.5018
353.027	85.5667	353.027	85.4712	353.027	85.5692	353.027	85.2868	353.027	85.4749	353.027	85.0174	353.027	85.281	353.027	84.6669	353.027	84.9876	353.027	84.2397	353.027	84.6	353.027	83.7436	353.027	84.1321	353.027	83.1942	353.027	83.6091	353.027	82.622	353.027	83.0704	353.027	82.0791	353.027	82.5681	353.027	81.6388	353.027	82.1599	353.027	81.3753	353.027	81.8935	353.027	81.3279	353.027	81.7898	353.027	81.474	353.027	81.8342	353.027	81.7398	353.027	81.9826	353.027	82.0375	353.027	82.1778	353.027	82.295	353.027	82.3632	353.027	82.4669	353.027	82.4924	353.027	82.5327
366.211	86.2756	366.211	86.2106	366.211	86.2473	366.211	86.0554	366.211	86.1206	366.211	85.8111	366.211	85.8887	366.211	85.4774	366.211	85.5454	366.211	85.0546	366.211	85.0875	366.211	84.5456	366.211	84.5194	366.211	83.9597	366.211	83.8593	366.211	83.3174	366.211	83.1474	366.211	82.6565	366.211	82.4534	366.211	82.0386	366.211	81.8737	366.211	81.5467	366.211	81.5045	366.211	81.2637	366.211	81.3928	366.211	81.2292	366.211	81.5057	366.211	81.4078	366.211	81.7517	366.211	81.7055	366.211	82.029	366.211	82.0168	366.211	82.2579	366.211	82.2607	366.211	82.3872	366.211	82.3899
379.395	86.7738	379.395	86.6835	379.395	86.783	379.395	86.5157	379.395	86.7063	379.395	86.273	379.395	86.5383	379.395	85.9574	379.395	86.2729	379.395	85.5705	379.395	85.905	379.395	85.1155	379.395	85.4322	379.395	84.6001	379.395	84.8591	379.395	84.041	379.395	84.2031	379.395	83.4705	379.395	83.5039	379.395	82.9414	379.395	82.8316	379.395	82.5231	379.395	82.2859	379.395	82.2806	379.395	81.9673	379.395	82.2409	379.395	81.9221	379.395	82.3726	379.395	82.1059	379.395	82.5982	379.395	82.409	379.395	82.8285	379.395	82.7146	379.395	82.9892	379.395	82.9374	379.395	83.0323
392.578	86.2267	392.578	86.1069	392.578	86.2667	392.578	85.91	392.578	86.2221	392.578	85.6376	392.578	86.0865	392.578	85.2915	392.578	85.8526	392.578	84.8738	392.578	85.5139	392.578	84.3887	392.578	85.0684	392.578	83.8443	392.578	84.5212	392.578	83.2573	392.578	83.8898	392.578	82.6602	392.578	83.2096	392.578	82.109	392.578	82.5409	392.578	81.6815	392.578	81.9681	392.578	81.4537	392.578	81.5828	392.578	81.4556	392.578	81.4425	392.578	81.6438	392.578	81.5334	392.578	81.9212	392.578	81.7728	392.578	82.1835	392.578	82.0521	392.578	82.3525	392.578	82.277	392.578	82.3861
405.762	86.0441	405.762	85.9794	405.762	86.0195	405.762	85.8269	405.762	85.9041	405.762	85.5876	405.762	85.6972	405.762	85.2625	405.762	85.4008	405.762	84.8541	405.762	85.0203	405.762	84.3678	405.762	84.5654	405.762	83.814	405.762	84.0502	405.762	83.2099	405.762	83.4954	405.762	82.5843	405.762	82.9321	405.762	81.9839	405.762	82.4051	405.762	81.4785	405.762	81.9727	405.762	81.1509	405.762	81.692	405.762	81.0591	405.762	81.5935	405.762	81.1918	405.762	81.658	405.762	81.4651	405.762	81.8213	405.762	81.7673	405.762	81.9997	405.762	82.0058	405.762	82.1186	405.762	82.1275
420.41	86.5421	420.41	86.4366	420.41	86.5591	420.41	86.2454	420.41	86.4823	420.41	85.9697	420.41	86.3043	420.41	85.6113	420.41	86.0168	420.41	85.1749	420.41	85.6129	420.41	84.6695	420.41	85.0904	420.41	84.1098	420.41	84.4561	420.41	83.5163	420.41	83.7315	420.41	82.9176	420.41	82.9607	420.41	82.3524	420.41	82.2172	420.41	81.8715	420.41	81.6001	420.41	81.5317	420.41	81.2075	420.41	81.3759	420.41	81.0877	420.41	81.4058	420.41	81.2052	420.41	81.5692	420.41	81.4586	420.41	81.7787	420.41	81.7312	420.41	81.9457	420.41	81.9309	420.41	82.006
435.059	86.0346	435.059	85.9621	435.059	86.0263	435.059	85.8088	435.059	85.9334	435.059	85.5715	435.059	85.7496	435.059	85.2466	435.059	85.467	435.059	84.832	435.059	85.0793	435.059	84.3308	435.059	84.5842	435.059	83.7548	435.059	83.9871	435.059	83.1298	435.059	83.3074	435.059	82.5025	435.059	82.5885	435.059	81.9453	435.059	81.9081	435.059	81.5473	435.059	81.3782	435.059	81.3814	435.059	81.1106	435.059	81.4598	435.059	81.1507	435.059	81.7196	435.059	81.4368	435.059	82.0551	435.059	81.8373	435.059	82.3624	435.059	82.221	435.059	82.5644	435.059	82.4962	435.059	82.6147
451.172	86.6304	451.172	86.5164	451.172	86.659	451.172	86.3208	451.172	86.5946	451.172	86.0418	451.172	86.4262	451.172	85.6728	451.172	86.1423	451.172	85.204	451.172	85.7318	451.172	84.6262	451.172	85.1867	451.172	83.9353	451.172	84.504	451.172	83.1398	451.172	83.69	451.172	82.2716	451.172	82.7672	451.172	81.4016	451.172	81.7846	451.172	80.6505	451.172	80.8332	451.172	80.1662	451.172	80.0533	451.172	80.0404	451.172	79.6038	451.172	80.2249	451.172	79.5661	451.172	80.5581	451.172	79.8646	451.172	80.866	451.172	80.3123	451.172	81.0268	451.172	80.7249	451.172	80.981
465.82	86.2157	465.82	86.1221	465.82	86.2385	465.82	85.9576	465.82	86.1868	465.82	85.7182	465.82	86.0537	465.82	85.3978	465.82	85.8305	465.82	84.9911	465.82	85.5087	465.82	84.4959	465.82	85.0819	465.82	83.9161	465.82	84.5483	465.82	83.2627	465.82	83.9137	465.82	82.556	465.82	83.1967	465.82	81.8331	465.82	82.4356	465.82	81.1597	465.82	81.6939	465.82	80.6347	465.82	81.0568	465.82	80.3578	465.82	80.6125	465.82	80.358	465.82	80.4151	465.82	80.5518	465.82	80.45	465.82	80.7929	465.82	80.6316	465.82	80.9535	465.82	80.84	465.82	80.9682
483.398	85.7904	483.398	85.6877	483.398	85.8191	483.398	85.5102	483.398	85.7766	483.398	85.2595	483.398	85.6678	483.398	84.9396	483.398	85.4981	483.398	84.5573	483.398	85.2693	483.398	84.1204	483.398	84.9768	483.398	83.6345	483.398	84.6086	483.398	83.1	483.398	84.1522	483.398	82.5134	483.398	83.6052	483.398	81.8787	483.398	82.989	483.398	81.2274	483.398	82.3559	483.398	80.6375	483.398	81.7818	483.398	80.2245	483.398	81.3398	483.398	80.0768	483.398	81.0654	483.398	80.1774	483.398	80.9397	483.398	80.4103	483.398	80.9026	483.398	80.6455	483.398	80.8798	483.398	80.8062
499.512	86.2218	499.512	86.1093	499.512	86.1884	499.512	85.854	499.512	86.012	499.512	85.4641	499.512	85.7038	499.512	84.9542	499.512	85.2846	499.512	84.351	499.512	84.7859	499.512	83.702	499.512	84.2499	499.512	83.0845	499.512	83.7283	499.512	82.5987	499.512	83.2774	499.512	82.3296	499.512	82.9453	499.512	82.2934	499.512	82.7573	499.512	82.4237	499.512	82.7079	499.512	82.6215	499.512	82.7666	499.512	82.8111	499.512	82.8909	499.512	82.9615	499.512	83.0371	499.512	83.075	499.512	83.168	499.512	83.1646	499.512	83.2582	499.512	83.2366	499.512	83.2963	499.512	83.2851
517.09	87.0818	517.09	86.9701	517.09	87.0988	517.09	86.7643	517.09	87.0154	517.09	86.4591	517.09	86.821	517.09	86.0408	517.09	86.4993	517.09	85.4844	517.09	86.0305	517.09	84.7544	517.09	85.3961	517.09	83.8109	517.09	84.5866	517.09	82.6302	517.09	83.6154	517.09	81.2534	517.09	82.5418	517.09	79.8976	517.09	81.5103	517.09	79.0638	517.09	80.7731	517.09	79.2257	517.09	80.587	517.09	80.1831	517.09	80.9772	517.09	81.3529	517.09	81.6989	517.09	82.368	517.09	82.4664	517.09	83.1007	517.09	83.0986	517.09	83.528	517.09	83.5088	517.09	83.6588
536.133	86.3643	536.133	86.307	536.133	86.3196	536.133	86.1513	536.133	86.1676	536.133	85.8978	536.133	85.9014	536.133	85.5451	536.133	85.5153	536.133	85.0896	536.133	85.0062	536.133	84.5252	536.133	84.3775	536.133	83.8428	536.133	83.6441	536.133	83.0322	536.133	82.8412	536.133	82.0917	536.133	82.0323	536.133	81.0574	536.133	81.3095	536.133	80.0628	536.133	80.7808	536.133	79.3884	536.133	80.5442	536.133	79.3352	536.133	80.6437	536.133	79.8969	536.133	81.0229	536.133	80.7397	536.133	81.5343	536.133	81.53	536.133	82.0073	536.133	82.0872	536.133	82.3062	536.133	82.3465
555.176	86.5528	555.176	86.4635	555.176	86.5559	555.176	86.2872	555.176	86.4732	555.176	86.0244	555.176	86.3008	555.176	85.6765	555.176	86.0245	555.176	85.2443	555.176	85.6161	555.176	84.7259	555.176	85.0357	555.176	84.1134	555.176	84.2404	555.176	83.39	555.176	83.2019	555.176	82.5345	555.176	81.9427	555.176	81.5473	555.176	80.6096	555.176	80.5103	555.176	79.5673	555.176	79.6651	555.176	79.2775	555.176	79.3694	555.176	79.7927	555.176	79.7637	555.176	80.6783	555.176	80.5724	555.176	81.5215	555.176	81.4132	555.176	82.1254	555.176	82.0536	555.176	82.4239	555.176	82.3995
574.219	86.332	574.219	86.1686	574.219	86.3995	574.219	85.922	574.219	86.3619	574.219	85.6046	574.219	86.2142	574.219	85.2244	574.219	85.9543	574.219	84.7826	574.219	85.5779	574.219	84.2762	574.219	85.0726	574.219	83.7013	574.219	84.4125	574.219	83.0561	574.219	83.5608	574.219	82.3429	574.219	82.4827	574.219	81.5827	574.219	81.1831	574.219	80.8459	574.219	79.7934	574.219	80.276	574.219	78.7145	574.219	80.0418	574.219	78.5113	574.219	80.2026	574.219	79.2186	574.219	80.6409	574.219	80.2475	574.219	81.1556	574.219	81.1085	574.219	81.5688	574.219	81.6162	574.219	81.7523
594.727	86.0238	594.727	85.8406	594.727	86.1	594.727	85.55	594.727	86.0684	594.727	85.1515	594.727	85.9289	594.727	84.6467	594.727	85.6844	594.727	84.0402	594.727	85.3386	594.727	83.338	594.727	84.8863	594.727	82.5433	594.727	84.3047	594.727	81.6537	594.727	83.5544	594.727	80.6661	594.727	82.5895	594.727	79.6067	594.727	81.3733	594.727	78.6046	594.727	79.9153	594.727	77.973	594.727	78.392	594.727	78.0651	594.727	77.3636	594.727	78.8343	594.727	77.5144	594.727	79.8376	594.727	78.6156	594.727	80.6796	594.727	79.8525	594.727	81.1605	594.727	80.7581	594.727	81.1976
615.234	86.7414	615.234	86.5451	615.234	86.8276	615.234	86.2392	615.234	86.8001	615.234	85.8229	615.234	86.6519	615.234	85.2991	615.234	86.3728	615.234	84.6745	615.234	85.9463	615.234	83.9545	615.234	85.3479	615.234	83.1348	615.234	84.553	615.234	82.1997	615.234	83.5567	615.234	81.1365	615.234	82.4017	615.234	79.9753	615.234	81.2024	615.234	78.8569	615.234	80.1474	615.234	78.0847	615.234	79.4397	615.234	77.9726	615.234	79.1764	615.234	78.4873	615.234	79.2933	615.234	79.2593	615.234	79.6365	615.234	79.9457	615.234	80.0435	615.234	80.3764	615.234	80.3719	615.234	80.5086
637.207	86.49	637.207	86.2913	637.207	86.6177	637.207	86.0135	637.207	86.6753	637.207	85.6495	637.207	86.6537	637.207	85.2025	637.207	86.536	637.207	84.6852	637.207	86.2941	637.207	84.1075	637.207	85.8833	637.207	83.4581	637.207	85.241	637.207	82.6949	637.207	84.2979	637.207	81.7487	637.207	82.992	637.207	80.5466	637.207	81.2844	637.207	79.082	637.207	79.2126	637.207	77.606	637.207	77.1214	637.207	76.8457	637.207	76.0516	637.207	77.3556	637.207	76.7394	637.207	78.5554	637.207	78.2055	637.207	79.6643	637.207	79.4818	637.207	80.3611	637.207	80.2818	637.207	80.5718
659.18	85.3927	659.18	85.326	659.18	85.3909	659.18	85.1739	659.18	85.3574	659.18	84.9404	659.18	85.3287	659.18	84.6378	659.18	85.3036	659.18	84.2722	659.18	85.2238	659.18	83.8339	659.18	84.9981	659.18	83.2972	659.18	84.5568	659.18	82.6245	659.18	83.8839	659.18	81.769	659.18	82.9972	659.18	80.6845	659.18	81.8999	659.18	79.3784	659.18	80.5773	659.18	78.0703	659.18	79.1248	659.18	77.3672	659.18	78.0166	659.18	77.7769	659.18	77.9726	659.18	78.8808	659.18	78.888	659.18	79.9674	659.18	79.9564	659.18	80.6863	659.18	80.6852	659.18	80.9337
682.617	86.1102	682.617	86.0684	682.617	86.0787	682.617	85.9255	682.617	86.0112	682.617	85.669	682.617	85.9357	682.617	85.2963	682.617	85.8531	682.617	84.8088	682.617	85.7317	682.617	84.2137	682.617	85.5115	682.617	83.5213	682.617	85.1171	682.617	82.7254	682.617	84.4812	682.617	81.7852	682.617	83.5729	682.617	80.62	682.617	82.405	682.617	79.1273	682.617	81.0261	682.617	77.3527	682.617	79.5693	682.617	76.0582	682.617	78.4309	682.617	76.6069	682.617	78.2384	682.617	78.405	682.617	79.031	682.617	80.0144	682.617	80.1105	682.617	80.9652	682.617	80.9238	682.617	81.2432
707.52	86.3817	707.52	86.1892	707.52	86.3284	707.52	85.7477	707.52	86.0822	707.52	85.1151	707.52	85.7286	707.52	84.422	707.52	85.3547	707.52	83.847	707.52	85.0036	707.52	83.5091	707.52	84.645	707.52	83.3429	707.52	84.1915	707.52	83.1283	707.52	83.5466	707.52	82.6554	707.52	82.6446	707.52	81.8354	707.52	81.4576	707.52	80.665	707.52	79.9707	707.52	79.1127	707.52	78.1774	707.52	77.1222	707.52	76.3326	707.52	75.1331	707.52	75.5736	707.52	74.8876	707.52	76.6686	707.52	76.5959	707.52	78.2245	707.52	78.2922	707.52	79.1472	707.52	79.1779
732.422	86.0266	732.422	85.8566	732.422	85.9745	732.422	85.4795	732.422	85.7473	732.422	84.9763	732.422	85.4481	732.422	84.4798	732.422	85.2026	732.422	84.1068	732.422	85.0801	732.422	83.8573	732.422	85.0231	732.422	83.598	732.422	84.8784	732.422	83.1777	732.422	84.5027	732.422	82.5411	732.422	83.8252	732.422	81.7033	732.422	82.8264	732.422	80.6231	732.422	81.512	732.422	79.1796	732.422	79.9853	732.422	77.485	732.422	78.6154	732.422	76.5708	732.422	78.0608	732.422	77.5037	732.422	78.6122	732.422	79.1594	732.422	79.6801	732.422	80.3633	732.422	80.5425	732.422	80.8195
757.324	86.2093	757.324	86.0458	757.324	86.2469	757.324	85.758	757.324	86.1693	757.324	85.3573	757.324	86.0051	757.324	84.8684	757.324	85.7914	757.324	84.3291	757.324	85.5482	757.324	83.781	757.324	85.2692	757.324	83.248	757.324	84.9357	757.324	82.71	757.324	84.5131	757.324	82.0947	757.324	83.9111	757.324	81.3058	757.324	82.9787	757.324	80.26	757.324	81.5891	757.324	78.9002	757.324	79.8199	757.324	77.2657	757.324	78.2304	757.324	75.8009	757.324	77.7289	757.324	75.5775	757.324	78.3096	757.324	76.8015	757.324	79.0859	757.324	78.2728	757.324	79.4663	757.324	79.2173
785.156	86.1996	785.156	86.1068	785.156	86.1	785.156	85.7954	785.156	85.8411	785.156	85.2525	785.156	85.4758	785.156	84.5339	785.156	85.0652	785.156	83.8153	785.156	84.6521	785.156	83.3123	785.156	84.2466	785.156	83.0506	785.156	83.8173	785.156	82.7717	785.156	83.2962	785.156	82.1562	785.156	82.5965	785.156	81.0957	785.156	81.607	785.156	79.7634	785.156	80.1582	785.156	78.4559	785.156	78.0095	785.156	77.372	785.156	74.9767	785.156	76.6446	785.156	71.892	785.156	76.44	785.156	71.9872	785.156	76.6615	785.156	74.1946	785.156	76.8774	785.156	75.8616	785.156	76.6946
811.523	86.3558	811.523	86.2298	811.523	86.2756	811.523	85.836	811.523	86.0611	811.523	85.1987	811.523	85.7422	811.523	84.4806	811.523	85.307	811.523	83.9017	811.523	84.7517	811.523	83.4858	811.523	84.1237	811.523	82.9691	811.523	83.4847	811.523	82.0438	811.523	82.8113	811.523	80.6153	811.523	81.966	811.523	78.9005	811.523	80.8103	811.523	77.306	811.523	79.3387	811.523	76.1119	811.523	77.6767	811.523	75.398	811.523	76.0019	811.523	75.4475	811.523	74.6958	811.523	76.4152	811.523	74.5867	811.523	77.6124	811.523	75.8409	811.523	78.313	811.523	77.3292	811.523	78.2291
840.82	84.5256	840.82	84.5651	840.82	84.4279	840.82	84.5207	840.82	84.3463	840.82	84.4342	840.82	84.3482	840.82	84.3956	840.82	84.4272	840.82	84.4576	840.82	84.5102	840.82	84.5436	840.82	84.5097	840.82	84.4727	840.82	84.3308	840.82	84.074	840.82	83.8702	840.82	83.2368	840.82	83.0236	840.82	81.8551	840.82	81.7082	840.82	79.8378	840.82	79.9048	840.82	77.471	840.82	77.6895	840.82	75.9165	840.82	75.4781	840.82	75.9874	840.82	74.5648	840.82	76.9542	840.82	75.677	840.82	78.0744	840.82	77.3987	840.82	78.8978	840.82	78.6399	840.82	79.1335
870.117	85.087	870.117	85.318	870.117	84.5679	870.117	85.2351	870.117	83.9996	870.117	84.981	870.117	83.7609	870.117	84.7852	870.117	84.0375	870.117	84.8136	870.117	84.5893	870.117	85.04	870.117	85.0224	870.117	85.2964	870.117	85.1231	870.117	85.4155	870.117	84.925	870.117	85.2729	870.117	84.5733	870.117	84.7331	870.117	84.1232	870.117	83.6035	870.117	83.4763	870.117	81.6154	870.117	82.4593	870.117	78.337	870.117	80.9408	870.117	73.322	870.117	79.2164	870.117	72.3361	870.117	78.5687	870.117	76.919	870.117	79.5195	870.117	79.6902	870.117	80.5851	870.117	80.771
900.879	86.7377	900.879	86.2523	900.879	86.6477	900.879	85.3665	900.879	85.9183	900.879	84.34	900.879	84.6171	900.879	83.4003	900.879	83.1078	900.879	82.6256	900.879	82.2161	900.879	82.0108	900.879	82.458	900.879	81.5889	900.879	83.2795	900.879	81.3521	900.879	83.9521	900.879	81.1586	900.879	84.0226	900.879	80.8747	900.879	83.2786	900.879	80.4959	900.879	81.7748	900.879	80.026	900.879	79.8436	900.879	79.2857	900.879	78.0649	900.879	77.9345	900.879	77.1045	900.879	75.7767	900.879	77.1639	900.879	73.7147	900.879	77.5667	900.879	74.2457	900.879	77.4069	900.879	76.2066
933.105	86.9974	933.105	86.762	933.105	86.7171	933.105	86.0487	933.105	85.9544	933.105	84.9987	933.105	84.8257	933.105	83.8379	933.105	83.6033	933.105	82.7647	933.105	82.6971	933.105	81.8833	933.105	82.3397	933.105	81.2817	933.105	82.3477	933.105	81.0303	933.105	82.4567	933.105	81.0539	933.105	82.5492	933.105	81.136	933.105	82.4888	933.105	80.9424	933.105	82.0462	933.105	80.0483	933.105	80.9805	933.105	78.2803	933.105	79.0937	933.105	76.3701	933.105	76.5328	933.105	75.9883	933.105	75.1012	933.105	76.9939	933.105	76.2973	933.105	77.9672	933.105	77.7477	933.105	78.2963
965.332	86.8974	965.332	86.6588	965.332	86.611	965.332	86.0073	965.332	85.7793	965.332	85.1145	965.332	84.5643	965.332	84.1018	965.332	83.4484	965.332	82.9017	965.332	82.9466	965.332	81.4055	965.332	82.8691	965.332	79.9922	965.332	82.675	965.332	79.3828	965.332	82.3621	965.332	79.369	965.332	82.2439	965.332	79.1548	965.332	82.02	965.332	78.5403	965.332	81.0042	965.332	78.1265	965.332	79.0962	965.332	77.804	965.332	77.2064	965.332	76.6238	965.332	76.1835	965.332	73.9928	965.332	75.6888	965.332	71.2688	965.332	75.8527	965.332	73.0393	965.332	76.2205	965.332	75.4798
1,000.49	86.0181	1,000.49	85.3387	1,000.49	86.3936	1,000.49	84.5701	1,000.49	86.3538	1,000.49	83.9341	1,000.49	85.8416	1,000.49	83.4305	1,000.49	84.7802	1,000.49	82.8673	1,000.49	83.1998	1,000.49	82.1268	1,000.49	81.7415	1,000.49	81.3513	1,000.49	81.4411	1,000.49	80.9474	1,000.49	82.0153	1,000.49	81.0114	1,000.49	82.4569	1,000.49	80.9611	1,000.49	82.3487	1,000.49	80.1966	1,000.49	81.66	1,000.49	78.6207	1,000.49	80.2651	1,000.49	77.0287	1,000.49	77.8882	1,000.49	76.893	1,000.49	74.7389	1,000.49	77.6248	1,000.49	72.9837	1,000.49	77.7701	1,000.49	73.699	1,000.49	77.0173	1,000.49	74.7311	1,000.49	75.8059
1,035.64	86.9572	1,035.64	86.7458	1,035.64	86.7666	1,035.64	86.1456	1,035.64	86.1678	1,035.64	85.2119	1,035.64	85.1676	1,035.64	83.9839	1,035.64	83.8496	1,035.64	82.3275	1,035.64	82.4733	1,035.64	80.0353	1,035.64	81.4381	1,035.64	77.2222	1,035.64	80.8033	1,035.64	74.7535	1,035.64	80.3101	1,035.64	74.456	1,035.64	80.0251	1,035.64	76.2839	1,035.64	79.7562	1,035.64	77.7601	1,035.64	78.7219	1,035.64	77.5732	1,035.64	76.5582	1,035.64	75.5798	1,035.64	73.91	1,035.64	73.426	1,035.64	71.8764	1,035.64	74.5409	1,035.64	71.0316	1,035.64	76.3868	1,035.64	72.1761	1,035.64	76.9816	1,035.64	74.4912	1,035.64	76.2885
1,072.27	86.9182	1,072.27	86.5458	1,072.27	86.9597	1,072.27	85.97	1,072.27	86.702	1,072.27	85.3535	1,072.27	86.1465	1,072.27	84.512	1,072.27	85.1299	1,072.27	83.0712	1,072.27	83.5415	1,072.27	81.0346	1,072.27	81.7652	1,072.27	78.8903	1,072.27	80.7544	1,072.27	77.1295	1,072.27	80.8221	1,072.27	76.6564	1,072.27	80.9887	1,072.27	77.473	1,072.27	80.6194	1,072.27	78.1677	1,072.27	79.9866	1,072.27	78.4359	1,072.27	79.2212	1,072.27	78.0594	1,072.27	77.7649	1,072.27	76.6093	1,072.27	75.235	1,072.27	74.3379	1,072.27	72.9895	1,072.27	73.6102	1,072.27	73.8016	1,072.27	75.0405	1,072.27	75.4574	1,072.27	75.9459
1,108.89	86.5022	1,108.89	86.1605	1,108.89	86.7595	1,108.89	85.926	1,108.89	86.7229	1,108.89	85.7665	1,108.89	86.2079	1,108.89	85.3414	1,108.89	85.1322	1,108.89	84.3409	1,108.89	83.5478	1,108.89	82.8204	1,108.89	81.5344	1,108.89	81.1224	1,108.89	79.2858	1,108.89	79.4229	1,108.89	77.2861	1,108.89	77.6809	1,108.89	76.2775	1,108.89	76.2697	1,108.89	76.302	1,108.89	75.9029	1,108.89	76.1317	1,108.89	75.6778	1,108.89	74.9245	1,108.89	74.383	1,108.89	73.0626	1,108.89	72.9322	1,108.89	71.4046	1,108.89	73.4691	1,108.89	70.3957	1,108.89	74.8276	1,108.89	71.053	1,108.89	75.3908	1,108.89	73.1058	1,108.89	74.7993
1,148.44	86.5751	1,148.44	86.3537	1,148.44	86.6384	1,148.44	86.0671	1,148.44	86.4908	1,148.44	85.7717	1,148.44	86.0611	1,148.44	85.3745	1,148.44	85.1992	1,148.44	84.7403	1,148.44	83.7206	1,148.44	83.9023	1,148.44	81.5702	1,148.44	83.0145	1,148.44	79.1696	1,148.44	82.0798	1,148.44	77.6554	1,148.44	80.8979	1,148.44	76.9764	1,148.44	79.3158	1,148.44	76.0446	1,148.44	77.4762	1,148.44	75.1176	1,148.44	75.5078	1,148.44	74.4264	1,148.44	72.9713	1,148.44	73.2821	1,148.44	69.7346	1,148.44	71.5589	1,148.44	69.6725	1,148.44	70.6998	1,148.44	73.258	1,148.44	72.1191	1,148.44	75.4519	1,148.44	74.3154	1,148.44	75.6837
1,189.45	86.5729	1,189.45	86.6908	1,189.45	86.3619	1,189.45	86.5033	1,189.45	86.2452	1,189.45	86.0127	1,189.45	86.1348	1,189.45	85.3356	1,189.45	85.7714	1,189.45	84.3239	1,189.45	84.948	1,189.45	82.8705	1,189.45	83.5721	1,189.45	81.6546	1,189.45	81.7115	1,189.45	81.1239	1,189.45	79.4909	1,189.45	80.5953	1,189.45	77.0231	1,189.45	79.5228	1,189.45	75.0634	1,189.45	78.5962	1,189.45	74.6648	1,189.45	78.0522	1,189.45	74.9161	1,189.45	76.3931	1,189.45	73.8167	1,189.45	72.2071	1,189.45	69.9356	1,189.45	68.8857	1,189.45	68.1652	1,189.45	72.8509	1,189.45	73.2543	1,189.45	75.6274	1,189.45	75.9289	1,189.45	76.5678
1,230.47	87.124	1,230.47	86.7037	1,230.47	87.0918	1,230.47	86.0512	1,230.47	86.6465	1,230.47	85.427	1,230.47	85.9256	1,230.47	84.7152	1,230.47	85.0292	1,230.47	83.729	1,230.47	84.0036	1,230.47	82.5807	1,230.47	82.8653	1,230.47	81.4837	1,230.47	81.7026	1,230.47	80.3058	1,230.47	80.7334	1,230.47	79.0456	1,230.47	80.0297	1,230.47	78.019	1,230.47	79.5526	1,230.47	77.3759	1,230.47	79.1213	1,230.47	77.135	1,230.47	78.3148	1,230.47	76.957	1,230.47	76.9544	1,230.47	75.9496	1,230.47	74.6868	1,230.47	72.9964	1,230.47	72.3456	1,230.47	69.1009	1,230.47	73.3468	1,230.47	71.957	1,230.47	74.8529	1,230.47	74.5792
1,274.41	87.1688	1,274.41	87.0365	1,274.41	86.8902	1,274.41	86.4713	1,274.41	86.26	1,274.41	85.3768	1,274.41	85.4107	1,274.41	83.6198	1,274.41	84.4843	1,274.41	81.5754	1,274.41	83.604	1,274.41	80.4013	1,274.41	82.8703	1,274.41	80.1139	1,274.41	82.102	1,274.41	79.2511	1,274.41	81.0744	1,274.41	77.8048	1,274.41	80.3716	1,274.41	77.3369	1,274.41	80.4983	1,274.41	77.6223	1,274.41	80.4821	1,274.41	77.2733	1,274.41	79.5149	1,274.41	75.7297	1,274.41	77.4585	1,274.41	72.5516	1,274.41	73.4763	1,274.41	67.596	1,274.41	65.6161	1,274.41	69.6692	1,274.41	71.1832	1,274.41	74.0024	1,274.41	75.3529	1,274.41	75.8625
1,319.82	86.3223	1,319.82	86.4284	1,319.82	86.0532	1,319.82	86.267	1,319.82	85.6448	1,319.82	85.5488	1,319.82	85.1696	1,319.82	84.0035	1,319.82	84.6711	1,319.82	82.0157	1,319.82	83.9832	1,319.82	80.8501	1,319.82	82.86	1,319.82	80.672	1,319.82	81.468	1,319.82	80.1484	1,319.82	80.4037	1,319.82	78.7664	1,319.82	79.6629	1,319.82	76.9236	1,319.82	78.9727	1,319.82	75.2925	1,319.82	78.5037	1,319.82	74.478	1,319.82	77.5845	1,319.82	73.5918	1,319.82	75.3815	1,319.82	71.6444	1,319.82	72.3205	1,319.82	69.6858	1,319.82	68.8906	1,319.82	69.896	1,319.82	68.1622	1,319.82	71.4314	1,319.82	71.1948	1,319.82	72.3347
1,366.7	86.2306	1,366.7	85.9854	1,366.7	86.0774	1,366.7	85.447	1,366.7	85.4818	1,366.7	84.4531	1,366.7	84.6056	1,366.7	82.564	1,366.7	83.7962	1,366.7	80.0935	1,366.7	83.2955	1,366.7	79.0036	1,366.7	82.9662	1,366.7	79.0051	1,366.7	82.5098	1,366.7	78.9034	1,366.7	81.6634	1,366.7	78.6994	1,366.7	80.3525	1,366.7	77.7696	1,366.7	79.2042	1,366.7	76.004	1,366.7	78.7755	1,366.7	75.6749	1,366.7	77.8694	1,366.7	75.9819	1,366.7	76.0623	1,366.7	74.4085	1,366.7	74.1718	1,366.7	70.6143	1,366.7	70.9264	1,366.7	66.1561	1,366.7	69.8327	1,366.7	69.8702	1,366.7	73.2885	1,366.7	73.3659
1,413.57	86.6961	1,413.57	86.3237	1,413.57	86.4637	1,413.57	85.4125	1,413.57	85.5173	1,413.57	83.948	1,413.57	84.0439	1,413.57	82.242	1,413.57	82.9961	1,413.57	81.6665	1,413.57	83.0113	1,413.57	81.8361	1,413.57	83.2293	1,413.57	80.9217	1,413.57	83.1658	1,413.57	79.1413	1,413.57	83.1783	1,413.57	78.1267	1,413.57	83.211	1,413.57	77.2355	1,413.57	82.8386	1,413.57	73.8188	1,413.57	82.2747	1,413.57	69.4579	1,413.57	81.9268	1,413.57	71.6451	1,413.57	80.5238	1,413.57	72.4427	1,413.57	77.1362	1,413.57	72.3089	1,413.57	72.108	1,413.57	71.5263	1,413.57	67.0213	1,413.57	68.671	1,413.57	67.2328	1,413.57	67.1349
1,463.38	86.4354	1,463.38	86.1228	1,463.38	86.5678	1,463.38	85.9846	1,463.38	86.2266	1,463.38	85.8541	1,463.38	85.3042	1,463.38	85.2578	1,463.38	83.845	1,463.38	84.2702	1,463.38	82.0849	1,463.38	83.0087	1,463.38	80.284	1,463.38	80.7067	1,463.38	79.2387	1,463.38	77.5849	1,463.38	79.7554	1,463.38	77.0326	1,463.38	80.8457	1,463.38	78.7178	1,463.38	81.6078	1,463.38	78.3159	1,463.38	82.169	1,463.38	75.8465	1,463.38	82.0069	1,463.38	73.3923	1,463.38	79.8893	1,463.38	70.3424	1,463.38	75.2892	1,463.38	69.6251	1,463.38	68.0464	1,463.38	71.801	1,463.38	66.525	1,463.38	71.6704	1,463.38	69.9077	1,463.38	70.8471
1,516.11	86.8701	1,516.11	86.8369	1,516.11	86.7363	1,516.11	86.457	1,516.11	86.2513	1,516.11	85.3512	1,516.11	85.344	1,516.11	83.8064	1,516.11	84.3096	1,516.11	83.2433	1,516.11	83.3167	1,516.11	83.3283	1,516.11	82.2235	1,516.11	82.4241	1,516.11	81.3096	1,516.11	80.2985	1,516.11	81.7877	1,516.11	79.4909	1,516.11	83.109	1,516.11	80.6136	1,516.11	83.547	1,516.11	80.3141	1,516.11	82.903	1,516.11	79.0334	1,516.11	80.5308	1,516.11	77.9129	1,516.11	75.8591	1,516.11	75.0097	1,516.11	71.8155	1,516.11	65.7379	1,516.11	69.8815	1,516.11	62.111	1,516.11	66.4352	1,516.11	70.115	1,516.11	68.1541	1,516.11	70.9854
1,568.85	86.7447	1,568.85	87.032	1,568.85	86.1045	1,568.85	86.3567	1,568.85	85.3979	1,568.85	84.5716	1,568.85	84.7071	1,568.85	83.2725	1,568.85	83.9951	1,568.85	83.3284	1,568.85	82.9752	1,568.85	81.8746	1,568.85	82.2432	1,568.85	78.6443	1,568.85	82.0952	1,568.85	75.8862	1,568.85	81.9503	1,568.85	76.5546	1,568.85	81.6664	1,568.85	78.3249	1,568.85	80.2137	1,568.85	78.1361	1,568.85	77.4846	1,568.85	77.0486	1,568.85	74.5757	1,568.85	76.0153	1,568.85	73.0838	1,568.85	74.5261	1,568.85	74.5154	1,568.85	71.4188	1,568.85	72.9875	1,568.85	61.4	1,568.85	64.8551	1,568.85	65.3162	1,568.85	68.2916	1,568.85	70.4856
1,624.51	86.7635	1,624.51	86.5417	1,624.51	86.4654	1,624.51	85.7124	1,624.51	85.8814	1,624.51	84.8484	1,624.51	84.9825	1,624.51	84.4005	1,624.51	83.4995	1,624.51	83.3676	1,624.51	81.7258	1,624.51	79.7832	1,624.51	80.8101	1,624.51	73.0182	1,624.51	80.2346	1,624.51	66.7927	1,624.51	79.2935	1,624.51	56.3747	1,624.51	79.1978	1,624.51	70.9679	1,624.51	77.7324	1,624.51	74.3195	1,624.51	74.2818	1,624.51	76.4732	1,624.51	73.9012	1,624.51	76.6934	1,624.51	74.9426	1,624.51	75.6207	1,624.51	73.6172	1,624.51	71.5686	1,624.51	70.2718	1,624.51	64.3628	1,624.51	63.3634	1,624.51	68.0562	1,624.51	65.9486	1,624.51	69.0555
1,681.64	86.8178	1,681.64	86.3374	1,681.64	86.4887	1,681.64	85.2121	1,681.64	85.5992	1,681.64	84.2367	1,681.64	84.7184	1,681.64	83.8374	1,681.64	83.9447	1,681.64	82.5809	1,681.64	82.9284	1,681.64	79.7299	1,681.64	80.9417	1,681.64	78.7159	1,681.64	76.0907	1,681.64	79.6554	1,681.64	70.3958	1,681.64	78.7171	1,681.64	75.1085	1,681.64	73.6074	1,681.64	73.1805	1,681.64	70.0338	1,681.64	74.1545	1,681.64	76.1534	1,681.64	78.2492	1,681.64	75.4327	1,681.64	79.7048	1,681.64	72.8425	1,681.64	76.5651	1,681.64	64.0938	1,681.64	71.4829	1,681.64	68.0141	1,681.64	62.2693	1,681.64	71.3084	1,681.64	59.7205	1,681.64	67.86
1,741.7	87.5703	1,741.7	86.7358	1,741.7	87.4808	1,741.7	85.7394	1,741.7	86.5621	1,741.7	85.3474	1,741.7	85.2074	1,741.7	84.4764	1,741.7	83.5725	1,741.7	81.6341	1,741.7	81.8738	1,741.7	78.7121	1,741.7	80.6238	1,741.7	79.289	1,741.7	79.6619	1,741.7	79.397	1,741.7	77.8628	1,741.7	77.7694	1,741.7	76.2399	1,741.7	72.2776	1,741.7	76.5671	1,741.7	68.9469	1,741.7	76.6801	1,741.7	77.472	1,741.7	76.9159	1,741.7	78.9987	1,741.7	75.5647	1,741.7	77.4744	1,741.7	68.966	1,741.7	72.4922	1,741.7	61.3576	1,741.7	60.5534	1,741.7	58.5907	1,741.7	69.5083	1,741.7	66.4127	1,741.7	71.1336
1,803.22	87.8933	1,803.22	87.069	1,803.22	87.8431	1,803.22	85.475	1,803.22	87.0184	1,803.22	84.0984	1,803.22	85.5303	1,803.22	83.4472	1,803.22	83.8999	1,803.22	82.2031	1,803.22	82.6713	1,803.22	80.6246	1,803.22	81.4065	1,803.22	80.534	1,803.22	79.3827	1,803.22	80.2781	1,803.22	77.7172	1,803.22	79.8191	1,803.22	77.1185	1,803.22	78.8403	1,803.22	76.0802	1,803.22	73.4748	1,803.22	72.5282	1,803.22	65.8522	1,803.22	66.5885	1,803.22	75.4149	1,803.22	66.8953	1,803.22	78.6295	1,803.22	70.381	1,803.22	77.9909	1,803.22	71.2677	1,803.22	72.0587	1,803.22	67.0483	1,803.22	61.6152	1,803.22	71.1334	1,803.22	72.168
1,866.21	87.4935	1,866.21	86.3486	1,866.21	88.0087	1,866.21	86.1247	1,866.21	87.1927	1,866.21	86.2309	1,866.21	84.7544	1,866.21	84.4452	1,866.21	82.294	1,866.21	81.8159	1,866.21	82.1914	1,866.21	82.1285	1,866.21	81.3773	1,866.21	82.5929	1,866.21	76.627	1,866.21	82.9337	1,866.21	59.3753	1,866.21	83.2148	1,866.21	67.5311	1,866.21	82.2539	1,866.21	62.74	1,866.21	79.475	1,866.21	67.1482	1,866.21	71.4032	1,866.21	67.1455	1,866.21	69.06	1,866.21	70.1975	1,866.21	75.2347	1,866.21	72.6141	1,866.21	75.9689	1,866.21	72.1108	1,866.21	72.4495	1,866.21	69.8451	1,866.21	66.3911	1,866.21	69.648	1,866.21	69.9951
1,932.13	86.1515	1,932.13	85.9831	1,932.13	86.8628	1,932.13	86.2371	1,932.13	86.9141	1,932.13	85.8398	1,932.13	85.143	1,932.13	83.9746	1,932.13	82.6396	1,932.13	80.9748	1,932.13	83.2751	1,932.13	77.6669	1,932.13	84.06	1,932.13	74.1652	1,932.13	81.9564	1,932.13	73.3036	1,932.13	77.5915	1,932.13	75.2811	1,932.13	76.6537	1,932.13	77.2958	1,932.13	77.7311	1,932.13	77.4588	1,932.13	79.3977	1,932.13	76.7262	1,932.13	79.8077	1,932.13	75.5108	1,932.13	77.0989	1,932.13	70.5187	1,932.13	76.1509	1,932.13	67.7511	1,932.13	73.992	1,932.13	72.8687	1,932.13	70.3499	1,932.13	71.3333	1,932.13	68.8755	1,932.13	67.9906
1,999.51	87.8217	1,999.51	87.0942	1,999.51	87.0137	1,999.51	85.0688	1,999.51	85.8827	1,999.51	83.7111	1,999.51	85.1294	1,999.51	83.421	1,999.51	84.5816	1,999.51	82.3819	1,999.51	83.7326	1,999.51	80.9083	1,999.51	81.8498	1,999.51	80.1135	1,999.51	78.1915	1,999.51	78.5826	1,999.51	72.9183	1,999.51	74.0991	1,999.51	72.8261	1,999.51	74.6958	1,999.51	76.0856	1,999.51	76.1598	1,999.51	78.1951	1,999.51	70.5918	1,999.51	77.1226	1,999.51	71.6445	1,999.51	75.6676	1,999.51	73.9606	1,999.51	75.5291	1,999.51	70.2057	1,999.51	73.8498	1,999.51	70.1833	1,999.51	70.4354	1,999.51	70.7998	1,999.51	71.5281	1,999.51	71.8216
2,069.82	88.8298	2,069.82	87.8433	2,069.82	88.1294	2,069.82	85.9851	2,069.82	86.2771	2,069.82	85.2673	2,069.82	84.595	2,069.82	84.324	2,069.82	84.2169	2,069.82	82.0075	2,069.82	83.6659	2,069.82	80.6867	2,069.82	82.1994	2,069.82	78.797	2,069.82	79.7762	2,069.82	74.6837	2,069.82	75.3566	2,069.82	73.7053	2,069.82	72.6168	2,069.82	70.3875	2,069.82	74.4202	2,069.82	74.6082	2,069.82	76.4066	2,069.82	74.1598	2,069.82	75.7132	2,069.82	69.0982	2,069.82	74.7225	2,069.82	73.3254	2,069.82	75.4322	2,069.82	71.7116	2,069.82	74.3064	2,069.82	66.5178	2,069.82	71.4073	2,069.82	68.6202	2,069.82	70.7219	2,069.82	70.7404
2,143.07	88.402	2,143.07	87.4003	2,143.07	88.5749	2,143.07	86.8537	2,143.07	87.3824	2,143.07	86.1107	2,143.07	85.4757	2,143.07	83.7689	2,143.07	83.9513	2,143.07	81.171	2,143.07	82.762	2,143.07	79.5719	2,143.07	81.8055	2,143.07	78.5262	2,143.07	80.8238	2,143.07	78.0136	2,143.07	78.2178	2,143.07	76.1143	2,143.07	74.7662	2,143.07	72.0832	2,143.07	74.0927	2,143.07	73.079	2,143.07	72.7625	2,143.07	74.7093	2,143.07	71.7418	2,143.07	71.3105	2,143.07	71.3602	2,143.07	72.5466	2,143.07	73.2056	2,143.07	72.5737	2,143.07	72.3279	2,143.07	68.8435	2,143.07	70.0144	2,143.07	68.9139	2,143.07	71.5906	2,143.07	71.2205
2,219.24	87.917	2,219.24	87.1908	2,219.24	88.5079	2,219.24	87.1185	2,219.24	87.8615	2,219.24	85.7963	2,219.24	86.1433	2,219.24	83.0024	2,219.24	84.0965	2,219.24	81.9028	2,219.24	82.1152	2,219.24	80.7524	2,219.24	80.8079	2,219.24	78.6114	2,219.24	79.445	2,219.24	76.834	2,219.24	75.7253	2,219.24	75.9807	2,219.24	73.7784	2,219.24	73.6624	2,219.24	74.9892	2,219.24	71.8282	2,219.24	74.9289	2,219.24	73.7258	2,219.24	70.3398	2,219.24	71.9478	2,219.24	68.5327	2,219.24	72.6499	2,219.24	70.9799	2,219.24	72.4534	2,219.24	71.6993	2,219.24	66.4948	2,219.24	69.2037	2,219.24	68.3762	2,219.24	71.4035	2,219.24	71.7689
2,296.88	88.4732	2,296.88	87.8898	2,296.88	88.5738	2,296.88	87.1943	2,296.88	87.6714	2,296.88	85.7761	2,296.88	85.7447	2,296.88	83.8379	2,296.88	83.8738	2,296.88	82.5895	2,296.88	82.4278	2,296.88	80.9368	2,296.88	80.7607	2,296.88	79.0294	2,296.88	78.7645	2,296.88	78.2597	2,296.88	78.0623	2,296.88	78.4792	2,296.88	77.0384	2,296.88	75.9102	2,296.88	70.7104	2,296.88	69.0077	2,296.88	72.3975	2,296.88	73.0545	2,296.88	71.6299	2,296.88	71.7368	2,296.88	69.7276	2,296.88	70.3408	2,296.88	72.4014	2,296.88	73.2262	2,296.88	71.2499	2,296.88	69.0874	2,296.88	68.394	2,296.88	67.0589	2,296.88	71.238	2,296.88	71.9043
2,378.91	88.6117	2,378.91	88.4857	2,378.91	88.659	2,378.91	87.3663	2,378.91	88.0316	2,378.91	85.0537	2,378.91	86.3628	2,378.91	84.0794	2,378.91	84.506	2,378.91	82.9003	2,378.91	81.6902	2,378.91	81.8575	2,378.91	79.41	2,378.91	81.6893	2,378.91	79.7108	2,378.91	77.5343	2,378.91	80.3434	2,378.91	72.2425	2,378.91	80.3826	2,378.91	73.7999	2,378.91	76.2731	2,378.91	70.9305	2,378.91	68.2342	2,378.91	68.825	2,378.91	68.9374	2,378.91	72.5938	2,378.91	65.7821	2,378.91	68.4836	2,378.91	69.2055	2,378.91	72.6472	2,378.91	69.5876	2,378.91	71.0347	2,378.91	66.0898	2,378.91	67.7215	2,378.91	70.934	2,378.91	71.8017
2,462.4	88.4696	2,462.4	88.584	2,462.4	88.4809	2,462.4	87.3782	2,462.4	88.1105	2,462.4	85.7716	2,462.4	86.8128	2,462.4	84.4267	2,462.4	85.1241	2,462.4	82.8472	2,462.4	82.2554	2,462.4	81.7754	2,462.4	79.893	2,462.4	77.5293	2,462.4	78.4233	2,462.4	76.8682	2,462.4	75.7796	2,462.4	76.2455	2,462.4	74.2693	2,462.4	72.0655	2,462.4	74.7017	2,462.4	74.0136	2,462.4	72.1488	2,462.4	69.6431	2,462.4	69.5946	2,462.4	70.6694	2,462.4	70.5247	2,462.4	68.876	2,462.4	70.8757	2,462.4	69.6733	2,462.4	72.2081	2,462.4	68.0578	2,462.4	67.9439	2,462.4	69.8802	2,462.4	71.644	2,462.4	73.6977
2,548.83	88.5092	2,548.83	87.9883	2,548.83	88.2684	2,548.83	87.325	2,548.83	87.557	2,548.83	87.0661	2,548.83	86.7737	2,548.83	85.2938	2,548.83	85.1854	2,548.83	82.306	2,548.83	83.2435	2,548.83	79.5168	2,548.83	79.8981	2,548.83	78.8314	2,548.83	76.0017	2,548.83	77.0862	2,548.83	78.4312	2,548.83	70.879	2,548.83	79.0611	2,548.83	70.8832	2,548.83	73.3613	2,548.83	74.866	2,548.83	65.7425	2,548.83	71.1755	2,548.83	72.2783	2,548.83	70.048	2,548.83	71.6946	2,548.83	68.8735	2,548.83	71.4399	2,548.83	68.3497	2,548.83	70.7461	2,548.83	68.8824	2,548.83	67.6481	2,548.83	69.8966	2,548.83	72.6034	2,548.83	75.5858
2,639.65	88.4467	2,639.65	87.8754	2,639.65	88.4492	2,639.65	87.6053	2,639.65	87.4865	2,639.65	87.0168	2,639.65	86.3784	2,639.65	84.6712	2,639.65	85.3565	2,639.65	82.454	2,639.65	84.061	2,639.65	80.2288	2,639.65	80.864	2,639.65	76.9589	2,639.65	79.1094	2,639.65	77.8719	2,639.65	78.4687	2,639.65	77.9023	2,639.65	74.4718	2,639.65	73.5392	2,639.65	67.6431	2,639.65	72.9156	2,639.65	67.033	2,639.65	73.5725	2,639.65	69.6848	2,639.65	67.5236	2,639.65	73.1509	2,639.65	69.8076	2,639.65	72.1725	2,639.65	67.5099	2,639.65	71.4863	2,639.65	68.3582	2,639.65	66.7174	2,639.65	67.2196	2,639.65	70.5323	2,639.65	73.3905
2,731.93	87.6769	2,731.93	87.4986	2,731.93	88.0594	2,731.93	87.2231	2,731.93	87.392	2,731.93	85.5683	2,731.93	86.2035	2,731.93	83.8081	2,731.93	84.9366	2,731.93	83.0265	2,731.93	84.009	2,731.93	81.1322	2,731.93	81.1412	2,731.93	79.6729	2,731.93	77.1431	2,731.93	78.002	2,731.93	76.4131	2,731.93	75.5532	2,731.93	73.0093	2,731.93	72.0688	2,731.93	70.3833	2,731.93	66.7762	2,731.93	73.288	2,731.93	69.4241	2,731.93	71.5498	2,731.93	67.1897	2,731.93	71.0283	2,731.93	68.391	2,731.93	70.5728	2,731.93	64.9926	2,731.93	68.976	2,731.93	64.5283	2,731.93	65.949	2,731.93	66.8264	2,731.93	70.2564	2,731.93	73.0191
2,828.61	88.6944	2,828.61	88.2226	2,828.61	88.682	2,828.61	87.1792	2,828.61	88.0635	2,828.61	85.3163	2,828.61	86.7401	2,828.61	83.8823	2,828.61	85.0502	2,828.61	83.3782	2,828.61	83.1959	2,828.61	80.5391	2,828.61	80.138	2,828.61	78.41	2,828.61	78.9493	2,828.61	77.5139	2,828.61	77.5105	2,828.61	74.8925	2,828.61	70.1941	2,828.61	73.123	2,828.61	75.9457	2,828.61	68.224	2,828.61	77.0685	2,828.61	73.5184	2,828.61	72.8258	2,828.61	68.589	2,828.61	65.7631	2,828.61	66.775	2,828.61	65.6693	2,828.61	66.5942	2,828.61	71.2743	2,828.61	67.1776	2,828.61	69.8905	2,828.61	64.9697	2,828.61	71.031	2,828.61	74.3615
2,928.22	88.515	2,928.22	88.148	2,928.22	88.44	2,928.22	87.3788	2,928.22	88.5379	2,928.22	85.9467	2,928.22	87.276	2,928.22	84.3231	2,928.22	85.0309	2,928.22	82.2149	2,928.22	82.185	2,928.22	81.5013	2,928.22	81.2769	2,928.22	79.4867	2,928.22	78.5543	2,928.22	74.1679	2,928.22	72.0234	2,928.22	73.7391	2,928.22	74.8858	2,928.22	73.5558	2,928.22	79.454	2,928.22	72.3349	2,928.22	77.8403	2,928.22	71.145	2,928.22	50.7456	2,928.22	73.2823	2,928.22	63.4546	2,928.22	64.416	2,928.22	64.5711	2,928.22	63.1855	2,928.22	71.0076	2,928.22	59.7207	2,928.22	66.3542	2,928.22	63.4072	2,928.22	71.7035	2,928.22	70.691
3,030.76	88.3602	3,030.76	88.2726	3,030.76	87.7522	3,030.76	87.5499	3,030.76	87.8983	3,030.76	85.7333	3,030.76	87.0621	3,030.76	83.5454	3,030.76	85.6475	3,030.76	82.7952	3,030.76	82.5289	3,030.76	81.1591	3,030.76	80.4316	3,030.76	76.9585	3,030.76	77.5168	3,030.76	76.7057	3,030.76	69.3385	3,030.76	77.3637	3,030.76	78.0315	3,030.76	73.4077	3,030.76	79.8857	3,030.76	70.8265	3,030.76	76.1433	3,030.76	66.1135	3,030.76	71.0796	3,030.76	72.3376	3,030.76	70.8522	3,030.76	68.183	3,030.76	71.0781	3,030.76	65.5049	3,030.76	68.0825	3,030.76	62.5739	3,030.76	57.782	3,030.76	64.4449	3,030.76	69.6356	3,030.76	71.861
3,137.7	88.4383	3,137.7	88.3843	3,137.7	88.1032	3,137.7	86.9704	3,137.7	87.4141	3,137.7	84.9146	3,137.7	86.505	3,137.7	84.182	3,137.7	85.5259	3,137.7	82.4506	3,137.7	83.5592	3,137.7	80.317	3,137.7	81.0124	3,137.7	76.907	3,137.7	76.3648	3,137.7	78.7084	3,137.7	74.0215	3,137.7	76.1255	3,137.7	77.4058	3,137.7	72.0253	3,137.7	77.7452	3,137.7	69.5061	3,137.7	71.1065	3,137.7	68.2312	3,137.7	72.9014	3,137.7	67.0704	3,137.7	69.9071	3,137.7	68.9595	3,137.7	67.6672	3,137.7	55.8674	3,137.7	67.5041	3,137.7	64.7979	3,137.7	63.4436	3,137.7	62.9938	3,137.7	68.7129	3,137.7	70.8922
3,249.02	87.9256	3,249.02	87.1589	3,249.02	88.3238	3,249.02	86.1854	3,249.02	87.3298	3,249.02	85.7931	3,249.02	85.7909	3,249.02	84.02	3,249.02	84.7522	3,249.02	82.46	3,249.02	82.9622	3,249.02	80.4028	3,249.02	80.5267	3,249.02	78.9119	3,249.02	77.8479	3,249.02	76.8257	3,249.02	78.6041	3,249.02	69.8731	3,249.02	76.8456	3,249.02	73.2362	3,249.02	71.1621	3,249.02	71.5353	3,249.02	67.1554	3,249.02	70.0022	3,249.02	70.5348	3,249.02	68.0847	3,249.02	67.3134	3,249.02	68.5926	3,249.02	64.9808	3,249.02	66.183	3,249.02	65.1016	3,249.02	66.4625	3,249.02	59.6961	3,249.02	60.5013	3,249.02	66.6331	3,249.02	68.7729
3,363.28	87.3132	3,363.28	87.0098	3,363.28	87.8724	3,363.28	86.6001	3,363.28	87.569	3,363.28	85.3215	3,363.28	85.9082	3,363.28	83.8043	3,363.28	84.0501	3,363.28	82.8511	3,363.28	81.2937	3,363.28	79.9435	3,363.28	79.9291	3,363.28	77.9901	3,363.28	78.3584	3,363.28	70.9913	3,363.28	78.4759	3,363.28	71.7523	3,363.28	76.495	3,363.28	72.5206	3,363.28	67.4638	3,363.28	69.7458	3,363.28	71.0757	3,363.28	68.9793	3,363.28	71.0307	3,363.28	68.3715	3,363.28	64.8645	3,363.28	69.1779	3,363.28	63.2782	3,363.28	65.9881	3,363.28	64.8094	3,363.28	65.0214	3,363.28	57.2706	3,363.28	61.5032	3,363.28	62.9392	3,363.28	66.16
3,481.93	87.8935	3,481.93	87.0926	3,481.93	88.2195	3,481.93	87.0938	3,481.93	87.112	3,481.93	86.0558	3,481.93	85.6824	3,481.93	84.1164	3,481.93	84.804	3,481.93	81.1157	3,481.93	81.6341	3,481.93	79.3145	3,481.93	80.5322	3,481.93	74.4022	3,481.93	78.1665	3,481.93	74.0621	3,481.93	76.6094	3,481.93	73.7968	3,481.93	70.0182	3,481.93	67.649	3,481.93	60.604	3,481.93	69.294	3,481.93	73.0047	3,481.93	67.376	3,481.93	73.6417	3,481.93	68.998	3,481.93	70.0682	3,481.93	68.4771	3,481.93	65.2323	3,481.93	65.8773	3,481.93	65.3522	3,481.93	65.9733	3,481.93	61.2247	3,481.93	64.5654	3,481.93	60.0489	3,481.93	66.1784
3,604.98	87.7343	3,604.98	87.7291	3,604.98	88.1614	3,604.98	87.4805	3,604.98	87.2386	3,604.98	85.594	3,604.98	86.0129	3,604.98	82.7384	3,604.98	84.0885	3,604.98	81.2286	3,604.98	82.974	3,604.98	78.5417	3,604.98	81.4303	3,604.98	75.3445	3,604.98	78.393	3,604.98	75.7827	3,604.98	73.9719	3,604.98	70.1177	3,604.98	61.6451	3,604.98	69.556	3,604.98	66.1191	3,604.98	69.6814	3,604.98	69.3686	3,604.98	68.7421	3,604.98	70.8316	3,604.98	68.2653	3,604.98	67.3118	3,604.98	66.8261	3,604.98	65.1253	3,604.98	67.538	3,604.98	65.803	3,604.98	67.1995	3,604.98	62.1251	3,604.98	66.005	3,604.98	54.5699	3,604.98	61.3609
3,732.42	87.684	3,732.42	87.8077	3,732.42	87.9231	3,732.42	87.3775	3,732.42	87.3915	3,732.42	85.6065	3,732.42	86.3991	3,732.42	83.2949	3,732.42	84.0376	3,732.42	80.8362	3,732.42	83.5848	3,732.42	77.7383	3,732.42	81.2005	3,732.42	76.7811	3,732.42	78.0732	3,732.42	73.8973	3,732.42	69.8974	3,732.42	70.4921	3,732.42	73.5444	3,732.42	71.4309	3,732.42	71.2329	3,732.42	66.5387	3,732.42	70.7659	3,732.42	68.4188	3,732.42	65.4338	3,732.42	68.7368	3,732.42	63.537	3,732.42	67.2655	3,732.42	60.0495	3,732.42	66.8466	3,732.42	63.8222	3,732.42	68.4132	3,732.42	65.0236	3,732.42	66.3543	3,732.42	52.1853	3,732.42	60.7233
3,864.26	88.1249	3,864.26	88.6207	3,864.26	88.1159	3,864.26	87.9553	3,864.26	87.691	3,864.26	86.0178	3,864.26	86.59	3,864.26	83.3636	3,864.26	83.9357	3,864.26	80.9493	3,864.26	83.2487	3,864.26	77.8069	3,864.26	80.4722	3,864.26	76.1745	3,864.26	77.1635	3,864.26	72.4266	3,864.26	70.6803	3,864.26	70.6592	3,864.26	72.0192	3,864.26	68.6015	3,864.26	71.4038	3,864.26	65.4539	3,864.26	72.7738	3,864.26	65.7886	3,864.26	64.7222	3,864.26	68.3231	3,864.26	65.856	3,864.26	67.7643	3,864.26	55.3679	3,864.26	65.9916	3,864.26	65.3894	3,864.26	68.1775	3,864.26	65.7716	3,864.26	67.1398	3,864.26	51.7588	3,864.26	59.7386
4,000.49	88.2829	4,000.49	88.5414	4,000.49	87.8242	4,000.49	87.9558	4,000.49	87.6965	4,000.49	86.0269	4,000.49	86.3585	4,000.49	82.9094	4,000.49	84.3643	4,000.49	80.9657	4,000.49	83.8674	4,000.49	78.579	4,000.49	80.0605	4,000.49	76.4451	4,000.49	75.4988	4,000.49	74.758	4,000.49	67.8834	4,000.49	73.3913	4,000.49	70.2776	4,000.49	70.2299	4,000.49	71.6247	4,000.49	69.1216	4,000.49	72.9948	4,000.49	68.1042	4,000.49	59.388	4,000.49	69.011	4,000.49	62.9533	4,000.49	68.6311	4,000.49	61.2809	4,000.49	65.457	4,000.49	63.7395	4,000.49	65.6055	4,000.49	63.2827	4,000.49	65.7898	4,000.49	54.2582	4,000.49	52.7511
4,141.11	88.442	4,141.11	88.969	4,141.11	88.4866	4,141.11	87.7019	4,141.11	87.5726	4,141.11	85.2496	4,141.11	86.0286	4,141.11	83.4915	4,141.11	84.6483	4,141.11	81.1866	4,141.11	84.0652	4,141.11	78.2678	4,141.11	81.7454	4,141.11	75.1031	4,141.11	73.77	4,141.11	76.353	4,141.11	73.4283	4,141.11	70.9079	4,141.11	73.521	4,141.11	69.2856	4,141.11	73.5736	4,141.11	66.0898	4,141.11	67.4666	4,141.11	64.5423	4,141.11	56.9723	4,141.11	67.0235	4,141.11	58.3387	4,141.11	66.6091	4,141.11	65.5366	4,141.11	67.3313	4,141.11	58.5627	4,141.11	66.1597	4,141.11	64.3364	4,141.11	64.4537	4,141.11	58.197	4,141.11	55.902
4,287.6	88.9174	4,287.6	88.7127	4,287.6	88.6487	4,287.6	87.3539	4,287.6	87.7109	4,287.6	85.139	4,287.6	86.3361	4,287.6	82.8118	4,287.6	84.968	4,287.6	82.0631	4,287.6	84.2474	4,287.6	77.3535	4,287.6	79.8785	4,287.6	77.7672	4,287.6	71.5386	4,287.6	70.0385	4,287.6	76.974	4,287.6	69.5699	4,287.6	73.8557	4,287.6	69.2584	4,287.6	68.9641	4,287.6	66.5104	4,287.6	64.6423	4,287.6	65.412	4,287.6	62.9374	4,287.6	65.6651	4,287.6	64.7235	4,287.6	66.8868	4,287.6	62.8185	4,287.6	66.6071	4,287.6	60.3244	4,287.6	61.6675	4,287.6	67.2451	4,287.6	67.0993	4,287.6	61.4136	4,287.6	59.7215
4,438.48	88.7491	4,438.48	88.0398	4,438.48	88.6614	4,438.48	86.94	4,438.48	88.0014	4,438.48	85.6718	4,438.48	86.0587	4,438.48	83.9781	4,438.48	85.3479	4,438.48	81.0047	4,438.48	84.2908	4,438.48	77.5937	4,438.48	74.191	4,438.48	73.9912	4,438.48	76.3719	4,438.48	72.7055	4,438.48	75.7711	4,438.48	71.5511	4,438.48	68.8232	4,438.48	65.3888	4,438.48	60.6538	4,438.48	66.5125	4,438.48	69.7315	4,438.48	63.6253	4,438.48	60.3982	4,438.48	62.2724	4,438.48	65.2399	4,438.48	66.32	4,438.48	63.4023	4,438.48	64.2425	4,438.48	59.0758	4,438.48	60.2199	4,438.48	63.6825	4,438.48	63.3569	4,438.48	58.8548	4,438.48	57.6682
4,595.21	89.7364	4,595.21	88.1285	4,595.21	89.1909	4,595.21	87.5518	4,595.21	88.1856	4,595.21	85.9876	4,595.21	85.1293	4,595.21	81.9819	4,595.21	84.8246	4,595.21	80.097	4,595.21	82.5575	4,595.21	76.214	4,595.21	73.3174	4,595.21	73.7344	4,595.21	78.3641	4,595.21	71.6342	4,595.21	72.2337	4,595.21	65.1179	4,595.21	58.8893	4,595.21	66.5648	4,595.21	65.067	4,595.21	64.0527	4,595.21	66.6926	4,595.21	54.9797	4,595.21	61.0722	4,595.21	64.3036	4,595.21	66.1612	4,595.21	64.73	4,595.21	67.0478	4,595.21	60.248	4,595.21	63.282	4,595.21	60.4141	4,595.21	64.1217	4,595.21	61.9032	4,595.21	55.2483	4,595.21	58.8195
4,756.35	88.7605	4,756.35	88.2621	4,756.35	88.5677	4,756.35	87.3866	4,756.35	87.3994	4,756.35	83.8478	4,756.35	84.3354	4,756.35	80.908	4,756.35	83.7468	4,756.35	79.2624	4,756.35	76.8989	4,756.35	73.1087	4,756.35	79.632	4,756.35	73.8658	4,756.35	79.2952	4,756.35	68.5404	4,756.35	74.4759	4,756.35	69.8638	4,756.35	72.7881	4,756.35	64.5223	4,756.35	69.1445	4,756.35	65.1805	4,756.35	64.8603	4,756.35	64.0139	4,756.35	67.4737	4,756.35	64.4629	4,756.35	67.9679	4,756.35	61.9488	4,756.35	67.7377	4,756.35	65.3496	4,756.35	64.1182	4,756.35	62.9687	4,756.35	64.908	4,756.35	62.1547	4,756.35	61.0111	4,756.35	63.219
4,924.8	88.2422	4,924.8	88.2874	4,924.8	88.5978	4,924.8	86.6835	4,924.8	86.6947	4,924.8	82.8113	4,924.8	84.0413	4,924.8	81.8305	4,924.8	83.0194	4,924.8	77.5565	4,924.8	71.2174	4,924.8	75.2919	4,924.8	81.0942	4,924.8	72.8196	4,924.8	75.605	4,924.8	70.8865	4,924.8	75.114	4,924.8	70.2305	4,924.8	73.3374	4,924.8	65.315	4,924.8	71.2769	4,924.8	66.3142	4,924.8	70.8989	4,924.8	63.862	4,924.8	60.3032	4,924.8	57.5273	4,924.8	64.9676	4,924.8	64.5357	4,924.8	62.4854	4,924.8	63.0245	4,924.8	62.6669	4,924.8	57.2514	4,924.8	59.6833	4,924.8	63.7068	4,924.8	61.3209	4,924.8	61.2302
5,097.66	86.9433	5,097.66	86.312	5,097.66	87.4833	5,097.66	84.9567	5,097.66	86.4353	5,097.66	85.1192	5,097.66	83.3742	5,097.66	79.8524	5,097.66	82.9158	5,097.66	78.421	5,097.66	79.2969	5,097.66	75.8066	5,097.66	82.0011	5,097.66	75.6523	5,097.66	74.1286	5,097.66	73.178	5,097.66	72.4068	5,097.66	70.603	5,097.66	70.2829	5,097.66	66.3787	5,097.66	69.4983	5,097.66	67.8125	5,097.66	71.1397	5,097.66	64.564	5,097.66	61.7683	5,097.66	64.9128	5,097.66	60.3355	5,097.66	65.5575	5,097.66	51.9895	5,097.66	61.5243	5,097.66	59.0546	5,097.66	52.0171	5,097.66	58.6483	5,097.66	58.1418	5,097.66	62.4415	5,097.66	59.2506
5,277.83	86.6142	5,277.83	86.1202	5,277.83	87.7689	5,277.83	85.9255	5,277.83	86.3207	5,277.83	83.9027	5,277.83	84.0362	5,277.83	79.538	5,277.83	82.0514	5,277.83	79.0148	5,277.83	82.1347	5,277.83	77.529	5,277.83	80.1764	5,277.83	76.8137	5,277.83	77.8248	5,277.83	71.1131	5,277.83	74.5347	5,277.83	69.5293	5,277.83	73.0171	5,277.83	67.4334	5,277.83	71.2597	5,277.83	67.1765	5,277.83	72.1686	5,277.83	63.5464	5,277.83	70.1616	5,277.83	66.1553	5,277.83	56.2864	5,277.83	63.7248	5,277.83	63.2554	5,277.83	65.7136	5,277.83	62.7745	5,277.83	59.8432	5,277.83	61.3069	5,277.83	64.1588	5,277.83	56.5198	5,277.83	60.1814
5,463.87	87.768	5,463.87	87.2896	5,463.87	87.3133	5,463.87	86.3244	5,463.87	86.6205	5,463.87	82.1013	5,463.87	85.0752	5,463.87	81.2857	5,463.87	80.7564	5,463.87	80.4881	5,463.87	83.5516	5,463.87	78.0311	5,463.87	77.3118	5,463.87	74.6887	5,463.87	77.4141	5,463.87	71.9854	5,463.87	72.8406	5,463.87	70.2585	5,463.87	73.0975	5,463.87	68.3843	5,463.87	68.4406	5,463.87	65.472	5,463.87	70.7174	5,463.87	62.1387	5,463.87	65.9241	5,463.87	65.4795	5,463.87	53.078	5,463.87	64.7469	5,463.87	59.642	5,463.87	62.2396	5,463.87	64.0164	5,463.87	57.9838	5,463.87	57.6071	5,463.87	63.283	5,463.87	50.9665	5,463.87	60.3199
5,657.23	87.5968	5,657.23	87.1998	5,657.23	87.6799	5,657.23	86.5051	5,657.23	86.5498	5,657.23	83.3717	5,657.23	85.7668	5,657.23	82.0284	5,657.23	81.0741	5,657.23	80.3768	5,657.23	82.3271	5,657.23	76.1538	5,657.23	75.2281	5,657.23	75.7366	5,657.23	75.5872	5,657.23	72.3181	5,657.23	70.4652	5,657.23	65.5916	5,657.23	72.6067	5,657.23	66.947	5,657.23	70.5764	5,657.23	58.528	5,657.23	70.4239	5,657.23	62.8432	5,657.23	67.6633	5,657.23	63.344	5,657.23	58.3834	5,657.23	62.8674	5,657.23	54.2218	5,657.23	62.5202	5,657.23	62.5496	5,657.23	58.6507	5,657.23	52.7893	5,657.23	64.7241	5,657.23	59.4552	5,657.23	61.9636
5,856.45	87.3424	5,856.45	87.9392	5,856.45	87.7449	5,856.45	85.8465	5,856.45	87.1881	5,856.45	84.123	5,856.45	85.715	5,856.45	81.1373	5,856.45	81.076	5,856.45	80.3731	5,856.45	80.2543	5,856.45	76.8768	5,856.45	75.1678	5,856.45	73.0991	5,856.45	71.6207	5,856.45	68.5837	5,856.45	70.8172	5,856.45	68.1494	5,856.45	70.3046	5,856.45	65.0102	5,856.45	69.9047	5,856.45	60.0866	5,856.45	70.1312	5,856.45	61.5694	5,856.45	67.3529	5,856.45	62.2349	5,856.45	48.6353	5,856.45	61.4784	5,856.45	59.8441	5,856.45	61.5863	5,856.45	53.8532	5,856.45	60.0221	5,856.45	58.91	5,856.45	59.9068	5,856.45	59.7462	5,856.45	62.0828
6,062.99	87.3232	6,062.99	87.2329	6,062.99	87.4833	6,062.99	85.4396	6,062.99	87.8609	6,062.99	83.7219	6,062.99	85.344	6,062.99	81.7527	6,062.99	83.2354	6,062.99	79.8372	6,062.99	79.516	6,062.99	74.1175	6,062.99	77.0185	6,062.99	72.1084	6,062.99	72.0625	6,062.99	69.5083	6,062.99	73.0659	6,062.99	64.3244	6,062.99	65.2622	6,062.99	60.7074	6,062.99	65.6713	6,062.99	63.0969	6,062.99	68.6965	6,062.99	61.8803	6,062.99	65.4899	6,062.99	56.8509	6,062.99	61.6832	6,062.99	58.912	6,062.99	55.5878	6,062.99	61.8572	6,062.99	54.1315	6,062.99	62.9169	6,062.99	56.8663	6,062.99	55.0808	6,062.99	56.5794	6,062.99	63.5496
6,276.86	87.9886	6,276.86	87.3089	6,276.86	87.3195	6,276.86	85.822	6,276.86	87.8951	6,276.86	83.6924	6,276.86	83.6442	6,276.86	82.3147	6,276.86	84.1264	6,276.86	77.2427	6,276.86	79.7947	6,276.86	74.3292	6,276.86	75.6065	6,276.86	71.7864	6,276.86	74.6309	6,276.86	65.3906	6,276.86	72.1703	6,276.86	67.5528	6,276.86	64.1705	6,276.86	62.5474	6,276.86	66.7157	6,276.86	62.0817	6,276.86	72.4513	6,276.86	60.7145	6,276.86	68.4079	6,276.86	61.8101	6,276.86	65.2492	6,276.86	60.4245	6,276.86	55.0883	6,276.86	58.0404	6,276.86	54.0549	6,276.86	59.858	6,276.86	58.3856	6,276.86	55.9993	6,276.86	55.1952	6,276.86	59.9324
6,498.05	88.3659	6,498.05	87.6203	6,498.05	87.4525	6,498.05	85.9165	6,498.05	87.0368	6,498.05	83.5708	6,498.05	83.4627	6,498.05	80.8694	6,498.05	84.0316	6,498.05	77.9521	6,498.05	80.5941	6,498.05	74.1619	6,498.05	76.238	6,498.05	72.4228	6,498.05	76.1141	6,498.05	70.7626	6,498.05	69.3873	6,498.05	67.3963	6,498.05	66.0798	6,498.05	65.4784	6,498.05	69.2641	6,498.05	63.5464	6,498.05	71.8638	6,498.05	61.3751	6,498.05	69.8754	6,498.05	64.3119	6,498.05	55.4694	6,498.05	62.4965	6,498.05	45.9329	6,498.05	57.7725	6,498.05	57.4522	6,498.05	56.8828	6,498.05	49.6833	6,498.05	59.2103	6,498.05	54.7903	6,498.05	58.7397
6,726.56	87.9807	6,726.56	86.7667	6,726.56	87.8498	6,726.56	85.3124	6,726.56	85.5865	6,726.56	83.9315	6,726.56	84.0792	6,726.56	80.2871	6,726.56	84.3388	6,726.56	78.8164	6,726.56	79.9156	6,726.56	76.4251	6,726.56	78.671	6,726.56	73.637	6,726.56	75.6962	6,726.56	70.6205	6,726.56	68.8017	6,726.56	67.8652	6,726.56	67.2238	6,726.56	66.3262	6,726.56	67.7194	6,726.56	63.5279	6,726.56	72.1257	6,726.56	64.0777	6,726.56	68.946	6,726.56	63.2598	6,726.56	64.4626	6,726.56	63.2478	6,726.56	62.5396	6,726.56	59.3405	6,726.56	62.9086	6,726.56	62.6384	6,726.56	45.5387	6,726.56	56.399	6,726.56	53.6203	6,726.56	58.6413
6,963.87	87.4516	6,963.87	86.2275	6,963.87	87.5472	6,963.87	85.6401	6,963.87	83.2662	6,963.87	83.6725	6,963.87	85.6807	6,963.87	81.8041	6,963.87	84.9493	6,963.87	78.9421	6,963.87	80.1176	6,963.87	77.7365	6,963.87	80.9492	6,963.87	74.979	6,963.87	72.8871	6,963.87	70.879	6,963.87	73.1682	6,963.87	68.9653	6,963.87	68.7326	6,963.87	64.9156	6,963.87	64.4882	6,963.87	62.2431	6,963.87	70.0239	6,963.87	63.9205	6,963.87	67.4999	6,963.87	61.8631	6,963.87	63.739	6,963.87	63.1188	6,963.87	59.1732	6,963.87	61.7496	6,963.87	61.0274	6,963.87	64.4183	6,963.87	53.4661	6,963.87	56.8545	6,963.87	56.8248	6,963.87	62.6126
7,209.96	86.7288	7,209.96	86.178	7,209.96	87.2555	7,209.96	85.5453	7,209.96	85.1537	7,209.96	83.2807	7,209.96	86.1633	7,209.96	81.7777	7,209.96	84.3843	7,209.96	80.0078	7,209.96	81.0063	7,209.96	77.3866	7,209.96	80.775	7,209.96	74.7695	7,209.96	73.7501	7,209.96	70.1806	7,209.96	76.2472	7,209.96	67.0193	7,209.96	70.2561	7,209.96	63.5248	7,209.96	67.4874	7,209.96	62.491	7,209.96	68.4536	7,209.96	62.5979	7,209.96	68.4117	7,209.96	59.3154	7,209.96	60.152	7,209.96	61.375	7,209.96	55.6195	7,209.96	64.4985	7,209.96	36.8333	7,209.96	61.2428	7,209.96	52.4741	7,209.96	57.3158	7,209.96	51.4093	7,209.96	62.8544
7,464.84	86.6283	7,464.84	86.096	7,464.84	87.162	7,464.84	85.4534	7,464.84	88.0504	7,464.84	84.0219	7,464.84	86.0237	7,464.84	82.9097	7,464.84	84.7635	7,464.84	79.6218	7,464.84	83.5113	7,464.84	77.0611	7,464.84	77.3795	7,464.84	73.3138	7,464.84	78.6117	7,464.84	70.4629	7,464.84	74.193	7,464.84	67.2435	7,464.84	67.5262	7,464.84	66.1875	7,464.84	67.3586	7,464.84	60.308	7,464.84	65.7746	7,464.84	60.9091	7,464.84	66.7026	7,464.84	64.648	7,464.84	60.4699	7,464.84	60.3403	7,464.84	52.1896	7,464.84	62.9183	7,464.84	60.3268	7,464.84	58.2456	7,464.84	42.6815	7,464.84	48.3004	7,464.84	47.9055	7,464.84	59.7217
7,727.05	86.9563	7,727.05	86.4041	7,727.05	88.3111	7,727.05	86.4624	7,727.05	89.3899	7,727.05	84.6507	7,727.05	86.4676	7,727.05	82.3139	7,727.05	84.1494	7,727.05	80.6417	7,727.05	83.6358	7,727.05	76.9268	7,727.05	75.7673	7,727.05	74.3303	7,727.05	79.1689	7,727.05	69.2055	7,727.05	67.3067	7,727.05	64.6007	7,727.05	67.8994	7,727.05	65.176	7,727.05	63.847	7,727.05	57.3645	7,727.05	72.1596	7,727.05	60.6778	7,727.05	69.2794	7,727.05	63.782	7,727.05	65.7864	7,727.05	59.6308	7,727.05	53.8051	7,727.05	60.9396	7,727.05	57.3502	7,727.05	61.626	7,727.05	53.7833	7,727.05	52.5708	7,727.05	43.2269	7,727.05	56.4166
7,999.51	87.6044	7,999.51	87.1643	7,999.51	88.1048	7,999.51	87.2663	7,999.51	88.4093	7,999.51	85.3068	7,999.51	85.2856	7,999.51	82.6329	7,999.51	83.3508	7,999.51	81.1912	7,999.51	83.1311	7,999.51	77.6197	7,999.51	79.4792	7,999.51	73.4102	7,999.51	76.2	7,999.51	70.9666	7,999.51	72.4954	7,999.51	67.7094	7,999.51	59.7961	7,999.51	64.6508	7,999.51	64.1816	7,999.51	61.0836	7,999.51	69.4605	7,999.51	63.3645	7,999.51	71.4251	7,999.51	62.6527	7,999.51	67.5289	7,999.51	58.0884	7,999.51	58.587	7,999.51	60.097	7,999.51	50.83	7,999.51	60.1429	7,999.51	53.5087	7,999.51	38.3273	7,999.51	49.0597	7,999.51	50.1548
8,282.23	88.4235	8,282.23	88.1343	8,282.23	87.3452	8,282.23	87.2382	8,282.23	85.898	8,282.23	85.3989	8,282.23	84.7217	8,282.23	83.3065	8,282.23	84.1164	8,282.23	80.7649	8,282.23	81.302	8,282.23	77.7882	8,282.23	80.8474	8,282.23	72.9909	8,282.23	69.9913	8,282.23	67.5097	8,282.23	72.726	8,282.23	64.7549	8,282.23	63.4554	8,282.23	58.0378	8,282.23	66.351	8,282.23	62.3085	8,282.23	64.9665	8,282.23	60.9679	8,282.23	71.3728	8,282.23	58.4613	8,282.23	69.1895	8,282.23	58.1546	8,282.23	59.024	8,282.23	51.909	8,282.23	58.8583	8,282.23	60.6308	8,282.23	54.7916	8,282.23	56.9541	8,282.23	52.5182	8,282.23	56.8387
8,573.73	89.2262	8,573.73	89.16	8,573.73	87.528	8,573.73	88.0957	8,573.73	85.1726	8,573.73	85.7241	8,573.73	85.6585	8,573.73	83.5325	8,573.73	85.1404	8,573.73	80.1433	8,573.73	80.9715	8,573.73	76.8037	8,573.73	79.5635	8,573.73	71.6423	8,573.73	71.1259	8,573.73	68.0784	8,573.73	71.2741	8,573.73	65.3379	8,573.73	64.6434	8,573.73	60.7285	8,573.73	65.0065	8,573.73	62.1872	8,573.73	66.3358	8,573.73	61.1672	8,573.73	69.5986	8,573.73	58.0789	8,573.73	69.6795	8,573.73	57.9679	8,573.73	60.2287	8,573.73	58.0312	8,573.73	62.6351	8,573.73	64.3102	8,573.73	54.0682	8,573.73	58.1685	8,573.73	56.5875	8,573.73	58.5957
8,876.95	89.785	8,876.95	88.6855	8,876.95	89.2475	8,876.95	88.244	8,876.95	88.7391	8,876.95	86.1838	8,876.95	86.9224	8,876.95	83.4215	8,876.95	84.9283	8,876.95	79.7809	8,876.95	81.7	8,876.95	76.7129	8,876.95	76.7829	8,876.95	70.9134	8,876.95	75.6847	8,876.95	68.7951	8,876.95	68.6485	8,876.95	64.7876	8,876.95	66.6635	8,876.95	65.2434	8,876.95	59.325	8,876.95	58.7308	8,876.95	63.2984	8,876.95	57.0648	8,876.95	69.6446	8,876.95	59.3361	8,876.95	67.5565	8,876.95	61.5818	8,876.95	59.5895	8,876.95	62.2492	8,876.95	60.8631	8,876.95	62.5426	8,876.95	58.7323	8,876.95	47.0014	8,876.95	57.2194	8,876.95	57.335
9,188.96	89.8031	9,188.96	89.432	9,188.96	90.5247	9,188.96	88.5551	9,188.96	90.26	9,188.96	85.9861	9,188.96	86.9584	9,188.96	82.9251	9,188.96	84.6619	9,188.96	79.1939	9,188.96	81.5208	9,188.96	77.2292	9,188.96	73.779	9,188.96	71.6607	9,188.96	74.9048	9,188.96	69.8629	9,188.96	67.3335	9,188.96	64.1983	9,188.96	62.3026	9,188.96	63.6186	9,188.96	51.5501	9,188.96	54.9777	9,188.96	64.1957	9,188.96	60.6388	9,188.96	69.9445	9,188.96	60.5035	9,188.96	69.5637	9,188.96	59.0191	9,188.96	59.2271	9,188.96	61.7803	9,188.96	53.321	9,188.96	58.4702	9,188.96	57.2715	9,188.96	58.3182	9,188.96	52.8094	9,188.96	56.8958
9,514.16	90.3045	9,514.16	89.5843	9,514.16	90.6499	9,514.16	88.4007	9,514.16	89.4301	9,514.16	85.6222	9,514.16	86.0979	9,514.16	82.8458	9,514.16	83.814	9,514.16	78.9407	9,514.16	79.896	9,514.16	76.6796	9,514.16	74.1578	9,514.16	71.8266	9,514.16	70.8289	9,514.16	68.9863	9,514.16	69.4202	9,514.16	64.0461	9,514.16	58.1277	9,514.16	61.4772	9,514.16	54.7982	9,514.16	57.1223	9,514.16	65.1494	9,514.16	61.6355	9,514.16	72.0107	9,514.16	61.8179	9,514.16	72.395	9,514.16	56.4764	9,514.16	56.6683	9,514.16	56.2419	9,514.16	47.5511	9,514.16	54.4702	9,514.16	44.2043	9,514.16	57.2449	9,514.16	49.1777	9,514.16	52.1336
9,849.61	89.7496	9,849.61	89.5115	9,849.61	89.4709	9,849.61	88.005	9,849.61	88.2056	9,849.61	85.333	9,849.61	85.3668	9,849.61	82.7936	9,849.61	82.848	9,849.61	78.1962	9,849.61	78.0506	9,849.61	76.3988	9,849.61	74.4447	9,849.61	71.1136	9,849.61	67.9916	9,849.61	65.1125	9,849.61	66.931	9,849.61	62.4909	9,849.61	62.3523	9,849.61	54.7632	9,849.61	53.1652	9,849.61	59.1047	9,849.61	68.3736	9,849.61	60.113	9,849.61	72.9454	9,849.61	57.5448	9,849.61	73.3902	9,849.61	57.7624	9,849.61	57.7388	9,849.61	57.3305	9,849.61	50.7184	9,849.61	57.3051	9,849.61	51.3493	9,849.61	53.0345	9,849.61	54.9781	9,849.61	51.2267
10,196.8	88.978	10,196.8	89.357	10,196.8	88.7729	10,196.8	87.7272	10,196.8	87.1851	10,196.8	85.2727	10,196.8	85.0879	10,196.8	81.5893	10,196.8	81.6406	10,196.8	77.9263	10,196.8	78.4366	10,196.8	75.8878	10,196.8	75.0282	10,196.8	68.0283	10,196.8	68.6743	10,196.8	65.2673	10,196.8	70.2312	10,196.8	62.2677	10,196.8	66.2317	10,196.8	57.3437	10,196.8	51.7851	10,196.8	58.7	10,196.8	65.1758	10,196.8	56.8805	10,196.8	71.1213	10,196.8	51.762	10,196.8	71.371	10,196.8	59.7257	10,196.8	53.0559	10,196.8	54.2279	10,196.8	52.8216	10,196.8	57.9752	10,196.8	55.5136	10,196.8	54.0122	10,196.8	55.4808	10,196.8	50.1032
10,555.7	88.9671	10,555.7	88.922	10,555.7	88.9486	10,555.7	87.1714	10,555.7	86.9332	10,555.7	84.1521	10,555.7	85.5397	10,555.7	81.5802	10,555.7	81.7797	10,555.7	77.3326	10,555.7	78.953	10,555.7	76.765	10,555.7	74.0956	10,555.7	69.229	10,555.7	71.5104	10,555.7	68.1135	10,555.7	67.0434	10,555.7	62.886	10,555.7	64.271	10,555.7	59.0494	10,555.7	45.029	10,555.7	58.9121	10,555.7	62.8449	10,555.7	57.5492	10,555.7	71.4083	10,555.7	54.7066	10,555.7	71.5232	10,555.7	57.4122	10,555.7	58.985	10,555.7	55.2915	10,555.7	44.3386	10,555.7	58.0591	10,555.7	56.1655	10,555.7	52.7539	10,555.7	49.3644	10,555.7	44.53
10,927.7	88.0458	10,927.7	87.936	10,927.7	88.2624	10,927.7	86.5345	10,927.7	86.0971	10,927.7	83.4661	10,927.7	83.6042	10,927.7	81.6639	10,927.7	81.7293	10,927.7	78.0157	10,927.7	77.9788	10,927.7	76.9425	10,927.7	72.6698	10,927.7	70.8221	10,927.7	72.1335	10,927.7	67.6428	10,927.7	62.9854	10,927.7	62.4815	10,927.7	64.5769	10,927.7	59.6375	10,927.7	57.0512	10,927.7	57.5413	10,927.7	64.7717	10,927.7	53.5795	10,927.7	72.7907	10,927.7	54.6859	10,927.7	72.5126	10,927.7	56.695	10,927.7	56.5117	10,927.7	59.8422	10,927.7	52.8255	10,927.7	57.5387	10,927.7	42.9269	10,927.7	48.2813	10,927.7	45.2146	10,927.7	43.094
11,313	86.285	11,313	86.403	11,313	86.5443	11,313	86.2246	11,313	85.7781	11,313	83.5042	11,313	81.9372	11,313	81.5401	11,313	81.3135	11,313	78.5208	11,313	78.3047	11,313	76.1398	11,313	75.2714	11,313	68.8452	11,313	69.4069	11,313	66.2702	11,313	69.9504	11,313	62.6874	11,313	67.1452	11,313	60.8784	11,313	47.2672	11,313	54.0574	11,313	68.0583	11,313	57.4462	11,313	74.1905	11,313	57.6108	11,313	73.3469	11,313	59.4569	11,313	58.3236	11,313	60.9777	11,313	51.1736	11,313	57.8112	11,313	54.2159	11,313	53.173	11,313	49.0327	11,313	35.4988
11,712.9	85.8568	11,712.9	86.0439	11,712.9	85.3546	11,712.9	86.0586	11,712.9	85.4101	11,712.9	83.4628	11,712.9	81.8165	11,712.9	81.2291	11,712.9	80.8553	11,712.9	77.265	11,712.9	78.8271	11,712.9	76.7532	11,712.9	76.4784	11,712.9	70.253	11,712.9	71.8427	11,712.9	66.6538	11,712.9	70.9542	11,712.9	62.9477	11,712.9	66.0073	11,712.9	58.6701	11,712.9	61.27	11,712.9	57.107	11,712.9	66.2902	11,712.9	55.5001	11,712.9	72.9809	11,712.9	58.5554	11,712.9	71.1942	11,712.9	58.6115	11,712.9	61.3178	11,712.9	59.8911	11,712.9	55.8575	11,712.9	44.8103	11,712.9	56.3851	11,712.9	53.7452	11,712.9	50.243	11,712.9	52.0417
12,126	85.6173	12,126	85.8698	12,126	85.8897	12,126	84.9197	12,126	84.811	12,126	82.6377	12,126	82.8502	12,126	80.4688	12,126	80.2719	12,126	75.4695	12,126	78.965	12,126	75.2442	12,126	73.9909	12,126	69.0136	12,126	73.4471	12,126	64.748	12,126	67.7645	12,126	61.6184	12,126	65.1696	12,126	55.2591	12,126	63.3796	12,126	55.7721	12,126	64.4987	12,126	48.6506	12,126	71.0699	12,126	51.9133	12,126	70.5539	12,126	56.26	12,126	57.7336	12,126	52.4292	12,126	51.2652	12,126	49.7907	12,126	54.0922	12,126	46.4548	12,126	55.4694	12,126	51.4634
12,553.7	84.989	12,553.7	84.9	12,553.7	85.123	12,553.7	84.5392	12,553.7	84.1159	12,553.7	80.9393	12,553.7	83.3076	12,553.7	79.3092	12,553.7	80.2076	12,553.7	74.9183	12,553.7	79.0192	12,553.7	72.3235	12,553.7	74.6984	12,553.7	63.788	12,553.7	71.47	12,553.7	63.1475	12,553.7	66.5265	12,553.7	54.0566	12,553.7	63.9872	12,553.7	55.0808	12,553.7	61.0874	12,553.7	47.0966	12,553.7	66.3927	12,553.7	46.5082	12,553.7	70.93	12,553.7	49.6915	12,553.7	70.7621	12,553.7	49.0987	12,553.7	58.5794	12,553.7	38.0394	12,553.7	50.8882	12,553.7	46.5356	12,553.7	49.4733	12,553.7	47.276	12,553.7	52.7057	12,553.7	42.5844
12,996.1	84.8833	12,996.1	84.1809	12,996.1	83.7384	12,996.1	83.5879	12,996.1	83.0959	12,996.1	79.9259	12,996.1	82.3593	12,996.1	77.5176	12,996.1	81.4128	12,996.1	72.9366	12,996.1	78.3499	12,996.1	70.4297	12,996.1	74.8637	12,996.1	63.0396	12,996.1	69.2458	12,996.1	58.8237	12,996.1	66.2813	12,996.1	53.5526	12,996.1	63.6	12,996.1	49.9101	12,996.1	63.5413	12,996.1	47.7346	12,996.1	65.3569	12,996.1	40.9942	12,996.1	70.8688	12,996.1	49.9044	12,996.1	69.6004	12,996.1	50.2589	12,996.1	59.6219	12,996.1	46.2364	12,996.1	55.2702	12,996.1	31.0953	12,996.1	40.1059	12,996.1	51.405	12,996.1	48.3449	12,996.1	47.6735
13,454.6	83.7086	13,454.6	83.7951	13,454.6	84.2618	13,454.6	82.5079	13,454.6	83.754	13,454.6	78.6027	13,454.6	80.6497	13,454.6	76.3307	13,454.6	81.4761	13,454.6	71.3706	13,454.6	77.6164	13,454.6	68.4777	13,454.6	73.3463	13,454.6	59.8264	13,454.6	68.1611	13,454.6	56.5376	13,454.6	64.1672	13,454.6	49.0052	13,454.6	62.1911	13,454.6	47.2278	13,454.6	63.2587	13,454.6	40.4857	13,454.6	66.0743	13,454.6	41.0237	13,454.6	69.3049	13,454.6	46.9551	13,454.6	68.6925	13,454.6	49.9373	13,454.6	57.7992	13,454.6	48.9952	13,454.6	39.8649	13,454.6	42.1428	13,454.6	45.8348	13,454.6	48.0442	13,454.6	46.096	13,454.6	47.6447
13,929.2	83.6442	13,929.2	83.2498	13,929.2	84.2894	13,929.2	82.3892	13,929.2	84.2911	13,929.2	79.0102	13,929.2	82.2047	13,929.2	76.4485	13,929.2	80.3982	13,929.2	69.9645	13,929.2	77.5318	13,929.2	67.9542	13,929.2	71.0264	13,929.2	59.6119	13,929.2	66.4333	13,929.2	55.0149	13,929.2	60.0565	13,929.2	40.366	13,929.2	62.9277	13,929.2	48.5979	13,929.2	61.7076	13,929.2	46.212	13,929.2	64.6666	13,929.2	39.8761	13,929.2	70.0196	13,929.2	51.8216	13,929.2	69.2327	13,929.2	52.2458	13,929.2	58.7572	13,929.2	49.1962	13,929.2	48.1034	13,929.2	47.3293	13,929.2	51.2079	13,929.2	42.6736	13,929.2	46.0147	13,929.2	47.9825
14,419.9	85.212	14,419.9	84.5902	14,419.9	84.9353	14,419.9	82.8214	14,419.9	84.5881	14,419.9	79.7248	14,419.9	82.2446	14,419.9	77.1847	14,419.9	78.6902	14,419.9	69.6792	14,419.9	76.4483	14,419.9	67.5676	14,419.9	69.5012	14,419.9	60.5793	14,419.9	65.1233	14,419.9	54.576	14,419.9	57.6642	14,419.9	49.9836	14,419.9	58.7294	14,419.9	51.5493	14,419.9	64.7148	14,419.9	40.6556	14,419.9	66.4253	14,419.9	30.9485	14,419.9	70.1803	14,419.9	44.1906	14,419.9	69.9266	14,419.9	52.0519	14,419.9	59.1466	14,419.9	39.6077	14,419.9	47.7694	14,419.9	42.4296	14,419.9	54.1618	14,419.9	49.6622	14,419.9	47.3969	14,419.9	47.526
14,928.2	85.3437	14,928.2	84.8885	14,928.2	85.251	14,928.2	83.5565	14,928.2	84.2916	14,928.2	79.8147	14,928.2	82.0816	14,928.2	77.3381	14,928.2	79.3065	14,928.2	69.8149	14,928.2	75.4393	14,928.2	66.6681	14,928.2	68.4396	14,928.2	57.7053	14,928.2	62.9866	14,928.2	54.7304	14,928.2	55.1871	14,928.2	52.5159	14,928.2	59.2666	14,928.2	50.1347	14,928.2	64.0231	14,928.2	34.5168	14,928.2	64.994	14,928.2	40.601	14,928.2	69.3791	14,928.2	33.293	14,928.2	69.8893	14,928.2	45.8782	14,928.2	59.6367	14,928.2	35.1034	14,928.2	46.0128	14,928.2	47.2097	14,928.2	52.0058	14,928.2	40.6071	14,928.2	49.3795	14,928.2	48.2151
15,455.6	85.7754	15,455.6	85.3931	15,455.6	85.7922	15,455.6	83.7292	15,455.6	84.0117	15,455.6	79.8073	15,455.6	81.9396	15,455.6	76.7645	15,455.6	79.6703	15,455.6	67.892	15,455.6	73.9144	15,455.6	63.8052	15,455.6	66.5248	15,455.6	54.0769	15,455.6	61.2815	15,455.6	49.3894	15,455.6	52.2344	15,455.6	50.3571	15,455.6	57.2618	15,455.6	43.7018	15,455.6	62.6682	15,455.6	29.0639	15,455.6	64.2788	15,455.6	43.4108	15,455.6	69.5573	15,455.6	32.3665	15,455.6	69.3729	15,455.6	43.3702	15,455.6	59.2785	15,455.6	31.9761	15,455.6	46.8816	15,455.6	45.8782	15,455.6	49.2078	15,455.6	40.7036	15,455.6	43.3628	15,455.6	41.5229
16,000.5	85.0503	16,000.5	85.1326	16,000.5	85.124	16,000.5	83.8475	16,000.5	84.239	16,000.5	79.2506	16,000.5	81.6902	16,000.5	75.2427	16,000.5	78.3825	16,000.5	63.5638	16,000.5	72.415	16,000.5	58.4549	16,000.5	63.3517	16,000.5	51.7132	16,000.5	57.2049	16,000.5	51.3672	16,000.5	51.7791	16,000.5	50.1932	16,000.5	52.5975	16,000.5	43.735	16,000.5	61.6223	16,000.5	42.4555	16,000.5	63.7515	16,000.5	46.221	16,000.5	69.0963	16,000.5	43.6572	16,000.5	68.158	16,000.5	39.724	16,000.5	58.0205	16,000.5	39.9542	16,000.5	46.5049	16,000.5	26.1158	16,000.5	46.273	16,000.5	43.1134	16,000.5	43.8431	16,000.5	37.6426
16,564.5	84.5138	16,564.5	84.4632	16,564.5	84.7937	16,564.5	83.1336	16,564.5	83.8766	16,564.5	78.0264	16,564.5	81.3985	16,564.5	73.1676	16,564.5	76.9986	16,564.5	62.6669	16,564.5	70.1068	16,564.5	54.5333	16,564.5	59.0397	16,564.5	55.0022	16,564.5	49.2809	16,564.5	51.5203	16,564.5	51.6994	16,564.5	51.1447	16,564.5	45.7831	16,564.5	32.0354	16,564.5	59.5523	16,564.5	46.893	16,564.5	62.4645	16,564.5	46.4725	16,564.5	67.5592	16,564.5	44.1888	16,564.5	66.3411	16,564.5	40.866	16,564.5	56.6415	16,564.5	39.2781	16,564.5	39.787	16,564.5	41.2097	16,564.5	47.0847	16,564.5	34.2665	16,564.5	42.9815	16,564.5	37.3167
17,148.9	83.5916	17,148.9	83.5692	17,148.9	83.7774	17,148.9	81.9809	17,148.9	83.0898	17,148.9	75.9979	17,148.9	79.7588	17,148.9	69.7938	17,148.9	74.3556	17,148.9	63.0093	17,148.9	64.3419	17,148.9	59.7558	17,148.9	56.5563	17,148.9	57.7898	17,148.9	55.8652	17,148.9	51.4585	17,148.9	47.7445	17,148.9	49.3078	17,148.9	46.3718	17,148.9	12.2288	17,148.9	57.8048	17,148.9	46.831	17,148.9	62.0071	17,148.9	45.811	17,148.9	66.7251	17,148.9	43.5781	17,148.9	65.0546	17,148.9	41.381	17,148.9	54.0491	17,148.9	38.3786	17,148.9	40.5135	17,148.9	42.9805	17,148.9	43.5193	17,148.9	37.7695	17,148.9	43.1867	17,148.9	28.7609
17,752.4	83.2773	17,752.4	82.6977	17,752.4	83.22	17,752.4	80.587	17,752.4	81.7635	17,752.4	73.1994	17,752.4	78.1479	17,752.4	65.27	17,752.4	71.42	17,752.4	64.4665	17,752.4	63.2083	17,752.4	62.2979	17,752.4	61.4864	17,752.4	58.3514	17,752.4	58.116	17,752.4	49.7139	17,752.4	50.4597	17,752.4	47.7321	17,752.4	50.6095	17,752.4	37.9429	17,752.4	57.5375	17,752.4	43.3992	17,752.4	62.0912	17,752.4	41.4606	17,752.4	65.5507	17,752.4	37.9536	17,752.4	63.0261	17,752.4	35.0031	17,752.4	51.3469	17,752.4	29.0144	17,752.4	26.7808	17,752.4	35.1024	17,752.4	39.3298	17,752.4	35.0024	17,752.4	35.5618	17,752.4	26.7136
18,379.4	83.271	18,379.4	81.8827	18,379.4	82.9756	18,379.4	78.721	18,379.4	80.6015	18,379.4	69.2555	18,379.4	76.4958	18,379.4	63.5195	18,379.4	69.656	18,379.4	65.8236	18,379.4	64.5327	18,379.4	63.3256	18,379.4	62.5304	18,379.4	58.0469	18,379.4	57.9843	18,379.4	47.4281	18,379.4	50.3566	18,379.4	47.4598	18,379.4	48.1983	18,379.4	39.6613	18,379.4	57.2776	18,379.4	44.2533	18,379.4	61.9109	18,379.4	40.2594	18,379.4	64.8678	18,379.4	37.3727	18,379.4	61.7912	18,379.4	39.9014	18,379.4	47.585	18,379.4	39.4836	18,379.4	40.3855	18,379.4	35.343	18,379.4	36.9913	18,379.4	39.212	18,379.4	37.134	18,379.4	34.3463
19,026.9	83.0701	19,026.9	80.7179	19,026.9	82.5308	19,026.9	75.8957	19,026.9	79.4322	19,026.9	64.165	19,026.9	74.395	19,026.9	64.524	19,026.9	67.2167	19,026.9	65.0433	19,026.9	63.8477	19,026.9	62.1361	19,026.9	61.492	19,026.9	54.8462	19,026.9	56.7944	19,026.9	45.4244	19,026.9	47.833	19,026.9	44.3368	19,026.9	45.5414	19,026.9	40.3941	19,026.9	55.0546	19,026.9	41.322	19,026.9	61.316	19,026.9	37.5091	19,026.9	63.5655	19,026.9	34.0963	19,026.9	60.2314	19,026.9	39.1331	19,026.9	46.0369	19,026.9	34.6926	19,026.9	27.1756	19,026.9	36.9544	19,026.9	42.5045	19,026.9	42.754	19,026.9	38.1506	19,026.9	37.9469
19,697.8	82.4533	19,697.8	79.3438	19,697.8	81.7996	19,697.8	72.4921	19,697.8	77.32	19,697.8	55.0183	19,697.8	72.1479	19,697.8	63.7211	19,697.8	65.8809	19,697.8	63.7949	19,697.8	61.1605	19,697.8	60.1135	19,697.8	58.5992	19,697.8	51.9627	19,697.8	53.752	19,697.8	41.6643	19,697.8	46.6962	19,697.8	40.1908	19,697.8	44.7273	19,697.8	39.8423	19,697.8	53.2553	19,697.8	39.536	19,697.8	60.0076	19,697.8	30.0881	19,697.8	62.1863	19,697.8	34.0083	19,697.8	58.5168	19,697.8	34.7841	19,697.8	43.9559	19,697.8	36.4264	19,697.8	31.4854	19,697.8	39.197	19,697.8	40.3568	19,697.8	34.6458	19,697.8	33.5755	19,697.8	28.7953
19,999.5	82.2744	19,999.5	78.4375	19,999.5	81.4489	19,999.5	69.7139	19,999.5	76.1967	19,999.5	58.9931	19,999.5	70.0771	19,999.5	63.4227	19,999.5	64.2423	19,999.5	63.6324	19,999.5	61.6656	19,999.5	58.6962	19,999.5	57.9116	19,999.5	55.4234	19,999.5	51.5847	19,999.5	30.5624	19,999.5	43.9405	19,999.5	40.6986	19,999.5	40.9531	19,999.5	42.1634	19,999.5	54.5826	19,999.5	42.7418	19,999.5	59.7327	19,999.5	32.9006	19,999.5	61.5181	19,999.5	35.8611	19,999.5	58.1939	19,999.5	33.8763	19,999.5	39.5189	19,999.5	42.2846	19,999.5	27.0287	19,999.5	44.373	19,999.5	44.3763	19,999.5	37.7964	19,999.5	41.4496	19,999.5	41.9519
