"SPL Vertical"
"On-Axis"		"10°"		"-10°"		"20°"		"-20°"		"30°"		"-30°"		"40°"		"-40°"		"50°"		"-50°"		"60°"		"-60°"		"70°"		"-70°"		"80°"		"-80°"		"90°"		"-90°"		"100°"		"-100°"		"110°"		"-110°"		"120°"		"-120°"		"130°"		"-130°"		"140°"		"-140°"		"150°"		"-150°"		"160°"		"-160°"		"170°"		"-170°"		"180°"
"Frequency / Hz"	"Sound Pressure Level / dB (re 20 µPa/V)  [2.83  V @ 1. m]"	"Frequency / Hz"	"Sound Pressure Level / dB (re 20 µPa/V)  [2.83  V @ 1. m]"	"Frequency / Hz"	"Sound Pressure Level / dB (re 20 µPa/V)  [2.83  V @ 1. m]"	"Frequency / Hz"	"Sound Pressure Level / dB (re 20 µPa/V)  [2.83  V @ 1. m]"	"Frequency / Hz"	"Sound Pressure Level / dB (re 20 µPa/V)  [2.83  V @ 1. m]"	"Frequency / Hz"	"Sound Pressure Level / dB (re 20 µPa/V)  [2.83  V @ 1. m]"	"Frequency / Hz"	"Sound Pressure Level / dB (re 20 µPa/V)  [2.83  V @ 1. m]"	"Frequency / Hz"	"Sound Pressure Level / dB (re 20 µPa/V)  [2.83  V @ 1. m]"	"Frequency / Hz"	"Sound Pressure Level / dB (re 20 µPa/V)  [2.83  V @ 1. m]"	"Frequency / Hz"	"Sound Pressure Level / dB (re 20 µPa/V)  [2.83  V @ 1. m]"	"Frequency / Hz"	"Sound Pressure Level / dB (re 20 µPa/V)  [2.83  V @ 1. m]"	"Frequency / Hz"	"Sound Pressure Level / dB (re 20 µPa/V)  [2.83  V @ 1. m]"	"Frequency / Hz"	"Sound Pressure Level / dB (re 20 µPa/V)  [2.83  V @ 1. m]"	"Frequency / Hz"	"Sound Pressure Level / dB (re 20 µPa/V)  [2.83  V @ 1. m]"	"Frequency / Hz"	"Sound Pressure Level / dB (re 20 µPa/V)  [2.83  V @ 1. m]"	"Frequency / Hz"	"Sound Pressure Level / dB (re 20 µPa/V)  [2.83  V @ 1. m]"	"Frequency / Hz"	"Sound Pressure Level / dB (re 20 µPa/V)  [2.83  V @ 1. m]"	"Frequency / Hz"	"Sound Pressure Level / dB (re 20 µPa/V)  [2.83  V @ 1. m]"	"Frequency / Hz"	"Sound Pressure Level / dB (re 20 µPa/V)  [2.83  V @ 1. m]"	"Frequency / Hz"	"Sound Pressure Level / dB (re 20 µPa/V)  [2.83  V @ 1. m]"	"Frequency / Hz"	"Sound Pressure Level / dB (re 20 µPa/V)  [2.83  V @ 1. m]"	"Frequency / Hz"	"Sound Pressure Level / dB (re 20 µPa/V)  [2.83  V @ 1. m]"	"Frequency / Hz"	"Sound Pressure Level / dB (re 20 µPa/V)  [2.83  V @ 1. m]"	"Frequency / Hz"	"Sound Pressure Level / dB (re 20 µPa/V)  [2.83  V @ 1. m]"	"Frequency / Hz"	"Sound Pressure Level / dB (re 20 µPa/V)  [2.83  V @ 1. m]"	"Frequency / Hz"	"Sound Pressure Level / dB (re 20 µPa/V)  [2.83  V @ 1. m]"	"Frequency / Hz"	"Sound Pressure Level / dB (re 20 µPa/V)  [2.83  V @ 1. m]"	"Frequency / Hz"	"Sound Pressure Level / dB (re 20 µPa/V)  [2.83  V @ 1. m]"	"Frequency / Hz"	"Sound Pressure Level / dB (re 20 µPa/V)  [2.83  V @ 1. m]"	"Frequency / Hz"	"Sound Pressure Level / dB (re 20 µPa/V)  [2.83  V @ 1. m]"	"Frequency / Hz"	"Sound Pressure Level / dB (re 20 µPa/V)  [2.83  V @ 1. m]"	"Frequency / Hz"	"Sound Pressure Level / dB (re 20 µPa/V)  [2.83  V @ 1. m]"	"Frequency / Hz"	"Sound Pressure Level / dB (re 20 µPa/V)  [2.83  V @ 1. m]"	"Frequency / Hz"	"Sound Pressure Level / dB (re 20 µPa/V)  [2.83  V @ 1. m]"	"Frequency / Hz"	"Sound Pressure Level / dB (re 20 µPa/V)  [2.83  V @ 1. m]"	"Frequency / Hz"	"Sound Pressure Level / dB (re 20 µPa/V)  [2.83  V @ 1. m]"
20.5078	64.7135	20.5078	64.7189	20.5078	64.6911	20.5078	64.707	20.5078	64.6527	20.5078	64.6784	20.5078	64.5996	20.5078	64.634	20.5078	64.5338	20.5078	64.5757	20.5078	64.4575	20.5078	64.5054	20.5078	64.3731	20.5078	64.4258	20.5078	64.2832	20.5078	64.3392	20.5078	64.1904	20.5078	64.2486	20.5078	64.0976	20.5078	64.1564	20.5078	64.0074	20.5078	64.0654	20.5078	63.9225	20.5078	63.978	20.5078	63.8454	20.5078	63.8966	20.5078	63.7783	20.5078	63.8235	20.5078	63.7234	20.5078	63.7607	20.5078	63.6822	20.5078	63.7102	20.5078	63.6561	20.5078	63.6734	20.5078	63.6459	20.5078	63.6517
21.9727	66.0924	21.9727	66.1029	21.9727	66.0669	21.9727	66.0978	21.9727	66.0276	21.9727	66.0769	21.9727	65.976	21.9727	66.0408	21.9727	65.9139	21.9727	65.9907	21.9727	65.8433	21.9727	65.9285	21.9727	65.7662	21.9727	65.8562	21.9727	65.6847	21.9727	65.7762	21.9727	65.6008	21.9727	65.6912	21.9727	65.5168	21.9727	65.6036	21.9727	65.4349	21.9727	65.5161	21.9727	65.3572	21.9727	65.4311	21.9727	65.2861	21.9727	65.3512	21.9727	65.2237	21.9727	65.2787	21.9727	65.1721	21.9727	65.216	21.9727	65.1332	21.9727	65.1651	21.9727	65.1085	21.9727	65.1278	21.9727	65.0991	21.9727	65.1056
23.4375	66.6307	23.4375	66.6315	23.4375	66.615	23.4375	66.617	23.4375	66.5851	23.4375	66.5876	23.4375	66.5424	23.4375	66.5444	23.4375	66.4884	23.4375	66.489	23.4375	66.4253	23.4375	66.4236	23.4375	66.3548	23.4375	66.3504	23.4375	66.2794	23.4375	66.2722	23.4375	66.201	23.4375	66.1914	23.4375	66.1222	23.4375	66.1108	23.4375	66.045	23.4375	66.0325	23.4375	65.9716	23.4375	65.959	23.4375	65.9043	23.4375	65.8921	23.4375	65.8447	23.4375	65.8337	23.4375	65.7946	23.4375	65.7854	23.4375	65.7553	23.4375	65.7484	23.4375	65.728	23.4375	65.7237	23.4375	65.7134	23.4375	65.7119
24.9023	67.3074	24.9023	67.3094	24.9023	67.2915	24.9023	67.2972	24.9023	67.2621	24.9023	67.2712	24.9023	67.2201	24.9023	67.232	24.9023	67.1666	24.9023	67.1805	24.9023	67.1032	24.9023	67.1183	24.9023	67.0314	24.9023	67.047	24.9023	66.9533	24.9023	66.9688	24.9023	66.8711	24.9023	66.8859	24.9023	66.7873	24.9023	66.8008	24.9023	66.7042	24.9023	66.7162	24.9023	66.6244	24.9023	66.6346	24.9023	66.5505	24.9023	66.5587	24.9023	66.4847	24.9023	66.491	24.9023	66.4292	24.9023	66.4337	24.9023	66.3859	24.9023	66.3888	24.9023	66.3562	24.9023	66.3579	24.9023	66.3414	24.9023	66.3419
26.3672	68.2674	26.3672	68.2682	26.3672	68.251	26.3672	68.2535	26.3672	68.2199	26.3672	68.2235	26.3672	68.1751	26.3672	68.1791	26.3672	68.1181	26.3672	68.1218	26.3672	68.0506	26.3672	68.0534	26.3672	67.9746	26.3672	67.9761	26.3672	67.8924	26.3672	67.8923	26.3672	67.8062	26.3672	67.8047	26.3672	67.7186	26.3672	67.7158	26.3672	67.6321	26.3672	67.6285	26.3672	67.5493	26.3672	67.5452	26.3672	67.4727	26.3672	67.4685	26.3672	67.4047	26.3672	67.4008	26.3672	67.3473	26.3672	67.344	26.3672	67.3025	26.3672	67.3	26.3672	67.2716	26.3672	67.27	26.3672	67.2556	26.3672	67.2551
27.832	69.0423	27.832	69.0387	27.832	69.0305	27.832	69.0199	27.832	69.0038	27.832	68.9864	27.832	68.963	27.832	68.9393	27.832	68.9093	27.832	68.8801	27.832	68.8443	27.832	68.8105	27.832	68.7699	27.832	68.7328	27.832	68.688	27.832	68.6492	27.832	68.6011	27.832	68.562	27.832	68.5117	27.832	68.4738	27.832	68.4224	27.832	68.3869	27.832	68.3359	27.832	68.3039	27.832	68.255	27.832	68.2273	27.832	68.1823	27.832	68.1594	27.832	68.1203	27.832	68.1024	27.832	68.0712	27.832	68.0584	27.832	68.0365	27.832	68.0289	27.832	68.0176	27.832	68.0151
29.2969	69.8488	29.2969	69.8483	29.2969	69.8339	29.2969	69.8324	29.2969	69.8043	29.2969	69.8013	29.2969	69.7607	29.2969	69.756	29.2969	69.7047	29.2969	69.6978	29.2969	69.6376	29.2969	69.6284	29.2969	69.5616	29.2969	69.5499	29.2969	69.4785	29.2969	69.4647	29.2969	69.3908	29.2969	69.3752	29.2969	69.3009	29.2969	69.2842	29.2969	69.2115	29.2969	69.1943	29.2969	69.1253	29.2969	69.1084	29.2969	69.0448	29.2969	69.029	29.2969	68.9728	29.2969	68.9589	29.2969	68.9117	29.2969	68.9001	29.2969	68.8633	29.2969	68.8547	29.2969	68.8295	29.2969	68.8242	29.2969	68.8114	29.2969	68.8096
30.7617	70.6809	30.7617	70.6788	30.7617	70.6685	30.7617	70.662	30.7617	70.6419	30.7617	70.6312	30.7617	70.602	30.7617	70.5872	30.7617	70.5502	30.7617	70.5314	30.7617	70.4879	30.7617	70.4655	30.7617	70.417	30.7617	70.3916	30.7617	70.3396	30.7617	70.3118	30.7617	70.258	30.7617	70.2286	30.7617	70.1746	30.7617	70.1443	30.7617	70.0917	30.7617	70.0615	30.7617	70.0119	30.7617	69.9826	30.7617	69.9374	30.7617	69.9099	30.7617	69.8704	30.7617	69.8457	30.7617	69.8131	30.7617	69.7923	30.7617	69.7673	30.7617	69.7514	30.7617	69.7345	30.7617	69.7246	30.7617	69.7161	30.7617	69.7127
32.2266	71.0195	32.2266	71.0219	32.2266	71.0034	32.2266	71.0102	32.2266	70.9741	32.2266	70.9847	32.2266	70.9326	32.2266	70.9462	32.2266	70.88	32.2266	70.8956	32.2266	70.818	32.2266	70.8345	32.2266	70.7481	32.2266	70.7648	32.2266	70.6725	32.2266	70.6885	32.2266	70.5932	32.2266	70.608	32.2266	70.5125	32.2266	70.5257	32.2266	70.4327	32.2266	70.444	32.2266	70.3562	32.2266	70.3654	32.2266	70.2853	32.2266	70.2924	32.2266	70.2221	32.2266	70.2272	32.2266	70.1688	32.2266	70.1721	32.2266	70.127	32.2266	70.1289	32.2266	70.0983	32.2266	70.0992	32.2266	70.0837	32.2266	70.084
33.6914	71.6996	33.6914	71.6987	33.6914	71.6875	33.6914	71.685	33.6914	71.6631	33.6914	71.6587	33.6914	71.6271	33.6914	71.6207	33.6914	71.5808	33.6914	71.5723	33.6914	71.5257	33.6914	71.5149	33.6914	71.4637	33.6914	71.4505	33.6914	71.3966	33.6914	71.3813	33.6914	71.3267	33.6914	71.3096	33.6914	71.2563	33.6914	71.2377	33.6914	71.1874	33.6914	71.1679	33.6914	71.1221	33.6914	71.1025	33.6914	71.0623	33.6914	71.0433	33.6914	71.0095	33.6914	70.992	33.6914	70.965	33.6914	70.9501	33.6914	70.93	33.6914	70.9185	33.6914	70.9053	33.6914	70.898	33.6914	70.8915	33.6914	70.889
35.1562	72.6345	35.1562	72.6278	35.1562	72.6247	35.1562	72.6049	35.1562	72.5986	35.1562	72.5665	35.1562	72.5571	35.1562	72.5138	35.1562	72.5016	35.1562	72.4487	35.1562	72.4338	35.1562	72.3732	35.1562	72.3559	35.1562	72.2895	35.1562	72.2703	35.1562	72.2002	35.1562	72.1797	35.1562	72.108	35.1562	72.0867	35.1562	72.0156	35.1562	71.9943	35.1562	71.9256	35.1562	71.905	35.1562	71.8407	35.1562	71.8217	35.1562	71.7635	35.1562	71.7467	35.1562	71.6963	35.1562	71.6822	35.1562	71.6412	35.1562	71.6303	35.1562	71.6	35.1562	71.5926	35.1562	71.5739	35.1562	71.5702	35.1562	71.5639
36.6211	73.0903	36.6211	73.0861	36.6211	73.0802	36.6211	73.0676	36.6211	73.056	36.6211	73.0357	36.6211	73.0185	36.6211	72.9913	36.6211	72.969	36.6211	72.936	36.6211	72.9091	36.6211	72.8717	36.6211	72.8409	36.6211	72.8002	36.6211	72.7665	36.6211	72.724	36.6211	72.6882	36.6211	72.6454	36.6211	72.6087	36.6211	72.5667	36.6211	72.5303	36.6211	72.4904	36.6211	72.4554	36.6211	72.4186	36.6211	72.3863	36.6211	72.3535	36.6211	72.3248	36.6211	72.2969	36.6211	72.2728	36.6211	72.2504	36.6211	72.2316	36.6211	72.2152	36.6211	72.2024	36.6211	72.1924	36.6211	72.1859	36.6211	72.1825
38.0859	73.8527	38.0859	73.8483	38.0859	73.8398	38.0859	73.8267	38.0859	73.8099	38.0859	73.7891	38.0859	73.764	38.0859	73.7366	38.0859	73.7035	38.0859	73.6712	38.0859	73.6306	38.0859	73.595	38.0859	73.5476	38.0859	73.5104	38.0859	73.4573	38.0859	73.4198	38.0859	73.3625	38.0859	73.3259	38.0859	73.2661	38.0859	73.2315	38.0859	73.1711	38.0859	73.1391	38.0859	73.0804	38.0859	73.0516	38.0859	72.9966	38.0859	72.9715	38.0859	72.9221	38.0859	72.9011	38.0859	72.8592	38.0859	72.8425	38.0859	72.8097	38.0859	72.7976	38.0859	72.775	38.0859	72.7676	38.0859	72.7561	38.0859	72.7537
39.5508	74.1281	39.5508	74.1116	39.5508	74.1285	39.5508	74.0797	39.5508	74.1127	39.5508	74.0336	39.5508	74.0816	39.5508	73.9753	39.5508	74.0365	39.5508	73.9069	39.5508	73.9793	39.5508	73.8309	39.5508	73.9124	39.5508	73.7499	39.5508	73.8382	39.5508	73.6667	39.5508	73.7593	39.5508	73.5837	39.5508	73.6783	39.5508	73.5036	39.5508	73.5976	39.5508	73.4288	39.5508	73.5195	39.5508	73.3614	39.5508	73.446	39.5508	73.3032	39.5508	73.379	39.5508	73.2557	39.5508	73.32	39.5508	73.2201	39.5508	73.2705	39.5508	73.1968	39.5508	73.2316	39.5508	73.1865	39.5508	73.2042	39.5508	73.189
41.0156	74.2484	41.0156	74.2527	41.0156	74.2349	41.0156	74.2475	41.0156	74.2128	41.0156	74.2332	41.0156	74.1837	41.0156	74.2109	41.0156	74.149	41.0156	74.1822	41.0156	74.1109	41.0156	74.1493	41.0156	74.0715	41.0156	74.1143	41.0156	74.033	41.0156	74.0795	41.0156	73.9974	41.0156	74.0468	41.0156	73.9665	41.0156	74.0178	41.0156	73.9414	41.0156	73.9934	41.0156	73.923	41.0156	73.9741	41.0156	73.9113	41.0156	73.9595	41.0156	73.9057	41.0156	73.9489	41.0156	73.9052	41.0156	73.9414	41.0156	73.9082	41.0156	73.9357	41.0156	73.9134	41.0156	73.9305	41.0156	73.9194	41.0156	73.9252
42.4805	74.3735	42.4805	74.3657	42.4805	74.3693	42.4805	74.3462	42.4805	74.3528	42.4805	74.3154	42.4805	74.3243	42.4805	74.2739	42.4805	74.2843	42.4805	74.2226	42.4805	74.2336	42.4805	74.1627	42.4805	74.1738	42.4805	74.0958	42.4805	74.1067	42.4805	74.024	42.4805	74.0347	42.4805	73.9494	42.4805	73.9603	42.4805	73.8748	42.4805	73.886	42.4805	73.8025	42.4805	73.8144	42.4805	73.7351	42.4805	73.7477	42.4805	73.675	42.4805	73.6877	42.4805	73.6239	42.4805	73.6362	42.4805	73.5835	42.4805	73.5942	42.4805	73.5548	42.4805	73.5627	42.4805	73.5383	42.4805	73.5426	42.4805	73.5343
43.9453	75.1164	43.9453	75.1099	43.9453	75.1081	43.9453	75.0889	43.9453	75.0852	43.9453	75.0539	43.9453	75.0485	43.9453	75.006	43.9453	74.9989	43.9453	74.9464	43.9453	74.9381	43.9453	74.877	43.9453	74.868	43.9453	74.8	43.9453	74.791	43.9453	74.718	43.9453	74.7095	43.9453	74.6336	43.9453	74.6264	43.9453	74.5496	43.9453	74.5442	43.9453	74.4688	43.9453	74.4656	43.9453	74.3938	43.9453	74.3927	43.9453	74.3268	43.9453	74.3276	43.9453	74.2698	43.9453	74.2719	43.9453	74.2243	43.9453	74.2269	43.9453	74.1914	43.9453	74.1937	43.9453	74.1718	43.9453	74.1731	43.9453	74.1657
45.4102	75.6766	45.4102	75.6714	45.4102	75.6684	45.4102	75.653	45.4102	75.6471	45.4102	75.622	45.4102	75.6132	45.4102	75.5791	45.4102	75.5679	45.4102	75.5258	45.4102	75.5126	45.4102	75.4636	45.4102	75.4491	45.4102	75.3947	45.4102	75.3797	45.4102	75.3212	45.4102	75.3066	45.4102	75.2459	45.4102	75.2325	45.4102	75.1711	45.4102	75.1597	45.4102	75.0994	45.4102	75.0905	45.4102	75.0331	45.4102	75.0269	45.4102	74.9741	45.4102	74.9704	45.4102	74.9241	45.4102	74.9223	45.4102	74.8842	45.4102	74.8838	45.4102	74.8554	45.4102	74.8556	45.4102	74.838	45.4102	74.8383	45.4102	74.8323
46.875	76.2209	46.875	76.2173	46.875	76.209	46.875	76.1984	46.875	76.1822	46.875	76.1646	46.875	76.1414	46.875	76.1172	46.875	76.0881	46.875	76.0575	46.875	76.0241	46.875	75.9879	46.875	75.9518	46.875	75.9107	46.875	75.8737	46.875	75.8287	46.875	75.7924	46.875	75.7448	46.875	75.7109	46.875	75.662	46.875	75.6316	46.875	75.5829	46.875	75.5569	46.875	75.5101	46.875	75.489	46.875	75.4455	46.875	75.4293	46.875	75.3909	46.875	75.3792	46.875	75.3473	46.875	75.3395	46.875	75.3155	46.875	75.3109	46.875	75.296	46.875	75.2938	46.875	75.2888
48.3398	76.5739	48.3398	76.5685	48.3398	76.5635	48.3398	76.5475	48.3398	76.5379	48.3398	76.5115	48.3398	76.4979	48.3398	76.4619	48.3398	76.4453	48.3398	76.4004	48.3398	76.3819	48.3398	76.3294	48.3398	76.3102	48.3398	76.2514	48.3398	76.2329	48.3398	76.1695	48.3398	76.1528	48.3398	76.0867	48.3398	76.0728	48.3398	76.0059	48.3398	75.9954	48.3398	75.9297	48.3398	75.9231	48.3398	75.8606	48.3398	75.8577	48.3398	75.8004	48.3398	75.8005	48.3398	75.7504	48.3398	75.7526	48.3398	75.7114	48.3398	75.7147	48.3398	75.684	48.3398	75.6869	48.3398	75.668	48.3398	75.6697	48.3398	75.6633
51.2695	77.4927	51.2695	77.4869	51.2695	77.4822	51.2695	77.465	51.2695	77.4556	51.2695	77.4277	51.2695	77.4138	51.2695	77.3764	51.2695	77.3583	51.2695	77.3128	51.2695	77.291	51.2695	77.2391	51.2695	77.2144	51.2695	77.1578	51.2695	77.1312	51.2695	77.0716	51.2695	77.0443	51.2695	76.9835	51.2695	76.9567	51.2695	76.8963	51.2695	76.8713	51.2695	76.8128	51.2695	76.7906	51.2695	76.7356	51.2695	76.717	51.2695	76.6669	51.2695	76.6523	51.2695	76.6085	51.2695	76.5977	51.2695	76.5618	51.2695	76.5545	51.2695	76.5277	51.2695	76.5233	51.2695	76.5067	51.2695	76.5046	51.2695	76.499
52.7344	77.9527	52.7344	77.9495	52.7344	77.9394	52.7344	77.9299	52.7344	77.9101	52.7344	77.8946	52.7344	77.8661	52.7344	77.8449	52.7344	77.8088	52.7344	77.7825	52.7344	77.7405	52.7344	77.7098	52.7344	77.6636	52.7344	77.6295	52.7344	77.5811	52.7344	77.5446	52.7344	77.496	52.7344	77.4581	52.7344	77.4112	52.7344	77.3731	52.7344	77.3295	52.7344	77.2924	52.7344	77.2535	52.7344	77.2183	52.7344	77.1851	52.7344	77.1529	52.7344	77.1259	52.7344	77.0977	52.7344	77.0769	52.7344	77.0537	52.7344	77.0387	52.7344	77.0215	52.7344	77.0119	52.7344	77.0012	52.7344	76.9965	52.7344	76.9929
54.1992	78.4083	54.1992	78.4063	54.1992	78.3933	54.1992	78.3874	54.1992	78.3619	54.1992	78.3525	54.1992	78.3153	54.1992	78.3027	54.1992	78.2552	54.1992	78.2402	54.1992	78.1839	54.1992	78.1674	54.1992	78.1041	54.1992	78.0871	54.1992	78.0189	54.1992	78.0024	54.1992	77.9315	54.1992	77.9166	54.1992	77.8452	54.1992	77.8327	54.1992	77.763	54.1992	77.7533	54.1992	77.6874	54.1992	77.6808	54.1992	77.6207	54.1992	77.6168	54.1992	77.5642	54.1992	77.5625	54.1992	77.5188	54.1992	77.5187	54.1992	77.485	54.1992	77.4856	54.1992	77.4627	54.1992	77.4634	54.1992	77.4518	54.1992	77.4521
55.6641	78.7078	55.6641	78.6928	55.6641	78.7022	55.6641	78.6579	55.6641	78.6761	55.6641	78.6046	55.6641	78.6301	55.6641	78.5348	55.6641	78.5659	55.6641	78.4512	55.6641	78.4858	55.6641	78.3565	55.6641	78.3926	55.6641	78.2542	55.6641	78.2898	55.6641	78.1475	55.6641	78.1811	55.6641	78.04	55.6641	78.0704	55.6641	77.9351	55.6641	77.9615	55.6641	77.8361	55.6641	77.858	55.6641	77.7458	55.6641	77.7631	55.6641	77.6664	55.6641	77.6794	55.6641	77.5998	55.6641	77.6091	55.6641	77.5472	55.6641	77.5533	55.6641	77.5094	55.6641	77.513	55.6641	77.4868	55.6641	77.4885	55.6641	77.4798
58.5938	79.3817	58.5938	79.3817	58.5938	79.3648	58.5938	79.3647	58.5938	79.3317	58.5938	79.331	58.5938	79.2837	58.5938	79.2819	58.5938	79.2225	58.5938	79.219	58.5938	79.1505	58.5938	79.1446	58.5938	79.0703	58.5938	79.0616	58.5938	78.985	58.5938	78.9731	58.5938	78.8977	58.5938	78.8825	58.5938	78.8114	58.5938	78.7932	58.5938	78.7291	58.5938	78.7082	58.5938	78.653	58.5938	78.6302	58.5938	78.5851	58.5938	78.5616	58.5938	78.5266	58.5938	78.5039	58.5938	78.4784	58.5938	78.4582	58.5938	78.441	58.5938	78.425	58.5938	78.4146	58.5938	78.4044	58.5938	78.3995	58.5938	78.396
60.0586	79.7663	60.0586	79.7631	60.0586	79.7517	60.0586	79.7421	60.0586	79.7201	60.0586	79.7041	60.0586	79.6726	60.0586	79.6504	60.0586	79.611	60.0586	79.5829	60.0586	79.5376	60.0586	79.504	60.0586	79.4551	60.0586	79.4169	60.0586	79.3667	60.0586	79.3249	60.0586	79.2756	60.0586	79.2312	60.0586	79.1849	60.0586	79.1394	60.0586	79.0976	60.0586	79.0525	60.0586	79.0164	60.0586	78.9731	60.0586	78.9434	60.0586	78.9033	60.0586	78.8801	60.0586	78.8447	60.0586	78.8277	60.0586	78.7984	60.0586	78.7867	60.0586	78.7648	60.0586	78.7577	60.0586	78.7441	60.0586	78.7407	60.0586	78.7361
62.9883	80.4113	62.9883	80.4028	62.9883	80.4014	62.9883	80.376	62.9883	80.3735	62.9883	80.3319	62.9883	80.3288	62.9883	80.2722	62.9883	80.2691	62.9883	80.1991	62.9883	80.1969	62.9883	80.1154	62.9883	80.1149	62.9883	80.0244	62.9883	80.0264	62.9883	79.9297	62.9883	79.9348	62.9883	79.8347	62.9883	79.8433	62.9883	79.7429	62.9883	79.7549	62.9883	79.6574	62.9883	79.6723	62.9883	79.5806	62.9883	79.5975	62.9883	79.5145	62.9883	79.5322	62.9883	79.4603	62.9883	79.4772	62.9883	79.4188	62.9883	79.4333	62.9883	79.3901	62.9883	79.4008	62.9883	79.3743	62.9883	79.3799	62.9883	79.371
64.4531	80.673	64.4531	80.6616	64.4531	80.6661	64.4531	80.6321	64.4531	80.6412	64.4531	80.5859	64.4531	80.5995	64.4531	80.5246	64.4531	80.5428	64.4531	80.4508	64.4531	80.4737	64.4531	80.3673	64.4531	80.395	64.4531	80.2775	64.4531	80.3101	64.4531	80.185	64.4531	80.2222	64.4531	80.0931	64.4531	80.1345	64.4531	80.0051	64.4531	80.05	64.4531	79.924	64.4531	79.9709	64.4531	79.8521	64.4531	79.8992	64.4531	79.7911	64.4531	79.8361	64.4531	79.7421	64.4531	79.7824	64.4531	79.7056	64.4531	79.7387	64.4531	79.6817	64.4531	79.7053	64.4531	79.6702	64.4531	79.6825	64.4531	79.6706
67.3828	81.2418	67.3828	81.2335	67.3828	81.2322	67.3828	81.2074	67.3828	81.2052	67.3828	81.1646	67.3828	81.1624	67.3828	81.1071	67.3828	81.1058	67.3828	81.0372	67.3828	81.0383	67.3828	80.9582	67.3828	80.9632	67.3828	80.8735	67.3828	80.8837	67.3828	80.7866	67.3828	80.8033	67.3828	80.7012	67.3828	80.725	67.3828	80.6206	67.3828	80.6514	67.3828	80.5476	67.3828	80.5844	67.3828	80.4843	67.3828	80.5251	67.3828	80.4321	67.3828	80.4741	67.3828	80.3916	67.3828	80.4315	67.3828	80.3628	67.3828	80.3969	67.3828	80.3452	67.3828	80.3701	67.3828	80.3381	67.3828	80.3512	67.3828	80.3403
68.8477	81.4775	68.8477	81.4708	68.8477	81.4669	68.8477	81.447	68.8477	81.4396	68.8477	81.4071	68.8477	81.3971	68.8477	81.3532	68.8477	81.3416	68.8477	81.2878	68.8477	81.276	68.8477	81.2141	68.8477	81.2038	68.8477	81.1356	68.8477	81.1284	68.8477	81.056	68.8477	81.0534	68.8477	80.9788	68.8477	80.982	68.8477	80.9073	68.8477	80.9166	68.8477	80.8439	68.8477	80.859	68.8477	80.7904	68.8477	80.81	68.8477	80.7476	68.8477	80.7698	68.8477	80.7154	68.8477	80.7379	68.8477	80.6933	68.8477	80.7132	68.8477	80.6801	68.8477	80.695	68.8477	80.6746	68.8477	80.6826	68.8477	80.6757
71.7773	82.0513	71.7773	82.0473	71.7773	82.0364	71.7773	82.0246	71.7773	82.0033	71.7773	81.9842	71.7773	81.9536	71.7773	81.928	71.7773	81.8897	71.7773	81.8586	71.7773	81.8147	71.7773	81.7793	71.7773	81.7323	71.7773	81.694	71.7773	81.6465	71.7773	81.6068	71.7773	81.5614	71.7773	81.5217	71.7773	81.4808	71.7773	81.4425	71.7773	81.4079	71.7773	81.3723	71.7773	81.345	71.7773	81.3131	71.7773	81.2931	71.7773	81.2658	71.7773	81.2525	71.7773	81.2302	71.7773	81.2224	71.7773	81.2052	71.7773	81.2013	71.7773	81.1892	71.7773	81.1876	71.7773	81.1805	71.7773	81.18	71.7773	81.1776
74.707	82.7002	74.707	82.6971	74.707	82.6827	74.707	82.6735	74.707	82.6455	74.707	82.6304	74.707	82.5901	74.707	82.5695	74.707	82.5188	74.707	82.4933	74.707	82.4347	74.707	82.4051	74.707	82.3416	74.707	82.3087	74.707	82.2435	74.707	82.2081	74.707	82.1445	74.707	82.1078	74.707	82.0488	74.707	82.0118	74.707	81.9597	74.707	81.9236	74.707	81.8802	74.707	81.846	74.707	81.812	74.707	81.781	74.707	81.7559	74.707	81.729	74.707	81.7118	74.707	81.6901	74.707	81.6793	74.707	81.6632	74.707	81.6572	74.707	81.6474	74.707	81.6447	74.707	81.6414
77.6367	83.2547	77.6367	83.2496	77.6367	83.239	77.6367	83.2241	77.6367	83.2035	77.6367	83.179	77.6367	83.1496	77.6367	83.1163	77.6367	83.0798	77.6367	83.0386	77.6367	82.9972	77.6367	82.9492	77.6367	82.9056	77.6367	82.8518	77.6367	82.8087	77.6367	82.7507	77.6367	82.7109	77.6367	82.6499	77.6367	82.6157	77.6367	82.5532	77.6367	82.5266	77.6367	82.4642	77.6367	82.446	77.6367	82.3855	77.6367	82.3756	77.6367	82.3189	77.6367	82.3163	77.6367	82.2655	77.6367	82.268	77.6367	82.2254	77.6367	82.2306	77.6367	82.1983	77.6367	82.2035	77.6367	82.1833	77.6367	82.1865	77.6367	82.1797
79.1016	83.4744	79.1016	83.4677	79.1016	83.4602	79.1016	83.4402	79.1016	83.4257	79.1016	83.393	79.1016	83.3727	79.1016	83.3283	79.1016	83.3036	79.1016	83.2487	79.1016	83.2217	79.1016	83.1579	79.1016	83.1309	79.1016	83.0599	79.1016	83.0352	79.1016	82.959	79.1016	82.9389	79.1016	82.8594	79.1016	82.8459	79.1016	82.765	79.1016	82.7592	79.1016	82.6793	79.1016	82.6814	79.1016	82.6048	79.1016	82.6138	79.1016	82.5429	79.1016	82.5571	79.1016	82.4944	79.1016	82.5111	79.1016	82.4591	79.1016	82.4752	79.1016	82.4361	79.1016	82.4489	79.1016	82.4246	79.1016	82.4316	79.1016	82.4233
82.0312	83.8566	82.0312	83.8499	82.0312	83.8419	82.0312	83.8219	82.0312	83.8065	82.0312	83.7739	82.0312	83.7523	82.0312	83.708	82.0312	83.682	82.0312	83.6272	82.0312	83.5992	82.0312	83.5353	82.0312	83.508	82.0312	83.4365	82.0312	83.4129	82.0312	83.3354	82.0312	83.3181	82.0312	83.2365	82.0312	83.2276	82.0312	83.1438	82.0312	83.1445	82.0312	83.0608	82.0312	83.0712	82.0312	82.9899	82.0312	83.0086	82.0312	82.9325	82.0312	82.9569	82.0312	82.889	82.0312	82.9155	82.0312	82.8587	82.0312	82.8833	82.0312	82.8404	82.0312	82.8593	82.0312	82.8325	82.0312	82.8428	82.0312	82.8337
84.9609	84.1663	84.9609	84.1648	84.9609	84.1494	84.9609	84.1449	84.9609	84.1152	84.9609	84.1075	84.9609	84.0654	84.9609	84.0543	84.9609	84.0029	84.9609	83.9882	84.9609	83.931	84.9609	83.9123	84.9609	83.8535	84.9609	83.8308	84.9609	83.7746	84.9609	83.7478	84.9609	83.6982	84.9609	83.6675	84.9609	83.6276	84.9609	83.5935	84.9609	83.5655	84.9609	83.5288	84.9609	83.5133	84.9609	83.4752	84.9609	83.4713	84.9609	83.4335	84.9609	83.4389	84.9609	83.4034	84.9609	83.4147	84.9609	83.3838	84.9609	83.3969	84.9609	83.3729	84.9609	83.3842	84.9609	83.3689	84.9609	83.3753	84.9609	83.3701
87.8906	84.922	87.8906	84.9163	87.8906	84.9048	87.8906	84.8878	87.8906	84.8657	87.8906	84.8378	87.8906	84.8067	87.8906	84.7688	87.8906	84.7311	87.8906	84.6843	87.8906	84.6431	87.8906	84.5887	87.8906	84.5476	87.8906	84.4872	87.8906	84.4498	87.8906	84.3855	87.8906	84.355	87.8906	84.2889	87.8906	84.2679	87.8906	84.2023	87.8906	84.1922	87.8906	84.1293	87.8906	84.1299	87.8906	84.0719	87.8906	84.0817	87.8906	84.0304	87.8906	84.0467	87.8906	84.0035	87.8906	84.0228	87.8906	83.9886	87.8906	84.0071	87.8906	83.9826	87.8906	83.997	87.8906	83.9823	87.8906	83.9902	87.8906	83.9853
90.8203	85.2557	90.8203	85.2522	90.8203	85.231	90.8203	85.2204	90.8203	85.1798	90.8203	85.1618	90.8203	85.1048	90.8203	85.079	90.8203	85.0101	90.8203	84.9762	90.8203	84.901	90.8203	84.8587	90.8203	84.7831	90.8203	84.7323	90.8203	84.6626	90.8203	84.6035	90.8203	84.5451	90.8203	84.4786	90.8203	84.4358	90.8203	84.3634	90.8203	84.3387	90.8203	84.2624	90.8203	84.256	90.8203	84.1788	90.8203	84.1886	90.8203	84.114	90.8203	84.1358	90.8203	84.0675	90.8203	84.0956	90.8203	84.0376	90.8203	84.0658	90.8203	84.0216	90.8203	84.0441	90.8203	84.0164	90.8203	84.0289	90.8203	84.0194
95.2148	85.6031	95.2148	85.5957	95.2148	85.5877	95.2148	85.5657	95.2148	85.5503	95.2148	85.5146	95.2148	85.4929	95.2148	85.4448	95.2148	85.4186	95.2148	85.3599	95.2148	85.3315	95.2148	85.264	95.2148	85.2362	95.2148	85.162	95.2148	85.1381	95.2148	85.059	95.2148	85.0422	95.2148	84.9601	95.2148	84.9531	95.2148	84.8697	95.2148	84.8745	95.2148	84.7915	95.2148	84.8084	95.2148	84.7279	95.2148	84.7555	95.2148	84.6799	95.2148	84.7149	95.2148	84.647	95.2148	84.6847	95.2148	84.6274	95.2148	84.6624	95.2148	84.6189	95.2148	84.6457	95.2148	84.6184	95.2148	84.633	95.2148	84.6237
98.1445	86.0645	98.1445	86.0592	98.1445	86.0456	98.1445	86.0299	98.1445	86.0038	98.1445	85.9778	98.1445	85.9412	98.1445	85.9057	98.1445	85.8614	98.1445	85.8169	98.1445	85.7688	98.1445	85.7161	98.1445	85.6686	98.1445	85.6084	98.1445	85.5662	98.1445	85.4994	98.1445	85.4669	98.1445	85.3945	98.1445	85.3752	98.1445	85.2987	98.1445	85.2945	98.1445	85.216	98.1445	85.2267	98.1445	85.1488	98.1445	85.1723	98.1445	85.0981	98.1445	85.1302	98.1445	85.0632	98.1445	85.0987	98.1445	85.0422	98.1445	85.0753	98.1445	85.0325	98.1445	85.058	98.1445	85.0312	98.1445	85.045	98.1445	85.0359
101.074	86.3187	101.074	86.3218	101.074	86.2906	101.074	86.2996	101.074	86.2391	101.074	86.2535	101.074	86.1671	101.074	86.1858	101.074	86.0789	101.074	86.1003	101.074	85.9798	101.074	86.0016	101.074	85.8759	101.074	85.8953	101.074	85.7733	101.074	85.7871	101.074	85.6777	101.074	85.6831	101.074	85.5936	101.074	85.5884	101.074	85.5239	101.074	85.5072	101.074	85.4695	101.074	85.442	101.074	85.4293	101.074	85.3938	101.074	85.4011	101.074	85.3617	101.074	85.3817	101.074	85.3434	101.074	85.368	101.074	85.3361	101.074	85.3575	101.074	85.3363	101.074	85.3487	101.074	85.3413
105.469	86.7838	105.469	86.8073	105.469	86.7324	105.469	86.803	105.469	86.6548	105.469	86.7725	105.469	86.5542	105.469	86.7189	105.469	86.4358	105.469	86.6463	105.469	86.3064	105.469	86.5597	105.469	86.1739	105.469	86.4647	105.469	86.0471	105.469	86.3669	105.469	85.9343	105.469	86.2716	105.469	85.8426	105.469	86.1834	105.469	85.7763	105.469	86.1056	105.469	85.7368	105.469	86.0402	105.469	85.722	105.469	85.9878	105.469	85.7273	105.469	85.9474	105.469	85.7465	105.469	85.9168	105.469	85.7729	105.469	85.8928	105.469	85.8012	105.469	85.872	105.469	85.8277	105.469	85.8511
108.398	87.072	108.398	87.0757	108.398	87.0372	108.398	87.049	108.398	86.9722	108.398	86.9947	108.398	86.8798	108.398	86.9165	108.398	86.7646	108.398	86.8202	108.398	86.6327	108.398	86.7122	108.398	86.492	108.398	86.5999	108.398	86.3512	108.398	86.4903	108.398	86.2196	108.398	86.3902	108.398	86.1057	108.398	86.3043	108.398	86.0161	108.398	86.2356	108.398	85.9547	108.398	86.1846	108.398	85.9221	108.398	86.1491	108.398	85.9154	108.398	86.1253	108.398	85.9292	108.398	86.1083	108.398	85.9563	108.398	86.093	108.398	85.9895	108.398	86.0752	108.398	86.0228	108.398	86.052
112.793	87.4886	112.793	87.4887	112.793	87.4563	112.793	87.4571	112.793	87.3931	112.793	87.3958	112.793	87.3018	112.793	87.3083	112.793	87.1872	112.793	87.1998	112.793	87.0554	112.793	87.0765	112.793	86.9138	112.793	86.9459	112.793	86.7711	112.793	86.8158	112.793	86.6357	112.793	86.6936	112.793	86.5156	112.793	86.586	112.793	86.417	112.793	86.4976	112.793	86.3435	112.793	86.4304	112.793	86.2956	112.793	86.3837	112.793	86.271	112.793	86.3544	112.793	86.265	112.793	86.3376	112.793	86.2716	112.793	86.3279	112.793	86.2845	112.793	86.3202	112.793	86.2987	112.793	86.311
117.188	87.8751	117.188	87.8828	117.188	87.8333	117.188	87.8566	117.188	87.7588	117.188	87.7984	117.188	87.6547	117.188	87.7118	117.188	87.5262	117.188	87.6016	117.188	87.3799	117.188	87.4741	117.188	87.224	117.188	87.3364	117.188	87.0675	117.188	87.1964	117.188	86.9195	117.188	87.0616	117.188	86.7886	117.188	86.939	117.188	86.6811	117.188	86.834	117.188	86.6006	117.188	86.7495	117.188	86.5476	117.188	86.686	117.188	86.5195	117.188	86.6413	117.188	86.5112	117.188	86.6114	117.188	86.5167	117.188	86.5912	117.188	86.5298	117.188	86.5756	117.188	86.5456	117.188	86.5611
120.117	87.969	120.117	87.9738	120.117	87.9311	120.117	87.9464	120.117	87.8613	120.117	87.8893	120.117	87.7626	120.117	87.8065	120.117	87.6396	120.117	87.7034	120.117	87.4992	120.117	87.5862	120.117	87.3495	120.117	87.4622	120.117	87.1995	120.117	87.3384	120.117	87.0587	120.117	87.2217	120.117	86.9356	120.117	87.1176	120.117	86.8367	120.117	87.0301	120.117	86.7657	120.117	86.9611	120.117	86.723	120.117	86.9099	120.117	86.7057	120.117	86.874	120.117	86.7085	120.117	86.8491	120.117	86.7246	120.117	86.8303	120.117	86.7476	120.117	86.8131	120.117	86.7719	120.117	86.7941
124.512	88.273	124.512	88.2665	124.512	88.2441	124.512	88.2257	124.512	88.1808	124.512	88.1534	124.512	88.086	124.512	88.0546	124.512	87.9647	124.512	87.9356	124.512	87.8239	124.512	87.8041	124.512	87.672	124.512	87.6686	124.512	87.5187	124.512	87.5377	124.512	87.374	124.512	87.4191	124.512	87.2471	124.512	87.3189	124.512	87.1452	124.512	87.2407	124.512	87.0725	124.512	87.1851	124.512	87.0293	124.512	87.15	124.512	87.0127	124.512	87.1309	124.512	87.0168	124.512	87.1218	124.512	87.0341	124.512	87.1165	124.512	87.0573	124.512	87.1098	124.512	87.08	124.512	87.098
128.906	88.5564	128.906	88.5463	128.906	88.53	128.906	88.5009	128.906	88.4682	128.906	88.4229	128.906	88.374	128.906	88.3171	128.906	88.2525	128.906	88.1902	128.906	88.1103	128.906	88.0502	128.906	87.9559	128.906	87.9059	128.906	87.7989	128.906	87.7667	128.906	87.6492	128.906	87.641	128.906	87.5162	128.906	87.5357	128.906	87.4077	128.906	87.455	128.906	87.3284	128.906	87.3997	128.906	87.2795	128.906	87.3674	128.906	87.2585	128.906	87.3529	128.906	87.2598	128.906	87.3491	128.906	87.2758	128.906	87.349	128.906	87.2984	128.906	87.3464	128.906	87.3205	128.906	87.3372
133.301	88.7976	133.301	88.7829	133.301	88.7755	133.301	88.7321	133.301	88.7178	133.301	88.648	133.301	88.6279	133.301	88.5353	133.301	88.5108	133.301	88.4008	133.301	88.3737	133.301	88.2529	133.301	88.2249	133.301	88.1009	133.301	88.0739	133.301	87.9548	133.301	87.9303	133.301	87.8236	133.301	87.8027	133.301	87.7146	133.301	87.698	133.301	87.6322	133.301	87.6198	133.301	87.5774	133.301	87.5686	133.301	87.5475	133.301	87.5416	133.301	87.5373	133.301	87.5335	133.301	87.5399	133.301	87.5375	133.301	87.548	133.301	87.5465	133.301	87.5555	133.301	87.5548	133.301	87.5583
139.16	89.0034	139.16	88.9826	139.16	88.9842	139.16	88.9228	139.16	88.9264	139.16	88.8272	139.16	88.8337	139.16	88.7015	139.16	88.7121	139.16	88.5535	139.16	88.5697	139.16	88.393	139.16	88.4165	139.16	88.2309	139.16	88.2633	139.16	88.0785	139.16	88.1209	139.16	87.946	139.16	87.9988	139.16	87.8414	139.16	87.9038	139.16	87.7691	139.16	87.8388	139.16	87.7291	139.16	87.8026	139.16	87.7177	139.16	87.7902	139.16	87.7278	139.16	87.7941	139.16	87.7509	139.16	87.8059	139.16	87.7783	139.16	87.8176	139.16	87.8024	139.16	87.8229	139.16	87.8181
143.555	89.1774	143.555	89.156	143.555	89.1563	143.555	89.093	143.555	89.0944	143.555	88.9917	143.555	88.9958	143.555	88.858	143.555	88.8667	143.555	88.7003	143.555	88.7159	143.555	88.529	143.555	88.5537	143.555	88.3563	143.555	88.3917	143.555	88.1949	143.555	88.2417	143.555	88.0564	143.555	88.1142	143.555	87.95	143.555	88.0168	143.555	87.8803	143.555	87.953	143.555	87.8472	143.555	87.9216	143.555	87.8458	143.555	87.9171	143.555	87.8673	143.555	87.9308	143.555	87.9013	143.555	87.9529	143.555	87.9374	143.555	87.9737	143.555	87.9668	143.555	87.9855	143.555	87.9836
147.949	89.3637	147.949	89.3353	147.949	89.3469	147.949	89.2622	147.949	89.2867	147.949	89.1479	147.949	89.1873	147.949	88.9981	147.949	89.0552	147.949	88.8215	147.949	88.8994	147.949	88.6293	147.949	88.7307	147.949	88.4345	147.949	88.561	147.949	88.2513	147.949	88.4026	147.949	88.0931	147.949	88.2661	147.949	87.9707	147.949	88.1595	147.949	87.8902	147.949	88.0861	147.949	87.8521	147.949	88.0447	147.949	87.8512	147.949	88.0299	147.949	87.8779	147.949	88.0328	147.949	87.9205	147.949	88.0435	147.949	87.9674	147.949	88.0526	147.949	88.0088	147.949	88.0523	147.949	88.0381
153.809	89.5337	153.809	89.507	153.809	89.5126	153.809	89.433	153.809	89.4461	153.809	89.3145	153.809	89.3386	153.809	89.1571	153.809	89.1976	153.809	88.9694	153.809	89.0326	153.809	88.7624	153.809	88.8554	153.809	88.5501	153.809	88.6787	153.809	88.3478	153.809	88.5154	153.809	88.1711	153.809	88.3768	153.809	88.0332	153.809	88.2707	153.809	87.9427	153.809	88.2002	153.809	87.9012	153.809	88.1631	153.809	87.9038	153.809	88.1527	153.809	87.9396	153.809	88.1592	153.809	87.9948	153.809	88.1714	153.809	88.0558	153.809	88.179	153.809	88.1106	153.809	88.1738	153.809	88.1512
159.668	89.7252	159.668	89.7192	159.668	89.6834	159.668	89.665	159.668	89.5965	159.668	89.5651	159.668	89.4703	159.668	89.4248	159.668	89.3132	159.668	89.2518	159.668	89.1366	159.668	89.0567	159.668	88.9541	159.668	88.8525	159.668	88.7804	159.668	88.6544	159.668	88.6297	159.668	88.4778	159.668	88.5137	159.668	88.3372	159.668	88.4389	159.668	88.2429	159.668	88.4058	159.668	88.1992	159.668	88.4083	159.668	88.2032	159.668	88.4355	159.668	88.2452	159.668	88.4737	159.668	88.3111	159.668	88.5093	159.668	88.3852	159.668	88.5307	159.668	88.453	159.668	88.5299	159.668	88.5035
165.527	89.8505	165.527	89.8414	165.527	89.8078	165.527	89.7808	165.527	89.7155	165.527	89.6721	165.527	89.5788	165.527	89.5217	165.527	89.4063	165.527	89.3387	165.527	89.2094	165.527	89.1352	165.527	89.0027	165.527	88.926	165.527	88.8029	165.527	88.7273	165.527	88.6269	165.527	88.5553	165.527	88.4897	165.527	88.424	165.527	88.4009	165.527	88.3423	165.527	88.3631	165.527	88.312	165.527	88.371	165.527	88.3276	165.527	88.4128	165.527	88.3772	165.527	88.4726	165.527	88.4449	165.527	88.534	165.527	88.5143	165.527	88.5826	165.527	88.5707	165.527	88.6077	165.527	88.6037
171.387	90.0393	171.387	90.0216	171.387	90.002	171.387	89.9495	171.387	89.9115	171.387	89.8264	171.387	89.7726	171.387	89.6583	171.387	89.5928	171.387	89.4544	171.387	89.3832	171.387	89.227	171.387	89.1577	171.387	88.9913	171.387	88.9332	171.387	88.7648	171.387	88.7276	171.387	88.5654	171.387	88.5575	171.387	88.409	171.387	88.4354	171.387	88.3061	171.387	88.3667	171.387	88.26	171.387	88.3485	171.387	88.2654	171.387	88.3704	171.387	88.3095	171.387	88.4168	171.387	88.3752	171.387	88.4704	171.387	88.4443	171.387	88.5152	171.387	88.5012	171.387	88.5389	171.387	88.5345
177.246	90.0508	177.246	90.0305	177.246	90.0115	177.246	89.9506	177.246	89.9154	177.246	89.8143	177.246	89.7683	177.246	89.6277	177.246	89.579	177.246	89.4008	177.246	89.3599	177.246	89.1472	177.246	89.1263	177.246	88.8846	177.246	88.8959	177.246	88.6334	177.246	88.6869	177.246	88.4147	177.246	88.5158	177.246	88.2472	177.246	88.3943	177.246	88.1426	177.246	88.3267	177.246	88.1036	177.246	88.3092	177.246	88.1225	177.246	88.3307	177.246	88.1836	177.246	88.3752	177.246	88.2668	177.246	88.4253	177.246	88.3522	177.246	88.4649	177.246	88.4231	177.246	88.4815	177.246	88.4679
183.105	90.1132	183.105	90.1097	183.105	90.0553	183.105	90.0436	183.105	89.9398	183.105	89.9169	183.105	89.7741	183.105	89.7345	183.105	89.5686	183.105	89.5047	183.105	89.3375	183.105	89.2402	183.105	89.0979	183.105	88.958	183.105	88.8688	183.105	88.6792	183.105	88.6687	183.105	88.4276	183.105	88.5127	183.105	88.2263	183.105	88.4098	183.105	88.093	183.105	88.3606	183.105	88.0351	183.105	88.3578	183.105	88.0475	183.105	88.3879	183.105	88.1139	183.105	88.434	183.105	88.2118	183.105	88.479	183.105	88.3172	183.105	88.5077	183.105	88.4101	183.105	88.5088	183.105	88.4763
188.965	90.1427	188.965	90.161	188.965	90.0591	188.965	90.1132	188.965	89.9136	188.965	90.0012	188.965	89.7131	188.965	89.8295	188.965	89.4685	188.965	89.6057	188.965	89.1955	188.965	89.3413	188.965	88.9144	188.965	89.0523	188.965	88.6494	188.965	88.7591	188.965	88.4256	188.965	88.486	188.965	88.2639	188.965	88.258	188.965	88.1758	188.965	88.0964	188.965	88.1601	188.965	88.0133	188.965	88.2027	188.965	88.0079	188.965	88.2812	188.965	88.0661	188.965	88.3701	188.965	88.1651	188.965	88.4465	188.965	88.279	188.965	88.4929	188.965	88.3838	188.965	88.4988	188.965	88.461
196.289	90.2391	196.289	90.2565	196.289	90.1525	196.289	90.2048	196.289	89.9995	196.289	90.0872	196.289	89.7865	196.289	89.9097	196.289	89.5245	196.289	89.6814	196.289	89.2296	196.289	89.4148	196.289	88.9234	196.289	89.1264	196.289	88.6316	196.289	88.836	196.289	88.3812	196.289	88.5658	196.289	88.1954	196.289	88.338	196.289	88.0879	196.289	88.1716	196.289	88.0588	196.289	88.0776	196.289	88.0951	196.289	88.0561	196.289	88.1744	196.289	88.0958	196.289	88.2704	196.289	88.1761	196.289	88.3588	196.289	88.2723	196.289	88.4202	196.289	88.3603	196.289	88.4423	196.289	88.4211
203.613	90.2557	203.613	90.2852	203.613	90.1489	203.613	90.2401	203.613	89.9653	203.613	90.1249	203.613	89.7087	203.613	89.9471	203.613	89.3879	203.613	89.7162	203.613	89.0175	203.613	89.4449	203.613	88.6196	203.613	89.1493	203.613	88.2243	203.613	88.8485	203.613	87.868	203.613	88.5648	203.613	87.5882	203.613	88.3208	203.613	87.414	203.613	88.1359	203.613	87.3567	203.613	88.0216	203.613	87.4054	203.613	87.9773	203.613	87.5306	203.613	87.9903	203.613	87.6945	203.613	88.0383	203.613	87.8606	203.613	88.0951	203.613	88.0003	203.613	88.1355	203.613	88.0957	203.613	88.1398
210.938	90.1708	210.938	90.1831	210.938	90.0856	210.938	90.1241	210.938	89.9284	210.938	89.998	210.938	89.7033	210.938	89.8115	210.938	89.4181	210.938	89.5747	210.938	89.0857	210.938	89.3011	210.938	88.7254	210.938	89.0084	210.938	88.3627	210.938	88.7178	210.938	88.029	210.938	88.4524	210.938	87.7575	210.938	88.2342	210.938	87.576	210.938	88.0797	210.938	87.4985	210.938	87.9958	210.938	87.5204	210.938	87.9777	210.938	87.619	210.938	88.0097	210.938	87.761	210.938	88.0694	210.938	87.9121	210.938	88.1317	210.938	88.0432	210.938	88.1737	210.938	88.1349	210.938	88.1781
218.262	90.0946	218.262	90.0993	218.262	90.0128	218.262	90.0287	218.262	89.8552	218.262	89.8879	218.262	89.6269	218.262	89.6846	218.262	89.3376	218.262	89.4307	218.262	89.0031	218.262	89.1418	218.262	88.6464	218.262	88.8383	218.262	88.298	218.262	88.5444	218.262	87.9934	218.262	88.2869	218.262	87.7676	218.262	88.0911	218.262	87.6455	218.262	87.9754	218.262	87.6337	218.262	87.9456	218.262	87.718	218.262	87.9926	218.262	87.8679	218.262	88.0939	218.262	88.0464	218.262	88.2198	218.262	88.2184	218.262	88.3397	218.262	88.3561	218.262	88.4275	218.262	88.4411	218.262	88.4646
225.586	90.3483	225.586	90.3609	225.586	90.2464	225.586	90.2868	225.586	90.0548	225.586	90.1311	225.586	89.7759	225.586	89.9011	225.586	89.4168	225.586	89.6082	225.586	88.9916	225.586	89.2689	225.586	88.5242	225.586	88.9057	225.586	88.0517	225.586	88.548	225.586	87.624	225.586	88.2294	225.586	87.2974	225.586	87.9835	225.586	87.1194	225.586	87.8351	225.586	87.1083	225.586	87.7931	225.586	87.2443	225.586	87.846	225.586	87.4779	225.586	87.9653	225.586	87.7493	225.586	88.1136	225.586	88.0057	225.586	88.2529	225.586	88.2093	225.586	88.3511	225.586	88.3382	225.586	88.3842
232.91	90.3677	232.91	90.3762	232.91	90.2688	232.91	90.298	232.91	90.0772	232.91	90.1385	232.91	89.7926	232.91	89.9046	232.91	89.4179	232.91	89.6061	232.91	88.9612	232.91	89.2566	232.91	88.4391	232.91	88.8746	232.91	87.8806	232.91	88.4854	232.91	87.3313	232.91	88.12	232.91	86.8537	232.91	87.8128	232.91	86.5161	232.91	87.5942	232.91	86.3695	232.91	87.4812	232.91	86.4216	232.91	87.4705	232.91	86.6303	232.91	87.537	232.91	86.9246	232.91	87.6419	232.91	87.2322	232.91	87.7425	232.91	87.4978	232.91	87.8006	232.91	87.6877	232.91	87.7878
241.699	90.114	241.699	90.0571	241.699	90.0818	241.699	89.9157	241.699	89.9584	241.699	89.697	241.699	89.7439	241.699	89.412	241.699	89.4409	241.699	89.0764	241.699	89.0559	241.699	88.711	241.699	88.6011	241.699	88.3409	241.699	88.0969	241.699	87.9943	241.699	87.5755	241.699	87.6985	241.699	87.0821	241.699	87.4758	241.699	86.6721	241.699	87.3385	241.699	86.3992	241.699	87.286	241.699	86.2963	241.699	87.3036	241.699	86.3589	241.699	87.3649	241.699	86.546	241.699	87.4373	241.699	86.7971	241.699	87.4872	241.699	87.0528	241.699	87.4862	241.699	87.2678	241.699	87.4152
250.488	90.5939	250.488	90.5032	250.488	90.5874	250.488	90.3156	250.488	90.4849	250.488	90.0326	250.488	90.2886	250.488	89.659	250.488	90.0027	250.488	89.2047	250.488	89.6347	250.488	88.6871	250.488	89.1965	250.488	88.1351	250.488	88.7073	250.488	87.5908	250.488	88.1948	250.488	87.1084	250.488	87.698	250.488	86.7449	250.488	87.2646	250.488	86.542	250.488	86.943	250.488	86.5081	250.488	86.7668	250.488	86.6126	250.488	86.7394	250.488	86.7996	250.488	86.8302	250.488	87.008	250.488	86.9863	250.488	87.1865	250.488	87.1506	250.488	87.3001	250.488	87.2758	250.488	87.3305
259.277	90.2684	259.277	90.2338	259.277	90.2062	259.277	90.1018	259.277	90.0492	259.277	89.8739	259.277	89.8016	259.277	89.5539	259.277	89.4703	259.277	89.1497	259.277	89.0666	259.277	88.6758	259.277	88.6075	259.277	88.1558	259.277	88.1172	259.277	87.6255	259.277	87.6289	259.277	87.1328	259.277	87.1841	259.277	86.7331	259.277	86.8282	259.277	86.4753	259.277	86.6001	259.277	86.3831	259.277	86.5174	259.277	86.443	259.277	86.5677	259.277	86.6083	259.277	86.7108	259.277	86.8175	259.277	86.893	259.277	87.0132	259.277	87.0616	259.277	87.152	259.277	87.1754	259.277	87.2086
268.066	90.315	268.066	90.2645	268.066	90.2693	268.066	90.1153	268.066	90.1306	268.066	89.8654	268.066	89.9031	268.066	89.5148	268.066	89.5936	268.066	89.0669	268.066	89.212	268.066	88.5326	268.066	88.7738	268.066	87.9343	268.066	88.301	268.066	87.3115	268.066	87.8237	268.066	86.7248	268.066	87.3804	268.066	86.2506	268.066	87.0143	268.066	85.9606	268.066	86.7645	268.066	85.8898	268.066	86.6522	268.066	86.0156	268.066	86.6703	268.066	86.2696	268.066	86.7828	268.066	86.5691	268.066	86.9367	268.066	86.8441	268.066	87.0773	268.066	87.0472	268.066	87.1597	268.066	87.154
276.855	90.439	276.855	90.4546	276.855	90.3179	276.855	90.362	276.855	90.0958	276.855	90.16	276.855	89.78	276.855	89.8489	276.855	89.3818	276.855	89.4322	276.855	88.9185	276.855	88.9179	276.855	88.4154	276.855	88.3219	276.855	87.9066	276.855	87.6724	276.855	87.4338	276.855	87.0159	276.855	87.0411	276.855	86.4198	276.855	86.7641	276.855	85.9652	276.855	86.6195	276.855	85.7212	276.855	86.5983	276.855	85.7086	276.855	86.6691	276.855	85.8858	276.855	86.7879	276.855	86.17	276.855	86.9083	276.855	86.4753	276.855	86.989	276.855	86.7366	276.855	86.9981	276.855	86.9155
287.109	90.2416	287.109	90.2289	287.109	90.155	287.109	90.1163	287.109	89.9704	287.109	89.904	287.109	89.6903	287.109	89.5934	287.109	89.3198	287.109	89.1885	287.109	88.8689	287.109	88.6979	287.109	88.3557	287.109	88.138	287.109	87.8113	287.109	87.5382	287.109	87.2833	287.109	86.9467	287.109	86.8352	287.109	86.4331	287.109	86.5323	287.109	86.0786	287.109	86.417	287.109	85.9455	287.109	86.4854	287.109	86.0418	287.109	86.6878	287.109	86.3115	287.109	86.9509	287.109	86.6629	287.109	87.2038	287.109	87.0071	287.109	87.3913	287.109	87.2789	287.109	87.4768	287.109	87.4405
297.363	90.8881	297.363	90.9431	297.363	90.7243	297.363	90.8917	297.363	90.4468	297.363	90.7331	297.363	90.0493	297.363	90.4642	297.363	89.527	297.363	90.0812	297.363	88.8799	297.363	89.5837	297.363	88.1178	297.363	88.9789	297.363	87.2708	297.363	88.2878	297.363	86.4047	297.363	87.5526	297.363	85.6358	297.363	86.843	297.363	85.1208	297.363	86.2552	297.363	84.9832	297.363	85.8888	297.363	85.2168	297.363	85.7996	297.363	85.6837	297.363	85.9613	297.363	86.2121	297.363	86.2785	297.363	86.6728	297.363	86.6358	297.363	86.9936	297.363	86.9378	297.363	87.1437	297.363	87.1196
307.617	90.3649	307.617	90.3089	307.617	90.3202	307.617	90.1569	307.617	90.1708	307.617	89.914	307.617	89.9138	307.617	89.5864	307.617	89.548	307.617	89.1815	307.617	89.0751	307.617	88.708	307.617	88.5009	307.617	88.1776	307.617	87.8379	307.617	87.6068	307.617	87.1096	307.617	87.0209	307.617	86.3586	307.617	86.4604	307.617	85.657	307.617	85.9824	307.617	85.1074	307.617	85.6517	307.617	84.8137	307.617	85.5134	307.617	84.8196	307.617	85.5622	307.617	85.0678	307.617	85.7364	307.617	85.4314	307.617	85.9447	307.617	85.7825	307.617	86.0999	307.617	86.0328	307.617	86.1396
319.336	90.3	319.336	90.2596	319.336	90.2351	319.336	90.1135	319.336	90.0641	319.336	89.8607	319.336	89.7864	319.336	89.5002	319.336	89.4012	319.336	89.0326	319.336	88.9093	319.336	88.4627	319.336	88.3143	319.336	87.8049	319.336	87.627	319.336	87.0906	319.336	86.8749	319.336	86.3783	319.336	86.1167	319.336	85.7585	319.336	85.456	319.336	85.3376	319.336	85.0281	319.336	85.1903	319.336	84.933	319.336	85.3108	319.336	85.1549	319.336	85.614	319.336	85.5667	319.336	85.986	319.336	86.0146	319.336	86.328	319.336	86.3839	319.336	86.5713	319.336	86.6113	319.336	86.6731
329.59	90.075	329.59	90.0631	329.59	89.9889	329.59	89.9553	329.59	89.8043	329.59	89.7538	329.59	89.522	329.59	89.4601	329.59	89.1449	329.59	89.0744	329.59	88.677	329.59	88.5956	329.59	88.124	329.59	88.0243	329.59	87.4944	329.59	87.3681	329.59	86.8054	329.59	86.6522	329.59	86.0928	329.59	85.9342	329.59	85.4247	329.59	85.3137	329.59	84.9053	329.59	84.9147	329.59	84.6451	329.59	84.8223	329.59	84.6936	329.59	85.0144	329.59	84.9904	329.59	85.3695	329.59	85.3995	329.59	85.7404	329.59	85.7822	329.59	86.0131	329.59	86.0401	329.59	86.1212
341.309	90.1017	341.309	90.0813	341.309	90.0075	341.309	89.944	341.309	89.8024	341.309	89.6886	341.309	89.4921	341.309	89.3157	341.309	89.0845	341.309	88.8281	341.309	88.5898	341.309	88.2325	341.309	88.0189	341.309	87.5417	341.309	87.3851	341.309	86.7799	341.309	86.7077	341.309	85.9921	341.309	86.0224	341.309	85.2576	341.309	85.3943	341.309	84.6928	341.309	84.9224	341.309	84.4189	341.309	84.7093	341.309	84.4869	341.309	84.7947	341.309	84.8278	341.309	85.1128	341.309	85.2942	341.309	85.5274	341.309	85.7397	341.309	85.9033	341.309	86.0615	341.309	86.1455	341.309	86.203
353.027	90.2374	353.027	90.2561	353.027	90.0972	353.027	90.157	353.027	89.8352	353.027	89.9453	353.027	89.4556	353.027	89.6262	353.027	88.9676	353.027	89.2034	353.027	88.3852	353.027	88.6763	353.027	87.7257	353.027	88.0393	353.027	87.0098	353.027	87.2838	353.027	86.2656	353.027	86.4079	353.027	85.539	353.027	85.4413	353.027	84.9042	353.027	84.4867	353.027	84.4623	353.027	83.7532	353.027	84.3038	353.027	83.4834	353.027	84.4436	353.027	83.7396	353.027	84.7941	353.027	84.3202	353.027	85.2117	353.027	84.9501	353.027	85.5618	353.027	85.4435	353.027	85.7487	353.027	85.7162
366.211	90.4194	366.211	90.4171	366.211	90.313	366.211	90.3091	366.211	90.0947	366.211	90.0986	366.211	89.7604	366.211	89.7888	366.211	89.3044	366.211	89.3827	366.211	88.7194	366.211	88.8833	366.211	87.9991	366.211	88.2937	366.211	87.145	366.211	87.618	366.211	86.1786	366.211	86.8626	366.211	85.1607	366.211	86.0435	366.211	84.2139	366.211	85.2003	366.211	83.5159	366.211	84.4154	366.211	83.2187	366.211	83.8187	366.211	83.3256	366.211	83.5378	366.211	83.6808	366.211	83.5985	366.211	84.0867	366.211	83.8859	366.211	84.397	366.211	84.2233	366.211	84.5317	366.211	84.4657
379.395	90.0743	379.395	89.9765	379.395	90.077	379.395	89.7897	379.395	89.9788	379.395	89.5209	379.395	89.7739	379.395	89.1774	379.395	89.4553	379.395	88.7646	379.395	89.0142	379.395	88.2858	379.395	88.4399	379.395	87.7426	379.395	87.7198	379.395	87.1396	379.395	86.8426	379.395	86.4913	379.395	85.8095	379.395	85.8316	379.395	84.6644	379.395	85.2223	379.395	83.5527	379.395	84.7499	379.395	82.7679	379.395	84.4965	379.395	82.6128	379.395	84.4893	379.395	83.0677	379.395	84.6698	379.395	83.7934	379.395	84.919	379.395	84.4675	379.395	85.1081	379.395	84.9284	379.395	85.1337
392.578	90.176	392.578	90.1037	392.578	90.1276	392.578	89.9117	392.578	89.961	392.578	89.6065	392.578	89.6829	392.578	89.1999	392.578	89.3034	392.578	88.7085	392.578	88.8347	392.578	88.1499	392.578	88.2885	392.578	87.538	392.578	87.6721	392.578	86.8805	392.578	86.9861	392.578	86.1846	392.578	86.2283	392.578	85.4733	392.578	85.4095	392.578	84.8091	392.578	84.5836	392.578	84.3045	392.578	83.8814	392.578	84.0822	392.578	83.4935	392.578	84.1796	392.578	83.5414	392.578	84.4945	392.578	83.9397	392.578	84.8492	392.578	84.4587	392.578	85.086	392.578	84.8883	392.578	85.1094
405.762	90.293	405.762	90.3225	405.762	90.1347	405.762	90.2201	405.762	89.8598	405.762	89.9878	405.762	89.4916	405.762	89.6303	405.762	89.0629	405.762	89.1527	405.762	88.6081	405.762	88.5594	405.762	88.1515	405.762	87.8545	405.762	87.6956	405.762	87.0443	405.762	87.219	405.762	86.1432	405.762	86.6888	405.762	85.188	405.762	86.0848	405.762	84.259	405.762	85.4292	405.762	83.5003	405.762	84.8093	405.762	83.0915	405.762	84.3656	405.762	83.1278	405.762	84.2088	405.762	83.5125	405.762	84.3177	405.762	84.0231	405.762	84.5424	405.762	84.4562	405.762	84.7083	405.762	84.6949
420.41	90.3488	420.41	90.3565	420.41	90.1671	420.41	90.1942	420.41	89.8188	420.41	89.8778	420.41	89.3238	420.41	89.4357	420.41	88.7161	420.41	88.907	420.41	88.0439	420.41	88.336	420.41	87.3676	420.41	87.7615	420.41	86.7492	420.41	87.206	420.41	86.2334	420.41	86.6738	420.41	85.8299	420.41	86.1589	420.41	85.5154	420.41	85.6606	420.41	85.2576	420.41	85.1979	420.41	85.0416	420.41	84.8153	420.41	84.8779	420.41	84.5683	420.41	84.7865	420.41	84.4876	420.41	84.7695	420.41	84.5459	420.41	84.7953	420.41	84.6668	420.41	84.8102	420.41	84.7695
435.059	90.8775	435.059	90.8778	435.059	90.724	435.059	90.7289	435.059	90.414	435.059	90.4355	435.059	89.9469	435.059	90.0023	435.059	89.3269	435.059	89.4339	435.059	88.566	435.059	88.7331	435.059	87.686	435.059	87.9011	435.059	86.7206	435.059	86.9445	435.059	85.7201	435.059	85.8986	435.059	84.7658	435.059	84.8741	435.059	83.9983	435.059	84.1019	435.059	83.6242	435.059	83.859	435.059	83.8034	435.059	84.2153	435.059	84.4653	435.059	84.9412	435.059	85.3378	435.059	85.741	435.059	86.1545	435.059	86.4253	435.059	86.7592	435.059	86.9034	435.059	87.089	435.059	87.1329
451.172	90.9913	451.172	90.8753	451.172	90.9388	451.172	90.5928	451.172	90.7152	451.172	90.1497	451.172	90.315	451.172	89.5615	451.172	89.7302	451.172	88.8577	451.172	88.9519	451.172	88.081	451.172	87.9738	451.172	87.2768	451.172	86.7985	451.172	86.4756	451.172	85.4483	451.172	85.6793	451.172	83.9882	451.172	84.8689	451.172	82.5604	451.172	84.04	451.172	81.4042	451.172	83.2553	451.172	80.7806	451.172	82.6725	451.172	80.7874	451.172	82.4643	451.172	81.2763	451.172	82.6403	451.172	81.9824	451.172	83.0019	451.172	82.6656	451.172	83.3029	451.172	83.1603	451.172	83.3778
465.82	90.983	465.82	90.9414	465.82	90.8627	465.82	90.7349	465.82	90.5808	465.82	90.3572	465.82	90.1399	465.82	89.8015	465.82	89.5503	465.82	89.0666	465.82	88.8341	465.82	88.163	465.82	88.0213	465.82	87.1196	465.82	87.1394	465.82	85.9906	465.82	86.2013	465.82	84.865	465.82	85.2075	465.82	83.8815	465.82	84.1772	465.82	83.222	465.82	83.2117	465.82	83.0353	465.82	82.5457	465.82	83.3128	465.82	82.4438	465.82	83.8754	465.82	82.9194	465.82	84.4962	465.82	83.6895	465.82	85.0005	465.82	84.4451	465.82	85.2829	465.82	85.0042	465.82	85.2898
483.398	90.9207	483.398	90.9713	483.398	90.7495	483.398	90.8914	483.398	90.4689	483.398	90.6687	483.398	90.0963	483.398	90.2882	483.398	89.6551	483.398	89.7336	483.398	89.1667	483.398	88.9876	483.398	88.6366	483.398	88.0292	483.398	88.0462	483.398	86.8249	483.398	87.3616	483.398	85.3267	483.398	86.5609	483.398	83.5102	483.398	85.6728	483.398	81.5531	483.398	84.8196	483.398	80.2256	483.398	84.2218	483.398	80.5089	483.398	84.0777	483.398	81.918	483.398	84.369	483.398	83.3979	483.398	84.8698	483.398	84.5304	483.398	85.3361	483.398	85.2548	483.398	85.6088	483.398	85.5998
499.512	90.4369	499.512	90.3992	499.512	90.3596	499.512	90.2526	499.512	90.1676	499.512	90.0089	499.512	89.8656	499.512	89.6825	499.512	89.4579	499.512	89.2853	499.512	88.9404	499.512	88.8214	499.512	88.2939	499.512	88.2791	499.512	87.4845	499.512	87.6219	499.512	86.4767	499.512	86.781	499.512	85.2635	499.512	85.6724	499.512	83.9372	499.512	84.2683	499.512	82.8155	499.512	82.7813	499.512	82.4444	499.512	81.9166	499.512	83.0534	499.512	82.3593	499.512	84.1853	499.512	83.6498	499.512	85.2893	499.512	84.9581	499.512	86.0845	499.512	85.9106	499.512	86.4712	499.512	86.4172
517.09	89.567	517.09	89.5582	517.09	89.4024	517.09	89.3832	517.09	89.0746	517.09	89.0676	517.09	88.6136	517.09	88.6584	517.09	88.0731	517.09	88.2153	517.09	87.5237	517.09	87.7869	517.09	87.0277	517.09	87.3788	517.09	86.5992	517.09	86.9347	517.09	86.1809	517.09	86.345	517.09	85.6601	517.09	85.4823	517.09	84.9208	517.09	84.2619	517.09	83.9229	517.09	82.7701	517.09	82.8376	517.09	81.5269	517.09	82.1906	517.09	81.4214	517.09	82.5013	517.09	82.4739	517.09	83.4975	517.09	83.7814	517.09	84.5026	517.09	84.756	517.09	85.1199	517.09	85.2136
536.133	90.5885	536.133	90.4667	536.133	90.4867	536.133	90.1443	536.133	90.144	536.133	89.6526	536.133	89.5535	536.133	89.0427	536.133	88.7227	536.133	88.3911	536.133	87.6675	536.133	87.7807	536.133	86.4031	536.133	87.2483	536.133	84.9653	536.133	86.7327	536.133	83.4885	536.133	86.0743	536.133	82.2687	536.133	85.0682	536.133	81.576	536.133	83.5371	536.133	81.3397	536.133	81.4675	536.133	81.3297	536.133	79.4997	536.133	81.5381	536.133	79.3312	536.133	82.1124	536.133	80.9763	536.133	82.9913	536.133	82.7336	536.133	83.8585	536.133	83.9193	536.133	84.408	536.133	84.4601
555.176	89.9906	555.176	89.8101	555.176	90.0238	555.176	89.4766	555.176	89.9245	555.176	89.0068	555.176	89.7058	555.176	88.4521	555.176	89.3678	555.176	87.8997	555.176	88.8872	555.176	87.4435	555.176	88.2112	555.176	87.1276	555.176	87.2595	555.176	86.9	555.176	85.9285	555.176	86.623	555.176	84.1034	555.176	86.1308	555.176	81.7317	555.176	85.2846	555.176	79.265	555.176	84.0218	555.176	78.5478	555.176	82.471	555.176	80.2001	555.176	81.2274	555.176	82.1947	555.176	81.2096	555.176	83.6329	555.176	82.2943	555.176	84.4425	555.176	83.5213	555.176	84.6746	555.176	84.3596
574.219	90.024	574.219	89.7492	574.219	90.093	574.219	89.2516	574.219	89.9898	574.219	88.5432	574.219	89.7592	574.219	87.6819	574.219	89.4511	574.219	86.793	574.219	89.1083	574.219	86.0707	574.219	88.7369	574.219	85.6994	574.219	88.2735	574.219	85.6795	574.219	87.5763	574.219	85.7736	574.219	86.4472	574.219	85.6773	574.219	84.6503	574.219	85.1814	574.219	81.9219	574.219	84.2469	574.219	78.3335	574.219	83.1451	574.219	76.9731	574.219	82.6123	574.219	79.9329	574.219	83.194	574.219	82.8049	574.219	84.3497	574.219	84.6303	574.219	85.3231	574.219	85.5705	574.219	85.7709
594.727	90.8035	594.727	90.7038	594.727	90.6365	594.727	90.3337	594.727	90.2349	594.727	89.7101	594.727	89.6567	594.727	88.8637	594.727	88.9656	594.727	87.8314	594.727	88.207	594.727	86.6496	594.727	87.417	594.727	85.3568	594.727	86.6612	594.727	84.0291	594.727	86.0222	594.727	82.8325	594.727	85.4784	594.727	81.9464	594.727	84.8013	594.727	81.3053	594.727	83.6016	594.727	80.617	594.727	81.4033	594.727	79.8519	594.727	77.8256	594.727	79.6841	594.727	75.466	594.727	80.7355	594.727	78.7392	594.727	82.3138	594.727	81.8529	594.727	83.5209	594.727	83.4944	594.727	83.9744
615.234	90.6981	615.234	90.6197	615.234	90.6148	615.234	90.3491	615.234	90.4111	615.234	89.8792	615.234	90.1158	615.234	89.2302	615.234	89.7246	615.234	88.4484	615.234	89.2025	615.234	87.5967	615.234	88.5038	615.234	86.7288	615.234	87.587	615.234	85.8542	615.234	86.4173	615.234	84.9076	615.234	84.9861	615.234	83.7359	615.234	83.3731	615.234	82.1197	615.234	81.8069	615.234	79.868	615.234	80.5955	615.234	77.2601	615.234	79.9758	615.234	76.3607	615.234	80.1011	615.234	78.3018	615.234	80.8875	615.234	80.5501	615.234	81.8728	615.234	82.0226	615.234	82.5615	615.234	82.6614
637.207	89.8557	637.207	89.6401	637.207	89.9028	637.207	89.2301	637.207	89.8214	637.207	88.6444	637.207	89.6409	637.207	87.9629	637.207	89.3717	637.207	87.3058	637.207	89.0092	637.207	86.7718	637.207	88.5305	637.207	86.3771	637.207	87.878	637.207	86.0609	637.207	86.9602	637.207	85.7338	637.207	85.6919	637.207	85.2842	637.207	84.0372	637.207	84.5486	637.207	81.9885	637.207	83.329	637.207	79.5043	637.207	81.5073	637.207	76.7863	637.207	79.4302	637.207	75.7442	637.207	78.5756	637.207	77.7772	637.207	79.6647	637.207	80.1057	637.207	81.0597	637.207	81.4513	637.207	81.7385
659.18	89.898	659.18	89.9051	659.18	89.6126	659.18	89.6068	659.18	89.125	659.18	89.0343	659.18	88.5531	659.18	88.287	659.18	88.0361	659.18	87.5151	659.18	87.6768	659.18	86.852	659.18	87.4707	659.18	86.3355	659.18	87.2929	659.18	85.8985	659.18	86.9735	659.18	85.4266	659.18	86.3933	659.18	84.7864	659.18	85.5187	659.18	83.7988	659.18	84.3389	659.18	82.2643	659.18	82.7404	659.18	80.253	659.18	80.5555	659.18	79.0527	659.18	78.5261	659.18	80.3045	659.18	79.3393	659.18	82.404	659.18	81.868	659.18	83.8411	659.18	83.6507	659.18	84.2864
682.617	90.1533	682.617	90.1535	682.617	89.8671	682.617	89.8293	682.617	89.3776	682.617	89.1945	682.617	88.7993	682.617	88.3282	682.617	88.2301	682.617	87.368	682.617	87.6901	682.617	86.4557	682.617	87.1486	682.617	85.6845	682.617	86.6267	682.617	85.1004	682.617	86.1709	682.617	84.6735	682.617	85.6769	682.617	84.2161	682.617	84.8965	682.617	83.4065	682.617	83.6791	682.617	81.8927	682.617	82.2582	682.617	79.3746	682.617	81.4121	682.617	76.4213	682.617	81.6753	682.617	77.0049	682.617	82.5419	682.617	80.2099	682.617	83.382	682.617	82.5186	682.617	83.8424	682.617	83.6452
707.52	89.7439	707.52	89.6455	707.52	89.6427	707.52	89.3233	707.52	89.4085	707.52	88.809	707.52	89.118	707.52	88.1901	707.52	88.79	707.52	87.574	707.52	88.3427	707.52	87.0459	707.52	87.6576	707.52	86.637	707.52	86.7066	707.52	86.2752	707.52	85.6192	707.52	85.8402	707.52	84.585	707.52	85.2929	707.52	83.6023	707.52	84.6296	707.52	82.3215	707.52	83.6951	707.52	80.1638	707.52	82.1283	707.52	76.6091	707.52	79.5471	707.52	73.7367	707.52	76.5325	707.52	76.6739	707.52	76.8661	707.52	79.7357	707.52	79.4749	707.52	81.1364	707.52	81.0349
732.422	90.0353	732.422	90.1452	732.422	89.675	732.422	89.9714	732.422	89.1333	732.422	89.5323	732.422	88.4832	732.422	88.8865	732.422	87.7855	732.422	88.0805	732.422	87.138	732.422	87.1229	732.422	86.6888	732.422	86.0793	732.422	86.4598	732.422	85.1582	732.422	86.2199	732.422	84.5292	732.422	85.6617	732.422	84.107	732.422	84.7138	732.422	83.6546	732.422	83.6631	732.422	82.8851	732.422	82.5877	732.422	81.4502	732.422	80.8137	732.422	79.1978	732.422	77.8331	732.422	77.5709	732.422	76.8081	732.422	79.0791	732.422	79.7819	732.422	81.2973	732.422	81.9004	732.422	82.3456
757.324	90.8792	757.324	90.7627	757.324	90.7523	757.324	90.3922	757.324	90.4567	757.324	89.8396	757.324	90.0673	757.324	89.2146	757.324	89.5784	757.324	88.5475	757.324	88.9148	757.324	87.7475	757.324	88.0857	757.324	86.7819	757.324	87.3136	757.324	85.9007	757.324	86.8249	757.324	85.396	757.324	86.3824	757.324	85.0102	757.324	85.3632	757.324	84.2315	757.324	83.3279	757.324	82.8489	757.324	80.6339	757.324	80.738	757.324	79.3262	757.324	77.3368	757.324	80.294	757.324	73.396	757.324	81.8106	757.324	77.1584	757.324	83.1649	757.324	81.4088	757.324	83.8907	757.324	83.4639
785.156	91.1039	785.156	91.0601	785.156	90.6668	785.156	90.6526	785.156	89.743	785.156	90.0294	785.156	88.4944	785.156	89.2498	785.156	87.2887	785.156	88.2224	785.156	86.5794	785.156	86.9077	785.156	86.3706	785.156	85.5752	785.156	86.0793	785.156	84.5688	785.156	85.2875	785.156	83.7667	785.156	84.2497	785.156	82.8447	785.156	83.5813	785.156	81.9348	785.156	83.2467	785.156	81.3019	785.156	82.3632	785.156	80.5526	785.156	79.6529	785.156	78.8443	785.156	75.2797	785.156	75.5952	785.156	76.7858	785.156	73.98	785.156	79.6657	785.156	77.4303	785.156	80.6185	785.156	79.9335
811.523	90.8528	811.523	90.7663	811.523	90.5201	811.523	90.331	811.523	89.9136	811.523	89.7739	811.523	89.2801	811.523	89.3367	811.523	88.7295	811.523	89.1527	811.523	88.1973	811.523	89.1905	811.523	87.6596	811.523	89.2292	811.523	87.2525	811.523	88.9889	811.523	87.0304	811.523	88.4009	811.523	86.5976	811.523	87.6228	811.523	85.4025	811.523	86.6192	811.523	83.6837	811.523	84.8951	811.523	82.8896	811.523	81.8228	811.523	82.6625	811.523	77.3636	811.523	80.7533	811.523	74.9289	811.523	76.9045	811.523	77.2629	811.523	77.9903	811.523	79.8147	811.523	80.6982	811.523	81.142
840.82	91.6144	840.82	91.4143	840.82	91.1752	840.82	90.665	840.82	90.1068	840.82	89.5693	840.82	88.5155	840.82	88.3888	840.82	86.7563	840.82	87.3527	840.82	85.6234	840.82	86.6413	840.82	85.7719	840.82	86.3036	840.82	86.8356	840.82	86.282	840.82	87.8239	840.82	86.6186	840.82	87.9564	840.82	87.1099	840.82	86.9844	840.82	87.1473	840.82	85.115	840.82	86.2334	840.82	82.6885	840.82	84.2773	840.82	79.7799	840.82	81.6609	840.82	77.5575	840.82	79.6495	840.82	78.9184	840.82	79.9669	840.82	81.276	840.82	81.5912	840.82	82.5846	840.82	82.6613
870.117	92.4467	870.117	92.1364	870.117	92.1185	870.117	91.2662	870.117	91.2604	870.117	90.0617	870.117	90.0593	870.117	88.694	870.117	88.6001	870.117	87.1341	870.117	86.8678	870.117	85.3579	870.117	84.9519	870.117	83.7457	870.117	83.3289	870.117	83.2209	870.117	82.8285	870.117	83.9229	870.117	83.3776	870.117	84.8863	870.117	84.2881	870.117	85.4267	870.117	85.231	870.117	85.0903	870.117	85.8513	870.117	83.4813	870.117	85.442	870.117	80.533	870.117	83.4345	870.117	78.2868	870.117	82.0289	870.117	80.823	870.117	84.3448	870.117	84.1862	870.117	86.1429	870.117	86.0526
900.879	91.7249	900.879	91.0457	900.879	91.8527	900.879	90.061	900.879	91.3469	900.879	89.209	900.879	90.1762	900.879	88.7186	900.879	88.3353	900.879	88.1486	900.879	86.1314	900.879	86.8876	900.879	84.6183	900.879	84.926	900.879	84.5738	900.879	83.3599	900.879	85.1936	900.879	83.578	900.879	85.2751	900.879	84.9712	900.879	84.4134	900.879	86.1364	900.879	82.8254	900.879	86.3	900.879	80.7551	900.879	85.1169	900.879	79.0963	900.879	82.1688	900.879	79.6491	900.879	76.1574	900.879	81.1549	900.879	73.3853	900.879	82.4824	900.879	80.0353	900.879	83.3213	900.879	82.843
933.105	90.7603	933.105	90.2384	933.105	91.3409	933.105	90.3153	933.105	91.6609	933.105	90.8549	933.105	91.614	933.105	91.074	933.105	90.9591	933.105	90.469	933.105	89.4855	933.105	89.0052	933.105	87.3033	933.105	86.8803	933.105	84.7326	933.105	84.2502	933.105	82.8604	933.105	81.8229	933.105	82.63	933.105	81.9163	933.105	83.1563	933.105	83.69	933.105	84.09	933.105	84.5219	933.105	84.6095	933.105	83.7327	933.105	83.4138	933.105	81.466	933.105	79.8496	933.105	78.6792	933.105	78.6471	933.105	78.7254	933.105	81.9578	933.105	81.4097	933.105	83.5884	933.105	83.3051
965.332	92.0542	965.332	92.0668	965.332	91.2964	965.332	91.4366	965.332	89.9395	965.332	90.4062	965.332	88.4151	965.332	89.1252	965.332	87.3985	965.332	87.4166	965.332	87.1927	965.332	84.9801	965.332	87.1378	965.332	81.997	965.332	86.6363	965.332	79.1464	965.332	85.6618	965.332	77.6722	965.332	84.7538	965.332	79.0245	965.332	84.2409	965.332	80.9797	965.332	83.2421	965.332	82.5138	965.332	80.9083	965.332	83.3006	965.332	78.3536	965.332	82.4668	965.332	79.1183	965.332	78.3565	965.332	79.8494	965.332	69.7333	965.332	80.8008	965.332	79.4869	965.332	82.9103	965.332	83.0692
1,000.49	91.351	1,000.49	91.3364	1,000.49	91.0682	1,000.49	91.1028	1,000.49	90.6585	1,000.49	90.7543	1,000.49	90.1383	1,000.49	90.059	1,000.49	89.1379	1,000.49	88.7112	1,000.49	87.3237	1,000.49	86.8635	1,000.49	84.8601	1,000.49	85.1691	1,000.49	82.6999	1,000.49	83.8365	1,000.49	82.5194	1,000.49	82.483	1,000.49	82.8677	1,000.49	81.6716	1,000.49	82.3358	1,000.49	82.3423	1,000.49	82.5815	1,000.49	83.015	1,000.49	83.7803	1,000.49	82.2344	1,000.49	82.9056	1,000.49	80.3747	1,000.49	78.038	1,000.49	79.501	1,000.49	71.4248	1,000.49	80.0476	1,000.49	76.1039	1,000.49	80.4554	1,000.49	78.8724	1,000.49	80.1161
1,035.64	92.2285	1,035.64	92.117	1,035.64	91.6786	1,035.64	91.261	1,035.64	90.5842	1,035.64	89.8938	1,035.64	88.7787	1,035.64	88.574	1,035.64	86.2317	1,035.64	87.7765	1,035.64	84.113	1,035.64	87.2366	1,035.64	83.6147	1,035.64	86.0037	1,035.64	83.3004	1,035.64	83.093	1,035.64	81.8205	1,035.64	77.2924	1,035.64	80.5871	1,035.64	66.2794	1,035.64	81.1673	1,035.64	77.4488	1,035.64	81.4838	1,035.64	81.8659	1,035.64	79.345	1,035.64	82.8861	1,035.64	75.297	1,035.64	81.6587	1,035.64	77.6245	1,035.64	77.8108	1,035.64	79.8186	1,035.64	75.271	1,035.64	80.9166	1,035.64	81.1475	1,035.64	83.069	1,035.64	83.6872
1,072.27	90.6301	1,072.27	89.7082	1,072.27	91.5199	1,072.27	89.6467	1,072.27	91.8714	1,072.27	90.552	1,072.27	91.448	1,072.27	91.3661	1,072.27	90.0248	1,072.27	91.3897	1,072.27	87.4731	1,072.27	90.549	1,072.27	84.1338	1,072.27	88.9213	1,072.27	80.6042	1,072.27	86.4064	1,072.27	77.4475	1,072.27	82.785	1,072.27	76.6021	1,072.27	78.0173	1,072.27	75.9136	1,072.27	77.0396	1,072.27	75.5569	1,072.27	80.2448	1,072.27	79.942	1,072.27	81.1255	1,072.27	81.4646	1,072.27	79.5451	1,072.27	78.49	1,072.27	75.1914	1,072.27	76.3937	1,072.27	75.1913	1,072.27	80.2041	1,072.27	80.3899	1,072.27	82.2093	1,072.27	82.4241
1,108.89	91.171	1,108.89	90.94	1,108.89	90.9427	1,108.89	90.4391	1,108.89	90.363	1,108.89	90.2299	1,108.89	89.4058	1,108.89	90.3942	1,108.89	88.0043	1,108.89	90.1945	1,108.89	86.5053	1,108.89	88.9347	1,108.89	85.368	1,108.89	86.7849	1,108.89	84.0185	1,108.89	84.9396	1,108.89	81.7503	1,108.89	83.4468	1,108.89	79.2141	1,108.89	80.4564	1,108.89	78.337	1,108.89	76.8153	1,108.89	79.5339	1,108.89	78.6758	1,108.89	79.523	1,108.89	79.789	1,108.89	74.5001	1,108.89	78.4597	1,108.89	71.0506	1,108.89	75.6904	1,108.89	76.2088	1,108.89	76.7303	1,108.89	77.3297	1,108.89	80.1946	1,108.89	80.1788	1,108.89	81.5723
1,148.44	90.4026	1,148.44	90.8354	1,148.44	90.2424	1,148.44	91.1068	1,148.44	90.4779	1,148.44	90.9623	1,148.44	90.6635	1,148.44	90.3107	1,148.44	90.2872	1,148.44	88.821	1,148.44	89.5096	1,148.44	86.5117	1,148.44	88.7345	1,148.44	84.8466	1,148.44	87.532	1,148.44	84.4591	1,148.44	85.9888	1,148.44	83.1822	1,148.44	85.4264	1,148.44	79.6955	1,148.44	85.2825	1,148.44	71.3841	1,148.44	83.6086	1,148.44	70.9752	1,148.44	81.8902	1,148.44	79.83	1,148.44	81.3386	1,148.44	81.7567	1,148.44	78.2254	1,148.44	77.9827	1,148.44	76.3677	1,148.44	63.035	1,148.44	81.8687	1,148.44	80.3785	1,148.44	84.2619	1,148.44	83.9587
1,189.45	91.6337	1,189.45	91.3214	1,189.45	91.4115	1,189.45	90.7285	1,189.45	90.5936	1,189.45	90.0425	1,189.45	89.2903	1,189.45	88.883	1,189.45	87.9759	1,189.45	86.8562	1,189.45	87.1884	1,189.45	84.9155	1,189.45	86.649	1,189.45	84.4523	1,189.45	85.658	1,189.45	84.4774	1,189.45	84.8421	1,189.45	84.3589	1,189.45	84.9259	1,189.45	83.7858	1,189.45	84.6957	1,189.45	82.0534	1,189.45	84.1373	1,189.45	78.6499	1,189.45	83.8116	1,189.45	76.5264	1,189.45	80.9301	1,189.45	76.738	1,189.45	74.5273	1,189.45	77.2349	1,189.45	77.4677	1,189.45	75.4118	1,189.45	77.4928	1,189.45	71.2485	1,189.45	76.6343	1,189.45	75.1065
1,230.47	92.2936	1,230.47	92.2195	1,230.47	91.7419	1,230.47	91.5045	1,230.47	90.6709	1,230.47	90.3116	1,230.47	89.0918	1,230.47	88.7438	1,230.47	87.3505	1,230.47	87.1938	1,230.47	86.6081	1,230.47	86.5226	1,230.47	87.1105	1,230.47	86.1751	1,230.47	87.3129	1,230.47	84.9505	1,230.47	86.862	1,230.47	82.7587	1,230.47	86.4449	1,230.47	81.4925	1,230.47	86.0682	1,230.47	79.5263	1,230.47	85.5381	1,230.47	69.1716	1,230.47	83.9319	1,230.47	77.3618	1,230.47	81.1368	1,230.47	82.6597	1,230.47	79.5989	1,230.47	82.528	1,230.47	80.0817	1,230.47	76.467	1,230.47	82.0545	1,230.47	69.7227	1,230.47	83.1033	1,230.47	80.8076
1,274.41	92.5281	1,274.41	91.9641	1,274.41	92.59	1,274.41	91.2801	1,274.41	91.9154	1,274.41	90.6072	1,274.41	90.2458	1,274.41	89.5093	1,274.41	87.6886	1,274.41	88.1199	1,274.41	85.3981	1,274.41	87.2071	1,274.41	84.4738	1,274.41	86.3918	1,274.41	83.3452	1,274.41	84.2198	1,274.41	79.9307	1,274.41	80.6627	1,274.41	77.2204	1,274.41	78.7032	1,274.41	78.0409	1,274.41	78.883	1,274.41	79.1586	1,274.41	78.0058	1,274.41	80.7039	1,274.41	77.4052	1,274.41	81.7748	1,274.41	79.1025	1,274.41	77.7748	1,274.41	79.2483	1,274.41	74.7431	1,274.41	76.2911	1,274.41	78.709	1,274.41	75.7217	1,274.41	79.6264	1,274.41	78.6767
1,319.82	92.7649	1,319.82	92.2084	1,319.82	92.7777	1,319.82	91.6374	1,319.82	91.948	1,319.82	91.0545	1,319.82	90.0909	1,319.82	89.9724	1,319.82	87.5663	1,319.82	88.825	1,319.82	85.5102	1,319.82	88.0059	1,319.82	84.9141	1,319.82	86.8655	1,319.82	85.2748	1,319.82	85.765	1,319.82	85.8503	1,319.82	85.3916	1,319.82	85.8108	1,319.82	84.9111	1,319.82	84.3392	1,319.82	83.7585	1,319.82	83.1403	1,319.82	82.1098	1,319.82	82.5555	1,319.82	79.3002	1,319.82	77.7707	1,319.82	73.6853	1,319.82	71.8226	1,319.82	75.463	1,319.82	78.4747	1,319.82	78.0958	1,319.82	77.9513	1,319.82	77.1512	1,319.82	76.5666	1,319.82	75.9898
1,366.7	92.538	1,366.7	91.9965	1,366.7	92.9706	1,366.7	92.1233	1,366.7	92.5228	1,366.7	92.2408	1,366.7	90.773	1,366.7	91.3341	1,366.7	88.0091	1,366.7	89.9627	1,366.7	84.7811	1,366.7	88.8958	1,366.7	82.5653	1,366.7	86.9369	1,366.7	83.7178	1,366.7	83.9153	1,366.7	84.3376	1,366.7	82.7182	1,366.7	84.2824	1,366.7	83.5907	1,366.7	86.1193	1,366.7	84.1253	1,366.7	87.2321	1,366.7	82.3846	1,366.7	84.8717	1,366.7	75.7753	1,366.7	81.0781	1,366.7	75.2084	1,366.7	77.1103	1,366.7	77.9911	1,366.7	69.4278	1,366.7	73.9824	1,366.7	74.2989	1,366.7	70.3662	1,366.7	78.1221	1,366.7	77.5878
1,413.57	92.2067	1,413.57	92.6565	1,413.57	92.2508	1,413.57	93.1013	1,413.57	92.0768	1,413.57	92.455	1,413.57	90.9744	1,413.57	90.5539	1,413.57	89.0709	1,413.57	88.6483	1,413.57	86.3178	1,413.57	86.9298	1,413.57	82.1295	1,413.57	82.9069	1,413.57	78.4988	1,413.57	76.1001	1,413.57	78.9204	1,413.57	71.8217	1,413.57	80.4651	1,413.57	73.2983	1,413.57	80.993	1,413.57	79.8054	1,413.57	80.0504	1,413.57	82.4978	1,413.57	79.8436	1,413.57	82.5976	1,413.57	78.6135	1,413.57	80.2055	1,413.57	71.8552	1,413.57	75.9215	1,413.57	65.9433	1,413.57	75.6269	1,413.57	75.4535	1,413.57	77.9989	1,413.57	77.4254	1,413.57	78.2245
1,463.38	92.1537	1,463.38	92.7058	1,463.38	91.7425	1,463.38	92.8665	1,463.38	91.5233	1,463.38	92.1067	1,463.38	90.9684	1,463.38	90.323	1,463.38	89.485	1,463.38	87.9251	1,463.38	87.0255	1,463.38	84.8754	1,463.38	83.9933	1,463.38	80.9291	1,463.38	80.7105	1,463.38	80.4113	1,463.38	77.3366	1,463.38	80.8157	1,463.38	73.1934	1,463.38	77.3962	1,463.38	72.5872	1,463.38	72.8435	1,463.38	77.245	1,463.38	77.1193	1,463.38	80.1899	1,463.38	78.1825	1,463.38	80.638	1,463.38	76.6278	1,463.38	76.0894	1,463.38	76.6048	1,463.38	67.5611	1,463.38	76.0662	1,463.38	74.8867	1,463.38	75.4417	1,463.38	75.366	1,463.38	74.901
1,516.11	91.5229	1,516.11	91.7188	1,516.11	91.4506	1,516.11	91.8552	1,516.11	91.3117	1,516.11	91.4501	1,516.11	90.6896	1,516.11	89.4545	1,516.11	89.617	1,516.11	84.9163	1,516.11	87.2057	1,516.11	80.8666	1,516.11	82.621	1,516.11	83.0313	1,516.11	78.4255	1,516.11	84.6787	1,516.11	76.16	1,516.11	83.2912	1,516.11	77.127	1,516.11	80.9607	1,516.11	79.6201	1,516.11	79.4062	1,516.11	81.1896	1,516.11	81.0044	1,516.11	83.3672	1,516.11	82.0011	1,516.11	81.3796	1,516.11	77.4734	1,516.11	73.5363	1,516.11	60.8362	1,516.11	75.0177	1,516.11	75.2115	1,516.11	75.8316	1,516.11	74.3342	1,516.11	74.8486	1,516.11	73.1119
1,568.85	90.988	1,568.85	91.4503	1,568.85	90.8363	1,568.85	91.8499	1,568.85	90.7992	1,568.85	91.0864	1,568.85	90.3377	1,568.85	88.3012	1,568.85	89.0499	1,568.85	84.9887	1,568.85	86.6033	1,568.85	84.0909	1,568.85	82.291	1,568.85	83.0647	1,568.85	79.6352	1,568.85	80.8169	1,568.85	81.7137	1,568.85	78.5539	1,568.85	83.5929	1,568.85	80.4595	1,568.85	81.6512	1,568.85	80.7648	1,568.85	73.1055	1,568.85	77.3181	1,568.85	65.0866	1,568.85	75.9709	1,568.85	64.4217	1,568.85	78.2031	1,568.85	67.7608	1,568.85	78.1124	1,568.85	69.0009	1,568.85	68.52	1,568.85	65.8756	1,568.85	72.7149	1,568.85	76.0739	1,568.85	76.9076
1,624.51	92.0126	1,624.51	91.7512	1,624.51	91.7315	1,624.51	91.2885	1,624.51	90.6078	1,624.51	90.4453	1,624.51	89.0774	1,624.51	88.921	1,624.51	87.7559	1,624.51	87.5004	1,624.51	86.3178	1,624.51	86.6523	1,624.51	85.0454	1,624.51	85.4507	1,624.51	83.6395	1,624.51	84.4429	1,624.51	81.0794	1,624.51	82.488	1,624.51	77.2438	1,624.51	80.1104	1,624.51	71.7349	1,624.51	78.3712	1,624.51	63.4926	1,624.51	71.1398	1,624.51	59.8663	1,624.51	72.1788	1,624.51	68.8452	1,624.51	77.3852	1,624.51	73.1642	1,624.51	76.4778	1,624.51	68.5308	1,624.51	68.2396	1,624.51	66.1437	1,624.51	69.138	1,624.51	73.7721	1,624.51	74.5069
1,681.64	91.9905	1,681.64	91.7799	1,681.64	91.8972	1,681.64	91.2532	1,681.64	91.3124	1,681.64	90.1344	1,681.64	90.0686	1,681.64	88.2465	1,681.64	88.1356	1,681.64	86.4513	1,681.64	85.7124	1,681.64	85.6451	1,681.64	83.7367	1,681.64	83.78	1,681.64	83.6449	1,681.64	80.1811	1,681.64	84.3793	1,681.64	79.1467	1,681.64	84.0256	1,681.64	78.869	1,681.64	81.1789	1,681.64	74.6809	1,681.64	73.506	1,681.64	71.5961	1,681.64	74.7677	1,681.64	75.3565	1,681.64	76.1449	1,681.64	76.3187	1,681.64	71.4711	1,681.64	72.9564	1,681.64	58.4927	1,681.64	64.3434	1,681.64	68.5229	1,681.64	74.1971	1,681.64	75.3486	1,681.64	77.4057
1,741.7	92.0886	1,741.7	92.0392	1,741.7	91.8194	1,741.7	91.2309	1,741.7	91.1035	1,741.7	89.4474	1,741.7	89.668	1,741.7	87.5107	1,741.7	87.4223	1,741.7	86.5006	1,741.7	85.2695	1,741.7	85.8548	1,741.7	84.5761	1,741.7	83.3832	1,741.7	84.3352	1,741.7	77.1249	1,741.7	85.0281	1,741.7	66.2366	1,741.7	85.5821	1,741.7	73.116	1,741.7	82.9408	1,741.7	76.5617	1,741.7	78.7367	1,741.7	77.6912	1,741.7	72.9089	1,741.7	78.713	1,741.7	74.2966	1,741.7	77.9748	1,741.7	73.2983	1,741.7	75.0705	1,741.7	60.7759	1,741.7	70.132	1,741.7	60.086	1,741.7	72.8777	1,741.7	70.4745	1,741.7	75.3406
1,803.22	92.3609	1,803.22	91.8883	1,803.22	92.1312	1,803.22	91.04	1,803.22	90.659	1,803.22	90.0838	1,803.22	88.0544	1,803.22	88.294	1,803.22	86.7725	1,803.22	86.7624	1,803.22	87.1745	1,803.22	86.0503	1,803.22	86.1838	1,803.22	83.2871	1,803.22	81.8265	1,803.22	80.4968	1,803.22	79.3497	1,803.22	80.3754	1,803.22	81.4919	1,803.22	76.6788	1,803.22	82.2826	1,803.22	67.3132	1,803.22	81.3657	1,803.22	78.4666	1,803.22	76.7542	1,803.22	78.9933	1,803.22	76.1547	1,803.22	74.6554	1,803.22	74.583	1,803.22	73.5186	1,803.22	61.5482	1,803.22	75.3454	1,803.22	69.7889	1,803.22	69.7751	1,803.22	75.5337	1,803.22	75.4764
1,866.21	91.3496	1,866.21	91.1186	1,866.21	91.7542	1,866.21	91.6139	1,866.21	90.8973	1,866.21	91.0805	1,866.21	88.4253	1,866.21	88.1807	1,866.21	86.0209	1,866.21	84.8991	1,866.21	85.5667	1,866.21	83.1157	1,866.21	85.7105	1,866.21	81.3106	1,866.21	84.7541	1,866.21	81.0044	1,866.21	81.7503	1,866.21	81.2193	1,866.21	81.4182	1,866.21	81.7778	1,866.21	80.1097	1,866.21	79.7488	1,866.21	66.69	1,866.21	79.2664	1,866.21	67.4988	1,866.21	75.5862	1,866.21	70.4266	1,866.21	65.5889	1,866.21	71.4097	1,866.21	76.8216	1,866.21	71.5032	1,866.21	74.4589	1,866.21	70.7961	1,866.21	65.7112	1,866.21	77.1367	1,866.21	75.7722
1,932.13	91.2175	1,932.13	91.1984	1,932.13	91.3948	1,932.13	91.6016	1,932.13	90.5248	1,932.13	90.7048	1,932.13	88.8404	1,932.13	87.9648	1,932.13	86.8814	1,932.13	86.4203	1,932.13	85.3714	1,932.13	85.0461	1,932.13	85.0924	1,932.13	81.2865	1,932.13	81.6362	1,932.13	80.16	1,932.13	71.0069	1,932.13	79.4055	1,932.13	76.3885	1,932.13	78.8925	1,932.13	72.6765	1,932.13	80.6669	1,932.13	72.4267	1,932.13	79.0483	1,932.13	64.7724	1,932.13	77.0869	1,932.13	72.8435	1,932.13	64.8432	1,932.13	57.5025	1,932.13	80.4407	1,932.13	75.8041	1,932.13	77.9581	1,932.13	55.9992	1,932.13	68.3477	1,932.13	75.5239	1,932.13	77.8275
1,999.51	92.3953	1,999.51	91.4627	1,999.51	91.765	1,999.51	90.482	1,999.51	90.1646	1,999.51	90.7164	1,999.51	88.7586	1,999.51	89.3546	1,999.51	87.5696	1,999.51	87.049	1,999.51	86.3237	1,999.51	85.6862	1,999.51	84.9545	1,999.51	82.1605	1,999.51	82.1158	1,999.51	78.4862	1,999.51	78.8522	1,999.51	78.093	1,999.51	74.8531	1,999.51	75.7307	1,999.51	67.7292	1,999.51	74.1879	1,999.51	74.6031	1,999.51	76.5391	1,999.51	74.2947	1,999.51	71.2504	1,999.51	69.4907	1,999.51	73.5497	1,999.51	68.0696	1,999.51	75.2501	1,999.51	61.0026	1,999.51	71.4806	1,999.51	70.2711	1,999.51	70.0926	1,999.51	75.4137	1,999.51	73.6897
2,069.82	92.6015	2,069.82	91.6955	2,069.82	92.2764	2,069.82	91.0401	2,069.82	90.5759	2,069.82	90.2743	2,069.82	88.4434	2,069.82	88.2724	2,069.82	86.6803	2,069.82	86.8105	2,069.82	85.376	2,069.82	84.8169	2,069.82	84.954	2,069.82	83.3438	2,069.82	83.8726	2,069.82	82.6513	2,069.82	82.3811	2,069.82	80.6841	2,069.82	80.6275	2,069.82	79.1095	2,069.82	75.7451	2,069.82	74.5676	2,069.82	68.1035	2,069.82	75.675	2,069.82	69.7293	2,069.82	75.2973	2,069.82	66.8897	2,069.82	70.4714	2,069.82	68.8064	2,069.82	75.5617	2,069.82	59.068	2,069.82	73.3482	2,069.82	72.1126	2,069.82	68.3336	2,069.82	76.1845	2,069.82	74.5437
2,143.07	92.1663	2,143.07	91.6673	2,143.07	92.4154	2,143.07	91.2829	2,143.07	91.1199	2,143.07	89.3428	2,143.07	88.7343	2,143.07	86.8884	2,143.07	86.4451	2,143.07	86.2508	2,143.07	84.1515	2,143.07	85.6844	2,143.07	82.8693	2,143.07	83.3144	2,143.07	82.4802	2,143.07	79.6437	2,143.07	81.284	2,143.07	78.337	2,143.07	77.9486	2,143.07	76.6582	2,143.07	73.9986	2,143.07	74.7417	2,143.07	71.0013	2,143.07	73.8444	2,143.07	64.6547	2,143.07	75.8838	2,143.07	63.1923	2,143.07	70.2049	2,143.07	68.1892	2,143.07	71.5997	2,143.07	67.4901	2,143.07	72.1839	2,143.07	70.2333	2,143.07	67.0796	2,143.07	74.8065	2,143.07	72.5408
2,219.24	91.1446	2,219.24	91.3705	2,219.24	91.4965	2,219.24	91.3792	2,219.24	90.8392	2,219.24	89.6838	2,219.24	88.6812	2,219.24	87.3909	2,219.24	86.0093	2,219.24	86.0313	2,219.24	84.0423	2,219.24	84.9887	2,219.24	82.3436	2,219.24	83.7811	2,219.24	79.3008	2,219.24	81.9526	2,219.24	77.9307	2,219.24	78.8477	2,219.24	79.3545	2,219.24	76.089	2,219.24	73.7289	2,219.24	74.2826	2,219.24	68.4991	2,219.24	72.9617	2,219.24	54.1476	2,219.24	75.0167	2,219.24	61.9908	2,219.24	71.6968	2,219.24	64.9704	2,219.24	69.4779	2,219.24	67.6008	2,219.24	71.9281	2,219.24	65.7756	2,219.24	64.7995	2,219.24	73.4736	2,219.24	69.9904
2,296.88	90.131	2,296.88	90.2539	2,296.88	90.3796	2,296.88	90.4567	2,296.88	89.9798	2,296.88	89.2602	2,296.88	88.3566	2,296.88	87.843	2,296.88	85.8874	2,296.88	86.7177	2,296.88	84.1718	2,296.88	85.0876	2,296.88	82.1263	2,296.88	83.7146	2,296.88	80.5883	2,296.88	80.3476	2,296.88	79.5926	2,296.88	74.589	2,296.88	79.8524	2,296.88	73.9679	2,296.88	77.2648	2,296.88	76.0885	2,296.88	58.4433	2,296.88	68.7646	2,296.88	58.4164	2,296.88	74.9344	2,296.88	59.6854	2,296.88	73.6732	2,296.88	70.134	2,296.88	67.3168	2,296.88	67.4953	2,296.88	69.4386	2,296.88	65.2064	2,296.88	65.1975	2,296.88	72.8285	2,296.88	70.9865
2,378.91	90.7363	2,378.91	90.903	2,378.91	89.9259	2,378.91	90.045	2,378.91	88.9588	2,378.91	88.9852	2,378.91	87.3789	2,378.91	87.5209	2,378.91	84.8993	2,378.91	85.8512	2,378.91	82.8352	2,378.91	84.2561	2,378.91	81.5132	2,378.91	80.7933	2,378.91	80.9616	2,378.91	80.8837	2,378.91	79.7359	2,378.91	79.3303	2,378.91	71.8413	2,378.91	76.1871	2,378.91	70.8345	2,378.91	75.5236	2,378.91	67.2588	2,378.91	74.5561	2,378.91	62.4923	2,378.91	69.6833	2,378.91	63.2531	2,378.91	74.508	2,378.91	65.7166	2,378.91	64.7897	2,378.91	64.7257	2,378.91	70.5038	2,378.91	62.4555	2,378.91	58.6467	2,378.91	72.7098	2,378.91	70.481
2,462.4	90.9514	2,462.4	90.7305	2,462.4	90.2047	2,462.4	89.8053	2,462.4	88.3164	2,462.4	88.7743	2,462.4	86.2678	2,462.4	87.2551	2,462.4	83.855	2,462.4	84.4037	2,462.4	81.8435	2,462.4	81.4782	2,462.4	80.6532	2,462.4	81.0286	2,462.4	77.1562	2,462.4	80.1444	2,462.4	75.903	2,462.4	76.184	2,462.4	79.628	2,462.4	74.3469	2,462.4	73.4384	2,462.4	74.3962	2,462.4	57.3644	2,462.4	73.971	2,462.4	67.6027	2,462.4	66.6828	2,462.4	54.5332	2,462.4	73.2958	2,462.4	68.3753	2,462.4	69.5053	2,462.4	64.4748	2,462.4	68.7563	2,462.4	61.681	2,462.4	62.1612	2,462.4	71.9569	2,462.4	69.74
2,548.83	90.302	2,548.83	89.6333	2,548.83	90.5116	2,548.83	89.5316	2,548.83	89.0584	2,548.83	88.2851	2,548.83	87.1895	2,548.83	85.5916	2,548.83	85.0314	2,548.83	83.861	2,548.83	83.4083	2,548.83	82.5833	2,548.83	79.1985	2,548.83	80.8588	2,548.83	77.9163	2,548.83	80.6771	2,548.83	79.1806	2,548.83	79.6143	2,548.83	79.2468	2,548.83	75.7308	2,548.83	75.9208	2,548.83	72.1033	2,548.83	71.9989	2,548.83	74.2475	2,548.83	69.3448	2,548.83	70.3952	2,548.83	62.8513	2,548.83	72.6524	2,548.83	68.1216	2,548.83	72.1266	2,548.83	64.9233	2,548.83	69.6305	2,548.83	55.4456	2,548.83	62.0611	2,548.83	70.5312	2,548.83	68.1865
2,639.65	88.896	2,639.65	88.2599	2,639.65	89.6915	2,639.65	89.1008	2,639.65	89.52	2,639.65	87.173	2,639.65	88.1863	2,639.65	85.4007	2,639.65	86.3569	2,639.65	85.98	2,639.65	84.8092	2,639.65	84.2872	2,639.65	82.153	2,639.65	83.1416	2,639.65	79.4486	2,639.65	79.7528	2,639.65	76.2255	2,639.65	77.1204	2,639.65	75.6248	2,639.65	75.1071	2,639.65	74.7979	2,639.65	74.5676	2,639.65	73.8501	2,639.65	73.5964	2,639.65	66.5971	2,639.65	73.7506	2,639.65	70.1961	2,639.65	70.6635	2,639.65	69.0517	2,639.65	72.1027	2,639.65	65.3648	2,639.65	71.3586	2,639.65	60.69	2,639.65	66.4011	2,639.65	72.011	2,639.65	69.6133
2,731.93	88.8047	2,731.93	88.9875	2,731.93	88.8747	2,731.93	88.9173	2,731.93	89.314	2,731.93	88.0719	2,731.93	87.9374	2,731.93	87.4176	2,731.93	86.4636	2,731.93	86.3943	2,731.93	84.9275	2,731.93	85.1654	2,731.93	82.4502	2,731.93	82.0236	2,731.93	79.6058	2,731.93	80.5035	2,731.93	77.1197	2,731.93	77.9977	2,731.93	72.9721	2,731.93	76.2156	2,731.93	76.7991	2,731.93	75.3978	2,731.93	75.9375	2,731.93	75.0593	2,731.93	64.8295	2,731.93	73.4541	2,731.93	65.0494	2,731.93	73.1275	2,731.93	67.5995	2,731.93	71.582	2,731.93	67.7805	2,731.93	72.6197	2,731.93	57.1535	2,731.93	69.161	2,731.93	66.5894	2,731.93	66.6565
2,828.61	89.1961	2,828.61	89.6317	2,828.61	89.0702	2,828.61	88.9059	2,828.61	89.1254	2,828.61	88.4	2,828.61	87.4448	2,828.61	87.9052	2,828.61	86.3087	2,828.61	86.6356	2,828.61	84.1925	2,828.61	85.0602	2,828.61	82.8064	2,828.61	82.1047	2,828.61	80.7917	2,828.61	79.2076	2,828.61	76.0101	2,828.61	78.3642	2,828.61	73.1145	2,828.61	74.8257	2,828.61	77.7328	2,828.61	75.5344	2,828.61	76.2849	2,828.61	72.5415	2,828.61	66.1024	2,828.61	75.1305	2,828.61	61.3491	2,828.61	70.2414	2,828.61	60.6971	2,828.61	70.7318	2,828.61	65.0607	2,828.61	71.2427	2,828.61	54.5882	2,828.61	72.6539	2,828.61	66.4861	2,828.61	63.3429
2,928.22	90.0808	2,928.22	90.0605	2,928.22	90.1546	2,928.22	89.6854	2,928.22	89.6086	2,928.22	88.9013	2,928.22	87.7411	2,928.22	87.7109	2,928.22	86.9153	2,928.22	87.0061	2,928.22	85.2224	2,928.22	84.5914	2,928.22	82.573	2,928.22	82.6465	2,928.22	79.2701	2,928.22	82.1747	2,928.22	74.3464	2,928.22	77.9303	2,928.22	76.8365	2,928.22	74.5549	2,928.22	78.6935	2,928.22	72.4993	2,928.22	75.825	2,928.22	74.23	2,928.22	63.3899	2,928.22	73.9274	2,928.22	47.9921	2,928.22	73.793	2,928.22	62.2427	2,928.22	72.0018	2,928.22	68.3671	2,928.22	71.3175	2,928.22	45.938	2,928.22	73.0522	2,928.22	62.0467	2,928.22	57.9268
3,030.76	90.1918	3,030.76	90.1601	3,030.76	90.3672	3,030.76	90.2663	3,030.76	89.4798	3,030.76	88.7139	3,030.76	88.3778	3,030.76	87.7284	3,030.76	87.0489	3,030.76	86.1929	3,030.76	85.3881	3,030.76	83.6574	3,030.76	82.6409	3,030.76	83.1195	3,030.76	77.8867	3,030.76	81.1725	3,030.76	75.0619	3,030.76	74.3858	3,030.76	79.0352	3,030.76	73.3485	3,030.76	75.0441	3,030.76	71.2204	3,030.76	65.8869	3,030.76	72.1777	3,030.76	60.6864	3,030.76	73.7631	3,030.76	61.8996	3,030.76	71.3749	3,030.76	60.1464	3,030.76	71.0618	3,030.76	69.6081	3,030.76	70.4104	3,030.76	62.0172	3,030.76	73.1224	3,030.76	64.7938	3,030.76	56.7818
3,137.7	89.5578	3,137.7	89.2803	3,137.7	90.5817	3,137.7	89.8845	3,137.7	89.9052	3,137.7	90.0214	3,137.7	88.5884	3,137.7	88.5315	3,137.7	86.8323	3,137.7	87.0718	3,137.7	85.0323	3,137.7	84.8565	3,137.7	83.5083	3,137.7	82.5954	3,137.7	80.1323	3,137.7	77.9678	3,137.7	79.6982	3,137.7	74.8716	3,137.7	80.4669	3,137.7	74.0298	3,137.7	74.13	3,137.7	71.316	3,137.7	62.3677	3,137.7	71.2292	3,137.7	67.0884	3,137.7	73.1026	3,137.7	57.3293	3,137.7	71.535	3,137.7	59.0892	3,137.7	73.272	3,137.7	67.7345	3,137.7	68.7181	3,137.7	66.0234	3,137.7	73.3655	3,137.7	66.1975	3,137.7	60.4004
3,249.02	89.269	3,249.02	88.6515	3,249.02	90.3889	3,249.02	89.4197	3,249.02	90.0745	3,249.02	89.6753	3,249.02	88.9491	3,249.02	88.1053	3,249.02	86.9644	3,249.02	86.3101	3,249.02	84.661	3,249.02	84.0332	3,249.02	83.4325	3,249.02	79.0635	3,249.02	82.3267	3,249.02	78.7212	3,249.02	80.7819	3,249.02	77.5606	3,249.02	80.6548	3,249.02	73.8953	3,249.02	75.6739	3,249.02	70.7323	3,249.02	72.2728	3,249.02	70.0528	3,249.02	63.1286	3,249.02	72.3206	3,249.02	65.3523	3,249.02	71.0917	3,249.02	59.0375	3,249.02	71.766	3,249.02	64.9596	3,249.02	64.3181	3,249.02	67.4404	3,249.02	71.4773	3,249.02	68.6602	3,249.02	60.8963
3,363.28	89.2595	3,363.28	89.3589	3,363.28	90.0724	3,363.28	89.7854	3,363.28	90.1864	3,363.28	89.406	3,363.28	88.4957	3,363.28	87.8856	3,363.28	86.4395	3,363.28	85.5367	3,363.28	83.7791	3,363.28	83.1006	3,363.28	83.9411	3,363.28	80.1771	3,363.28	81.3882	3,363.28	79.9487	3,363.28	80.3678	3,363.28	73.8494	3,363.28	79.0175	3,363.28	72.5691	3,363.28	74.8682	3,363.28	71.2801	3,363.28	73.5001	3,363.28	70.323	3,363.28	61.1022	3,363.28	70.7918	3,363.28	63.7351	3,363.28	72.1425	3,363.28	65.4449	3,363.28	70.1859	3,363.28	66.3852	3,363.28	67.8391	3,363.28	62.7938	3,363.28	71.1846	3,363.28	66.916	3,363.28	59.8785
3,481.93	89.1543	3,481.93	90.3809	3,481.93	89.2059	3,481.93	90.8661	3,481.93	90.1115	3,481.93	89.2974	3,481.93	88.9749	3,481.93	87.0497	3,481.93	86.5942	3,481.93	86.9423	3,481.93	84.7585	3,481.93	82.4091	3,481.93	83.9974	3,481.93	82.8111	3,481.93	81.2053	3,481.93	79.0996	3,481.93	78.1587	3,481.93	74.4814	3,481.93	74.1409	3,481.93	74.4223	3,481.93	72.0406	3,481.93	71.0219	3,481.93	68.3769	3,481.93	71.2873	3,481.93	67.0012	3,481.93	68.6658	3,481.93	58.3075	3,481.93	73.0048	3,481.93	61.1617	3,481.93	71.7242	3,481.93	64.9346	3,481.93	69.0985	3,481.93	60.7389	3,481.93	72.4102	3,481.93	67.1602	3,481.93	63.8359
3,604.98	89.0219	3,604.98	89.7851	3,604.98	88.6923	3,604.98	90.5162	3,604.98	88.7805	3,604.98	89.6516	3,604.98	88.5547	3,604.98	87.1334	3,604.98	86.4442	3,604.98	85.0983	3,604.98	85.5865	3,604.98	82.9669	3,604.98	83.8854	3,604.98	81.7972	3,604.98	79.9369	3,604.98	78.4413	3,604.98	69.7214	3,604.98	77.7894	3,604.98	61.411	3,604.98	73.7315	3,604.98	73.4354	3,604.98	71.6018	3,604.98	65.2571	3,604.98	69.4448	3,604.98	67.9319	3,604.98	70.5667	3,604.98	49.5813	3,604.98	71.3476	3,604.98	60.915	3,604.98	71.0481	3,604.98	65.1739	3,604.98	69.5393	3,604.98	58.6	3,604.98	71.224	3,604.98	66.4165	3,604.98	63.6863
3,732.42	89.4612	3,732.42	90.4172	3,732.42	89.9636	3,732.42	90.1244	3,732.42	89.0829	3,732.42	89.3864	3,732.42	87.5923	3,732.42	87.4642	3,732.42	85.5684	3,732.42	85.9866	3,732.42	85.4354	3,732.42	84.2719	3,732.42	82.9067	3,732.42	80.6655	3,732.42	77.9793	3,732.42	80.1354	3,732.42	72.4552	3,732.42	77.8945	3,732.42	75.5553	3,732.42	71.6733	3,732.42	75.2349	3,732.42	72.5575	3,732.42	73.4771	3,732.42	71.0578	3,732.42	68.5868	3,732.42	70.8121	3,732.42	67.1322	3,732.42	71.1271	3,732.42	63.23	3,732.42	69.5027	3,732.42	63.9087	3,732.42	67.6838	3,732.42	57.4245	3,732.42	69.8712	3,732.42	67.6944	3,732.42	62.7098
3,864.26	88.5655	3,864.26	89.0162	3,864.26	89.3606	3,864.26	89.452	3,864.26	90.0292	3,864.26	88.482	3,864.26	88.5099	3,864.26	87.2541	3,864.26	85.9891	3,864.26	86.3984	3,864.26	85.7637	3,864.26	83.6552	3,864.26	83.5525	3,864.26	82.7	3,864.26	77.0938	3,864.26	81.3135	3,864.26	72.8576	3,864.26	76.5609	3,864.26	74.8936	3,864.26	74.7744	3,864.26	77.5202	3,864.26	70.4922	3,864.26	77.1597	3,864.26	71.7006	3,864.26	66.3033	3,864.26	70.2533	3,864.26	70.4937	3,864.26	70.5435	3,864.26	65.1335	3,864.26	69.4105	3,864.26	59.8346	3,864.26	66.1921	3,864.26	55.8537	3,864.26	69.6964	3,864.26	68.5463	3,864.26	65.9869
4,000.49	88.8334	4,000.49	89.1442	4,000.49	89.2651	4,000.49	89.8177	4,000.49	89.7804	4,000.49	88.7823	4,000.49	87.9443	4,000.49	87.3187	4,000.49	85.0691	4,000.49	86.5827	4,000.49	86.3247	4,000.49	83.1215	4,000.49	83.6195	4,000.49	83.3158	4,000.49	75.6145	4,000.49	78.2903	4,000.49	73.7	4,000.49	75.7595	4,000.49	75.7131	4,000.49	73.5906	4,000.49	79.5294	4,000.49	72.1429	4,000.49	74.647	4,000.49	72.4392	4,000.49	70.004	4,000.49	69.5734	4,000.49	72.0698	4,000.49	72.3849	4,000.49	59.168	4,000.49	71.8166	4,000.49	62.8406	4,000.49	63.0832	4,000.49	61.2486	4,000.49	70.9382	4,000.49	68.2405	4,000.49	67.5003
4,141.11	89.9385	4,141.11	89.6688	4,141.11	89.9706	4,141.11	88.9357	4,141.11	89.6685	4,141.11	89.7094	4,141.11	87.4767	4,141.11	87.5973	4,141.11	86.7537	4,141.11	87.1955	4,141.11	87.2416	4,141.11	85.4274	4,141.11	83.6248	4,141.11	82.5879	4,141.11	76.8149	4,141.11	79.5995	4,141.11	78.5826	4,141.11	79.6453	4,141.11	78.0982	4,141.11	72.9278	4,141.11	77.2004	4,141.11	72.8366	4,141.11	70.516	4,141.11	70.9372	4,141.11	71.891	4,141.11	72.4079	4,141.11	66.0092	4,141.11	71.9255	4,141.11	60.9725	4,141.11	69.605	4,141.11	64.3077	4,141.11	67.0455	4,141.11	63.1069	4,141.11	70.6287	4,141.11	69.3171	4,141.11	66.2224
4,287.6	90.4786	4,287.6	90.1398	4,287.6	89.9728	4,287.6	90.6784	4,287.6	90.2957	4,287.6	89.8094	4,287.6	86.9525	4,287.6	87.9347	4,287.6	88.186	4,287.6	86.2665	4,287.6	87.5478	4,287.6	83.9942	4,287.6	78.9565	4,287.6	80.9825	4,287.6	79.8903	4,287.6	82.1219	4,287.6	81.2491	4,287.6	74.6434	4,287.6	78.2999	4,287.6	72.6106	4,287.6	75.3299	4,287.6	69.6781	4,287.6	78.9285	4,287.6	70.8589	4,287.6	76.1869	4,287.6	70.6362	4,287.6	57.0733	4,287.6	70.1688	4,287.6	61.0456	4,287.6	68.2845	4,287.6	69.188	4,287.6	69.857	4,287.6	63.236	4,287.6	69.5786	4,287.6	68.8205	4,287.6	65.169
4,438.48	90.33	4,438.48	90.4618	4,438.48	90.6415	4,438.48	89.5877	4,438.48	89.9028	4,438.48	88.7295	4,438.48	87.7829	4,438.48	86.7191	4,438.48	88.3616	4,438.48	86.5868	4,438.48	85.7543	4,438.48	82.5252	4,438.48	80.6786	4,438.48	84.3898	4,438.48	84.0079	4,438.48	76.6794	4,438.48	78.8929	4,438.48	76.817	4,438.48	72.6431	4,438.48	74.9633	4,438.48	77.2502	4,438.48	70.985	4,438.48	79.7188	4,438.48	69.9244	4,438.48	72.8774	4,438.48	70.0824	4,438.48	69.5681	4,438.48	71.0462	4,438.48	58.4034	4,438.48	66.6976	4,438.48	69.2657	4,438.48	69.222	4,438.48	64.9446	4,438.48	67.4799	4,438.48	67.5962	4,438.48	65.2489
4,595.21	89.5925	4,595.21	90.5717	4,595.21	90.3892	4,595.21	89.5798	4,595.21	90.0176	4,595.21	88.4946	4,595.21	87.6949	4,595.21	87.6879	4,595.21	87.3962	4,595.21	85.7082	4,595.21	79.5451	4,595.21	83.4893	4,595.21	84.0947	4,595.21	79.6568	4,595.21	83.9625	4,595.21	78.653	4,595.21	78.0031	4,595.21	75.5795	4,595.21	72.9289	4,595.21	69.147	4,595.21	79.3139	4,595.21	70.086	4,595.21	76.2333	4,595.21	68.9949	4,595.21	76.6984	4,595.21	71.7355	4,595.21	71.9636	4,595.21	70.9909	4,595.21	68.5245	4,595.21	63.8713	4,595.21	67.444	4,595.21	66.3849	4,595.21	62.3259	4,595.21	67.2321	4,595.21	69.917	4,595.21	61.9356
4,756.35	90.505	4,756.35	88.6453	4,756.35	90.073	4,756.35	89.0765	4,756.35	89.5924	4,756.35	89.9493	4,756.35	87.6281	4,756.35	86.6364	4,756.35	86.6975	4,756.35	84.2087	4,756.35	81.4454	4,756.35	82.3217	4,756.35	86.1309	4,756.35	81.1934	4,756.35	81.5731	4,756.35	80.7819	4,756.35	76.0954	4,756.35	73.5744	4,756.35	74.2965	4,756.35	72.9635	4,756.35	78.2717	4,756.35	68.7261	4,756.35	78.9587	4,756.35	68.7776	4,756.35	76.5804	4,756.35	70.9977	4,756.35	71.6964	4,756.35	70.5239	4,756.35	68.8739	4,756.35	61.2439	4,756.35	60.9068	4,756.35	65.604	4,756.35	65.865	4,756.35	67.2337	4,756.35	69.4236	4,756.35	52.8701
4,924.8	90.2691	4,924.8	89.6559	4,924.8	90.643	4,924.8	88.9761	4,924.8	90.1159	4,924.8	89.0324	4,924.8	86.2368	4,924.8	83.9845	4,924.8	86.6339	4,924.8	85.361	4,924.8	83.1488	4,924.8	83.0321	4,924.8	85.3702	4,924.8	82.044	4,924.8	76.2002	4,924.8	74.8005	4,924.8	73.4678	4,924.8	76.3507	4,924.8	73.7029	4,924.8	66.2505	4,924.8	77.3266	4,924.8	69.7279	4,924.8	80.8623	4,924.8	71.5335	4,924.8	70.6683	4,924.8	68.5084	4,924.8	69.574	4,924.8	70.8686	4,924.8	66.617	4,924.8	65.2823	4,924.8	59.4133	4,924.8	70.4253	4,924.8	62.8477	4,924.8	68.4592	4,924.8	70.4502	4,924.8	51.9652
5,097.66	90.038	5,097.66	89.4194	5,097.66	89.7102	5,097.66	90.015	5,097.66	88.627	5,097.66	86.4224	5,097.66	86.8936	5,097.66	86.6949	5,097.66	84.8405	5,097.66	84.4277	5,097.66	87.1927	5,097.66	84.5567	5,097.66	83.9133	5,097.66	80.0697	5,097.66	79.1922	5,097.66	79.2558	5,097.66	74.3113	5,097.66	74.2607	5,097.66	73.6255	5,097.66	70.1452	5,097.66	78.4795	5,097.66	70.0476	5,097.66	79.4042	5,097.66	69.3091	5,097.66	75.8811	5,097.66	65.477	5,097.66	69.8062	5,097.66	70.0137	5,097.66	69.662	5,097.66	69.8572	5,097.66	66.1799	5,097.66	70.6236	5,097.66	56.7676	5,097.66	67.8211	5,097.66	66.5677	5,097.66	55.6819
5,277.83	89.3592	5,277.83	89.8561	5,277.83	89.322	5,277.83	89.4548	5,277.83	87.1303	5,277.83	88.2372	5,277.83	88.3321	5,277.83	86.3933	5,277.83	82.978	5,277.83	86.2831	5,277.83	88.0455	5,277.83	83.6653	5,277.83	80.5279	5,277.83	82.976	5,277.83	79.0004	5,277.83	78.5427	5,277.83	76.8619	5,277.83	75.0479	5,277.83	76.0632	5,277.83	71.1067	5,277.83	76.4074	5,277.83	68.9184	5,277.83	79.3598	5,277.83	70.196	5,277.83	76.3536	5,277.83	68.3574	5,277.83	71.5511	5,277.83	69.0708	5,277.83	66.7727	5,277.83	69.3353	5,277.83	63.8644	5,277.83	69.495	5,277.83	57.5695	5,277.83	65.2433	5,277.83	68.5553	5,277.83	59.0806
5,463.87	88.3053	5,463.87	88.4398	5,463.87	89.2528	5,463.87	88.3194	5,463.87	87.3176	5,463.87	87.7181	5,463.87	88.1818	5,463.87	86.4763	5,463.87	85.1782	5,463.87	85.9993	5,463.87	86.4687	5,463.87	84.3321	5,463.87	80.1887	5,463.87	80.064	5,463.87	78.3462	5,463.87	75.4546	5,463.87	69.9261	5,463.87	74.1547	5,463.87	75.7078	5,463.87	70.179	5,463.87	75.285	5,463.87	68.7296	5,463.87	77.4558	5,463.87	67.7709	5,463.87	75.1538	5,463.87	62.6767	5,463.87	69.0356	5,463.87	69.4067	5,463.87	66.892	5,463.87	70.1295	5,463.87	63.6112	5,463.87	67.9899	5,463.87	55.5769	5,463.87	63.4642	5,463.87	67.4124	5,463.87	59.896
5,657.23	88.482	5,657.23	89.2326	5,657.23	89.0486	5,657.23	88.4132	5,657.23	90.6883	5,657.23	87.9062	5,657.23	87.9404	5,657.23	87.9003	5,657.23	86.8351	5,657.23	86.6568	5,657.23	85.0792	5,657.23	84.1591	5,657.23	79.8569	5,657.23	81.5257	5,657.23	78.6532	5,657.23	79.662	5,657.23	75.4672	5,657.23	74.0191	5,657.23	74.6408	5,657.23	71.8041	5,657.23	76.4519	5,657.23	66.8919	5,657.23	79.2322	5,657.23	64.1229	5,657.23	74.4275	5,657.23	68.1351	5,657.23	62.6276	5,657.23	71.22	5,657.23	59.4803	5,657.23	68.4866	5,657.23	61.6191	5,657.23	65.7824	5,657.23	60.1525	5,657.23	55.6403	5,657.23	65.0449	5,657.23	61.9343
5,856.45	90.1427	5,856.45	90.5829	5,856.45	89.3917	5,856.45	89.7921	5,856.45	91.2429	5,856.45	88.87	5,856.45	87.1239	5,856.45	88.4634	5,856.45	87.7791	5,856.45	86.3832	5,856.45	85.4142	5,856.45	83.982	5,856.45	81.4682	5,856.45	81.1225	5,856.45	79.4575	5,856.45	75.4394	5,856.45	77.8075	5,856.45	74.043	5,856.45	73.2069	5,856.45	70.5829	5,856.45	74.0691	5,856.45	67.991	5,856.45	79.2472	5,856.45	64.9911	5,856.45	73.3609	5,856.45	68.9348	5,856.45	69.2895	5,856.45	70.3844	5,856.45	52.967	5,856.45	66.3037	5,856.45	60.7517	5,856.45	64.3032	5,856.45	57.1612	5,856.45	61.7542	5,856.45	64.9158	5,856.45	62.8289
6,062.99	90.8388	6,062.99	90.3718	6,062.99	90.3111	6,062.99	88.9915	6,062.99	90.3205	6,062.99	89.5693	6,062.99	87.0161	6,062.99	87.1434	6,062.99	88.4964	6,062.99	86.5147	6,062.99	83.6544	6,062.99	83.2906	6,062.99	83.1144	6,062.99	80.9201	6,062.99	78.8491	6,062.99	77.9571	6,062.99	77.6148	6,062.99	74.424	6,062.99	68.3589	6,062.99	68.1059	6,062.99	73.1783	6,062.99	65.8715	6,062.99	78.6774	6,062.99	65.1109	6,062.99	74.3127	6,062.99	68.2767	6,062.99	69.245	6,062.99	70.2844	6,062.99	67.5249	6,062.99	68.8079	6,062.99	56.1145	6,062.99	60.5853	6,062.99	56.0774	6,062.99	61.0026	6,062.99	62.4197	6,062.99	64.1458
6,276.86	90.8161	6,276.86	89.2712	6,276.86	89.2667	6,276.86	89.7007	6,276.86	89.5564	6,276.86	89.2822	6,276.86	87.5212	6,276.86	87.599	6,276.86	87.1497	6,276.86	85.2801	6,276.86	84.3713	6,276.86	83.2249	6,276.86	81.9941	6,276.86	80.9098	6,276.86	79.0918	6,276.86	76.4127	6,276.86	75.1499	6,276.86	73.3476	6,276.86	67.0347	6,276.86	68.8672	6,276.86	74.7544	6,276.86	61.6641	6,276.86	78.63	6,276.86	65.1091	6,276.86	73.546	6,276.86	65.3148	6,276.86	67.8499	6,276.86	69.6801	6,276.86	66.9042	6,276.86	69.76	6,276.86	63.3701	6,276.86	60.0391	6,276.86	52.5395	6,276.86	57.1695	6,276.86	55.3309	6,276.86	62.4456
6,498.05	90.7023	6,498.05	89.9302	6,498.05	87.4896	6,498.05	90.1871	6,498.05	88.4305	6,498.05	89.1643	6,498.05	88.3438	6,498.05	86.978	6,498.05	86.1317	6,498.05	85.1492	6,498.05	83.3216	6,498.05	82.5065	6,498.05	81.6175	6,498.05	78.5253	6,498.05	77.6728	6,498.05	76.4636	6,498.05	63.0939	6,498.05	72.8449	6,498.05	69.7281	6,498.05	68.2422	6,498.05	76.434	6,498.05	65.0139	6,498.05	77.8984	6,498.05	62.225	6,498.05	72.9458	6,498.05	64.7206	6,498.05	70.1803	6,498.05	68.5268	6,498.05	61.4342	6,498.05	70.2845	6,498.05	65.65	6,498.05	64.253	6,498.05	43.9943	6,498.05	60.51	6,498.05	58.3432	6,498.05	59.4246
6,726.56	90.2767	6,726.56	89.5212	6,726.56	89.5676	6,726.56	89.7407	6,726.56	88.8807	6,726.56	88.6054	6,726.56	87.8356	6,726.56	86.2484	6,726.56	85.6163	6,726.56	84.5238	6,726.56	82.4715	6,726.56	82.4275	6,726.56	81.7702	6,726.56	79.9777	6,726.56	73.858	6,726.56	75.2612	6,726.56	68.1899	6,726.56	72.3889	6,726.56	70.1898	6,726.56	66.4778	6,726.56	75.0272	6,726.56	64.5913	6,726.56	78.1741	6,726.56	63.6655	6,726.56	73.2174	6,726.56	65.1983	6,726.56	68.3212	6,726.56	68.1208	6,726.56	55.5755	6,726.56	68.0976	6,726.56	63.9117	6,726.56	60.2716	6,726.56	55.9443	6,726.56	61.257	6,726.56	57.5653	6,726.56	60.2655
6,963.87	90.0908	6,963.87	89.7665	6,963.87	90.764	6,963.87	88.9579	6,963.87	90.0715	6,963.87	88.7411	6,963.87	87.3306	6,963.87	85.7777	6,963.87	84.3684	6,963.87	83.6056	6,963.87	83.146	6,963.87	82.8737	6,963.87	80.3109	6,963.87	77.4961	6,963.87	74.8609	6,963.87	76.6599	6,963.87	74.9347	6,963.87	72.1279	6,963.87	66.9466	6,963.87	69.2048	6,963.87	73.8432	6,963.87	62.6694	6,963.87	79.5845	6,963.87	58.4706	6,963.87	74.678	6,963.87	67.1093	6,963.87	68.4473	6,963.87	65.7975	6,963.87	64.6358	6,963.87	64.9925	6,963.87	60.2155	6,963.87	63.9083	6,963.87	51.9689	6,963.87	64.7255	6,963.87	60.3972	6,963.87	60.5739
7,209.96	88.9087	7,209.96	89.4111	7,209.96	90.9763	7,209.96	89.1992	7,209.96	89.7949	7,209.96	87.7641	7,209.96	87.1404	7,209.96	85.4397	7,209.96	83.5373	7,209.96	84.2456	7,209.96	84.3317	7,209.96	82.4861	7,209.96	78.9978	7,209.96	78.6935	7,209.96	80.1667	7,209.96	74.496	7,209.96	75.6621	7,209.96	72.32	7,209.96	56.7717	7,209.96	65.8535	7,209.96	72.7493	7,209.96	64.8785	7,209.96	77.4123	7,209.96	62.6303	7,209.96	73.5724	7,209.96	67.5471	7,209.96	66.17	7,209.96	66.5957	7,209.96	55.8792	7,209.96	61.6774	7,209.96	58.729	7,209.96	60.2767	7,209.96	39.4335	7,209.96	62.2797	7,209.96	52.2024	7,209.96	61.2082
7,464.84	88.0958	7,464.84	88.8227	7,464.84	89.3226	7,464.84	89.0298	7,464.84	89.693	7,464.84	88.0082	7,464.84	87.3821	7,464.84	86.7658	7,464.84	84.1466	7,464.84	83.547	7,464.84	84.4038	7,464.84	83.4008	7,464.84	77.6069	7,464.84	78.7308	7,464.84	80.6701	7,464.84	77.2901	7,464.84	67.0827	7,464.84	72.975	7,464.84	70.6135	7,464.84	68.5373	7,464.84	74.3204	7,464.84	61.422	7,464.84	77.7472	7,464.84	60.8915	7,464.84	73.0434	7,464.84	64.6162	7,464.84	62.9818	7,464.84	67.9917	7,464.84	55.8071	7,464.84	57.6406	7,464.84	57.5673	7,464.84	62.1034	7,464.84	59.7433	7,464.84	60.0405	7,464.84	56.1474	7,464.84	61.2608
7,727.05	89.3699	7,727.05	89.7734	7,727.05	87.7326	7,727.05	89.6391	7,727.05	87.8679	7,727.05	88.0968	7,727.05	86.6771	7,727.05	86.1228	7,727.05	84.2692	7,727.05	84.7284	7,727.05	83.4232	7,727.05	82.889	7,727.05	81.3922	7,727.05	79.1946	7,727.05	76.9995	7,727.05	74.2686	7,727.05	70.1151	7,727.05	71.5127	7,727.05	68.7598	7,727.05	68.178	7,727.05	71.1853	7,727.05	63.5051	7,727.05	76.9649	7,727.05	61.0313	7,727.05	71.4354	7,727.05	63.1287	7,727.05	64.9619	7,727.05	66.8425	7,727.05	56.3282	7,727.05	62.5816	7,727.05	61.2066	7,727.05	59.8918	7,727.05	59.3032	7,727.05	55.3489	7,727.05	56.6174	7,727.05	57.3597
7,999.51	89.8514	7,999.51	89.4052	7,999.51	89.4173	7,999.51	90.4732	7,999.51	88.0262	7,999.51	88.5072	7,999.51	86.4303	7,999.51	86.5709	7,999.51	85.9945	7,999.51	85.2228	7,999.51	81.1412	7,999.51	82.9267	7,999.51	82.7074	7,999.51	79.2372	7,999.51	69.4267	7,999.51	76.147	7,999.51	73.6356	7,999.51	71.0303	7,999.51	65.5542	7,999.51	69.3274	7,999.51	68.5277	7,999.51	48.509	7,999.51	76.5036	7,999.51	52.5429	7,999.51	71.6972	7,999.51	65.7166	7,999.51	61.7897	7,999.51	67.3226	7,999.51	58.0791	7,999.51	63.9584	7,999.51	61.0413	7,999.51	59.1877	7,999.51	58.8459	7,999.51	59.2379	7,999.51	58.0896	7,999.51	62.2945
8,282.23	89.4274	8,282.23	89.8371	8,282.23	91.011	8,282.23	90.1832	8,282.23	90.0608	8,282.23	88.9246	8,282.23	85.5313	8,282.23	86.2574	8,282.23	87.1041	8,282.23	85.3386	8,282.23	82.918	8,282.23	83.0243	8,282.23	81.5741	8,282.23	78.2017	8,282.23	77.9028	8,282.23	74.0043	8,282.23	73.4802	8,282.23	73.0979	8,282.23	58.9839	8,282.23	63.6522	8,282.23	73.0347	8,282.23	56.6401	8,282.23	74.6175	8,282.23	60.2648	8,282.23	72.4036	8,282.23	68.5787	8,282.23	65.0144	8,282.23	67.5303	8,282.23	52.0688	8,282.23	64.6953	8,282.23	61.604	8,282.23	60.5425	8,282.23	53.4261	8,282.23	64.3007	8,282.23	55.9521	8,282.23	61.156
8,573.73	88.9875	8,573.73	89.6073	8,573.73	91.2163	8,573.73	90.2283	8,573.73	90.8452	8,573.73	88.1112	8,573.73	85.7892	8,573.73	86.7008	8,573.73	86.7555	8,573.73	84.3757	8,573.73	83.5293	8,573.73	82.6924	8,573.73	77.5055	8,573.73	77.3612	8,573.73	79.3767	8,573.73	73.9695	8,573.73	70.611	8,573.73	69.1656	8,573.73	54.3665	8,573.73	63.8472	8,573.73	70.9794	8,573.73	57.9044	8,573.73	75.0558	8,573.73	59.5552	8,573.73	74.0097	8,573.73	66.0779	8,573.73	58.8856	8,573.73	65.5518	8,573.73	51.939	8,573.73	59.7616	8,573.73	53.3216	8,573.73	62.1888	8,573.73	56.2413	8,573.73	61.3286	8,573.73	56.3485	8,573.73	56.8263
8,876.95	89.1612	8,876.95	88.9771	8,876.95	88.7989	8,876.95	89.8454	8,876.95	91.2328	8,876.95	87.8128	8,876.95	86.8639	8,876.95	85.8394	8,876.95	85.5374	8,876.95	83.9596	8,876.95	83.2946	8,876.95	81.8211	8,876.95	74.4659	8,876.95	76.4619	8,876.95	77.7779	8,876.95	73.8017	8,876.95	69.4552	8,876.95	68.6854	8,876.95	59.7955	8,876.95	66.3184	8,876.95	68.6189	8,876.95	59.5644	8,876.95	76.6193	8,876.95	61.5165	8,876.95	73.1975	8,876.95	64.2262	8,876.95	65.3207	8,876.95	64.0214	8,876.95	44.7794	8,876.95	56.5437	8,876.95	48.8111	8,876.95	59.0995	8,876.95	52.3381	8,876.95	56.5905	8,876.95	42.8565	8,876.95	53.7422
9,188.96	88.5684	9,188.96	89.2644	9,188.96	88.4614	9,188.96	89.7583	9,188.96	89.9727	9,188.96	87.9246	9,188.96	86.887	9,188.96	85.4101	9,188.96	83.9435	9,188.96	83.4442	9,188.96	82.1684	9,188.96	81.7141	9,188.96	77.2769	9,188.96	75.4398	9,188.96	73.5903	9,188.96	71.9937	9,188.96	73.022	9,188.96	67.748	9,188.96	59.9271	9,188.96	66.8784	9,188.96	69.4669	9,188.96	50.2606	9,188.96	76.1086	9,188.96	58.3519	9,188.96	73.9814	9,188.96	58.9521	9,188.96	64.5372	9,188.96	60.5383	9,188.96	52.409	9,188.96	39.9915	9,188.96	49.9498	9,188.96	53.5798	9,188.96	57.4482	9,188.96	51.3701	9,188.96	55.8558	9,188.96	50.5219
9,514.16	89.8097	9,514.16	89.3756	9,514.16	89.5774	9,514.16	89.0048	9,514.16	87.4888	9,514.16	87.6561	9,514.16	86.4168	9,514.16	84.6944	9,514.16	82.0199	9,514.16	82.82	9,514.16	81.2947	9,514.16	81.1764	9,514.16	78.3831	9,514.16	74.7973	9,514.16	73.6962	9,514.16	71.213	9,514.16	71.645	9,514.16	69.6399	9,514.16	63.6977	9,514.16	62.4967	9,514.16	72.8912	9,514.16	53.7991	9,514.16	76.2338	9,514.16	56.6434	9,514.16	74.3549	9,514.16	60.1094	9,514.16	67.2251	9,514.16	60.9236	9,514.16	58.5385	9,514.16	51.7896	9,514.16	49.9409	9,514.16	54.88	9,514.16	53.8812	9,514.16	53.0046	9,514.16	52.089	9,514.16	50.9959
9,849.61	89.4826	9,849.61	89.3403	9,849.61	88.951	9,849.61	88.7721	9,849.61	86.9405	9,849.61	87.4231	9,849.61	85.7408	9,849.61	84.4859	9,849.61	82.2459	9,849.61	81.9239	9,849.61	80.86	9,849.61	80.5328	9,849.61	76.7464	9,849.61	74.4807	9,849.61	72.1355	9,849.61	71.7678	9,849.61	71.4085	9,849.61	68.8793	9,849.61	65.0117	9,849.61	62.2466	9,849.61	70.464	9,849.61	58.2772	9,849.61	76.4505	9,849.61	54.9029	9,849.61	74.9907	9,849.61	60.9072	9,849.61	64.6258	9,849.61	60.1015	9,849.61	57.3588	9,849.61	49.9215	9,849.61	52.4804	9,849.61	44.5565	9,849.61	54.2706	9,849.61	55.9583	9,849.61	51.9881	9,849.61	32.2383
10,196.8	89.1905	10,196.8	88.9336	10,196.8	88.1957	10,196.8	88.5329	10,196.8	87.8832	10,196.8	86.8937	10,196.8	85.6577	10,196.8	84.4021	10,196.8	83.4443	10,196.8	81.2292	10,196.8	81.2396	10,196.8	80.3006	10,196.8	74.1038	10,196.8	76.1579	10,196.8	73.9812	10,196.8	71.6029	10,196.8	72.4626	10,196.8	70.2513	10,196.8	65.3284	10,196.8	59.0174	10,196.8	72.6303	10,196.8	54.815	10,196.8	76.445	10,196.8	59.3851	10,196.8	74.905	10,196.8	60.298	10,196.8	66.111	10,196.8	57.3236	10,196.8	56.6156	10,196.8	49.5605	10,196.8	48.7044	10,196.8	47.5974	10,196.8	54.7631	10,196.8	55.1801	10,196.8	48.6032	10,196.8	45.1537
10,555.7	89.6873	10,555.7	89.1073	10,555.7	88.4045	10,555.7	88.4722	10,555.7	88.9368	10,555.7	86.561	10,555.7	84.1587	10,555.7	84.0997	10,555.7	83.6715	10,555.7	80.4546	10,555.7	79.826	10,555.7	79.6954	10,555.7	74.3926	10,555.7	75.444	10,555.7	74.7395	10,555.7	69.0564	10,555.7	67.7286	10,555.7	66.615	10,555.7	66.1317	10,555.7	60.503	10,555.7	73.7698	10,555.7	49.6416	10,555.7	76.5956	10,555.7	60.452	10,555.7	75.403	10,555.7	59.2624	10,555.7	67.8556	10,555.7	54.2493	10,555.7	57.5198	10,555.7	49.0728	10,555.7	55.392	10,555.7	50.0822	10,555.7	52.4733	10,555.7	49.8971	10,555.7	51.7748	10,555.7	49.0557
10,927.7	89.8151	10,927.7	88.8732	10,927.7	88.9493	10,927.7	88.3328	10,927.7	89.1427	10,927.7	86.6301	10,927.7	83.5336	10,927.7	84.1881	10,927.7	82.3521	10,927.7	80.3072	10,927.7	80.1619	10,927.7	79.6195	10,927.7	76.2255	10,927.7	73.4666	10,927.7	70.5147	10,927.7	68.6149	10,927.7	71.0894	10,927.7	65.4439	10,927.7	68.1891	10,927.7	63.8683	10,927.7	73.2968	10,927.7	41.9291	10,927.7	77.4437	10,927.7	58.4626	10,927.7	75.8388	10,927.7	57.3126	10,927.7	67.9815	10,927.7	52.1549	10,927.7	53.8542	10,927.7	49.8216	10,927.7	47.0841	10,927.7	56.5771	10,927.7	45.0521	10,927.7	53.7344	10,927.7	40.3312	10,927.7	52.998
11,313	89.6545	11,313	88.9023	11,313	88.4947	11,313	88.2539	11,313	88.3576	11,313	86.3528	11,313	83.9738	11,313	84.2578	11,313	81.563	11,313	80.66	11,313	79.6163	11,313	80.3585	11,313	76.9746	11,313	75.7771	11,313	72.1696	11,313	71.4627	11,313	73.1883	11,313	67.6028	11,313	69.2719	11,313	63.918	11,313	73.1312	11,313	50.2972	11,313	77.7473	11,313	56.3729	11,313	76.7505	11,313	56.3037	11,313	69.5186	11,313	50.4015	11,313	52.5804	11,313	54.3884	11,313	55.7582	11,313	58.3482	11,313	53.9378	11,313	38.4398	11,313	58.0443	11,313	47.7525
11,712.9	89.3379	11,712.9	88.7921	11,712.9	87.5799	11,712.9	87.8663	11,712.9	86.8778	11,712.9	85.9342	11,712.9	84.6043	11,712.9	83.6854	11,712.9	81.2042	11,712.9	80.8951	11,712.9	79.5777	11,712.9	80.7439	11,712.9	75.0623	11,712.9	76.2539	11,712.9	73.6196	11,712.9	70.6444	11,712.9	72.2669	11,712.9	68.1567	11,712.9	69.5813	11,712.9	63.7149	11,712.9	73.9939	11,712.9	56.4827	11,712.9	77.8823	11,712.9	52.8219	11,712.9	76.5875	11,712.9	46.2921	11,712.9	68.9316	11,712.9	48.3979	11,712.9	54.6371	11,712.9	53.706	11,712.9	53.7086	11,712.9	47.454	11,712.9	59.0777	11,712.9	39.7839	11,712.9	56.8361	11,712.9	56.308
12,126	88.6907	12,126	87.886	12,126	88.3136	12,126	87.3872	12,126	86.9572	12,126	85.7837	12,126	84.5003	12,126	83.5338	12,126	81.2154	12,126	81.8964	12,126	80.7836	12,126	80.477	12,126	76.0138	12,126	75.1919	12,126	72.9433	12,126	72.095	12,126	68.5352	12,126	67.6042	12,126	72.0991	12,126	63.5488	12,126	74.8151	12,126	61.1156	12,126	78.325	12,126	50.2505	12,126	77.2523	12,126	51.3831	12,126	68.7177	12,126	50.2871	12,126	50.6363	12,126	49.2529	12,126	55.196	12,126	47.3798	12,126	54.3964	12,126	46.0787	12,126	57.4386	12,126	55.8286
12,553.7	87.967	12,553.7	87.9694	12,553.7	87.0787	12,553.7	86.8894	12,553.7	87.2616	12,553.7	84.8927	12,553.7	82.4135	12,553.7	83.6098	12,553.7	82.4857	12,553.7	81.4162	12,553.7	80.3755	12,553.7	80.9869	12,553.7	75.7355	12,553.7	76.4174	12,553.7	73.7467	12,553.7	72.416	12,553.7	72.8816	12,553.7	67.8519	12,553.7	73.0628	12,553.7	66.4801	12,553.7	74.8399	12,553.7	59.7178	12,553.7	78.2657	12,553.7	53.2093	12,553.7	77.3469	12,553.7	52.5123	12,553.7	69.5796	12,553.7	53.6392	12,553.7	45.0692	12,553.7	54.6522	12,553.7	52.709	12,553.7	47.7919	12,553.7	57.6248	12,553.7	48.9312	12,553.7	58.2115	12,553.7	47.1263
12,996.1	87.4617	12,996.1	86.8511	12,996.1	86.3177	12,996.1	86.3963	12,996.1	85.1777	12,996.1	84.1088	12,996.1	81.8277	12,996.1	83.28	12,996.1	82.997	12,996.1	80.6369	12,996.1	80.7316	12,996.1	80.944	12,996.1	76.248	12,996.1	77.0007	12,996.1	75.3439	12,996.1	71.0499	12,996.1	70.6248	12,996.1	68.3998	12,996.1	72.1616	12,996.1	64.0607	12,996.1	75.8202	12,996.1	61.4677	12,996.1	78.2499	12,996.1	47.8001	12,996.1	78.1606	12,996.1	37.0652	12,996.1	68.4153	12,996.1	55.7172	12,996.1	56.2514	12,996.1	58.4004	12,996.1	52.4696	12,996.1	43.7897	12,996.1	46.4433	12,996.1	53.9909	12,996.1	52.8549	12,996.1	41.4321
13,454.6	87.2893	13,454.6	86.9783	13,454.6	86.5014	13,454.6	85.7421	13,454.6	85.0014	13,454.6	83.9432	13,454.6	84.3958	13,454.6	83.4033	13,454.6	82.0064	13,454.6	80.7143	13,454.6	81.0185	13,454.6	81.1121	13,454.6	76.7676	13,454.6	75.0213	13,454.6	74.8094	13,454.6	70.4808	13,454.6	70.3103	13,454.6	66.404	13,454.6	72.2282	13,454.6	61.342	13,454.6	75.6238	13,454.6	64.0641	13,454.6	78.263	13,454.6	50.6024	13,454.6	78.1617	13,454.6	51.3444	13,454.6	68.6447	13,454.6	58.61	13,454.6	49.1846	13,454.6	56.9035	13,454.6	50.9785	13,454.6	45.8253	13,454.6	58.4663	13,454.6	55.535	13,454.6	60.6706	13,454.6	50.7795
13,929.2	86.9691	13,929.2	86.8815	13,929.2	86.8205	13,929.2	86.0875	13,929.2	86.0938	13,929.2	83.8548	13,929.2	82.7555	13,929.2	83.59	13,929.2	81.3015	13,929.2	80.63	13,929.2	80.3473	13,929.2	81.2466	13,929.2	76.3325	13,929.2	76.0014	13,929.2	72.7497	13,929.2	70.6162	13,929.2	70.296	13,929.2	67.1433	13,929.2	72.0102	13,929.2	60.7455	13,929.2	75.3987	13,929.2	62.684	13,929.2	78.4147	13,929.2	49.1146	13,929.2	78.1047	13,929.2	49.4597	13,929.2	69.3859	13,929.2	59.7607	13,929.2	47.4441	13,929.2	58.0179	13,929.2	55.7901	13,929.2	51.8695	13,929.2	57.8941	13,929.2	52.3372	13,929.2	57.7626	13,929.2	53.2611
14,419.9	86.7955	14,419.9	86.7174	14,419.9	86.3371	14,419.9	86.3199	14,419.9	85.383	14,419.9	83.9868	14,419.9	81.6227	14,419.9	83.376	14,419.9	82.5408	14,419.9	81.2202	14,419.9	80.8766	14,419.9	81.0271	14,419.9	76.4524	14,419.9	76.1056	14,419.9	71.5611	14,419.9	70.2073	14,419.9	72.2643	14,419.9	66.7232	14,419.9	71.8863	14,419.9	60.1102	14,419.9	75.8926	14,419.9	62.3247	14,419.9	78.5113	14,419.9	46.2688	14,419.9	78.2422	14,419.9	42.3313	14,419.9	68.9125	14,419.9	55.2971	14,419.9	55.95	14,419.9	57.6752	14,419.9	55.3723	14,419.9	55.8046	14,419.9	59.2895	14,419.9	57.4809	14,419.9	57.0215	14,419.9	55.6723
14,928.2	88.026	14,928.2	87.2667	14,928.2	87.102	14,928.2	86.6706	14,928.2	85.2263	14,928.2	84.6929	14,928.2	83.5414	14,928.2	83.1864	14,928.2	81.91	14,928.2	81.356	14,928.2	80.4017	14,928.2	79.7152	14,928.2	75.0246	14,928.2	75.1327	14,928.2	71.4463	14,928.2	68.3133	14,928.2	68.2905	14,928.2	65.8899	14,928.2	72.519	14,928.2	56.9716	14,928.2	74.8149	14,928.2	61.428	14,928.2	78.0295	14,928.2	11.6858	14,928.2	77.75	14,928.2	45.1063	14,928.2	67.739	14,928.2	55.7677	14,928.2	50.9975	14,928.2	52.7483	14,928.2	50.0844	14,928.2	59.5721	14,928.2	56.8883	14,928.2	56.9717	14,928.2	57.1138	14,928.2	51.617
15,455.6	87.697	15,455.6	87.7239	15,455.6	87.5005	15,455.6	87.2717	15,455.6	86.2174	15,455.6	85.0902	15,455.6	82.3328	15,455.6	83.344	15,455.6	81.1977	15,455.6	79.5848	15,455.6	79.6277	15,455.6	79.324	15,455.6	73.5995	15,455.6	73.35	15,455.6	70.3415	15,455.6	65.1858	15,455.6	68.1736	15,455.6	63.139	15,455.6	71.4131	15,455.6	52.8985	15,455.6	74.681	15,455.6	61.5232	15,455.6	77.7282	15,455.6	51.9197	15,455.6	77.5544	15,455.6	51.0298	15,455.6	67.8538	15,455.6	53.9804	15,455.6	49.5159	15,455.6	54.3029	15,455.6	54.3202	15,455.6	56.3841	15,455.6	57.9757	15,455.6	51.6827	15,455.6	54.7995	15,455.6	51.1614
16,000.5	88.1496	16,000.5	87.9311	16,000.5	87.8245	16,000.5	87.5135	16,000.5	87.2128	16,000.5	85.0084	16,000.5	83.9547	16,000.5	83.3302	16,000.5	82.0547	16,000.5	79.4414	16,000.5	79.5727	16,000.5	78.3851	16,000.5	72.6436	16,000.5	71.2705	16,000.5	69.9399	16,000.5	62.9307	16,000.5	64.4843	16,000.5	59.9626	16,000.5	69.6269	16,000.5	49.3189	16,000.5	74.8895	16,000.5	60.2601	16,000.5	77.2703	16,000.5	49.5266	16,000.5	77.1063	16,000.5	46.1687	16,000.5	67.8775	16,000.5	47.2521	16,000.5	51.664	16,000.5	54.5557	16,000.5	39.9543	16,000.5	43.7851	16,000.5	52.3677	16,000.5	41.7497	16,000.5	52.5249	16,000.5	36.9136
16,564.5	88.5529	16,564.5	88.1567	16,564.5	87.9279	16,564.5	87.8833	16,564.5	86.9367	16,564.5	84.5374	16,564.5	82.326	16,564.5	82.8735	16,564.5	79.3285	16,564.5	78.1653	16,564.5	77.2446	16,564.5	76.8405	16,564.5	71.1895	16,564.5	69.4135	16,564.5	67.5711	16,564.5	62.1364	16,564.5	63.0762	16,564.5	57.5527	16,564.5	68.4976	16,564.5	52.4502	16,564.5	73.6923	16,564.5	59.3676	16,564.5	76.3874	16,564.5	49.4692	16,564.5	76.0285	16,564.5	41.528	16,564.5	66.4279	16,564.5	52.393	16,564.5	48.2607	16,564.5	55.9758	16,564.5	46.8835	16,564.5	48.6355	16,564.5	54.1974	16,564.5	45.4031	16,564.5	55.5727	16,564.5	44.1791
17,148.9	88.6239	17,148.9	88.2707	17,148.9	87.7065	17,148.9	87.7485	17,148.9	86.4343	17,148.9	84.2514	17,148.9	81.6902	17,148.9	82.1645	17,148.9	79.8654	17,148.9	76.7959	17,148.9	76.8228	17,148.9	74.8864	17,148.9	70.559	17,148.9	67.9997	17,148.9	65.1829	17,148.9	60.9483	17,148.9	62.4751	17,148.9	53.4316	17,148.9	66.6558	17,148.9	52.7234	17,148.9	72.7931	17,148.9	57.3908	17,148.9	75.3171	17,148.9	48.9294	17,148.9	75.1415	17,148.9	37.1673	17,148.9	65.7987	17,148.9	46.4874	17,148.9	51.3526	17,148.9	51.2017	17,148.9	44.9251	17,148.9	47.5578	17,148.9	51.2205	17,148.9	38.023	17,148.9	49.6116	17,148.9	35.312
17,752.4	88.6851	17,752.4	88.1653	17,752.4	87.9483	17,752.4	87.3107	17,752.4	86.0694	17,752.4	83.5225	17,752.4	81.4761	17,752.4	81.2274	17,752.4	78.3642	17,752.4	75.7107	17,752.4	74.262	17,752.4	73.0672	17,752.4	67.1217	17,752.4	66.6637	17,752.4	59.6128	17,752.4	59.5067	17,752.4	58.5971	17,752.4	52.1676	17,752.4	62.3783	17,752.4	52.5048	17,752.4	71.7386	17,752.4	56.0735	17,752.4	74.4197	17,752.4	48.0677	17,752.4	73.9358	17,752.4	39.2621	17,752.4	64.6053	17,752.4	43.9481	17,752.4	50.3153	17,752.4	51.3309	17,752.4	42.9674	17,752.4	49.2289	17,752.4	49.4701	17,752.4	45.7605	17,752.4	47.4998	17,752.4	39.8718
18,379.4	88.5506	18,379.4	88.023	18,379.4	87.6892	18,379.4	87.0246	18,379.4	86.0146	18,379.4	82.7288	18,379.4	81.0917	18,379.4	80.2096	18,379.4	76.9831	18,379.4	73.9258	18,379.4	72.3739	18,379.4	71.5458	18,379.4	64.979	18,379.4	64.6091	18,379.4	55.2927	18,379.4	56.9421	18,379.4	56.1537	18,379.4	50.0894	18,379.4	61.9613	18,379.4	51.5015	18,379.4	70.4212	18,379.4	54.7051	18,379.4	73.4168	18,379.4	48.4426	18,379.4	72.8176	18,379.4	43.4797	18,379.4	64.0104	18,379.4	44.2152	18,379.4	43.9559	18,379.4	47.249	18,379.4	40.8504	18,379.4	48.4618	18,379.4	50.9186	18,379.4	44.8765	18,379.4	47.465	18,379.4	46.6782
19,026.9	88.415	19,026.9	87.9148	19,026.9	87.5155	19,026.9	86.7014	19,026.9	85.5279	19,026.9	82.0841	19,026.9	79.0789	19,026.9	79.2934	19,026.9	76.5064	19,026.9	72.4331	19,026.9	69.4543	19,026.9	69.8224	19,026.9	62.1524	19,026.9	63.8219	19,026.9	47.6241	19,026.9	56.0899	19,026.9	53.7046	19,026.9	49.9893	19,026.9	58.9682	19,026.9	51.4058	19,026.9	69.2815	19,026.9	53.8015	19,026.9	72.2194	19,026.9	48.3435	19,026.9	71.5807	19,026.9	41.8505	19,026.9	62.4645	19,026.9	39.9345	19,026.9	45.3193	19,026.9	46.8659	19,026.9	46.1033	19,026.9	49.2009	19,026.9	52.7842	19,026.9	46.5525	19,026.9	47.9154	19,026.9	46.3011
19,697.8	88.2518	19,697.8	87.6677	19,697.8	87.2223	19,697.8	86.2163	19,697.8	84.5807	19,697.8	81.3439	19,697.8	78.3141	19,697.8	78.3008	19,697.8	74.3196	19,697.8	70.5798	19,697.8	67.8295	19,697.8	67.7764	19,697.8	57.3068	19,697.8	62.4002	19,697.8	43.4569	19,697.8	54.6231	19,697.8	50.5652	19,697.8	51.9232	19,697.8	57.2208	19,697.8	51.2293	19,697.8	68.1983	19,697.8	52.7641	19,697.8	71.078	19,697.8	49.2146	19,697.8	70.2751	19,697.8	45.103	19,697.8	61.2359	19,697.8	43.4792	19,697.8	41.6974	19,697.8	43.4548	19,697.8	42.5733	19,697.8	48.828	19,697.8	49.6967	19,697.8	41.6934	19,697.8	44.9227	19,697.8	41.4392
19,999.5	87.9563	19,999.5	87.7929	19,999.5	87.17	19,999.5	86.2028	19,999.5	84.2993	19,999.5	81.0418	19,999.5	77.9925	19,999.5	77.8446	19,999.5	74.144	19,999.5	69.2415	19,999.5	66.2665	19,999.5	66.7918	19,999.5	58.2845	19,999.5	60.3735	19,999.5	50.7471	19,999.5	56.1823	19,999.5	51.8611	19,999.5	50.2547	19,999.5	52.0851	19,999.5	46.8194	19,999.5	67.3861	19,999.5	50.4037	19,999.5	70.2719	19,999.5	45.9796	19,999.5	69.4042	19,999.5	49.5448	19,999.5	59.2606	19,999.5	54.1605	19,999.5	53.2974	19,999.5	52.117	19,999.5	46.3717	19,999.5	48.4024	19,999.5	55.5167	19,999.5	38.534	19,999.5	47.5022	19,999.5	38.0974
