"SPL Horizontal"
"On-Axis"		"10°"		"-10°"		"20°"		"-20°"		"30°"		"-30°"		"40°"		"-40°"		"50°"		"-50°"		"60°"		"-60°"		"70°"		"-70°"		"80°"		"-80°"		"90°"		"-90°"		"100°"		"-100°"		"110°"		"-110°"		"120°"		"-120°"		"130°"		"-130°"		"140°"		"-140°"		"150°"		"-150°"		"160°"		"-160°"		"170°"		"-170°"		"180°"
"Frequency / Hz"	"Sound Pressure Level / dB (re 20 µPa/V)  [2.83  V @ 1. m]"	"Frequency / Hz"	"Sound Pressure Level / dB (re 20 µPa/V)  [2.83  V @ 1. m]"	"Frequency / Hz"	"Sound Pressure Level / dB (re 20 µPa/V)  [2.83  V @ 1. m]"	"Frequency / Hz"	"Sound Pressure Level / dB (re 20 µPa/V)  [2.83  V @ 1. m]"	"Frequency / Hz"	"Sound Pressure Level / dB (re 20 µPa/V)  [2.83  V @ 1. m]"	"Frequency / Hz"	"Sound Pressure Level / dB (re 20 µPa/V)  [2.83  V @ 1. m]"	"Frequency / Hz"	"Sound Pressure Level / dB (re 20 µPa/V)  [2.83  V @ 1. m]"	"Frequency / Hz"	"Sound Pressure Level / dB (re 20 µPa/V)  [2.83  V @ 1. m]"	"Frequency / Hz"	"Sound Pressure Level / dB (re 20 µPa/V)  [2.83  V @ 1. m]"	"Frequency / Hz"	"Sound Pressure Level / dB (re 20 µPa/V)  [2.83  V @ 1. m]"	"Frequency / Hz"	"Sound Pressure Level / dB (re 20 µPa/V)  [2.83  V @ 1. m]"	"Frequency / Hz"	"Sound Pressure Level / dB (re 20 µPa/V)  [2.83  V @ 1. m]"	"Frequency / Hz"	"Sound Pressure Level / dB (re 20 µPa/V)  [2.83  V @ 1. m]"	"Frequency / Hz"	"Sound Pressure Level / dB (re 20 µPa/V)  [2.83  V @ 1. m]"	"Frequency / Hz"	"Sound Pressure Level / dB (re 20 µPa/V)  [2.83  V @ 1. m]"	"Frequency / Hz"	"Sound Pressure Level / dB (re 20 µPa/V)  [2.83  V @ 1. m]"	"Frequency / Hz"	"Sound Pressure Level / dB (re 20 µPa/V)  [2.83  V @ 1. m]"	"Frequency / Hz"	"Sound Pressure Level / dB (re 20 µPa/V)  [2.83  V @ 1. m]"	"Frequency / Hz"	"Sound Pressure Level / dB (re 20 µPa/V)  [2.83  V @ 1. m]"	"Frequency / Hz"	"Sound Pressure Level / dB (re 20 µPa/V)  [2.83  V @ 1. m]"	"Frequency / Hz"	"Sound Pressure Level / dB (re 20 µPa/V)  [2.83  V @ 1. m]"	"Frequency / Hz"	"Sound Pressure Level / dB (re 20 µPa/V)  [2.83  V @ 1. m]"	"Frequency / Hz"	"Sound Pressure Level / dB (re 20 µPa/V)  [2.83  V @ 1. m]"	"Frequency / Hz"	"Sound Pressure Level / dB (re 20 µPa/V)  [2.83  V @ 1. m]"	"Frequency / Hz"	"Sound Pressure Level / dB (re 20 µPa/V)  [2.83  V @ 1. m]"	"Frequency / Hz"	"Sound Pressure Level / dB (re 20 µPa/V)  [2.83  V @ 1. m]"	"Frequency / Hz"	"Sound Pressure Level / dB (re 20 µPa/V)  [2.83  V @ 1. m]"	"Frequency / Hz"	"Sound Pressure Level / dB (re 20 µPa/V)  [2.83  V @ 1. m]"	"Frequency / Hz"	"Sound Pressure Level / dB (re 20 µPa/V)  [2.83  V @ 1. m]"	"Frequency / Hz"	"Sound Pressure Level / dB (re 20 µPa/V)  [2.83  V @ 1. m]"	"Frequency / Hz"	"Sound Pressure Level / dB (re 20 µPa/V)  [2.83  V @ 1. m]"	"Frequency / Hz"	"Sound Pressure Level / dB (re 20 µPa/V)  [2.83  V @ 1. m]"	"Frequency / Hz"	"Sound Pressure Level / dB (re 20 µPa/V)  [2.83  V @ 1. m]"	"Frequency / Hz"	"Sound Pressure Level / dB (re 20 µPa/V)  [2.83  V @ 1. m]"	"Frequency / Hz"	"Sound Pressure Level / dB (re 20 µPa/V)  [2.83  V @ 1. m]"	"Frequency / Hz"	"Sound Pressure Level / dB (re 20 µPa/V)  [2.83  V @ 1. m]"
20.5078	64.7135	20.5078	64.7043	20.5078	64.7076	20.5078	64.6803	20.5078	64.6871	20.5078	64.6418	20.5078	64.6524	20.5078	64.5897	20.5078	64.6043	20.5078	64.5255	20.5078	64.5438	20.5078	64.4507	20.5078	64.472	20.5078	64.3676	20.5078	64.3906	20.5078	64.2787	20.5078	64.3017	20.5078	64.1866	20.5078	64.208	20.5078	64.0942	20.5078	64.1127	20.5078	64.0046	20.5078	64.0192	20.5078	63.9203	20.5078	63.9311	20.5078	63.8441	20.5078	63.8514	20.5078	63.778	20.5078	63.7826	20.5078	63.7242	20.5078	63.7268	20.5078	63.6843	20.5078	63.6857	20.5078	63.6599	20.5078	63.6604	20.5078	63.6517
21.9727	66.0924	21.9727	66.0647	21.9727	66.1078	21.9727	66.0251	21.9727	66.1104	21.9727	65.9746	21.9727	66.1	21.9727	65.9138	21.9727	66.0768	21.9727	65.8438	21.9727	66.041	21.9727	65.7661	21.9727	65.9931	21.9727	65.6825	21.9727	65.9338	21.9727	65.5952	21.9727	65.8641	21.9727	65.5068	21.9727	65.7853	21.9727	65.42	21.9727	65.6992	21.9727	65.3378	21.9727	65.6083	21.9727	65.2628	21.9727	65.5156	21.9727	65.198	21.9727	65.4243	21.9727	65.146	21.9727	65.3379	21.9727	65.1092	21.9727	65.2598	21.9727	65.0895	21.9727	65.1933	21.9727	65.0882	21.9727	65.1411	21.9727	65.1056
23.4375	66.6307	23.4375	66.6127	23.4375	66.6363	23.4375	66.582	23.4375	66.6298	23.4375	66.5389	23.4375	66.6117	23.4375	66.484	23.4375	66.5826	23.4375	66.4186	23.4375	66.5428	23.4375	66.3446	23.4375	66.4928	23.4375	66.2642	23.4375	66.4333	23.4375	66.1802	23.4375	66.3653	23.4375	66.0954	23.4375	66.2905	23.4375	66.0127	23.4375	66.2109	23.4375	65.935	23.4375	66.1291	23.4375	65.8649	23.4375	66.0477	23.4375	65.8049	23.4375	65.9695	23.4375	65.7571	23.4375	65.8971	23.4375	65.723	23.4375	65.8331	23.4375	65.7038	23.4375	65.7797	23.4375	65.7001	23.4375	65.7388	23.4375	65.7119
24.9023	67.3074	24.9023	67.2939	24.9023	67.3092	24.9023	67.2686	24.9023	67.2994	24.9023	67.2316	24.9023	67.2779	24.9023	67.1835	24.9023	67.2449	24.9023	67.1249	24.9023	67.2002	24.9023	67.057	24.9023	67.1442	24.9023	66.9816	24.9023	67.0776	24.9023	66.9007	24.9023	67.0018	24.9023	66.8166	24.9023	66.9189	24.9023	66.7319	24.9023	66.8315	24.9023	66.6493	24.9023	66.7428	24.9023	66.5714	24.9023	66.6562	24.9023	66.5011	24.9023	66.5748	24.9023	66.4409	24.9023	66.5018	24.9023	66.3932	24.9023	66.4399	24.9023	66.3598	24.9023	66.3915	24.9023	66.3424	24.9023	66.3584	24.9023	66.3419
26.3672	68.2674	26.3672	68.2467	26.3672	68.2743	26.3672	68.2129	26.3672	68.2673	26.3672	68.1666	26.3672	68.2462	26.3672	68.1089	26.3672	68.2113	26.3672	68.0411	26.3672	68.163	26.3672	67.9647	26.3672	68.1023	26.3672	67.8819	26.3672	68.0305	26.3672	67.7948	26.3672	67.9495	26.3672	67.7061	26.3672	67.8616	26.3672	67.6184	26.3672	67.7697	26.3672	67.5347	26.3672	67.677	26.3672	67.4576	26.3672	67.5869	26.3672	67.3898	26.3672	67.5026	26.3672	67.3335	26.3672	67.4271	26.3672	67.2907	26.3672	67.3628	26.3672	67.2628	26.3672	67.3118	26.3672	67.2508	26.3672	67.2756	26.3672	67.2551
27.832	69.0423	27.832	69.0249	27.832	69.0461	27.832	68.9944	27.832	69.0359	27.832	68.9517	27.832	69.0116	27.832	68.8976	27.832	68.9736	27.832	68.8334	27.832	68.9223	27.832	68.7605	27.832	68.8587	27.832	68.6807	27.832	68.7843	27.832	68.5959	27.832	68.7008	27.832	68.5085	27.832	68.6109	27.832	68.4208	27.832	68.5173	27.832	68.3355	27.832	68.4234	27.832	68.2553	27.832	68.3325	27.832	68.1828	27.832	68.2481	27.832	68.1207	27.832	68.1732	27.832	68.0712	27.832	68.1106	27.832	68.0362	27.832	68.0624	27.832	68.0172	27.832	68.0303	27.832	68.0151
29.2969	69.8488	29.2969	69.8357	29.2969	69.8483	29.2969	69.8092	29.2969	69.834	29.2969	69.7696	29.2969	69.8063	29.2969	69.7178	29.2969	69.7654	29.2969	69.6547	29.2969	69.7121	29.2969	69.5817	29.2969	69.6473	29.2969	69.5005	29.2969	69.5724	29.2969	69.4134	29.2969	69.4893	29.2969	69.3228	29.2969	69.4004	29.2969	69.2313	29.2969	69.3084	29.2969	69.1419	29.2969	69.2162	29.2969	69.0577	29.2969	69.1271	29.2969	68.9817	29.2969	69.0441	29.2969	68.9167	29.2969	68.9701	29.2969	68.8653	29.2969	68.9076	29.2969	68.8296	29.2969	68.859	29.2969	68.8108	29.2969	68.8259	29.2969	68.8096
30.7617	70.6809	30.7617	70.6683	30.7617	70.6813	30.7617	70.6437	30.7617	70.6693	30.7617	70.6075	30.7617	70.6446	30.7617	70.5603	30.7617	70.6075	30.7617	70.5029	30.7617	70.5582	30.7617	70.4363	30.7617	70.4977	30.7617	70.3621	30.7617	70.4273	30.7617	70.2821	30.7617	70.3487	30.7617	70.1986	30.7617	70.2645	30.7617	70.1141	30.7617	70.1773	30.7617	70.0313	30.7617	70.09	30.7617	69.953	30.7617	70.0058	30.7617	69.882	30.7617	69.9275	30.7617	69.8207	30.7617	69.858	30.7617	69.7715	30.7617	69.7998	30.7617	69.7361	30.7617	69.7552	30.7617	69.7162	30.7617	69.7258	30.7617	69.7127
32.2266	71.0195	32.2266	71.0054	32.2266	71.0211	32.2266	70.9793	32.2266	71.0099	32.2266	70.9418	32.2266	70.986	32.2266	70.8937	32.2266	70.9495	32.2266	70.8361	32.2266	70.901	32.2266	70.7704	32.2266	70.8415	32.2266	70.6981	32.2266	70.7724	32.2266	70.6211	32.2266	70.6955	32.2266	70.5414	32.2266	70.6132	32.2266	70.4613	32.2266	70.5284	32.2266	70.3832	32.2266	70.4438	32.2266	70.3096	32.2266	70.3625	32.2266	70.2428	32.2266	70.2874	32.2266	70.1854	32.2266	70.2211	32.2266	70.1392	32.2266	70.1659	32.2266	70.1061	32.2266	70.1238	32.2266	70.0874	32.2266	70.0962	32.2266	70.084
33.6914	71.6996	33.6914	71.685	33.6914	71.7029	33.6914	71.6598	33.6914	71.6946	33.6914	71.6246	33.6914	71.6747	33.6914	71.5804	33.6914	71.6431	33.6914	71.5281	33.6914	71.6006	33.6914	71.4689	33.6914	71.5479	33.6914	71.4043	33.6914	71.4868	33.6914	71.336	33.6914	71.419	33.6914	71.266	33.6914	71.3469	33.6914	71.1963	33.6914	71.2731	33.6914	71.129	33.6914	71.2003	33.6914	71.0665	33.6914	71.1308	33.6914	71.0108	33.6914	71.0669	33.6914	70.9638	33.6914	71.0106	33.6914	70.927	33.6914	70.9634	33.6914	70.9018	33.6914	70.9268	33.6914	70.889	33.6914	70.9017	33.6914	70.889
35.1562	72.6345	35.1562	72.6289	35.1562	72.6256	35.1562	72.6091	35.1562	72.6021	35.1562	72.5757	35.1562	72.564	35.1562	72.5293	35.1562	72.5121	35.1562	72.4709	35.1562	72.4473	35.1562	72.4016	35.1562	72.3714	35.1562	72.323	35.1562	72.2863	35.1562	72.2369	35.1562	72.1946	35.1562	72.1459	35.1562	72.0995	35.1562	72.0525	35.1562	72.0038	35.1562	71.9597	35.1562	71.911	35.1562	71.8707	35.1562	71.8241	35.1562	71.7884	35.1562	71.746	35.1562	71.7156	35.1562	71.6793	35.1562	71.6549	35.1562	71.6262	35.1562	71.6084	35.1562	71.5885	35.1562	71.5777	35.1562	71.5675	35.1562	71.5639
36.6211	73.0903	36.6211	73.0786	36.6211	73.0893	36.6211	73.0544	36.6211	73.0753	36.6211	73.0185	36.6211	73.0487	36.6211	72.9715	36.6211	73.0099	36.6211	72.9147	36.6211	72.96	36.6211	72.8493	36.6211	72.9001	36.6211	72.7771	36.6211	72.8321	36.6211	72.7002	36.6211	72.7579	36.6211	72.6208	36.6211	72.6798	36.6211	72.5415	36.6211	72.6001	36.6211	72.4648	36.6211	72.5212	36.6211	72.3931	36.6211	72.4457	36.6211	72.3289	36.6211	72.3759	36.6211	72.2743	36.6211	72.3141	36.6211	72.2311	36.6211	72.2622	36.6211	72.2007	36.6211	72.2222	36.6211	72.1844	36.6211	72.1953	36.6211	72.1825
38.0859	73.8527	38.0859	73.8487	38.0859	73.8418	38.0859	73.8302	38.0859	73.8155	38.0859	73.7979	38.0859	73.7739	38.0859	73.7526	38.0859	73.7176	38.0859	73.6952	38.0859	73.6478	38.0859	73.6268	38.0859	73.566	38.0859	73.5489	38.0859	73.4748	38.0859	73.4632	38.0859	73.377	38.0859	73.3722	38.0859	73.2758	38.0859	73.2784	38.0859	73.1749	38.0859	73.1848	38.0859	73.0778	38.0859	73.0942	38.0859	72.9881	38.0859	73.0094	38.0859	72.9092	38.0859	72.9329	38.0859	72.844	38.0859	72.8671	38.0859	72.7946	38.0859	72.8141	38.0859	72.7628	38.0859	72.7758	38.0859	72.7491	38.0859	72.7537
39.5508	74.1281	39.5508	74.1198	39.5508	74.1227	39.5508	74.0982	39.5508	74.1034	39.5508	74.0641	39.5508	74.07	39.5508	74.0183	39.5508	74.0231	39.5508	73.9619	39.5508	73.9634	39.5508	73.8965	39.5508	73.8926	39.5508	73.8237	39.5508	73.813	39.5508	73.7456	39.5508	73.7277	39.5508	73.6647	39.5508	73.6397	39.5508	73.5836	39.5508	73.5527	39.5508	73.505	39.5508	73.4698	39.5508	73.4314	39.5508	73.3942	39.5508	73.3651	39.5508	73.3282	39.5508	73.3078	39.5508	73.2739	39.5508	73.2608	39.5508	73.2324	39.5508	73.2249	39.5508	73.2044	39.5508	73.2008	39.5508	73.19	39.5508	73.189
41.0156	74.2484	41.0156	74.2513	41.0156	74.2382	41.0156	74.2459	41.0156	74.2219	41.0156	74.2312	41.0156	74.2008	41.0156	74.2069	41.0156	74.1766	41.0156	74.1728	41.0156	74.1511	41.0156	74.1299	41.0156	74.126	41.0156	74.0803	41.0156	74.1032	41.0156	74.0272	41.0156	74.0837	41.0156	73.9745	41.0156	74.0679	41.0156	73.9264	41.0156	74.0556	41.0156	73.8869	41.0156	74.0456	41.0156	73.859	41.0156	74.0364	41.0156	73.8445	41.0156	74.0261	41.0156	73.8432	41.0156	74.0134	41.0156	73.8536	41.0156	73.9969	41.0156	73.8729	41.0156	73.9763	41.0156	73.8979	41.0156	73.952	41.0156	73.9252
42.4805	74.3735	42.4805	74.3746	42.4805	74.3603	42.4805	74.3633	42.4805	74.3356	42.4805	74.3394	42.4805	74.2998	42.4805	74.3031	42.4805	74.2535	42.4805	74.2552	42.4805	74.1978	42.4805	74.1969	42.4805	74.134	42.4805	74.1301	42.4805	74.064	42.4805	74.0572	42.4805	73.9901	42.4805	73.9809	42.4805	73.9151	42.4805	73.9039	42.4805	73.8416	42.4805	73.8291	42.4805	73.7723	42.4805	73.7591	42.4805	73.7093	42.4805	73.6961	42.4805	73.6544	42.4805	73.6419	42.4805	73.609	42.4805	73.598	42.4805	73.5738	42.4805	73.5652	42.4805	73.5495	42.4805	73.5439	42.4805	73.5362	42.4805	73.5343
43.9453	75.1164	43.9453	75.1131	43.9453	75.1057	43.9453	75.0959	43.9453	75.0814	43.9453	75.0647	43.9453	75.044	43.9453	75.0202	43.9453	74.9943	43.9453	74.9634	43.9453	74.9332	43.9453	74.8959	43.9453	74.8625	43.9453	74.8199	43.9453	74.7841	43.9453	74.738	43.9453	74.7006	43.9453	74.653	43.9453	74.615	43.9453	74.5679	43.9453	74.5305	43.9453	74.4856	43.9453	74.45	43.9453	74.4088	43.9453	74.3762	43.9453	74.3399	43.9453	74.3116	43.9453	74.2808	43.9453	74.2576	43.9453	74.2331	43.9453	74.2156	43.9453	74.1977	43.9453	74.1861	43.9453	74.1751	43.9453	74.1694	43.9453	74.1657
45.4102	75.6766	45.4102	75.6678	45.4102	75.6724	45.4102	75.6464	45.4102	75.6555	45.4102	75.6126	45.4102	75.6262	45.4102	75.5673	45.4102	75.5853	45.4102	75.5115	45.4102	75.5339	45.4102	75.4468	45.4102	75.4736	45.4102	75.3754	45.4102	75.4063	45.4102	75.2996	45.4102	75.3344	45.4102	75.2223	45.4102	75.2602	45.4102	75.1463	45.4102	75.1863	45.4102	75.0743	45.4102	75.1153	45.4102	75.0088	45.4102	75.0492	45.4102	74.9519	45.4102	74.9899	45.4102	74.905	45.4102	74.9387	45.4102	74.8693	45.4102	74.8968	45.4102	74.8452	45.4102	74.8647	45.4102	74.8329	45.4102	74.8431	45.4102	74.8323
46.875	76.2209	46.875	76.2123	46.875	76.2146	46.875	76.189	46.875	76.1937	46.875	76.1514	46.875	76.159	46.875	76.1004	46.875	76.1114	46.875	76.0375	46.875	76.0526	46.875	75.9648	46.875	75.9843	46.875	75.8846	46.875	75.9089	46.875	75.7999	46.875	75.829	46.875	75.7138	46.875	75.7475	46.875	75.6296	46.875	75.6671	46.875	75.5503	46.875	75.5904	46.875	75.4786	46.875	75.5196	46.875	75.4166	46.875	75.4564	46.875	75.366	46.875	75.4021	46.875	75.3276	46.875	75.3576	46.875	75.302	46.875	75.3235	46.875	75.2892	46.875	75.3004	46.875	75.2888
48.3398	76.5739	48.3398	76.5635	48.3398	76.5692	48.3398	76.5381	48.3398	76.5496	48.3398	76.4984	48.3398	76.5159	48.3398	76.4455	48.3398	76.4692	48.3398	76.3813	48.3398	76.411	48.3398	76.3079	48.3398	76.3435	48.3398	76.2279	48.3398	76.2689	48.3398	76.1445	48.3398	76.1901	48.3398	76.0608	48.3398	76.1098	48.3398	75.9798	48.3398	76.0309	48.3398	75.9042	48.3398	75.9559	48.3398	75.8366	48.3398	75.887	48.3398	75.7787	48.3398	75.8258	48.3398	75.7319	48.3398	75.7734	48.3398	75.6968	48.3398	75.7305	48.3398	75.6738	48.3398	75.6976	48.3398	75.6628	48.3398	75.6751	48.3398	75.6633
51.2695	77.4927	51.2695	77.4853	51.2695	77.4839	51.2695	77.462	51.2695	77.4589	51.2695	77.4237	51.2695	77.4183	51.2695	77.3718	51.2695	77.3634	51.2695	77.3082	51.2695	77.2958	51.2695	77.235	51.2695	77.2177	51.2695	77.1549	51.2695	77.132	51.2695	77.0706	51.2695	77.0418	51.2695	76.9848	51.2695	76.9504	51.2695	76.9002	51.2695	76.8612	51.2695	76.8194	51.2695	76.7773	51.2695	76.7444	51.2695	76.7016	51.2695	76.6772	51.2695	76.6362	51.2695	76.6192	51.2695	76.5826	51.2695	76.5716	51.2695	76.5418	51.2695	76.5353	51.2695	76.5143	51.2695	76.5109	51.2695	76.5	51.2695	76.499
52.7344	77.9527	52.7344	77.9454	52.7344	77.9431	52.7344	77.9214	52.7344	77.9172	52.7344	77.8816	52.7344	77.8759	52.7344	77.8274	52.7344	77.821	52.7344	77.7609	52.7344	77.7545	52.7344	77.6848	52.7344	77.679	52.7344	77.6021	52.7344	77.5973	52.7344	77.5162	52.7344	77.5124	52.7344	77.4301	52.7344	77.4271	52.7344	77.3469	52.7344	77.3445	52.7344	77.2692	52.7344	77.2669	52.7344	77.199	52.7344	77.1966	52.7344	77.1378	52.7344	77.1353	52.7344	77.0867	52.7344	77.0841	52.7344	77.0463	52.7344	77.044	52.7344	77.0171	52.7344	77.0153	52.7344	76.9992	52.7344	76.9983	52.7344	76.9929
54.1992	78.4083	54.1992	78.4062	54.1992	78.393	54.1992	78.3869	54.1992	78.3609	54.1992	78.3511	54.1992	78.3132	54.1992	78.3001	54.1992	78.2518	54.1992	78.236	54.1992	78.1789	54.1992	78.1616	54.1992	78.0974	54.1992	78.08	54.1992	78.0105	54.1992	77.9946	54.1992	77.9214	54.1992	77.9089	54.1992	77.8335	54.1992	77.8258	54.1992	77.7502	54.1992	77.7481	54.1992	77.6742	54.1992	77.6778	54.1992	77.6076	54.1992	77.616	54.1992	77.5522	54.1992	77.5636	54.1992	77.5086	54.1992	77.5209	54.1992	77.4772	54.1992	77.4881	54.1992	77.4576	54.1992	77.4651	54.1992	77.4495	54.1992	77.4521
55.6641	78.7078	55.6641	78.7096	55.6641	78.6854	55.6641	78.6909	55.6641	78.6428	55.6641	78.6525	55.6641	78.5813	55.6641	78.5956	55.6641	78.5025	55.6641	78.5224	55.6641	78.4092	55.6641	78.4353	55.6641	78.3045	55.6641	78.3376	55.6641	78.1921	55.6641	78.2329	55.6641	78.0763	55.6641	78.125	55.6641	77.9614	55.6641	78.0177	55.6641	77.8519	55.6641	77.9147	55.6641	77.7516	55.6641	77.8188	55.6641	77.664	55.6641	77.7323	55.6641	77.5915	55.6641	77.6568	55.6641	77.5357	55.6641	77.5932	55.6641	77.497	55.6641	77.5422	55.6641	77.4753	55.6641	77.5042	55.6641	77.4699	55.6641	77.4798
58.5938	79.3817	58.5938	79.3718	58.5938	79.3728	58.5938	79.3437	58.5938	79.345	58.5938	79.299	58.5938	79.2992	58.5938	79.24	58.5938	79.2371	58.5938	79.1696	58.5938	79.161	58.5938	79.0913	58.5938	79.0743	58.5938	79.0088	58.5938	78.9805	58.5938	78.9255	58.5938	78.8837	58.5938	78.8446	58.5938	78.7879	58.5938	78.7681	58.5938	78.6969	58.5938	78.6976	58.5938	78.6138	58.5938	78.6337	58.5938	78.5416	58.5938	78.5764	58.5938	78.4821	58.5938	78.5258	58.5938	78.4368	58.5938	78.4818	58.5938	78.406	58.5938	78.4448	58.5938	78.3897	58.5938	78.4158	58.5938	78.3867	58.5938	78.396
60.0586	79.7663	60.0586	79.7511	60.0586	79.7625	60.0586	79.7175	60.0586	79.7402	60.0586	79.6666	60.0586	79.7002	60.0586	79.6004	60.0586	79.6444	60.0586	79.5215	60.0586	79.5752	60.0586	79.4331	60.0586	79.4954	60.0586	79.3389	60.0586	79.4086	60.0586	79.2426	60.0586	79.3181	60.0586	79.1482	60.0586	79.2275	60.0586	79.059	60.0586	79.1395	60.0586	78.9779	60.0586	79.0569	60.0586	78.907	60.0586	78.9814	60.0586	78.8477	60.0586	78.9146	60.0586	78.8008	60.0586	78.8573	60.0586	78.7663	60.0586	78.8105	60.0586	78.7442	60.0586	78.7744	60.0586	78.7343	60.0586	78.7496	60.0586	78.7361
62.9883	80.4113	62.9883	80.3958	62.9883	80.4069	62.9883	80.3609	62.9883	80.3829	62.9883	80.308	62.9883	80.3403	62.9883	80.2395	62.9883	80.2811	62.9883	80.1581	62.9883	80.2079	62.9883	80.0673	62.9883	80.1239	62.9883	79.9713	62.9883	80.0329	62.9883	79.8739	62.9883	79.9386	62.9883	79.7791	62.9883	79.8449	62.9883	79.6903	62.9883	79.7551	62.9883	79.6103	62.9883	79.6719	62.9883	79.5407	62.9883	79.5974	62.9883	79.4829	62.9883	79.5328	62.9883	79.4371	62.9883	79.4789	62.9883	79.4034	62.9883	79.4358	62.9883	79.3814	62.9883	79.4036	62.9883	79.3707	62.9883	79.382	62.9883	79.371
64.4531	80.673	64.4531	80.6605	64.4531	80.6657	64.4531	80.6286	64.4531	80.639	64.4531	80.5788	64.4531	80.5941	64.4531	80.5133	64.4531	80.5333	64.4531	80.4351	64.4531	80.4594	64.4531	80.3478	64.4531	80.3759	64.4531	80.2552	64.4531	80.2866	64.4531	80.1615	64.4531	80.1953	64.4531	80.0703	64.4531	80.1056	64.4531	79.9848	64.4531	80.0206	64.4531	79.9077	64.4531	79.9428	64.4531	79.8406	64.4531	79.8738	64.4531	79.7844	64.4531	79.8145	64.4531	79.7396	64.4531	79.7655	64.4531	79.7061	64.4531	79.7267	64.4531	79.6837	64.4531	79.698	64.4531	79.672	64.4531	79.6794	64.4531	79.6706
67.3828	81.2418	67.3828	81.2196	67.3828	81.2441	67.3828	81.1784	67.3828	81.2267	67.3828	81.12	67.3828	81.1908	67.3828	81.0475	67.3828	81.1387	67.3828	80.9643	67.3828	81.0732	67.3828	80.8746	67.3828	80.9981	67.3828	80.783	67.3828	80.9172	67.3828	80.6937	67.3828	80.8344	67.3828	80.6106	67.3828	80.7531	67.3828	80.5367	67.3828	80.6762	67.3828	80.474	67.3828	80.6058	67.3828	80.4234	67.3828	80.5433	67.3828	80.3848	67.3828	80.4893	67.3828	80.3576	67.3828	80.4437	67.3828	80.3405	67.3828	80.4065	67.3828	80.3325	67.3828	80.3771	67.3828	80.3327	67.3828	80.3551	67.3828	80.3403
68.8477	81.4775	68.8477	81.4547	68.8477	81.4807	68.8477	81.4131	68.8477	81.4645	68.8477	81.3545	68.8477	81.4303	68.8477	81.2818	68.8477	81.3807	68.8477	81.1989	68.8477	81.3187	68.8477	81.1101	68.8477	81.2484	68.8477	81.0201	68.8477	81.1738	68.8477	80.9337	68.8477	81.099	68.8477	80.855	68.8477	81.0272	68.8477	80.7873	68.8477	80.9613	68.8477	80.7329	68.8477	80.9026	68.8477	80.6924	68.8477	80.852	68.8477	80.6655	68.8477	80.809	68.8477	80.6509	68.8477	80.7729	68.8477	80.6466	68.8477	80.7425	68.8477	80.6505	68.8477	80.7166	68.8477	80.6608	68.8477	80.6944	68.8477	80.6757
71.7773	82.0513	71.7773	82.0362	71.7773	82.0444	71.7773	81.9995	71.7773	82.0164	71.7773	81.943	71.7773	81.9693	71.7773	81.8693	71.7773	81.906	71.7773	81.7824	71.7773	81.8305	71.7773	81.687	71.7773	81.7474	71.7773	81.5884	71.7773	81.6614	71.7773	81.4918	71.7773	81.5773	71.7773	81.4023	71.7773	81.499	71.7773	81.324	71.7773	81.4295	71.7773	81.2598	71.7773	81.3706	71.7773	81.2112	71.7773	81.3225	71.7773	81.1783	71.7773	81.2844	71.7773	81.1596	71.7773	81.2545	71.7773	81.153	71.7773	81.2306	71.7773	81.1556	71.7773	81.2106	71.7773	81.1646	71.7773	81.1932	71.7773	81.1776
74.707	82.7002	74.707	82.684	74.707	82.6924	74.707	82.6444	74.707	82.6612	74.707	82.5835	74.707	82.6085	74.707	82.5044	74.707	82.5373	74.707	82.411	74.707	82.4514	74.707	82.3082	74.707	82.3557	74.707	82.2011	74.707	82.2549	74.707	82.095	74.707	82.1542	74.707	81.9945	74.707	82.0579	74.707	81.9036	74.707	81.9697	74.707	81.8252	74.707	81.892	74.707	81.7608	74.707	81.8261	74.707	81.7111	74.707	81.772	74.707	81.6753	74.707	81.729	74.707	81.6522	74.707	81.6956	74.707	81.64	74.707	81.6706	74.707	81.6369	74.707	81.6527	74.707	81.6414
77.6367	83.2547	77.6367	83.2394	77.6367	83.2454	77.6367	83.2002	77.6367	83.2122	77.6367	83.1393	77.6367	83.1573	77.6367	83.06	77.6367	83.0836	77.6367	82.9667	77.6367	82.9956	77.6367	82.8645	77.6367	82.8978	77.6367	82.7589	77.6367	82.7953	77.6367	82.655	77.6367	82.693	77.6367	82.5573	77.6367	82.5951	77.6367	82.4691	77.6367	82.505	77.6367	82.3928	77.6367	82.4252	77.6367	82.3293	77.6367	82.357	77.6367	82.2785	77.6367	82.3009	77.6367	82.2395	77.6367	82.2564	77.6367	82.2111	77.6367	82.223	77.6367	82.1923	77.6367	82.1996	77.6367	82.1819	77.6367	82.1854	77.6367	82.1797
79.1016	83.4744	79.1016	83.4568	79.1016	83.4669	79.1016	83.4148	79.1016	83.435	79.1016	83.3506	79.1016	83.3809	79.1016	83.2679	79.1016	83.3078	79.1016	83.1712	79.1016	83.22	79.1016	83.0662	79.1016	83.1226	79.1016	82.9585	79.1016	83.0208	79.1016	82.8537	79.1016	82.9195	79.1016	82.7566	79.1016	82.8233	79.1016	82.6709	79.1016	82.7355	79.1016	82.5988	79.1016	82.6585	79.1016	82.5407	79.1016	82.5933	79.1016	82.4963	79.1016	82.5403	79.1016	82.464	79.1016	82.4986	79.1016	82.442	79.1016	82.4672	79.1016	82.4286	79.1016	82.445	79.1016	82.4227	79.1016	82.4306	79.1016	82.4233
82.0312	83.8566	82.0312	83.8229	82.0312	83.8644	82.0312	83.7645	82.0312	83.8467	82.0312	83.6841	82.0312	83.8054	82.0312	83.5858	82.0312	83.7435	82.0312	83.4749	82.0312	83.6653	82.0312	83.3575	82.0312	83.576	82.0312	83.2402	82.0312	83.4807	82.0312	83.1294	82.0312	83.3846	82.0312	83.0304	82.0312	83.2921	82.0312	82.9475	82.0312	83.2066	82.0312	82.8829	82.0312	83.1302	82.0312	82.8369	82.0312	83.0637	82.0312	82.8082	82.0312	83.007	82.0312	82.7946	82.0312	82.9592	82.0312	82.7929	82.0312	82.9193	82.0312	82.8003	82.0312	82.8857	82.0312	82.8144	82.0312	82.8574	82.0312	82.8337
84.9609	84.1663	84.9609	84.1516	84.9609	84.1576	84.9609	84.1142	84.9609	84.1264	84.9609	84.056	84.9609	84.0753	84.9609	83.9807	84.9609	84.0082	84.9609	83.8928	84.9609	83.9299	84.9609	83.7978	84.9609	83.8458	84.9609	83.7016	84.9609	83.7616	84.9609	83.61	84.9609	83.6822	84.9609	83.528	84.9609	83.6115	84.9609	83.4595	84.9609	83.552	84.9609	83.4066	84.9609	83.5046	84.9609	83.3699	84.9609	83.4686	84.9609	83.3482	84.9609	83.4421	84.9609	83.3392	84.9609	83.4227	84.9609	83.3398	84.9609	83.4077	84.9609	83.3469	84.9609	83.3948	84.9609	83.3578	84.9609	83.3825	84.9609	83.3701
87.8906	84.922	87.8906	84.9268	87.8906	84.8867	87.8906	84.9015	87.8906	84.8223	87.8906	84.8486	87.8906	84.7325	87.8906	84.7727	87.8906	84.6229	87.8906	84.6794	87.8906	84.5008	87.8906	84.5757	87.8906	84.3744	87.8906	84.4688	87.8906	84.2523	87.8906	84.3657	87.8906	84.1423	87.8906	84.2724	87.8906	84.0505	87.8906	84.1932	87.8906	83.9809	87.8906	84.1302	87.8906	83.9347	87.8906	84.0837	87.8906	83.9106	87.8906	84.0518	87.8906	83.9051	87.8906	84.0313	87.8906	83.9132	87.8906	84.0181	87.8906	83.9296	87.8906	84.0082	87.8906	83.9495	87.8906	83.9981	87.8906	83.9688	87.8906	83.9853
90.8203	85.2557	90.8203	85.2366	90.8203	85.2412	90.8203	85.1851	90.8203	85.194	90.8203	85.1043	90.8203	85.117	90.8203	84.9992	90.8203	85.015	90.8203	84.8761	90.8203	84.8943	90.8203	84.7427	90.8203	84.7625	90.8203	84.6066	90.8203	84.6277	90.8203	84.4755	90.8203	84.4977	90.8203	84.356	90.8203	84.3793	90.8203	84.2533	90.8203	84.2774	90.8203	84.1702	90.8203	84.1949	90.8203	84.1077	90.8203	84.1321	90.8203	84.0643	90.8203	84.0876	90.8203	84.0375	90.8203	84.0582	90.8203	84.0232	90.8203	84.0402	90.8203	84.0176	90.8203	84.0296	90.8203	84.0172	90.8203	84.0234	90.8203	84.0194
95.2148	85.6031	95.2148	85.5891	95.2148	85.5863	95.2148	85.5452	95.2148	85.5399	95.2148	85.4746	95.2148	85.4669	95.2148	85.3821	95.2148	85.3725	95.2148	85.2743	95.2148	85.263	95.2148	85.1586	95.2148	85.1458	95.2148	85.0429	95.2148	85.0285	95.2148	84.9345	95.2148	84.9184	95.2148	84.8393	95.2148	84.8217	95.2148	84.7616	95.2148	84.7425	95.2148	84.7031	95.2148	84.6829	95.2148	84.6634	95.2148	84.6426	95.2148	84.6398	95.2148	84.6194	95.2148	84.6287	95.2148	84.6098	95.2148	84.6253	95.2148	84.6093	95.2148	84.6254	95.2148	84.6137	95.2148	84.6256	95.2148	84.6194	95.2148	84.6237
98.1445	86.0645	98.1445	86.0541	98.1445	86.0419	98.1445	86.0115	98.1445	85.9879	98.1445	85.9398	98.1445	85.9063	98.1445	85.8442	98.1445	85.8029	98.1445	85.7315	98.1445	85.685	98.1445	85.6098	98.1445	85.5607	98.1445	85.4872	98.1445	85.4383	98.1445	85.3717	98.1445	85.3252	98.1445	85.2697	98.1445	85.2275	98.1445	85.1857	98.1445	85.1489	98.1445	85.1218	98.1445	85.0909	98.1445	85.0778	98.1445	85.0528	98.1445	85.0512	98.1445	85.0317	98.1445	85.0383	98.1445	85.0236	98.1445	85.0343	98.1445	85.0239	98.1445	85.0349	98.1445	85.0282	98.1445	85.0363	98.1445	85.033	98.1445	85.0359
101.074	86.3187	101.074	86.2943	101.074	86.3097	101.074	86.2376	101.074	86.2685	101.074	86.1525	101.074	86.1988	101.074	86.0448	101.074	86.1063	101.074	85.9222	101.074	85.9982	101.074	85.7934	101.074	85.8829	101.074	85.6674	101.074	85.7684	101.074	85.5526	101.074	85.6621	101.074	85.4554	101.074	85.5696	101.074	85.3803	101.074	85.4944	101.074	85.3288	101.074	85.4377	101.074	85.2996	101.074	85.3984	101.074	85.2891	101.074	85.3739	101.074	85.2924	101.074	85.3605	101.074	85.3037	101.074	85.3542	101.074	85.318	101.074	85.3509	101.074	85.3313	101.074	85.3475	101.074	85.3413
105.469	86.7838	105.469	86.7618	105.469	86.7684	105.469	86.704	105.469	86.7172	105.469	86.6145	105.469	86.6345	105.469	86.5003	105.469	86.5273	105.469	86.3701	105.469	86.4048	105.469	86.2339	105.469	86.2773	105.469	86.102	105.469	86.1554	105.469	85.9836	105.469	86.0484	105.469	85.8858	105.469	85.9631	105.469	85.813	105.469	85.9027	105.469	85.7664	105.469	85.8668	105.469	85.7443	105.469	85.8514	105.469	85.7428	105.469	85.8504	105.469	85.7563	105.469	85.8568	105.469	85.7793	105.469	85.8642	105.469	85.8058	105.469	85.8675	105.469	85.831	105.469	85.8635	105.469	85.8511
108.398	87.072	108.398	87.0502	108.398	87.052	108.398	86.9881	108.398	86.9918	108.398	86.89	108.398	86.896	108.398	86.7633	108.398	86.772	108.398	86.6175	108.398	86.6294	108.398	86.4636	108.398	86.4795	108.398	86.3134	108.398	86.3339	108.398	86.1781	108.398	86.2036	108.398	86.067	108.398	86.0975	108.398	85.986	108.398	86.0213	108.398	85.9373	108.398	85.9765	108.398	85.919	108.398	85.9605	108.398	85.9255	108.398	85.9671	108.398	85.9492	108.398	85.9881	108.398	85.9813	108.398	86.0143	108.398	86.0135	108.398	86.0376	108.398	86.0386	108.398	86.0514	108.398	86.052
112.793	87.4886	112.793	87.4634	112.793	87.4708	112.793	87.3964	112.793	87.4118	112.793	87.2919	112.793	87.3165	112.793	87.1568	112.793	87.1925	112.793	87.0008	112.793	87.0494	112.793	86.8346	112.793	86.8984	112.793	86.6702	112.793	86.7507	112.793	86.5188	112.793	86.6167	112.793	86.3902	112.793	86.5043	112.793	86.2913	112.793	86.4184	112.793	86.2254	112.793	86.3602	112.793	86.1917	112.793	86.3271	112.793	86.1859	112.793	86.3141	112.793	86.201	112.793	86.3142	112.793	86.2287	112.793	86.3198	112.793	86.2605	112.793	86.3243	112.793	86.2896	112.793	86.3224	112.793	86.311
117.188	87.8751	117.188	87.8468	117.188	87.8576	117.188	87.775	117.188	87.7952	117.188	87.6649	117.188	87.6919	117.188	87.5244	117.188	87.5548	117.188	87.3634	117.188	87.3935	117.188	87.1932	117.188	87.2198	117.188	87.0255	117.188	87.0464	117.188	86.8713	117.188	86.8855	117.188	86.7396	117.188	86.7475	117.188	86.6367	117.188	86.6396	117.188	86.565	117.188	86.5649	117.188	86.5237	117.188	86.5222	117.188	86.5082	117.188	86.5066	117.188	86.5116	117.188	86.5105	117.188	86.5258	117.188	86.5253	117.188	86.5429	117.188	86.5428	117.188	86.5561	117.188	86.5561	117.188	86.5611
120.117	87.969	120.117	87.9366	120.117	87.9563	120.117	87.8616	120.117	87.8996	120.117	87.7492	120.117	87.8034	120.117	87.6076	120.117	87.675	120.117	87.4474	120.117	87.5244	120.117	87.2804	120.117	87.3635	120.117	87.1185	120.117	87.2049	120.117	86.9729	120.117	87.06	120.117	86.8524	120.117	86.9385	120.117	86.7627	120.117	86.8463	120.117	86.7056	120.117	86.7854	120.117	86.6795	120.117	86.7538	120.117	86.6791	120.117	86.7462	120.117	86.6972	120.117	86.7549	120.117	86.7254	120.117	86.7713	120.117	86.7552	120.117	86.7873	120.117	86.7797	120.117	86.7962	120.117	86.7941
124.512	88.273	124.512	88.2455	124.512	88.2507	124.512	88.1699	124.512	88.1803	124.512	88.052	124.512	88.0678	124.512	87.9006	124.512	87.9225	124.512	87.7275	124.512	87.7565	124.512	87.5459	124.512	87.5837	124.512	87.3698	124.512	87.418	124.512	87.2122	124.512	87.2722	124.512	87.0835	124.512	87.1558	124.512	86.9906	124.512	87.0742	124.512	86.9357	124.512	87.0278	124.512	86.9166	124.512	87.0125	124.512	86.927	124.512	87.0209	124.512	86.9582	124.512	87.0434	124.512	86.9999	124.512	87.0702	124.512	87.0422	124.512	87.0923	124.512	87.0769	124.512	87.1029	124.512	87.098
128.906	88.5564	128.906	88.5363	128.906	88.5237	128.906	88.4652	128.906	88.441	128.906	88.3485	128.906	88.3145	128.906	88.1953	128.906	88.1543	128.906	88.0176	128.906	87.973	128.906	87.8294	128.906	87.7854	128.906	87.6454	128.906	87.6063	128.906	87.4797	128.906	87.4494	128.906	87.3434	128.906	87.3255	128.906	87.244	128.906	87.2409	128.906	87.1843	128.906	87.1964	128.906	87.162	128.906	87.188	128.906	87.1708	128.906	87.207	128.906	87.2015	128.906	87.2424	128.906	87.2434	128.906	87.2824	128.906	87.2857	128.906	87.3163	128.906	87.3193	128.906	87.3361	128.906	87.3372
133.301	88.7976	133.301	88.7795	133.301	88.762	133.301	88.7092	133.301	88.6753	133.301	88.5925	133.301	88.5442	133.301	88.4386	133.301	88.3788	133.301	88.2601	133.301	88.1926	133.301	88.0713	133.301	88.0003	133.301	87.8876	133.301	87.8172	133.301	87.723	133.301	87.657	133.301	87.5892	133.301	87.53	133.301	87.4931	133.301	87.4425	133.301	87.4367	133.301	87.3952	133.301	87.417	133.301	87.3843	133.301	87.4264	133.301	87.4019	133.301	87.455	133.301	87.4377	133.301	87.4919	133.301	87.4805	133.301	87.5265	133.301	87.5199	133.301	87.5505	133.301	87.5475	133.301	87.5583
139.16	89.0034	139.16	88.9768	139.16	88.9714	139.16	88.8934	139.16	88.8836	139.16	88.7599	139.16	88.7476	139.16	88.5871	139.16	88.5752	139.16	88.3895	139.16	88.3813	139.16	88.1839	139.16	88.1828	139.16	87.9877	139.16	87.9967	139.16	87.8172	139.16	87.8378	139.16	87.685	139.16	87.7172	139.16	87.5986	139.16	87.6402	139.16	87.5592	139.16	87.6065	139.16	87.5619	139.16	87.6101	139.16	87.5966	139.16	87.6413	139.16	87.6506	139.16	87.6884	139.16	87.7104	139.16	87.7393	139.16	87.7639	139.16	87.7831	139.16	87.8017	139.16	87.8112	139.16	87.8181
143.555	89.1774	143.555	89.1474	143.555	89.145	143.555	89.057	143.555	89.0534	143.555	88.913	143.555	88.9106	143.555	88.727	143.555	88.7293	143.555	88.5142	143.555	88.5253	143.555	88.2926	143.555	88.3168	143.555	88.0812	143.555	88.1223	143.555	87.8976	143.555	87.958	143.555	87.7563	143.555	87.836	143.555	87.666	143.555	87.7621	143.555	87.6286	143.555	87.7355	143.555	87.6392	143.555	87.7491	143.555	87.6868	143.555	87.7915	143.555	87.757	143.555	87.8489	143.555	87.8344	143.555	87.9076	143.555	87.9047	143.555	87.9553	143.555	87.9568	143.555	87.9826	143.555	87.9836
147.949	89.3637	147.949	89.3323	147.949	89.3285	147.949	89.2364	147.949	89.2296	147.949	89.0835	147.949	89.0756	147.949	88.8856	147.949	88.8795	147.949	88.6589	147.949	88.6583	147.949	88.422	147.949	88.4315	147.949	88.1948	147.949	88.219	147.949	87.9961	147.949	88.0386	147.949	87.8409	147.949	87.9036	147.949	87.7389	147.949	87.8205	147.949	87.6923	147.949	87.7885	147.949	87.6964	147.949	87.8001	147.949	87.74	147.949	87.8427	147.949	87.8083	147.949	87.9014	147.949	87.8854	147.949	87.9616	147.949	87.9565	147.949	88.0102	147.949	88.01	147.949	88.0377	147.949	88.0381
153.809	89.5337	153.809	89.5047	153.809	89.4921	153.809	89.4074	153.809	89.383	153.809	89.2493	153.809	89.2152	153.809	89.0429	153.809	89.0024	153.809	88.8044	153.809	88.7624	153.809	88.5533	153.809	88.5162	153.809	88.3104	153.809	88.2854	153.809	88.0956	153.809	88.0901	153.809	87.926	153.809	87.9453	153.809	87.8128	153.809	87.8589	153.809	87.76	153.809	87.8305	153.809	87.7637	153.809	87.8514	153.809	87.8125	153.809	87.9073	153.809	87.89	153.809	87.9809	153.809	87.9781	153.809	88.0549	153.809	88.0594	153.809	88.1146	153.809	88.1202	153.809	88.1489	153.809	88.1512
159.668	89.7252	159.668	89.6923	159.668	89.685	159.668	89.5892	159.668	89.5743	159.668	89.425	159.668	89.4021	159.668	89.214	159.668	89.1828	159.668	88.9744	159.668	88.9355	159.668	88.7274	159.668	88.6826	159.668	88.4944	159.668	88.4479	159.668	88.2951	159.668	88.2531	159.668	88.1448	159.668	88.1152	159.668	88.0527	159.668	88.0433	159.668	88.0208	159.668	88.0364	159.668	88.0437	159.668	88.0847	159.668	88.1098	159.668	88.1708	159.668	88.2031	159.668	88.2739	159.668	88.3055	159.668	88.3736	159.668	88.399	159.668	88.4524	159.668	88.4687	159.668	88.4979	159.668	88.5035
165.527	89.8505	165.527	89.806	165.527	89.8149	165.527	89.6846	165.527	89.702	165.527	89.4964	165.527	89.5216	165.527	89.2572	165.527	89.289	165.527	88.9881	165.527	89.0246	165.527	88.7133	165.527	88.7525	165.527	88.4584	165.527	88.4981	165.527	88.2467	165.527	88.2851	165.527	88.0961	165.527	88.1325	165.527	88.016	165.527	88.0508	165.527	88.0063	165.527	88.0406	165.527	88.0575	165.527	88.0924	165.527	88.1532	165.527	88.1887	165.527	88.2729	165.527	88.3075	165.527	88.3952	165.527	88.4261	165.527	88.5007	165.527	88.5241	165.527	88.5737	165.527	88.5864	165.527	88.6037
171.387	90.0393	171.387	89.987	171.387	90.0054	171.387	89.8509	171.387	89.8894	171.387	89.6399	171.387	89.7021	171.387	89.3696	171.387	89.4598	171.387	89.0613	171.387	89.1838	171.387	88.741	171.387	88.8985	171.387	88.4371	171.387	88.6293	171.387	88.1773	171.387	88.4	171.387	87.9846	171.387	88.2291	171.387	87.8726	171.387	88.1276	171.387	87.8438	171.387	88.0969	171.387	87.8889	171.387	88.1286	171.387	87.9894	171.387	88.2061	171.387	88.1222	171.387	88.3076	171.387	88.2629	171.387	88.4098	171.387	88.3893	171.387	88.4915	171.387	88.4838	171.387	88.5363	171.387	88.5345
177.246	90.0508	177.246	90.0254	177.246	89.9841	177.246	89.9098	177.246	89.8305	177.246	89.7128	177.246	89.6024	177.246	89.4496	177.246	89.3189	177.246	89.141	177.246	89.0044	177.246	88.8125	177.246	88.6874	177.246	88.4925	177.246	88.3968	177.246	88.2096	177.246	88.1588	177.246	87.9895	177.246	87.9924	177.246	87.85	177.246	87.9068	177.246	87.7979	177.246	87.8996	177.246	87.827	177.246	87.9583	177.246	87.9196	177.246	88.0625	177.246	88.0509	177.246	88.188	177.246	88.1939	177.246	88.3103	177.246	88.3234	177.246	88.4077	177.246	88.4193	177.246	88.4634	177.246	88.4679
183.105	90.1132	183.105	90.0961	183.105	90.0352	183.105	89.9867	183.105	89.8667	183.105	89.7947	183.105	89.6196	183.105	89.5363	183.105	89.3132	183.105	89.2329	183.105	88.9729	183.105	88.9099	183.105	88.6287	183.105	88.5949	183.105	88.3123	183.105	88.3151	183.105	88.0532	183.105	88.0946	183.105	87.8731	183.105	87.9506	183.105	87.7827	183.105	87.8902	183.105	87.7797	183.105	87.9086	183.105	87.8497	183.105	87.9899	183.105	87.9704	183.105	88.1101	183.105	88.1156	183.105	88.2422	183.105	88.2592	183.105	88.3602	183.105	88.3778	183.105	88.443	183.105	88.4538	183.105	88.4763
188.965	90.1427	188.965	90.1074	188.965	90.0759	188.965	89.9743	188.965	89.9102	188.965	89.7552	188.965	89.6568	188.965	89.469	188.965	89.3343	188.965	89.1405	188.965	88.9685	188.965	88.7986	188.965	88.5914	188.965	88.4738	188.965	88.2388	188.965	88.1948	188.965	87.9459	188.965	87.9852	188.965	87.7415	188.965	87.86	188.965	87.6412	188.965	87.8229	188.965	87.6433	188.965	87.8654	188.965	87.7299	188.965	87.9681	188.965	87.8725	188.965	88.104	188.965	88.0393	188.965	88.2441	188.965	88.2014	188.965	88.3623	188.965	88.3357	188.965	88.4386	188.965	88.4255	188.965	88.461
196.289	90.2391	196.289	90.1906	196.289	90.178	196.289	90.0357	196.289	90.012	196.289	89.7856	196.289	89.7537	196.289	89.4595	196.289	89.4229	196.289	89.0839	196.289	89.0457	196.289	88.6909	196.289	88.6534	196.289	88.3165	196.289	88.2803	196.289	87.9965	196.289	87.96	196.289	87.761	196.289	87.7216	196.289	87.6289	196.289	87.5844	196.289	87.6033	196.289	87.5537	196.289	87.6709	196.289	87.6196	196.289	87.8057	196.289	87.7583	196.289	87.9756	196.289	87.9373	196.289	88.1476	196.289	88.1212	196.289	88.2931	196.289	88.2778	196.289	88.3892	196.289	88.3826	196.289	88.4211
203.613	90.2557	203.613	90.1918	203.613	90.2041	203.613	90.0159	203.613	90.0425	203.613	89.7395	203.613	89.7839	203.613	89.3822	203.613	89.4494	203.613	88.971	203.613	89.0665	203.613	88.5382	203.613	88.6676	203.613	88.1195	203.613	88.2881	203.613	87.75	203.613	87.9618	203.613	87.4611	203.613	87.7168	203.613	87.2759	203.613	87.5703	203.613	87.2052	203.613	87.5249	203.613	87.2438	203.613	87.5682	203.613	87.3711	203.613	87.6758	203.613	87.5539	203.613	87.8168	203.613	87.754	203.613	87.9594	203.613	87.9353	203.613	88.0747	203.613	88.0697	203.613	88.1397	203.613	88.1398
210.938	90.1708	210.938	90.1175	210.938	90.1069	210.938	89.95	210.938	89.9312	210.938	89.6793	210.938	89.6571	210.938	89.3244	210.938	89.3062	210.938	88.912	210.938	88.9071	210.938	88.475	210.938	88.4943	210.938	88.0509	210.938	88.1059	210.938	87.6785	210.938	87.779	210.938	87.3924	210.938	87.5447	210.938	87.2176	210.938	87.4211	210.938	87.1637	210.938	87.4091	210.938	87.2218	210.938	87.4915	210.938	87.367	210.938	87.6382	210.938	87.5639	210.938	87.8127	210.938	87.7742	210.938	87.9795	210.938	87.9631	210.938	88.1087	210.938	88.1037	210.938	88.179	210.938	88.1781
218.262	90.0946	218.262	90.0572	218.262	90.0037	218.262	89.8949	218.262	89.7912	218.262	89.6203	218.262	89.4733	218.262	89.2554	218.262	89.0759	218.262	88.8308	218.262	88.6333	218.262	88.3843	218.262	88.1873	218.262	87.958	218.262	87.7829	218.262	87.5939	218.262	87.4632	218.262	87.3284	218.262	87.2619	218.262	87.1858	218.262	87.196	218.262	87.1739	218.262	87.2605	218.262	87.2815	218.262	87.4302	218.262	87.4809	218.262	87.6657	218.262	87.7325	218.262	87.9227	218.262	87.9927	218.262	88.1601	218.262	88.221	218.262	88.3439	218.262	88.3853	218.262	88.45	218.262	88.4646
225.586	90.3483	225.586	90.3212	225.586	90.2366	225.586	90.1605	225.586	89.9898	225.586	89.8802	225.586	89.6209	225.586	89.502	225.586	89.1532	225.586	89.0549	225.586	88.6203	225.586	88.5745	225.586	88.0662	225.586	88.102	225.586	87.5442	225.586	87.6812	225.586	87.1122	225.586	87.3549	225.586	86.8229	225.586	87.1575	225.586	86.7096	225.586	87.1069	225.586	86.7736	225.586	87.1968	225.586	86.983	225.586	87.3972	225.586	87.2836	225.586	87.6606	225.586	87.6159	225.586	87.9337	225.586	87.9267	225.586	88.168	225.586	88.175	225.586	88.326	225.586	88.3328	225.586	88.3842
232.91	90.3677	232.91	90.2942	232.91	90.2988	232.91	90.0851	232.91	90.0901	232.91	89.7569	232.91	89.7531	232.91	89.3343	232.91	89.308	232.91	88.8496	232.91	88.7826	232.91	88.34	232.91	88.212	232.91	87.845	232.91	87.6387	232.91	87.4037	232.91	87.1116	232.91	87.0521	232.91	86.6841	232.91	86.8194	232.91	86.4064	232.91	86.7231	232.91	86.3104	232.91	86.7631	232.91	86.395	232.91	86.9174	232.91	86.6223	232.91	87.1446	232.91	86.9297	232.91	87.3922	232.91	87.2495	232.91	87.6081	232.91	87.5236	232.91	87.7495	232.91	87.7108	232.91	87.7878
241.699	90.114	241.699	90.0436	241.699	90.0329	241.699	89.8249	241.699	89.8079	241.699	89.4722	241.699	89.4571	241.699	89.0103	241.699	89.0088	241.699	88.4744	241.699	88.4996	241.699	87.9096	241.699	87.9717	241.699	87.3675	241.699	87.4688	241.699	86.9006	241.699	87.0312	241.699	86.5531	241.699	86.6918	241.699	86.3515	241.699	86.4726	241.699	86.2995	241.699	86.3831	241.699	86.3789	241.699	86.4185	241.699	86.5561	241.699	86.5583	241.699	86.7883	241.699	86.7674	241.699	87.0295	241.699	87.0006	241.699	87.236	241.699	87.2108	241.699	87.3723	241.699	87.358	241.699	87.4152
250.488	90.5939	250.488	90.5283	250.488	90.493	250.488	90.3	250.488	90.2311	250.488	89.9226	250.488	89.8241	250.488	89.4189	250.488	89.2983	250.488	88.8213	250.488	88.6906	250.488	88.1721	250.488	88.0478	250.488	87.5222	250.488	87.4244	250.488	86.9283	250.488	86.8789	250.488	86.4463	250.488	86.4658	250.488	86.1213	250.488	86.2254	250.488	85.9762	250.488	86.1705	250.488	86.0055	250.488	86.2798	250.488	86.1764	250.488	86.5025	250.488	86.4384	250.488	86.774	250.488	86.7337	250.488	87.0326	250.488	87.0079	250.488	87.2301	250.488	87.2168	250.488	87.3346	250.488	87.3305
259.277	90.2684	259.277	90.2038	259.277	90.1614	259.277	89.9733	259.277	89.8883	259.277	89.5942	259.277	89.4671	259.277	89.0938	259.277	88.9268	259.277	88.5089	259.277	88.3074	259.277	87.8841	259.277	87.6566	259.277	87.2701	259.277	87.0269	259.277	86.7206	259.277	86.471	259.277	86.2871	259.277	86.0373	259.277	86.0112	259.277	85.7639	259.277	85.9128	259.277	85.6722	259.277	85.9829	259.277	85.758	259.277	86.1841	259.277	85.9881	259.277	86.4603	259.277	86.3048	259.277	86.7505	259.277	86.6401	259.277	86.9987	259.277	86.9308	259.277	87.1611	259.277	87.1295	259.277	87.2086
268.066	90.315	268.066	90.2124	268.066	90.2457	268.066	89.9438	268.066	90.0063	268.066	89.5228	268.066	89.607	268.066	88.9714	268.066	89.0696	268.066	88.3214	268.066	88.4303	268.066	87.6154	268.066	87.7423	268.066	86.9059	268.066	87.0743	268.066	86.2541	268.066	86.5031	268.066	85.7245	268.066	86.0969	268.066	85.376	268.066	85.8951	268.066	85.246	268.066	85.8955	268.066	85.3346	268.066	86.0586	268.066	85.5997	268.066	86.3227	268.066	85.9698	268.066	86.6209	268.066	86.3671	268.066	86.8932	268.066	86.7252	268.066	87.092	268.066	86.9969	268.066	87.1847	268.066	87.154
276.855	90.439	276.855	90.3914	276.855	90.3017	276.855	90.1563	276.855	89.997	276.855	89.7474	276.855	89.553	276.855	89.1943	276.855	89.0027	276.855	88.54	276.855	88.3794	276.855	87.8371	276.855	87.715	276.855	87.1439	276.855	87.0436	276.855	86.5193	276.855	86.4075	276.855	86.0163	276.855	85.8624	276.855	85.6753	276.855	85.4723	276.855	85.5175	276.855	85.2909	276.855	85.5415	276.855	85.3346	276.855	85.7212	276.855	85.5689	276.855	86.0075	276.855	85.9193	276.855	86.3348	276.855	86.2974	276.855	86.6327	276.855	86.624	276.855	86.8402	276.855	86.841	276.855	86.9155
287.109	90.2416	287.109	90.1841	287.109	90.1207	287.109	89.957	287.109	89.8263	287.109	89.5795	287.109	89.3786	287.109	89.0783	287.109	88.8123	287.109	88.485	287.109	88.174	287.109	87.8364	287.109	87.5158	287.109	87.1769	287.109	86.889	287.109	86.563	287.109	86.3397	287.109	86.0621	287.109	85.9086	287.109	85.7405	287.109	85.6331	287.109	85.6395	287.109	85.5428	287.109	85.7546	287.109	85.6476	287.109	86.0375	287.109	85.923	287.109	86.4151	287.109	86.3091	287.109	86.809	287.109	86.7253	287.109	87.147	287.109	87.0913	287.109	87.3705	287.109	87.343	287.109	87.4405
297.363	90.8881	297.363	90.8195	297.363	90.7451	297.363	90.5529	297.363	90.3889	297.363	90.1122	297.363	89.8321	297.363	89.5304	297.363	89.1025	297.363	88.8477	297.363	88.2455	297.363	88.1084	297.363	87.3255	297.363	87.3573	297.363	86.4273	297.363	86.6394	297.363	85.6526	297.363	86.0048	297.363	85.1022	297.363	85.5157	297.363	84.842	297.363	85.2419	297.363	84.8714	297.363	85.2309	297.363	85.1286	297.363	85.4685	297.363	85.5265	297.363	85.8719	297.363	85.9838	297.363	86.3272	297.363	86.4304	297.363	86.7313	297.363	86.803	297.363	87.01	297.363	87.0459	297.363	87.1196
307.617	90.3649	307.617	90.2385	307.617	90.278	307.617	89.9011	307.617	89.9886	307.617	89.3708	307.617	89.5182	307.617	88.6846	307.617	88.8989	307.617	87.8994	307.617	88.1745	307.617	87.0891	307.617	87.3995	307.617	86.3359	307.617	86.6357	307.617	85.7118	307.617	85.9445	307.617	85.2606	307.617	85.3789	307.617	84.9896	307.617	84.9817	307.617	84.8811	307.617	84.7842	307.617	84.9118	307.617	84.7966	307.617	85.0607	307.617	84.9911	307.617	85.3003	307.617	85.2988	307.617	85.585	307.617	85.6325	307.617	85.8553	307.617	85.9146	307.617	86.054	307.617	86.0924	307.617	86.1396
319.336	90.3	319.336	90.1843	319.336	90.183	319.336	89.842	319.336	89.8376	319.336	89.2906	319.336	89.279	319.336	88.5593	319.336	88.5353	319.336	87.6902	319.336	87.6486	319.336	86.739	319.336	86.677	319.336	85.7773	319.336	85.6973	319.336	84.8938	319.336	84.808	319.336	84.1937	319.336	84.1294	319.336	83.7813	319.336	83.7788	319.336	83.7213	319.336	83.8115	319.336	83.9982	319.336	84.1733	319.336	84.5151	319.336	84.7291	319.336	85.1379	319.336	85.3364	319.336	85.7413	319.336	85.8898	319.336	86.2319	319.336	86.3223	319.336	86.5516	319.336	86.5922	319.336	86.6731
329.59	90.075	329.59	89.9835	329.59	89.9421	329.59	89.6708	329.59	89.5976	329.59	89.1554	329.59	89.0702	329.59	88.4696	329.59	88.4014	329.59	87.6581	329.59	87.6416	329.59	86.7759	329.59	86.8439	329.59	85.8875	329.59	86.0591	329.59	85.0644	329.59	85.3338	329.59	84.3821	329.59	84.7134	329.59	83.9124	329.59	84.2497	329.59	83.7101	329.59	84.0027	329.59	83.7923	329.59	84.0217	329.59	84.1227	329.59	84.3049	329.59	84.6146	329.59	84.7735	329.59	85.1559	329.59	85.2983	329.59	85.6389	329.59	85.7518	329.59	85.9789	329.59	86.0423	329.59	86.1212
341.309	90.1017	341.309	90.0128	341.309	89.9354	341.309	89.677	341.309	89.5188	341.309	89.1165	341.309	88.8717	341.309	88.3678	341.309	88.0288	341.309	87.4811	341.309	87.041	341.309	86.5182	341.309	85.9761	341.309	85.5473	341.309	84.9234	341.309	84.6387	341.309	83.9975	341.309	83.8653	341.309	83.3296	341.309	83.3062	341.309	83.0291	341.309	83.0419	341.309	83.1263	341.309	83.1253	341.309	83.5502	341.309	83.537	341.309	84.1683	341.309	84.1716	341.309	84.8421	341.309	84.8772	341.309	85.4561	341.309	85.5113	341.309	85.9231	341.309	85.9722	341.309	86.1836	341.309	86.203
353.027	90.2374	353.027	90.1741	353.027	90.0604	353.027	89.875	353.027	89.6554	353.027	89.3594	353.027	89.0524	353.027	88.6603	353.027	88.2971	353.027	87.8225	353.027	87.4462	353.027	86.9007	353.027	86.558	353.027	85.9566	353.027	85.6807	353.027	85.0543	353.027	84.8436	353.027	84.2568	353.027	84.0622	353.027	83.6256	353.027	83.3673	353.027	83.2247	353.027	82.85	353.027	83.1172	353.027	82.6729	353.027	83.3355	353.027	82.9589	353.027	83.8331	353.027	83.6292	353.027	84.4755	353.027	84.4348	353.027	85.0922	353.027	85.1341	353.027	85.5378	353.027	85.5813	353.027	85.7162
366.211	90.4194	366.211	90.2738	366.211	90.2737	366.211	89.8482	366.211	89.8514	366.211	89.1783	366.211	89.192	366.211	88.3187	366.211	88.3546	366.211	87.3375	366.211	87.411	366.211	86.311	366.211	86.4394	366.211	85.3195	366.211	85.5193	366.211	84.4409	366.211	84.7271	366.211	83.742	366.211	84.1208	366.211	83.268	366.211	83.7189	366.211	83.0348	366.211	83.4917	366.211	83.0268	366.211	83.3902	366.211	83.2014	366.211	83.3903	366.211	83.5001	366.211	83.5059	366.211	83.8549	366.211	83.745	366.211	84.187	366.211	84.0556	366.211	84.4124	366.211	84.3303	366.211	84.4657
379.395	90.0743	379.395	89.966	379.395	89.9143	379.395	89.5938	379.395	89.4945	379.395	88.9763	379.395	88.8369	379.395	88.1487	379.395	87.9797	379.395	87.1651	379.395	86.9795	379.395	86.0989	379.395	85.9114	379.395	85.0367	379.395	84.8623	379.395	84.0639	379.395	83.9219	379.395	83.2478	379.395	83.1775	379.395	82.6337	379.395	82.7112	379.395	82.2664	379.395	82.5813	379.395	82.2111	379.395	82.7815	379.395	82.5131	379.395	83.2239	379.395	83.1106	379.395	83.7804	379.395	83.8286	379.395	84.3337	379.395	84.4781	379.395	84.7908	379.395	84.9323	379.395	85.0764	379.395	85.1337
392.578	90.176	392.578	89.9853	392.578	90.0832	392.578	89.5189	392.578	89.7138	392.578	88.8045	392.578	89.087	392.578	87.8949	392.578	88.2346	392.578	86.8719	392.578	87.2075	392.578	85.8428	392.578	86.0868	392.578	84.9241	392.578	84.9955	392.578	84.2083	392.578	84.0902	392.578	83.728	392.578	83.5134	392.578	83.4443	392.578	83.3197	392.578	83.2817	392.578	83.446	392.578	83.1919	392.578	83.7647	392.578	83.1997	392.578	84.1585	392.578	83.3829	392.578	84.5512	392.578	83.7759	392.578	84.8933	392.578	84.294	392.578	85.1362	392.578	84.7811	392.578	85.2242	392.578	85.1094
405.762	90.293	405.762	90.1231	405.762	90.1104	405.762	89.5976	405.762	89.6057	405.762	88.7409	405.762	88.8339	405.762	87.6078	405.762	87.8664	405.762	86.2896	405.762	86.7764	405.762	84.9212	405.762	85.6269	405.762	83.681	405.762	84.4731	405.762	82.7627	405.762	83.3858	405.762	82.3003	405.762	82.4867	405.762	82.2873	405.762	81.95	405.762	82.5784	405.762	81.9016	405.762	82.9852	405.762	82.286	405.762	83.3733	405.762	82.9031	405.762	83.6998	405.762	83.5556	405.762	83.9893	405.762	84.1151	405.762	84.2715	405.762	84.5088	405.762	84.5283	405.762	84.7018	405.762	84.6949
420.41	90.3488	420.41	90.2742	420.41	90.0475	420.41	89.8428	420.41	89.3752	420.41	89.0903	420.41	88.3713	420.41	88.0634	420.41	87.1224	420.41	86.8192	420.41	85.7707	420.41	85.4322	420.41	84.4976	420.41	84.0169	420.41	83.4635	420.41	82.7598	420.41	82.7378	420.41	81.9153	420.41	82.2993	420.41	81.6771	420.41	82.1033	420.41	81.9992	420.41	82.1253	420.41	82.6366	420.41	82.3442	420.41	83.345	420.41	82.712	420.41	83.9767	420.41	83.1624	420.41	84.4605	420.41	83.6395	420.41	84.7628	420.41	84.1008	420.41	84.8662	420.41	84.4974	420.41	84.7695
435.059	90.8775	435.059	90.8013	435.059	90.577	435.059	90.3531	435.059	89.9118	435.059	89.5499	435.059	88.916	435.059	88.4199	435.059	87.6522	435.059	87.0071	435.059	86.214	435.059	85.3853	435.059	84.72	435.059	83.6756	435.059	83.2933	435.059	82.0561	435.059	82.0429	435.059	80.7505	435.059	81.0825	435.059	80.0067	435.059	80.5838	435.059	80.0526	435.059	80.7578	435.059	80.9288	435.059	81.6504	435.059	82.3438	435.059	82.9976	435.059	83.8689	435.059	84.4179	435.059	85.204	435.059	85.6375	435.059	86.215	435.059	86.5215	435.059	86.8613	435.059	87.0221	435.059	87.1329
451.172	90.9913	451.172	90.7686	451.172	90.7984	451.172	90.1346	451.172	90.2055	451.172	89.123	451.172	89.2424	451.172	87.8064	451.172	87.9537	451.172	86.299	451.172	86.4057	451.172	84.7418	451.172	84.7052	451.172	83.2757	451.172	83.0236	451.172	82.0235	451.172	81.6105	451.172	81.0959	451.172	80.7308	451.172	80.5835	451.172	80.4919	451.172	80.4951	451.172	80.7489	451.172	80.7234	451.172	81.2546	451.172	81.1272	451.172	81.8281	451.172	81.6213	451.172	82.378	451.172	82.1641	451.172	82.8558	451.172	82.6963	451.172	83.2156	451.172	83.1283	451.172	83.404	451.172	83.3778
465.82	90.983	465.82	90.9182	465.82	90.6651	465.82	90.4612	465.82	89.9911	465.82	89.6178	465.82	89.0055	465.82	88.4086	465.82	87.7662	465.82	86.8726	465.82	86.3399	465.82	85.0787	465.82	84.8014	465.82	83.1537	465.82	83.2482	465.82	81.3243	465.82	81.8214	465.82	79.9365	465.82	80.7099	465.82	79.3315	465.82	80.1077	465.82	79.5832	465.82	80.1253	465.82	80.4534	465.82	80.7116	465.82	81.6199	465.82	81.6658	465.82	82.8241	465.82	82.7418	465.82	83.8851	465.82	83.7428	465.82	84.6861	465.82	84.5447	465.82	85.1621	465.82	85.0751	465.82	85.2898
483.398	90.9207	483.398	90.7183	483.398	90.7137	483.398	90.1201	483.398	90.1065	483.398	89.1592	483.398	89.1333	483.398	87.8865	483.398	87.8504	483.398	86.3688	483.398	86.3292	483.398	84.6902	483.398	84.6524	483.398	82.9523	483.398	82.9239	483.398	81.2729	483.398	81.2911	483.398	79.7806	483.398	79.9546	483.398	78.6277	483.398	79.1492	483.398	78.0665	483.398	79.0864	483.398	78.4312	483.398	79.8161	483.398	79.7189	483.398	81.1069	483.398	81.4307	483.398	82.5744	483.398	83.0672	483.398	83.9022	483.398	84.3675	483.398	84.9046	483.398	85.2249	483.398	85.4864	483.398	85.5998
499.512	90.4369	499.512	90.2063	499.512	90.2276	499.512	89.5677	499.512	89.5549	499.512	88.553	499.512	88.4167	499.512	87.195	499.512	86.8506	499.512	85.539	499.512	84.9545	499.512	83.6686	499.512	82.9041	499.512	81.7368	499.512	80.9543	499.512	79.9835	499.512	79.4184	499.512	78.7218	499.512	78.609	499.512	78.2597	499.512	78.681	499.512	78.7017	499.512	79.4818	499.512	79.8227	499.512	80.6925	499.512	81.2647	499.512	82.0693	499.512	82.7573	499.512	83.4642	499.512	84.1335	499.512	84.7336	499.512	85.2695	499.512	85.721	499.512	86.0582	499.512	86.3032	499.512	86.4172
517.09	89.567	517.09	89.3243	517.09	89.3141	517.09	88.613	517.09	88.5849	517.09	87.4973	517.09	87.4406	517.09	86.0557	517.09	85.9685	517.09	84.3543	517.09	84.256	517.09	82.434	517.09	82.3679	517.09	80.3318	517.09	80.3475	517.09	78.1483	517.09	78.2713	517.09	76.182	517.09	76.4013	517.09	75.1111	517.09	75.4589	517.09	75.6504	517.09	76.2951	517.09	77.4611	517.09	78.4161	517.09	79.5928	517.09	80.6578	517.09	81.5058	517.09	82.4819	517.09	83.0417	517.09	83.8006	517.09	84.1752	517.09	84.6648	517.09	84.8998	517.09	85.1303	517.09	85.2136
536.133	90.5885	536.133	90.3726	536.133	90.269	536.133	89.6211	536.133	89.4449	536.133	88.365	536.133	88.1762	536.133	86.6718	536.133	86.544	536.133	84.6511	536.133	84.636	536.133	82.4534	536.133	82.5464	536.133	80.2511	536.133	80.411	536.133	78.1969	536.133	78.4202	536.133	76.3477	536.133	76.7067	536.133	74.6238	536.133	75.2874	536.133	73.1774	536.133	74.5312	536.133	73.4303	536.133	75.4779	536.133	76.0908	536.133	77.9128	536.133	79.1133	536.133	80.441	536.133	81.4512	536.133	82.4111	536.133	83.0459	536.133	83.711	536.133	84.0204	536.133	84.373	536.133	84.4601
555.176	89.9906	555.176	89.8338	555.176	89.6356	555.176	89.1622	555.176	88.7968	555.176	88.0015	555.176	87.5221	555.176	86.4011	555.176	85.8807	555.176	84.4296	555.176	83.9701	555.176	82.1888	555.176	81.9203	555.176	79.8447	555.176	79.8977	555.176	77.6278	555.176	78.1196	555.176	75.7672	555.176	76.8004	555.176	74.4403	555.176	76.0094	555.176	73.8844	555.176	75.7276	555.176	74.524	555.176	76.1403	555.176	76.409	555.176	77.5065	555.176	78.8191	555.176	79.5211	555.176	81.07	555.176	81.5257	555.176	82.828	555.176	83.0985	555.176	83.9446	555.176	84.0671	555.176	84.3596
574.219	90.024	574.219	89.8106	574.219	89.5701	574.219	88.9186	574.219	88.4891	574.219	87.3885	574.219	86.8536	574.219	85.3492	574.219	84.7776	574.219	83.0237	574.219	82.3791	574.219	80.6235	574.219	79.6863	574.219	78.2035	574.219	76.6367	574.219	75.7352	574.219	73.3656	574.219	73.3905	574.219	70.9425	574.219	71.9336	574.219	71.1442	574.219	72.4931	574.219	73.35	574.219	74.5196	574.219	75.988	574.219	76.8501	574.219	78.5885	574.219	79.2565	574.219	81.0541	574.219	81.6267	574.219	83.1921	574.219	83.6532	574.219	84.7819	574.219	85.0802	574.219	85.6682	574.219	85.7709
594.727	90.8035	594.727	90.607	594.727	90.421	594.727	89.8522	594.727	89.4615	594.727	88.5733	594.727	87.9316	594.727	86.795	594.727	85.8262	594.727	84.5311	594.727	83.1609	594.727	81.8341	594.727	80.0745	594.727	78.894	594.727	76.943	594.727	76.1158	594.727	74.2464	594.727	73.9493	594.727	71.988	594.727	72.4629	594.727	69.5171	594.727	71.5473	594.727	67.3642	594.727	72.1998	594.727	69.8222	594.727	75.0069	594.727	74.0292	594.727	78.1463	594.727	77.3252	594.727	80.6849	594.727	79.9431	594.727	82.532	594.727	82.0314	594.727	83.6543	594.727	83.427	594.727	83.9744
615.234	90.6981	615.234	90.5096	615.234	90.2474	615.234	89.7061	615.234	89.1534	615.234	88.3008	615.234	87.4598	615.234	86.2859	615.234	85.2573	615.234	83.6579	615.234	82.6503	615.234	80.4726	615.234	79.7293	615.234	76.9517	615.234	76.6164	615.234	73.6612	615.234	73.6424	615.234	71.4142	615.234	71.4948	615.234	70.3717	615.234	70.4634	615.234	69.7973	615.234	69.6604	615.234	69.5194	615.234	68.9566	615.234	71.1308	615.234	71.0293	615.234	74.6867	615.234	75.1088	615.234	78.1169	615.234	78.5576	615.234	80.6212	615.234	80.9353	615.234	82.1177	615.234	82.2809	615.234	82.6614
637.207	89.8557	637.207	89.5003	637.207	89.4446	637.207	88.426	637.207	88.2595	637.207	86.732	637.207	86.3475	637.207	84.5649	637.207	83.8214	637.207	82.0592	637.207	80.7921	637.207	79.2808	637.207	77.2918	637.207	76.2539	637.207	73.4649	637.207	73.0152	637.207	69.9445	637.207	69.7233	637.207	67.4803	637.207	66.9606	637.207	65.9401	637.207	66.3146	637.207	66.0464	637.207	68.8996	637.207	69.6055	637.207	72.2282	637.207	73.7769	637.207	74.8401	637.207	76.8806	637.207	77.0023	637.207	79.0937	637.207	79.0669	637.207	80.7371	637.207	80.787	637.207	81.705	637.207	81.7385
659.18	89.898	659.18	89.7046	659.18	89.254	659.18	88.5939	659.18	87.8332	659.18	86.5017	659.18	85.7127	659.18	83.5314	659.18	83.0232	659.18	80.1431	659.18	79.9057	659.18	76.7292	659.18	76.3256	659.18	72.7101	659.18	71.8496	659.18	67.1854	659.18	66.0042	659.18	61.2823	659.18	60.7185	659.18	61.2807	659.18	61.4426	659.18	65.7239	659.18	64.8431	659.18	69.4522	659.18	68.2209	659.18	73.0039	659.18	73.0511	659.18	76.9781	659.18	77.5009	659.18	80.4323	659.18	80.5437	659.18	82.7947	659.18	82.4966	659.18	84.0336	659.18	83.7254	659.18	84.2864
682.617	90.1533	682.617	89.9676	682.617	89.6313	682.617	89.0452	682.617	88.3824	682.617	87.2728	682.617	86.3486	682.617	84.4674	682.617	83.3855	682.617	80.4925	682.617	79.1939	682.617	75.4614	682.617	73.3697	682.617	69.7372	682.617	66.07	682.617	63.1676	682.617	61.3034	682.617	56.3324	682.617	63.1212	682.617	58.1053	682.617	63.1011	682.617	60.774	682.617	52.0413	682.617	61.4351	682.617	63.6216	682.617	67.2629	682.617	71.5638	682.617	73.4627	682.617	76.1273	682.617	77.7767	682.617	79.5102	682.617	80.8475	682.617	81.9266	682.617	82.8236	682.617	83.3235	682.617	83.6452
707.52	89.7439	707.52	89.2776	707.52	89.2313	707.52	87.8678	707.52	87.7179	707.52	85.5963	707.52	85.1564	707.52	82.5238	707.52	81.5266	707.52	78.3629	707.52	76.9569	707.52	71.636	707.52	71.4948	707.52	50.7022	707.52	63.6375	707.52	64.484	707.52	42.0703	707.52	66.7667	707.52	57.5959	707.52	66.5239	707.52	63.2844	707.52	65.3016	707.52	67.0908	707.52	57.6074	707.52	66.7699	707.52	62.5135	707.52	62.2359	707.52	70.3488	707.52	69.7438	707.52	74.3428	707.52	75.9932	707.52	77.4695	707.52	79.5166	707.52	79.7529	707.52	81.0817	707.52	81.0349
732.422	90.0353	732.422	89.7781	732.422	89.3648	732.422	88.5577	732.422	87.7324	732.422	86.2811	732.422	85.1078	732.422	82.902	732.422	81.4399	732.422	78.4296	732.422	76.4061	732.422	72.2237	732.422	68.7661	732.422	59.1335	732.422	43.7543	732.422	62.5723	732.422	63.6306	732.422	65.8024	732.422	66.9346	732.422	66.438	732.422	65.2625	732.422	67.1176	732.422	62.0714	732.422	63.8207	732.422	60.9999	732.422	59.554	732.422	51.6036	732.422	70.38	732.422	69.8466	732.422	76.2599	732.422	75.689	732.422	79.9392	732.422	79.0209	732.422	81.9451	732.422	81.2679	732.422	82.3456
757.324	90.8792	757.324	90.5195	757.324	90.2157	757.324	89.1182	757.324	88.5408	757.324	86.5514	757.324	85.7952	757.324	82.533	757.324	81.6456	757.324	76.7703	757.324	75.275	757.324	69.3682	757.324	63.9816	757.324	63.9849	757.324	58.1061	757.324	67.1011	757.324	67.3564	757.324	69.5636	757.324	70.6897	757.324	70.3522	757.324	71.0435	757.324	70.21	757.324	68.7665	757.324	68.9107	757.324	65.4339	757.324	65.5135	757.324	58.3267	757.324	66.3719	757.324	67.4145	757.324	74.7161	757.324	75.5019	757.324	80.2714	757.324	79.7294	757.324	82.9941	757.324	82.2615	757.324	83.4639
785.156	91.1039	785.156	90.5025	785.156	90.7361	785.156	88.8395	785.156	89.3394	785.156	85.8746	785.156	86.8833	785.156	81.2847	785.156	83.514	785.156	74.2555	785.156	79.1227	785.156	67.477	785.156	72.1039	785.156	71.7588	785.156	54.8172	785.156	73.5581	785.156	65.3596	785.156	73.6922	785.156	66.093	785.156	72.3946	785.156	63.708	785.156	69.1299	785.156	63.5487	785.156	64.1596	785.156	60.4218	785.156	62.0321	785.156	35.7392	785.156	69.0496	785.156	65.7538	785.156	74.6058	785.156	73.7144	785.156	77.8098	785.156	77.7196	785.156	79.4187	785.156	79.4814	785.156	79.9335
811.523	90.8528	811.523	90.3588	811.523	90.1633	811.523	88.7335	811.523	88.2389	811.523	85.8533	811.523	85.013	811.523	81.1443	811.523	80.3966	811.523	72.8886	811.523	75.3441	811.523	52.6117	811.523	73.4531	811.523	70.5857	811.523	73.4933	811.523	74.3333	811.523	72.5459	811.523	75.8141	811.523	68.974	811.523	75.9555	811.523	60.8433	811.523	74.8618	811.523	38.1873	811.523	72.6522	811.523	62.1885	811.523	69.6332	811.523	70.2462	811.523	68.8981	811.523	74.1646	811.523	71.1843	811.523	75.4456	811.523	75.2298	811.523	78.067	811.523	79.0549	811.523	80.8368	811.523	81.142
840.82	91.6144	840.82	90.9899	840.82	90.9796	840.82	89.083	840.82	89.0164	840.82	85.6846	840.82	85.5645	840.82	80.1507	840.82	80.0738	840.82	69.917	840.82	70.0576	840.82	63.5043	840.82	69.3812	840.82	70.2988	840.82	74.5853	840.82	70.6708	840.82	75.7364	840.82	69.889	840.82	74.689	840.82	70.7132	840.82	71.4446	840.82	71.4986	840.82	67.1247	840.82	69.9636	840.82	60.2071	840.82	59.7108	840.82	65.1547	840.82	69.9397	840.82	72.5842	840.82	77.9801	840.82	78.0795	840.82	81.0127	840.82	81.5479	840.82	82.0777	840.82	82.8471	840.82	82.6613
870.117	92.4467	870.117	92.0535	870.117	91.5395	870.117	90.4055	870.117	89.2548	870.117	87.3631	870.117	85.6238	870.117	82.386	870.117	80.5201	870.117	72.7336	870.117	72	870.117	66.3239	870.117	71.6016	870.117	74.3166	870.117	77.3897	870.117	75.0734	870.117	78.9868	870.117	75.3616	870.117	78.9757	870.117	75.5831	870.117	77.4832	870.117	73.5292	870.117	74.0056	870.117	70.5719	870.117	70.1321	870.117	69.1333	870.117	66.3019	870.117	66.8157	870.117	67.8575	870.117	75.2116	870.117	76.3589	870.117	81.8384	870.117	81.7167	870.117	85.2245	870.117	84.8402	870.117	86.0526
900.879	91.7249	900.879	91.3253	900.879	90.7772	900.879	89.4354	900.879	88.4632	900.879	85.7927	900.879	84.3726	900.879	79.8349	900.879	77.0487	900.879	69.5591	900.879	68.1705	900.879	68.9981	900.879	76.2833	900.879	74.2937	900.879	78.4984	900.879	75.5293	900.879	78.3606	900.879	75.0118	900.879	78.5441	900.879	75.8349	900.879	78.2043	900.879	77.2492	900.879	75.3948	900.879	75.6358	900.879	71.5924	900.879	70.8532	900.879	67.6162	900.879	64.5595	900.879	69.047	900.879	72.1365	900.879	75.4145	900.879	78.4045	900.879	79.6916	900.879	81.4432	900.879	82.3182	900.879	82.843
933.105	90.7603	933.105	89.9498	933.105	89.9789	933.105	87.6367	933.105	87.3265	933.105	83.2401	933.105	81.966	933.105	74.1618	933.105	69.3798	933.105	73.4828	933.105	73.7675	933.105	78.4866	933.105	79.034	933.105	79.4752	933.105	81.3597	933.105	79.0499	933.105	82.5357	933.105	78.9019	933.105	82.7404	933.105	77.7873	933.105	81.9893	933.105	72.1835	933.105	80.4345	933.105	68.9375	933.105	77.4526	933.105	70.6316	933.105	72.321	933.105	64.2608	933.105	69.9667	933.105	70.5225	933.105	74.9038	933.105	78.1669	933.105	79.8879	933.105	82.1488	933.105	82.4972	933.105	83.3051
965.332	92.0542	965.332	91.5889	965.332	90.9243	965.332	89.4277	965.332	88.2017	965.332	85.1978	965.332	83.795	965.332	77.4177	965.332	77.3964	965.332	57.6291	965.332	73.3132	965.332	74.5241	965.332	75.6479	965.332	79.418	965.332	78.459	965.332	81.1191	965.332	80.8487	965.332	79.9355	965.332	82.4655	965.332	79.7113	965.332	82.749	965.332	81.4689	965.332	81.1703	965.332	80.3904	965.332	79.5829	965.332	77.1657	965.332	77.0181	965.332	75.9544	965.332	69.5923	965.332	75.8664	965.332	65.2776	965.332	78.2546	965.332	76.8905	965.332	81.3685	965.332	82.0022	965.332	83.0692
1,000.49	91.351	1,000.49	90.9276	1,000.49	89.8866	1,000.49	88.5565	1,000.49	86.3951	1,000.49	83.6614	1,000.49	79.4754	1,000.49	71.7019	1,000.49	60.8855	1,000.49	74.4671	1,000.49	77.2827	1,000.49	79.5406	1,000.49	79.9327	1,000.49	80.6634	1,000.49	80.4337	1,000.49	80.867	1,000.49	80.5583	1,000.49	81.4167	1,000.49	81.2242	1,000.49	81.4783	1,000.49	82.162	1,000.49	80.0786	1,000.49	81.2523	1,000.49	78.9508	1,000.49	76.9033	1,000.49	76.4491	1,000.49	71.287	1,000.49	72.0394	1,000.49	56.7577	1,000.49	62.0014	1,000.49	71.8184	1,000.49	69.9733	1,000.49	77.337	1,000.49	77.5666	1,000.49	79.7446	1,000.49	80.1161
1,035.64	92.2285	1,035.64	91.7672	1,035.64	91.0687	1,035.64	89.4468	1,035.64	87.9968	1,035.64	84.8704	1,035.64	82.3759	1,035.64	77.2033	1,035.64	74.9709	1,035.64	67.1736	1,035.64	77.7881	1,035.64	75.7831	1,035.64	80.2767	1,035.64	79.2887	1,035.64	80.8288	1,035.64	80.5668	1,035.64	81.3348	1,035.64	80.0881	1,035.64	81.1723	1,035.64	80.2001	1,035.64	81.7884	1,035.64	81.4785	1,035.64	82.3577	1,035.64	80.6943	1,035.64	80.7977	1,035.64	78.1959	1,035.64	78.5221	1,035.64	73.289	1,035.64	75.1674	1,035.64	63.5612	1,035.64	73.8669	1,035.64	74.9852	1,035.64	78.4291	1,035.64	81.7025	1,035.64	82.3557	1,035.64	83.6872
1,072.27	90.6301	1,072.27	89.7974	1,072.27	88.9762	1,072.27	86.8592	1,072.27	84.5828	1,072.27	81.9852	1,072.27	75.9936	1,072.27	75.5318	1,072.27	71.2286	1,072.27	77.7985	1,072.27	79.6281	1,072.27	79.9792	1,072.27	82.0815	1,072.27	80.2156	1,072.27	82.1036	1,072.27	80.2297	1,072.27	81.7636	1,072.27	79.9206	1,072.27	82.9296	1,072.27	80.4057	1,072.27	83.4965	1,072.27	79.8565	1,072.27	82.7302	1,072.27	78.5804	1,072.27	80.9542	1,072.27	76.6491	1,072.27	78.0146	1,072.27	71.9148	1,072.27	74.2261	1,072.27	59.0869	1,072.27	67.8574	1,072.27	74.421	1,072.27	74.0002	1,072.27	80.0222	1,072.27	80.8934	1,072.27	82.4241
1,108.89	91.171	1,108.89	90.3812	1,108.89	89.7492	1,108.89	87.0735	1,108.89	85.7105	1,108.89	79.9545	1,108.89	77.3107	1,108.89	76.7837	1,108.89	75.3869	1,108.89	81.4493	1,108.89	80.0277	1,108.89	82.6293	1,108.89	80.4397	1,108.89	81.2521	1,108.89	78.9117	1,108.89	79.5252	1,108.89	77.9963	1,108.89	78.3356	1,108.89	79.7356	1,108.89	77.0878	1,108.89	81.5463	1,108.89	78.9971	1,108.89	82.2978	1,108.89	79.7781	1,108.89	80.2953	1,108.89	78.2721	1,108.89	78.475	1,108.89	74.5452	1,108.89	75.4017	1,108.89	67.2506	1,108.89	65.0797	1,108.89	69.9537	1,108.89	70.5445	1,108.89	79.2616	1,108.89	79.3333	1,108.89	81.5723
1,148.44	90.4026	1,148.44	89.0145	1,148.44	89.3546	1,148.44	84.7528	1,148.44	85.2052	1,148.44	74.5219	1,148.44	74.0983	1,148.44	74.3242	1,148.44	75.1464	1,148.44	80.4345	1,148.44	81.7898	1,148.44	82.4284	1,148.44	83.0912	1,148.44	82.5834	1,148.44	82.4228	1,148.44	81.2935	1,148.44	79.6063	1,148.44	78.2417	1,148.44	77.4202	1,148.44	77.4951	1,148.44	80.6345	1,148.44	80.1599	1,148.44	82.5397	1,148.44	80.6887	1,148.44	81.3068	1,148.44	80.0163	1,148.44	78.6193	1,148.44	74.8284	1,148.44	76.9202	1,148.44	68.745	1,148.44	72.2609	1,148.44	76.2931	1,148.44	74.1816	1,148.44	81.9653	1,148.44	82.1163	1,148.44	83.9587
1,189.45	91.6337	1,189.45	90.2732	1,189.45	90.1636	1,189.45	85.5885	1,189.45	85.7626	1,189.45	73.7588	1,189.45	75.7879	1,189.45	77.8109	1,189.45	78.7871	1,189.45	83.8001	1,189.45	83.6297	1,189.45	84.8349	1,189.45	84.1621	1,189.45	84.3761	1,189.45	84.2238	1,189.45	83.2947	1,189.45	83.6471	1,189.45	81.802	1,189.45	81.3894	1,189.45	79.0201	1,189.45	77.2028	1,189.45	78.0194	1,189.45	75.2126	1,189.45	78.61	1,189.45	78.0807	1,189.45	79.2463	1,189.45	77.8188	1,189.45	79.3665	1,189.45	76.6787	1,189.45	78.3321	1,189.45	74.5226	1,189.45	74.2824	1,189.45	69.002	1,189.45	74.584	1,189.45	70.0428	1,189.45	75.1065
1,230.47	92.2936	1,230.47	91.1038	1,230.47	90.929	1,230.47	86.8075	1,230.47	86.074	1,230.47	75.6216	1,230.47	74.2619	1,230.47	76.1487	1,230.47	78.6066	1,230.47	82.8419	1,230.47	82.9665	1,230.47	84.4693	1,230.47	83.5714	1,230.47	84.2978	1,230.47	82.7509	1,230.47	82.3225	1,230.47	81.0218	1,230.47	81.1486	1,230.47	77.7536	1,230.47	80.3638	1,230.47	77.8595	1,230.47	80.7153	1,230.47	78.164	1,230.47	79.5256	1,230.47	76.9055	1,230.47	78.3436	1,230.47	78.0753	1,230.47	75.9645	1,230.47	76.9593	1,230.47	73.0891	1,230.47	74.9551	1,230.47	67.5022	1,230.47	65.3887	1,230.47	78.1625	1,230.47	78.5329	1,230.47	80.8076
1,274.41	92.5281	1,274.41	91.4051	1,274.41	90.5733	1,274.41	86.4924	1,274.41	85.0069	1,274.41	70.0801	1,274.41	74.5533	1,274.41	80.1717	1,274.41	82.1527	1,274.41	84.4005	1,274.41	85.3209	1,274.41	85.3443	1,274.41	85.4666	1,274.41	84.5914	1,274.41	84.6191	1,274.41	82.4597	1,274.41	83.9606	1,274.41	80.9336	1,274.41	82.3249	1,274.41	80.8087	1,274.41	78.9831	1,274.41	79.753	1,274.41	79.2556	1,274.41	79.1617	1,274.41	80.1731	1,274.41	78.9565	1,274.41	78.1882	1,274.41	76.8161	1,274.41	75.3052	1,274.41	75.9416	1,274.41	64.9982	1,274.41	70.073	1,274.41	67.8013	1,274.41	72.922	1,274.41	77.4706	1,274.41	78.6767
1,319.82	92.7649	1,319.82	91.9176	1,319.82	90.5245	1,319.82	87.7131	1,319.82	83.8902	1,319.82	76.0638	1,319.82	72.174	1,319.82	78.2851	1,319.82	83.6858	1,319.82	83.9915	1,319.82	86.1789	1,319.82	85.0105	1,319.82	85.675	1,319.82	83.9606	1,319.82	84.0184	1,319.82	82.2946	1,319.82	83.0854	1,319.82	80.6519	1,319.82	81.2696	1,319.82	78.8736	1,319.82	80.2558	1,319.82	78.919	1,319.82	78.4131	1,319.82	80.3071	1,319.82	79.7764	1,319.82	79.9856	1,319.82	79.5777	1,319.82	78.0162	1,319.82	75.7138	1,319.82	76.8921	1,319.82	74.4968	1,319.82	73.8043	1,319.82	70.2369	1,319.82	66.1916	1,319.82	75.8962	1,319.82	75.9898
1,366.7	92.538	1,366.7	91.6687	1,366.7	90.0356	1,366.7	87.0042	1,366.7	83.1665	1,366.7	74.9497	1,366.7	75.9737	1,366.7	79.9691	1,366.7	83.7763	1,366.7	84.1944	1,366.7	84.9291	1,366.7	84.5192	1,366.7	84.5446	1,366.7	83.9642	1,366.7	83.6879	1,366.7	82.376	1,366.7	81.6457	1,366.7	79.4544	1,366.7	79.9803	1,366.7	78.2738	1,366.7	77.6623	1,366.7	75.0562	1,366.7	76.93	1,366.7	74.5691	1,366.7	78.0365	1,366.7	78.7672	1,366.7	80.4201	1,366.7	78.5744	1,366.7	79.4853	1,366.7	76.7004	1,366.7	75.7219	1,366.7	72.1396	1,366.7	67.1668	1,366.7	64.5371	1,366.7	75.8596	1,366.7	77.5878
1,413.57	92.2067	1,413.57	91.4849	1,413.57	89.505	1,413.57	86.2485	1,413.57	81.0824	1,413.57	71.1051	1,413.57	75.648	1,413.57	83.1635	1,413.57	83.6458	1,413.57	86.0327	1,413.57	84.7186	1,413.57	86.23	1,413.57	83.1772	1,413.57	85.2565	1,413.57	80.5174	1,413.57	83.175	1,413.57	79.329	1,413.57	81.4889	1,413.57	78.9352	1,413.57	81.1546	1,413.57	80.2238	1,413.57	79.6493	1,413.57	76.995	1,413.57	77.955	1,413.57	76.5291	1,413.57	74.7935	1,413.57	75.0013	1,413.57	76.7803	1,413.57	71.7788	1,413.57	75.9682	1,413.57	64.2128	1,413.57	73.4685	1,413.57	68.5637	1,413.57	72.9671	1,413.57	76.9408	1,413.57	78.2245
1,463.38	92.1537	1,463.38	90.7778	1,463.38	90.0974	1,463.38	84.316	1,463.38	82.3469	1,463.38	73.3119	1,463.38	72.9214	1,463.38	83.5288	1,463.38	82.6772	1,463.38	85.0483	1,463.38	83.4075	1,463.38	84.9465	1,463.38	81.5229	1,463.38	82.7504	1,463.38	80.3673	1,463.38	79.5699	1,463.38	75.9624	1,463.38	78.2682	1,463.38	73.4833	1,463.38	77.3357	1,463.38	77.2696	1,463.38	77.5794	1,463.38	78.4956	1,463.38	77.1168	1,463.38	72.9529	1,463.38	73.6643	1,463.38	71.1469	1,463.38	75.1312	1,463.38	73.8384	1,463.38	76.4536	1,463.38	68.5724	1,463.38	74.7218	1,463.38	52.6753	1,463.38	70.1883	1,463.38	73.1093	1,463.38	74.901
1,516.11	91.5229	1,516.11	89.9915	1,516.11	89.1629	1,516.11	83.4899	1,516.11	81.3377	1,516.11	70.5893	1,516.11	75.9747	1,516.11	82.8222	1,516.11	83.3067	1,516.11	84.7501	1,516.11	83.4007	1,516.11	83.4632	1,516.11	82.3392	1,516.11	80.0984	1,516.11	78.1378	1,516.11	77.3579	1,516.11	76.2442	1,516.11	74.9533	1,516.11	75.7553	1,516.11	77.5781	1,516.11	77.261	1,516.11	79.344	1,516.11	76.6694	1,516.11	77.3613	1,516.11	75.7755	1,516.11	75.6055	1,516.11	72.3336	1,516.11	72.9176	1,516.11	71.6434	1,516.11	73.6435	1,516.11	72.8631	1,516.11	72.6018	1,516.11	65.3794	1,516.11	68.9673	1,516.11	70.1427	1,516.11	73.1119
1,568.85	90.988	1,568.85	89.4024	1,568.85	89.2088	1,568.85	81.6015	1,568.85	81.4069	1,568.85	72.8975	1,568.85	71.4814	1,568.85	82.8427	1,568.85	81.4996	1,568.85	83.5796	1,568.85	82.5863	1,568.85	80.8164	1,568.85	81.6976	1,568.85	78.7744	1,568.85	79.8708	1,568.85	77.5574	1,568.85	76.5926	1,568.85	74.8445	1,568.85	72.1483	1,568.85	73.1542	1,568.85	69.2648	1,568.85	66.5647	1,568.85	74.6049	1,568.85	73.966	1,568.85	73.0688	1,568.85	73.0116	1,568.85	72.2671	1,568.85	74.3245	1,568.85	73.8308	1,568.85	73.1605	1,568.85	70.119	1,568.85	69.7224	1,568.85	54.0696	1,568.85	73.2954	1,568.85	74.481	1,568.85	76.9076
1,624.51	92.0126	1,624.51	90.13	1,624.51	89.8066	1,624.51	83.5555	1,624.51	82.4072	1,624.51	66.7563	1,624.51	70.5115	1,624.51	80.0922	1,624.51	81.2831	1,624.51	80.976	1,624.51	82.6174	1,624.51	80.2262	1,624.51	82.2552	1,624.51	77.7322	1,624.51	80.058	1,624.51	73.4904	1,624.51	77.1279	1,624.51	68.0364	1,624.51	74.4563	1,624.51	64.6756	1,624.51	71.4463	1,624.51	69.1711	1,624.51	72.4557	1,624.51	69.5892	1,624.51	74.2345	1,624.51	71.2912	1,624.51	71.9484	1,624.51	71.0165	1,624.51	72.1655	1,624.51	54.2558	1,624.51	70.9271	1,624.51	67.6853	1,624.51	66.5609	1,624.51	72.1451	1,624.51	70.2713	1,624.51	74.5069
1,681.64	91.9905	1,681.64	90.4798	1,681.64	89.1304	1,681.64	84.8319	1,681.64	81.1217	1,681.64	60.6338	1,681.64	72.2299	1,681.64	79.9116	1,681.64	82.5907	1,681.64	81.5606	1,681.64	82.3885	1,681.64	79.0445	1,681.64	79.337	1,681.64	75.7097	1,681.64	76.6081	1,681.64	73.0088	1,681.64	73.7	1,681.64	73.2675	1,681.64	72.0511	1,681.64	69.9559	1,681.64	72.9811	1,681.64	65.9738	1,681.64	73.4385	1,681.64	68.6211	1,681.64	72.5961	1,681.64	72.7609	1,681.64	74.636	1,681.64	72.9312	1,681.64	66.9983	1,681.64	60.7318	1,681.64	60.5114	1,681.64	68.0189	1,681.64	70.6048	1,681.64	73.5825	1,681.64	74.5745	1,681.64	77.4057
1,741.7	92.0886	1,741.7	91.2502	1,741.7	88.9251	1,741.7	85.452	1,741.7	80.874	1,741.7	71.435	1,741.7	76.6461	1,741.7	82.0998	1,741.7	83.0918	1,741.7	82.6178	1,741.7	81.9672	1,741.7	80.6826	1,741.7	79.397	1,741.7	77.5186	1,741.7	76.4831	1,741.7	75.3833	1,741.7	76.0448	1,741.7	76.1188	1,741.7	73.0828	1,741.7	75.0559	1,741.7	67.3534	1,741.7	65.9205	1,741.7	64.2316	1,741.7	69.7682	1,741.7	75.2214	1,741.7	69.9303	1,741.7	74.1106	1,741.7	70.35	1,741.7	72.5353	1,741.7	68.8856	1,741.7	63.6913	1,741.7	55.4334	1,741.7	66.0817	1,741.7	72.6383	1,741.7	74.2858	1,741.7	75.3406
1,803.22	92.3609	1,803.22	91.1441	1,803.22	89.5563	1,803.22	85.8804	1,803.22	81.1418	1,803.22	75.6238	1,803.22	72.0427	1,803.22	81.939	1,803.22	80.2317	1,803.22	81.8333	1,803.22	79.4697	1,803.22	80.022	1,803.22	76.8351	1,803.22	75.6802	1,803.22	74.0593	1,803.22	72.8286	1,803.22	74.9264	1,803.22	72.9147	1,803.22	71.8061	1,803.22	73.38	1,803.22	67.0643	1,803.22	72.9268	1,803.22	64.4735	1,803.22	69.7662	1,803.22	70.172	1,803.22	69.5191	1,803.22	64.5852	1,803.22	73.1518	1,803.22	69.5672	1,803.22	70.0525	1,803.22	62.4916	1,803.22	52.1288	1,803.22	66.8086	1,803.22	61.7564	1,803.22	73.6913	1,803.22	75.4764
1,866.21	91.3496	1,866.21	89.8731	1,866.21	88.6248	1,866.21	84.5153	1,866.21	79.1906	1,866.21	77.9201	1,866.21	74.9249	1,866.21	79.8406	1,866.21	79.0882	1,866.21	80.4561	1,866.21	76.9908	1,866.21	77.5429	1,866.21	74.9826	1,866.21	73.6273	1,866.21	72.7589	1,866.21	70.9761	1,866.21	72.6227	1,866.21	69.2204	1,866.21	72.1855	1,866.21	72.4397	1,866.21	75.3636	1,866.21	71.5394	1,866.21	70.3567	1,866.21	73.6833	1,866.21	71.0538	1,866.21	75.4619	1,866.21	72.6962	1,866.21	69.6799	1,866.21	75.3555	1,866.21	69.8657	1,866.21	71.8427	1,866.21	62.9125	1,866.21	64.1715	1,866.21	69.5279	1,866.21	73.5221	1,866.21	75.7722
1,932.13	91.2175	1,932.13	89.2217	1,932.13	89.078	1,932.13	81.872	1,932.13	81.3031	1,932.13	78.6533	1,932.13	77.9767	1,932.13	80.8573	1,932.13	79.356	1,932.13	78.826	1,932.13	78.7301	1,932.13	76.5	1,932.13	77.6258	1,932.13	77.6264	1,932.13	75.1345	1,932.13	74.1036	1,932.13	71.4352	1,932.13	73.3538	1,932.13	70.6873	1,932.13	71.3932	1,932.13	72.635	1,932.13	71.396	1,932.13	72.5846	1,932.13	73.066	1,932.13	70.429	1,932.13	75.07	1,932.13	68.8786	1,932.13	76.4741	1,932.13	73.3521	1,932.13	75.5423	1,932.13	78.2041	1,932.13	62.0574	1,932.13	67.8494	1,932.13	70.6819	1,932.13	73.5075	1,932.13	77.8275
1,999.51	92.3953	1,999.51	90.4217	1,999.51	90.0392	1,999.51	82.4744	1,999.51	81.7523	1,999.51	74.1704	1,999.51	78.5497	1,999.51	80.126	1,999.51	80.9227	1,999.51	79.4536	1,999.51	79.1622	1,999.51	77.2495	1,999.51	77.4795	1,999.51	77.0222	1,999.51	77.0573	1,999.51	76.9752	1,999.51	76.8957	1,999.51	76.3908	1,999.51	76.3461	1,999.51	73.4803	1,999.51	74.9502	1,999.51	70.5061	1,999.51	73.0551	1,999.51	71.3501	1,999.51	74.4444	1,999.51	74.0056	1,999.51	74.2406	1,999.51	72.2959	1,999.51	73.675	1,999.51	72.066	1,999.51	71.4435	1,999.51	62.6263	1,999.51	53.8952	1,999.51	64.5397	1,999.51	69.3189	1,999.51	73.6897
2,069.82	92.6015	2,069.82	91.2201	2,069.82	89.7352	2,069.82	84.5099	2,069.82	81.9566	2,069.82	75.9891	2,069.82	80.2158	2,069.82	80.6579	2,069.82	81.5609	2,069.82	80.7772	2,069.82	80.4049	2,069.82	79.8029	2,069.82	79.6526	2,069.82	79.4915	2,069.82	79.3866	2,069.82	78.0728	2,069.82	78.6431	2,069.82	76.8006	2,069.82	77.5632	2,069.82	75.998	2,069.82	76.9749	2,069.82	72.2014	2,069.82	73.8315	2,069.82	71.3771	2,069.82	74.1351	2,069.82	73.8754	2,069.82	76.1793	2,069.82	71.33	2,069.82	72.9922	2,069.82	72.1235	2,069.82	70.4615	2,069.82	57.6187	2,069.82	64.5603	2,069.82	58.7473	2,069.82	68.8558	2,069.82	74.5437
2,143.07	92.1663	2,143.07	90.9786	2,143.07	89.109	2,143.07	85.3384	2,143.07	80.9094	2,143.07	77.8218	2,143.07	80.7887	2,143.07	81.7281	2,143.07	82.0876	2,143.07	82.0495	2,143.07	81.9556	2,143.07	82.1495	2,143.07	81.6371	2,143.07	81.8339	2,143.07	80.4954	2,143.07	79.8226	2,143.07	77.8852	2,143.07	78.9134	2,143.07	77.6433	2,143.07	76.448	2,143.07	75.808	2,143.07	74.5583	2,143.07	74.4315	2,143.07	72.0175	2,143.07	74.2889	2,143.07	75.7008	2,143.07	75.7175	2,143.07	72.6543	2,143.07	71.6884	2,143.07	71.7691	2,143.07	70.6568	2,143.07	63.0589	2,143.07	61.1647	2,143.07	61.0757	2,143.07	71.7564	2,143.07	72.5408
2,219.24	91.1446	2,219.24	89.7958	2,219.24	88.2509	2,219.24	83.7472	2,219.24	79.1848	2,219.24	79.6984	2,219.24	79.6575	2,219.24	81.5657	2,219.24	82.2396	2,219.24	81.6328	2,219.24	82.2188	2,219.24	82.0648	2,219.24	82.1616	2,219.24	82.4718	2,219.24	81.1243	2,219.24	79.7747	2,219.24	78.0119	2,219.24	78.529	2,219.24	76.295	2,219.24	77.911	2,219.24	74.958	2,219.24	75.9166	2,219.24	73.8792	2,219.24	75.9032	2,219.24	71.9018	2,219.24	76.1582	2,219.24	74.6661	2,219.24	75.1721	2,219.24	71.5399	2,219.24	71.4851	2,219.24	70.0712	2,219.24	59.404	2,219.24	60.7246	2,219.24	63.1559	2,219.24	68.7887	2,219.24	69.9904
2,296.88	90.131	2,296.88	88.3033	2,296.88	87.9698	2,296.88	81.4322	2,296.88	80.377	2,296.88	76.818	2,296.88	77.4879	2,296.88	81.3519	2,296.88	80.8555	2,296.88	82.0619	2,296.88	82.2886	2,296.88	83.3481	2,296.88	82.6902	2,296.88	82.5734	2,296.88	82.1634	2,296.88	81.3714	2,296.88	79.364	2,296.88	78.205	2,296.88	77.7266	2,296.88	77.5384	2,296.88	76.4458	2,296.88	76.8818	2,296.88	74.6993	2,296.88	74.5076	2,296.88	72.9946	2,296.88	77.0346	2,296.88	75.5959	2,296.88	77.0844	2,296.88	73.4209	2,296.88	72.6869	2,296.88	68.7907	2,296.88	57.2612	2,296.88	64.6753	2,296.88	64.2736	2,296.88	60.7192	2,296.88	70.9865
2,378.91	90.7363	2,378.91	89.185	2,378.91	89.0867	2,378.91	82.8303	2,378.91	83.0416	2,378.91	74.9589	2,378.91	78.298	2,378.91	81.3311	2,378.91	82.542	2,378.91	83.6995	2,378.91	84.6031	2,378.91	84.2793	2,378.91	84.5457	2,378.91	83.1232	2,378.91	83.3387	2,378.91	80.2722	2,378.91	81.4258	2,378.91	76.7848	2,378.91	77.6269	2,378.91	74.6951	2,378.91	76.788	2,378.91	74.9426	2,378.91	76.6402	2,378.91	73.1777	2,378.91	75.4635	2,378.91	74.0798	2,378.91	77.0377	2,378.91	75.8709	2,378.91	75.3843	2,378.91	69.3444	2,378.91	71.3837	2,378.91	48.3619	2,378.91	60.3027	2,378.91	68.1028	2,378.91	68.1296	2,378.91	70.481
2,462.4	90.9514	2,462.4	89.7944	2,462.4	89.292	2,462.4	85.5093	2,462.4	83.5301	2,462.4	77.4592	2,462.4	79.999	2,462.4	82.5544	2,462.4	83.9692	2,462.4	85.1078	2,462.4	85.7796	2,462.4	85.6321	2,462.4	85.1141	2,462.4	83.331	2,462.4	83.4873	2,462.4	81.541	2,462.4	80.7515	2,462.4	77.4656	2,462.4	77.8375	2,462.4	75.5105	2,462.4	75.2254	2,462.4	74.5018	2,462.4	74.7274	2,462.4	73.9947	2,462.4	76.9882	2,462.4	71.5519	2,462.4	76.0082	2,462.4	75.773	2,462.4	76.1454	2,462.4	67.7568	2,462.4	70.3974	2,462.4	60.1509	2,462.4	62.9967	2,462.4	68.7286	2,462.4	70.0669	2,462.4	69.74
2,548.83	90.302	2,548.83	89.4642	2,548.83	88.9726	2,548.83	86.0485	2,548.83	83.5653	2,548.83	79.3906	2,548.83	79.5017	2,548.83	82.7248	2,548.83	83.4215	2,548.83	85.3298	2,548.83	85.6405	2,548.83	85.5677	2,548.83	84.417	2,548.83	83.718	2,548.83	81.7366	2,548.83	81.7764	2,548.83	78.8286	2,548.83	78.3711	2,548.83	76.8284	2,548.83	76.314	2,548.83	74.5889	2,548.83	74.9134	2,548.83	72.5016	2,548.83	74.3953	2,548.83	75.2458	2,548.83	72.9091	2,548.83	72.9943	2,548.83	75.2557	2,548.83	75.1924	2,548.83	72.6632	2,548.83	66.8248	2,548.83	69.0654	2,548.83	63.1092	2,548.83	66.1806	2,548.83	71.0295	2,548.83	68.1865
2,639.65	88.896	2,639.65	88.4951	2,639.65	88.0043	2,639.65	85.8443	2,639.65	84.021	2,639.65	81.1037	2,639.65	79.2727	2,639.65	81.8614	2,639.65	82.899	2,639.65	84.6273	2,639.65	84.8876	2,639.65	85.0381	2,639.65	84.5711	2,639.65	83.7226	2,639.65	82.1777	2,639.65	79.2796	2,639.65	78.7985	2,639.65	77.5246	2,639.65	74.6034	2,639.65	76.3373	2,639.65	74.7964	2,639.65	76.3374	2,639.65	74.1071	2,639.65	76.7556	2,639.65	74.5557	2,639.65	75.6539	2,639.65	73.3975	2,639.65	74.9906	2,639.65	75.327	2,639.65	69.7919	2,639.65	62.2608	2,639.65	67.3437	2,639.65	56.1005	2,639.65	70.4216	2,639.65	65.7734	2,639.65	69.6133
2,731.93	88.8047	2,731.93	88.2912	2,731.93	87.4895	2,731.93	85.5956	2,731.93	84.7284	2,731.93	80.8095	2,731.93	80.1559	2,731.93	81.8037	2,731.93	83.2157	2,731.93	85.3811	2,731.93	84.8944	2,731.93	84.3981	2,731.93	85.1747	2,731.93	83.4159	2,731.93	83.2197	2,731.93	79.5748	2,731.93	80.3263	2,731.93	76.2397	2,731.93	76.3491	2,731.93	74.1922	2,731.93	75.634	2,731.93	75.4082	2,731.93	76.1662	2,731.93	74.934	2,731.93	74.667	2,731.93	76.8993	2,731.93	76.7215	2,731.93	74.6204	2,731.93	74.1753	2,731.93	68.0425	2,731.93	64.3673	2,731.93	58.2152	2,731.93	59.0135	2,731.93	66.3046	2,731.93	68.6612	2,731.93	66.6565
2,828.61	89.1961	2,828.61	88.6765	2,828.61	88.7654	2,828.61	86.5566	2,828.61	85.0041	2,828.61	82.2541	2,828.61	81.8581	2,828.61	82.9253	2,828.61	83.458	2,828.61	85.336	2,828.61	85.7063	2,828.61	85.5405	2,828.61	85.0232	2,828.61	83.3283	2,828.61	84.2454	2,828.61	80.5793	2,828.61	81.1802	2,828.61	77.6371	2,828.61	77.8494	2,828.61	75.5784	2,828.61	75.7476	2,828.61	74.0594	2,828.61	75.8631	2,828.61	75.2791	2,828.61	75.3914	2,828.61	76.5077	2,828.61	77.181	2,828.61	73.5906	2,828.61	74.4186	2,828.61	68.2941	2,828.61	58.141	2,828.61	65.1621	2,828.61	64.2987	2,828.61	70.5284	2,828.61	68.0932	2,828.61	63.3429
2,928.22	90.0808	2,928.22	89.223	2,928.22	88.958	2,928.22	86.9538	2,928.22	86.1173	2,928.22	84.3332	2,928.22	84.1605	2,928.22	84.4789	2,928.22	85.3246	2,928.22	85.7805	2,928.22	86.4705	2,928.22	86.1205	2,928.22	85.3006	2,928.22	83.523	2,928.22	83.5369	2,928.22	82.1009	2,928.22	80.3787	2,928.22	77.6393	2,928.22	79.054	2,928.22	75.5297	2,928.22	75.5458	2,928.22	75.7247	2,928.22	73.3344	2,928.22	74.8607	2,928.22	75.4481	2,928.22	75.4177	2,928.22	76.0251	2,928.22	74.7915	2,928.22	73.3513	2,928.22	66.4299	2,928.22	61.5205	2,928.22	66.0777	2,928.22	66.8228	2,928.22	71.8355	2,928.22	68.6912	2,928.22	57.9268
3,030.76	90.1918	3,030.76	89.0106	3,030.76	87.7478	3,030.76	86.8164	3,030.76	85.954	3,030.76	85.9075	3,030.76	84.7908	3,030.76	85.7547	3,030.76	85.2785	3,030.76	86.3423	3,030.76	86.1831	3,030.76	85.9365	3,030.76	85.1882	3,030.76	83.9884	3,030.76	82.8967	3,030.76	81.668	3,030.76	79.819	3,030.76	78.2696	3,030.76	77.4059	3,030.76	76.1374	3,030.76	74.2154	3,030.76	77.0391	3,030.76	74.8803	3,030.76	75.7017	3,030.76	75.2526	3,030.76	73.9637	3,030.76	74.16	3,030.76	74.5178	3,030.76	73.2863	3,030.76	68.7256	3,030.76	63.5791	3,030.76	63.5987	3,030.76	66.2762	3,030.76	67.2827	3,030.76	68.4561	3,030.76	56.7818
3,137.7	89.5578	3,137.7	88.1925	3,137.7	87.8531	3,137.7	86.5225	3,137.7	85.6476	3,137.7	85.9801	3,137.7	84.9886	3,137.7	85.153	3,137.7	84.1224	3,137.7	85.4567	3,137.7	85.3965	3,137.7	85.3215	3,137.7	85.2389	3,137.7	83.1178	3,137.7	83.0419	3,137.7	81.7745	3,137.7	80.2197	3,137.7	78.9339	3,137.7	77.5322	3,137.7	74.936	3,137.7	74.2993	3,137.7	76.371	3,137.7	76.167	3,137.7	75.7343	3,137.7	75.0327	3,137.7	74.1411	3,137.7	75.2435	3,137.7	74.2359	3,137.7	73.5035	3,137.7	68.3876	3,137.7	64.8205	3,137.7	67.0456	3,137.7	64.8898	3,137.7	68.4359	3,137.7	68.4189	3,137.7	60.4004
3,249.02	89.269	3,249.02	87.901	3,249.02	87.5082	3,249.02	86.7519	3,249.02	86.3647	3,249.02	85.4925	3,249.02	84.7529	3,249.02	82.8629	3,249.02	83.5006	3,249.02	84.6321	3,249.02	85.252	3,249.02	85.3084	3,249.02	85.4367	3,249.02	83.9271	3,249.02	83.1696	3,249.02	81.1888	3,249.02	79.935	3,249.02	77.6861	3,249.02	77.839	3,249.02	74.8507	3,249.02	74.453	3,249.02	75.7395	3,249.02	76.0911	3,249.02	76.0899	3,249.02	75.6374	3,249.02	73.4805	3,249.02	75.0562	3,249.02	73.6751	3,249.02	71.6109	3,249.02	61.6492	3,249.02	59.1855	3,249.02	67.9053	3,249.02	67.6547	3,249.02	67.2554	3,249.02	65.6238	3,249.02	60.8963
3,363.28	89.2595	3,363.28	88.3851	3,363.28	87.6909	3,363.28	87.1632	3,363.28	86.6277	3,363.28	85.8606	3,363.28	84.3679	3,363.28	83.5465	3,363.28	83.8139	3,363.28	85.5861	3,363.28	85.7379	3,363.28	85.6692	3,363.28	85.6772	3,363.28	84.2305	3,363.28	82.7512	3,363.28	80.7706	3,363.28	80.2102	3,363.28	77.3408	3,363.28	76.1018	3,363.28	72.2458	3,363.28	73.3005	3,363.28	73.4317	3,363.28	74.4438	3,363.28	76.2028	3,363.28	75.6491	3,363.28	73.4357	3,363.28	72.5303	3,363.28	73.142	3,363.28	67.085	3,363.28	57.8834	3,363.28	61.9751	3,363.28	70.4053	3,363.28	68.1768	3,363.28	66.866	3,363.28	60.7573	3,363.28	59.8785
3,481.93	89.1543	3,481.93	88.3811	3,481.93	87.4365	3,481.93	86.8189	3,481.93	87.2738	3,481.93	85.6273	3,481.93	85.467	3,481.93	84.1062	3,481.93	84.4944	3,481.93	86.4606	3,481.93	85.7041	3,481.93	86.194	3,481.93	85.6616	3,481.93	84.7082	3,481.93	82.6952	3,481.93	80.5602	3,481.93	79.6678	3,481.93	76.7403	3,481.93	75.5099	3,481.93	73.8053	3,481.93	72.687	3,481.93	71.2372	3,481.93	74.214	3,481.93	73.8522	3,481.93	74.5569	3,481.93	74.5252	3,481.93	71.6966	3,481.93	72.9097	3,481.93	68.8853	3,481.93	56.5583	3,481.93	64.2574	3,481.93	71.0416	3,481.93	70.5458	3,481.93	60.8066	3,481.93	55.353	3,481.93	63.8359
3,604.98	89.0219	3,604.98	88.8016	3,604.98	88.326	3,604.98	86.9132	3,604.98	87.4044	3,604.98	86.3214	3,604.98	86.5484	3,604.98	86.0052	3,604.98	85.5678	3,604.98	86.3299	3,604.98	85.8988	3,604.98	85.553	3,604.98	85.8345	3,604.98	84.3245	3,604.98	83.6134	3,604.98	78.6013	3,604.98	80.0405	3,604.98	76.7287	3,604.98	76.3126	3,604.98	73.7802	3,604.98	74.4927	3,604.98	70.6031	3,604.98	75.9491	3,604.98	74.4983	3,604.98	74.7166	3,604.98	75.1444	3,604.98	73.91	3,604.98	71.859	3,604.98	70.1585	3,604.98	61.4249	3,604.98	65.3202	3,604.98	70.8192	3,604.98	71.5795	3,604.98	58.6288	3,604.98	45.7158	3,604.98	63.6863
3,732.42	89.4612	3,732.42	89.6663	3,732.42	88.3371	3,732.42	87.6467	3,732.42	87.2808	3,732.42	86.8461	3,732.42	86.9404	3,732.42	86.7753	3,732.42	85.4293	3,732.42	85.4743	3,732.42	84.8882	3,732.42	85.3785	3,732.42	85.5392	3,732.42	84.5567	3,732.42	83.2765	3,732.42	79.826	3,732.42	79.646	3,732.42	77.1395	3,732.42	73.6085	3,732.42	72.8707	3,732.42	72.5693	3,732.42	71.644	3,732.42	72.4173	3,732.42	75.6499	3,732.42	75.382	3,732.42	74.9497	3,732.42	74.4318	3,732.42	71.7988	3,732.42	67.566	3,732.42	61.3218	3,732.42	64.7611	3,732.42	70.3462	3,732.42	71.2489	3,732.42	57.5903	3,732.42	55.3914	3,732.42	62.7098
3,864.26	88.5655	3,864.26	89.043	3,864.26	88.0614	3,864.26	87.0178	3,864.26	85.7904	3,864.26	86.8091	3,864.26	86.6394	3,864.26	86.3403	3,864.26	83.4621	3,864.26	83.3202	3,864.26	81.9768	3,864.26	84.0997	3,864.26	84.5197	3,864.26	82.8727	3,864.26	82.107	3,864.26	79.8825	3,864.26	78.5767	3,864.26	76.6082	3,864.26	73.2726	3,864.26	72.4049	3,864.26	70.3843	3,864.26	73.1139	3,864.26	70.8393	3,864.26	75.1575	3,864.26	71.3563	3,864.26	73.8439	3,864.26	70.8745	3,864.26	68.6131	3,864.26	62.9175	3,864.26	62.0307	3,864.26	63.8235	3,864.26	69.0579	3,864.26	70.4926	3,864.26	53.4678	3,864.26	43.7419	3,864.26	65.9869
4,000.49	88.8334	4,000.49	89.0544	4,000.49	88.9299	4,000.49	86.9538	4,000.49	86.2982	4,000.49	87.1413	4,000.49	87.0243	4,000.49	85.0894	4,000.49	84.3342	4,000.49	82.3807	4,000.49	84.0051	4,000.49	83.8071	4,000.49	84.5329	4,000.49	80.6741	4,000.49	82.231	4,000.49	78.8918	4,000.49	78.8783	4,000.49	73.8751	4,000.49	75.1968	4,000.49	72.2286	4,000.49	73.8043	4,000.49	73.0522	4,000.49	71.7972	4,000.49	74.0405	4,000.49	73.1586	4,000.49	74.3097	4,000.49	73.7616	4,000.49	69.1354	4,000.49	64.4534	4,000.49	60.6904	4,000.49	67.9565	4,000.49	69.2754	4,000.49	69.2151	4,000.49	52.0486	4,000.49	56.2918	4,000.49	67.5003
4,141.11	89.9385	4,141.11	89.3061	4,141.11	89.7547	4,141.11	87.5939	4,141.11	87.5168	4,141.11	88.0171	4,141.11	87.4837	4,141.11	85.0743	4,141.11	84.0989	4,141.11	82.809	4,141.11	84.0298	4,141.11	84.9724	4,141.11	84.8398	4,141.11	82.7781	4,141.11	82.5446	4,141.11	81.5715	4,141.11	78.3325	4,141.11	74.7561	4,141.11	73.076	4,141.11	70.6746	4,141.11	70.583	4,141.11	72.8645	4,141.11	72.4148	4,141.11	73.5678	4,141.11	74.1859	4,141.11	74.4303	4,141.11	71.7948	4,141.11	68.0076	4,141.11	61.5604	4,141.11	64.8736	4,141.11	68.3085	4,141.11	69.8068	4,141.11	68.4663	4,141.11	56.8222	4,141.11	63.8271	4,141.11	66.2224
4,287.6	90.4786	4,287.6	88.7445	4,287.6	89.7848	4,287.6	88.3238	4,287.6	88.2867	4,287.6	87.8893	4,287.6	87.7539	4,287.6	83.1693	4,287.6	84.6351	4,287.6	81.6141	4,287.6	84.3217	4,287.6	84.9044	4,287.6	84.7151	4,287.6	83.7786	4,287.6	83.7519	4,287.6	81.3908	4,287.6	79.854	4,287.6	76.3445	4,287.6	75.4706	4,287.6	75.0049	4,287.6	72.6764	4,287.6	72.5981	4,287.6	72.834	4,287.6	73.7044	4,287.6	73.5401	4,287.6	72.8374	4,287.6	69.8518	4,287.6	70.0799	4,287.6	44.9843	4,287.6	66.4803	4,287.6	68.7991	4,287.6	68.8486	4,287.6	69.9191	4,287.6	62.4154	4,287.6	64.9512	4,287.6	65.169
4,438.48	90.33	4,438.48	88.0025	4,438.48	88.1697	4,438.48	88.9735	4,438.48	89.2673	4,438.48	87.5226	4,438.48	87.1377	4,438.48	84.3636	4,438.48	84.0991	4,438.48	81.7638	4,438.48	83.4214	4,438.48	84.339	4,438.48	84.02	4,438.48	83.5459	4,438.48	82.5563	4,438.48	79.3481	4,438.48	79.5806	4,438.48	76.7229	4,438.48	76.5293	4,438.48	71.4802	4,438.48	74.519	4,438.48	70.8606	4,438.48	71.9552	4,438.48	72.4366	4,438.48	74.963	4,438.48	72.0075	4,438.48	70.7918	4,438.48	65.6723	4,438.48	47.3133	4,438.48	62.0168	4,438.48	68.0105	4,438.48	68.1952	4,438.48	69.1567	4,438.48	63.1171	4,438.48	66.8653	4,438.48	65.2489
4,595.21	89.5925	4,595.21	88.5124	4,595.21	86.4227	4,595.21	88.0389	4,595.21	89.2082	4,595.21	86.3534	4,595.21	87.3588	4,595.21	85.8767	4,595.21	84.3006	4,595.21	81.2962	4,595.21	82.6305	4,595.21	84.8565	4,595.21	84.4743	4,595.21	82.9417	4,595.21	83.4331	4,595.21	80.4491	4,595.21	79.3671	4,595.21	77.8241	4,595.21	73.4559	4,595.21	67.5342	4,595.21	68.447	4,595.21	67.901	4,595.21	70.4547	4,595.21	72.0091	4,595.21	72.8017	4,595.21	74.7531	4,595.21	73.3422	4,595.21	62.5269	4,595.21	42.6208	4,595.21	67.171	4,595.21	67.6672	4,595.21	68.2392	4,595.21	66.8801	4,595.21	55.535	4,595.21	63.5254	4,595.21	61.9356
4,756.35	90.505	4,756.35	89.4119	4,756.35	88.6278	4,756.35	88.7554	4,756.35	89.4203	4,756.35	88.6897	4,756.35	89.0797	4,756.35	87.7551	4,756.35	84.6229	4,756.35	81.7063	4,756.35	81.6842	4,756.35	83.9671	4,756.35	84.5852	4,756.35	82.6108	4,756.35	83.7166	4,756.35	79.0703	4,756.35	79.7069	4,756.35	74.7304	4,756.35	71.9511	4,756.35	72.3777	4,756.35	70.8336	4,756.35	66.1159	4,756.35	72.2276	4,756.35	74.0644	4,756.35	71.1706	4,756.35	74.3363	4,756.35	72.2596	4,756.35	69.0804	4,756.35	59.148	4,756.35	66.2114	4,756.35	70.2999	4,756.35	65.4525	4,756.35	64.0567	4,756.35	59.8977	4,756.35	55.0556	4,756.35	52.8701
4,924.8	90.2691	4,924.8	88.6785	4,924.8	89.8665	4,924.8	90.1087	4,924.8	88.1006	4,924.8	89.065	4,924.8	88.2874	4,924.8	87.7191	4,924.8	84.2549	4,924.8	83.5198	4,924.8	78.1634	4,924.8	84.0724	4,924.8	83.5516	4,924.8	83.6592	4,924.8	82.6935	4,924.8	82.0672	4,924.8	78.6577	4,924.8	77.7376	4,924.8	71.8941	4,924.8	74.7196	4,924.8	69.9655	4,924.8	70.2865	4,924.8	71.8678	4,924.8	74.3189	4,924.8	73.1076	4,924.8	73.4396	4,924.8	73.0197	4,924.8	67.453	4,924.8	57.3727	4,924.8	66.1582	4,924.8	69.8841	4,924.8	68.7273	4,924.8	64.722	4,924.8	62.0902	4,924.8	59.9088	4,924.8	51.9652
5,097.66	90.038	5,097.66	88.9622	5,097.66	89.5	5,097.66	89.2875	5,097.66	88.4132	5,097.66	88.3057	5,097.66	86.5883	5,097.66	85.2361	5,097.66	84.5282	5,097.66	79.9393	5,097.66	80.374	5,097.66	80.8137	5,097.66	82.5824	5,097.66	82.5387	5,097.66	81.6256	5,097.66	80.1401	5,097.66	80.0364	5,097.66	75.4329	5,097.66	75.257	5,097.66	69.0769	5,097.66	71.263	5,097.66	72.0158	5,097.66	68.4779	5,097.66	72.7922	5,097.66	72.7993	5,097.66	69.3594	5,097.66	72.3452	5,097.66	69.4778	5,097.66	62.6026	5,097.66	62.1788	5,097.66	69.4342	5,097.66	68.3949	5,097.66	68.0328	5,097.66	59.1922	5,097.66	57.1286	5,097.66	55.6819
5,277.83	89.3592	5,277.83	89.7741	5,277.83	88.2295	5,277.83	88.2567	5,277.83	88.4368	5,277.83	88.4918	5,277.83	86.6738	5,277.83	85.6531	5,277.83	85.777	5,277.83	79.4245	5,277.83	80.4311	5,277.83	83.7881	5,277.83	84.0537	5,277.83	85.3205	5,277.83	82.8447	5,277.83	81.1747	5,277.83	79.7767	5,277.83	76.0881	5,277.83	74.3467	5,277.83	70.9095	5,277.83	69.7686	5,277.83	64.0627	5,277.83	71.7269	5,277.83	73.1165	5,277.83	70.9403	5,277.83	65.6807	5,277.83	72.0076	5,277.83	66.5776	5,277.83	63.9973	5,277.83	68.6364	5,277.83	69.0518	5,277.83	67.8846	5,277.83	67.699	5,277.83	66.1966	5,277.83	62.5326	5,277.83	59.0806
5,463.87	88.3053	5,463.87	89.1109	5,463.87	88.2878	5,463.87	85.472	5,463.87	87.2896	5,463.87	86.4005	5,463.87	88.4727	5,463.87	84.6272	5,463.87	85.4825	5,463.87	79.808	5,463.87	79.8725	5,463.87	84.0676	5,463.87	84.7952	5,463.87	84.6355	5,463.87	83.4585	5,463.87	80.2675	5,463.87	79.5521	5,463.87	77.4402	5,463.87	73.4326	5,463.87	77.3823	5,463.87	71.7155	5,463.87	67.2819	5,463.87	66.5135	5,463.87	71.3181	5,463.87	68.6659	5,463.87	71.7623	5,463.87	70.0327	5,463.87	49.0675	5,463.87	63.6609	5,463.87	68.7693	5,463.87	67.9189	5,463.87	67.8296	5,463.87	64.9613	5,463.87	60.0814	5,463.87	67.1663	5,463.87	59.896
5,657.23	88.482	5,657.23	89.082	5,657.23	90.0816	5,657.23	86.9727	5,657.23	86.4062	5,657.23	88.2166	5,657.23	88.4903	5,657.23	86.9692	5,657.23	85.5896	5,657.23	82.9864	5,657.23	79.6216	5,657.23	80.2759	5,657.23	82.9511	5,657.23	82.133	5,657.23	82.0111	5,657.23	80.8379	5,657.23	80.1553	5,657.23	73.8373	5,657.23	72.3535	5,657.23	76.3451	5,657.23	73.0635	5,657.23	70.0368	5,657.23	70.206	5,657.23	73.5328	5,657.23	69.2337	5,657.23	71.8956	5,657.23	71.6502	5,657.23	58.6554	5,657.23	65.0071	5,657.23	65.2017	5,657.23	68.1941	5,657.23	66.1453	5,657.23	55.941	5,657.23	59.4555	5,657.23	65.2277	5,657.23	61.9343
5,856.45	90.1427	5,856.45	88.8965	5,856.45	89.9723	5,856.45	88.626	5,856.45	89.1622	5,856.45	88.1722	5,856.45	87.5254	5,856.45	87.488	5,856.45	87.0487	5,856.45	83.7589	5,856.45	81.4834	5,856.45	79.9891	5,856.45	82.5387	5,856.45	82.0873	5,856.45	83.0588	5,856.45	81.7072	5,856.45	81.0198	5,856.45	74.9365	5,856.45	74.268	5,856.45	75.9128	5,856.45	73.1516	5,856.45	71.1852	5,856.45	67.1809	5,856.45	70.2001	5,856.45	68.2355	5,856.45	72.3224	5,856.45	71.4954	5,856.45	65.7734	5,856.45	65.3688	5,856.45	58.4536	5,856.45	67.1841	5,856.45	64.2136	5,856.45	64.4562	5,856.45	58.3905	5,856.45	58.7055	5,856.45	62.8289
6,062.99	90.8388	6,062.99	89.0397	6,062.99	88.2537	6,062.99	89.7492	6,062.99	89.9897	6,062.99	88.3444	6,062.99	86.4039	6,062.99	88.2963	6,062.99	87.5332	6,062.99	84.142	6,062.99	81.8305	6,062.99	82.257	6,062.99	82.4253	6,062.99	83.4027	6,062.99	84.4971	6,062.99	82.4653	6,062.99	80.457	6,062.99	78.0134	6,062.99	74.5406	6,062.99	71.7869	6,062.99	73.7516	6,062.99	71.5326	6,062.99	69.8723	6,062.99	69.2787	6,062.99	68.7745	6,062.99	68.5929	6,062.99	71.4522	6,062.99	67.4644	6,062.99	62.8495	6,062.99	60.6118	6,062.99	67.3069	6,062.99	63.8864	6,062.99	66.755	6,062.99	56.6621	6,062.99	58.1728	6,062.99	64.1458
6,276.86	90.8161	6,276.86	88.7049	6,276.86	88.4502	6,276.86	89.0803	6,276.86	89.6026	6,276.86	87.0796	6,276.86	88.6001	6,276.86	86.5048	6,276.86	86.852	6,276.86	83.9474	6,276.86	80.7064	6,276.86	82.1254	6,276.86	81.9589	6,276.86	83.5351	6,276.86	84.7661	6,276.86	81.2138	6,276.86	78.65	6,276.86	77.7548	6,276.86	75.5291	6,276.86	70.7589	6,276.86	73.481	6,276.86	70.6604	6,276.86	66.0346	6,276.86	68.0182	6,276.86	60.7578	6,276.86	65.5272	6,276.86	69.9034	6,276.86	64.4569	6,276.86	60.5904	6,276.86	65.5226	6,276.86	68.443	6,276.86	67.6093	6,276.86	68.6505	6,276.86	57.8946	6,276.86	59.3123	6,276.86	62.4456
6,498.05	90.7023	6,498.05	89.2192	6,498.05	89.8494	6,498.05	89.9661	6,498.05	89.1441	6,498.05	89.0416	6,498.05	89.3194	6,498.05	87.9299	6,498.05	88.1414	6,498.05	85.9096	6,498.05	82.8616	6,498.05	79.258	6,498.05	80.777	6,498.05	84.937	6,498.05	83.902	6,498.05	80.5176	6,498.05	80.2843	6,498.05	76.0479	6,498.05	75.7315	6,498.05	68.058	6,498.05	67.0698	6,498.05	65.294	6,498.05	67.4689	6,498.05	65.9477	6,498.05	67.18	6,498.05	66.9435	6,498.05	69.5068	6,498.05	66.8875	6,498.05	65.336	6,498.05	62.1059	6,498.05	66.5233	6,498.05	62.2537	6,498.05	66.9188	6,498.05	59.4761	6,498.05	62.5583	6,498.05	59.4246
6,726.56	90.2767	6,726.56	88.7506	6,726.56	88.3966	6,726.56	90.0663	6,726.56	89.1514	6,726.56	88.9812	6,726.56	87.7438	6,726.56	88.6747	6,726.56	88.427	6,726.56	84.7378	6,726.56	83.9765	6,726.56	78.4482	6,726.56	80.2782	6,726.56	83.8539	6,726.56	82.938	6,726.56	81.2717	6,726.56	79.197	6,726.56	76.6053	6,726.56	76.3322	6,726.56	72.5041	6,726.56	67.7963	6,726.56	61.9626	6,726.56	59.3122	6,726.56	65.0603	6,726.56	60.434	6,726.56	70.6082	6,726.56	68.1371	6,726.56	66.4146	6,726.56	66.3746	6,726.56	57.8288	6,726.56	62.2021	6,726.56	59.9598	6,726.56	59.7635	6,726.56	62.4357	6,726.56	57.7653	6,726.56	60.2655
6,963.87	90.0908	6,963.87	88.9059	6,963.87	87.4266	6,963.87	90.0629	6,963.87	90.0941	6,963.87	88.9248	6,963.87	87.3702	6,963.87	88.8228	6,963.87	88.4305	6,963.87	84.3902	6,963.87	83.8945	6,963.87	79.26	6,963.87	80.2636	6,963.87	81.7201	6,963.87	81.8157	6,963.87	80.8611	6,963.87	81.4676	6,963.87	76.1971	6,963.87	74.3601	6,963.87	69.7623	6,963.87	65.7666	6,963.87	62.205	6,963.87	63.8936	6,963.87	64.9777	6,963.87	66.3784	6,963.87	71.0471	6,963.87	71.9186	6,963.87	64.1722	6,963.87	69.1804	6,963.87	57.7529	6,963.87	54.4938	6,963.87	57.7986	6,963.87	62.7289	6,963.87	59.5895	6,963.87	61.2908	6,963.87	60.5739
7,209.96	88.9087	7,209.96	88.6104	7,209.96	88.6917	7,209.96	88.685	7,209.96	89.6275	7,209.96	88.3493	7,209.96	88.8504	7,209.96	87.525	7,209.96	87.8594	7,209.96	85.8147	7,209.96	83.5466	7,209.96	79.6474	7,209.96	79.334	7,209.96	81.7563	7,209.96	83.5852	7,209.96	81.8862	7,209.96	79.7574	7,209.96	76.0544	7,209.96	72.682	7,209.96	70.7085	7,209.96	71.5509	7,209.96	65.6156	7,209.96	66.4709	7,209.96	63.6516	7,209.96	67.9369	7,209.96	65.2091	7,209.96	72.7388	7,209.96	69.7677	7,209.96	70.0606	7,209.96	55.2314	7,209.96	55.3648	7,209.96	58.5438	7,209.96	56.928	7,209.96	49.1959	7,209.96	55.8581	7,209.96	61.2082
7,464.84	88.0958	7,464.84	87.9197	7,464.84	89.401	7,464.84	87.7479	7,464.84	88.1257	7,464.84	89.4666	7,464.84	88.6174	7,464.84	87.9113	7,464.84	87.7155	7,464.84	86.8418	7,464.84	84.1106	7,464.84	76.7164	7,464.84	77.6854	7,464.84	81.3795	7,464.84	82.1641	7,464.84	81.2816	7,464.84	78.5777	7,464.84	75.4461	7,464.84	70.8153	7,464.84	69.7145	7,464.84	72.7192	7,464.84	62.1628	7,464.84	68.3318	7,464.84	65.0574	7,464.84	66.6267	7,464.84	63.5727	7,464.84	73.3134	7,464.84	68.1377	7,464.84	69.3279	7,464.84	61.0014	7,464.84	56.3729	7,464.84	60.9878	7,464.84	55.2889	7,464.84	56.6386	7,464.84	49.8743	7,464.84	61.2608
7,727.05	89.3699	7,727.05	88.3535	7,727.05	88.8155	7,727.05	89.1313	7,727.05	89.2376	7,727.05	89.243	7,727.05	88.4167	7,727.05	88.6409	7,727.05	88.5852	7,727.05	87.0142	7,727.05	86.1705	7,727.05	76.6195	7,727.05	77.1469	7,727.05	81.4816	7,727.05	82.2234	7,727.05	79.513	7,727.05	77.9326	7,727.05	75.8842	7,727.05	74.2315	7,727.05	71.4435	7,727.05	73.5598	7,727.05	66.7908	7,727.05	67.9678	7,727.05	67.7488	7,727.05	69.1137	7,727.05	70.4566	7,727.05	69.2931	7,727.05	62.6778	7,727.05	66.9262	7,727.05	58.1176	7,727.05	62.7938	7,727.05	57.1333	7,727.05	53.7072	7,727.05	60.109	7,727.05	51.2755	7,727.05	57.3597
7,999.51	89.8514	7,999.51	88.0413	7,999.51	87.2048	7,999.51	89.0523	7,999.51	89.068	7,999.51	88.2085	7,999.51	87.3026	7,999.51	87.6919	7,999.51	87.5779	7,999.51	85.2983	7,999.51	86.2347	7,999.51	79.312	7,999.51	75.085	7,999.51	82.107	7,999.51	82.5497	7,999.51	79.8611	7,999.51	75.9123	7,999.51	76.7791	7,999.51	75.287	7,999.51	69.6003	7,999.51	72.8715	7,999.51	66.9508	7,999.51	68.0083	7,999.51	69.4516	7,999.51	66.6238	7,999.51	70.8272	7,999.51	64.8303	7,999.51	66.0575	7,999.51	60.5615	7,999.51	60.73	7,999.51	61.096	7,999.51	62.9597	7,999.51	61.1492	7,999.51	55.8535	7,999.51	55.6885	7,999.51	62.2945
8,282.23	89.4274	8,282.23	88.6233	8,282.23	88.6237	8,282.23	88.966	8,282.23	89.3289	8,282.23	88.7054	8,282.23	88.6563	8,282.23	87.259	8,282.23	87.2838	8,282.23	86.351	8,282.23	85.4168	8,282.23	81.7714	8,282.23	75.476	8,282.23	79.6361	8,282.23	81.7279	8,282.23	78.9433	8,282.23	75.9323	8,282.23	75.0445	8,282.23	76.2605	8,282.23	67.4674	8,282.23	70.5933	8,282.23	64.4711	8,282.23	66.9529	8,282.23	67.5365	8,282.23	65.5768	8,282.23	68.7833	8,282.23	67.7473	8,282.23	62.7961	8,282.23	61.5007	8,282.23	62.0571	8,282.23	61.3022	8,282.23	62.4731	8,282.23	57.8282	8,282.23	51.6118	8,282.23	54.8981	8,282.23	61.156
8,573.73	88.9875	8,573.73	88.3953	8,573.73	88.431	8,573.73	89.6802	8,573.73	89.4815	8,573.73	88.2163	8,573.73	88.3229	8,573.73	86.3798	8,573.73	86.8234	8,573.73	87.6965	8,573.73	86.073	8,573.73	81.179	8,573.73	76.8597	8,573.73	76.9276	8,573.73	80.6681	8,573.73	78.889	8,573.73	74.5844	8,573.73	74.7145	8,573.73	75.3347	8,573.73	68.3032	8,573.73	68.6947	8,573.73	66.2461	8,573.73	62.1822	8,573.73	66.6298	8,573.73	61.9573	8,573.73	69.2495	8,573.73	65.7134	8,573.73	61.9717	8,573.73	57.2038	8,573.73	58.7508	8,573.73	65.1629	8,573.73	61.0996	8,573.73	56.6453	8,573.73	53.4989	8,573.73	55.1722	8,573.73	56.8263
8,876.95	89.1612	8,876.95	89.3516	8,876.95	89.7404	8,876.95	89.238	8,876.95	88.8357	8,876.95	88.2026	8,876.95	88.3671	8,876.95	86.4034	8,876.95	86.961	8,876.95	87.4699	8,876.95	86.6292	8,876.95	80.8979	8,876.95	77.3923	8,876.95	77.5766	8,876.95	81.0231	8,876.95	78.218	8,876.95	77.1185	8,876.95	74.9721	8,876.95	75.7044	8,876.95	68.2087	8,876.95	67.4485	8,876.95	65.5484	8,876.95	59.624	8,876.95	67.0932	8,876.95	54.5452	8,876.95	70.872	8,876.95	54.6318	8,876.95	65.9978	8,876.95	53.0213	8,876.95	46.815	8,876.95	61.1602	8,876.95	59.9704	8,876.95	61.0244	8,876.95	52.8879	8,876.95	57.0042	8,876.95	53.7422
9,188.96	88.5684	9,188.96	89.8441	9,188.96	89.6372	9,188.96	89.3982	9,188.96	88.5657	9,188.96	89.1646	9,188.96	88.5182	9,188.96	86.7625	9,188.96	85.5298	9,188.96	87.2011	9,188.96	85.3749	9,188.96	82.4971	9,188.96	77.0638	9,188.96	78.7492	9,188.96	79.8091	9,188.96	78.2848	9,188.96	78.1434	9,188.96	76.9393	9,188.96	75.4163	9,188.96	70.784	9,188.96	66.6408	9,188.96	66.5858	9,188.96	62.6123	9,188.96	67.2597	9,188.96	53.8828	9,188.96	69.7396	9,188.96	45.8609	9,188.96	65.7155	9,188.96	59.7559	9,188.96	47.817	9,188.96	63.1966	9,188.96	45.6557	9,188.96	62.1502	9,188.96	51.2109	9,188.96	52.8144	9,188.96	50.5219
9,514.16	89.8097	9,514.16	89.4796	9,514.16	89.3907	9,514.16	90.1139	9,514.16	88.8875	9,514.16	88.5513	9,514.16	88.9202	9,514.16	85.9762	9,514.16	85.7312	9,514.16	86.6393	9,514.16	85.2814	9,514.16	81.998	9,514.16	79.7125	9,514.16	77.2792	9,514.16	78.8656	9,514.16	79.6209	9,514.16	78.3908	9,514.16	75.6395	9,514.16	74.4759	9,514.16	67.2613	9,514.16	65.5656	9,514.16	65.7463	9,514.16	55.0323	9,514.16	67.15	9,514.16	48.7292	9,514.16	66.2576	9,514.16	54.9746	9,514.16	64.0458	9,514.16	59.1126	9,514.16	51.1158	9,514.16	62.9918	9,514.16	53.8447	9,514.16	54.2221	9,514.16	57.4576	9,514.16	46.8551	9,514.16	50.9959
9,849.61	89.4826	9,849.61	89.4192	9,849.61	89.7897	9,849.61	89.6055	9,849.61	88.5076	9,849.61	88.7711	9,849.61	88.1207	9,849.61	86.7015	9,849.61	85.5663	9,849.61	85.7349	9,849.61	85.6621	9,849.61	82.4353	9,849.61	80.2349	9,849.61	77.3404	9,849.61	79.2196	9,849.61	79.3653	9,849.61	78.1885	9,849.61	76.3396	9,849.61	73.9138	9,849.61	68.077	9,849.61	63.5133	9,849.61	65.1124	9,849.61	53.9273	9,849.61	65.5021	9,849.61	60.9689	9,849.61	65.122	9,849.61	63.1583	9,849.61	65.2462	9,849.61	61.6345	9,849.61	55.7206	9,849.61	56.1964	9,849.61	58.0946	9,849.61	60.3161	9,849.61	56.7591	9,849.61	58.2651	9,849.61	32.2383
10,196.8	89.1905	10,196.8	89.8541	10,196.8	89.7971	10,196.8	89.1805	10,196.8	89.164	10,196.8	89.0888	10,196.8	88.2959	10,196.8	85.9115	10,196.8	84.3169	10,196.8	85.2418	10,196.8	85.8511	10,196.8	83.0779	10,196.8	81.3749	10,196.8	76.7504	10,196.8	77.7581	10,196.8	79.3118	10,196.8	78.582	10,196.8	75.5719	10,196.8	72.9467	10,196.8	66.6521	10,196.8	65.0331	10,196.8	61.7854	10,196.8	50.7565	10,196.8	66.9881	10,196.8	61.9469	10,196.8	63.1985	10,196.8	66.4222	10,196.8	63.1718	10,196.8	59.8289	10,196.8	54.0269	10,196.8	54.3159	10,196.8	59.1989	10,196.8	58.6294	10,196.8	59.8126	10,196.8	56.0771	10,196.8	45.1537
10,555.7	89.6873	10,555.7	89.8489	10,555.7	89.7128	10,555.7	89.2392	10,555.7	89.5768	10,555.7	88.5175	10,555.7	88.3092	10,555.7	86.113	10,555.7	85.8264	10,555.7	84.772	10,555.7	84.8199	10,555.7	83.3015	10,555.7	82.2312	10,555.7	75.3825	10,555.7	77.9802	10,555.7	78.8882	10,555.7	77.7535	10,555.7	74.094	10,555.7	71.9664	10,555.7	66.3589	10,555.7	66.5241	10,555.7	58.7794	10,555.7	42.8216	10,555.7	61.1449	10,555.7	58.648	10,555.7	65.6995	10,555.7	65.6347	10,555.7	59.9289	10,555.7	50.1589	10,555.7	60.5157	10,555.7	61.9435	10,555.7	59.1939	10,555.7	61.0659	10,555.7	61.2383	10,555.7	54.6801	10,555.7	49.0557
10,927.7	89.8151	10,927.7	88.9737	10,927.7	89.5201	10,927.7	89.0871	10,927.7	88.8124	10,927.7	88.1706	10,927.7	86.8701	10,927.7	86.1894	10,927.7	85.6828	10,927.7	84.4382	10,927.7	84.6853	10,927.7	83.4761	10,927.7	81.5852	10,927.7	74.9237	10,927.7	76.7236	10,927.7	78.7076	10,927.7	76.4861	10,927.7	73.0779	10,927.7	71.7817	10,927.7	65.4044	10,927.7	65.2052	10,927.7	62.1014	10,927.7	55.1801	10,927.7	60.3836	10,927.7	63.938	10,927.7	65.3484	10,927.7	67.9415	10,927.7	58.5986	10,927.7	52.938	10,927.7	59.9936	10,927.7	61.4429	10,927.7	57.2631	10,927.7	60.7884	10,927.7	59.8839	10,927.7	55.9839	10,927.7	52.998
11,313	89.6545	11,313	88.7873	11,313	88.9786	11,313	89.0943	11,313	88.7309	11,313	88.137	11,313	87.0462	11,313	86.7188	11,313	86.2163	11,313	84.0044	11,313	84.3315	11,313	83.651	11,313	81.6457	11,313	75.7157	11,313	75.5189	11,313	77.6756	11,313	77.0839	11,313	74.1445	11,313	72.8288	11,313	65.6424	11,313	66.8042	11,313	62.5906	11,313	56.3543	11,313	59.011	11,313	64.4835	11,313	66.2264	11,313	69.4954	11,313	55.3323	11,313	56.8512	11,313	58.1117	11,313	62.8771	11,313	53.7747	11,313	60.2245	11,313	60.3705	11,313	56.7092	11,313	47.7525
11,712.9	89.3379	11,712.9	89.0323	11,712.9	88.8226	11,712.9	89.0105	11,712.9	88.1857	11,712.9	87.9876	11,712.9	87.6021	11,712.9	87.1767	11,712.9	85.8685	11,712.9	83.7648	11,712.9	85.1058	11,712.9	83.5984	11,712.9	82.0913	11,712.9	73.0142	11,712.9	75.9882	11,712.9	78.5411	11,712.9	77.711	11,712.9	75.6582	11,712.9	73.4103	11,712.9	68.4332	11,712.9	67.9614	11,712.9	60.1639	11,712.9	59.7012	11,712.9	59.4296	11,712.9	62.7921	11,712.9	63.882	11,712.9	68.1982	11,712.9	57.1652	11,712.9	60.617	11,712.9	58.089	11,712.9	60.7226	11,712.9	52.873	11,712.9	62.0128	11,712.9	58.904	11,712.9	54.7841	11,712.9	56.308
12,126	88.6907	12,126	87.54	12,126	88.0753	12,126	88.5364	12,126	87.4575	12,126	86.4397	12,126	87.1231	12,126	85.8024	12,126	85.5037	12,126	84.1347	12,126	83.5031	12,126	83.312	12,126	81.9318	12,126	74.0572	12,126	74.0151	12,126	78.0139	12,126	77.7284	12,126	74.3271	12,126	71.5727	12,126	66.097	12,126	64.9649	12,126	61.279	12,126	59.2154	12,126	55.2687	12,126	64.0771	12,126	61.1049	12,126	66.1491	12,126	57.0389	12,126	61.179	12,126	58.8155	12,126	50.1853	12,126	54.5005	12,126	62.2396	12,126	60.6719	12,126	58.3394	12,126	55.8286
12,553.7	87.967	12,553.7	87.1701	12,553.7	87.6679	12,553.7	87.889	12,553.7	87.5745	12,553.7	87.0406	12,553.7	87.9287	12,553.7	86.7119	12,553.7	85.6094	12,553.7	83.1455	12,553.7	83.3839	12,553.7	83.7804	12,553.7	82.832	12,553.7	74.1102	12,553.7	76.1947	12,553.7	78.1036	12,553.7	77.1752	12,553.7	74.2229	12,553.7	72.384	12,553.7	64.2262	12,553.7	66.1908	12,553.7	59.7071	12,553.7	55.2421	12,553.7	51.9425	12,553.7	63.6082	12,553.7	60.3885	12,553.7	64.2277	12,553.7	47.1337	12,553.7	57.5197	12,553.7	54.5638	12,553.7	59.2584	12,553.7	59.0865	12,553.7	63.4288	12,553.7	54.9764	12,553.7	54.8114	12,553.7	47.1263
12,996.1	87.4617	12,996.1	87.2611	12,996.1	87.4029	12,996.1	87.3708	12,996.1	86.7629	12,996.1	86.8971	12,996.1	87.2666	12,996.1	84.9724	12,996.1	84.8768	12,996.1	84.0063	12,996.1	82.4799	12,996.1	83.32	12,996.1	82.0481	12,996.1	75.0569	12,996.1	74.7528	12,996.1	76.9668	12,996.1	76.0369	12,996.1	72.1615	12,996.1	69.2736	12,996.1	64.1767	12,996.1	65.9591	12,996.1	52.9402	12,996.1	58.3223	12,996.1	53.1283	12,996.1	62.6426	12,996.1	58.0114	12,996.1	66.9844	12,996.1	55.1232	12,996.1	58.66	12,996.1	57.5174	12,996.1	60.587	12,996.1	55.9079	12,996.1	55.6548	12,996.1	56.1209	12,996.1	54.512	12,996.1	41.4321
13,454.6	87.2893	13,454.6	86.6528	13,454.6	87.4339	13,454.6	87.0916	13,454.6	86.9579	13,454.6	87.1433	13,454.6	86.8869	13,454.6	86.3119	13,454.6	84.7801	13,454.6	84.2319	13,454.6	83.3946	13,454.6	83.5252	13,454.6	81.5719	13,454.6	73.2452	13,454.6	73.4331	13,454.6	75.6904	13,454.6	74.8133	13,454.6	73.2611	13,454.6	69.6489	13,454.6	66.0085	13,454.6	67.1254	13,454.6	52.7166	13,454.6	59.4237	13,454.6	53.1449	13,454.6	63.3019	13,454.6	55.2661	13,454.6	64.7293	13,454.6	54.2215	13,454.6	54.405	13,454.6	45.0196	13,454.6	58.2046	13,454.6	58.2613	13,454.6	62.2919	13,454.6	54.8351	13,454.6	54.7938	13,454.6	50.7795
13,929.2	86.9691	13,929.2	87.7112	13,929.2	86.9617	13,929.2	86.5644	13,929.2	85.8052	13,929.2	87.2245	13,929.2	87.0032	13,929.2	85.1241	13,929.2	84.4501	13,929.2	84.9084	13,929.2	83.0552	13,929.2	82.9407	13,929.2	81.5372	13,929.2	75.3371	13,929.2	73.3042	13,929.2	74.4025	13,929.2	73.4315	13,929.2	70.6118	13,929.2	67.8849	13,929.2	62.782	13,929.2	65.0549	13,929.2	39.2828	13,929.2	52.9516	13,929.2	46.9152	13,929.2	59.6464	13,929.2	61.0424	13,929.2	62.9322	13,929.2	51.8604	13,929.2	53.5246	13,929.2	46.7693	13,929.2	53.2218	13,929.2	45.8621	13,929.2	56.2947	13,929.2	57.374	13,929.2	58.8923	13,929.2	53.2611
14,419.9	86.7955	14,419.9	87.4902	14,419.9	87.6641	14,419.9	87.0199	14,419.9	87.1433	14,419.9	87.6984	14,419.9	86.7952	14,419.9	85.7412	14,419.9	85.0373	14,419.9	84.1283	14,419.9	83.0206	14,419.9	81.5029	14,419.9	80.6806	14,419.9	73.0889	14,419.9	72.183	14,419.9	70.5549	14,419.9	71.5724	14,419.9	69.8627	14,419.9	67.2209	14,419.9	64.3327	14,419.9	63.6412	14,419.9	45.676	14,419.9	56.0861	14,419.9	53.5519	14,419.9	58.1685	14,419.9	60.9157	14,419.9	60.5014	14,419.9	52.9985	14,419.9	55.1344	14,419.9	52.9115	14,419.9	49.9141	14,419.9	52.6807	14,419.9	55.0817	14,419.9	59.4478	14,419.9	48.7381	14,419.9	55.6723
14,928.2	88.026	14,928.2	86.8307	14,928.2	86.9011	14,928.2	87.108	14,928.2	87.2292	14,928.2	87.0825	14,928.2	86.119	14,928.2	85.8413	14,928.2	85.109	14,928.2	83.1826	14,928.2	81.8024	14,928.2	80.6391	14,928.2	79.3918	14,928.2	72.8816	14,928.2	68.9294	14,928.2	69.2785	14,928.2	69.6563	14,928.2	68.5387	14,928.2	64.7196	14,928.2	61.431	14,928.2	63.5495	14,928.2	55.3929	14,928.2	52.1256	14,928.2	55.3087	14,928.2	47.9468	14,928.2	58.4724	14,928.2	57.3314	14,928.2	58.5265	14,928.2	53.6977	14,928.2	47.3907	14,928.2	50.1168	14,928.2	60.5718	14,928.2	57.5963	14,928.2	58.6133	14,928.2	55.9518	14,928.2	51.617
15,455.6	87.697	15,455.6	87.7353	15,455.6	87.3387	15,455.6	87.6845	15,455.6	87.0891	15,455.6	86.8685	15,455.6	86.1478	15,455.6	84.8935	15,455.6	84.7208	15,455.6	82.2069	15,455.6	81.7777	15,455.6	78.6412	15,455.6	78.1568	15,455.6	70.0033	15,455.6	66.9135	15,455.6	62.9588	15,455.6	66.5967	15,455.6	63.4938	15,455.6	63.5917	15,455.6	60.0183	15,455.6	61.8812	15,455.6	56.65	15,455.6	51.8722	15,455.6	51.9632	15,455.6	51.2702	15,455.6	46.2495	15,455.6	60.1819	15,455.6	52.323	15,455.6	35.4036	15,455.6	50.4752	15,455.6	48.4752	15,455.6	58.8518	15,455.6	54.2185	15,455.6	52.7685	15,455.6	44.349	15,455.6	51.1614
16,000.5	88.1496	16,000.5	87.4104	16,000.5	87.5302	16,000.5	87.7928	16,000.5	87.0662	16,000.5	86.2633	16,000.5	85.9452	16,000.5	84.8884	16,000.5	84.1354	16,000.5	80.5985	16,000.5	79.7376	16,000.5	77.7053	16,000.5	76.0452	16,000.5	66.5579	16,000.5	66.538	16,000.5	62.0984	16,000.5	62.1645	16,000.5	63.5044	16,000.5	62.5196	16,000.5	54.8115	16,000.5	62.4447	16,000.5	52.8603	16,000.5	54.1563	16,000.5	46.9954	16,000.5	56.1022	16,000.5	51.7823	16,000.5	62.729	16,000.5	53.0322	16,000.5	47.2176	16,000.5	50.6924	16,000.5	48.4045	16,000.5	55.1629	16,000.5	54.4318	16,000.5	52.8396	16,000.5	53.2449	16,000.5	36.9136
16,564.5	88.5529	16,564.5	87.8964	16,564.5	87.6314	16,564.5	87.7132	16,564.5	86.8471	16,564.5	86.1411	16,564.5	85.5782	16,564.5	83.8094	16,564.5	83.4393	16,564.5	79.6195	16,564.5	79.6114	16,564.5	74.6405	16,564.5	75.0026	16,564.5	66.1604	16,564.5	63.494	16,564.5	56.0043	16,564.5	60.6966	16,564.5	60.8964	16,564.5	59.4118	16,564.5	57.9068	16,564.5	63.468	16,564.5	51.0659	16,564.5	54.339	16,564.5	40.1271	16,564.5	54.9969	16,564.5	51.8955	16,564.5	60.9894	16,564.5	55.6484	16,564.5	49.5769	16,564.5	44.9751	16,564.5	35.8642	16,564.5	54.8364	16,564.5	53.925	16,564.5	52.3775	16,564.5	50.5471	16,564.5	44.1791
17,148.9	88.6239	17,148.9	88.1029	17,148.9	88.0039	17,148.9	87.6895	17,148.9	86.8069	17,148.9	85.4629	17,148.9	85.257	17,148.9	83.1171	17,148.9	82.1457	17,148.9	77.5991	17,148.9	77.9968	17,148.9	72.4929	17,148.9	71.2566	17,148.9	63.4666	17,148.9	60.2697	17,148.9	40.955	17,148.9	57.4058	17,148.9	59.9707	17,148.9	59.8074	17,148.9	55.879	17,148.9	61.1725	17,148.9	54.0353	17,148.9	52.9152	17,148.9	45.7317	17,148.9	57.0765	17,148.9	53.0486	17,148.9	59.344	17,148.9	51.3123	17,148.9	47.6604	17,148.9	39.1051	17,148.9	47.206	17,148.9	51.9651	17,148.9	53.3449	17,148.9	51.3947	17,148.9	50.0758	17,148.9	35.312
17,752.4	88.6851	17,752.4	87.853	17,752.4	88.3094	17,752.4	87.4854	17,752.4	86.5144	17,752.4	84.9847	17,752.4	84.7166	17,752.4	81.9651	17,752.4	80.9856	17,752.4	76.2092	17,752.4	76.3295	17,752.4	70.582	17,752.4	68.4248	17,752.4	63.9147	17,752.4	54.5991	17,752.4	49.3735	17,752.4	53.2867	17,752.4	53.4185	17,752.4	56.9542	17,752.4	50.0075	17,752.4	60.7788	17,752.4	51.5949	17,752.4	53.5958	17,752.4	41.674	17,752.4	55.9177	17,752.4	50.1855	17,752.4	58.2417	17,752.4	29.8065	17,752.4	47.5829	17,752.4	35.25	17,752.4	39.765	17,752.4	47.0034	17,752.4	51.5306	17,752.4	52.6851	17,752.4	44.8557	17,752.4	39.8718
18,379.4	88.5506	18,379.4	87.9976	18,379.4	87.879	18,379.4	86.7767	18,379.4	86.1645	18,379.4	84.3363	18,379.4	84.0627	18,379.4	80.8489	18,379.4	79.6311	18,379.4	74.7903	18,379.4	74.4915	18,379.4	68.4198	18,379.4	65.4889	18,379.4	64.0638	18,379.4	46.5157	18,379.4	56.5122	18,379.4	56.9617	18,379.4	57.3133	18,379.4	54.765	18,379.4	52.0323	18,379.4	57.8838	18,379.4	49.3298	18,379.4	50.0989	18,379.4	42.7823	18,379.4	53.7259	18,379.4	48.2987	18,379.4	55.341	18,379.4	46.7741	18,379.4	45.3342	18,379.4	37.8262	18,379.4	37.6069	18,379.4	46.6279	18,379.4	48.113	18,379.4	50.3941	18,379.4	42.3338	18,379.4	46.6782
19,026.9	88.415	19,026.9	87.7225	19,026.9	87.7616	19,026.9	86.4232	19,026.9	85.6956	19,026.9	83.8307	19,026.9	83.3133	19,026.9	80.0891	19,026.9	78.5796	19,026.9	73.6575	19,026.9	72.2869	19,026.9	65.9411	19,026.9	62.1465	19,026.9	64.5296	19,026.9	57.536	19,026.9	59.183	19,026.9	59.3163	19,026.9	54.9518	19,026.9	54.8203	19,026.9	52.2888	19,026.9	57.943	19,026.9	50.1866	19,026.9	51.4004	19,026.9	41.7412	19,026.9	53.3368	19,026.9	47.5191	19,026.9	54.284	19,026.9	49.1359	19,026.9	44.6541	19,026.9	28.2753	19,026.9	36.5798	19,026.9	47.7846	19,026.9	48.4986	19,026.9	49.7687	19,026.9	46.2964	19,026.9	46.3011
19,697.8	88.2518	19,697.8	87.5286	19,697.8	87.499	19,697.8	86.1608	19,697.8	85.2965	19,697.8	83.231	19,697.8	82.7287	19,697.8	78.8947	19,697.8	77.7848	19,697.8	71.3363	19,697.8	70.6201	19,697.8	60.6305	19,697.8	57.8182	19,697.8	64.6984	19,697.8	60.3779	19,697.8	59.7191	19,697.8	59.0746	19,697.8	54.6158	19,697.8	53.1021	19,697.8	49.0987	19,697.8	55.666	19,697.8	51.8252	19,697.8	49.5778	19,697.8	44.1761	19,697.8	52.3583	19,697.8	47.9864	19,697.8	53.4959	19,697.8	49.7589	19,697.8	40.4552	19,697.8	24.8993	19,697.8	39.284	19,697.8	49.1189	19,697.8	46.3357	19,697.8	48.565	19,697.8	47.2942	19,697.8	41.4392
19,999.5	87.9563	19,999.5	87.2422	19,999.5	87.1318	19,999.5	85.59	19,999.5	85.146	19,999.5	83.7354	19,999.5	82.5758	19,999.5	79.3668	19,999.5	77.4926	19,999.5	70.1787	19,999.5	69.658	19,999.5	54.6054	19,999.5	54.2092	19,999.5	65.5384	19,999.5	60.9024	19,999.5	60.5062	19,999.5	61.4627	19,999.5	54.0089	19,999.5	47.727	19,999.5	55.08	19,999.5	55.4738	19,999.5	46.9363	19,999.5	44.2337	19,999.5	53.6575	19,999.5	43.4879	19,999.5	53.7153	19,999.5	52.8346	19,999.5	50.6308	19,999.5	50.6752	19,999.5	44.149	19,999.5	47.093	19,999.5	48.1947	19,999.5	45.891	19,999.5	51.7078	19,999.5	52.1148	19,999.5	38.0974
