"SPL Horizontal"
"On-Axis"		"10°"		"-10°"		"20°"		"-20°"		"30°"		"-30°"		"40°"		"-40°"		"50°"		"-50°"		"60°"		"-60°"		"70°"		"-70°"		"80°"		"-80°"		"90°"		"-90°"		"100°"		"-100°"		"110°"		"-110°"		"120°"		"-120°"		"130°"		"-130°"		"140°"		"-140°"		"150°"		"-150°"		"160°"		"-160°"		"170°"		"-170°"		"180°"
"Frequency [Hz]"	"Sound Pessure Level [dB]   [2.83  V @ 1. m]"	"Frequency [Hz]"	"Sound Pessure Level [dB]   [2.83  V @ 1. m]"	"Frequency [Hz]"	"Sound Pessure Level [dB]   [2.83  V @ 1. m]"	"Frequency [Hz]"	"Sound Pessure Level [dB]   [2.83  V @ 1. m]"	"Frequency [Hz]"	"Sound Pessure Level [dB]   [2.83  V @ 1. m]"	"Frequency [Hz]"	"Sound Pessure Level [dB]   [2.83  V @ 1. m]"	"Frequency [Hz]"	"Sound Pessure Level [dB]   [2.83  V @ 1. m]"	"Frequency [Hz]"	"Sound Pessure Level [dB]   [2.83  V @ 1. m]"	"Frequency [Hz]"	"Sound Pessure Level [dB]   [2.83  V @ 1. m]"	"Frequency [Hz]"	"Sound Pessure Level [dB]   [2.83  V @ 1. m]"	"Frequency [Hz]"	"Sound Pessure Level [dB]   [2.83  V @ 1. m]"	"Frequency [Hz]"	"Sound Pessure Level [dB]   [2.83  V @ 1. m]"	"Frequency [Hz]"	"Sound Pessure Level [dB]   [2.83  V @ 1. m]"	"Frequency [Hz]"	"Sound Pessure Level [dB]   [2.83  V @ 1. m]"	"Frequency [Hz]"	"Sound Pessure Level [dB]   [2.83  V @ 1. m]"	"Frequency [Hz]"	"Sound Pessure Level [dB]   [2.83  V @ 1. m]"	"Frequency [Hz]"	"Sound Pessure Level [dB]   [2.83  V @ 1. m]"	"Frequency [Hz]"	"Sound Pessure Level [dB]   [2.83  V @ 1. m]"	"Frequency [Hz]"	"Sound Pessure Level [dB]   [2.83  V @ 1. m]"	"Frequency [Hz]"	"Sound Pessure Level [dB]   [2.83  V @ 1. m]"	"Frequency [Hz]"	"Sound Pessure Level [dB]   [2.83  V @ 1. m]"	"Frequency [Hz]"	"Sound Pessure Level [dB]   [2.83  V @ 1. m]"	"Frequency [Hz]"	"Sound Pessure Level [dB]   [2.83  V @ 1. m]"	"Frequency [Hz]"	"Sound Pessure Level [dB]   [2.83  V @ 1. m]"	"Frequency [Hz]"	"Sound Pessure Level [dB]   [2.83  V @ 1. m]"	"Frequency [Hz]"	"Sound Pessure Level [dB]   [2.83  V @ 1. m]"	"Frequency [Hz]"	"Sound Pessure Level [dB]   [2.83  V @ 1. m]"	"Frequency [Hz]"	"Sound Pessure Level [dB]   [2.83  V @ 1. m]"	"Frequency [Hz]"	"Sound Pessure Level [dB]   [2.83  V @ 1. m]"	"Frequency [Hz]"	"Sound Pessure Level [dB]   [2.83  V @ 1. m]"	"Frequency [Hz]"	"Sound Pessure Level [dB]   [2.83  V @ 1. m]"	"Frequency [Hz]"	"Sound Pessure Level [dB]   [2.83  V @ 1. m]"	"Frequency [Hz]"	"Sound Pessure Level [dB]   [2.83  V @ 1. m]"	"Frequency [Hz]"	"Sound Pessure Level [dB]   [2.83  V @ 1. m]"	"Frequency [Hz]"	"Sound Pessure Level [dB]   [2.83  V @ 1. m]"	"Frequency [Hz]"	"Sound Pessure Level [dB]   [2.83  V @ 1. m]"
20.5078	47.2834	20.5078	47.2174	20.5078	47.1546	20.5078	46.9509	20.5078	46.825	20.5078	46.4658	20.5078	46.2756	20.5078	45.7279	20.5078	45.4698	20.5078	44.6798	20.5078	44.3446	20.5078	43.2243	20.5078	42.7907	20.5078	41.1913	20.5078	40.6088	20.5078	38.2731	20.5078	37.4042	20.5078	34.0747	20.5078	32.5025	20.5078	31.3043	20.5078	29.7832	20.5078	35.4122	20.5078	35.2326	20.5078	39.4802	20.5078	39.4692	20.5078	42.2942	20.5078	42.288	20.5078	44.2603	20.5078	44.245	20.5078	45.6311	20.5078	45.6118	20.5078	46.5405	20.5078	46.5237	20.5078	47.0603	20.5078	47.0506	20.5078	47.2264
21.9727	43.5018	21.9727	43.2132	21.9727	43.3597	21.9727	42.4474	21.9727	42.7791	21.9727	41.08	21.9727	41.6984	21.9727	38.8295	21.9727	39.9877	21.9727	35.0121	21.9727	37.4606	21.9727	28.5106	21.9727	34.4178	21.9727	31.8317	21.9727	34.3818	21.9727	38.2744	21.9727	38.1871	21.9727	42.3251	21.9727	41.8017	21.9727	45.1732	21.9727	44.6041	21.9727	47.3161	21.9727	46.7865	21.9727	48.9794	21.9727	48.5128	21.9727	50.2796	21.9727	49.8842	21.9727	51.282	21.9727	50.9617	21.9727	52.025	21.9727	51.7824	21.9727	52.5312	21.9727	52.3682	21.9727	52.8138	21.9727	52.732	21.9727	52.8799
23.4375	48.0377	23.4375	47.9127	23.4375	47.9647	23.4375	47.5938	23.4375	47.6935	23.4375	47.0961	23.4375	47.2308	23.4375	46.4638	23.4375	46.6011	23.4375	45.8076	23.4375	45.8772	23.4375	45.3492	23.4375	45.2322	23.4375	45.39	23.4375	44.9689	23.4375	46.0929	23.4375	45.377	23.4375	47.3051	23.4375	46.4425	23.4375	48.7229	23.4375	47.8624	23.4375	50.1167	23.4375	49.3377	23.4375	51.37	23.4375	50.7013	23.4375	52.436	23.4375	51.8838	23.4375	53.2994	23.4375	52.8623	23.4375	53.9571	23.4375	53.6322	23.4375	54.4101	23.4375	54.1949	23.4375	54.6598	23.4375	54.5526	23.4375	54.7073
24.9023	49.3317	24.9023	49.2243	24.9023	49.2402	24.9023	48.9233	24.9023	48.9493	24.9023	48.4446	24.9023	48.4647	24.9023	47.8322	24.9023	47.8099	24.9023	47.1919	24.9023	47.0555	24.9023	46.7314	24.9023	46.3715	24.9023	46.7313	24.9023	46.0602	24.9023	47.3548	24.9023	46.4196	24.9023	48.4775	24.9023	47.4476	24.9023	49.8199	24.9023	48.8429	24.9023	51.1571	24.9023	50.3012	24.9023	52.3692	24.9023	51.6516	24.9023	53.4054	24.9023	52.8231	24.9023	54.2473	24.9023	53.7925	24.9023	54.8901	24.9023	54.5553	24.9023	55.3331	24.9023	55.1128	24.9023	55.577	24.9023	55.4677	24.9023	55.622
26.3672	53.0148	26.3672	52.9531	26.3672	52.9468	26.3672	52.7689	26.3672	52.7482	26.3672	52.4793	26.3672	52.4265	26.3672	52.1166	26.3672	52.002	26.3672	51.7379	26.3672	51.5187	26.3672	51.4329	26.3672	51.0593	26.3672	51.3165	26.3672	50.7537	26.3672	51.4893	26.3672	50.7511	26.3672	51.9793	26.3672	51.1396	26.3672	52.7202	26.3672	51.8772	26.3672	53.5936	26.3672	52.8223	26.3672	54.485	26.3672	53.8234	26.3672	55.3115	26.3672	54.7707	26.3672	56.0211	26.3672	55.599	26.3672	56.583	26.3672	56.2737	26.3672	56.98	26.3672	56.7774	26.3672	57.2019	26.3672	57.1017	26.3672	57.2433
27.832	53.7631	27.832	53.7061	27.832	53.6748	27.832	53.5088	27.832	53.4419	27.832	53.1841	27.832	53.072	27.832	52.7586	27.832	52.5868	27.832	52.2846	27.832	52.0346	27.832	51.8541	27.832	51.5095	27.832	51.6015	27.832	51.1626	27.832	51.667	27.832	51.1659	27.832	52.1139	27.832	51.6087	27.832	52.8787	27.832	52.4212	27.832	53.8169	27.832	53.4321	27.832	54.7868	27.832	54.4768	27.832	55.6888	27.832	55.4464	27.832	56.4645	27.832	56.2808	27.832	57.0823	27.832	56.9502	27.832	57.5258	27.832	57.4403	27.832	57.7864	27.832	57.7444	27.832	57.8598
29.2969	55.7447	29.2969	55.7011	29.2969	55.683	29.2969	55.5571	29.2969	55.5195	29.2969	55.3267	29.2969	55.2666	29.2969	55.0378	29.2969	54.9505	29.2969	54.7377	29.2969	54.6166	29.2969	54.4973	29.2969	54.3359	29.2969	54.405	29.2969	54.2003	29.2969	54.5406	29.2969	54.298	29.2969	54.9356	29.2969	54.6703	29.2969	55.5524	29.2969	55.2847	29.2969	56.3046	29.2969	56.0529	29.2969	57.0969	29.2969	56.8735	29.2969	57.8513	29.2969	57.6631	29.2969	58.514	29.2969	58.3636	29.2969	59.0507	29.2969	58.9387	29.2969	59.4406	29.2969	59.3665	29.2969	59.6714	29.2969	59.6347	29.2969	59.7369
30.7617	56.3571	30.7617	56.3024	30.7617	56.2893	30.7617	56.1279	30.7617	56.103	30.7617	55.8443	30.7617	55.8097	30.7617	55.4759	30.7617	55.4335	30.7617	55.0694	30.7617	55.0191	30.7617	54.7034	30.7617	54.6412	30.7617	54.488	30.7617	54.4055	30.7617	54.5351	30.7617	54.4237	30.7617	54.9002	30.7617	54.7576	30.7617	55.5423	30.7617	55.3766	30.7617	56.351	30.7617	56.1763	30.7617	57.2059	30.7617	57.0365	30.7617	58.0148	30.7617	57.8618	30.7617	58.7189	30.7617	58.5899	30.7617	59.2841	30.7617	59.1841	30.7617	59.692	30.7617	59.6239	30.7617	59.9327	30.7617	59.8983	30.7617	60.0019
32.2266	57.7591	32.2266	57.7252	32.2266	57.7209	32.2266	57.6254	32.2266	57.6142	32.2266	57.4761	32.2266	57.4532	32.2266	57.3062	32.2266	57.2648	32.2266	57.1587	32.2266	57.0909	32.2266	57.0884	32.2266	56.988	32.2266	57.1524	32.2266	57.018	32.2266	57.3916	32.2266	57.2286	32.2266	57.8118	32.2266	57.6322	32.2266	58.3798	32.2266	58.1973	32.2266	59.0365	32.2266	58.8628	32.2266	59.7169	32.2266	59.56	32.2266	60.3646	32.2266	60.2292	32.2266	60.9368	32.2266	60.8256	32.2266	61.4034	32.2266	61.3183	32.2266	61.7445	32.2266	61.6869	32.2266	61.9476	32.2266	61.9186	32.2266	62.0063
33.6914	59.5689	33.6914	59.5347	33.6914	59.5474	33.6914	59.4489	33.6914	59.4742	33.6914	59.3243	33.6914	59.3616	33.6914	59.1834	33.6914	59.2314	33.6914	59.0598	33.6914	59.1157	33.6914	58.9964	33.6914	59.0554	33.6914	59.0381	33.6914	59.0944	33.6914	59.2199	33.6914	59.2676	33.6914	59.5524	33.6914	59.5871	33.6914	60.016	33.6914	60.0359	33.6914	60.5676	33.6914	60.5734	33.6914	61.1539	33.6914	61.1482	33.6914	61.7243	33.6914	61.7108	33.6914	62.2375	33.6914	62.2202	33.6914	62.6625	33.6914	62.6453	33.6914	62.978	33.6914	62.9644	33.6914	63.1706	33.6914	63.1631	33.6914	63.2328
35.1562	60.6189	35.1562	60.588	35.1562	60.5948	35.1562	60.5063	35.1562	60.5196	35.1562	60.3863	35.1562	60.4052	35.1562	60.2501	35.1562	60.2726	35.1562	60.13	35.1562	60.1525	35.1562	60.0668	35.1562	60.0841	35.1562	60.103	35.1562	60.1089	35.1562	60.2713	35.1562	60.2607	35.1562	60.5823	35.1562	60.5527	35.1562	61.0184	35.1562	60.9712	35.1562	61.5399	35.1562	61.4796	35.1562	62.0969	35.1562	62.0296	35.1562	62.6409	35.1562	62.5731	35.1562	63.1316	35.1562	63.0694	35.1562	63.5383	35.1562	63.487	35.1562	63.8396	35.1562	63.803	35.1562	64.0214	35.1562	64.0025	35.1562	64.0764
36.6211	61.8223	36.6211	61.7947	36.6211	61.8103	36.6211	61.7313	36.6211	61.7618	36.6211	61.6436	36.6211	61.6869	36.6211	61.5508	36.6211	61.6033	36.6211	61.4798	36.6211	61.5364	36.6211	61.4627	36.6211	61.5168	36.6211	61.5319	36.6211	61.5765	36.6211	61.7111	36.6211	61.7403	36.6211	62.007	36.6211	62.0174	36.6211	62.4057	36.6211	62.3974	36.6211	62.8758	36.6211	62.8519	36.6211	63.3771	36.6211	63.3424	36.6211	63.8687	36.6211	63.8288	36.6211	64.3146	36.6211	64.2752	36.6211	64.6866	36.6211	64.6525	36.6211	64.9639	36.6211	64.9389	36.6211	65.1326	36.6211	65.1194	36.6211	65.1852
38.0859	62.9987	38.0859	62.9757	38.0859	62.9936	38.0859	62.9287	38.0859	62.9628	38.0859	62.8685	38.0859	62.9151	38.0859	62.8127	38.0859	62.866	38.0859	62.7846	38.0859	62.8368	38.0859	62.8107	38.0859	62.8526	38.0859	62.9157	38.0859	62.9384	38.0859	63.1163	38.0859	63.1128	38.0859	63.4146	38.0859	63.382	38.0859	63.7968	38.0859	63.737	38.0859	64.2357	38.0859	64.155	38.0859	64.697	38.0859	64.6044	38.0859	65.1459	38.0859	65.0511	38.0859	65.5512	38.0859	65.4636	38.0859	65.8878	38.0859	65.8151	38.0859	66.1367	38.0859	66.0849	38.0859	66.2853	38.0859	66.2584	38.0859	66.3264
39.5508	63.9875	39.5508	63.9716	39.5508	63.9845	39.5508	63.9405	39.5508	63.9645	39.5508	63.9038	39.5508	63.9352	39.5508	63.8765	39.5508	63.9095	39.5508	63.8779	39.5508	63.9054	39.5508	63.9294	39.5508	63.9435	39.5508	64.0503	39.5508	64.0437	39.5508	64.2528	39.5508	64.2207	39.5508	64.5379	39.5508	64.4795	39.5508	64.8938	39.5508	64.8128	39.5508	65.2978	39.5508	65.2013	39.5508	65.7212	39.5508	65.6181	39.5508	66.1338	39.5508	66.0331	39.5508	66.5075	39.5508	66.4175	39.5508	66.8189	39.5508	66.7461	39.5508	67.05	39.5508	66.999	39.5508	67.1882	39.5508	67.1619	39.5508	67.2261
41.0156	64.9749	41.0156	64.9737	41.0156	64.9656	41.0156	64.965	41.0156	64.9473	41.0156	64.9563	41.0156	64.9259	41.0156	64.9588	41.0156	64.9121	41.0156	64.987	41.0156	64.9202	41.0156	65.0569	41.0156	64.9672	41.0156	65.1828	41.0156	65.0698	41.0156	65.3742	41.0156	65.2409	41.0156	65.6326	41.0156	65.4851	41.0156	65.9498	41.0156	65.7963	41.0156	66.3087	41.0156	66.1579	41.0156	66.6862	41.0156	66.5458	41.0156	67.0565	41.0156	66.9325	41.0156	67.3945	41.0156	67.2914	41.0156	67.6782	41.0156	67.5989	41.0156	67.8898	41.0156	67.836	41.0156	68.0164	41.0156	67.9893	41.0156	68.0503
42.4805	66.5314	42.4805	66.5278	42.4805	66.5249	42.4805	66.5165	42.4805	66.5097	42.4805	66.5033	42.4805	66.4908	42.4805	66.4974	42.4805	66.4762	42.4805	66.5103	42.4805	66.4771	42.4805	66.5549	42.4805	66.506	42.4805	66.6431	42.4805	66.5757	42.4805	66.7833	42.4805	66.6964	42.4805	66.9784	42.4805	66.8733	42.4805	67.2238	42.4805	67.104	42.4805	67.5073	42.4805	67.3787	42.4805	67.8112	42.4805	67.6811	42.4805	68.114	42.4805	67.9904	42.4805	68.3939	42.4805	68.2844	42.4805	68.6306	42.4805	68.5421	42.4805	68.8073	42.4805	68.7452	42.4805	68.9116	42.4805	68.8796	42.4805	68.9364
43.9453	67.4827	43.9453	67.4861	43.9453	67.4694	43.9453	67.4813	43.9453	67.4481	43.9453	67.4732	43.9453	67.4239	43.9453	67.4697	43.9453	67.4052	43.9453	67.4815	43.9453	67.4029	43.9453	67.5204	43.9453	67.4296	43.9453	67.5979	43.9453	67.4973	43.9453	67.7229	43.9453	67.6156	43.9453	67.8993	43.9453	67.7886	43.9453	68.124	43.9453	68.0135	43.9453	68.387	43.9453	68.2804	43.9453	68.6722	43.9453	68.5727	43.9453	68.9595	43.9453	68.8705	43.9453	69.2277	43.9453	69.1521	43.9453	69.4569	43.9453	69.3975	43.9453	69.6303	43.9453	69.5892	43.9453	69.7351	43.9453	69.7141	43.9453	69.7638
45.4102	68.3404	45.4102	68.3387	45.4102	68.3359	45.4102	68.3324	45.4102	68.3264	45.4102	68.326	45.4102	68.3161	45.4102	68.3266	45.4102	68.3116	45.4102	68.3436	45.4102	68.322	45.4102	68.3871	45.4102	68.3574	45.4102	68.4673	45.4102	68.4279	45.4102	68.5915	45.4102	68.5414	45.4102	68.7628	45.4102	68.702	45.4102	68.978	45.4102	68.9079	45.4102	69.2276	45.4102	69.1509	45.4102	69.4968	45.4102	69.4173	45.4102	69.7668	45.4102	69.6896	45.4102	70.0182	45.4102	69.9483	45.4102	70.2323	45.4102	70.1749	45.4102	70.3937	45.4102	70.3528	45.4102	70.4907	45.4102	70.4694	45.4102	70.5165
46.875	69.2087	46.875	69.2094	46.875	69.2008	46.875	69.2049	46.875	69.1867	46.875	69.1993	46.875	69.1698	46.875	69.1994	46.875	69.1561	46.875	69.2136	46.875	69.1535	46.875	69.2513	46.875	69.1718	46.875	69.3213	46.875	69.2205	46.875	69.4301	46.875	69.3082	46.875	69.5805	46.875	69.4398	46.875	69.7697	46.875	69.6152	46.875	69.9894	46.875	69.8284	46.875	70.2264	46.875	70.0673	46.875	70.4643	46.875	70.316	46.875	70.6853	46.875	70.5561	46.875	70.8727	46.875	70.7695	46.875	71.012	46.875	70.9402	46.875	71.0924	46.875	71.0556	46.875	71.1074
48.3398	69.7065	48.3398	69.7096	48.3398	69.6987	48.3398	69.7098	48.3398	69.687	48.3398	69.7116	48.3398	69.6749	48.3398	69.7216	48.3398	69.6686	48.3398	69.7482	48.3398	69.6763	48.3398	69.8001	48.3398	69.7075	48.3398	69.8854	48.3398	69.7716	48.3398	70.0093	48.3398	69.8762	48.3398	70.1734	48.3398	70.0252	48.3398	70.374	48.3398	70.217	48.3398	70.6024	48.3398	70.4442	48.3398	70.8454	48.3398	70.694	48.3398	71.0873	48.3398	70.95	48.3398	71.311	48.3398	71.1941	48.3398	71.5005	48.3398	71.4088	48.3398	71.6418	48.3398	71.5788	48.3398	71.7244	48.3398	71.6924	48.3398	71.7418
51.2695	71.313	51.2695	71.3227	51.2695	71.3099	51.2695	71.3397	51.2695	71.3143	51.2695	71.3662	51.2695	71.3283	51.2695	71.4051	51.2695	71.3553	51.2695	71.4605	51.2695	71.3997	51.2695	71.5363	51.2695	71.4659	51.2695	71.6359	51.2695	71.558	51.2695	71.7614	51.2695	71.6787	51.2695	71.9128	51.2695	71.8283	51.2695	72.0875	51.2695	72.0041	51.2695	72.2795	51.2695	72.2001	51.2695	72.4802	51.2695	72.4072	51.2695	72.6785	51.2695	72.6141	51.2695	72.8622	51.2695	72.8081	51.2695	73.0189	51.2695	72.9767	51.2695	73.1375	51.2695	73.1085	51.2695	73.2093	51.2695	73.1945	51.2695	73.2289
52.7344	72.1371	52.7344	72.1459	52.7344	72.1333	52.7344	72.16	52.7344	72.1353	52.7344	72.1809	52.7344	72.145	52.7344	72.2112	52.7344	72.1653	52.7344	72.2542	52.7344	72.1998	52.7344	72.3134	52.7344	72.2527	52.7344	72.3925	52.7344	72.3276	52.7344	72.4939	52.7344	72.4271	52.7344	72.6185	52.7344	72.5522	52.7344	72.765	52.7344	72.7011	52.7344	72.9288	52.7344	72.869	52.7344	73.1026	52.7344	73.0484	52.7344	73.2767	52.7344	73.2293	52.7344	73.4397	52.7344	73.4001	52.7344	73.5801	52.7344	73.5492	52.7344	73.6872	52.7344	73.6661	52.7344	73.7529	52.7344	73.7421	52.7344	73.7718
54.1992	72.6664	54.1992	72.6681	54.1992	72.6704	54.1992	72.6759	54.1992	72.6808	54.1992	72.6912	54.1992	72.6995	54.1992	72.7165	54.1992	72.7289	54.1992	72.755	54.1992	72.7725	54.1992	72.8104	54.1992	72.8335	54.1992	72.8863	54.1992	72.9152	54.1992	72.9855	54.1992	73.0194	54.1992	73.1088	54.1992	73.1463	54.1992	73.2546	54.1992	73.2938	54.1992	73.4185	54.1992	73.4571	54.1992	73.5931	54.1992	73.6287	54.1992	73.7684	54.1992	73.7993	54.1992	73.9335	54.1992	73.9585	54.1992	74.0769	54.1992	74.0955	54.1992	74.1885	54.1992	74.2007	54.1992	74.26	54.1992	74.266	54.1992	74.2864
55.6641	73.2652	55.6641	73.2696	55.6641	73.2675	55.6641	73.2812	55.6641	73.2769	55.6641	73.3015	55.6641	73.2949	55.6641	73.3326	55.6641	73.3234	55.6641	73.3775	55.6641	73.3654	55.6641	73.4388	55.6641	73.4235	55.6641	73.5192	55.6641	73.5003	55.6641	73.6202	55.6641	73.5975	55.6641	73.7417	55.6641	73.7151	55.6641	73.8816	55.6641	73.8516	55.6641	74.0355	55.6641	74.0029	55.6641	74.1965	55.6641	74.1626	55.6641	74.3559	55.6641	74.3227	55.6641	74.5039	55.6641	74.4735	55.6641	74.6306	55.6641	74.6053	55.6641	74.7269	55.6641	74.7087	55.6641	74.7857	55.6641	74.7762	55.6641	74.8025
58.5938	74.2679	58.5938	74.2738	58.5938	74.2711	58.5938	74.2892	58.5938	74.2836	58.5938	74.3149	58.5938	74.3061	58.5938	74.3521	58.5938	74.3397	58.5938	74.4024	58.5938	74.3859	58.5938	74.4672	58.5938	74.4462	58.5938	74.5476	58.5938	74.5219	58.5938	74.6441	58.5938	74.614	58.5938	74.756	58.5938	74.7221	58.5938	74.8814	58.5938	74.8447	58.5938	75.0166	58.5938	74.9785	58.5938	75.1562	58.5938	75.1185	58.5938	75.2932	58.5938	75.2578	58.5938	75.4199	58.5938	75.3887	58.5938	75.528	58.5938	75.5028	58.5938	75.61	58.5938	75.5923	58.5938	75.66	58.5938	75.6508	58.5938	75.674
60.0586	74.7684	60.0586	74.7746	60.0586	74.7721	60.0586	74.7909	60.0586	74.7859	60.0586	74.8178	60.0586	74.81	60.0586	74.8562	60.0586	74.8454	60.0586	74.9068	60.0586	74.8928	60.0586	74.9706	60.0586	74.9532	60.0586	75.0482	60.0586	75.0273	60.0586	75.1397	60.0586	75.1156	60.0586	75.2444	60.0586	75.2175	60.0586	75.3604	60.0586	75.3315	60.0586	75.4845	60.0586	75.4546	60.0586	75.6119	60.0586	75.5823	60.0586	75.7366	60.0586	75.7088	60.0586	75.8518	60.0586	75.8271	60.0586	75.9501	60.0586	75.9301	60.0586	76.0248	60.0586	76.0107	60.0586	76.0705	60.0586	76.0632	60.0586	76.0837
62.9883	75.8692	62.9883	75.8767	62.9883	75.8713	62.9883	75.8938	62.9883	75.8831	62.9883	75.9207	62.9883	75.9048	62.9883	75.9574	62.9883	75.9365	62.9883	76.0042	62.9883	75.9787	62.9883	76.0612	62.9883	76.0314	62.9883	76.1287	62.9883	76.095	62.9883	76.2063	62.9883	76.1694	62.9883	76.2934	62.9883	76.254	62.9883	76.3884	62.9883	76.3477	62.9883	76.489	62.9883	76.4481	62.9883	76.5916	62.9883	76.5521	62.9883	76.6915	62.9883	76.655	62.9883	76.7835	62.9883	76.7517	62.9883	76.8617	62.9883	76.8362	62.9883	76.9208	62.9883	76.9029	62.9883	76.9563	62.9883	76.9471	62.9883	76.9653
64.4531	76.2879	64.4531	76.2957	64.4531	76.2903	64.4531	76.3136	64.4531	76.3028	64.4531	76.3412	64.4531	76.3257	64.4531	76.3787	64.4531	76.3588	64.4531	76.4257	64.4531	76.4023	64.4531	76.4821	64.4531	76.4561	64.4531	76.5478	64.4531	76.5198	64.4531	76.6222	64.4531	76.5931	64.4531	76.7046	64.4531	76.675	64.4531	76.7935	64.4531	76.7643	64.4531	76.8869	64.4531	76.8587	64.4531	76.9815	64.4531	76.9552	64.4531	77.0736	64.4531	77.0497	64.4531	77.1582	64.4531	77.1376	64.4531	77.2303	64.4531	77.2139	64.4531	77.2851	64.4531	77.2737	64.4531	77.3185	64.4531	77.3126	64.4531	77.3279
67.3828	76.9665	67.3828	76.9734	67.3828	76.9707	67.3828	76.9913	67.3828	76.986	67.3828	77.0199	67.3828	77.0121	67.3828	77.0585	67.3828	77.0484	67.3828	77.1065	67.3828	77.0944	67.3828	77.1631	67.3828	77.1492	67.3828	77.2274	67.3828	77.2118	67.3828	77.2984	67.3828	77.2814	67.3828	77.375	67.3828	77.3567	67.3828	77.4555	67.3828	77.4363	67.3828	77.538	67.3828	77.5184	67.3828	77.62	67.3828	77.6005	67.3828	77.6983	67.3828	77.6798	67.3828	77.7693	67.3828	77.7527	67.3828	77.8293	67.3828	77.8156	67.3828	77.8744	67.3828	77.8647	67.3828	77.9018	67.3828	77.8967	67.3828	77.9094
68.8477	77.1873	68.8477	77.1941	68.8477	77.1915	68.8477	77.2119	68.8477	77.2066	68.8477	77.2403	68.8477	77.2322	68.8477	77.2785	68.8477	77.2677	68.8477	77.3259	68.8477	77.3122	68.8477	77.3813	68.8477	77.3649	68.8477	77.4437	68.8477	77.4248	68.8477	77.5119	68.8477	77.4907	68.8477	77.5844	68.8477	77.5616	68.8477	77.6598	68.8477	77.636	68.8477	77.7362	68.8477	77.7122	68.8477	77.8113	68.8477	77.7881	68.8477	77.8825	68.8477	77.861	68.8477	77.9468	68.8477	77.928	68.8477	78.0008	68.8477	77.9857	68.8477	78.0413	68.8477	78.0307	68.8477	78.0657	68.8477	78.0602	68.8477	78.0722
71.7773	77.9672	71.7773	77.9728	71.7773	77.9726	71.7773	77.9892	71.7773	77.9888	71.7773	78.0159	71.7773	78.0151	71.7773	78.0518	71.7773	78.0506	71.7773	78.0958	71.7773	78.0942	71.7773	78.1465	71.7773	78.1446	71.7773	78.2025	71.7773	78.2002	71.7773	78.2623	71.7773	78.2597	71.7773	78.3244	71.7773	78.3215	71.7773	78.3875	71.7773	78.3843	71.7773	78.4501	71.7773	78.4466	71.7773	78.5107	71.7773	78.5069	71.7773	78.5675	71.7773	78.5635	71.7773	78.6183	71.7773	78.6143	71.7773	78.6609	71.7773	78.6574	71.7773	78.6931	71.7773	78.6904	71.7773	78.7129	71.7773	78.7114	71.7773	78.7191
74.707	78.7448	74.707	78.7484	74.707	78.7525	74.707	78.763	74.707	78.7711	74.707	78.7879	74.707	78.7996	74.707	78.8219	74.707	78.8368	74.707	78.8636	74.707	78.8811	74.707	78.911	74.707	78.9304	74.707	78.9624	74.707	78.9829	74.707	79.016	74.707	79.0367	74.707	79.0701	74.707	79.0901	74.707	79.1232	74.707	79.1419	74.707	79.1743	74.707	79.1908	74.707	79.2221	74.707	79.2361	74.707	79.2657	74.707	79.2768	74.707	79.3038	74.707	79.3122	74.707	79.3354	74.707	79.3412	74.707	79.3592	74.707	79.3628	74.707	79.3743	74.707	79.3759	74.707	79.3799
77.6367	79.0834	77.6367	79.0886	77.6367	79.0889	77.6367	79.1044	77.6367	79.1048	77.6367	79.1296	77.6367	79.1301	77.6367	79.163	77.6367	79.1635	77.6367	79.2026	77.6367	79.2029	77.6367	79.2462	77.6367	79.2464	77.6367	79.2918	77.6367	79.2917	77.6367	79.3373	77.6367	79.3369	77.6367	79.3811	77.6367	79.3804	77.6367	79.4218	77.6367	79.4208	77.6367	79.4587	77.6367	79.4573	77.6367	79.4912	77.6367	79.4894	77.6367	79.5191	77.6367	79.5171	77.6367	79.5423	77.6367	79.5402	77.6367	79.5607	77.6367	79.5587	77.6367	79.5739	77.6367	79.5724	77.6367	79.5818	77.6367	79.5809	77.6367	79.5841
79.1016	79.1899	79.1016	79.1959	79.1016	79.1947	79.1016	79.2125	79.1016	79.2099	79.1016	79.2384	79.1016	79.2347	79.1016	79.2722	79.1016	79.2674	79.1016	79.3118	79.1016	79.3061	79.1016	79.3549	79.1016	79.3484	79.1016	79.3993	79.1016	79.3923	79.1016	79.4428	79.1016	79.4355	79.1016	79.4837	79.1016	79.4762	79.1016	79.5208	79.1016	79.5133	79.1016	79.5532	79.1016	79.5459	79.1016	79.5808	79.1016	79.5738	79.1016	79.6035	79.1016	79.5969	79.1016	79.6216	79.1016	79.6157	79.1016	79.6352	79.1016	79.6304	79.1016	79.6445	79.1016	79.6412	79.1016	79.6497	79.1016	79.648	79.1016	79.6509
82.0312	79.7254	82.0312	79.7332	82.0312	79.7287	82.0312	79.7516	82.0312	79.7428	82.0312	79.7794	82.0312	79.7667	82.0312	79.8148	82.0312	79.7986	82.0312	79.8556	82.0312	79.8366	82.0312	79.8992	82.0312	79.878	82.0312	79.9433	82.0312	79.9204	82.0312	79.9854	82.0312	79.9615	82.0312	80.0236	82.0312	79.9992	82.0312	80.0565	82.0312	80.0323	82.0312	80.0835	82.0312	80.06	82.0312	80.1042	82.0312	80.0822	82.0312	80.1193	82.0312	80.0995	82.0312	80.1294	82.0312	80.1125	82.0312	80.1354	82.0312	80.1221	82.0312	80.1383	82.0312	80.1291	82.0312	80.1387	82.0312	80.134	82.0312	80.1372
84.9609	80.1905	84.9609	80.2013	84.9609	80.1915	84.9609	80.2231	84.9609	80.2038	84.9609	80.2547	84.9609	80.2263	84.9609	80.2939	84.9609	80.2574	84.9609	80.3382	84.9609	80.2946	84.9609	80.3847	84.9609	80.3353	84.9609	80.4304	84.9609	80.3767	84.9609	80.4726	84.9609	80.4162	84.9609	80.5089	84.9609	80.4517	84.9609	80.5377	84.9609	80.4815	84.9609	80.5583	84.9609	80.5049	84.9609	80.5709	84.9609	80.522	84.9609	80.5764	84.9609	80.5334	84.9609	80.5764	84.9609	80.5405	84.9609	80.5726	84.9609	80.5449	84.9609	80.5669	84.9609	80.5481	84.9609	80.5608	84.9609	80.5513	84.9609	80.5555
87.8906	80.4539	87.8906	80.4614	87.8906	80.4556	87.8906	80.4777	87.8906	80.4659	87.8906	80.5015	87.8906	80.4835	87.8906	80.531	87.8906	80.5066	87.8906	80.5634	87.8906	80.5329	87.8906	80.5959	87.8906	80.5596	87.8906	80.6253	87.8906	80.5841	87.8906	80.6488	87.8906	80.604	87.8906	80.6642	87.8906	80.6174	87.8906	80.6701	87.8906	80.6232	87.8906	80.6664	87.8906	80.6211	87.8906	80.6537	87.8906	80.6119	87.8906	80.6344	87.8906	80.5975	87.8906	80.6111	87.8906	80.5805	87.8906	80.5872	87.8906	80.5637	87.8906	80.5661	87.8906	80.5502	87.8906	80.5506	87.8906	80.5425	87.8906	80.5425
90.8203	80.7203	90.8203	80.7278	90.8203	80.7207	90.8203	80.7426	90.8203	80.7284	90.8203	80.7636	90.8203	80.7425	90.8203	80.789	90.8203	80.7611	90.8203	80.8163	90.8203	80.7821	90.8203	80.8426	90.8203	80.803	90.8203	80.8653	90.8203	80.8211	90.8203	80.8816	90.8203	80.8343	90.8203	80.8896	90.8203	80.8406	90.8203	80.8881	90.8203	80.8391	90.8203	80.877	90.8203	80.8298	90.8203	80.8574	90.8203	80.8137	90.8203	80.8315	90.8203	80.7928	90.8203	80.8024	90.8203	80.7699	90.8203	80.7735	90.8203	80.7483	90.8203	80.7485	90.8203	80.7313	90.8203	80.7303	90.8203	80.7216	90.8203	80.7211
95.2148	81.0333	95.2148	81.0393	95.2148	81.0381	95.2148	81.0553	95.2148	81.053	95.2148	81.0799	95.2148	81.077	95.2148	81.1106	95.2148	81.1076	95.2148	81.1446	95.2148	81.1421	95.2148	81.1786	95.2148	81.1772	95.2148	81.2092	95.2148	81.2095	95.2148	81.2332	95.2148	81.2359	95.2148	81.2485	95.2148	81.2538	95.2148	81.2535	95.2148	81.2615	95.2148	81.2481	95.2148	81.2587	95.2148	81.2336	95.2148	81.2461	95.2148	81.2122	95.2148	81.2258	95.2148	81.1875	95.2148	81.2009	95.2148	81.1633	95.2148	81.1751	95.2148	81.1435	95.2148	81.1523	95.2148	81.1312	95.2148	81.1359	95.2148	81.1286
98.1445	81.1589	98.1445	81.1627	98.1445	81.1662	98.1445	81.1771	98.1445	81.184	98.1445	81.2004	98.1445	81.2109	98.1445	81.2302	98.1445	81.2445	98.1445	81.2633	98.1445	81.2816	98.1445	81.2962	98.1445	81.3187	98.1445	81.3252	98.1445	81.3522	98.1445	81.3471	98.1445	81.3788	98.1445	81.3596	98.1445	81.3957	98.1445	81.3612	98.1445	81.4013	98.1445	81.3521	98.1445	81.3948	98.1445	81.3336	98.1445	81.3773	98.1445	81.3085	98.1445	81.351	98.1445	81.2806	98.1445	81.3192	98.1445	81.2543	98.1445	81.2863	98.1445	81.2337	98.1445	81.2567	98.1445	81.2225	98.1445	81.2344	98.1445	81.2226
101.074	81.3264	101.074	81.3335	101.074	81.3285	101.074	81.3493	101.074	81.3397	101.074	81.3722	101.074	81.3585	101.074	81.3998	101.074	81.3828	101.074	81.429	101.074	81.4098	101.074	81.4562	101.074	81.4361	101.074	81.478	101.074	81.4585	101.074	81.4911	101.074	81.4735	101.074	81.4931	101.074	81.4786	101.074	81.4827	101.074	81.4722	101.074	81.4599	101.074	81.4538	101.074	81.4266	101.074	81.4247	101.074	81.3858	101.074	81.3875	101.074	81.3423	101.074	81.3463	101.074	81.3012	101.074	81.3061	101.074	81.2678	101.074	81.2721	101.074	81.2464	101.074	81.2489	101.074	81.2398
105.469	81.5473	105.469	81.5515	105.469	81.5513	105.469	81.5635	105.469	81.563	105.469	81.5819	105.469	81.5811	105.469	81.6045	105.469	81.6034	105.469	81.6287	105.469	81.6272	105.469	81.6511	105.469	81.6491	105.469	81.6684	105.469	81.6658	105.469	81.6772	105.469	81.6742	105.469	81.6752	105.469	81.6717	105.469	81.6608	105.469	81.6568	105.469	81.6339	105.469	81.6295	105.469	81.596	105.469	81.5914	105.469	81.5502	105.469	81.5457	105.469	81.5011	105.469	81.4969	105.469	81.4543	105.469	81.4507	105.469	81.4153	105.469	81.4128	105.469	81.3894	105.469	81.388	105.469	81.3798
108.398	81.6711	108.398	81.6738	108.398	81.676	108.398	81.6836	108.398	81.6881	108.398	81.6993	108.398	81.7058	108.398	81.7187	108.398	81.7269	108.398	81.739	108.398	81.7485	108.398	81.7568	108.398	81.7672	108.398	81.7689	108.398	81.7795	108.398	81.772	108.398	81.7823	108.398	81.7636	108.398	81.7732	108.398	81.7423	108.398	81.7507	108.398	81.7081	108.398	81.7149	108.398	81.6626	108.398	81.6677	108.398	81.6093	108.398	81.6128	108.398	81.553	108.398	81.5552	108.398	81.4999	108.398	81.501	108.398	81.4561	108.398	81.4566	108.398	81.4273	108.398	81.4274	108.398	81.4172
112.793	81.7766	112.793	81.7808	112.793	81.7788	112.793	81.791	112.793	81.7872	112.793	81.8058	112.793	81.8005	112.793	81.8231	112.793	81.8168	112.793	81.8401	112.793	81.8334	112.793	81.8537	112.793	81.847	112.793	81.8607	112.793	81.8544	112.793	81.858	112.793	81.8525	112.793	81.8431	112.793	81.8387	112.793	81.8148	112.793	81.8117	112.793	81.7734	112.793	81.7715	112.793	81.7207	112.793	81.7199	112.793	81.6606	112.793	81.6607	112.793	81.5984	112.793	81.5991	112.793	81.5405	112.793	81.5413	112.793	81.4933	112.793	81.494	112.793	81.4624	112.793	81.4629	112.793	81.4519
117.188	81.7943	117.188	81.8004	117.188	81.7949	117.188	81.8128	117.188	81.8018	117.188	81.83	117.188	81.8139	117.188	81.8499	117.188	81.8293	117.188	81.8698	117.188	81.8452	117.188	81.8861	117.188	81.8585	117.188	81.8953	117.188	81.8659	117.188	81.8942	117.188	81.8642	117.188	81.8799	117.188	81.8508	117.188	81.8511	117.188	81.8242	117.188	81.8078	117.188	81.7842	117.188	81.7522	117.188	81.7327	117.188	81.6883	117.188	81.6731	117.188	81.6218	117.188	81.6109	117.188	81.5597	117.188	81.5524	117.188	81.5088	117.188	81.5044	117.188	81.4751	117.188	81.4732	117.188	81.4628
120.117	81.7905	120.117	81.7955	120.117	81.7924	120.117	81.8067	120.117	81.8007	120.117	81.8228	120.117	81.8142	120.117	81.8416	120.117	81.8309	120.117	81.8605	120.117	81.848	120.117	81.8759	120.117	81.8623	120.117	81.8846	120.117	81.8703	120.117	81.8831	120.117	81.8687	120.117	81.8689	120.117	81.8548	120.117	81.8406	120.117	81.8271	120.117	81.7982	120.117	81.7858	120.117	81.7437	120.117	81.7328	120.117	81.6811	120.117	81.6717	120.117	81.6158	120.117	81.6082	120.117	81.5545	120.117	81.5489	120.117	81.5042	120.117	81.5005	120.117	81.4709	120.117	81.469	120.117	81.4587
124.512	81.7999	124.512	81.8014	124.512	81.8055	124.512	81.8098	124.512	81.8176	124.512	81.8237	124.512	81.835	124.512	81.841	124.512	81.8554	124.512	81.8589	124.512	81.876	124.512	81.8738	124.512	81.8933	124.512	81.8823	124.512	81.9039	124.512	81.8809	124.512	81.9043	124.512	81.8668	124.512	81.8916	124.512	81.8386	124.512	81.8644	124.512	81.7963	124.512	81.8224	124.512	81.7419	124.512	81.7674	124.512	81.6795	124.512	81.7033	124.512	81.6147	124.512	81.6358	124.512	81.5545	124.512	81.5717	124.512	81.5061	124.512	81.5182	124.512	81.4755	124.512	81.4817	124.512	81.4669
128.906	81.849	128.906	81.8475	128.906	81.8565	128.906	81.8517	128.906	81.8694	128.906	81.8606	128.906	81.8862	128.906	81.8723	128.906	81.9048	128.906	81.8842	128.906	81.9224	128.906	81.8932	128.906	81.9357	128.906	81.8956	128.906	81.9412	128.906	81.8883	128.906	81.9356	128.906	81.8684	128.906	81.9163	128.906	81.8345	128.906	81.8816	128.906	81.7868	128.906	81.8319	128.906	81.7274	128.906	81.7691	128.906	81.6605	128.906	81.6976	128.906	81.592	128.906	81.6232	128.906	81.529	128.906	81.5533	128.906	81.4787	128.906	81.4954	128.906	81.4473	128.906	81.4558	128.906	81.4392
133.301	81.8289	133.301	81.832	133.301	81.8312	133.301	81.8403	133.301	81.8388	133.301	81.8524	133.301	81.8506	133.301	81.8666	133.301	81.8646	133.301	81.8803	133.301	81.8784	133.301	81.8904	133.301	81.8888	133.301	81.8936	133.301	81.8923	133.301	81.8864	133.301	81.8855	133.301	81.8663	133.301	81.8656	133.301	81.8317	133.301	81.8312	133.301	81.7828	133.301	81.7822	133.301	81.7215	133.301	81.7209	133.301	81.652	133.301	81.6514	133.301	81.5802	133.301	81.5797	133.301	81.5134	133.301	81.513	133.301	81.4589	133.301	81.4586	133.301	81.4232	133.301	81.423	133.301	81.4107
139.16	81.7838	139.16	81.7891	139.16	81.7832	139.16	81.7988	139.16	81.7872	139.16	81.8119	139.16	81.7945	139.16	81.8267	139.16	81.8034	139.16	81.8407	139.16	81.8116	139.16	81.851	139.16	81.816	139.16	81.8542	139.16	81.8135	139.16	81.847	139.16	81.8009	139.16	81.8265	139.16	81.7756	139.16	81.7909	139.16	81.7362	139.16	81.7399	139.16	81.683	139.16	81.6753	139.16	81.6183	139.16	81.601	139.16	81.5465	139.16	81.5229	139.16	81.474	139.16	81.4484	139.16	81.4082	139.16	81.3854	139.16	81.3567	139.16	81.341	139.16	81.326	139.16	81.3204
143.555	81.7165	143.555	81.7187	143.555	81.7184	143.555	81.7247	143.555	81.7238	143.555	81.7336	143.555	81.7319	143.555	81.7441	143.555	81.741	143.555	81.7539	143.555	81.7487	143.555	81.7604	143.555	81.7522	143.555	81.7604	143.555	81.7482	143.555	81.7507	143.555	81.7338	143.555	81.7285	143.555	81.7062	143.555	81.6919	143.555	81.664	143.555	81.6405	143.555	81.6075	143.555	81.5758	143.555	81.5392	143.555	81.5016	143.555	81.4637	143.555	81.4237	143.555	81.3874	143.555	81.3494	143.555	81.3181	143.555	81.2867	143.555	81.2636	143.555	81.2429	143.555	81.2306	143.555	81.2234
147.949	81.7005	147.949	81.6999	147.949	81.7042	147.949	81.7022	147.949	81.7104	147.949	81.7067	147.949	81.7184	147.949	81.712	147.949	81.7266	147.949	81.7162	147.949	81.7329	147.949	81.7166	147.949	81.7346	147.949	81.7101	147.949	81.7286	147.949	81.6937	147.949	81.712	147.949	81.6647	147.949	81.6821	147.949	81.6215	147.949	81.6375	147.949	81.5641	147.949	81.5783	147.949	81.4946	147.949	81.5067	147.949	81.4171	147.949	81.427	147.949	81.3378	147.949	81.3456	147.949	81.2643	147.949	81.2701	147.949	81.2047	147.949	81.2085	147.949	81.1661	147.949	81.168	147.949	81.1532
153.809	81.6413	153.809	81.6424	153.809	81.6416	153.809	81.6448	153.809	81.6431	153.809	81.6478	153.809	81.6451	153.809	81.6504	153.809	81.6467	153.809	81.6508	153.809	81.6461	153.809	81.6466	153.809	81.6413	153.809	81.6348	153.809	81.6296	153.809	81.6126	153.809	81.6082	153.809	81.5774	153.809	81.5747	153.809	81.5278	153.809	81.5276	153.809	81.4641	153.809	81.4668	153.809	81.3888	153.809	81.3942	153.809	81.3064	153.809	81.314	153.809	81.2236	153.809	81.2322	153.809	81.1481	153.809	81.1563	153.809	81.0877	153.809	81.0941	153.809	81.0492	153.809	81.0528	153.809	81.0371
159.668	81.5495	159.668	81.5533	159.668	81.5466	159.668	81.5579	159.668	81.5441	159.668	81.5631	159.668	81.5417	159.668	81.5678	159.668	81.5385	159.668	81.5704	159.668	81.5332	159.668	81.5686	159.668	81.5241	159.668	81.5591	159.668	81.509	159.668	81.5391	159.668	81.4856	159.668	81.5059	159.668	81.4518	159.668	81.4582	159.668	81.4066	159.668	81.3962	159.668	81.35	159.668	81.3227	159.668	81.284	159.668	81.2423	159.668	81.2122	159.668	81.1615	159.668	81.14	159.668	81.0878	159.668	81.0738	159.668	81.0285	159.668	81.0205	159.668	80.9897	159.668	80.9862	159.668	80.9752
165.527	81.6492	165.527	81.6453	165.527	81.6533	165.527	81.6419	165.527	81.6574	165.527	81.6391	165.527	81.6609	165.527	81.6365	165.527	81.663	165.527	81.633	165.527	81.6622	165.527	81.6269	165.527	81.6565	165.527	81.6154	165.527	81.6435	165.527	81.5955	165.527	81.6204	165.527	81.5643	165.527	81.585	165.527	81.5203	165.527	81.5362	165.527	81.4631	165.527	81.4745	165.527	81.3949	165.527	81.4023	165.527	81.3198	165.527	81.3241	165.527	81.2438	165.527	81.246	165.527	81.1739	165.527	81.1748	165.527	81.1175	165.527	81.1177	165.527	81.0808	165.527	81.0808	165.527	81.068
171.387	81.5406	171.387	81.5324	171.387	81.547	171.387	81.523	171.387	81.5513	171.387	81.5129	171.387	81.5532	171.387	81.5022	171.387	81.5524	171.387	81.4904	171.387	81.5481	171.387	81.4762	171.387	81.5387	171.387	81.4571	171.387	81.522	171.387	81.4305	171.387	81.4954	171.387	81.3934	171.387	81.4564	171.387	81.3443	171.387	81.4035	171.387	81.2828	171.387	81.3367	171.387	81.2111	171.387	81.2584	171.387	81.1333	171.387	81.173	171.387	81.0555	171.387	81.0871	171.387	80.9848	171.387	81.0081	171.387	80.9286	171.387	80.9439	171.387	80.8935	171.387	80.901	171.387	80.8837
177.246	81.4383	177.246	81.4348	177.246	81.439	177.246	81.4281	177.246	81.4372	177.246	81.4183	177.246	81.4332	177.246	81.4051	177.246	81.427	177.246	81.3881	177.246	81.418	177.246	81.3663	177.246	81.4044	177.246	81.338	177.246	81.384	177.246	81.3012	177.246	81.3538	177.246	81.2538	177.246	81.3113	177.246	81.1947	177.246	81.2546	177.246	81.1243	177.246	81.1839	177.246	81.045	177.246	81.1013	177.246	80.961	177.246	81.0115	177.246	80.8786	177.246	80.921	177.246	80.805	177.246	80.8378	177.246	80.7475	177.246	80.7698	177.246	80.7124	177.246	80.7236	177.246	80.704
183.105	81.2972	183.105	81.3004	183.105	81.2886	183.105	81.2982	183.105	81.275	183.105	81.2911	183.105	81.2575	183.105	81.2793	183.105	81.237	183.105	81.2629	183.105	81.214	183.105	81.2413	183.105	81.1883	183.105	81.2132	183.105	81.1587	183.105	81.1768	183.105	81.123	183.105	81.1303	183.105	81.0789	183.105	81.0726	183.105	81.0247	183.105	81.0042	183.105	80.9603	183.105	80.9272	183.105	80.8876	183.105	80.8456	183.105	80.8105	183.105	80.7648	183.105	80.7348	183.105	80.6914	183.105	80.6674	183.105	80.6317	183.105	80.6149	183.105	80.5915	183.105	80.5828	183.105	80.5747
188.965	81.1938	188.965	81.1993	188.965	81.1818	188.965	81.1983	188.965	81.1638	188.965	81.1916	188.965	81.1408	188.965	81.18	188.965	81.1137	188.965	81.1642	188.965	81.0833	188.965	81.1442	188.965	81.0491	188.965	81.1191	188.965	81.0101	188.965	81.0871	188.965	80.9648	188.965	81.0457	188.965	80.9116	188.965	80.9934	188.965	80.8499	188.965	80.9295	188.965	80.7804	188.965	80.8553	188.965	80.706	188.965	80.7739	188.965	80.6313	188.965	80.6903	188.965	80.5622	188.965	80.6107	188.965	80.5052	188.965	80.5415	188.965	80.4661	188.965	80.4887	188.965	80.4494	188.965	80.4571
196.289	81.1464	196.289	81.1451	196.289	81.1399	196.289	81.1364	196.289	81.126	196.289	81.1212	196.289	81.1058	196.289	81.1003	196.289	81.0803	196.289	81.0744	196.289	81.0502	196.289	81.0436	196.289	81.0156	196.289	81.0067	196.289	80.9755	196.289	80.962	196.289	80.9282	196.289	80.9078	196.289	80.8717	196.289	80.8429	196.289	80.8047	196.289	80.7673	196.289	80.7275	196.289	80.6831	196.289	80.6424	196.289	80.5942	196.289	80.554	196.289	80.5063	196.289	80.4687	196.289	80.426	196.289	80.3938	196.289	80.3602	196.289	80.3365	196.289	80.3151	196.289	80.3024	196.289	80.2951
203.613	81.021	203.613	81.0118	203.613	81.0176	203.613	80.9907	203.613	81.0015	203.613	80.9594	203.613	80.9738	203.613	80.9204	203.613	80.9359	203.613	80.8761	203.613	80.8892	203.613	80.8279	203.613	80.835	203.613	80.776	203.613	80.7744	203.613	80.7192	203.613	80.7079	203.613	80.6556	203.613	80.6363	203.613	80.5838	203.613	80.5599	203.613	80.5039	203.613	80.4796	203.613	80.418	203.613	80.3973	203.613	80.3307	203.613	80.3156	203.613	80.2477	203.613	80.2384	203.613	80.1754	203.613	80.1706	203.613	80.1194	203.613	80.1175	203.613	80.084	203.613	80.0834	203.613	80.0718
210.938	81.1093	210.938	81.0872	210.938	81.1155	210.938	81.0493	210.938	81.1064	210.938	80.997	210.938	81.0835	210.938	80.9325	210.938	81.0484	210.938	80.8588	210.938	81.0024	210.938	80.779	210.938	80.9463	210.938	80.6956	210.938	80.8798	210.938	80.6103	210.938	80.8021	210.938	80.5237	210.938	80.7127	210.938	80.4357	210.938	80.6121	210.938	80.3466	210.938	80.5027	210.938	80.2576	210.938	80.3889	210.938	80.1716	210.938	80.2765	210.938	80.0927	210.938	80.1723	210.938	80.0259	210.938	80.0824	210.938	79.9762	210.938	80.0123	210.938	79.9479	210.938	79.9654	210.938	79.9438
218.262	80.8995	218.262	80.9003	218.262	80.8877	218.262	80.8896	218.262	80.8659	218.262	80.8672	218.262	80.8356	218.262	80.8333	218.262	80.7984	218.262	80.7879	218.262	80.7557	218.262	80.731	218.262	80.7082	218.262	80.6628	218.262	80.6562	218.262	80.5839	218.262	80.5991	218.262	80.4955	218.262	80.5366	218.262	80.4	218.262	80.468	218.262	80.3012	218.262	80.3936	218.262	80.2042	218.262	80.3147	218.262	80.1149	218.262	80.2335	218.262	80.039	218.262	80.1538	218.262	79.9813	218.262	80.0802	218.262	79.945	218.262	80.0173	218.262	79.9313	218.262	79.9694	218.262	79.9399
225.586	80.762	225.586	80.7732	225.586	80.738	225.586	80.7714	225.586	80.702	225.586	80.7567	225.586	80.6557	225.586	80.7292	225.586	80.6008	225.586	80.6894	225.586	80.5397	225.586	80.6375	225.586	80.4745	225.586	80.574	225.586	80.4074	225.586	80.4998	225.586	80.3403	225.586	80.4165	225.586	80.2751	225.586	80.3265	225.586	80.213	225.586	80.2335	225.586	80.1549	225.586	80.1418	225.586	80.1009	225.586	80.0571	225.586	80.0508	225.586	79.9847	225.586	80.0043	225.586	79.9294	225.586	79.962	225.586	79.8937	225.586	79.9254	225.586	79.8778	225.586	79.8969	225.586	79.8799
232.91	80.6712	232.91	80.6713	232.91	80.6528	232.91	80.6556	232.91	80.6154	232.91	80.6279	232.91	80.5606	232.91	80.5922	232.91	80.4913	232.91	80.5515	232.91	80.4112	232.91	80.5066	232.91	80.3238	232.91	80.4563	232.91	80.2322	232.91	80.3984	232.91	80.1393	232.91	80.3306	232.91	80.048	232.91	80.2527	232.91	79.9622	232.91	80.1669	232.91	79.8857	232.91	80.0778	232.91	79.822	232.91	79.9913	232.91	79.7732	232.91	79.9133	232.91	79.7398	232.91	79.8479	232.91	79.7207	232.91	79.7967	232.91	79.7143	232.91	79.7593	232.91	79.7189	232.91	79.7338
241.699	80.5721	241.699	80.555	241.699	80.5641	241.699	80.515	241.699	80.5315	241.699	80.4568	241.699	80.4764	241.699	80.3866	241.699	80.402	241.699	80.3111	241.699	80.3121	241.699	80.2354	241.699	80.2099	241.699	80.1617	241.699	80.0979	241.699	80.0884	241.699	79.9784	241.699	80.012	241.699	79.8546	241.699	79.9288	241.699	79.7312	241.699	79.8374	241.699	79.6145	241.699	79.7399	241.699	79.5118	241.699	79.6416	241.699	79.4289	241.699	79.5498	241.699	79.3691	241.699	79.4706	241.699	79.3322	241.699	79.4077	241.699	79.3157	241.699	79.3618	241.699	79.3162	241.699	79.3317
250.488	80.425	250.488	80.3995	250.488	80.4239	250.488	80.349	250.488	80.3971	250.488	80.2775	250.488	80.3473	250.488	80.1906	250.488	80.2781	250.488	80.0948	250.488	80.193	250.488	79.9963	250.488	80.095	250.488	79.8996	250.488	79.9862	250.488	79.807	250.488	79.8685	250.488	79.7184	250.488	79.745	250.488	79.6321	250.488	79.6202	250.488	79.5463	250.488	79.5004	250.488	79.4603	250.488	79.3921	250.488	79.3759	250.488	79.3006	250.488	79.2975	250.488	79.229	250.488	79.2302	250.488	79.1774	250.488	79.1785	250.488	79.1444	250.488	79.1444	250.488	79.1282	250.488	79.128
259.277	80.6552	259.277	80.6348	259.277	80.6395	259.277	80.579	259.277	80.5901	259.277	80.4917	259.277	80.5122	259.277	80.3798	259.277	80.4133	259.277	80.2523	259.277	80.3015	259.277	80.1194	259.277	80.1837	259.277	79.9904	259.277	80.0639	259.277	79.872	259.277	79.9431	259.277	79.7673	259.277	79.8204	259.277	79.6758	259.277	79.6956	259.277	79.5942	259.277	79.5712	259.277	79.5182	259.277	79.453	259.277	79.4444	259.277	79.348	259.277	79.3718	259.277	79.2628	259.277	79.3026	259.277	79.2011	259.277	79.2411	259.277	79.1642	259.277	79.1926	259.277	79.1515	259.277	79.1617
268.066	80.474	268.066	80.4652	268.066	80.4433	268.066	80.4191	268.066	80.3741	268.066	80.3414	268.066	80.2716	268.066	80.2399	268.066	80.1439	268.066	80.1228	268.066	80.0011	268.066	79.9982	268.066	79.8531	268.066	79.8723	268.066	79.7075	268.066	79.75	268.066	79.5685	268.066	79.6351	268.066	79.4373	268.066	79.5312	268.066	79.3137	268.066	79.4418	268.066	79.1993	268.066	79.3683	268.066	79.0992	268.066	79.3094	268.066	79.021	268.066	79.26	268.066	78.972	268.066	79.2138	268.066	78.9557	268.066	79.1652	268.066	78.9696	268.066	79.1123	268.066	79.0067	268.066	79.0573
276.855	80.4622	276.855	80.3971	276.855	80.4894	276.855	80.2962	276.855	80.4766	276.855	80.1622	276.855	80.4231	276.855	79.999	276.855	80.3301	276.855	79.8136	276.855	80.2012	276.855	79.6178	276.855	80.0424	276.855	79.4265	276.855	79.8623	276.855	79.2553	276.855	79.6724	276.855	79.116	276.855	79.4858	276.855	79.0128	276.855	79.315	276.855	78.9426	276.855	79.1693	276.855	78.8973	276.855	79.0524	276.855	78.8679	276.855	78.9635	276.855	78.8471	276.855	78.8991	276.855	78.8309	276.855	78.855	276.855	78.8183	276.855	78.8273	276.855	78.8102	276.855	78.8126	276.855	78.8077
287.109	80.4396	287.109	80.4611	287.109	80.3917	287.109	80.4539	287.109	80.3201	287.109	80.4155	287.109	80.2273	287.109	80.3433	287.109	80.116	287.109	80.2353	287.109	79.9889	287.109	80.0907	287.109	79.8481	287.109	79.912	287.109	79.6946	287.109	79.7068	287.109	79.5302	287.109	79.4883	287.109	79.3591	287.109	79.275	287.109	79.1903	287.109	79.0872	287.109	79.0356	287.109	78.9413	287.109	78.9065	287.109	78.8429	287.109	78.8095	287.109	78.7852	287.109	78.7446	287.109	78.7534	287.109	78.7069	287.109	78.7328	287.109	78.6905	287.109	78.7151	287.109	78.6897	287.109	78.6996
297.363	80.2437	297.363	80.2276	297.363	80.2149	297.363	80.1657	297.363	80.1482	297.363	80.0649	297.363	80.0527	297.363	79.9383	297.363	79.9361	297.363	79.8005	297.363	79.802	297.363	79.6621	297.363	79.6505	297.363	79.5265	297.363	79.4819	297.363	79.3897	297.363	79.3	297.363	79.2453	297.363	79.1148	297.363	79.0914	297.363	78.942	297.363	78.936	297.363	78.7993	297.363	78.7978	297.363	78.7001	297.363	78.6986	297.363	78.6486	297.363	78.6516	297.363	78.6388	297.363	78.6522	297.363	78.6573	297.363	78.68	297.363	78.6876	297.363	78.7097	297.363	78.7136	297.363	78.7228
307.617	80.351	307.617	80.2932	307.617	80.3617	307.617	80.1947	307.617	80.3238	307.617	80.066	307.617	80.2416	307.617	79.9197	307.617	80.1233	307.617	79.7682	307.617	79.979	307.617	79.6219	307.617	79.818	307.617	79.4868	307.617	79.6462	307.617	79.3641	307.617	79.4662	307.617	79.2501	307.617	79.2795	307.617	79.1377	307.617	79.0907	307.617	79.0204	307.617	78.9106	307.617	78.8961	307.617	78.7551	307.617	78.7713	307.617	78.6395	307.617	78.6602	307.617	78.5703	307.617	78.5787	307.617	78.5406	307.617	78.5345	307.617	78.5336	307.617	78.522	307.617	78.5316	307.617	78.5261
319.336	80.1543	319.336	80.1053	319.336	80.1486	319.336	80.0012	319.336	80.0929	319.336	79.8458	319.336	79.9959	319.336	79.6468	319.336	79.8681	319.336	79.4155	319.336	79.72	319.336	79.1669	319.336	79.5599	319.336	78.9198	319.336	79.3937	319.336	78.6959	319.336	79.2248	319.336	78.5159	319.336	79.0561	319.336	78.3936	319.336	78.8922	319.336	78.3301	319.336	78.742	319.336	78.3122	319.336	78.617	319.336	78.32	319.336	78.5269	319.336	78.3367	319.336	78.4729	319.336	78.3539	319.336	78.4466	319.336	78.3709	319.336	78.4338	319.336	78.3889	319.336	78.4223	319.336	78.4071
329.59	80.088	329.59	80.0503	329.59	80.0706	329.59	79.9631	329.59	79.9967	329.59	79.8321	329.59	79.8707	329.59	79.6628	329.59	79.7032	329.59	79.4601	329.59	79.5074	329.59	79.2299	329.59	79.2949	329.59	78.9796	329.59	79.0744	329.59	78.7196	329.59	78.8522	329.59	78.4668	329.59	78.6352	329.59	78.2463	329.59	78.4321	329.59	78.0871	329.59	78.2541	329.59	78.0095	329.59	78.1139	329.59	78.0117	329.59	78.0231	329.59	78.0679	329.59	77.9883	329.59	78.1398	329.59	78.0057	329.59	78.1934	329.59	78.0597	329.59	78.209	329.59	78.1272	329.59	78.1835
341.309	79.9561	341.309	79.9455	341.309	79.9047	341.309	79.8714	341.309	79.7991	341.309	79.7395	341.309	79.6517	341.309	79.5607	341.309	79.4763	341.309	79.3485	341.309	79.2852	341.309	79.1154	341.309	79.0876	341.309	78.8699	341.309	78.8904	341.309	78.6175	341.309	78.7002	341.309	78.3639	341.309	78.5247	341.309	78.1204	341.309	78.3722	341.309	77.9067	341.309	78.2501	341.309	77.7489	341.309	78.1623	341.309	77.6692	341.309	78.1088	341.309	77.6732	341.309	78.0848	341.309	77.7439	341.309	78.0807	341.309	77.8482	341.309	78.0815	341.309	77.951	341.309	78.0689	341.309	78.0274
353.027	80.0899	353.027	80.0753	353.027	80.0346	353.027	79.9916	353.027	79.9093	353.027	79.8415	353.027	79.7172	353.027	79.6329	353.027	79.4687	353.027	79.3817	353.027	79.1815	353.027	79.1096	353.027	78.8749	353.027	78.8382	353.027	78.5636	353.027	78.5834	353.027	78.256	353.027	78.352	353.027	77.9602	353.027	78.1445	353.027	77.6928	353.027	77.9597	353.027	77.48	353.027	77.7988	353.027	77.3475	353.027	77.6678	353.027	77.3051	353.027	77.576	353.027	77.338	353.027	77.5304	353.027	77.4128	353.027	77.5267	353.027	77.4913	353.027	77.5459	353.027	77.5443	353.027	77.5597
366.211	79.7889	366.211	79.7551	366.211	79.7748	366.211	79.6745	366.211	79.7173	366.211	79.5531	366.211	79.6241	366.211	79.3982	366.211	79.5022	366.211	79.2156	366.211	79.3557	366.211	79.008	366.211	79.1852	366.211	78.7762	366.211	78.9872	366.211	78.5201	366.211	78.7561	366.211	78.2431	366.211	78.4891	366.211	77.957	366.211	78.1938	366.211	77.6846	366.211	77.8913	366.211	77.4547	366.211	77.6109	366.211	77.2866	366.211	77.3771	366.211	77.1782	366.211	77.1994	366.211	77.1083	366.211	77.0753	366.211	77.0543	366.211	76.9989	366.211	77.0068	366.211	76.9665	366.211	76.9728
379.395	80.011	379.395	79.9699	379.395	79.9809	379.395	79.8589	379.395	79.889	379.395	79.6883	379.395	79.752	379.395	79.4755	379.395	79.5876	379.395	79.2408	379.395	79.4071	379.395	79.0034	379.395	79.2122	379.395	78.7756	379.395	78.999	379.395	78.5571	379.395	78.7651	379.395	78.3367	379.395	78.5147	379.395	78.1003	379.395	78.2569	379.395	77.8431	379.395	78.0032	379.395	77.5787	379.395	77.7669	379.395	77.3387	379.395	77.5631	379.395	77.1598	379.395	77.4063	379.395	77.065	379.395	77.3012	379.395	77.05	379.395	77.2361	379.395	77.086	379.395	77.1885	379.395	77.139
392.578	79.4033	392.578	79.3984	392.578	79.3655	392.578	79.3585	392.578	79.2825	392.578	79.2903	392.578	79.1633	392.578	79.1953	392.578	79.0294	392.578	79.0708	392.578	78.9067	392.578	78.9145	392.578	78.8112	392.578	78.7299	392.578	78.7374	392.578	78.5276	392.578	78.6607	392.578	78.3196	392.578	78.5515	392.578	78.1137	392.578	78.3893	392.578	77.9106	392.578	78.1703	392.578	77.708	392.578	77.9081	392.578	77.5068	392.578	77.631	392.578	77.3148	392.578	77.3726	392.578	77.145	392.578	77.1608	392.578	77.0116	392.578	77.0102	392.578	76.9262	392.578	76.9228	392.578	76.8956
405.762	78.8352	405.762	78.7354	405.762	78.8486	405.762	78.5649	405.762	78.7743	405.762	78.3581	405.762	78.6252	405.762	78.1661	405.762	78.4325	405.762	78.0408	405.762	78.248	405.762	78.011	405.762	78.1313	405.762	78.0688	405.762	78.1205	405.762	78.1757	405.762	78.2057	405.762	78.2812	405.762	78.3326	405.762	78.3381	405.762	78.4331	405.762	78.3119	405.762	78.4549	405.762	78.1876	405.762	78.3764	405.762	77.9744	405.762	78.2054	405.762	77.7077	405.762	77.9701	405.762	77.4423	405.762	77.7085	405.762	77.2357	405.762	77.4593	405.762	77.1303	405.762	77.2593	405.762	77.1412
420.41	80.0579	420.41	79.9977	420.41	79.8904	420.41	79.7053	420.41	79.5136	420.41	79.1927	420.41	78.9612	420.41	78.5007	420.41	78.2865	420.41	77.7237	420.41	77.5721	420.41	77.0373	420.41	76.9451	420.41	76.6709	420.41	76.5742	420.41	76.7628	420.41	76.5952	420.41	77.2325	420.41	76.9947	420.41	77.8653	420.41	77.6044	420.41	78.4742	420.41	78.2265	420.41	78.9567	420.41	78.731	420.41	79.2777	420.41	79.0698	420.41	79.445	420.41	79.2537	420.41	79.4925	420.41	79.3265	420.41	79.4664	420.41	79.3417	420.41	79.4131	420.41	79.3459	420.41	79.3675
435.059	81.3826	435.059	81.2698	435.059	81.3451	435.059	81.0166	435.059	81.1481	435.059	80.6261	435.059	80.7883	435.059	80.0903	435.059	80.2662	435.059	79.398	435.059	79.5839	435.059	78.5563	435.059	78.7501	435.059	77.6237	435.059	77.8044	435.059	76.7453	435.059	76.8674	435.059	76.1534	435.059	76.1834	435.059	76.058	435.059	76.0282	435.059	76.469	435.059	76.4502	435.059	77.1939	435.059	77.216	435.059	78.0122	435.059	78.0586	435.059	78.7801	435.059	78.8257	435.059	79.4235	435.059	79.4551	435.059	79.9044	435.059	79.921	435.059	80.2013	435.059	80.2076	435.059	80.3031
451.172	81.5564	451.172	81.4968	451.172	81.4801	451.172	81.3017	451.172	81.2674	451.172	80.9657	451.172	80.9219	451.172	80.4751	451.172	80.4522	451.172	79.8146	451.172	79.8684	451.172	78.9821	451.172	79.1798	451.172	78.0131	451.172	78.4	451.172	77.0138	451.172	77.5686	451.172	76.1899	451.172	76.7848	451.172	75.799	451.172	76.2276	451.172	75.963	451.172	76.0938	451.172	76.5398	451.172	76.434	451.172	77.2654	451.172	77.0773	451.172	77.9365	451.172	77.7719	451.172	78.4534	451.172	78.343	451.172	78.7915	451.172	78.7284	451.172	78.9688	451.172	78.9403	451.172	79.0143
465.82	81.3985	465.82	81.2888	465.82	81.3932	465.82	81.0674	465.82	81.2705	465.82	80.7433	465.82	81.0235	465.82	80.3296	465.82	80.6418	465.82	79.8364	465.82	80.1184	465.82	79.2638	465.82	79.4581	465.82	78.6051	465.82	78.6842	465.82	77.8672	465.82	77.8482	465.82	77.105	465.82	77.0461	465.82	76.4528	465.82	76.4255	465.82	76.0956	465.82	76.1394	465.82	76.1384	465.82	76.2426	465.82	76.5034	465.82	76.6445	465.82	77.0139	465.82	77.1828	465.82	77.5268	465.82	77.7112	465.82	77.962	465.82	78.1278	465.82	78.2717	465.82	78.3717	465.82	78.4177
483.398	81.5561	483.398	81.543	483.398	81.4773	483.398	81.43	483.398	81.3035	483.398	81.2053	483.398	81.022	483.398	80.8586	483.398	80.6197	483.398	80.3779	483.398	80.0912	483.398	79.7441	483.398	79.4375	483.398	78.9353	483.398	78.6655	483.398	77.9542	483.398	77.806	483.398	76.8859	483.398	76.957	483.398	75.9684	483.398	76.3161	483.398	75.5511	483.398	76.1009	483.398	75.7983	483.398	76.3548	483.398	76.4923	483.398	76.899	483.398	77.2919	483.398	77.5089	483.398	77.9789	483.398	78.0453	483.398	78.4667	483.398	78.4523	483.398	78.7404	483.398	78.7127	483.398	78.8148
499.512	81.1844	499.512	81.1011	499.512	81.196	499.512	80.9678	499.512	81.1074	499.512	80.782	499.512	80.8999	499.512	80.517	499.512	80.5678	499.512	80.138	499.512	80.1057	499.512	79.6223	499.512	79.4951	499.512	78.971	499.512	78.7061	499.512	78.2121	499.512	77.7251	499.512	77.4067	499.512	76.6085	499.512	76.6689	499.512	75.5583	499.512	76.1745	499.512	74.9412	499.512	76.0885	499.512	75.0384	499.512	76.4154	499.512	75.7048	499.512	76.9738	499.512	76.5506	499.512	77.5466	499.512	77.3012	499.512	77.9944	499.512	77.8533	499.512	78.2587	499.512	78.1916	499.512	78.325
517.09	81.5233	517.09	81.4005	517.09	81.6131	517.09	81.2364	517.09	81.6537	517.09	80.9904	517.09	81.6264	517.09	80.6099	517.09	81.5187	517.09	80.0644	517.09	81.3151	517.09	79.3615	517.09	80.9853	517.09	78.537	517.09	80.4834	517.09	77.6344	517.09	79.7635	517.09	76.7106	517.09	78.8052	517.09	75.8928	517.09	77.6541	517.09	75.4254	517.09	76.4882	517.09	75.5354	517.09	75.6739	517.09	76.1651	517.09	75.603	517.09	77.022	517.09	76.2717	517.09	77.8485	517.09	77.2661	517.09	78.5067	517.09	78.1792	517.09	78.9222	517.09	78.792	517.09	79.0346
536.133	80.9544	536.133	80.9961	536.133	80.8418	536.133	80.9604	536.133	80.6835	536.133	80.8633	536.133	80.495	536.133	80.7181	536.133	80.2638	536.133	80.51	536.133	79.9638	536.133	80.1866	536.133	79.5823	536.133	79.6733	536.133	79.124	536.133	78.9047	536.133	78.5999	536.133	77.8732	536.133	78.0259	536.133	76.6923	536.133	77.4505	536.133	75.6474	536.133	76.9867	536.133	75.1106	536.133	76.7769	536.133	75.2397	536.133	76.8767	536.133	75.8337	536.133	77.1969	536.133	76.5808	536.133	77.5852	536.133	77.266	536.133	77.9134	536.133	77.7755	536.133	78.0909	536.133	78.0546
555.176	81.9227	555.176	81.8519	555.176	81.899	555.176	81.6979	555.176	81.795	555.176	81.4881	555.176	81.6207	555.176	81.2218	555.176	81.3618	555.176	80.8551	555.176	80.992	555.176	80.3463	555.176	80.4917	555.176	79.7066	555.176	79.8399	555.176	78.9852	555.176	79.0038	555.176	78.1999	555.176	77.965	555.176	77.3166	555.176	76.7902	555.176	76.3576	555.176	75.7057	555.176	75.567	555.176	75.0614	555.176	75.3579	555.176	75.0505	555.176	75.8292	555.176	75.517	555.176	76.6039	555.176	76.1846	555.176	77.2847	555.176	76.8572	555.176	77.6693	555.176	77.3999	555.176	77.6985
574.219	81.6761	574.219	81.6962	574.219	81.5737	574.219	81.6139	574.219	81.4089	574.219	81.4191	574.219	81.2035	574.219	81.1294	574.219	80.9591	574.219	80.7699	574.219	80.6326	574.219	80.3213	574.219	80.1703	574.219	79.7193	574.219	79.5723	574.219	78.9361	574.219	78.9017	574.219	78.0608	574.219	78.2214	574.219	77.2752	574.219	77.5554	574.219	76.7072	574.219	76.9522	574.219	76.3834	574.219	76.5505	574.219	76.3562	574.219	76.4831	574.219	76.6748	574.219	76.7195	574.219	77.2043	574.219	77.1046	574.219	77.6909	574.219	77.4981	574.219	77.9645	574.219	77.8145	574.219	77.9911
594.727	81.8753	594.727	81.7852	594.727	81.8838	594.727	81.6373	594.727	81.7549	594.727	81.4053	594.727	81.461	594.727	81.046	594.727	81.0316	594.727	80.5483	594.727	80.5127	594.727	79.9481	594.727	79.9079	594.727	79.2785	594.727	79.194	594.727	78.5046	594.727	78.3861	594.727	77.5681	594.727	77.5304	594.727	76.5571	594.727	76.6481	594.727	75.7928	594.727	75.8438	594.727	75.5556	594.727	75.5061	594.727	75.7916	594.727	75.9459	594.727	76.3524	594.727	76.8232	594.727	77.1272	594.727	77.6404	594.727	77.9075	594.727	78.2165	594.727	78.455	594.727	78.5585	594.727	78.6604
615.234	82.0272	615.234	81.9961	615.234	81.9864	615.234	81.89	615.234	81.8884	615.234	81.728	615.234	81.7217	615.234	81.5086	615.234	81.4521	615.234	81.1776	615.234	81.0594	615.234	80.66	615.234	80.5339	615.234	79.9114	615.234	79.8294	615.234	78.9223	615.234	78.85	615.234	77.6926	615.234	77.5262	615.234	76.2782	615.234	75.9746	615.234	74.9712	615.234	74.6496	615.234	74.3654	615.234	74.1229	615.234	74.7046	615.234	74.4438	615.234	75.4789	615.234	75.2285	615.234	76.2018	615.234	76.1665	615.234	76.7679	615.234	77.0029	615.234	77.2276	615.234	77.4894	615.234	77.5275
637.207	81.7694	637.207	81.7133	637.207	81.7532	637.207	81.5667	637.207	81.7045	637.207	81.3524	637.207	81.6051	637.207	81.0725	637.207	81.3838	637.207	80.6853	637.207	81.0123	637.207	80.1638	637.207	80.5335	637.207	79.5426	637.207	79.9773	637.207	78.8778	637.207	79.2945	637.207	78.136	637.207	78.3988	637.207	77.1569	637.207	77.2598	637.207	75.8587	637.207	75.9957	637.207	74.6831	637.207	74.954	637.207	74.5817	637.207	74.5854	637.207	75.5581	637.207	74.9991	637.207	76.7231	637.207	75.8506	637.207	77.5827	637.207	76.7564	637.207	77.9956	637.207	77.4979	637.207	77.9463
659.18	81.1371	659.18	81.0865	659.18	81.1039	659.18	80.9763	659.18	80.9942	659.18	80.8519	659.18	80.8427	659.18	80.7225	659.18	80.6787	659.18	80.5075	659.18	80.4723	659.18	80.1027	659.18	80.1337	659.18	79.4984	659.18	79.5775	659.18	78.7547	659.18	78.7712	659.18	77.8648	659.18	77.7236	659.18	76.7746	659.18	76.4609	659.18	75.606	659.18	75.0997	659.18	74.772	659.18	74.0833	659.18	74.6876	659.18	74.0611	659.18	75.3027	659.18	74.9008	659.18	76.161	659.18	75.8665	659.18	76.8513	659.18	76.5848	659.18	77.2079	659.18	77.0309	659.18	77.2454
682.617	80.898	682.617	80.9469	682.617	80.8168	682.617	80.9463	682.617	80.7218	682.617	80.8577	682.617	80.5836	682.617	80.6335	682.617	80.3253	682.617	80.2937	682.617	79.9222	682.617	79.8655	682.617	79.4275	682.617	79.2627	682.617	78.8622	682.617	78.3734	682.617	78.1416	682.617	77.2306	682.617	77.1729	682.617	75.9658	682.617	76.0409	682.617	74.6343	682.617	74.9982	682.617	73.4874	682.617	74.236	682.617	73.2641	682.617	73.983	682.617	74.0018	682.617	74.5655	682.617	75.0095	682.617	75.7168	682.617	76.0156	682.617	76.7662	682.617	76.8838	682.617	77.3533	682.617	77.3837
707.52	81.8602	707.52	81.8018	707.52	81.8341	707.52	81.577	707.52	81.7663	707.52	81.2438	707.52	81.6188	707.52	80.9503	707.52	81.3848	707.52	80.7048	707.52	81.0739	707.52	80.3956	707.52	80.627	707.52	79.9767	707.52	79.9941	707.52	79.4414	707.52	79.1894	707.52	78.6453	707.52	78.1298	707.52	77.3476	707.52	76.5944	707.52	75.3537	707.52	74.5762	707.52	72.8319	707.52	72.738	707.52	71.5213	707.52	72.077	707.52	72.9232	707.52	72.884	707.52	74.6954	707.52	74.5599	707.52	75.7653	707.52	76.1246	707.52	76.4567	707.52	76.957	707.52	76.9576
732.422	81.6059	732.422	81.5536	732.422	81.5794	732.422	81.3987	732.422	81.4803	732.422	81.1323	732.422	81.3122	732.422	80.8279	732.422	81.0908	732.422	80.5468	732.422	80.8415	732.422	80.1935	732.422	80.5408	732.422	79.6646	732.422	80.1038	732.422	78.9879	732.422	79.4395	732.422	78.1421	732.422	78.4885	732.422	77.0379	732.422	77.2486	732.422	75.7608	732.422	75.7985	732.422	74.5806	732.422	74.4011	732.422	73.8803	732.422	73.6322	732.422	74.0558	732.422	73.8487	732.422	74.8537	732.422	74.5998	732.422	75.6914	732.422	75.3835	732.422	76.246	732.422	76.013	732.422	76.3498
757.324	81.6513	757.324	81.5941	757.324	81.5756	757.324	81.4136	757.324	81.4179	757.324	81.1637	757.324	81.2278	757.324	80.878	757.324	80.9849	757.324	80.5733	757.324	80.6551	757.324	80.2887	757.324	80.236	757.324	79.9877	757.324	79.7211	757.324	79.5251	757.324	79.1387	757.324	78.7822	757.324	78.5116	757.324	77.7201	757.324	77.6745	757.324	76.3843	757.324	76.3358	757.324	74.9356	757.324	74.5077	757.324	73.7119	757.324	73.1483	757.324	73.5508	757.324	73.4069	757.324	74.6287	757.324	74.5199	757.324	75.7189	757.324	75.5564	757.324	76.2801	757.324	76.2381	757.324	76.4547
785.156	81.4943	785.156	81.5982	785.156	81.3847	785.156	81.5849	785.156	81.2494	785.156	81.4194	785.156	81.0589	785.156	81.2189	785.156	80.8454	785.156	81.0221	785.156	80.5813	785.156	80.7249	785.156	80.2798	785.156	80.1784	785.156	80.0068	785.156	79.3823	785.156	79.6358	785.156	78.5974	785.156	78.9811	785.156	77.8398	785.156	78.1951	785.156	76.6329	785.156	77.5826	785.156	75.058	785.156	76.8797	785.156	74.3711	785.156	75.6528	785.156	74.6891	785.156	74.5467	785.156	75.1431	785.156	74.5802	785.156	75.7006	785.156	75.1332	785.156	76.1775	785.156	75.6917	785.156	76.1617
811.523	81.2944	811.523	81.2915	811.523	81.1642	811.523	81.1438	811.523	80.971	811.523	80.887	811.523	80.7819	811.523	80.5749	811.523	80.5751	811.523	80.2487	811.523	80.2524	811.523	79.9303	811.523	79.7701	811.523	79.5261	811.523	79.2594	811.523	78.7563	811.523	78.8596	811.523	77.5263	811.523	78.3591	811.523	76.2098	811.523	77.3866	811.523	74.9287	811.523	75.9911	811.523	73.6742	811.523	74.9456	811.523	73.3346	811.523	74.8426	811.523	74.1407	811.523	75.1772	811.523	75.3155	811.523	75.7221	811.523	76.3926	811.523	76.4675	811.523	77.0971	811.523	77.0801	811.523	77.3177
840.82	82.0734	840.82	82.109	840.82	81.9048	840.82	81.9664	840.82	81.6407	840.82	81.7277	840.82	81.3579	840.82	81.4846	840.82	81.1865	840.82	81.2323	840.82	81.0824	840.82	80.9705	840.82	80.8521	840.82	80.5666	840.82	80.3726	840.82	79.804	840.82	79.7829	840.82	78.8247	840.82	79.3239	840.82	77.9719	840.82	78.8595	840.82	76.8792	840.82	77.9935	840.82	75.2247	840.82	76.5702	840.82	74.6119	840.82	75.3471	840.82	75.4039	840.82	75.4874	840.82	75.944	840.82	76.0898	840.82	76.5543	840.82	76.3156	840.82	77.274	840.82	76.717	840.82	77.3008
870.117	78.1389	870.117	77.7946	870.117	78.1861	870.117	76.2442	870.117	78.1759	870.117	74.1476	870.117	77.7049	870.117	73.3466	870.117	76.7344	870.117	72.0389	870.117	75.5257	870.117	70.1124	870.117	74.9734	870.117	70.6568	870.117	75.2716	870.117	70.129	870.117	75.5356	870.117	65.0041	870.117	75.4936	870.117	60.6183	870.117	75.128	870.117	65.1267	870.117	74.8867	870.117	66.1563	870.117	75.0195	870.117	68.628	870.117	74.3835	870.117	71.3403	870.117	71.7639	870.117	73.1922	870.117	67.5951	870.117	73.1653	870.117	66.1126	870.117	72.6545	870.117	69.6218	870.117	71.9876
900.879	81.4946	900.879	81.1854	900.879	81.8786	900.879	80.8752	900.879	82.1588	900.879	80.2763	900.879	82.3161	900.879	79.7925	900.879	82.2484	900.879	79.9341	900.879	81.7544	900.879	79.8308	900.879	81.0306	900.879	78.9499	900.879	80.4138	900.879	78.4346	900.879	79.8245	900.879	78.2526	900.879	78.8637	900.879	77.1101	900.879	77.1064	900.879	74.8278	900.879	74.9369	900.879	71.8638	900.879	72.8002	900.879	68.0209	900.879	70.5983	900.879	67.4076	900.879	71.2201	900.879	70.5415	900.879	73.0227	900.879	73.6519	900.879	73.2586	900.879	75.7335	900.879	73.9938	900.879	75.5898
933.105	81.4084	933.105	81.5469	933.105	81.3065	933.105	81.1383	933.105	81.4818	933.105	80.7253	933.105	81.4062	933.105	80.9922	933.105	80.9566	933.105	81.1523	933.105	80.4366	933.105	80.7871	933.105	79.8874	933.105	80.3557	933.105	79.0616	933.105	79.7592	933.105	77.8789	933.105	78.5909	933.105	76.3362	933.105	77.0234	933.105	74.1819	933.105	75.4379	933.105	71.7654	933.105	73.515	933.105	69.6062	933.105	71.0351	933.105	65.6785	933.105	70.5387	933.105	62.8511	933.105	72.4835	933.105	67.8564	933.105	73.4691	933.105	70.9362	933.105	74.1957	933.105	73.6503	933.105	74.7924
965.332	81.8193	965.332	81.4708	965.332	82.255	965.332	81.2226	965.332	82.3632	965.332	80.4216	965.332	82.09	965.332	79.3559	965.332	81.5262	965.332	78.7503	965.332	80.9964	965.332	78.3113	965.332	80.6564	965.332	78.1345	965.332	80.3724	965.332	78.39	965.332	80.0829	965.332	78.4381	965.332	79.3358	965.332	77.9066	965.332	77.9185	965.332	76.7471	965.332	76.6782	965.332	75.027	965.332	75.8343	965.332	74.4024	965.332	74.5959	965.332	75.0827	965.332	74.6759	965.332	75.6449	965.332	75.953	965.332	76.7368	965.332	76.7607	965.332	77.6649	965.332	77.352	965.332	77.8086
1,000.49	81.85	1,000.49	82.0476	1,000.49	81.7226	1,000.49	81.7219	1,000.49	81.565	1,000.49	81.0488	1,000.49	81.0065	1,000.49	81.1491	1,000.49	80.1631	1,000.49	81.2331	1,000.49	79.5734	1,000.49	80.773	1,000.49	79.1374	1,000.49	80.8715	1,000.49	77.9428	1,000.49	80.5858	1,000.49	75.9131	1,000.49	78.8898	1,000.49	72.9747	1,000.49	77.2903	1,000.49	66.273	1,000.49	76.3284	1,000.49	52.8539	1,000.49	75.4828	1,000.49	62.6517	1,000.49	76.6437	1,000.49	67.6102	1,000.49	78.4753	1,000.49	73.49	1,000.49	79.6619	1,000.49	76.4726	1,000.49	79.8476	1,000.49	77.9352	1,000.49	80.0822	1,000.49	79.634	1,000.49	80.4819
1,035.64	80.9743	1,035.64	80.4618	1,035.64	81.3915	1,035.64	79.792	1,035.64	81.3634	1,035.64	78.5651	1,035.64	80.7574	1,035.64	77.7166	1,035.64	79.7416	1,035.64	78.4127	1,035.64	79.1321	1,035.64	78.6747	1,035.64	80.0192	1,035.64	78.4402	1,035.64	81.1193	1,035.64	79.2409	1,035.64	81.515	1,035.64	78.9804	1,035.64	81.7731	1,035.64	76.5855	1,035.64	80.8149	1,035.64	74.4016	1,035.64	77.2049	1,035.64	71.6285	1,035.64	72.1365	1,035.64	72.8081	1,035.64	63.9104	1,035.64	77.5204	1,035.64	70.466	1,035.64	79.9625	1,035.64	77.2606	1,035.64	81.6986	1,035.64	80.0308	1,035.64	82.8258	1,035.64	81.7884	1,035.64	82.876
1,072.27	83.6036	1,072.27	83.6653	1,072.27	83.2022	1,072.27	83.4245	1,072.27	82.4521	1,072.27	82.0954	1,072.27	81.599	1,072.27	80.4183	1,072.27	80.0182	1,072.27	80.4841	1,072.27	79.1632	1,072.27	81.2026	1,072.27	80.3568	1,072.27	81.9521	1,072.27	81.4171	1,072.27	82.6708	1,072.27	82.314	1,072.27	82.0769	1,072.27	82.3653	1,072.27	79.4369	1,072.27	80.6238	1,072.27	74.3816	1,072.27	76.4293	1,072.27	66.4605	1,072.27	66.5725	1,072.27	77.1683	1,072.27	69.1332	1,072.27	82.1516	1,072.27	77.8894	1,072.27	84.2585	1,072.27	81.5246	1,072.27	85.1687	1,072.27	83.382	1,072.27	85.7488	1,072.27	84.8263	1,072.27	85.7529
1,108.89	83.2768	1,108.89	82.3698	1,108.89	83.3659	1,108.89	81.7196	1,108.89	82.6333	1,108.89	81.1995	1,108.89	81.7211	1,108.89	79.1416	1,108.89	80.6183	1,108.89	76.0588	1,108.89	78.6506	1,108.89	76.3711	1,108.89	78.6654	1,108.89	78.4378	1,108.89	81.7557	1,108.89	80.2496	1,108.89	83.8084	1,108.89	81.0797	1,108.89	84.7614	1,108.89	79.9896	1,108.89	84.2628	1,108.89	77.0808	1,108.89	81.5963	1,108.89	71.0385	1,108.89	76.4918	1,108.89	69.0432	1,108.89	69.7823	1,108.89	78.6634	1,108.89	75.3636	1,108.89	82.2803	1,108.89	80.3853	1,108.89	84.1431	1,108.89	83.0737	1,108.89	85.0966	1,108.89	84.3563	1,108.89	85.0117
1,148.44	82.6019	1,148.44	82.5875	1,148.44	82.1294	1,148.44	82.0293	1,148.44	81.6649	1,148.44	81.2004	1,148.44	81.2944	1,148.44	79.6819	1,148.44	79.8819	1,148.44	76.2676	1,148.44	75.7678	1,148.44	72.5449	1,148.44	71.68	1,148.44	73.2359	1,148.44	76.3219	1,148.44	78.2151	1,148.44	81.3885	1,148.44	80.9168	1,148.44	84.0945	1,148.44	80.6536	1,148.44	83.816	1,148.44	78.4692	1,148.44	81.3317	1,148.44	75.5806	1,148.44	78.1351	1,148.44	77.3568	1,148.44	76.7283	1,148.44	82.1023	1,148.44	79.1968	1,148.44	84.7311	1,148.44	81.8241	1,148.44	86.58	1,148.44	84.2728	1,148.44	87.2289	1,148.44	85.9074	1,148.44	86.7044
1,189.45	84.1537	1,189.45	84.6695	1,189.45	83.5509	1,189.45	85.0054	1,189.45	82.9686	1,189.45	84.9882	1,189.45	82.7911	1,189.45	84.4947	1,189.45	82.7883	1,189.45	82.7621	1,189.45	81.2809	1,189.45	79.0414	1,189.45	76.3698	1,189.45	73.9055	1,189.45	65.9224	1,189.45	73.0526	1,189.45	77.0698	1,189.45	79.6822	1,189.45	81.4993	1,189.45	82.8043	1,189.45	81.472	1,189.45	82.5856	1,189.45	80.1421	1,189.45	81.4653	1,189.45	80.7738	1,189.45	80.3346	1,189.45	81.102	1,189.45	81.248	1,189.45	79.7444	1,189.45	82.2199	1,189.45	79.7713	1,189.45	84.1376	1,189.45	81.349	1,189.45	84.829	1,189.45	82.8204	1,189.45	83.7473
1,230.47	81.2586	1,230.47	81.9568	1,230.47	80.9355	1,230.47	82.1214	1,230.47	80.5224	1,230.47	81.7842	1,230.47	80.0902	1,230.47	81.4371	1,230.47	80.044	1,230.47	80.3908	1,230.47	79.6222	1,230.47	78.8457	1,230.47	77.7243	1,230.47	76.4717	1,230.47	73.9162	1,230.47	74.2288	1,230.47	69.6445	1,230.47	76.7691	1,230.47	73.591	1,230.47	79.9734	1,230.47	78.1934	1,230.47	81.0563	1,230.47	79.0025	1,230.47	80.5333	1,230.47	78.776	1,230.47	79.0926	1,230.47	78.5759	1,230.47	76.7967	1,230.47	75.4111	1,230.47	75.4471	1,230.47	70.1519	1,230.47	76.7623	1,230.47	73.0977	1,230.47	77.3913	1,230.47	75.6092	1,230.47	76.3479
1,274.41	83.3196	1,274.41	83.2529	1,274.41	83.0973	1,274.41	83.3625	1,274.41	82.9608	1,274.41	83.1807	1,274.41	82.9392	1,274.41	82.7583	1,274.41	82.3135	1,274.41	82.2099	1,274.41	81.7052	1,274.41	81.1491	1,274.41	80.1194	1,274.41	78.8762	1,274.41	76.6767	1,274.41	75.8484	1,274.41	71.7155	1,274.41	76.1992	1,274.41	70.1088	1,274.41	79.6793	1,274.41	74.2425	1,274.41	81.0177	1,274.41	76.7444	1,274.41	80.2617	1,274.41	77.156	1,274.41	78.1289	1,274.41	76.4501	1,274.41	73.8343	1,274.41	72.9123	1,274.41	64.4623	1,274.41	61.7869	1,274.41	60.2361	1,274.41	62.7528	1,274.41	69.8063	1,274.41	69.1671	1,274.41	71.4533
1,319.82	84.1088	1,319.82	83.9858	1,319.82	83.9773	1,319.82	83.3505	1,319.82	83.8781	1,319.82	82.798	1,319.82	83.4462	1,319.82	82.5039	1,319.82	82.1585	1,319.82	81.6996	1,319.82	81.058	1,319.82	80.838	1,319.82	79.5803	1,319.82	78.3741	1,319.82	76.7716	1,319.82	73.9275	1,319.82	71.3626	1,319.82	70.4014	1,319.82	59.7472	1,319.82	73.3474	1,319.82	70.6284	1,319.82	75.737	1,319.82	74.4974	1,319.82	76.129	1,319.82	76.5925	1,319.82	75.518	1,319.82	75.5824	1,319.82	70.5598	1,319.82	71.6205	1,319.82	58.1735	1,319.82	67.4661	1,319.82	60.9073	1,319.82	66.4211	1,319.82	70.1133	1,319.82	71.5964	1,319.82	72.3505
1,366.7	83.9269	1,366.7	83.6983	1,366.7	83.6256	1,366.7	83.2398	1,366.7	83.4238	1,366.7	82.8346	1,366.7	83.0037	1,366.7	82.5077	1,366.7	81.5536	1,366.7	81.5066	1,366.7	80.9683	1,366.7	80.951	1,366.7	80.5605	1,366.7	80.2776	1,366.7	78.7143	1,366.7	77.1474	1,366.7	75.9679	1,366.7	75.1864	1,366.7	73.4033	1,366.7	74.6606	1,366.7	73.1047	1,366.7	76.9498	1,366.7	71.9747	1,366.7	77.1274	1,366.7	72.7858	1,366.7	74.6291	1,366.7	71.1387	1,366.7	69.5383	1,366.7	60.529	1,366.7	69.9619	1,366.7	65.487	1,366.7	73.1622	1,366.7	72.6492	1,366.7	74.7805	1,366.7	74.7342	1,366.7	76.5166
1,413.57	83.6514	1,413.57	83.2358	1,413.57	83.1743	1,413.57	82.3734	1,413.57	83.1823	1,413.57	81.7556	1,413.57	82.3837	1,413.57	81.1961	1,413.57	81.2801	1,413.57	80.4585	1,413.57	80.8883	1,413.57	79.2596	1,413.57	81.238	1,413.57	79.0787	1,413.57	80.6644	1,413.57	78.1968	1,413.57	79.4664	1,413.57	76.2178	1,413.57	77.3902	1,413.57	74.5908	1,413.57	76.1075	1,413.57	75.5527	1,413.57	75.7918	1,413.57	75.4299	1,413.57	74.8838	1,413.57	73.1845	1,413.57	71.4065	1,413.57	67.8865	1,413.57	60.7829	1,413.57	64.899	1,413.57	55.5548	1,413.57	70.418	1,413.57	71.618	1,413.57	72.5408	1,413.57	74.5663	1,413.57	74.4717
1,463.38	83.1331	1,463.38	82.6801	1,463.38	83.3634	1,463.38	82.1081	1,463.38	83.839	1,463.38	81.7982	1,463.38	83.1378	1,463.38	81.0332	1,463.38	81.981	1,463.38	79.7382	1,463.38	81.3016	1,463.38	77.9443	1,463.38	80.6015	1,463.38	77.4853	1,463.38	79.3525	1,463.38	76.475	1,463.38	79.1786	1,463.38	75.1252	1,463.38	78.0965	1,463.38	74.5675	1,463.38	76.6091	1,463.38	75.1838	1,463.38	75.8495	1,463.38	73.7294	1,463.38	74.025	1,463.38	70.9722	1,463.38	70.8117	1,463.38	65.1855	1,463.38	62.1273	1,463.38	62.4246	1,463.38	66.1685	1,463.38	68.8191	1,463.38	70.8627	1,463.38	71.9803	1,463.38	71.6861	1,463.38	71.6586
1,516.11	82.9036	1,516.11	82.8359	1,516.11	83.1056	1,516.11	82.5547	1,516.11	83.0748	1,516.11	81.9065	1,516.11	82.5177	1,516.11	80.2717	1,516.11	81.6705	1,516.11	78.7096	1,516.11	80.5292	1,516.11	76.3572	1,516.11	79.499	1,516.11	72.9956	1,516.11	78.5463	1,516.11	72.0825	1,516.11	77.2811	1,516.11	73.3787	1,516.11	76.8351	1,516.11	74.488	1,516.11	76.3352	1,516.11	74.6913	1,516.11	77.0807	1,516.11	70.443	1,516.11	76.0824	1,516.11	65.9705	1,516.11	73.4999	1,516.11	60.09	1,516.11	67.7272	1,516.11	64.8779	1,516.11	62.46	1,516.11	71.3988	1,516.11	65.2299	1,516.11	74.7557	1,516.11	70.5301	1,516.11	72.46
1,568.85	82.8745	1,568.85	82.6206	1,568.85	83.3426	1,568.85	82.0905	1,568.85	83.1816	1,568.85	81.9051	1,568.85	82.7198	1,568.85	80.6357	1,568.85	81.8141	1,568.85	79.6668	1,568.85	81.4251	1,568.85	76.8817	1,568.85	80.1664	1,568.85	73.844	1,568.85	78.5435	1,568.85	69.3497	1,568.85	76.6139	1,568.85	67.3243	1,568.85	76.3197	1,568.85	71.0886	1,568.85	76.0312	1,568.85	72.7351	1,568.85	76.8183	1,568.85	72.4173	1,568.85	75.8727	1,568.85	70.6787	1,568.85	74.0642	1,568.85	65.6957	1,568.85	68.7882	1,568.85	60.7571	1,568.85	56.6372	1,568.85	70.7439	1,568.85	63.8795	1,568.85	74.9494	1,568.85	72.0226	1,568.85	72.3262
1,624.51	82.7038	1,624.51	82.6996	1,624.51	82.2491	1,624.51	82.1396	1,624.51	82.0207	1,624.51	81.3774	1,624.51	81.2041	1,624.51	80.548	1,624.51	80.5277	1,624.51	79.5133	1,624.51	80.0143	1,624.51	77.5806	1,624.51	78.7091	1,624.51	74.6565	1,624.51	76.6587	1,624.51	70.6593	1,624.51	74.6727	1,624.51	63.8512	1,624.51	73.1942	1,624.51	69.6385	1,624.51	72.9055	1,624.51	72.3404	1,624.51	72.9496	1,624.51	72.777	1,624.51	73.6183	1,624.51	70.8215	1,624.51	73.3904	1,624.51	66.3383	1,624.51	69.4138	1,624.51	60.0923	1,624.51	62.219	1,624.51	68.993	1,624.51	61.1997	1,624.51	72.8628	1,624.51	70.8789	1,624.51	72.6367
1,681.64	84.1139	1,681.64	83.8855	1,681.64	83.6378	1,681.64	82.9112	1,681.64	82.6026	1,681.64	82.1277	1,681.64	82.0547	1,681.64	81.1535	1,681.64	81.3475	1,681.64	80.365	1,681.64	81.1045	1,681.64	79.0895	1,681.64	79.6956	1,681.64	75.5185	1,681.64	77.2992	1,681.64	71.9783	1,681.64	74.5535	1,681.64	66.7985	1,681.64	73.5346	1,681.64	64.99	1,681.64	75.0869	1,681.64	68.4136	1,681.64	75.4054	1,681.64	69.9992	1,681.64	75.1042	1,681.64	70.3265	1,681.64	73.4811	1,681.64	65.811	1,681.64	69.5379	1,681.64	39.3586	1,681.64	57.0882	1,681.64	68.0142	1,681.64	59.5622	1,681.64	72.1274	1,681.64	71.203	1,681.64	73.1073
1,741.7	85.092	1,741.7	84.8592	1,741.7	84.7438	1,741.7	83.3522	1,741.7	83.7008	1,741.7	82.9428	1,741.7	82.3793	1,741.7	81.5285	1,741.7	81.4482	1,741.7	80.1423	1,741.7	81.3475	1,741.7	79.7073	1,741.7	80.0105	1,741.7	76.6947	1,741.7	76.6099	1,741.7	73.8641	1,741.7	73.5233	1,741.7	71.4054	1,741.7	71.2883	1,741.7	71.2541	1,741.7	72.8839	1,741.7	72.3113	1,741.7	73.648	1,741.7	69.2856	1,741.7	73.9454	1,741.7	70.1333	1,741.7	72.338	1,741.7	65.4381	1,741.7	70.1586	1,741.7	55.5942	1,741.7	57.1197	1,741.7	66.6534	1,741.7	65.9383	1,741.7	71.7623	1,741.7	72.8931	1,741.7	72.9244
1,803.22	84.4814	1,803.22	84.3528	1,803.22	84.4784	1,803.22	83.7737	1,803.22	84.1222	1,803.22	82.9293	1,803.22	83.5644	1,803.22	81.8674	1,803.22	82.6726	1,803.22	80.8397	1,803.22	81.6264	1,803.22	79.4205	1,803.22	80.1041	1,803.22	77.865	1,803.22	78.3752	1,803.22	75.2493	1,803.22	75.8988	1,803.22	73.0646	1,803.22	73.5215	1,803.22	72.1705	1,803.22	71.9528	1,803.22	73.3445	1,803.22	74.0126	1,803.22	73.6346	1,803.22	74.358	1,803.22	72.1915	1,803.22	72.601	1,803.22	68.8461	1,803.22	65.8996	1,803.22	50.756	1,803.22	54.099	1,803.22	67.7173	1,803.22	69.3367	1,803.22	71.5134	1,803.22	73.2779	1,803.22	73.6567
1,866.21	84.7974	1,866.21	84.55	1,866.21	84.609	1,866.21	83.8085	1,866.21	83.8541	1,866.21	82.6744	1,866.21	82.961	1,866.21	81.6401	1,866.21	81.8661	1,866.21	80.8828	1,866.21	80.7927	1,866.21	79.7843	1,866.21	80.1723	1,866.21	78.8676	1,866.21	79.3296	1,866.21	76.6479	1,866.21	77.0928	1,866.21	73.3063	1,866.21	74.0894	1,866.21	71.6171	1,866.21	70.6451	1,866.21	73.3198	1,866.21	72.9593	1,866.21	74.8183	1,866.21	74.5631	1,866.21	74.3014	1,866.21	74.3446	1,866.21	71.4397	1,866.21	70.8366	1,866.21	61.1274	1,866.21	60.293	1,866.21	66.1676	1,866.21	66.248	1,866.21	72.7417	1,866.21	71.9647	1,866.21	73.9333
1,932.13	84.4436	1,932.13	84.0059	1,932.13	84.1056	1,932.13	83.1621	1,932.13	83.5485	1,932.13	82.006	1,932.13	82.3877	1,932.13	80.6421	1,932.13	81.1388	1,932.13	79.2688	1,932.13	79.7048	1,932.13	78.0041	1,932.13	78.4323	1,932.13	77.4414	1,932.13	78.139	1,932.13	75.9159	1,932.13	76.4064	1,932.13	73.2311	1,932.13	74.3059	1,932.13	70.4041	1,932.13	70.8082	1,932.13	70.4223	1,932.13	70.7004	1,932.13	72.3688	1,932.13	71.8869	1,932.13	71.662	1,932.13	72.6946	1,932.13	70.0609	1,932.13	69.4089	1,932.13	62.6674	1,932.13	60.0624	1,932.13	67.2892	1,932.13	65.0863	1,932.13	71.6311	1,932.13	71.6009	1,932.13	73.6583
1,999.51	84.2017	1,999.51	83.6474	1,999.51	83.9678	1,999.51	83.1018	1,999.51	83.3923	1,999.51	81.5011	1,999.51	82.4121	1,999.51	80.4527	1,999.51	80.9621	1,999.51	78.9878	1,999.51	79.3328	1,999.51	77.3264	1,999.51	78.0304	1,999.51	76.5624	1,999.51	77.2671	1,999.51	75.6609	1,999.51	75.7145	1,999.51	72.7538	1,999.51	73.5115	1,999.51	70.9983	1,999.51	70.8092	1,999.51	70.7558	1,999.51	70.2234	1,999.51	71.4373	1,999.51	71.1776	1,999.51	71.0673	1,999.51	71.2131	1,999.51	68.0684	1,999.51	67.8081	1,999.51	63.3077	1,999.51	60.6613	1,999.51	67.5933	1,999.51	65.3398	1,999.51	72.1948	1,999.51	70.712	1,999.51	72.531
2,069.82	83.695	2,069.82	83.541	2,069.82	83.4891	2,069.82	82.5691	2,069.82	82.7888	2,069.82	81.3465	2,069.82	81.5405	2,069.82	79.7894	2,069.82	80.234	2,069.82	77.829	2,069.82	78.7603	2,069.82	76.7088	2,069.82	77.0557	2,069.82	75.6279	2,069.82	76.0583	2,069.82	73.924	2,069.82	74.7917	2,069.82	71.8335	2,069.82	72.2297	2,069.82	69.103	2,069.82	70.3298	2,069.82	68.3307	2,069.82	68.3074	2,069.82	69.253	2,069.82	69.7069	2,069.82	69.6634	2,069.82	70.1662	2,069.82	65.9953	2,069.82	67.5781	2,069.82	52.1238	2,069.82	62.7904	2,069.82	66.0493	2,069.82	64.2862	2,069.82	70.4405	2,069.82	70.0765	2,069.82	71.6682
2,143.07	83.0278	2,143.07	82.8443	2,143.07	82.9371	2,143.07	82.1823	2,143.07	82.0217	2,143.07	80.9514	2,143.07	81.0467	2,143.07	79.6506	2,143.07	79.3559	2,143.07	77.4969	2,143.07	77.665	2,143.07	75.8785	2,143.07	75.9534	2,143.07	74.4389	2,143.07	75.1151	2,143.07	74.2496	2,143.07	73.9014	2,143.07	72.0666	2,143.07	71.0902	2,143.07	69.5717	2,143.07	69.0265	2,143.07	68.1191	2,143.07	67.7024	2,143.07	69.0876	2,143.07	68.9017	2,143.07	68.4672	2,143.07	68.9161	2,143.07	65.892	2,143.07	64.9862	2,143.07	61.978	2,143.07	60.928	2,143.07	65.0441	2,143.07	66.1244	2,143.07	71.444	2,143.07	70.8673	2,143.07	72.8877
2,219.24	81.9688	2,219.24	81.8	2,219.24	81.5764	2,219.24	81.1419	2,219.24	81.3328	2,219.24	80.6168	2,219.24	79.7097	2,219.24	79.1793	2,219.24	78.5765	2,219.24	77.0063	2,219.24	76.1569	2,219.24	74.4512	2,219.24	74.2341	2,219.24	73.8567	2,219.24	73.3101	2,219.24	70.8286	2,219.24	72.289	2,219.24	70.9207	2,219.24	69.7149	2,219.24	69.8597	2,219.24	67.6222	2,219.24	68.1412	2,219.24	66.2185	2,219.24	68.7614	2,219.24	66.6317	2,219.24	68.8743	2,219.24	66.0838	2,219.24	65.7919	2,219.24	62.4248	2,219.24	59.4927	2,219.24	56.9323	2,219.24	65.8774	2,219.24	65.1808	2,219.24	69.5941	2,219.24	70.7258	2,219.24	70.43
2,296.88	80.4153	2,296.88	80.5332	2,296.88	80.5077	2,296.88	80.1533	2,296.88	79.3837	2,296.88	78.8573	2,296.88	78.853	2,296.88	78.3602	2,296.88	77.0916	2,296.88	77.052	2,296.88	75.3712	2,296.88	75.4029	2,296.88	73.4114	2,296.88	73.5042	2,296.88	72.1265	2,296.88	74.0357	2,296.88	71.396	2,296.88	70.3914	2,296.88	69.0706	2,296.88	68.5035	2,296.88	65.418	2,296.88	69.3427	2,296.88	65.2626	2,296.88	68.2667	2,296.88	67.4345	2,296.88	67.7908	2,296.88	67.8566	2,296.88	64.2756	2,296.88	62.4386	2,296.88	53.6956	2,296.88	46.7987	2,296.88	64.7733	2,296.88	65.667	2,296.88	70.8393	2,296.88	69.9714	2,296.88	72.2007
2,378.91	79.5939	2,378.91	79.463	2,378.91	79.3009	2,378.91	78.5925	2,378.91	79.0897	2,378.91	78.585	2,378.91	78.1715	2,378.91	77.0413	2,378.91	77.5837	2,378.91	75.5106	2,378.91	76.1245	2,378.91	73.8367	2,378.91	74.1789	2,378.91	72.5382	2,378.91	71.8843	2,378.91	70.3781	2,378.91	71.8712	2,378.91	70.8322	2,378.91	70.7147	2,378.91	66.8066	2,378.91	65.5833	2,378.91	63.9254	2,378.91	64.0175	2,378.91	67.3744	2,378.91	67.6585	2,378.91	66.872	2,378.91	68.7616	2,378.91	65.7502	2,378.91	67.9495	2,378.91	60.6393	2,378.91	57.3408	2,378.91	65.2216	2,378.91	57.6917	2,378.91	70.4615	2,378.91	68.086	2,378.91	70.9177
2,462.4	81.1547	2,462.4	81.0233	2,462.4	81.3469	2,462.4	80.412	2,462.4	80.6054	2,462.4	78.9535	2,462.4	79.9082	2,462.4	77.433	2,462.4	78.3538	2,462.4	76.6382	2,462.4	77.4463	2,462.4	75.7882	2,462.4	75.8046	2,462.4	71.9513	2,462.4	73.871	2,462.4	71.3556	2,462.4	71.3003	2,462.4	70.3322	2,462.4	72.0039	2,462.4	67.016	2,462.4	68.7128	2,462.4	63.858	2,462.4	64.5211	2,462.4	64.2797	2,462.4	68.4321	2,462.4	69.0844	2,462.4	70.1991	2,462.4	67.7579	2,462.4	70.014	2,462.4	54.8014	2,462.4	63.4627	2,462.4	63.9997	2,462.4	61.0343	2,462.4	67.9288	2,462.4	69.1006	2,462.4	69.3039
2,548.83	82.1603	2,548.83	82.0798	2,548.83	82.1443	2,548.83	81.2133	2,548.83	81.3464	2,548.83	80.1995	2,548.83	80.283	2,548.83	78.7837	2,548.83	78.8151	2,548.83	78.45	2,548.83	78.0416	2,548.83	76.9039	2,548.83	76.2495	2,548.83	75.7355	2,548.83	74.3767	2,548.83	73.9921	2,548.83	72.9934	2,548.83	72.5798	2,548.83	72.2394	2,548.83	70.809	2,548.83	69.3823	2,548.83	66.09	2,548.83	65.0265	2,548.83	64.8713	2,548.83	66.1814	2,548.83	67.9013	2,548.83	70.4626	2,548.83	68.027	2,548.83	70.5828	2,548.83	64.3206	2,548.83	64.8086	2,548.83	56.5625	2,548.83	58.3875	2,548.83	67.8464	2,548.83	69.6571	2,548.83	69.1081
2,639.65	81.9483	2,639.65	82.2878	2,639.65	81.0469	2,639.65	81.1924	2,639.65	81.714	2,639.65	80.9698	2,639.65	79.5626	2,639.65	79.2824	2,639.65	78.7871	2,639.65	77.1845	2,639.65	77.1	2,639.65	75.6954	2,639.65	76.1319	2,639.65	75.8186	2,639.65	73.5081	2,639.65	69.7271	2,639.65	71.9136	2,639.65	73.0675	2,639.65	71.4871	2,639.65	70.7022	2,639.65	71.4734	2,639.65	68.3172	2,639.65	66.6645	2,639.65	66.4718	2,639.65	56.785	2,639.65	68.9501	2,639.65	67.7427	2,639.65	70.1987	2,639.65	69.3372	2,639.65	64.6615	2,639.65	64.4381	2,639.65	55.4511	2,639.65	55.8684	2,639.65	69.0484	2,639.65	67.9394	2,639.65	70.76
2,731.93	80.7064	2,731.93	80.0316	2,731.93	80.2277	2,731.93	80.159	2,731.93	79.6531	2,731.93	78.7176	2,731.93	78.8055	2,731.93	78.1563	2,731.93	77.7813	2,731.93	76.9236	2,731.93	76.1276	2,731.93	74.7639	2,731.93	75.2071	2,731.93	73.8825	2,731.93	73.7651	2,731.93	71.622	2,731.93	71.2792	2,731.93	71.1385	2,731.93	70.8362	2,731.93	68.4343	2,731.93	70.7173	2,731.93	70.1771	2,731.93	68.1524	2,731.93	65.8423	2,731.93	59.5321	2,731.93	66.5352	2,731.93	66.0742	2,731.93	68.197	2,731.93	68.4094	2,731.93	63.2671	2,731.93	64.7227	2,731.93	47.2279	2,731.93	49.5334	2,731.93	62.8046	2,731.93	64.6622	2,731.93	65.6916
2,828.61	80.2046	2,828.61	79.0068	2,828.61	80.6492	2,828.61	79.7771	2,828.61	78.659	2,828.61	78.5788	2,828.61	79.0126	2,828.61	78.0654	2,828.61	77.9522	2,828.61	77.1038	2,828.61	77.0302	2,828.61	75.7777	2,828.61	75.056	2,828.61	71.2933	2,828.61	73.6151	2,828.61	73.5206	2,828.61	71.5926	2,828.61	68.8595	2,828.61	71.8519	2,828.61	69.6026	2,828.61	71.0477	2,828.61	70.1728	2,828.61	68.1264	2,828.61	66.018	2,828.61	65.8139	2,828.61	65.3163	2,828.61	64.1171	2,828.61	66.5872	2,828.61	67.4907	2,828.61	66.592	2,828.61	66.3435	2,828.61	58.4402	2,828.61	55.9322	2,828.61	61.7298	2,828.61	50.4853	2,828.61	66.7656
2,928.22	80.3848	2,928.22	80.3218	2,928.22	81.0884	2,928.22	79.9348	2,928.22	79.92	2,928.22	79.0432	2,928.22	79.8124	2,928.22	78.4902	2,928.22	78.799	2,928.22	78.6455	2,928.22	77.9948	2,928.22	77.073	2,928.22	76.0923	2,928.22	74.1145	2,928.22	74.463	2,928.22	74.9257	2,928.22	72.8835	2,928.22	70.1687	2,928.22	71.3791	2,928.22	70.5812	2,928.22	70.5061	2,928.22	69.7335	2,928.22	69.1039	2,928.22	64.979	2,928.22	67.7959	2,928.22	62.8566	2,928.22	61.9548	2,928.22	66.4555	2,928.22	69.1829	2,928.22	67.7455	2,928.22	68.3495	2,928.22	61.6483	2,928.22	63.8405	2,928.22	58.3498	2,928.22	64.1232	2,928.22	61.3395
3,030.76	80.9785	3,030.76	81.1987	3,030.76	80.7636	3,030.76	80.8244	3,030.76	80.623	3,030.76	80.2735	3,030.76	79.9663	3,030.76	79.3114	3,030.76	78.8697	3,030.76	78.6311	3,030.76	78.2189	3,030.76	77.4284	3,030.76	77.0333	3,030.76	76.5114	3,030.76	75.7584	3,030.76	75.6663	3,030.76	73.239	3,030.76	71.7582	3,030.76	70.8909	3,030.76	71.5529	3,030.76	70.2928	3,030.76	69.7213	3,030.76	71.3214	3,030.76	69.3824	3,030.76	69.1441	3,030.76	63.2796	3,030.76	64.6381	3,030.76	68.0535	3,030.76	68.2858	3,030.76	69.3419	3,030.76	68.4015	3,030.76	64.7801	3,030.76	63.818	3,030.76	67.1122	3,030.76	64.1758	3,030.76	67.9047
3,137.7	81.136	3,137.7	81.0695	3,137.7	81.0405	3,137.7	80.7823	3,137.7	80.7188	3,137.7	80.3208	3,137.7	80.1022	3,137.7	79.4326	3,137.7	79.4778	3,137.7	79.148	3,137.7	78.3267	3,137.7	77.62	3,137.7	76.7964	3,137.7	76.8295	3,137.7	75.7344	3,137.7	74.4896	3,137.7	74.2606	3,137.7	73.3734	3,137.7	72.8882	3,137.7	71.4234	3,137.7	70.6193	3,137.7	69.5942	3,137.7	69.5036	3,137.7	68.8253	3,137.7	68.7779	3,137.7	63.9786	3,137.7	64.7644	3,137.7	67.2945	3,137.7	66.6931	3,137.7	70.2644	3,137.7	69.4547	3,137.7	65.7313	3,137.7	65.3668	3,137.7	63.8879	3,137.7	64.0355	3,137.7	66.019
3,249.02	81.0283	3,249.02	81.252	3,249.02	80.4947	3,249.02	80.509	3,249.02	80.9154	3,249.02	80.3282	3,249.02	79.9135	3,249.02	79.8298	3,249.02	79.3175	3,249.02	78.655	3,249.02	77.8411	3,249.02	77.8785	3,249.02	76.9803	3,249.02	77.1818	3,249.02	75.4777	3,249.02	73.7567	3,249.02	73.7922	3,249.02	72.7045	3,249.02	72.1632	3,249.02	70.9096	3,249.02	70.8729	3,249.02	68.4616	3,249.02	70.3064	3,249.02	70.2372	3,249.02	69.0511	3,249.02	67.6293	3,249.02	65.4461	3,249.02	65.7546	3,249.02	66.2205	3,249.02	68.2074	3,249.02	68.1698	3,249.02	66.3196	3,249.02	65.8374	3,249.02	64.5998	3,249.02	63.9213	3,249.02	64.2223
3,363.28	80.9516	3,363.28	81.0907	3,363.28	80.49	3,363.28	80.4342	3,363.28	80.9149	3,363.28	80.3406	3,363.28	80.2556	3,363.28	79.621	3,363.28	79.7669	3,363.28	77.6651	3,363.28	78.5134	3,363.28	76.4362	3,363.28	77.0968	3,363.28	75.9499	3,363.28	75.6175	3,363.28	72.8523	3,363.28	74.2131	3,363.28	71.3336	3,363.28	72.5176	3,363.28	70.5908	3,363.28	70.9121	3,363.28	67.9708	3,363.28	70.8873	3,363.28	68.6175	3,363.28	69.517	3,363.28	68.7047	3,363.28	68.5268	3,363.28	65.4733	3,363.28	64.9867	3,363.28	66.9624	3,363.28	68.0123	3,363.28	64.7315	3,363.28	66.0214	3,363.28	61.6017	3,363.28	63.5322	3,363.28	67.1363
3,481.93	80.6453	3,481.93	81.1718	3,481.93	80.1115	3,481.93	81.1617	3,481.93	80.9	3,481.93	81.1809	3,481.93	80.6585	3,481.93	81.1978	3,481.93	79.8747	3,481.93	78.9331	3,481.93	79.0548	3,481.93	77.2914	3,481.93	77.9081	3,481.93	76.3818	3,481.93	75.7256	3,481.93	73.4173	3,481.93	74.469	3,481.93	72.9506	3,481.93	71.5615	3,481.93	71.147	3,481.93	69.8155	3,481.93	68.4528	3,481.93	68.5833	3,481.93	68.7894	3,481.93	68.5789	3,481.93	70.02	3,481.93	68.6479	3,481.93	66.741	3,481.93	63.2057	3,481.93	66.4837	3,481.93	68.5534	3,481.93	64.7428	3,481.93	64.8087	3,481.93	64.3867	3,481.93	62.2512	3,481.93	68.6096
3,604.98	80.6736	3,604.98	80.4334	3,604.98	81.0658	3,604.98	81.1944	3,604.98	79.8878	3,604.98	81.2319	3,604.98	80.077	3,604.98	80.561	3,604.98	79.6043	3,604.98	79.0979	3,604.98	79.5076	3,604.98	77.6286	3,604.98	78.6086	3,604.98	75.7127	3,604.98	76.4744	3,604.98	74.3363	3,604.98	74.9781	3,604.98	72.5497	3,604.98	72.473	3,604.98	71.1057	3,604.98	70.6923	3,604.98	69.8904	3,604.98	68.9853	3,604.98	67.9041	3,604.98	67.3388	3,604.98	69.7565	3,604.98	67.7864	3,604.98	68.4465	3,604.98	66.4057	3,604.98	68.1174	3,604.98	68.4156	3,604.98	65.0752	3,604.98	65.0632	3,604.98	64.4571	3,604.98	62.0697	3,604.98	68.1564
3,732.42	79.9498	3,732.42	79.8111	3,732.42	80.7561	3,732.42	80.0902	3,732.42	80.3801	3,732.42	80.9015	3,732.42	80.9386	3,732.42	80.3964	3,732.42	80.7441	3,732.42	80.0979	3,732.42	80.4206	3,732.42	78.3081	3,732.42	79.1609	3,732.42	75.7686	3,732.42	77.1072	3,732.42	74.4035	3,732.42	75.5619	3,732.42	72.2173	3,732.42	73.1349	3,732.42	71.4966	3,732.42	71.5079	3,732.42	69.8457	3,732.42	70.6722	3,732.42	66.5862	3,732.42	68.3178	3,732.42	69.7066	3,732.42	69.4402	3,732.42	67.188	3,732.42	69.3869	3,732.42	69.0397	3,732.42	69.0998	3,732.42	66.7843	3,732.42	66.85	3,732.42	61.5681	3,732.42	63.4376	3,732.42	66.9912
3,864.26	79.2744	3,864.26	79.4179	3,864.26	80.5669	3,864.26	80.4101	3,864.26	80.29	3,864.26	80.9379	3,864.26	80.7384	3,864.26	80.0429	3,864.26	80.8891	3,864.26	80.083	3,864.26	80.3329	3,864.26	79.0277	3,864.26	79.1034	3,864.26	76.702	3,864.26	77.2116	3,864.26	75.4775	3,864.26	74.009	3,864.26	71.9264	3,864.26	71.5703	3,864.26	71.2202	3,864.26	70.3074	3,864.26	68.6974	3,864.26	69.2228	3,864.26	67.0389	3,864.26	66.5066	3,864.26	67.8337	3,864.26	68.9361	3,864.26	67.414	3,864.26	68.7312	3,864.26	69.8004	3,864.26	68.5858	3,864.26	67.887	3,864.26	68.1225	3,864.26	63.3523	3,864.26	62.9819	3,864.26	65.391
4,000.49	78.1423	4,000.49	78.5361	4,000.49	78.4133	4,000.49	79.968	4,000.49	79.7062	4,000.49	80.4	4,000.49	80.3019	4,000.49	80.4007	4,000.49	80.1959	4,000.49	80.0693	4,000.49	79.1908	4,000.49	78.1971	4,000.49	77.4066	4,000.49	76.8758	4,000.49	75.3634	4,000.49	74.5691	4,000.49	74.0095	4,000.49	72.1672	4,000.49	72.0926	4,000.49	69.5751	4,000.49	69.5245	4,000.49	69.0965	4,000.49	68.7194	4,000.49	66.5354	4,000.49	66.5	4,000.49	68.2484	4,000.49	67.6853	4,000.49	67.912	4,000.49	65.765	4,000.49	68.1659	4,000.49	68.229	4,000.49	66.83	4,000.49	67.8718	4,000.49	63.5222	4,000.49	61.6667	4,000.49	64.1534
4,141.11	78.0103	4,141.11	79.4476	4,141.11	77.6676	4,141.11	80.1836	4,141.11	80.34	4,141.11	80.4416	4,141.11	80.9159	4,141.11	81.4869	4,141.11	80.9658	4,141.11	80.0956	4,141.11	79.8347	4,141.11	78.4991	4,141.11	78.2418	4,141.11	77.0949	4,141.11	76.8061	4,141.11	73.118	4,141.11	73.2947	4,141.11	72.1944	4,141.11	71.4315	4,141.11	68.0393	4,141.11	70.3454	4,141.11	69.1227	4,141.11	69.0969	4,141.11	65.6216	4,141.11	67.121	4,141.11	68.1856	4,141.11	68.3417	4,141.11	66.8054	4,141.11	65.9794	4,141.11	68.0557	4,141.11	68.1597	4,141.11	67.7994	4,141.11	68.2509	4,141.11	62.861	4,141.11	62.8476	4,141.11	66.7619
4,287.6	79.6329	4,287.6	80.8947	4,287.6	79.8073	4,287.6	81.7889	4,287.6	80.8669	4,287.6	82.0165	4,287.6	81.4658	4,287.6	82.5243	4,287.6	80.6972	4,287.6	80.2554	4,287.6	79.7036	4,287.6	78.1006	4,287.6	78.4454	4,287.6	76.466	4,287.6	76.2728	4,287.6	74.0829	4,287.6	74.2619	4,287.6	73.1952	4,287.6	71.6803	4,287.6	70.0364	4,287.6	69.1463	4,287.6	68.4148	4,287.6	68.8838	4,287.6	66.8712	4,287.6	66.7214	4,287.6	63.55	4,287.6	67.5237	4,287.6	67.2238	4,287.6	69.0268	4,287.6	69.1066	4,287.6	67.7148	4,287.6	67.4817	4,287.6	68.1266	4,287.6	64.7725	4,287.6	64.2859	4,287.6	67.4753
4,438.48	80.9938	4,438.48	80.7468	4,438.48	81.4148	4,438.48	82.6539	4,438.48	80.9337	4,438.48	82.3682	4,438.48	81.6929	4,438.48	81.2801	4,438.48	81.2081	4,438.48	80.2053	4,438.48	79.4045	4,438.48	78.1617	4,438.48	78.6395	4,438.48	75.9663	4,438.48	76.4118	4,438.48	74.5556	4,438.48	73.807	4,438.48	71.6953	4,438.48	71.7318	4,438.48	68.039	4,438.48	68.5823	4,438.48	67.5993	4,438.48	67.3303	4,438.48	67.0061	4,438.48	66.8266	4,438.48	66.989	4,438.48	67.1782	4,438.48	68.7503	4,438.48	68.4161	4,438.48	68.687	4,438.48	66.7973	4,438.48	67.7153	4,438.48	68.1598	4,438.48	64.6009	4,438.48	65.1582	4,438.48	66.9902
4,595.21	80.7886	4,595.21	81.3005	4,595.21	80.5449	4,595.21	82.2166	4,595.21	81.8847	4,595.21	82.0518	4,595.21	80.9049	4,595.21	80.3491	4,595.21	81.2374	4,595.21	79.338	4,595.21	80.8312	4,595.21	78.1331	4,595.21	78.1342	4,595.21	76.9659	4,595.21	76.2814	4,595.21	74.1116	4,595.21	74.4812	4,595.21	72.2509	4,595.21	72.1336	4,595.21	67.5179	4,595.21	68.6786	4,595.21	69.2853	4,595.21	65.3976	4,595.21	66.4232	4,595.21	65.1552	4,595.21	66.0891	4,595.21	64.9376	4,595.21	69.2312	4,595.21	65.8291	4,595.21	66.8188	4,595.21	66.538	4,595.21	68.8442	4,595.21	67.0121	4,595.21	63.4044	4,595.21	63.8075	4,595.21	66.9967
4,756.35	80.4325	4,756.35	81.7031	4,756.35	81.1557	4,756.35	81.0855	4,756.35	82.2493	4,756.35	81.686	4,756.35	82.2917	4,756.35	81.7525	4,756.35	82.0991	4,756.35	80.0007	4,756.35	81.0512	4,756.35	77.3762	4,756.35	79.4101	4,756.35	75.6681	4,756.35	75.8975	4,756.35	73.4712	4,756.35	73.5125	4,756.35	72.1542	4,756.35	71.7258	4,756.35	70.3574	4,756.35	69.6065	4,756.35	68.9601	4,756.35	68.493	4,756.35	68.1381	4,756.35	66.8283	4,756.35	62.2532	4,756.35	62.3981	4,756.35	68.0628	4,756.35	69.2151	4,756.35	66.8968	4,756.35	67.532	4,756.35	67.7021	4,756.35	66.6357	4,756.35	60.6608	4,756.35	62.0364	4,756.35	67.9241
4,924.8	81.8324	4,924.8	81.7989	4,924.8	83.1651	4,924.8	82.9926	4,924.8	82.2648	4,924.8	82.7488	4,924.8	83.0553	4,924.8	83.1308	4,924.8	81.8954	4,924.8	81.7505	4,924.8	79.891	4,924.8	79.4368	4,924.8	78.6353	4,924.8	76.7513	4,924.8	76.1026	4,924.8	73.9303	4,924.8	74.2096	4,924.8	70.1313	4,924.8	72.3423	4,924.8	72.7603	4,924.8	71.1316	4,924.8	65.9191	4,924.8	66.9195	4,924.8	66.1626	4,924.8	66.469	4,924.8	63.3469	4,924.8	66.5781	4,924.8	66.7856	4,924.8	67.8351	4,924.8	67.6094	4,924.8	68.3182	4,924.8	66.6261	4,924.8	68.2051	4,924.8	63.4342	4,924.8	59.4928	4,924.8	66.0585
5,097.66	82.0838	5,097.66	81.8606	5,097.66	81.9834	5,097.66	84.0885	5,097.66	82.6373	5,097.66	83.5533	5,097.66	82.8316	5,097.66	83.4999	5,097.66	81.8976	5,097.66	81.8544	5,097.66	80.2517	5,097.66	79.8673	5,097.66	78.2417	5,097.66	76.7129	5,097.66	76.9987	5,097.66	75.2075	5,097.66	74.6573	5,097.66	72.9611	5,097.66	73.5517	5,097.66	71.4376	5,097.66	71.2459	5,097.66	69.6512	5,097.66	67.6243	5,097.66	68.9512	5,097.66	66.9855	5,097.66	70.0769	5,097.66	64.8082	5,097.66	68.845	5,097.66	66.2488	5,097.66	69.0308	5,097.66	65.5194	5,097.66	69.4307	5,097.66	68.3988	5,097.66	64.2436	5,097.66	57.705	5,097.66	65.8953
5,277.83	81.4483	5,277.83	82.2014	5,277.83	80.0306	5,277.83	81.9103	5,277.83	82.3775	5,277.83	82.7579	5,277.83	81.4724	5,277.83	81.2761	5,277.83	82.0746	5,277.83	79.7733	5,277.83	81.1306	5,277.83	78.3792	5,277.83	78.2373	5,277.83	77.3927	5,277.83	75.8471	5,277.83	74.6241	5,277.83	76.1322	5,277.83	73.8316	5,277.83	73.9471	5,277.83	67.7801	5,277.83	69.7005	5,277.83	68.4676	5,277.83	69.5892	5,277.83	69.1656	5,277.83	65.2872	5,277.83	67.9474	5,277.83	61.5159	5,277.83	69.8956	5,277.83	66.8801	5,277.83	66.436	5,277.83	66.1322	5,277.83	68.349	5,277.83	69.5568	5,277.83	57.4182	5,277.83	61.8766	5,277.83	62.4561
5,463.87	81.6545	5,463.87	82.1938	5,463.87	82.466	5,463.87	82.0414	5,463.87	81.8086	5,463.87	82.0884	5,463.87	82.7996	5,463.87	81.2426	5,463.87	81.8377	5,463.87	80.776	5,463.87	80.8867	5,463.87	79.8449	5,463.87	79.7445	5,463.87	78.8694	5,463.87	78.2434	5,463.87	75.1957	5,463.87	73.0937	5,463.87	74.1601	5,463.87	72.8484	5,463.87	73.7148	5,463.87	69.9365	5,463.87	71.3834	5,463.87	69.5303	5,463.87	66.439	5,463.87	67.3392	5,463.87	61.8905	5,463.87	65.0335	5,463.87	68.5758	5,463.87	68.8322	5,463.87	66.6404	5,463.87	68.2199	5,463.87	70.2553	5,463.87	69.8755	5,463.87	62.2823	5,463.87	61.8859	5,463.87	63.0501
5,657.23	82.8784	5,657.23	82.8712	5,657.23	83.1032	5,657.23	82.7638	5,657.23	81.9014	5,657.23	81.963	5,657.23	82.8159	5,657.23	81.9584	5,657.23	81.3461	5,657.23	80.235	5,657.23	79.0222	5,657.23	78.1122	5,657.23	79.331	5,657.23	75.3372	5,657.23	77.0274	5,657.23	75.6452	5,657.23	73.656	5,657.23	72.3068	5,657.23	71.1787	5,657.23	74.3116	5,657.23	71.0396	5,657.23	70.9901	5,657.23	67.82	5,657.23	66.3026	5,657.23	64.6787	5,657.23	65.299	5,657.23	65.3418	5,657.23	67.6849	5,657.23	65.3857	5,657.23	70.1449	5,657.23	68.8328	5,657.23	69.8672	5,657.23	68.2298	5,657.23	61.8624	5,657.23	64.2564	5,657.23	64.1531
5,856.45	83.6306	5,856.45	82.9572	5,856.45	82.1903	5,856.45	82.6023	5,856.45	82.9216	5,856.45	82.5761	5,856.45	80.4026	5,856.45	82.2121	5,856.45	80.2349	5,856.45	80.4638	5,856.45	80.0071	5,856.45	79.5376	5,856.45	77.5929	5,856.45	76.943	5,856.45	74.5394	5,856.45	76.4348	5,856.45	75.0963	5,856.45	71.9663	5,856.45	70.6774	5,856.45	67.4368	5,856.45	69.5263	5,856.45	67.9059	5,856.45	66.4649	5,856.45	65.2388	5,856.45	64.8142	5,856.45	64.8312	5,856.45	65.022	5,856.45	61.3277	5,856.45	62.2267	5,856.45	68.809	5,856.45	65.6278	5,856.45	68.3104	5,856.45	66.256	5,856.45	64.2572	5,856.45	64.3939	5,856.45	64.6172
6,062.99	84.3166	6,062.99	82.9752	6,062.99	84.0831	6,062.99	81.9078	6,062.99	82.4714	6,062.99	81.4111	6,062.99	81.4417	6,062.99	80.4087	6,062.99	80.1036	6,062.99	80.0213	6,062.99	79.7051	6,062.99	78.4682	6,062.99	78.6913	6,062.99	78.6749	6,062.99	78.421	6,062.99	73.979	6,062.99	73.7101	6,062.99	72.6376	6,062.99	71.8631	6,062.99	66.6565	6,062.99	69.7949	6,062.99	65.9938	6,062.99	68.0945	6,062.99	65.2793	6,062.99	64.0489	6,062.99	66.8817	6,062.99	66.8131	6,062.99	63.4178	6,062.99	64.291	6,062.99	67.2148	6,062.99	68.3413	6,062.99	67.6865	6,062.99	68.6647	6,062.99	62.3994	6,062.99	62.9127	6,062.99	62.8972
6,276.86	84.0707	6,276.86	83.5438	6,276.86	84.1731	6,276.86	82.7452	6,276.86	81.5574	6,276.86	81.5164	6,276.86	81.446	6,276.86	81.3848	6,276.86	80.226	6,276.86	80.6757	6,276.86	77.9125	6,276.86	77.5001	6,276.86	77.0893	6,276.86	78.3529	6,276.86	76.6049	6,276.86	71.8535	6,276.86	72.158	6,276.86	70.7338	6,276.86	70.6229	6,276.86	70.8976	6,276.86	69.9435	6,276.86	67.3493	6,276.86	65.2395	6,276.86	64.8045	6,276.86	66.4261	6,276.86	66.0489	6,276.86	65.032	6,276.86	66.6195	6,276.86	62.5601	6,276.86	66.9965	6,276.86	69.5085	6,276.86	67.9287	6,276.86	66.6807	6,276.86	62.4058	6,276.86	63.9866	6,276.86	64.5865
6,498.05	84.9688	6,498.05	83.905	6,498.05	83.5076	6,498.05	82.9835	6,498.05	82.5781	6,498.05	80.5925	6,498.05	79.8091	6,498.05	81.5485	6,498.05	80.9992	6,498.05	79.3286	6,498.05	79.9991	6,498.05	78.6662	6,498.05	77.4285	6,498.05	71.3465	6,498.05	73.4726	6,498.05	72.114	6,498.05	73.5073	6,498.05	68.4315	6,498.05	70.9968	6,498.05	70.4651	6,498.05	66.4221	6,498.05	68.6975	6,498.05	65.3931	6,498.05	67.4308	6,498.05	66.7938	6,498.05	68.3523	6,498.05	62.9984	6,498.05	63.6583	6,498.05	62.3453	6,498.05	67.4651	6,498.05	65.0469	6,498.05	67.8351	6,498.05	65.8584	6,498.05	56.5056	6,498.05	64.0181	6,498.05	58.3857
6,726.56	84.9332	6,726.56	84.4411	6,726.56	84.6438	6,726.56	82.6171	6,726.56	82.7271	6,726.56	81.3557	6,726.56	80.7972	6,726.56	80.6969	6,726.56	80.743	6,726.56	80.5273	6,726.56	80.2377	6,726.56	79.2346	6,726.56	78.8063	6,726.56	75.3685	6,726.56	76.8841	6,726.56	74.6759	6,726.56	74.0341	6,726.56	71.051	6,726.56	72.2467	6,726.56	68.9553	6,726.56	67.2075	6,726.56	67.5684	6,726.56	67.0562	6,726.56	66.9303	6,726.56	61.6578	6,726.56	67.1251	6,726.56	64.19	6,726.56	63.6098	6,726.56	62.4524	6,726.56	68.3717	6,726.56	66.192	6,726.56	66.8851	6,726.56	66.5532	6,726.56	61.6473	6,726.56	62.4928	6,726.56	58.3741
6,963.87	84.6512	6,963.87	83.7561	6,963.87	84.2717	6,963.87	82.2099	6,963.87	81.6777	6,963.87	81.5331	6,963.87	81.6724	6,963.87	81.0522	6,963.87	80.0334	6,963.87	80.6179	6,963.87	78.9217	6,963.87	77.1905	6,963.87	77.5794	6,963.87	75.9915	6,963.87	75.0968	6,963.87	73.1993	6,963.87	73.0094	6,963.87	69.0742	6,963.87	69.8081	6,963.87	67.9686	6,963.87	67.621	6,963.87	64.7048	6,963.87	63.218	6,963.87	59.8978	6,963.87	63.0268	6,963.87	63.8783	6,963.87	63.5696	6,963.87	65.2983	6,963.87	60.8854	6,963.87	66.2714	6,963.87	66.4199	6,963.87	65.7056	6,963.87	65.3669	6,963.87	60.4914	6,963.87	64.8245	6,963.87	55.3332
7,209.96	85.3843	7,209.96	84.4027	7,209.96	84.1327	7,209.96	83.4221	7,209.96	83.3505	7,209.96	82.7978	7,209.96	82.2485	7,209.96	82.6961	7,209.96	81.2807	7,209.96	79.4384	7,209.96	80.5572	7,209.96	78.3338	7,209.96	77.5036	7,209.96	76.7153	7,209.96	72.4601	7,209.96	72.3258	7,209.96	71.6989	7,209.96	68.6816	7,209.96	67.6725	7,209.96	65.1618	7,209.96	65.3792	7,209.96	63.9892	7,209.96	63.3573	7,209.96	62.2977	7,209.96	59.1007	7,209.96	60.0976	7,209.96	58.447	7,209.96	53.0252	7,209.96	59.1644	7,209.96	61.8515	7,209.96	61.3214	7,209.96	64.9458	7,209.96	60.3365	7,209.96	62.0716	7,209.96	62.2019	7,209.96	53.8817
7,464.84	85.2883	7,464.84	84.5083	7,464.84	84.6931	7,464.84	82.9624	7,464.84	83.7029	7,464.84	83.0749	7,464.84	82.1525	7,464.84	82.1729	7,464.84	81.385	7,464.84	79.5016	7,464.84	80.6182	7,464.84	77.949	7,464.84	77.9741	7,464.84	74.8485	7,464.84	75.5384	7,464.84	71.8572	7,464.84	72.3763	7,464.84	68.8508	7,464.84	68.3031	7,464.84	64.6373	7,464.84	67.2229	7,464.84	65.5491	7,464.84	66.561	7,464.84	57.5983	7,464.84	56.9359	7,464.84	60.0434	7,464.84	60.0365	7,464.84	62.0454	7,464.84	60.5367	7,464.84	65.3282	7,464.84	64.3594	7,464.84	63.4254	7,464.84	62.5376	7,464.84	62.0897	7,464.84	63.5053	7,464.84	59.3567
7,727.05	84.9382	7,727.05	84.2403	7,727.05	84.7165	7,727.05	83.2473	7,727.05	83.325	7,727.05	82.4339	7,727.05	82.3536	7,727.05	82.1731	7,727.05	81.434	7,727.05	81.2228	7,727.05	79.3365	7,727.05	77.9793	7,727.05	78.291	7,727.05	74.7897	7,727.05	76.0346	7,727.05	74.036	7,727.05	73.1038	7,727.05	72.3715	7,727.05	70.122	7,727.05	69.4746	7,727.05	68.2355	7,727.05	65.8643	7,727.05	63.3933	7,727.05	60.6076	7,727.05	61.4847	7,727.05	60.1277	7,727.05	64.8889	7,727.05	60.0911	7,727.05	59.6584	7,727.05	65.0977	7,727.05	62.2769	7,727.05	60.6919	7,727.05	60.8894	7,727.05	63.4024	7,727.05	65.4183	7,727.05	61.5877
7,999.51	85.9713	7,999.51	85.2701	7,999.51	85.2649	7,999.51	83.6732	7,999.51	83.784	7,999.51	82.5927	7,999.51	82.4579	7,999.51	82.8567	7,999.51	82.6064	7,999.51	80.4577	7,999.51	80.8212	7,999.51	78.8204	7,999.51	79.4953	7,999.51	76.8651	7,999.51	76.8606	7,999.51	74.4882	7,999.51	73.971	7,999.51	70.9699	7,999.51	71.1534	7,999.51	68.2474	7,999.51	69.2102	7,999.51	66.9149	7,999.51	64.5211	7,999.51	62.8224	7,999.51	64.5881	7,999.51	57.6162	7,999.51	62.5026	7,999.51	56.4434	7,999.51	61.27	7,999.51	65.1022	7,999.51	64.593	7,999.51	65.1207	7,999.51	63.7588	7,999.51	64.149	7,999.51	63.7672	7,999.51	58.3458
8,282.23	85.5586	8,282.23	84.5417	8,282.23	85.3271	8,282.23	83.2015	8,282.23	83.3709	8,282.23	82.2058	8,282.23	82.0969	8,282.23	81.3243	8,282.23	81.4129	8,282.23	79.9244	8,282.23	80.2476	8,282.23	79.0192	8,282.23	78.6809	8,282.23	76.4928	8,282.23	77.9954	8,282.23	74.5082	8,282.23	74.1323	8,282.23	70.7736	8,282.23	72.1379	8,282.23	68.7847	8,282.23	69.0501	8,282.23	68.0055	8,282.23	66.973	8,282.23	64.1291	8,282.23	58.5476	8,282.23	63.2437	8,282.23	64.1777	8,282.23	57.9151	8,282.23	61.8129	8,282.23	66.3188	8,282.23	65.4108	8,282.23	64.7285	8,282.23	64.1929	8,282.23	64.8253	8,282.23	64.9385	8,282.23	60.6361
8,573.73	85.7926	8,573.73	84.0327	8,573.73	84.8827	8,573.73	83.4178	8,573.73	83.7731	8,573.73	81.4263	8,573.73	82.6442	8,573.73	81.4991	8,573.73	81.5714	8,573.73	80.1036	8,573.73	80.3166	8,573.73	78.3286	8,573.73	79.6083	8,573.73	77.4479	8,573.73	76.5898	8,573.73	75.5637	8,573.73	75.6983	8,573.73	72.1734	8,573.73	72.4026	8,573.73	69.4771	8,573.73	69.8699	8,573.73	67.5671	8,573.73	66.2546	8,573.73	63.3408	8,573.73	65.7571	8,573.73	64.2427	8,573.73	65.13	8,573.73	62.1451	8,573.73	60.0917	8,573.73	64.9302	8,573.73	64.348	8,573.73	65.822	8,573.73	65.7576	8,573.73	63.9369	8,573.73	65.4986	8,573.73	60.0788
8,876.95	84.0379	8,876.95	84.0408	8,876.95	84.2335	8,876.95	82.766	8,876.95	83.1065	8,876.95	81.948	8,876.95	81.4227	8,876.95	81.014	8,876.95	80.559	8,876.95	80.4376	8,876.95	80.8833	8,876.95	79.7429	8,876.95	78.9763	8,876.95	78.1708	8,876.95	77.5961	8,876.95	74.3238	8,876.95	73.5591	8,876.95	72.2701	8,876.95	71.6829	8,876.95	68.7203	8,876.95	68.9184	8,876.95	66.9085	8,876.95	67.7521	8,876.95	62.7774	8,876.95	63.4144	8,876.95	64.9867	8,876.95	61.1209	8,876.95	60.8928	8,876.95	58.8411	8,876.95	64.5093	8,876.95	64.7822	8,876.95	65.366	8,876.95	64.7441	8,876.95	62.6949	8,876.95	63.9964	8,876.95	53.8139
9,188.96	84.7612	9,188.96	84.5051	9,188.96	84.3652	9,188.96	83.2506	9,188.96	83.8747	9,188.96	80.8048	9,188.96	81.8827	9,188.96	81.1322	9,188.96	80.7249	9,188.96	80.754	9,188.96	80.5203	9,188.96	79.7003	9,188.96	79.9952	9,188.96	77.8802	9,188.96	77.2966	9,188.96	74.6992	9,188.96	75.8119	9,188.96	70.2756	9,188.96	72.2667	9,188.96	66.6911	9,188.96	68.9169	9,188.96	66.3442	9,188.96	67.2534	9,188.96	59.6573	9,188.96	65.2563	9,188.96	61.2855	9,188.96	65.9554	9,188.96	61.9352	9,188.96	61.1323	9,188.96	61.4222	9,188.96	61.6299	9,188.96	62.4693	9,188.96	66.046	9,188.96	61.582	9,188.96	66.5878	9,188.96	55.9336
9,514.16	83.3314	9,514.16	83.3835	9,514.16	83.7738	9,514.16	82.1752	9,514.16	82.6958	9,514.16	80.5695	9,514.16	80.3989	9,514.16	80.4155	9,514.16	80.4648	9,514.16	80.4979	9,514.16	81.0558	9,514.16	79.783	9,514.16	80.1557	9,514.16	77.2375	9,514.16	78.3526	9,514.16	73.7693	9,514.16	73.714	9,514.16	72.0354	9,514.16	71.59	9,514.16	68.074	9,514.16	69.0915	9,514.16	65.8531	9,514.16	66.7934	9,514.16	61.7617	9,514.16	63.797	9,514.16	57.9863	9,514.16	62.9796	9,514.16	59.6898	9,514.16	60.1859	9,514.16	63.4662	9,514.16	62.7698	9,514.16	64.4726	9,514.16	64.9061	9,514.16	61.3605	9,514.16	64.9269	9,514.16	54.5813
9,849.61	83.7823	9,849.61	83.8054	9,849.61	84.0251	9,849.61	82.9926	9,849.61	83.5624	9,849.61	80.6628	9,849.61	81.4679	9,849.61	80.6972	9,849.61	81.0642	9,849.61	80.6106	9,849.61	81.1235	9,849.61	79.2971	9,849.61	79.7958	9,849.61	75.2858	9,849.61	76.9512	9,849.61	74.3251	9,849.61	74.6153	9,849.61	68.5482	9,849.61	70.9566	9,849.61	68.2529	9,849.61	68.353	9,849.61	64.4837	9,849.61	64.469	9,849.61	62.5133	9,849.61	62.5596	9,849.61	62.8488	9,849.61	62.2553	9,849.61	56.3994	9,849.61	60.0805	9,849.61	62.7079	9,849.61	62.422	9,849.61	64.9364	9,849.61	64.1492	9,849.61	58.6914	9,849.61	63.954	9,849.61	54.3469
10,196.8	83.912	10,196.8	83.9764	10,196.8	84.5167	10,196.8	83.0762	10,196.8	83.8726	10,196.8	81.5421	10,196.8	81.6903	10,196.8	81.0189	10,196.8	81.3518	10,196.8	80.103	10,196.8	80.821	10,196.8	78.0532	10,196.8	79.7102	10,196.8	75.3271	10,196.8	76.8385	10,196.8	71.4058	10,196.8	72.68	10,196.8	68.9404	10,196.8	69.9906	10,196.8	66.0905	10,196.8	67.5526	10,196.8	61.5448	10,196.8	64.2573	10,196.8	59.8871	10,196.8	60.2321	10,196.8	60.7898	10,196.8	62.2822	10,196.8	57.4158	10,196.8	58.0135	10,196.8	61.3729	10,196.8	60.6095	10,196.8	63.5621	10,196.8	63.0266	10,196.8	60.1692	10,196.8	62.5637	10,196.8	44.1853
10,555.7	84.3402	10,555.7	84.8738	10,555.7	84.6357	10,555.7	83.8707	10,555.7	84.577	10,555.7	81.6274	10,555.7	82.5048	10,555.7	81.5778	10,555.7	81.7966	10,555.7	79.6043	10,555.7	80.6227	10,555.7	77.5203	10,555.7	78.7074	10,555.7	74.6492	10,555.7	75.4663	10,555.7	72.5661	10,555.7	73.0892	10,555.7	69.856	10,555.7	70.8119	10,555.7	66.2889	10,555.7	66.7811	10,555.7	65.1369	10,555.7	64.9322	10,555.7	62.4457	10,555.7	61.7499	10,555.7	57.4113	10,555.7	57.2456	10,555.7	53.7867	10,555.7	56.1576	10,555.7	60.2891	10,555.7	60.6966	10,555.7	62.7511	10,555.7	62.166	10,555.7	60.7266	10,555.7	61.3839	10,555.7	50.3488
10,927.7	84.7076	10,927.7	84.8263	10,927.7	85.1413	10,927.7	83.6457	10,927.7	84.3686	10,927.7	82.2023	10,927.7	83.1116	10,927.7	80.8207	10,927.7	81.5708	10,927.7	79.801	10,927.7	81.044	10,927.7	77.1299	10,927.7	78.7005	10,927.7	75.4364	10,927.7	75.9559	10,927.7	72.3653	10,927.7	73.5368	10,927.7	70.0215	10,927.7	70.9822	10,927.7	66.5073	10,927.7	68.8338	10,927.7	65.9282	10,927.7	65.9909	10,927.7	60.4065	10,927.7	61.8017	10,927.7	51.2873	10,927.7	59.3502	10,927.7	54.1746	10,927.7	57.8496	10,927.7	60.3256	10,927.7	58.3358	10,927.7	63.3005	10,927.7	63.42	10,927.7	59.8224	10,927.7	60.6317	10,927.7	53.1291
11,313	84.5682	11,313	84.3941	11,313	84.6588	11,313	84.2588	11,313	84.7183	11,313	82.5886	11,313	83.4048	11,313	81.3522	11,313	81.9957	11,313	79.0877	11,313	79.9677	11,313	77.9329	11,313	78.4715	11,313	75.3136	11,313	75.9963	11,313	72.8518	11,313	73.3829	11,313	67.8918	11,313	70.246	11,313	65.6973	11,313	67.3751	11,313	65.4161	11,313	65.235	11,313	59.7287	11,313	61.1941	11,313	54.6163	11,313	62.0205	11,313	51.5141	11,313	56.98	11,313	59.3021	11,313	58.4395	11,313	63.6201	11,313	63.9736	11,313	59.6749	11,313	60.5837	11,313	53.466
11,712.9	84.9353	11,712.9	84.631	11,712.9	84.9284	11,712.9	84.4197	11,712.9	84.538	11,712.9	82.6466	11,712.9	83.5475	11,712.9	80.7504	11,712.9	81.5426	11,712.9	78.7871	11,712.9	79.7141	11,712.9	77.3968	11,712.9	78.3193	11,712.9	74.7902	11,712.9	75.9574	11,712.9	72.1564	11,712.9	72.6297	11,712.9	68.2427	11,712.9	69.6175	11,712.9	66.8942	11,712.9	67.785	11,712.9	63.7242	11,712.9	64.2613	11,712.9	58.729	11,712.9	62.2804	11,712.9	58.8519	11,712.9	59.2245	11,712.9	55.3922	11,712.9	55.3262	11,712.9	56.6084	11,712.9	52.7138	11,712.9	62.5183	11,712.9	63.8945	11,712.9	58.1405	11,712.9	58.9442	11,712.9	50.9211
12,126	85.0382	12,126	84.8387	12,126	84.8535	12,126	84.2282	12,126	84.9566	12,126	83.3598	12,126	83.7678	12,126	80.5592	12,126	81.559	12,126	77.9882	12,126	79.4676	12,126	77.4635	12,126	78.1589	12,126	74.6463	12,126	75.5006	12,126	72.3052	12,126	72.167	12,126	67.0918	12,126	68.5037	12,126	65.1321	12,126	65.7461	12,126	63.2291	12,126	62.2636	12,126	57.1689	12,126	59.1355	12,126	57.7929	12,126	55.4295	12,126	54.091	12,126	50.5709	12,126	55.2518	12,126	52.3301	12,126	61.0506	12,126	62.3839	12,126	52.8723	12,126	54.4971	12,126	53.2711
12,553.7	85.5095	12,553.7	84.703	12,553.7	85.0849	12,553.7	84.7738	12,553.7	84.8756	12,553.7	82.3143	12,553.7	83.5294	12,553.7	80.2478	12,553.7	81.0884	12,553.7	78.6065	12,553.7	78.679	12,553.7	75.9564	12,553.7	77.2463	12,553.7	73.0573	12,553.7	75.1588	12,553.7	68.3663	12,553.7	70.6268	12,553.7	67.38	12,553.7	68.0028	12,553.7	62.3931	12,553.7	63.6612	12,553.7	57.0337	12,553.7	60.8967	12,553.7	57.5549	12,553.7	56.5981	12,553.7	53.7357	12,553.7	52.777	12,553.7	55.5728	12,553.7	45.509	12,553.7	54.728	12,553.7	50.1837	12,553.7	60.1981	12,553.7	61.946	12,553.7	56.3266	12,553.7	54.431	12,553.7	55.6844
12,996.1	85.2713	12,996.1	85.1977	12,996.1	84.98	12,996.1	84.917	12,996.1	85.0648	12,996.1	82.955	12,996.1	83.9835	12,996.1	80.9387	12,996.1	81.4195	12,996.1	79.3235	12,996.1	79.0123	12,996.1	77.0567	12,996.1	76.6512	12,996.1	73.9903	12,996.1	73.3318	12,996.1	70.1982	12,996.1	68.4097	12,996.1	66.5081	12,996.1	66.2714	12,996.1	63.8531	12,996.1	62.4406	12,996.1	61.7909	12,996.1	60.9765	12,996.1	52.5206	12,996.1	56.765	12,996.1	54.5504	12,996.1	58.9771	12,996.1	51.9242	12,996.1	52.2604	12,996.1	52.0506	12,996.1	49.9258	12,996.1	58.7483	12,996.1	61.4865	12,996.1	52.1347	12,996.1	52.9746	12,996.1	52.2007
13,454.6	85.4978	13,454.6	85.2133	13,454.6	85.355	13,454.6	85.5601	13,454.6	85.2404	13,454.6	83.7272	13,454.6	83.8048	13,454.6	81.6055	13,454.6	81.4606	13,454.6	79.5323	13,454.6	79.3428	13,454.6	77.168	13,454.6	76.5314	13,454.6	73.1912	13,454.6	71.5393	13,454.6	71.0774	13,454.6	68.1531	13,454.6	66.5334	13,454.6	64.6688	13,454.6	62.8792	13,454.6	62.2359	13,454.6	60.968	13,454.6	59.9817	13,454.6	56.0122	13,454.6	53.1349	13,454.6	55.704	13,454.6	59.2096	13,454.6	52.5089	13,454.6	51.956	13,454.6	53.784	13,454.6	47.0949	13,454.6	59.9307	13,454.6	59.1883	13,454.6	50.0646	13,454.6	52.8011	13,454.6	49.558
13,929.2	86.1767	13,929.2	85.3762	13,929.2	85.721	13,929.2	85.5422	13,929.2	85.3202	13,929.2	83.4653	13,929.2	83.6114	13,929.2	81.9041	13,929.2	81.4494	13,929.2	79.5146	13,929.2	79.3448	13,929.2	76.8955	13,929.2	75.7857	13,929.2	73.6051	13,929.2	70.9945	13,929.2	70.4171	13,929.2	67.7763	13,929.2	67.3487	13,929.2	64.7561	13,929.2	64.01	13,929.2	60.3232	13,929.2	58.8748	13,929.2	58.9583	13,929.2	57.9289	13,929.2	54.666	13,929.2	59.7656	13,929.2	60.9385	13,929.2	56.1344	13,929.2	55.6223	13,929.2	48.4933	13,929.2	45.662	13,929.2	58.4452	13,929.2	59.1369	13,929.2	54.2191	13,929.2	53.2309	13,929.2	50.9165
14,419.9	86.1292	14,419.9	85.79	14,419.9	85.6285	14,419.9	85.2642	14,419.9	85.1327	14,419.9	83.4145	14,419.9	83.3286	14,419.9	82.1418	14,419.9	81.2971	14,419.9	79.3693	14,419.9	78.6771	14,419.9	77.2623	14,419.9	75.1487	14,419.9	73.9242	14,419.9	72.0314	14,419.9	71.0086	14,419.9	68.3586	14,419.9	66.4913	14,419.9	65.0116	14,419.9	63.8501	14,419.9	59.4377	14,419.9	60.993	14,419.9	58.1581	14,419.9	58.7575	14,419.9	54.8563	14,419.9	57.3878	14,419.9	59.2772	14,419.9	57.318	14,419.9	51.8257	14,419.9	48.2632	14,419.9	47.5762	14,419.9	55.5093	14,419.9	58.1112	14,419.9	54.8729	14,419.9	51.8997	14,419.9	49.8327
14,928.2	85.8301	14,928.2	85.951	14,928.2	85.6083	14,928.2	85.2066	14,928.2	85.1481	14,928.2	83.6898	14,928.2	83.1616	14,928.2	81.7043	14,928.2	81.242	14,928.2	78.9891	14,928.2	77.4475	14,928.2	76.9122	14,928.2	74.2268	14,928.2	73.8472	14,928.2	69.764	14,928.2	70.8971	14,928.2	67.0483	14,928.2	66.4434	14,928.2	64.0506	14,928.2	63.1925	14,928.2	60.9914	14,928.2	58.3757	14,928.2	58.6066	14,928.2	57.8253	14,928.2	57.1085	14,928.2	57.6184	14,928.2	60.5403	14,928.2	54.3047	14,928.2	54.8812	14,928.2	53.4595	14,928.2	48.0261	14,928.2	55.5766	14,928.2	56.5512	14,928.2	54.4547	14,928.2	54.5085	14,928.2	46.1426
15,455.6	86.1253	15,455.6	85.9261	15,455.6	86.1926	15,455.6	85.1	15,455.6	84.9319	15,455.6	83.4295	15,455.6	83.2455	15,455.6	81.2248	15,455.6	80.8546	15,455.6	78.5848	15,455.6	77.8323	15,455.6	76.5491	15,455.6	75.3517	15,455.6	73.2105	15,455.6	71.5154	15,455.6	70.0912	15,455.6	68.2438	15,455.6	66.1865	15,455.6	65.3092	15,455.6	62.3925	15,455.6	62.7388	15,455.6	61.1903	15,455.6	59.3063	15,455.6	58.9006	15,455.6	57.527	15,455.6	58.2204	15,455.6	58.5815	15,455.6	54.1014	15,455.6	55.0091	15,455.6	45.3124	15,455.6	46.3375	15,455.6	54.7869	15,455.6	51.3445	15,455.6	55.1414	15,455.6	55.6412	15,455.6	51.7712
16,000.5	86.3285	16,000.5	86.0722	16,000.5	86.3694	16,000.5	84.8977	16,000.5	84.9982	16,000.5	83.4892	16,000.5	83.5357	16,000.5	80.8378	16,000.5	80.7622	16,000.5	78.5479	16,000.5	78.2519	16,000.5	76.6826	16,000.5	76.0478	16,000.5	73.2605	16,000.5	73.0037	16,000.5	70.4697	16,000.5	69.9023	16,000.5	66.0136	16,000.5	66.5518	16,000.5	64.1232	16,000.5	63.1599	16,000.5	61.6858	16,000.5	60.1409	16,000.5	59.0697	16,000.5	58.8025	16,000.5	55.7582	16,000.5	59.7408	16,000.5	53.7761	16,000.5	55.6302	16,000.5	47.6481	16,000.5	48.1909	16,000.5	54.7686	16,000.5	52.7184	16,000.5	56.7287	16,000.5	55.2741	16,000.5	50.6219
16,564.5	86.215	16,564.5	86.0028	16,564.5	86.3214	16,564.5	84.7079	16,564.5	84.8826	16,564.5	83.5077	16,564.5	83.8527	16,564.5	80.9966	16,564.5	80.755	16,564.5	78.8475	16,564.5	78.6567	16,564.5	77.017	16,564.5	76.5469	16,564.5	74.5729	16,564.5	74.2382	16,564.5	71.6738	16,564.5	71.1414	16,564.5	67.5202	16,564.5	68.0844	16,564.5	64.8702	16,564.5	64.1975	16,564.5	62.5812	16,564.5	62.0965	16,564.5	58.5584	16,564.5	61.4329	16,564.5	58.0042	16,564.5	59.9573	16,564.5	52.1819	16,564.5	56.3517	16,564.5	50.3647	16,564.5	50.0478	16,564.5	56.9581	16,564.5	53.6843	16,564.5	57.3809	16,564.5	56.7812	16,564.5	51.0013
17,148.9	85.99	17,148.9	85.4019	17,148.9	85.9909	17,148.9	84.1702	17,148.9	84.6538	17,148.9	82.749	17,148.9	83.3935	17,148.9	80.651	17,148.9	80.5918	17,148.9	77.9073	17,148.9	78.0211	17,148.9	76.4883	17,148.9	76.1563	17,148.9	74.685	17,148.9	74.279	17,148.9	71.4077	17,148.9	70.4744	17,148.9	67.6881	17,148.9	67.0101	17,148.9	63.2538	17,148.9	63.6891	17,148.9	61.445	17,148.9	61.1757	17,148.9	56.4914	17,148.9	59.725	17,148.9	56.8006	17,148.9	55.5833	17,148.9	51.892	17,148.9	54.578	17,148.9	48.7725	17,148.9	49.7	17,148.9	56.3886	17,148.9	53.0281	17,148.9	56.5369	17,148.9	54.7323	17,148.9	50.0601
17,752.4	85.7277	17,752.4	84.8307	17,752.4	85.4537	17,752.4	83.7459	17,752.4	84.4335	17,752.4	81.44	17,752.4	82.5242	17,752.4	79.5833	17,752.4	80.135	17,752.4	76.0554	17,752.4	76.7676	17,752.4	74.7125	17,752.4	74.9254	17,752.4	72.1865	17,752.4	72.1174	17,752.4	68.0962	17,752.4	67.4555	17,752.4	63.51	17,752.4	63.4958	17,752.4	59.1223	17,752.4	60.5137	17,752.4	58.376	17,752.4	57.1537	17,752.4	54.1701	17,752.4	54.4125	17,752.4	52.6086	17,752.4	46.5523	17,752.4	49.3093	17,752.4	50.237	17,752.4	45.8142	17,752.4	44.3896	17,752.4	52.8793	17,752.4	50.3798	17,752.4	52.568	17,752.4	48.6384	17,752.4	47.9846
18,379.4	85.4663	18,379.4	84.2323	18,379.4	85.1672	18,379.4	82.7601	18,379.4	84.1105	18,379.4	79.7353	18,379.4	81.7895	18,379.4	77.4122	18,379.4	79.1498	18,379.4	72.9873	18,379.4	75.2608	18,379.4	70.9206	18,379.4	72.1669	18,379.4	67.1551	18,379.4	67.5907	18,379.4	62.2795	18,379.4	61.6176	18,379.4	56.9147	18,379.4	58.6913	18,379.4	52.1004	18,379.4	55.3225	18,379.4	53.2584	18,379.4	51.4592	18,379.4	48.1471	18,379.4	49.3674	18,379.4	46.8453	18,379.4	33.9453	18,379.4	43.7377	18,379.4	43.8518	18,379.4	42.8524	18,379.4	38.5646	18,379.4	46.7847	18,379.4	46.3848	18,379.4	41.4983	18,379.4	35.1244	18,379.4	44.9366
19,026.9	85.079	19,026.9	83.8231	19,026.9	84.8323	19,026.9	81.9226	19,026.9	83.6167	19,026.9	78.0936	19,026.9	81.093	19,026.9	74.4836	19,026.9	78.1015	19,026.9	69.1768	19,026.9	73.6008	19,026.9	64.5311	19,026.9	69.3327	19,026.9	59.6665	19,026.9	64.196	19,026.9	52.2425	19,026.9	58.0929	19,026.9	45.6044	19,026.9	56.0437	19,026.9	28.198	19,026.9	50.6554	19,026.9	45.9315	19,026.9	49.296	19,026.9	40.8876	19,026.9	47.7067	19,026.9	37.7885	19,026.9	40.9068	19,026.9	39.8674	19,026.9	39.6882	19,026.9	34.5341	19,026.9	31.1614	19,026.9	41.3147	19,026.9	44.4808	19,026.9	35.9105	19,026.9	42.8262	19,026.9	40.7783
19,697.8	84.3936	19,697.8	83.1099	19,697.8	84.2311	19,697.8	80.7179	19,697.8	82.8238	19,697.8	76.7415	19,697.8	80.4043	19,697.8	72.2205	19,697.8	76.9835	19,697.8	65.6193	19,697.8	72.067	19,697.8	54.0166	19,697.8	67.1	19,697.8	48.4391	19,697.8	61.1824	19,697.8	51.8702	19,697.8	54.8729	19,697.8	41.7208	19,697.8	54.3447	19,697.8	45.6733	19,697.8	49.1939	19,697.8	41.8031	19,697.8	48.2079	19,697.8	40.1407	19,697.8	44.8417	19,697.8	25.1755	19,697.8	39.8549	19,697.8	37.3078	19,697.8	39.668	19,697.8	38.1609	19,697.8	32.1821	19,697.8	41.125	19,697.8	45.6073	19,697.8	36.8329	19,697.8	44.4096	19,697.8	39.2252
19,999.5	83.9492	19,999.5	82.5622	19,999.5	83.6291	19,999.5	80.153	19,999.5	82.3329	19,999.5	75.7021	19,999.5	79.6911	19,999.5	71.0965	19,999.5	76.2191	19,999.5	62.6159	19,999.5	71.5	19,999.5	42.4669	19,999.5	65.5857	19,999.5	50.28	19,999.5	60.5289	19,999.5	53.6846	19,999.5	52.0545	19,999.5	42.5884	19,999.5	56.0991	19,999.5	51.1526	19,999.5	54.2337	19,999.5	42.6394	19,999.5	53.4773	19,999.5	46.9797	19,999.5	35.3572	19,999.5	46.8032	19,999.5	31.5096	19,999.5	36.4803	19,999.5	43.447	19,999.5	50.7613	19,999.5	39.3999	19,999.5	48.6682	19,999.5	49.7687	19,999.5	43.7495	19,999.5	46.5837	19,999.5	40.4902
