"SPL Vertical"
"On-Axis"		"10°"		"-10°"		"20°"		"-20°"		"30°"		"-30°"		"40°"		"-40°"		"50°"		"-50°"		"60°"		"-60°"		"70°"		"-70°"		"80°"		"-80°"		"90°"		"-90°"		"100°"		"-100°"		"110°"		"-110°"		"120°"		"-120°"		"130°"		"-130°"		"140°"		"-140°"		"150°"		"-150°"		"160°"		"-160°"		"170°"		"-170°"		"180°"
"Frequency [Hz]"	"Sound Pessure Level [dB]   [2.83  V @ 1. m]"	"Frequency [Hz]"	"Sound Pessure Level [dB]   [2.83  V @ 1. m]"	"Frequency [Hz]"	"Sound Pessure Level [dB]   [2.83  V @ 1. m]"	"Frequency [Hz]"	"Sound Pessure Level [dB]   [2.83  V @ 1. m]"	"Frequency [Hz]"	"Sound Pessure Level [dB]   [2.83  V @ 1. m]"	"Frequency [Hz]"	"Sound Pessure Level [dB]   [2.83  V @ 1. m]"	"Frequency [Hz]"	"Sound Pessure Level [dB]   [2.83  V @ 1. m]"	"Frequency [Hz]"	"Sound Pessure Level [dB]   [2.83  V @ 1. m]"	"Frequency [Hz]"	"Sound Pessure Level [dB]   [2.83  V @ 1. m]"	"Frequency [Hz]"	"Sound Pessure Level [dB]   [2.83  V @ 1. m]"	"Frequency [Hz]"	"Sound Pessure Level [dB]   [2.83  V @ 1. m]"	"Frequency [Hz]"	"Sound Pessure Level [dB]   [2.83  V @ 1. m]"	"Frequency [Hz]"	"Sound Pessure Level [dB]   [2.83  V @ 1. m]"	"Frequency [Hz]"	"Sound Pessure Level [dB]   [2.83  V @ 1. m]"	"Frequency [Hz]"	"Sound Pessure Level [dB]   [2.83  V @ 1. m]"	"Frequency [Hz]"	"Sound Pessure Level [dB]   [2.83  V @ 1. m]"	"Frequency [Hz]"	"Sound Pessure Level [dB]   [2.83  V @ 1. m]"	"Frequency [Hz]"	"Sound Pessure Level [dB]   [2.83  V @ 1. m]"	"Frequency [Hz]"	"Sound Pessure Level [dB]   [2.83  V @ 1. m]"	"Frequency [Hz]"	"Sound Pessure Level [dB]   [2.83  V @ 1. m]"	"Frequency [Hz]"	"Sound Pessure Level [dB]   [2.83  V @ 1. m]"	"Frequency [Hz]"	"Sound Pessure Level [dB]   [2.83  V @ 1. m]"	"Frequency [Hz]"	"Sound Pessure Level [dB]   [2.83  V @ 1. m]"	"Frequency [Hz]"	"Sound Pessure Level [dB]   [2.83  V @ 1. m]"	"Frequency [Hz]"	"Sound Pessure Level [dB]   [2.83  V @ 1. m]"	"Frequency [Hz]"	"Sound Pessure Level [dB]   [2.83  V @ 1. m]"	"Frequency [Hz]"	"Sound Pessure Level [dB]   [2.83  V @ 1. m]"	"Frequency [Hz]"	"Sound Pessure Level [dB]   [2.83  V @ 1. m]"	"Frequency [Hz]"	"Sound Pessure Level [dB]   [2.83  V @ 1. m]"	"Frequency [Hz]"	"Sound Pessure Level [dB]   [2.83  V @ 1. m]"	"Frequency [Hz]"	"Sound Pessure Level [dB]   [2.83  V @ 1. m]"	"Frequency [Hz]"	"Sound Pessure Level [dB]   [2.83  V @ 1. m]"	"Frequency [Hz]"	"Sound Pessure Level [dB]   [2.83  V @ 1. m]"	"Frequency [Hz]"	"Sound Pessure Level [dB]   [2.83  V @ 1. m]"	"Frequency [Hz]"	"Sound Pessure Level [dB]   [2.83  V @ 1. m]"	"Frequency [Hz]"	"Sound Pessure Level [dB]   [2.83  V @ 1. m]"
20.5078	47.2834	20.5078	46.7326	20.5078	47.6246	20.5078	45.9508	20.5078	47.7629	20.5078	44.8975	20.5078	47.6928	20.5078	43.5033	20.5078	47.3954	20.5078	41.6515	20.5078	46.8362	20.5078	39.1484	20.5078	45.9577	20.5078	35.7633	20.5078	44.6654	20.5078	32.4087	20.5078	42.7944	20.5078	33.8417	20.5078	40.0291	20.5078	37.6882	20.5078	35.7308	20.5078	40.7468	20.5078	30.4831	20.5078	42.9901	20.5078	34.3554	20.5078	44.6429	20.5078	39.2447	20.5078	45.8465	20.5078	42.3727	20.5078	46.6794	20.5078	44.4498	20.5078	47.1811	20.5078	45.844	20.5078	47.3655	20.5078	46.7371	20.5078	47.2264
21.9727	43.5018	21.9727	42.4563	21.9727	44.0875	21.9727	40.8407	21.9727	44.2583	21.9727	38.4542	21.9727	44.0088	21.9727	35.1484	21.9727	43.2793	21.9727	32.9119	21.9727	41.927	21.9727	35.9747	21.9727	39.6342	21.9727	39.9998	21.9727	35.6137	21.9727	43.127	21.9727	28.8027	21.9727	45.5305	21.9727	33.7823	21.9727	47.427	21.9727	40.0278	21.9727	48.9493	21.9727	43.9165	21.9727	50.176	21.9727	46.6276	21.9727	51.1538	21.9727	48.6272	21.9727	51.9096	21.9727	50.1298	21.9727	52.458	21.9727	51.25	21.9727	52.8044	21.9727	52.0554	21.9727	52.9474	21.9727	52.5891	21.9727	52.8799
23.4375	48.0377	23.4375	47.5534	23.4375	48.3405	23.4375	46.9201	23.4375	48.4434	23.4375	46.2076	23.4375	48.3326	23.4375	45.558	23.4375	47.9971	23.4375	45.2056	23.4375	47.4358	23.4375	45.3922	23.4375	46.6837	23.4375	46.1697	23.4375	45.8743	23.4375	47.3472	23.4375	45.3339	23.4375	48.672	23.4375	45.5191	23.4375	49.9701	23.4375	46.5683	23.4375	51.1537	23.4375	48.1089	23.4375	52.1856	23.4375	49.7108	23.4375	53.0514	23.4375	51.1493	23.4375	53.7451	23.4375	52.3474	23.4375	54.263	23.4375	53.2919	23.4375	54.6004	23.4375	53.9907	23.4375	54.7513	23.4375	54.4579	23.4375	54.7073
24.9023	49.3317	24.9023	48.8048	24.9023	49.6706	24.9023	48.1206	24.9023	49.8055	24.9023	47.3481	24.9023	49.724	24.9023	46.6343	24.9023	49.4153	24.9023	46.2301	24.9023	48.8754	24.9023	46.3992	24.9023	48.1282	24.9023	47.1935	24.9023	47.2787	24.9023	48.3986	24.9023	46.607	24.9023	49.7428	24.9023	46.5698	24.9023	51.0474	24.9023	47.4195	24.9023	52.2266	24.9023	48.8665	24.9023	53.2463	24.9023	50.4534	24.9023	54.0944	24.9023	51.9106	24.9023	54.7666	24.9023	53.1383	24.9023	55.2603	24.9023	54.1145	24.9023	55.5716	24.9023	54.845	24.9023	55.6948	24.9023	55.3428	24.9023	55.622
26.3672	53.0148	26.3672	52.6584	26.3672	53.253	26.3672	52.2103	26.3672	53.3564	26.3672	51.7155	26.3672	53.3152	26.3672	51.2468	26.3672	53.1251	26.3672	50.9095	26.3672	52.7921	26.3672	50.8226	26.3672	52.3427	26.3672	51.0665	26.3672	51.8434	26.3672	51.6315	26.3672	51.4232	26.3672	52.4242	26.3672	51.2684	26.3672	53.3237	26.3672	51.5367	26.3672	54.2284	26.3672	52.2292	26.3672	55.0696	26.3672	53.1848	26.3672	55.8054	26.3672	54.2076	26.3672	56.4102	26.3672	55.1575	26.3672	56.8675	26.3672	55.9589	26.3672	57.1653	26.3672	56.5789	26.3672	57.2935	26.3672	57.0069	26.3672	57.2433
27.832	53.7631	27.832	53.3643	27.832	54.0268	27.832	52.8556	27.832	54.1407	27.832	52.2814	27.832	54.0949	27.832	51.7203	27.832	53.8841	27.832	51.2939	27.832	53.5109	27.832	51.149	27.832	52.9968	27.832	51.3894	27.832	52.4035	27.832	52.0019	27.832	51.8642	27.832	52.8668	27.832	51.5931	27.832	53.8374	27.832	51.796	27.832	54.799	27.832	52.4975	27.832	55.6804	27.832	53.5122	27.832	56.441	27.832	54.6073	27.832	57.0584	27.832	55.6226	27.832	57.5186	27.832	56.4773	27.832	57.8114	27.832	57.1388	27.832	57.928	27.832	57.5989	27.832	57.8598
29.2969	55.7447	29.2969	55.4422	29.2969	55.9536	29.2969	55.0737	29.2969	56.0522	29.2969	54.6819	29.2969	56.0314	29.2969	54.3302	29.2969	55.8898	29.2969	54.1003	29.2969	55.6374	29.2969	54.0761	29.2969	55.3037	29.2969	54.3094	29.2969	54.9493	29.2969	54.7925	29.2969	54.676	29.2969	55.4618	29.2969	54.6139	29.2969	56.2297	29.2969	54.8647	29.2969	57.0157	29.2969	55.4314	29.2969	57.7593	29.2969	56.2121	29.2969	58.4191	29.2969	57.0676	29.2969	58.9677	29.2969	57.8831	29.2969	59.3862	29.2969	58.5863	29.2969	59.6608	29.2969	59.1387	29.2969	59.7805	29.2969	59.5237	29.2969	59.7369
30.7617	56.3571	30.7617	56.0151	30.7617	56.5874	30.7617	55.5888	30.7617	56.6891	30.7617	55.1223	30.7617	56.6522	30.7617	54.6846	30.7617	56.4731	30.7617	54.3702	30.7617	56.1581	30.7617	54.2822	30.7617	55.7313	30.7617	54.4891	30.7617	55.2503	30.7617	54.9841	30.7617	54.8236	30.7617	55.6897	30.7617	54.6091	30.7617	56.5004	30.7617	54.7547	30.7617	57.3236	30.7617	55.293	30.7617	58.0932	30.7617	56.1106	30.7617	58.7668	30.7617	57.0352	30.7617	59.3175	30.7617	57.9261	30.7617	59.7279	30.7617	58.6988	30.7617	59.9851	30.7617	59.3113	30.7617	60.0792	30.7617	59.7469	30.7617	60.0019
32.2266	57.7591	32.2266	57.554	32.2266	57.9059	32.2266	57.319	32.2266	57.9768	32.2266	57.0942	32.2266	57.9635	32.2266	56.9305	32.2266	57.8675	32.2266	56.8838	32.2266	57.7037	32.2266	57.0004	32.2266	57.5051	32.2266	57.2999	32.2266	57.3284	32.2266	57.7667	32.2266	57.2524	32.2266	58.3564	32.2266	57.3589	32.2266	59.0119	32.2266	57.6956	32.2266	59.6787	32.2266	58.2462	32.2266	60.3118	32.2266	58.937	32.2266	60.8775	32.2266	59.674	32.2266	61.3506	32.2266	60.3761	32.2266	61.7127	32.2266	60.9864	32.2266	61.9495	32.2266	61.4714	32.2266	62.05	32.2266	61.8135	32.2266	62.0063
33.6914	59.5689	33.6914	59.3956	33.6914	59.6983	33.6914	59.2016	33.6914	59.7687	33.6914	59.0185	33.6914	59.773	33.6914	58.8849	33.6914	59.7125	33.6914	58.8423	33.6914	59.5996	33.6914	58.9261	33.6914	59.4607	33.6914	59.1546	33.6914	59.3392	33.6914	59.5222	33.6914	59.293	33.6914	60.0006	33.6914	59.3815	33.6914	60.5481	33.6914	59.6431	33.6914	61.1198	33.6914	60.0735	33.6914	61.675	33.6914	60.6261	33.6914	62.1805	33.6914	61.2319	33.6914	62.6101	33.6914	61.8231	33.6914	62.9436	33.6914	62.347	33.6914	63.1655	33.6914	62.7684	33.6914	63.2646	33.6914	63.0668	33.6914	63.2328
35.1562	60.6189	35.1562	60.4449	35.1562	60.7487	35.1562	60.2492	35.1562	60.8198	35.1562	60.0621	35.1562	60.8256	35.1562	59.9212	35.1562	60.7678	35.1562	59.8668	35.1562	60.6586	35.1562	59.9335	35.1562	60.5235	35.1562	60.1403	35.1562	60.4036	35.1562	60.4832	35.1562	60.3535	35.1562	60.9363	35.1562	60.4291	35.1562	61.4601	35.1562	60.6672	35.1562	62.011	35.1562	61.0663	35.1562	62.549	35.1562	61.5847	35.1562	63.041	35.1562	62.1582	35.1562	63.4606	35.1562	62.7221	35.1562	63.7875	35.1562	63.2245	35.1562	64.0061	35.1562	63.6299	35.1562	64.1049	35.1562	63.9172	35.1562	64.0764
36.6211	61.8223	36.6211	61.6813	36.6211	61.9331	36.6211	61.5297	36.6211	62.0006	36.6211	61.3936	36.6211	62.0186	36.6211	61.3034	36.6211	61.9888	36.6211	61.2901	36.6211	61.9224	36.6211	61.3794	36.6211	61.8415	36.6211	61.5845	36.6211	61.7806	36.6211	61.9017	36.6211	61.7827	36.6211	62.311	36.6211	61.8902	36.6211	62.7813	36.6211	62.1293	36.6211	63.2773	36.6211	62.4976	36.6211	63.7649	36.6211	62.9623	36.6211	64.2143	36.6211	63.4726	36.6211	64.6007	36.6211	63.9748	36.6211	64.9044	36.6211	64.4239	36.6211	65.11	36.6211	64.7873	36.6211	65.206	36.6211	65.0446	36.6211	65.1852
38.0859	62.9987	38.0859	62.8881	38.0859	63.0903	38.0859	62.7758	38.0859	63.1511	38.0859	62.6839	38.0859	63.1758	38.0859	62.6375	38.0859	63.1663	38.0859	62.6609	38.0859	63.1332	38.0859	62.7732	38.0859	63.0963	38.0859	62.9831	38.0859	63.0847	38.0859	63.2864	38.0859	63.1331	38.0859	63.6667	38.0859	63.2734	38.0859	64.0986	38.0859	63.5233	38.0859	64.5527	38.0859	63.8781	38.0859	64.9998	38.0859	64.3098	38.0859	65.4136	38.0859	64.7762	38.0859	65.7714	38.0859	65.2326	38.0859	66.0546	38.0859	65.6399	38.0859	66.2482	38.0859	65.9691	38.0859	66.3411	38.0859	66.2013	38.0859	66.3264
39.5508	63.9875	39.5508	63.8927	39.5508	64.0712	39.5508	63.8017	39.5508	64.1334	39.5508	63.7334	39.5508	64.1696	39.5508	63.7086	39.5508	64.1816	39.5508	63.7473	39.5508	64.1786	39.5508	63.8647	39.5508	64.1772	39.5508	64.0679	39.5508	64.2014	39.5508	64.3533	39.5508	64.2787	39.5508	64.7072	39.5508	64.4335	39.5508	65.1082	39.5508	64.6791	39.5508	65.5309	39.5508	65.0107	39.5508	65.9493	39.5508	65.4057	39.5508	66.3389	39.5508	65.8289	39.5508	66.6783	39.5508	66.2422	39.5508	66.9494	39.5508	66.6111	39.5508	67.1377	39.5508	66.9088	39.5508	67.2322	39.5508	67.1172	39.5508	67.2261
41.0156	64.9749	41.0156	64.9007	41.0156	65.0455	41.0156	64.8351	41.0156	65.1039	41.0156	64.7932	41.0156	65.1459	41.0156	64.7912	41.0156	65.1726	41.0156	64.8442	41.0156	65.191	41.0156	64.964	41.0156	65.2144	41.0156	65.1558	41.0156	65.2618	41.0156	65.4173	41.0156	65.3548	41.0156	65.7377	41.0156	65.5128	41.0156	66.0999	41.0156	65.746	41.0156	66.4829	41.0156	66.0507	41.0156	66.8638	41.0156	66.4084	41.0156	67.2209	41.0156	66.7901	41.0156	67.5339	41.0156	67.1629	41.0156	67.7857	41.0156	67.4962	41.0156	67.9622	41.0156	67.7655	41.0156	68.0526	41.0156	67.9535	41.0156	68.0503
42.4805	66.5314	42.4805	66.4656	42.4805	66.592	42.4805	66.4035	42.4805	66.6416	42.4805	66.356	42.4805	66.6773	42.4805	66.3356	42.4805	66.7003	42.4805	66.3549	42.4805	66.7157	42.4805	66.4246	42.4805	66.7335	42.4805	66.5519	42.4805	66.7677	42.4805	66.7381	42.4805	66.8345	42.4805	66.9781	42.4805	66.9492	42.4805	67.2607	42.4805	67.1212	42.4805	67.5696	42.4805	67.3503	42.4805	67.8858	42.4805	67.6248	42.4805	68.1893	42.4805	67.9236	42.4805	68.4611	42.4805	68.2207	42.4805	68.6839	42.4805	68.4901	42.4805	68.8438	42.4805	68.7092	42.4805	68.93	42.4805	68.8614	42.4805	68.9364
43.9453	67.4827	43.9453	67.4145	43.9453	67.5451	43.9453	67.3493	43.9453	67.5959	43.9453	67.2979	43.9453	67.6326	43.9453	67.2724	43.9453	67.6561	43.9453	67.2853	43.9453	67.6718	43.9453	67.347	43.9453	67.6892	43.9453	67.4644	43.9453	67.7218	43.9453	67.6393	43.9453	67.7848	43.9453	67.8668	43.9453	67.8925	43.9453	68.1364	43.9453	68.054	43.9453	68.4326	43.9453	68.269	43.9453	68.7371	43.9453	68.5271	43.9453	69.0305	43.9453	68.8087	43.9453	69.2942	43.9453	69.0893	43.9453	69.5116	43.9453	69.3441	43.9453	69.6685	43.9453	69.5513	43.9453	69.7546	43.9453	69.6946	43.9453	69.7638
45.4102	68.3404	45.4102	68.2767	45.4102	68.401	45.4102	68.2175	45.4102	68.4533	45.4102	68.1723	45.4102	68.495	45.4102	68.1519	45.4102	68.527	45.4102	68.1669	45.4102	68.5538	45.4102	68.2266	45.4102	68.5834	45.4102	68.3373	45.4102	68.6272	45.4102	68.5004	45.4102	68.6979	45.4102	68.7122	45.4102	68.8072	45.4102	68.9634	45.4102	68.9624	45.4102	69.2403	45.4102	69.1633	45.4102	69.5262	45.4102	69.4008	45.4102	69.8033	45.4102	69.6578	45.4102	70.054	45.4102	69.913	45.4102	70.2624	45.4102	70.144	45.4102	70.415	45.4102	70.3308	45.4102	70.5016	45.4102	70.4582	45.4102	70.5165
46.875	69.2087	46.875	69.1405	46.875	69.2716	46.875	69.0741	46.875	69.3246	46.875	69.0185	46.875	69.3656	46.875	68.984	46.875	69.3956	46.875	68.9809	46.875	69.4188	46.875	69.0188	46.875	69.4427	46.875	69.1042	46.875	69.4774	46.875	69.2397	46.875	69.5345	46.875	69.4228	46.875	69.625	46.875	69.6457	46.875	69.756	46.875	69.8961	46.875	69.9279	46.875	70.1587	46.875	70.1336	46.875	70.4164	46.875	70.3583	46.875	70.6524	46.875	70.5828	46.875	70.8509	46.875	70.7865	46.875	70.9989	46.875	70.9508	46.875	71.0863	46.875	71.0609	46.875	71.1074
48.3398	69.7065	48.3398	69.6427	48.3398	69.7682	48.3398	69.5838	48.3398	69.8231	48.3398	69.5388	48.3398	69.8692	48.3398	69.518	48.3398	69.9079	48.3398	69.531	48.3398	69.9434	48.3398	69.5865	48.3398	69.983	48.3398	69.6896	48.3398	70.0363	48.3398	69.8416	48.3398	70.1137	48.3398	70.0386	48.3398	70.224	48.3398	70.272	48.3398	70.3725	48.3398	70.5293	48.3398	70.5581	48.3398	70.7954	48.3398	70.7726	48.3398	71.0542	48.3398	71.0015	48.3398	71.2894	48.3398	71.2264	48.3398	71.4866	48.3398	71.4283	48.3398	71.6332	48.3398	71.5897	48.3398	71.7202	48.3398	71.6971	48.3398	71.7418
51.2695	71.313	51.2695	71.2665	51.2695	71.3689	51.2695	71.2343	51.2695	71.4305	51.2695	71.2216	51.2695	71.4952	51.2695	71.2338	51.2695	71.5621	51.2695	71.2757	51.2695	71.6323	51.2695	71.3508	51.2695	71.7082	51.2695	71.4609	51.2695	71.7941	51.2695	71.6053	51.2695	71.8948	51.2695	71.7806	51.2695	72.0145	51.2695	71.9806	51.2695	72.1555	51.2695	72.1967	51.2695	72.3168	51.2695	72.4182	51.2695	72.493	51.2695	72.6333	51.2695	72.6746	51.2695	72.8299	51.2695	72.8493	51.2695	72.9966	51.2695	73.0036	51.2695	73.1233	51.2695	73.1246	51.2695	73.2023	51.2695	73.202	51.2695	73.2289
52.7344	72.1371	52.7344	72.0934	52.7344	72.1878	52.7344	72.0605	52.7344	72.2423	52.7344	72.0431	52.7344	72.2985	52.7344	72.0456	52.7344	72.3557	52.7344	72.0727	52.7344	72.4147	52.7344	72.1278	52.7344	72.4779	52.7344	72.2133	52.7344	72.5491	52.7344	72.3295	52.7344	72.6326	52.7344	72.4746	52.7344	72.7325	52.7344	72.644	52.7344	72.8512	52.7344	72.8306	52.7344	72.9883	52.7344	73.0252	52.7344	73.1394	52.7344	73.2173	52.7344	73.2963	52.7344	73.3955	52.7344	73.448	52.7344	73.5487	52.7344	73.5821	52.7344	73.6671	52.7344	73.6867	52.7344	73.743	52.7344	73.7521	52.7344	73.7718
54.1992	72.6664	54.1992	72.626	54.1992	72.7138	54.1992	72.5963	54.1992	72.7657	54.1992	72.5813	54.1992	72.8203	54.1992	72.5854	54.1992	72.8774	54.1992	72.6128	54.1992	72.938	54.1992	72.6671	54.1992	73.0044	54.1992	72.7504	54.1992	73.08	54.1992	72.8634	54.1992	73.1685	54.1992	73.0043	54.1992	73.2732	54.1992	73.169	54.1992	73.3956	54.1992	73.3508	54.1992	73.5344	54.1992	73.5409	54.1992	73.6849	54.1992	73.7293	54.1992	73.839	54.1992	73.9049	54.1992	73.9859	54.1992	74.0569	54.1992	74.1141	54.1992	74.1758	54.1992	74.2124	54.1992	74.2539	54.1992	74.2718	54.1992	74.2864
55.6641	73.2652	55.6641	73.225	55.6641	73.3135	55.6641	73.1959	55.6641	73.3673	55.6641	73.1818	55.6641	73.4252	55.6641	73.1865	55.6641	73.4866	55.6641	73.2136	55.6641	73.552	55.6641	73.2661	55.6641	73.623	55.6641	73.3459	55.6641	73.7021	55.6641	73.4533	55.6641	73.7917	55.6641	73.5864	55.6641	73.8942	55.6641	73.7414	55.6641	74.0104	55.6641	73.9123	55.6641	74.139	55.6641	74.091	55.6641	74.276	55.6641	74.2682	55.6641	74.4144	55.6641	74.4338	55.6641	74.5453	55.6641	74.578	55.6641	74.6583	55.6641	74.6918	55.6641	74.7439	55.6641	74.7681	55.6641	74.7937	55.6641	74.8025
58.5938	74.2679	58.5938	74.2329	58.5938	74.3129	58.5938	74.21	58.5938	74.3662	58.5938	74.2019	58.5938	74.4264	58.5938	74.2109	58.5938	74.4927	58.5938	74.2394	58.5938	74.5649	58.5938	74.2894	58.5938	74.6433	58.5938	74.3619	58.5938	74.7287	58.5938	74.4572	58.5938	74.8219	58.5938	74.5739	58.5938	74.9235	58.5938	74.7091	58.5938	75.0332	58.5938	74.8581	58.5938	75.1494	58.5938	75.0147	58.5938	75.2684	58.5938	75.1714	58.5938	75.3848	58.5938	75.3197	58.5938	75.4916	58.5938	75.4512	58.5938	75.5808	58.5938	75.558	58.5938	75.6448	58.5938	75.6337	58.5938	75.6772	58.5938	75.674
60.0586	74.7684	60.0586	74.7337	60.0586	74.8139	60.0586	74.7116	60.0586	74.8684	60.0586	74.7041	60.0586	74.9306	60.0586	74.713	60.0586	74.9995	60.0586	74.7403	60.0586	75.0742	60.0586	74.7872	60.0586	75.1545	60.0586	74.8547	60.0586	75.2405	60.0586	74.9426	60.0586	75.3321	60.0586	75.05	60.0586	75.4296	60.0586	75.1743	60.0586	75.5323	60.0586	75.3114	60.0586	75.6387	60.0586	75.456	60.0586	75.7457	60.0586	75.6013	60.0586	75.8485	60.0586	75.74	60.0586	75.9413	60.0586	75.8641	60.0586	76.0171	60.0586	75.9664	60.0586	76.0695	60.0586	76.041	60.0586	76.0928	60.0586	76.0837
62.9883	75.8692	62.9883	75.8347	62.9883	75.9137	62.9883	75.8117	62.9883	75.9671	62.9883	75.8013	62.9883	76.0279	62.9883	75.805	62.9883	76.0951	62.9883	75.8238	62.9883	76.1675	62.9883	75.8589	62.9883	76.2442	62.9883	75.9108	62.9883	76.3243	62.9883	75.9798	62.9883	76.4073	62.9883	76.0653	62.9883	76.4925	62.9883	76.1656	62.9883	76.5789	62.9883	76.278	62.9883	76.6653	62.9883	76.3985	62.9883	76.749	62.9883	76.5219	62.9883	76.8268	62.9883	76.6419	62.9883	76.8941	62.9883	76.752	62.9883	76.9461	62.9883	76.846	62.9883	76.9777	62.9883	76.9184	62.9883	76.9849	62.9883	76.9653
64.4531	76.2879	64.4531	76.2539	64.4531	76.3324	64.4531	76.2312	64.4531	76.3861	64.4531	76.2211	64.4531	76.4479	64.4531	76.2244	64.4531	76.5164	64.4531	76.2421	64.4531	76.5904	64.4531	76.2749	64.4531	76.6685	64.4531	76.3234	64.4531	76.7497	64.4531	76.3876	64.4531	76.8327	64.4531	76.4671	64.4531	76.9164	64.4531	76.5606	64.4531	76.9998	64.4531	76.6655	64.4531	77.081	64.4531	76.7784	64.4531	77.1579	64.4531	76.8946	64.4531	77.2274	64.4531	77.0086	64.4531	77.2858	64.4531	77.1144	64.4531	77.3287	64.4531	77.2061	64.4531	77.352	64.4531	77.2785	64.4531	77.3524	64.4531	77.3279
67.3828	76.9665	67.3828	76.9336	67.3828	77.0107	67.3828	76.9126	67.3828	77.0652	67.3828	76.9039	67.3828	77.1291	67.3828	76.908	67.3828	77.2007	67.3828	76.925	67.3828	77.2783	67.3828	76.9551	67.3828	77.36	67.3828	76.9985	67.3828	77.4439	67.3828	77.0551	67.3828	77.5278	67.3828	77.1244	67.3828	77.6098	67.3828	77.2054	67.3828	77.6881	67.3828	77.2965	67.3828	77.7607	67.3828	77.395	67.3828	77.8254	67.3828	77.4975	67.3828	77.8799	67.3828	77.5996	67.3828	77.9216	67.3828	77.6966	67.3828	77.9476	67.3828	77.7834	67.3828	77.9553	67.3828	77.8555	67.3828	77.9429	67.3828	77.9094
68.8477	77.1873	68.8477	77.1549	68.8477	77.2307	68.8477	77.1341	68.8477	77.2845	68.8477	77.1251	68.8477	77.3477	68.8477	77.1282	68.8477	77.4188	68.8477	77.1433	68.8477	77.4961	68.8477	77.1706	68.8477	77.5775	68.8477	77.2102	68.8477	77.6608	68.8477	77.2619	68.8477	77.7437	68.8477	77.3255	68.8477	77.8238	68.8477	77.4	68.8477	77.8989	68.8477	77.4841	68.8477	77.967	68.8477	77.5756	68.8477	78.0259	68.8477	77.6715	68.8477	78.0735	68.8477	77.768	68.8477	78.1078	68.8477	77.8607	68.8477	78.1263	68.8477	77.9449	68.8477	78.1273	68.8477	78.0166	68.8477	78.1094	68.8477	78.0722
71.7773	77.9672	71.7773	77.9335	71.7773	78.012	71.7773	77.9111	71.7773	78.0672	71.7773	77.8997	71.7773	78.1318	71.7773	77.8993	71.7773	78.2042	71.7773	77.9096	71.7773	78.2823	71.7773	77.9303	71.7773	78.3635	71.7773	77.9612	71.7773	78.4451	71.7773	78.0022	71.7773	78.5239	71.7773	78.0532	71.7773	78.5973	71.7773	78.1136	71.7773	78.6628	71.7773	78.1828	71.7773	78.7182	71.7773	78.2593	71.7773	78.7619	71.7773	78.3412	71.7773	78.7924	71.7773	78.4257	71.7773	78.8088	71.7773	78.5093	71.7773	78.81	71.7773	78.5885	71.7773	78.7954	71.7773	78.6595	71.7773	78.7649	71.7773	78.7191
74.707	78.7448	74.707	78.7116	74.707	78.7892	74.707	78.6895	74.707	78.8443	74.707	78.678	74.707	78.909	74.707	78.6765	74.707	78.9815	74.707	78.6843	74.707	79.0594	74.707	78.7008	74.707	79.1398	74.707	78.7253	74.707	79.2192	74.707	78.7578	74.707	79.2943	74.707	78.798	74.707	79.3619	74.707	78.8457	74.707	79.4192	74.707	78.9009	74.707	79.4641	74.707	78.9629	74.707	79.4951	74.707	79.0307	74.707	79.5115	74.707	79.1027	74.707	79.5131	74.707	79.1765	74.707	79.4999	74.707	79.2493	74.707	79.4726	74.707	79.3181	74.707	79.4321	74.707	79.3799
77.6367	79.0834	77.6367	79.0492	77.6367	79.128	77.6367	79.0253	77.6367	79.1827	77.6367	79.0111	77.6367	79.2465	77.6367	79.0057	77.6367	79.3173	77.6367	79.008	77.6367	79.3928	77.6367	79.0173	77.6367	79.4697	77.6367	79.033	77.6367	79.5444	77.6367	79.0547	77.6367	79.6134	77.6367	79.0825	77.6367	79.6731	77.6367	79.1166	77.6367	79.7208	77.6367	79.1573	77.6367	79.7543	77.6367	79.205	77.6367	79.7723	77.6367	79.2593	77.6367	79.7745	77.6367	79.3196	77.6367	79.7613	77.6367	79.3846	77.6367	79.7339	77.6367	79.452	77.6367	79.6938	77.6367	79.5195	77.6367	79.6431	77.6367	79.5841
79.1016	79.1899	79.1016	79.1562	79.1016	79.234	79.1016	79.1327	79.1016	79.2882	79.1016	79.1185	79.1016	79.3514	79.1016	79.1126	79.1016	79.4219	79.1016	79.1141	79.1016	79.4969	79.1016	79.1218	79.1016	79.5733	79.1016	79.1352	79.1016	79.6473	79.1016	79.1538	79.1016	79.7153	79.1016	79.1778	79.1016	79.7735	79.1016	79.2074	79.1016	79.819	79.1016	79.2433	79.1016	79.8496	79.1016	79.2859	79.1016	79.8639	79.1016	79.3353	79.1016	79.8617	79.1016	79.3913	79.1016	79.8437	79.1016	79.4529	79.1016	79.8114	79.1016	79.5183	79.1016	79.7668	79.1016	79.5852	79.1016	79.7124	79.1016	79.6509
82.0312	79.7254	82.0312	79.6928	82.0312	79.7687	82.0312	79.6701	82.0312	79.8224	82.0312	79.6565	82.0312	79.8856	82.0312	79.6507	82.0312	79.9566	82.0312	79.6514	82.0312	80.0327	82.0312	79.6573	82.0312	80.1104	82.0312	79.6678	82.0312	80.1858	82.0312	79.6823	82.0312	80.2547	82.0312	79.7009	82.0312	80.313	82.0312	79.7242	82.0312	80.3572	82.0312	79.7529	82.0312	80.3848	82.0312	79.7881	82.0312	80.3943	82.0312	79.8305	82.0312	80.3856	82.0312	79.8805	82.0312	80.3598	82.0312	79.9377	82.0312	80.319	82.0312	80.001	82.0312	80.266	82.0312	80.0684	82.0312	80.2042	82.0312	80.1372
84.9609	80.1905	84.9609	80.1582	84.9609	80.2341	84.9609	80.1363	84.9609	80.2889	84.9609	80.1237	84.9609	80.354	84.9609	80.1187	84.9609	80.4275	84.9609	80.1196	84.9609	80.5063	84.9609	80.125	84.9609	80.5868	84.9609	80.1338	84.9609	80.6646	84.9609	80.1452	84.9609	80.7348	84.9609	80.1592	84.9609	80.7931	84.9609	80.1765	84.9609	80.8356	84.9609	80.1981	84.9609	80.8593	84.9609	80.2255	84.9609	80.8629	84.9609	80.2602	84.9609	80.8464	84.9609	80.3033	84.9609	80.8115	84.9609	80.3554	84.9609	80.7609	84.9609	80.4159	84.9609	80.6985	84.9609	80.4835	84.9609	80.6286	84.9609	80.5555
87.8906	80.4539	87.8906	80.4191	87.8906	80.4977	87.8906	80.3923	87.8906	80.5503	87.8906	80.372	87.8906	80.6109	87.8906	80.3565	87.8906	80.6775	87.8906	80.344	87.8906	80.7469	87.8906	80.3329	87.8906	80.8153	87.8906	80.3222	87.8906	80.8783	87.8906	80.3114	87.8906	80.9311	87.8906	80.3011	87.8906	80.9693	87.8906	80.2924	87.8906	80.9894	87.8906	80.2874	87.8906	80.9889	87.8906	80.2887	87.8906	80.967	87.8906	80.299	87.8906	80.9247	87.8906	80.3209	87.8906	80.8646	87.8906	80.3561	87.8906	80.791	87.8906	80.4055	87.8906	80.709	87.8906	80.4683	87.8906	80.6243	87.8906	80.5425
90.8203	80.7203	90.8203	80.6813	90.8203	80.7662	90.8203	80.6484	90.8203	80.8191	90.8203	80.6206	90.8203	80.878	90.8203	80.5966	90.8203	80.9414	90.8203	80.5749	90.8203	81.0067	90.8203	80.5546	90.8203	81.0703	90.8203	80.5348	90.8203	81.1281	90.8203	80.5155	90.8203	81.1757	90.8203	80.4974	90.8203	81.2086	90.8203	80.4818	90.8203	81.2231	90.8203	80.4709	90.8203	81.2167	90.8203	80.4672	90.8203	81.1883	90.8203	80.4738	90.8203	81.1389	90.8203	80.4932	90.8203	81.0712	90.8203	80.5274	90.8203	80.9898	90.8203	80.5775	90.8203	80.9002	90.8203	80.6428	90.8203	80.8086	90.8203	80.7211
95.2148	81.0333	95.2148	80.9937	95.2148	81.083	95.2148	80.9632	95.2148	81.1425	95.2148	80.9406	95.2148	81.2107	95.2148	80.9239	95.2148	81.2854	95.2148	80.9114	95.2148	81.3634	95.2148	80.9011	95.2148	81.4403	95.2148	80.8918	95.2148	81.5112	95.2148	80.8826	95.2148	81.5709	95.2148	80.8736	95.2148	81.6143	95.2148	80.8656	95.2148	81.6372	95.2148	80.8607	95.2148	81.6367	95.2148	80.8613	95.2148	81.6116	95.2148	80.8707	95.2148	81.563	95.2148	80.892	95.2148	81.4939	95.2148	80.9277	95.2148	81.4094	95.2148	80.9795	95.2148	81.3158	95.2148	81.0471	95.2148	81.22	95.2148	81.1286
98.1445	81.1589	98.1445	81.1199	98.1445	81.2081	98.1445	81.0903	98.1445	81.2674	98.1445	81.0686	98.1445	81.3355	98.1445	81.0528	98.1445	81.4102	98.1445	81.0406	98.1445	81.488	98.1445	81.0302	98.1445	81.5647	98.1445	81.0197	98.1445	81.6352	98.1445	81.0082	98.1445	81.6943	98.1445	80.9959	98.1445	81.7369	98.1445	80.9836	98.1445	81.7586	98.1445	80.9736	98.1445	81.7563	98.1445	80.9688	98.1445	81.7289	98.1445	80.9729	98.1445	81.6771	98.1445	80.9895	98.1445	81.6041	98.1445	81.0218	98.1445	81.5153	98.1445	81.0717	98.1445	81.4171	98.1445	81.1393	98.1445	81.3172	98.1445	81.2226
101.074	81.3264	101.074	81.2878	101.074	81.3735	101.074	81.2567	101.074	81.4291	101.074	81.2316	101.074	81.4923	101.074	81.2104	101.074	81.561	101.074	81.1907	101.074	81.6319	101.074	81.1707	101.074	81.701	101.074	81.1487	101.074	81.7635	101.074	81.1241	101.074	81.814	101.074	81.0973	101.074	81.8476	101.074	81.0697	101.074	81.8596	101.074	81.0441	101.074	81.8469	101.074	81.0242	101.074	81.8082	101.074	81.0144	101.074	81.7445	101.074	81.0194	101.074	81.6594	101.074	81.0429	101.074	81.5585	101.074	81.0876	101.074	81.4495	101.074	81.154	101.074	81.3406	101.074	81.2398
105.469	81.5473	105.469	81.5047	105.469	81.5972	105.469	81.4688	105.469	81.6544	105.469	81.4382	105.469	81.7178	105.469	81.4112	105.469	81.7853	105.469	81.3859	105.469	81.8541	105.469	81.3605	105.469	81.9202	105.469	81.3334	105.469	81.9788	105.469	81.3039	105.469	82.0247	105.469	81.2723	105.469	82.0528	105.469	81.2398	105.469	82.0584	105.469	81.2091	105.469	82.0384	105.469	81.1838	105.469	81.9915	105.469	81.1685	105.469	81.919	105.469	81.168	105.469	81.8247	105.469	81.1869	105.469	81.7152	105.469	81.2282	105.469	81.5986	105.469	81.2931	105.469	81.484	105.469	81.3798
108.398	81.6711	108.398	81.631	108.398	81.7178	108.398	81.5966	108.398	81.771	108.398	81.5666	108.398	81.8299	108.398	81.539	108.398	81.8926	108.398	81.5118	108.398	81.9561	108.398	81.4831	108.398	82.0168	108.398	81.4512	108.398	82.0699	108.398	81.4155	108.398	82.1105	108.398	81.3762	108.398	82.1331	108.398	81.3349	108.398	82.1334	108.398	81.2945	108.398	82.1078	108.398	81.2591	108.398	82.0551	108.398	81.2338	108.398	81.9766	108.398	81.2241	108.398	81.8765	108.398	81.2351	108.398	81.7615	108.398	81.2705	108.398	81.6403	108.398	81.3317	108.398	81.5225	108.398	81.4172
112.793	81.7766	112.793	81.7344	112.793	81.8237	112.793	81.6963	112.793	81.8759	112.793	81.6613	112.793	81.9323	112.793	81.6278	112.793	81.9915	112.793	81.594	112.793	82.0511	112.793	81.5583	112.793	82.1078	112.793	81.5195	112.793	82.1571	112.793	81.477	112.793	82.194	112.793	81.4313	112.793	82.2132	112.793	81.384	112.793	82.2098	112.793	81.3381	112.793	82.1803	112.793	81.2979	112.793	82.1231	112.793	81.2686	112.793	82.0394	112.793	81.256	112.793	81.9335	112.793	81.2654	112.793	81.8123	112.793	81.3006	112.793	81.685	112.793	81.3633	112.793	81.5617	112.793	81.4519
117.188	81.7943	117.188	81.7513	117.188	81.8422	117.188	81.7124	117.188	81.8952	117.188	81.6765	117.188	81.9528	117.188	81.642	117.188	82.0137	117.188	81.6073	117.188	82.0756	117.188	81.5707	117.188	82.1352	117.188	81.5311	117.188	82.1879	117.188	81.4877	117.188	82.2283	117.188	81.4409	117.188	82.2508	117.188	81.3923	117.188	82.2499	117.188	81.3449	117.188	82.2215	117.188	81.3031	117.188	82.1638	117.188	81.2724	117.188	82.0778	117.188	81.2588	117.188	81.9678	117.188	81.2681	117.188	81.8412	117.188	81.3045	117.188	81.7077	117.188	81.3699	117.188	81.5782	117.188	81.4628
120.117	81.7905	120.117	81.7501	120.117	81.836	120.117	81.7141	120.117	81.8869	120.117	81.681	120.117	81.9426	120.117	81.6493	120.117	82.0019	120.117	81.6173	120.117	82.0625	120.117	81.583	120.117	82.1209	120.117	81.5451	120.117	82.1726	120.117	81.5028	120.117	82.2124	120.117	81.4565	120.117	82.2345	120.117	81.4075	120.117	82.2337	120.117	81.3591	120.117	82.2057	120.117	81.3155	120.117	82.1488	120.117	81.2824	120.117	82.0639	120.117	81.2661	120.117	81.9553	120.117	81.2724	120.117	81.8304	120.117	81.3059	120.117	81.6989	120.117	81.3684	120.117	81.5716	120.117	81.4587
124.512	81.7999	124.512	81.7577	124.512	81.8477	124.512	81.7205	124.512	81.9014	124.512	81.687	124.512	81.9604	124.512	81.6555	124.512	82.0232	124.512	81.6242	124.512	82.0874	124.512	81.5912	124.512	82.1493	124.512	81.5548	124.512	82.2042	124.512	81.514	124.512	82.2465	124.512	81.4688	124.512	82.2701	124.512	81.4205	124.512	82.2694	124.512	81.372	124.512	82.2403	124.512	81.3278	124.512	82.1808	124.512	81.2935	124.512	82.0922	124.512	81.2757	124.512	81.9791	124.512	81.2805	124.512	81.8493	124.512	81.313	124.512	81.7133	124.512	81.3755	124.512	81.5823	124.512	81.4669
128.906	81.849	128.906	81.8028	128.906	81.9006	128.906	81.7614	128.906	81.9571	128.906	81.7239	128.906	82.0177	128.906	81.6885	128.906	82.0804	128.906	81.6531	128.906	82.1426	128.906	81.6156	128.906	82.2007	128.906	81.5742	128.906	82.2503	128.906	81.5277	128.906	82.2861	128.906	81.4762	128.906	82.3026	128.906	81.4209	128.906	82.2946	128.906	81.3652	128.906	82.258	128.906	81.3139	128.906	82.191	128.906	81.2732	128.906	82.095	128.906	81.2501	128.906	81.9746	128.906	81.2514	128.906	81.8378	128.906	81.2823	128.906	81.6954	128.906	81.3453	128.906	81.5588	128.906	81.4392
133.301	81.8289	133.301	81.7813	133.301	81.8806	133.301	81.7376	133.301	81.936	133.301	81.6973	133.301	81.9943	133.301	81.6589	133.301	82.054	133.301	81.6209	133.301	82.1128	133.301	81.5814	133.301	82.1679	133.301	81.5387	133.301	82.2151	133.301	81.4917	133.301	82.2495	133.301	81.4403	133.301	82.2656	133.301	81.3858	133.301	82.2579	133.301	81.3313	133.301	82.2223	133.301	81.2813	133.301	82.1567	133.301	81.2419	133.301	82.062	133.301	81.22	133.301	81.9429	133.301	81.2222	133.301	81.8074	133.301	81.2537	133.301	81.6658	133.301	81.3169	133.301	81.5299	133.301	81.4107
139.16	81.7838	139.16	81.7313	139.16	81.8389	139.16	81.6816	139.16	81.8961	139.16	81.6344	139.16	81.9546	139.16	81.589	139.16	82.0132	139.16	81.5442	139.16	82.0702	139.16	81.4983	139.16	82.1228	139.16	81.4501	139.16	82.1675	139.16	81.3986	139.16	82.1994	139.16	81.3436	139.16	82.213	139.16	81.2865	139.16	82.2027	139.16	81.2303	139.16	82.1642	139.16	81.1795	139.16	82.0951	139.16	81.1401	139.16	81.9963	139.16	81.119	139.16	81.8724	139.16	81.1228	139.16	81.7317	139.16	81.1566	139.16	81.5849	139.16	81.2228	139.16	81.4441	139.16	81.3204
143.555	81.7165	143.555	81.6603	143.555	81.7747	143.555	81.6065	143.555	81.8343	143.555	81.555	143.555	81.8944	143.555	81.5052	143.555	81.954	143.555	81.4561	143.555	82.0114	143.555	81.4063	143.555	82.064	143.555	81.3544	143.555	82.1083	143.555	81.2996	143.555	82.1395	143.555	81.2418	143.555	82.1519	143.555	81.1825	143.555	82.14	143.555	81.1245	143.555	82.099	143.555	81.0726	143.555	82.0266	143.555	81.0328	143.555	81.9238	143.555	81.012	143.555	81.7952	143.555	81.017	143.555	81.6493	143.555	81.0528	143.555	81.4973	143.555	81.122	143.555	81.3515	143.555	81.2234
147.949	81.7005	147.949	81.6421	147.949	81.7599	147.949	81.5853	147.949	81.8196	147.949	81.5301	147.949	81.8788	147.949	81.4762	147.949	81.9364	147.949	81.4226	147.949	81.991	147.949	81.368	147.949	82.0406	147.949	81.311	147.949	82.0817	147.949	81.2509	147.949	82.1099	147.949	81.1876	147.949	82.1196	147.949	81.1227	147.949	82.105	147.949	81.0595	147.949	82.0612	147.949	81.0028	147.949	81.9856	147.949	80.9592	147.949	81.8789	147.949	80.936	147.949	81.7458	147.949	80.94	147.949	81.5948	147.949	80.9765	147.949	81.4373	147.949	81.0481	147.949	81.2861	147.949	81.1532
153.809	81.6413	153.809	81.5817	153.809	81.7004	153.809	81.5223	153.809	81.7582	153.809	81.4634	153.809	81.8141	153.809	81.405	153.809	81.8675	153.809	81.3464	153.809	81.9175	153.809	81.2865	153.809	81.9625	153.809	81.2242	153.809	81.9996	153.809	81.1587	153.809	82.0246	153.809	81.09	153.809	82.0318	153.809	81.0197	153.809	82.0152	153.809	80.9514	153.809	81.9697	153.809	80.8901	153.809	81.892	153.809	80.8426	153.809	81.7827	153.809	80.8166	153.809	81.6463	153.809	80.8192	153.809	81.4913	153.809	80.8559	153.809	81.3295	153.809	80.9291	153.809	81.1739	153.809	81.0371
159.668	81.5495	159.668	81.4882	159.668	81.6107	159.668	81.4276	159.668	81.6709	159.668	81.3683	159.668	81.7293	159.668	81.3102	159.668	81.7851	159.668	81.2525	159.668	81.8375	159.668	81.1941	159.668	81.8847	159.668	81.1336	159.668	81.9238	159.668	81.0698	159.668	81.9506	159.668	81.003	159.668	81.9594	159.668	80.9345	159.668	81.9445	159.668	80.8681	159.668	81.9005	159.668	80.809	159.668	81.8246	159.668	80.7643	159.668	81.7171	159.668	80.7416	159.668	81.5826	159.668	80.7479	159.668	81.4293	159.668	80.7884	159.668	81.2685	159.668	80.8649	159.668	81.1131	159.668	80.9752
165.527	81.6492	165.527	81.5926	165.527	81.7067	165.527	81.5378	165.527	81.7642	165.527	81.4853	165.527	81.8206	165.527	81.4346	165.527	81.8752	165.527	81.3846	165.527	81.9269	165.527	81.3332	165.527	81.974	165.527	81.2784	165.527	82.0135	165.527	81.2185	165.527	82.0408	165.527	81.1529	165.527	82.0501	165.527	81.0832	165.527	82.0353	165.527	81.0127	165.527	81.9908	165.527	80.9475	165.527	81.9137	165.527	80.8951	165.527	81.8047	165.527	80.8638	165.527	81.6688	165.527	80.8615	165.527	81.5149	165.527	80.8939	165.527	81.3549	165.527	80.9633	165.527	81.2018	165.527	81.068
171.387	81.5406	171.387	81.4838	171.387	81.5944	171.387	81.4256	171.387	81.6439	171.387	81.3673	171.387	81.6887	171.387	81.3094	171.387	81.7289	171.387	81.2518	171.387	81.7647	171.387	81.1931	171.387	81.7962	171.387	81.1319	171.387	81.822	171.387	81.0668	171.387	81.8386	171.387	80.9972	171.387	81.8408	171.387	80.9245	171.387	81.8222	171.387	80.8518	171.387	81.7769	171.387	80.7847	171.387	81.7012	171.387	80.7303	171.387	81.5951	171.387	80.6967	171.387	81.4631	171.387	80.6913	171.387	81.314	171.387	80.7198	171.387	81.1592	171.387	80.7844	171.387	81.0118	171.387	80.8837
177.246	81.4383	177.246	81.3743	177.246	81.4976	177.246	81.3075	177.246	81.5504	177.246	81.24	177.246	81.5961	177.246	81.173	177.246	81.6349	177.246	81.1067	177.246	81.6674	177.246	81.0405	177.246	81.694	177.246	80.973	177.246	81.7137	177.246	80.9027	177.246	81.7234	177.246	80.8293	177.246	81.7181	177.246	80.7535	177.246	81.6916	177.246	80.6786	177.246	81.638	177.246	80.6097	177.246	81.5538	177.246	80.5538	177.246	81.4394	177.246	80.5189	177.246	81.2998	177.246	80.5124	177.246	81.1441	177.246	80.54	177.246	80.9844	177.246	80.6043	177.246	80.8337	177.246	80.704
183.105	81.2972	183.105	81.2294	183.105	81.3577	183.105	81.1567	183.105	81.4094	183.105	81.0814	183.105	81.4523	183.105	81.0058	183.105	81.4874	183.105	80.9308	183.105	81.5163	183.105	80.8567	183.105	81.5405	183.105	80.7829	183.105	81.5598	183.105	80.7084	183.105	81.5717	183.105	80.6332	183.105	81.5708	183.105	80.5583	183.105	81.5505	183.105	80.4868	183.105	81.5039	183.105	80.4239	183.105	81.4264	183.105	80.3761	183.105	81.3174	183.105	80.3508	183.105	81.1812	183.105	80.3547	183.105	81.0266	183.105	80.3928	183.105	80.8654	183.105	80.4667	183.105	80.7107	183.105	80.5747
188.965	81.1938	188.965	81.125	188.965	81.2542	188.965	81.0502	188.965	81.3048	188.965	80.972	188.965	81.3456	188.965	80.8926	188.965	81.3782	188.965	80.8134	188.965	81.4045	188.965	80.7348	188.965	81.4264	188.965	80.6563	188.965	81.4439	188.965	80.5774	188.965	81.4546	188.965	80.4981	188.965	81.4533	188.965	80.42	188.965	81.4328	188.965	80.3466	188.965	81.3862	188.965	80.2834	188.965	81.309	188.965	80.2372	188.965	81.2005	188.965	80.2153	188.965	81.0649	188.965	80.224	188.965	80.9109	188.965	80.2672	188.965	80.7501	188.965	80.3457	188.965	80.595	188.965	80.4571
196.289	81.1464	196.289	81.0831	196.289	81.1995	196.289	81.0125	196.289	81.2411	196.289	80.9375	196.289	81.2709	196.289	80.8604	196.289	81.291	196.289	80.7823	196.289	81.3041	196.289	80.7029	196.289	81.3131	196.289	80.6212	196.289	81.3191	196.289	80.5361	196.289	81.3204	196.289	80.4473	196.289	81.3117	196.289	80.3567	196.289	81.2858	196.289	80.2684	196.289	81.235	196.289	80.1889	196.289	81.154	196.289	80.1265	196.289	81.042	196.289	80.0896	196.289	80.9032	196.289	80.0853	196.289	80.7467	196.289	80.1181	196.289	80.5847	196.289	80.1889	196.289	80.4302	196.289	80.2951
203.613	81.021	203.613	80.9519	203.613	81.0737	203.613	80.8698	203.613	81.1081	203.613	80.7787	203.613	81.1247	203.613	80.6826	203.613	81.1263	203.613	80.5844	203.613	81.1172	203.613	80.4856	203.613	81.1023	203.613	80.3867	203.613	81.0852	203.613	80.288	203.613	81.0663	203.613	80.1899	203.613	81.0427	203.613	80.0945	203.613	81.0081	203.613	80.0057	203.613	80.9551	203.613	79.9297	203.613	80.8778	203.613	79.8737	203.613	80.774	203.613	79.8449	203.613	80.6463	203.613	79.8492	203.613	80.5016	203.613	79.8894	203.613	80.3502	203.613	79.9649	203.613	80.2033	203.613	80.0718
210.938	81.1093	210.938	81.0336	210.938	81.1682	210.938	80.9445	210.938	81.2084	210.938	80.846	210.938	81.2298	210.938	80.7421	210.938	81.2348	210.938	80.6354	210.938	81.2271	210.938	80.5274	210.938	81.2104	210.938	80.418	210.938	81.1872	210.938	80.3071	210.938	81.1568	210.938	80.1948	210.938	81.1155	210.938	80.083	210.938	81.057	210.938	79.9761	210.938	80.975	210.938	79.8808	210.938	80.8653	210.938	79.8055	210.938	80.7288	210.938	79.7588	210.938	80.5709	210.938	79.7472	210.938	80.4018	210.938	79.7746	210.938	80.2332	210.938	79.8411	210.938	80.0772	210.938	79.9438
218.262	80.8995	218.262	80.8311	218.262	80.9554	218.262	80.754	218.262	80.9961	218.262	80.6722	218.262	81.0209	218.262	80.5889	218.262	81.0316	218.262	80.5054	218.262	81.0316	218.262	80.4215	218.262	81.0251	218.262	80.3356	218.262	81.0151	218.262	80.2459	218.262	81.0014	218.262	80.1517	218.262	80.98	218.262	80.0542	218.262	80.9438	218.262	79.9579	218.262	80.885	218.262	79.8699	218.262	80.7978	218.262	79.7991	218.262	80.6811	218.262	79.7549	218.262	80.5395	218.262	79.7444	218.262	80.3824	218.262	79.7721	218.262	80.2219	218.262	79.8383	218.262	80.0707	218.262	79.9399
225.586	80.762	225.586	80.6873	225.586	80.82	225.586	80.6013	225.586	80.8579	225.586	80.5097	225.586	80.8751	225.586	80.417	225.586	80.874	225.586	80.326	225.586	80.8602	225.586	80.2372	225.586	80.84	225.586	80.1495	225.586	80.8189	225.586	80.0611	225.586	80.7988	225.586	79.9712	225.586	80.777	225.586	79.8815	225.586	80.7469	225.586	79.7963	225.586	80.7003	225.586	79.7228	225.586	80.6305	225.586	79.6697	225.586	80.5352	225.586	79.645	225.586	80.4171	225.586	79.654	225.586	80.283	225.586	79.6983	225.586	80.1423	225.586	79.7753	225.586	80.0049	225.586	79.8799
232.91	80.6712	232.91	80.5883	232.91	80.7311	232.91	80.489	232.91	80.7638	232.91	80.3814	232.91	80.7694	232.91	80.2727	232.91	80.7517	232.91	80.1682	232.91	80.7181	232.91	80.07	232.91	80.6774	232.91	79.9777	232.91	80.637	232.91	79.8892	232.91	80.6007	232.91	79.8025	232.91	80.5667	232.91	79.7181	232.91	80.5287	232.91	79.6391	232.91	80.4786	232.91	79.5723	232.91	80.4098	232.91	79.5255	232.91	80.3201	232.91	79.5064	232.91	80.2121	232.91	79.5193	232.91	80.0919	232.91	79.5643	232.91	79.9674	232.91	79.6378	232.91	79.8458	232.91	79.7338
241.699	80.5721	241.699	80.4849	241.699	80.6321	241.699	80.3777	241.699	80.6608	241.699	80.259	241.699	80.6576	241.699	80.1368	241.699	80.6265	241.699	80.0171	241.699	80.5749	241.699	79.9027	241.699	80.512	241.699	79.7935	241.699	80.4462	241.699	79.6875	241.699	80.3822	241.699	79.5824	241.699	80.319	241.699	79.478	241.699	80.2509	241.699	79.3775	241.699	80.1704	241.699	79.2877	241.699	80.0718	241.699	79.2175	241.699	79.9547	241.699	79.1753	241.699	79.8239	241.699	79.1666	241.699	79.6881	241.699	79.1921	241.699	79.5563	241.699	79.2488	241.699	79.4357	241.699	79.3317
250.488	80.425	250.488	80.3118	250.488	80.5076	250.488	80.1768	250.488	80.5537	250.488	80.0308	250.488	80.562	250.488	79.8836	250.488	80.5357	250.488	79.7431	250.488	80.4819	250.488	79.6138	250.488	80.4105	250.488	79.4962	250.488	80.3308	250.488	79.3884	250.488	80.2489	250.488	79.2879	250.488	80.1657	250.488	79.1935	250.488	80.0776	250.488	79.1071	250.488	79.9787	250.488	79.0339	250.488	79.8653	250.488	78.9807	250.488	79.7381	250.488	78.9539	250.488	79.6028	250.488	78.957	250.488	79.4677	250.488	78.9895	250.488	79.3404	250.488	79.0479	250.488	79.2263	250.488	79.128
259.277	80.6552	259.277	80.5451	259.277	80.7322	259.277	80.4102	259.277	80.772	259.277	80.261	259.277	80.7752	259.277	80.1082	259.277	80.7474	259.277	79.9604	259.277	80.6976	259.277	79.8222	259.277	80.6359	259.277	79.6942	259.277	80.5706	259.277	79.5732	259.277	80.5044	259.277	79.4556	259.277	80.4334	259.277	79.3397	259.277	80.3485	259.277	79.2278	259.277	80.2403	259.277	79.1271	259.277	80.1038	259.277	79.0474	259.277	79.9416	259.277	78.9985	259.277	79.7645	259.277	78.9863	259.277	79.5869	259.277	79.0117	259.277	79.4223	259.277	79.0715	259.277	79.2793	259.277	79.1617
268.066	80.474	268.066	80.3518	268.066	80.5606	268.066	80.2036	268.066	80.6056	268.066	80.0412	268.066	80.6086	268.066	79.8763	268.066	80.5743	268.066	79.7182	268.066	80.5124	268.066	79.5723	268.066	80.4353	268.066	79.4394	268.066	80.3545	268.066	79.3172	268.066	80.2769	268.066	79.2029	268.066	80.2017	268.066	79.0955	268.066	80.1213	268.066	78.9981	268.066	80.0254	268.066	78.9176	268.066	79.9068	268.066	78.8625	268.066	79.7654	268.066	78.8396	268.066	79.6091	268.066	78.8512	268.066	79.4505	268.066	78.8947	268.066	79.3016	268.066	78.9649	268.066	79.1697	268.066	79.0573
276.855	80.4622	276.855	80.3274	276.855	80.5561	276.855	80.1599	276.855	80.6043	276.855	79.9707	276.855	80.6071	276.855	79.7714	276.855	80.5693	276.855	79.5722	276.855	80.5001	276.855	79.3808	276.855	80.4111	276.855	79.2014	276.855	80.3134	276.855	79.0352	276.855	80.2143	276.855	78.8825	276.855	80.1148	276.855	78.745	276.855	80.0097	276.855	78.6275	276.855	79.891	276.855	78.5385	276.855	79.7527	276.855	78.487	276.855	79.5952	276.855	78.4791	276.855	79.4256	276.855	78.5148	276.855	79.2546	276.855	78.5877	276.855	79.0918	276.855	78.6881	276.855	78.9425	276.855	78.8077
287.109	80.4396	287.109	80.3369	287.109	80.5085	287.109	80.2072	287.109	80.5394	287.109	80.0579	287.109	80.532	287.109	79.8963	287.109	80.4904	287.109	79.7281	287.109	80.4237	287.109	79.5564	287.109	80.3437	287.109	79.3821	287.109	80.2621	287.109	79.2052	287.109	80.1852	287.109	79.0264	287.109	80.1109	287.109	78.8501	287.109	80.0298	287.109	78.6851	287.109	79.9289	287.109	78.5448	287.109	79.7986	287.109	78.4439	287.109	79.6366	287.109	78.3938	287.109	79.4495	287.109	78.3995	287.109	79.2498	287.109	78.458	287.109	79.0513	287.109	78.5611	287.109	78.8652	287.109	78.6996
297.363	80.2437	297.363	80.1223	297.363	80.3167	297.363	79.966	297.363	80.3327	297.363	79.7907	297.363	80.2913	297.363	79.6112	297.363	80.2011	297.363	79.4383	297.363	80.0797	297.363	79.2764	297.363	79.9507	297.363	79.1243	297.363	79.8366	297.363	78.9768	297.363	79.7515	297.363	78.8292	297.363	79.6946	297.363	78.6817	297.363	79.652	297.363	78.5419	297.363	79.6032	297.363	78.4247	297.363	79.5318	297.363	78.3487	297.363	79.4313	297.363	78.3282	297.363	79.3059	297.363	78.3671	297.363	79.1655	297.363	78.4569	297.363	79.0188	297.363	78.5811	297.363	78.8704	297.363	78.7228
307.617	80.351	307.617	80.2422	307.617	80.4094	307.617	80.0944	307.617	80.4116	307.617	79.9227	307.617	80.3595	307.617	79.7429	307.617	80.2619	307.617	79.5675	307.617	80.134	307.617	79.4029	307.617	79.9942	307.617	79.2482	307.617	79.8602	307.617	79.0973	307.617	79.743	307.617	78.9428	307.617	79.6433	307.617	78.7818	307.617	79.5512	307.617	78.6197	307.617	79.4524	307.617	78.4713	307.617	79.3363	307.617	78.3567	307.617	79.201	307.617	78.2934	307.617	79.0544	307.617	78.2888	307.617	78.9078	307.617	78.3364	307.617	78.7699	307.617	78.4208	307.617	78.643	307.617	78.5261
319.336	80.1543	319.336	80.0064	319.336	80.2457	319.336	79.8175	319.336	80.2717	319.336	79.607	319.336	80.2314	319.336	79.3958	319.336	80.1326	319.336	79.2012	319.336	79.9919	319.336	79.0333	319.336	79.8329	319.336	78.8924	319.336	79.6807	319.336	78.7706	319.336	79.5537	319.336	78.6562	319.336	79.4564	319.336	78.5401	319.336	79.378	319.336	78.4214	319.336	79.2994	319.336	78.3089	319.336	79.204	319.336	78.2189	319.336	79.0856	319.336	78.1682	319.336	78.9491	319.336	78.1669	319.336	78.8053	319.336	78.2138	319.336	78.6641	319.336	78.2982	319.336	78.5306	319.336	78.4071
329.59	80.088	329.59	79.9397	329.59	80.173	329.59	79.7412	329.59	80.1869	329.59	79.5099	329.59	80.1284	329.59	79.266	329.59	80.0029	329.59	79.0292	329.59	79.8238	329.59	78.8149	329.59	79.6122	329.59	78.6308	329.59	79.3938	329.59	78.4759	329.59	79.1924	329.59	78.3431	329.59	79.022	329.59	78.2249	329.59	78.8827	329.59	78.1195	329.59	78.7639	329.59	78.0331	329.59	78.654	329.59	77.9769	329.59	78.5488	329.59	77.9608	329.59	78.4525	329.59	77.986	329.59	78.3711	329.59	78.0425	329.59	78.3049	329.59	78.1135	329.59	78.2458	329.59	78.1835
341.309	79.9561	341.309	79.8179	341.309	80.0317	341.309	79.6292	341.309	80.0382	341.309	79.4062	341.309	79.9763	341.309	79.1671	341.309	79.8551	341.309	78.929	341.309	79.6922	341.309	78.7042	341.309	79.5109	341.309	78.4984	341.309	79.3349	341.309	78.3105	341.309	79.1804	341.309	78.1369	341.309	79.0502	341.309	77.9771	341.309	78.9344	341.309	77.8377	341.309	78.8179	341.309	77.7327	341.309	78.6907	341.309	77.6777	341.309	78.5543	341.309	77.6812	341.309	78.4199	341.309	77.7377	341.309	78.3007	341.309	77.8287	341.309	78.2013	341.309	77.9309	341.309	78.1146	341.309	78.0274
353.027	80.0899	353.027	79.9392	353.027	80.1536	353.027	79.7143	353.027	80.1232	353.027	79.4325	353.027	79.9994	353.027	79.1148	353.027	79.7939	353.027	78.7849	353.027	79.5309	353.027	78.4657	353.027	79.2458	353.027	78.1753	353.027	78.9785	353.027	77.9228	353.027	78.7601	353.027	77.7073	353.027	78.5999	353.027	77.5234	353.027	78.4823	353.027	77.3689	353.027	78.3778	353.027	77.2501	353.027	78.2622	353.027	77.1811	353.027	78.1292	353.027	77.1746	353.027	77.9903	353.027	77.2301	353.027	77.8628	353.027	77.3303	353.027	77.7549	353.027	77.4477	353.027	77.659	353.027	77.5597
366.211	79.7889	366.211	79.6379	366.211	79.8812	366.211	79.4474	366.211	79.9018	366.211	79.2393	366.211	79.8462	366.211	79.0329	366.211	79.7193	366.211	78.8399	366.211	79.5363	366.211	78.6612	366.211	79.3211	366.211	78.4875	366.211	79.1014	366.211	78.3034	366.211	78.8995	366.211	78.0948	366.211	78.7217	366.211	77.8558	366.211	78.5549	366.211	77.5948	366.211	78.3754	366.211	77.3346	366.211	78.1651	366.211	77.1078	366.211	77.9236	366.211	76.9444	366.211	77.6703	366.211	76.8597	366.211	77.434	366.211	76.8483	366.211	77.2372	366.211	76.8918	366.211	77.0858	366.211	76.9728
379.395	80.011	379.395	79.8415	379.395	80.1055	379.395	79.615	379.395	80.1141	379.395	79.3552	379.395	80.0345	379.395	79.0876	379.395	79.8733	379.395	78.8356	379.395	79.6475	379.395	78.6128	379.395	79.3844	379.395	78.419	379.395	79.1178	379.395	78.2395	379.395	78.8785	379.395	78.0528	379.395	78.6815	379.395	77.8424	379.395	78.5191	379.395	77.6071	379.395	78.3675	379.395	77.3658	379.395	78.2023	379.395	77.1526	379.395	78.0132	379.395	77.0035	379.395	77.8082	379.395	76.9389	379.395	77.6067	379.395	76.955	379.395	77.4256	379.395	77.0296	379.395	77.2708	379.395	77.139
392.578	79.4033	392.578	79.2256	392.578	79.5178	392.578	79.004	392.578	79.5584	392.578	78.7639	392.578	79.5248	392.578	78.5308	392.578	79.428	392.578	78.3249	392.578	79.2897	392.578	78.1555	392.578	79.1393	392.578	78.0177	392.578	79.0053	392.578	77.8953	392.578	78.9015	392.578	77.7666	392.578	78.8172	392.578	77.614	392.578	78.7206	392.578	77.432	392.578	78.5759	392.578	77.2321	392.578	78.3617	392.578	77.0405	392.578	78.0826	392.578	76.8886	392.578	77.7697	392.578	76.7992	392.578	77.4677	392.578	76.7771	392.578	77.2148	392.578	76.8128	392.578	77.0261	392.578	76.8956
405.762	78.8352	405.762	78.6289	405.762	78.9433	405.762	78.3588	405.762	78.9342	405.762	78.0722	405.762	78.8063	405.762	77.8232	405.762	78.5813	405.762	77.658	405.762	78.3107	405.762	77.5968	405.762	78.0738	405.762	77.6229	405.762	77.9535	405.762	77.6898	405.762	77.9916	405.762	77.7422	405.762	78.1578	405.762	77.7363	405.762	78.3682	405.762	77.6522	405.762	78.5325	405.762	77.4968	405.762	78.5879	405.762	77.3011	405.762	78.5098	405.762	77.1107	405.762	78.3086	405.762	76.973	405.762	78.0207	405.762	76.924	405.762	77.6971	405.762	76.9807	405.762	77.3898	405.762	77.1412
420.41	80.0579	420.41	79.7624	420.41	80.1737	420.41	79.3227	420.41	80.085	420.41	78.7915	420.41	79.775	420.41	78.246	420.41	79.2381	420.41	77.7876	420.41	78.4943	420.41	77.5182	420.41	77.6233	420.41	77.4898	420.41	76.8142	420.41	77.6693	420.41	76.36	420.41	77.9614	420.41	76.4662	420.41	78.2674	420.41	77.0309	420.41	78.5249	420.41	77.7651	420.41	78.7142	420.41	78.4401	420.41	78.8461	420.41	78.953	420.41	78.9461	420.41	79.2841	420.41	79.0394	420.41	79.4542	420.41	79.1417	420.41	79.4994	420.41	79.2548	420.41	79.4588	420.41	79.3675
435.059	81.3826	435.059	81.0573	435.059	81.5564	435.059	80.5883	435.059	81.5698	435.059	79.9868	435.059	81.4116	435.059	79.2763	435.059	81.0684	435.059	78.5072	435.059	80.5303	435.059	77.7746	435.059	79.803	435.059	77.218	435.059	78.9292	435.059	76.969	435.059	78.0189	435.059	77.0619	435.059	77.2699	435.059	77.4124	435.059	76.9145	435.059	77.8929	435.059	77.0593	435.059	78.4067	435.059	77.5896	435.059	78.9021	435.059	78.2846	435.059	79.3535	435.059	78.9671	435.059	79.742	435.059	79.5393	435.059	80.0462	435.059	79.959	435.059	80.2412	435.059	80.2129	435.059	80.3031
451.172	81.5564	451.172	81.2825	451.172	81.6963	451.172	80.8823	451.172	81.6913	451.172	80.3582	451.172	81.5293	451.172	79.7098	451.172	81.2005	451.172	78.9445	451.172	80.7006	451.172	78.0974	451.172	80.0374	451.172	77.2556	451.172	79.2405	451.172	76.5653	451.172	78.3757	451.172	76.1813	451.172	77.5575	451.172	76.1691	451.172	76.9424	451.172	76.4636	451.172	76.6705	451.172	76.9354	451.172	76.7772	451.172	77.4684	451.172	77.167	451.172	77.9835	451.172	77.6854	451.172	78.4283	451.172	78.1981	451.172	78.7657	451.172	78.6176	451.172	78.9675	451.172	78.8966	451.172	79.0143
465.82	81.3985	465.82	81.1233	465.82	81.546	465.82	80.7263	465.82	81.5584	465.82	80.2149	465.82	81.4247	465.82	79.6004	465.82	81.1309	465.82	78.9015	465.82	80.6656	465.82	78.1499	465.82	80.0316	465.82	77.3974	465.82	79.2599	465.82	76.7211	465.82	78.4236	465.82	76.2173	465.82	77.6395	465.82	75.9736	465.82	77.0413	465.82	76.0261	465.82	76.723	465.82	76.3355	465.82	76.6952	465.82	76.8067	465.82	76.8964	465.82	77.3296	465.82	77.2378	465.82	77.809	465.82	77.6326	465.82	78.1751	465.82	78.0024	465.82	78.3842	465.82	78.2808	465.82	78.4177
483.398	81.5561	483.398	81.3487	483.398	81.6524	483.398	81.0278	483.398	81.635	483.398	80.5871	483.398	81.4963	483.398	80.0192	483.398	81.2257	483.398	79.3226	483.398	80.8134	483.398	78.5128	483.398	80.2572	483.398	77.6379	483.398	79.5709	483.398	76.7893	483.398	78.7963	483.398	76.0959	483.398	78.0169	483.398	75.688	483.398	77.364	483.398	75.6408	483.398	76.985	483.398	75.9365	483.398	76.9615	483.398	76.4779	483.398	77.2433	483.398	77.1328	483.398	77.6881	483.398	77.7746	483.398	78.1508	483.398	78.3051	483.398	78.5302	483.398	78.6615	483.398	78.7643	483.398	78.8148
499.512	81.1844	499.512	81.0054	499.512	81.2745	499.512	80.7373	499.512	81.2639	499.512	80.3692	499.512	81.1319	499.512	79.8855	499.512	80.8567	499.512	79.2751	499.512	80.4258	499.512	78.5436	499.512	79.8456	499.512	77.7239	499.512	79.148	499.512	76.8814	499.512	78.3929	499.512	76.1119	499.512	77.6673	499.512	75.529	499.512	77.0794	499.512	75.24	499.512	76.739	499.512	75.306	499.512	76.7108	499.512	75.7022	499.512	76.966	499.512	76.3166	499.512	77.3875	499.512	76.9987	499.512	77.8308	499.512	77.6145	499.512	78.1786	499.512	78.0727	499.512	78.3563	499.512	78.325
517.09	81.5233	517.09	81.3204	517.09	81.6443	517.09	81.0363	517.09	81.6694	517.09	80.6567	517.09	81.5768	517.09	80.156	517.09	81.345	517.09	79.5079	517.09	80.9628	517.09	78.7031	517.09	80.4371	517.09	77.7682	517.09	79.7935	517.09	76.7839	517.09	79.0698	517.09	75.8919	517.09	78.312	517.09	75.2711	517.09	77.5888	517.09	75.0664	517.09	77.0238	517.09	75.3071	517.09	76.7893	517.09	75.897	517.09	76.9898	517.09	76.6795	517.09	77.5311	517.09	77.498	517.09	78.179	517.09	78.2231	517.09	78.7183	517.09	78.7572	517.09	79.021	517.09	79.0346
536.133	80.9544	536.133	80.6659	536.133	81.1092	536.133	80.2741	536.133	81.105	536.133	79.8094	536.133	80.9279	536.133	79.2967	536.133	80.5838	536.133	78.7497	536.133	80.1052	536.133	78.1722	536.133	79.55	536.133	77.5699	536.133	78.9842	536.133	76.9667	536.133	78.4524	536.133	76.4122	536.133	77.9613	536.133	75.9738	536.133	77.4998	536.133	75.7177	536.133	77.0884	536.133	75.6915	536.133	76.8088	536.133	75.9125	536.133	76.7618	536.133	76.3489	536.133	76.971	536.133	76.9077	536.133	77.3439	536.133	77.4555	536.133	77.7314	536.133	77.8655	536.133	77.9983	536.133	78.0546
555.176	81.9227	555.176	81.6366	555.176	82.0487	555.176	81.2169	555.176	81.9949	555.176	80.6886	555.176	81.7516	555.176	80.0662	555.176	81.3197	555.176	79.3464	555.176	80.7111	555.176	78.5117	555.176	79.957	555.176	77.5539	555.176	79.1219	555.176	76.5175	555.176	78.3022	555.176	75.5476	555.176	77.5831	555.176	74.8844	555.176	76.9913	555.176	74.7209	555.176	76.5148	555.176	75.0283	555.176	76.1777	555.176	75.6048	555.176	76.0639	555.176	76.2562	555.176	76.2365	555.176	76.8615	555.176	76.6411	555.176	77.3435	555.176	77.1213	555.176	77.6385	555.176	77.5112	555.176	77.6985
574.219	81.6761	574.219	81.3735	574.219	81.8475	574.219	80.9649	574.219	81.8669	574.219	80.4778	574.219	81.7169	574.219	79.9341	574.219	81.3825	574.219	79.338	574.219	80.8555	574.219	78.6678	574.219	80.1486	574.219	77.8896	574.219	79.3148	574.219	76.9948	574.219	78.4515	574.219	76.0497	574.219	77.6657	574.219	75.236	574.219	77.0218	574.219	74.816	574.219	76.5399	574.219	74.9517	574.219	76.2574	574.219	75.5397	574.219	76.2428	574.219	76.3177	574.219	76.509	574.219	77.0565	574.219	76.955	574.219	77.6186	574.219	77.429	574.219	77.9363	574.219	77.8037	574.219	77.9911
594.727	81.8753	594.727	81.6016	594.727	82	594.727	81.1792	594.727	81.9705	594.727	80.6198	594.727	81.769	594.727	79.9566	594.727	81.375	594.727	79.2369	594.727	80.7889	594.727	78.4954	594.727	80.0551	594.727	77.7319	594.727	79.2638	594.727	76.9246	594.727	78.5139	594.727	76.0829	594.727	77.8536	594.727	75.3012	594.727	77.2654	594.727	74.7735	594.727	76.7581	594.727	74.7149	594.727	76.4832	594.727	75.1917	594.727	76.6398	594.727	76.0417	594.727	77.1789	594.727	76.9963	594.727	77.8192	594.727	77.8268	594.727	78.3333	594.727	78.3976	594.727	78.6273	594.727	78.6604
615.234	82.0272	615.234	81.7771	615.234	82.1089	615.234	81.3684	615.234	82.0059	615.234	80.808	615.234	81.7037	615.234	80.1192	615.234	81.2014	615.234	79.3626	615.234	80.5201	615.234	78.6257	615.234	79.7093	615.234	77.9672	615.234	78.8483	615.234	77.3684	615.234	78.0312	615.234	76.7558	615.234	77.3257	615.234	76.0873	615.234	76.746	615.234	75.4544	615.234	76.291	615.234	75.0958	615.234	76.0072	615.234	75.2035	615.234	75.9612	615.234	75.7147	615.234	76.1534	615.234	76.3947	615.234	76.5165	615.234	77.0166	615.234	76.9553	615.234	77.4216	615.234	77.3404	615.234	77.5275
637.207	81.7694	637.207	81.5012	637.207	81.9259	637.207	81.1315	637.207	81.9417	637.207	80.6435	637.207	81.7799	637.207	80.0041	637.207	81.4085	637.207	79.1977	637.207	80.8159	637.207	78.267	637.207	80.0274	637.207	77.3211	637.207	79.111	637.207	76.4716	637.207	78.1664	637.207	75.7374	637.207	77.3011	637.207	75.0528	637.207	76.6006	637.207	74.4176	637.207	76.1121	637.207	74.0512	637.207	75.8763	637.207	74.2808	637.207	75.9402	637.207	75.1151	637.207	76.2936	637.207	76.1833	637.207	76.8281	637.207	77.1189	637.207	77.3837	637.207	77.7273	637.207	77.8014	637.207	77.9463
659.18	81.1371	659.18	80.7394	659.18	81.3741	659.18	80.2006	659.18	81.4163	659.18	79.5428	659.18	81.2124	659.18	78.8005	659.18	80.7273	659.18	78.0215	659.18	79.9984	659.18	77.2645	659.18	79.1564	659.18	76.5937	659.18	78.36	659.18	76.0508	659.18	77.6884	659.18	75.6092	659.18	77.1026	659.18	75.1771	659.18	76.5078	659.18	74.701	659.18	75.8951	659.18	74.3069	659.18	75.4417	659.18	74.3081	659.18	75.3638	659.18	74.8858	659.18	75.6429	659.18	75.7973	659.18	76.0913	659.18	76.635	659.18	76.5784	659.18	77.1415	659.18	77.0101	659.18	77.2454
682.617	80.898	682.617	80.6639	682.617	80.9715	682.617	80.3065	682.617	80.8773	682.617	79.8757	682.617	80.6402	682.617	79.4021	682.617	80.3051	682.617	78.873	682.617	79.9076	682.617	78.2479	682.617	79.4378	682.617	77.514	682.617	78.8528	682.617	76.7405	682.617	78.16	682.617	76.0723	682.617	77.4693	682.617	75.6316	682.617	76.8993	682.617	75.4011	682.617	76.4501	682.617	75.2647	682.617	76.0718	682.617	75.2069	682.617	75.8175	682.617	75.4125	682.617	75.8018	682.617	76.0081	682.617	76.0598	682.617	76.7625	682.617	76.5334	682.617	77.2926	682.617	77.0608	682.617	77.3837
707.52	81.8602	707.52	81.4901	707.52	82.0259	707.52	80.9775	707.52	81.9409	707.52	80.3654	707.52	81.6088	707.52	79.665	707.52	81.0827	707.52	78.8844	707.52	80.4257	707.52	78.0793	707.52	79.6808	707.52	77.3412	707.52	78.9009	707.52	76.6817	707.52	78.1846	707.52	75.9852	707.52	77.6328	707.52	75.1992	707.52	77.2627	707.52	74.5315	707.52	76.994	707.52	74.2531	707.52	76.7114	707.52	74.3351	707.52	76.3979	707.52	74.6404	707.52	76.2136	707.52	75.1812	707.52	76.3306	707.52	75.9093	707.52	76.6709	707.52	76.5811	707.52	76.9582	707.52	76.9576
732.422	81.6059	732.422	81.1884	732.422	81.8057	732.422	80.6095	732.422	81.7452	732.422	79.9161	732.422	81.4216	732.422	79.1524	732.422	80.8585	732.422	78.3918	732.422	80.0784	732.422	77.767	732.422	79.1429	732.422	77.4416	732.422	78.2231	732.422	77.4368	732.422	77.5356	732.422	77.4738	732.422	77.1687	732.422	77.1857	732.422	77.0333	732.422	76.4582	732.422	76.9659	732.422	75.5476	732.422	76.8001	732.422	74.9555	732.422	76.4082	732.422	74.9985	732.422	75.8106	732.422	75.5008	732.422	75.3163	732.422	76.0811	732.422	75.3576	732.422	76.4268	732.422	75.8753	732.422	76.3498
757.324	81.6513	757.324	81.0904	757.324	81.982	757.324	80.3186	757.324	82.0602	757.324	79.416	757.324	81.832	757.324	78.5741	757.324	81.2436	757.324	78.0245	757.324	80.3107	757.324	77.8251	757.324	79.1337	757.324	77.7784	757.324	77.8373	757.324	77.6481	757.324	76.5669	757.324	77.3815	757.324	75.5485	757.324	77.0706	757.324	75.0126	757.324	76.7842	757.324	75.0093	757.324	76.5473	757.324	75.3553	757.324	76.3947	757.324	75.7977	757.324	76.3374	757.324	76.1698	757.324	76.3395	757.324	76.4012	757.324	76.3681	757.324	76.4907	757.324	76.4101	757.324	76.4901	757.324	76.4547
785.156	81.4943	785.156	80.7056	785.156	82.158	785.156	80.0243	785.156	82.4886	785.156	79.6253	785.156	82.3533	785.156	79.5644	785.156	81.7195	785.156	79.754	785.156	80.6508	785.156	79.9514	785.156	79.2651	785.156	79.8695	785.156	77.6943	785.156	79.3618	785.156	76.0242	785.156	78.486	785.156	74.2623	785.156	77.3914	785.156	72.8551	785.156	76.1744	785.156	72.5974	785.156	74.9372	785.156	72.8706	785.156	74.0225	785.156	73.4297	785.156	73.8313	785.156	74.8146	785.156	74.2673	785.156	76.1878	785.156	74.942	785.156	76.758	785.156	75.5976	785.156	76.6189	785.156	76.1617
811.523	81.2944	811.523	81.1201	811.523	81.6214	811.523	81.0931	811.523	81.8699	811.523	81.0534	811.523	81.7506	811.523	80.8617	811.523	81.1025	811.523	80.4246	811.523	79.9533	811.523	79.6727	811.523	78.4928	811.523	78.6482	811.523	76.963	811.523	77.646	811.523	75.5212	811.523	77.0374	811.523	74.278	811.523	76.7509	811.523	73.6112	811.523	76.3769	811.523	73.9377	811.523	75.8009	811.523	74.7308	811.523	75.3538	811.523	75.2313	811.523	75.3474	811.523	75.4338	811.523	75.7602	811.523	75.8251	811.523	76.4031	811.523	76.531	811.523	77.015	811.523	77.141	811.523	77.3177
840.82	82.0734	840.82	81.3113	840.82	82.4071	840.82	80.2917	840.82	82.1874	840.82	79.2757	840.82	81.407	840.82	78.6995	840.82	80.2905	840.82	78.8555	840.82	79.2693	840.82	79.3175	840.82	78.636	840.82	79.3433	840.82	78.2712	840.82	78.7479	840.82	77.7754	840.82	78.1254	840.82	76.7298	840.82	77.8647	840.82	75.0806	840.82	77.3373	840.82	73.3367	840.82	75.9362	840.82	72.0301	840.82	74.0498	840.82	72.1455	840.82	73.0755	840.82	74.2436	840.82	73.6523	840.82	76.283	840.82	75.0376	840.82	77.3449	840.82	76.4025	840.82	77.6194	840.82	77.3008
870.117	78.1389	870.117	80.206	870.117	79.4706	870.117	82.3979	870.117	82.436	870.117	83.7218	870.117	84.3573	870.117	84.2655	870.117	84.8951	870.117	84.0736	870.117	84.193	870.117	83.2735	870.117	82.5448	870.117	82.4689	870.117	80.3126	870.117	82.2158	870.117	77.9982	870.117	82.015	870.117	76.9002	870.117	81.4876	870.117	77.7089	870.117	81.5154	870.117	79.4315	870.117	82.2187	870.117	81.0693	870.117	82.4323	870.117	82.1047	870.117	82.19	870.117	82.1637	870.117	81.8564	870.117	80.7649	870.117	80.7289	870.117	77.1736	870.117	77.8727	870.117	70.0218	870.117	71.9876
900.879	81.4946	900.879	80.557	900.879	82.4938	900.879	80.2894	900.879	82.8641	900.879	80.5615	900.879	82.2068	900.879	80.8636	900.879	80.4497	900.879	80.9013	900.879	77.9911	900.879	80.6314	900.879	75.714	900.879	80.2602	900.879	74.6833	900.879	80.0635	900.879	75.151	900.879	79.9844	900.879	75.3263	900.879	79.8862	900.879	73.1171	900.879	79.9086	900.879	65.4384	900.879	79.8455	900.879	64.0493	900.879	79.22	900.879	73.3231	900.879	78.3293	900.879	76.9751	900.879	77.7251	900.879	78.2766	900.879	76.9449	900.879	77.9895	900.879	75.8368	900.879	76.7352	900.879	75.5898
933.105	81.4084	933.105	81.7599	933.105	80.9848	933.105	81.7631	933.105	80.8658	933.105	81.3541	933.105	81.1416	933.105	80.4726	933.105	81.3942	933.105	78.7953	933.105	80.9543	933.105	75.8507	933.105	79.3738	933.105	71.7823	933.105	76.8056	933.105	68.7052	933.105	74.0011	933.105	68.8589	933.105	71.573	933.105	70.9048	933.105	69.0939	933.105	73.7505	933.105	68.02	933.105	76.4729	933.105	71.5948	933.105	77.9923	933.105	75.3326	933.105	78.1883	933.105	77.7117	933.105	77.7279	933.105	78.7112	933.105	76.8667	933.105	78.3299	933.105	75.349	933.105	76.6407	933.105	74.7924
965.332	81.8193	965.332	81.5166	965.332	82.1038	965.332	81.4061	965.332	81.8453	965.332	81.3443	965.332	80.6681	965.332	81.1835	965.332	78.6761	965.332	80.8204	965.332	76.8434	965.332	80.2621	965.332	76.4927	965.332	79.9926	965.332	77.5407	965.332	80.5776	965.332	78.9937	965.332	81.4731	965.332	79.7442	965.332	81.8272	965.332	78.9679	965.332	81.8346	965.332	76.0736	965.332	81.9875	965.332	69.5691	965.332	81.6071	965.332	67.6577	965.332	80.0016	965.332	75.5991	965.332	77.0434	965.332	79.2354	965.332	73.332	965.332	80.5417	965.332	74.079	965.332	80.0495	965.332	77.8086
1,000.49	81.85	1,000.49	81.7279	1,000.49	81.1816	1,000.49	81.05	1,000.49	79.9494	1,000.49	80.3297	1,000.49	79.0491	1,000.49	79.8701	1,000.49	78.8446	1,000.49	79.1686	1,000.49	78.3094	1,000.49	77.1098	1,000.49	77.0465	1,000.49	72.044	1,000.49	75.4276	1,000.49	62.5051	1,000.49	73.41	1,000.49	70.1283	1,000.49	71.2039	1,000.49	73.1892	1,000.49	70.0362	1,000.49	72.9269	1,000.49	70.3584	1,000.49	71.9698	1,000.49	71.1119	1,000.49	72.983	1,000.49	72.0155	1,000.49	75.2209	1,000.49	72.8214	1,000.49	77.067	1,000.49	74.9524	1,000.49	78.4461	1,000.49	78.1715	1,000.49	79.6785	1,000.49	80.1486	1,000.49	80.4819
1,035.64	80.9743	1,035.64	83.0487	1,035.64	79.6068	1,035.64	83.8056	1,035.64	80.9725	1,035.64	83.0897	1,035.64	82.2371	1,035.64	80.9417	1,035.64	82.1803	1,035.64	77.8429	1,035.64	80.8861	1,035.64	75.4476	1,035.64	78.6846	1,035.64	73.7925	1,035.64	76.7559	1,035.64	73.1852	1,035.64	76.964	1,035.64	74.9797	1,035.64	78.3664	1,035.64	77.5637	1,035.64	78.7565	1,035.64	79.3699	1,035.64	77.6399	1,035.64	80.309	1,035.64	74.2481	1,035.64	80.6095	1,035.64	67.5794	1,035.64	80.3506	1,035.64	74.2543	1,035.64	79.8008	1,035.64	79.1645	1,035.64	80.1484	1,035.64	81.8034	1,035.64	81.6241	1,035.64	83.0292	1,035.64	82.876
1,072.27	83.6036	1,072.27	83.8818	1,072.27	82.6936	1,072.27	83.078	1,072.27	82.316	1,072.27	81.2955	1,072.27	83.0211	1,072.27	79.3137	1,072.27	83.3727	1,072.27	78.0001	1,072.27	81.8796	1,072.27	77.1686	1,072.27	77.8147	1,072.27	77.0985	1,072.27	74.8002	1,072.27	77.2085	1,072.27	76.9204	1,072.27	75.8919	1,072.27	78.2339	1,072.27	77.0006	1,072.27	78.2007	1,072.27	80.4299	1,072.27	77.6025	1,072.27	80.4753	1,072.27	76.3045	1,072.27	77.3328	1,072.27	72.8615	1,072.27	75.6183	1,072.27	64.3363	1,072.27	80.4065	1,072.27	72.7821	1,072.27	84.1109	1,072.27	80.3241	1,072.27	85.7365	1,072.27	84.1405	1,072.27	85.7529
1,108.89	83.2768	1,108.89	84.4578	1,108.89	83.8997	1,108.89	85.1164	1,108.89	85.482	1,108.89	84.1377	1,108.89	85.787	1,108.89	81.1481	1,108.89	84.0809	1,108.89	75.9968	1,108.89	79.7776	1,108.89	70.7579	1,108.89	70.2832	1,108.89	68.9879	1,108.89	63.1112	1,108.89	68.4816	1,108.89	64.5945	1,108.89	67.074	1,108.89	65.2047	1,108.89	60.339	1,108.89	74.0285	1,108.89	68.5546	1,108.89	77.316	1,108.89	75.3334	1,108.89	77.3702	1,108.89	78.194	1,108.89	73.399	1,108.89	79.8044	1,108.89	72.0476	1,108.89	81.5221	1,108.89	78.4039	1,108.89	83.2852	1,108.89	82.2568	1,108.89	84.5635	1,108.89	84.3392	1,108.89	85.0117
1,148.44	82.6019	1,148.44	84.2533	1,148.44	84.0012	1,148.44	85.5011	1,148.44	86.3134	1,148.44	85.0489	1,148.44	86.8875	1,148.44	82.3513	1,148.44	85.1031	1,148.44	74.9376	1,148.44	79.7281	1,148.44	67.7978	1,148.44	62.4769	1,148.44	73.9063	1,148.44	76.3126	1,148.44	74.7381	1,148.44	77.5483	1,148.44	74.5401	1,148.44	74.2299	1,148.44	70.8737	1,148.44	68.4972	1,148.44	77.6728	1,148.44	71.4314	1,148.44	80.5633	1,148.44	74.5911	1,148.44	77.9694	1,148.44	71.866	1,148.44	71.695	1,148.44	66.5865	1,148.44	79.2019	1,148.44	72.6628	1,148.44	84.6311	1,148.44	79.9182	1,148.44	86.8121	1,148.44	84.4997	1,148.44	86.7044
1,189.45	84.1537	1,189.45	83.1983	1,189.45	85.0227	1,189.45	83.8926	1,189.45	84.4108	1,189.45	85.068	1,189.45	81.7925	1,189.45	84.973	1,189.45	76.8268	1,189.45	83.4337	1,189.45	77.818	1,189.45	81.8284	1,189.45	82.4908	1,189.45	80.4715	1,189.45	84.0043	1,189.45	78.1591	1,189.45	82.3187	1,189.45	75.8218	1,189.45	77.9604	1,189.45	77.7144	1,189.45	73.502	1,189.45	80.9315	1,189.45	73.6116	1,189.45	81.0034	1,189.45	76.7337	1,189.45	76.1843	1,189.45	78.4871	1,189.45	57.8946	1,189.45	78.2821	1,189.45	78.1025	1,189.45	76.5531	1,189.45	83.1571	1,189.45	76.622	1,189.45	84.7055	1,189.45	80.5489	1,189.45	83.7473
1,230.47	81.2586	1,230.47	81.1523	1,230.47	82.8119	1,230.47	83.6033	1,230.47	82.5929	1,230.47	85.3477	1,230.47	79.9979	1,230.47	85.5157	1,230.47	74.8049	1,230.47	83.8353	1,230.47	70.1059	1,230.47	79.4329	1,230.47	77.0601	1,230.47	68.2085	1,230.47	80.5893	1,230.47	67.7281	1,230.47	80.8751	1,230.47	73.1206	1,230.47	79.1216	1,230.47	73.971	1,230.47	74.5576	1,230.47	75.5891	1,230.47	55.7888	1,230.47	76.6972	1,230.47	75.4141	1,230.47	75.1953	1,230.47	78.7541	1,230.47	69.9697	1,230.47	78.2836	1,230.47	68.3392	1,230.47	75.5499	1,230.47	75.7922	1,230.47	70.4873	1,230.47	78.0172	1,230.47	70.3307	1,230.47	76.3479
1,274.41	83.3196	1,274.41	82.893	1,274.41	82.6752	1,274.41	82.5267	1,274.41	80.7001	1,274.41	83.2478	1,274.41	78.1051	1,274.41	83.741	1,274.41	76.7624	1,274.41	82.5233	1,274.41	75.4937	1,274.41	78.8853	1,274.41	73.8983	1,274.41	75.801	1,274.41	73.8955	1,274.41	77.2657	1,274.41	74.3528	1,274.41	79.229	1,274.41	73.8032	1,274.41	80.7156	1,274.41	71.5778	1,274.41	80.6024	1,274.41	70.2705	1,274.41	78.3903	1,274.41	76.3957	1,274.41	74.5372	1,274.41	79.9978	1,274.41	69.6724	1,274.41	79.6186	1,274.41	69.9083	1,274.41	74.3814	1,274.41	73.738	1,274.41	54.7042	1,274.41	73.9087	1,274.41	67.9201	1,274.41	71.4533
1,319.82	84.1088	1,319.82	83.2724	1,319.82	83.6316	1,319.82	82.1604	1,319.82	81.3937	1,319.82	82.2095	1,319.82	78.3624	1,319.82	82.9195	1,319.82	77.1314	1,319.82	82.2521	1,319.82	76.6217	1,319.82	79.486	1,319.82	76.491	1,319.82	74.2289	1,319.82	77.3635	1,319.82	66.8133	1,319.82	78.0878	1,319.82	70.293	1,319.82	77.7587	1,319.82	73.0753	1,319.82	75.8998	1,319.82	74.5067	1,319.82	70.9625	1,319.82	74.6509	1,319.82	63.4979	1,319.82	72.7808	1,319.82	75.7558	1,319.82	68.9913	1,319.82	79.2269	1,319.82	63.9399	1,319.82	77.709	1,319.82	64.5125	1,319.82	68.7233	1,319.82	70.0333	1,319.82	67.0128	1,319.82	72.3505
1,366.7	83.9269	1,366.7	84.9803	1,366.7	82.4591	1,366.7	84.8236	1,366.7	82.3112	1,366.7	83.0138	1,366.7	82.3827	1,366.7	78.999	1,366.7	79.6815	1,366.7	75.9225	1,366.7	66.725	1,366.7	79.2556	1,366.7	75.2945	1,366.7	82.8841	1,366.7	81.1929	1,366.7	84.8263	1,366.7	83.3041	1,366.7	85.3892	1,366.7	83.7067	1,366.7	85.0957	1,366.7	83.0798	1,366.7	83.9749	1,366.7	81.3376	1,366.7	81.0333	1,366.7	78.3442	1,366.7	74.1145	1,366.7	78.6578	1,366.7	57.7276	1,366.7	80.3864	1,366.7	64.2733	1,366.7	78.9999	1,366.7	69.6921	1,366.7	71.2678	1,366.7	75.7811	1,366.7	69.6875	1,366.7	76.5166
1,413.57	83.6514	1,413.57	84.4341	1,413.57	83.0316	1,413.57	84.69	1,413.57	82.6072	1,413.57	83.8268	1,413.57	80.5355	1,413.57	81.6068	1,413.57	75.6113	1,413.57	78.4893	1,413.57	78.2331	1,413.57	73.4831	1,413.57	81.5618	1,413.57	70.5112	1,413.57	82.1606	1,413.57	77.9278	1,413.57	81.8605	1,413.57	80.2092	1,413.57	81.5695	1,413.57	80.7196	1,413.57	81.636	1,413.57	80.4567	1,413.57	81.7393	1,413.57	76.9755	1,413.57	79.8037	1,413.57	56.0181	1,413.57	72.7315	1,413.57	72.8186	1,413.57	75.3359	1,413.57	74.2403	1,413.57	78.6959	1,413.57	75.1973	1,413.57	75.9519	1,413.57	77.2545	1,413.57	60.3096	1,413.57	74.4717
1,463.38	83.1331	1,463.38	84.8942	1,463.38	82.0713	1,463.38	85.4335	1,463.38	82.1923	1,463.38	84.0615	1,463.38	80.6443	1,463.38	81.1672	1,463.38	75.2873	1,463.38	78.2589	1,463.38	76.1935	1,463.38	75.5778	1,463.38	79.5633	1,463.38	70.2746	1,463.38	79.3598	1,463.38	71.5163	1,463.38	77.6748	1,463.38	75.7862	1,463.38	76.9213	1,463.38	78.1049	1,463.38	78.4632	1,463.38	77.8985	1,463.38	79.6505	1,463.38	72.5795	1,463.38	79.1824	1,463.38	68.6324	1,463.38	75.6309	1,463.38	76.7375	1,463.38	60.5315	1,463.38	76.1359	1,463.38	71.4597	1,463.38	74.8564	1,463.38	74.9655	1,463.38	75.4783	1,463.38	71.7795	1,463.38	71.6586
1,516.11	82.9036	1,516.11	84.0093	1,516.11	82.1651	1,516.11	84.8111	1,516.11	81.3362	1,516.11	84.3824	1,516.11	79.106	1,516.11	82.4392	1,516.11	75.0691	1,516.11	78.8587	1,516.11	77.7736	1,516.11	75.965	1,516.11	80.4771	1,516.11	76.1115	1,516.11	80.1013	1,516.11	76.9173	1,516.11	78.0747	1,516.11	75.8088	1,516.11	75.9456	1,516.11	69.7449	1,516.11	73.5426	1,516.11	63.1128	1,516.11	72.5114	1,516.11	58.4825	1,516.11	73.8181	1,516.11	67.6429	1,516.11	72.2253	1,516.11	74.0337	1,516.11	68.277	1,516.11	74.0319	1,516.11	66.1001	1,516.11	73.8387	1,516.11	69.7608	1,516.11	74.8502	1,516.11	70.7496	1,516.11	72.46
1,568.85	82.8745	1,568.85	83.0625	1,568.85	82.0679	1,568.85	83.5735	1,568.85	79.6612	1,568.85	83.742	1,568.85	77.4305	1,568.85	82.8471	1,568.85	77.546	1,568.85	80.8188	1,568.85	77.4379	1,568.85	78.3627	1,568.85	76.2869	1,568.85	77.514	1,568.85	75.7085	1,568.85	77.6589	1,568.85	77.2183	1,568.85	76.6877	1,568.85	77.6071	1,568.85	76.4009	1,568.85	74.5738	1,568.85	76.9864	1,568.85	62.4306	1,568.85	74.5817	1,568.85	68.5805	1,568.85	70.8795	1,568.85	73.5201	1,568.85	73.8968	1,568.85	72.359	1,568.85	74.2197	1,568.85	65.8798	1,568.85	73.5166	1,568.85	66.6726	1,568.85	74.1096	1,568.85	69.6334	1,568.85	72.3262
1,624.51	82.7038	1,624.51	83.2106	1,624.51	81.6225	1,624.51	83.523	1,624.51	79.8106	1,624.51	83.0201	1,624.51	76.2246	1,624.51	81.4082	1,624.51	75.2954	1,624.51	78.7693	1,624.51	79.9208	1,624.51	78.0942	1,624.51	80.2205	1,624.51	78.86	1,624.51	78.56	1,624.51	78.0906	1,624.51	77.7183	1,624.51	75.6835	1,624.51	76.8656	1,624.51	74.7662	1,624.51	76.1242	1,624.51	77.1919	1,624.51	74.4705	1,624.51	77.5805	1,624.51	65.174	1,624.51	75.1679	1,624.51	68.3794	1,624.51	75.9936	1,624.51	72.6868	1,624.51	75.1562	1,624.51	70.0255	1,624.51	71.9282	1,624.51	59.9294	1,624.51	71.6765	1,624.51	70.868	1,624.51	72.6367
1,681.64	84.1139	1,681.64	83.9709	1,681.64	82.1218	1,681.64	83.1034	1,681.64	78.0438	1,681.64	83.3209	1,681.64	75.7478	1,681.64	83.7695	1,681.64	77.8172	1,681.64	81.783	1,681.64	77.5536	1,681.64	76.9949	1,681.64	74.9996	1,681.64	75.7085	1,681.64	74.4976	1,681.64	77.677	1,681.64	74.6675	1,681.64	77.0066	1,681.64	73.7858	1,681.64	75.7279	1,681.64	71.2315	1,681.64	76.5674	1,681.64	72.0759	1,681.64	75.4921	1,681.64	73.4092	1,681.64	70.2577	1,681.64	71.3876	1,681.64	71.322	1,681.64	64.4592	1,681.64	75.0095	1,681.64	66.2617	1,681.64	74.9004	1,681.64	60.7922	1,681.64	74.6459	1,681.64	67.7571	1,681.64	73.1073
1,741.7	85.092	1,741.7	84.9422	1,741.7	81.6147	1,741.7	82.7026	1,741.7	77.5052	1,741.7	82.3275	1,741.7	79.372	1,741.7	84.0986	1,741.7	77.3992	1,741.7	83.1579	1,741.7	73.0314	1,741.7	79.5546	1,741.7	77.6398	1,741.7	75.9577	1,741.7	77.7982	1,741.7	75.1748	1,741.7	76.4072	1,741.7	73.2591	1,741.7	74.2676	1,741.7	74.3355	1,741.7	71.0701	1,741.7	75.6954	1,741.7	72.7073	1,741.7	75.5697	1,741.7	72.84	1,741.7	73.1873	1,741.7	72.674	1,741.7	71.2225	1,741.7	62.7726	1,741.7	69.4928	1,741.7	67.4862	1,741.7	67.578	1,741.7	69.1669	1,741.7	71.5469	1,741.7	65.7814	1,741.7	72.9244
1,803.22	84.4814	1,803.22	85.196	1,803.22	82.5095	1,803.22	85.2788	1,803.22	78.8235	1,803.22	84.5476	1,803.22	76.2292	1,803.22	82.953	1,803.22	77.0066	1,803.22	81.0216	1,803.22	77.9912	1,803.22	77.8881	1,803.22	77.742	1,803.22	73.218	1,803.22	76.9062	1,803.22	73.8989	1,803.22	74.881	1,803.22	76.27	1,803.22	73.1214	1,803.22	75.143	1,803.22	72.3885	1,803.22	67.5125	1,803.22	71.2575	1,803.22	70.0251	1,803.22	71.5271	1,803.22	74.1843	1,803.22	71.8389	1,803.22	70.2063	1,803.22	72.732	1,803.22	72.9857	1,803.22	71.7596	1,803.22	73.5934	1,803.22	66.298	1,803.22	71.945	1,803.22	71.9584	1,803.22	73.6567
1,866.21	84.7974	1,866.21	85.9031	1,866.21	82.8973	1,866.21	86.3204	1,866.21	79.8187	1,866.21	85.2699	1,866.21	77.7447	1,866.21	82.6806	1,866.21	77.4693	1,866.21	80.1399	1,866.21	78.6803	1,866.21	77.3973	1,866.21	78.3751	1,866.21	74.3089	1,866.21	77.0595	1,866.21	74.8922	1,866.21	74.3353	1,866.21	72.7514	1,866.21	66.5641	1,866.21	73.5212	1,866.21	67.1196	1,866.21	72.6879	1,866.21	71.392	1,866.21	55.5761	1,866.21	70.7636	1,866.21	72.0952	1,866.21	71.8789	1,866.21	72.3972	1,866.21	71.0922	1,866.21	72.2365	1,866.21	70.9383	1,866.21	74.4034	1,866.21	66.9477	1,866.21	73.3753	1,866.21	72.2783	1,866.21	73.9333
1,932.13	84.4436	1,932.13	85.9602	1,932.13	82.4194	1,932.13	86.5884	1,932.13	79.4735	1,932.13	85.243	1,932.13	76.3115	1,932.13	82.3214	1,932.13	77.4377	1,932.13	80.0399	1,932.13	79.1672	1,932.13	77.0602	1,932.13	79.009	1,932.13	71.4947	1,932.13	78.4268	1,932.13	68.5703	1,932.13	75.2731	1,932.13	66.9493	1,932.13	70.4316	1,932.13	57.4114	1,932.13	69.3002	1,932.13	67.114	1,932.13	70.934	1,932.13	62.2823	1,932.13	69.5551	1,932.13	66.5228	1,932.13	70.0195	1,932.13	73.4097	1,932.13	69.3036	1,932.13	72.2274	1,932.13	68.2223	1,932.13	72.653	1,932.13	64.3096	1,932.13	73.4309	1,932.13	70.0876	1,932.13	73.6583
1,999.51	84.2017	1,999.51	85.6711	1,999.51	81.6738	1,999.51	85.7528	1,999.51	77.4915	1,999.51	83.9622	1,999.51	73.7795	1,999.51	82.1239	1,999.51	75.1643	1,999.51	79.6488	1,999.51	77.0198	1,999.51	75.0909	1,999.51	77.9975	1,999.51	74.8133	1,999.51	78.1826	1,999.51	71.3432	1,999.51	75.6477	1,999.51	68.3539	1,999.51	72.7422	1,999.51	70.3462	1,999.51	70.7233	1,999.51	69.9723	1,999.51	69.7044	1,999.51	63.2609	1,999.51	68.3942	1,999.51	63.7077	1,999.51	67.1068	1,999.51	71.96	1,999.51	66.6238	1,999.51	71.4248	1,999.51	66.2019	1,999.51	71.2426	1,999.51	62.1903	1,999.51	71.9683	1,999.51	70.9896	1,999.51	72.531
2,069.82	83.695	2,069.82	84.3611	2,069.82	80.9415	2,069.82	83.0964	2,069.82	76.6862	2,069.82	81.589	2,069.82	69.836	2,069.82	80.7799	2,069.82	71.2215	2,069.82	78.3283	2,069.82	76.1727	2,069.82	75.4644	2,069.82	77.3882	2,069.82	72.1484	2,069.82	77.4777	2,069.82	57.4099	2,069.82	74.2104	2,069.82	66.5534	2,069.82	71.8219	2,069.82	56.2878	2,069.82	69.6821	2,069.82	66.3452	2,069.82	70.8774	2,069.82	69.2791	2,069.82	69.2606	2,069.82	49.7928	2,069.82	68.3112	2,069.82	70.8758	2,069.82	64.0016	2,069.82	71.1459	2,069.82	63.7162	2,069.82	68.7892	2,069.82	57.6089	2,069.82	70.7945	2,069.82	69.3223	2,069.82	71.6682
2,143.07	83.0278	2,143.07	83.5188	2,143.07	79.6759	2,143.07	81.9024	2,143.07	73.9338	2,143.07	81.0224	2,143.07	55.3601	2,143.07	80.296	2,143.07	71.673	2,143.07	77.0278	2,143.07	76.3423	2,143.07	72.4444	2,143.07	77.66	2,143.07	72.5428	2,143.07	77.9317	2,143.07	70.8951	2,143.07	76.5131	2,143.07	66.0324	2,143.07	74.962	2,143.07	65.1134	2,143.07	70.6816	2,143.07	59.455	2,143.07	66.2999	2,143.07	67.8311	2,143.07	68.1943	2,143.07	64.2785	2,143.07	68.6415	2,143.07	67.0518	2,143.07	64.6623	2,143.07	72.2663	2,143.07	57.0209	2,143.07	68.9714	2,143.07	55.8132	2,143.07	69.59	2,143.07	70.2014	2,143.07	72.8877
2,219.24	81.9688	2,219.24	82.982	2,219.24	78.1929	2,219.24	82.8133	2,219.24	71.1928	2,219.24	81.7747	2,219.24	69.0331	2,219.24	79.0964	2,219.24	75.08	2,219.24	75.293	2,219.24	77.577	2,219.24	74.0806	2,219.24	78.1995	2,219.24	70.6998	2,219.24	79.3129	2,219.24	66.704	2,219.24	76.5441	2,219.24	67.2088	2,219.24	73.7551	2,219.24	63.9397	2,219.24	71.7066	2,219.24	60.7872	2,219.24	65.9054	2,219.24	65.3877	2,219.24	64.7376	2,219.24	64.4589	2,219.24	69.1414	2,219.24	62.4277	2,219.24	68.2027	2,219.24	72.1257	2,219.24	62.2052	2,219.24	71.8923	2,219.24	62.0407	2,219.24	67.4332	2,219.24	69.925	2,219.24	70.43
2,296.88	80.4153	2,296.88	82.4517	2,296.88	75.2396	2,296.88	83.4761	2,296.88	68.361	2,296.88	82.7603	2,296.88	74.7632	2,296.88	78.8343	2,296.88	77.5015	2,296.88	75.3842	2,296.88	77.8333	2,296.88	74.4575	2,296.88	78.4093	2,296.88	71.7066	2,296.88	78.1906	2,296.88	71.1275	2,296.88	76.259	2,296.88	67.1653	2,296.88	73.8738	2,296.88	61.0037	2,296.88	70.9968	2,296.88	60.1987	2,296.88	67.3776	2,296.88	63.8652	2,296.88	60.8585	2,296.88	66.3598	2,296.88	69.1285	2,296.88	56.1302	2,296.88	71.6598	2,296.88	73.9911	2,296.88	69.6738	2,296.88	74.7004	2,296.88	66.5059	2,296.88	71.5628	2,296.88	70.1654	2,296.88	72.2007
2,378.91	79.5939	2,378.91	81.7831	2,378.91	74.223	2,378.91	83.1506	2,378.91	63.3621	2,378.91	82.2434	2,378.91	75.5727	2,378.91	80.3524	2,378.91	79.7514	2,378.91	78.8804	2,378.91	80.8259	2,378.91	76.2951	2,378.91	79.5107	2,378.91	73.261	2,378.91	77.7686	2,378.91	66.5509	2,378.91	77.6371	2,378.91	65.9089	2,378.91	75.2718	2,378.91	57.8767	2,378.91	69.0528	2,378.91	67.8336	2,378.91	68.0083	2,378.91	61.9378	2,378.91	64.0656	2,378.91	65.5464	2,378.91	63.4391	2,378.91	57.6538	2,378.91	71.193	2,378.91	71.1806	2,378.91	72.732	2,378.91	73.6254	2,378.91	67.5456	2,378.91	70.8394	2,378.91	65.6163	2,378.91	70.9177
2,462.4	81.1547	2,462.4	83.1091	2,462.4	75.763	2,462.4	82.195	2,462.4	64.5424	2,462.4	80.9008	2,462.4	77.757	2,462.4	81.1665	2,462.4	81.1857	2,462.4	79.578	2,462.4	81.4763	2,462.4	74.8285	2,462.4	81.317	2,462.4	70.2362	2,462.4	80.4666	2,462.4	72.3068	2,462.4	76.6357	2,462.4	70.3969	2,462.4	71.1823	2,462.4	66.3949	2,462.4	67.869	2,462.4	60.3977	2,462.4	70.6025	2,462.4	64.4575	2,462.4	68.7653	2,462.4	61.4232	2,462.4	66.9541	2,462.4	63.0495	2,462.4	68.9823	2,462.4	63.6433	2,462.4	71.7657	2,462.4	71.2586	2,462.4	66.8422	2,462.4	68.9736	2,462.4	61.3056	2,462.4	69.3039
2,548.83	82.1603	2,548.83	83.4485	2,548.83	77.0257	2,548.83	82.1664	2,548.83	62.6176	2,548.83	81.6983	2,548.83	76.7069	2,548.83	81.004	2,548.83	80.8122	2,548.83	77.4601	2,548.83	80.5047	2,548.83	72.6	2,548.83	81.4586	2,548.83	68.3583	2,548.83	78.3776	2,548.83	62.5584	2,548.83	76.507	2,548.83	65.2167	2,548.83	73.6302	2,548.83	61.5503	2,548.83	63.602	2,548.83	61.0323	2,548.83	70.5323	2,548.83	61.6326	2,548.83	71.9017	2,548.83	59.2875	2,548.83	70.5879	2,548.83	63.034	2,548.83	69.7302	2,548.83	59.3793	2,548.83	69.9811	2,548.83	68.8304	2,548.83	64.1743	2,548.83	67.0508	2,548.83	62.8688	2,548.83	69.1081
2,639.65	81.9483	2,639.65	83.6861	2,639.65	76.5462	2,639.65	83.9593	2,639.65	67.6731	2,639.65	83.455	2,639.65	78.324	2,639.65	80.3308	2,639.65	81.3088	2,639.65	75.6332	2,639.65	80.6182	2,639.65	72.4329	2,639.65	80.0139	2,639.65	71.818	2,639.65	79.6978	2,639.65	68.8371	2,639.65	79.9705	2,639.65	63.1564	2,639.65	70.8673	2,639.65	62.5873	2,639.65	65.3509	2,639.65	64.5194	2,639.65	66.4766	2,639.65	58.929	2,639.65	72.9645	2,639.65	62.0449	2,639.65	70.8259	2,639.65	65.2391	2,639.65	69.8284	2,639.65	61.5831	2,639.65	68.0067	2,639.65	68.8698	2,639.65	62.8324	2,639.65	65.3214	2,639.65	67.6575	2,639.65	70.76
2,731.93	80.7064	2,731.93	82.3378	2,731.93	76.4765	2,731.93	83.4989	2,731.93	72.9405	2,731.93	82.1183	2,731.93	79.0562	2,731.93	78.0465	2,731.93	81.8349	2,731.93	74.5168	2,731.93	81.184	2,731.93	72.3649	2,731.93	80.3845	2,731.93	68.9935	2,731.93	79.4904	2,731.93	62.1983	2,731.93	77.6697	2,731.93	68.6777	2,731.93	66.9572	2,731.93	65.5587	2,731.93	67.744	2,731.93	66.9365	2,731.93	51.3516	2,731.93	60.966	2,731.93	70.3452	2,731.93	61.8442	2,731.93	71.3538	2,731.93	61.9	2,731.93	69.9709	2,731.93	63.1814	2,731.93	67.4516	2,731.93	68.2232	2,731.93	59.6184	2,731.93	66.383	2,731.93	67.0401	2,731.93	65.6916
2,828.61	80.2046	2,828.61	82.1934	2,828.61	75.9738	2,828.61	82.3215	2,828.61	72.66	2,828.61	80.8417	2,828.61	79.4678	2,828.61	78.3054	2,828.61	81.0168	2,828.61	74.4737	2,828.61	81.4079	2,828.61	71.2657	2,828.61	80.0712	2,828.61	66.8995	2,828.61	78.5983	2,828.61	68.6471	2,828.61	77.7925	2,828.61	67.7371	2,828.61	66.6034	2,828.61	67.652	2,828.61	71.2112	2,828.61	66.2274	2,828.61	52.9045	2,828.61	58.6167	2,828.61	71.9289	2,828.61	60.5727	2,828.61	69.9574	2,828.61	58.4089	2,828.61	69.9426	2,828.61	61.4526	2,828.61	69.3998	2,828.61	67.4601	2,828.61	63.4347	2,828.61	67.9129	2,828.61	66.0673	2,828.61	66.7656
2,928.22	80.3848	2,928.22	83.1416	2,928.22	76.2395	2,928.22	82.2729	2,928.22	74.213	2,928.22	80.738	2,928.22	79.6402	2,928.22	78.2528	2,928.22	81.8008	2,928.22	74.424	2,928.22	81.737	2,928.22	70.3146	2,928.22	80.2442	2,928.22	70.6064	2,928.22	79.1431	2,928.22	71.0643	2,928.22	73.6703	2,928.22	66.5672	2,928.22	73.1038	2,928.22	58.3318	2,928.22	70.5769	2,928.22	53.9851	2,928.22	63.7772	2,928.22	64.2725	2,928.22	70.2358	2,928.22	55.8899	2,928.22	67.883	2,928.22	62.1536	2,928.22	69.8599	2,928.22	58.6581	2,928.22	67.7324	2,928.22	65.9234	2,928.22	61.4293	2,928.22	67.5782	2,928.22	65.1512	2,928.22	61.3395
3,030.76	80.9785	3,030.76	83.4293	3,030.76	75.613	3,030.76	82.668	3,030.76	74.1269	3,030.76	80.7174	3,030.76	79.6164	3,030.76	77.1778	3,030.76	82.01	3,030.76	75.614	3,030.76	81.8332	3,030.76	72.3105	3,030.76	79.2392	3,030.76	72.4934	3,030.76	78.3071	3,030.76	63.3884	3,030.76	72.5362	3,030.76	64.6619	3,030.76	75.8228	3,030.76	65.8903	3,030.76	66.1836	3,030.76	64.6345	3,030.76	67.8639	3,030.76	63.7132	3,030.76	66.2064	3,030.76	64.3479	3,030.76	68.7066	3,030.76	60.978	3,030.76	68.9198	3,030.76	60.4618	3,030.76	67.7297	3,030.76	64.8512	3,030.76	61.7426	3,030.76	67.2402	3,030.76	65.5808	3,030.76	67.9047
3,137.7	81.136	3,137.7	83.2337	3,137.7	75.8183	3,137.7	82.957	3,137.7	75.5061	3,137.7	80.3965	3,137.7	79.4657	3,137.7	77.9911	3,137.7	81.9281	3,137.7	74.0559	3,137.7	81.604	3,137.7	73.6611	3,137.7	77.7922	3,137.7	66.2766	3,137.7	75.8848	3,137.7	67.5035	3,137.7	74.0751	3,137.7	69.1463	3,137.7	74.3784	3,137.7	65.3129	3,137.7	59.5982	3,137.7	63.206	3,137.7	63.1031	3,137.7	60.861	3,137.7	63.2383	3,137.7	64.2092	3,137.7	69.0567	3,137.7	59.9409	3,137.7	65.9894	3,137.7	60.3196	3,137.7	65.1948	3,137.7	63.9027	3,137.7	52.446	3,137.7	67.0919	3,137.7	67.8033	3,137.7	66.019
3,249.02	81.0283	3,249.02	82.693	3,249.02	75.4713	3,249.02	81.5884	3,249.02	77.1978	3,249.02	80.8908	3,249.02	79.84	3,249.02	78.6185	3,249.02	82.0191	3,249.02	74.2526	3,249.02	80.9002	3,249.02	68.6785	3,249.02	79.1491	3,249.02	69.8232	3,249.02	77.7819	3,249.02	72.5714	3,249.02	78.5584	3,249.02	65.531	3,249.02	73.8525	3,249.02	64.1769	3,249.02	64.1616	3,249.02	57.7484	3,249.02	60.3959	3,249.02	65.6215	3,249.02	54.289	3,249.02	64.7185	3,249.02	69.5316	3,249.02	61.7877	3,249.02	64.0162	3,249.02	59.6441	3,249.02	66.1038	3,249.02	63.1709	3,249.02	62.6493	3,249.02	67.2808	3,249.02	66.745	3,249.02	64.2223
3,363.28	80.9516	3,363.28	81.6629	3,363.28	75.6938	3,363.28	80.9143	3,363.28	77.0345	3,363.28	80.5461	3,363.28	81.1546	3,363.28	77.5673	3,363.28	81.8479	3,363.28	71.4905	3,363.28	80.3183	3,363.28	69.1612	3,363.28	80.1531	3,363.28	72.2219	3,363.28	79.8976	3,363.28	66.044	3,363.28	79.8096	3,363.28	67.2873	3,363.28	72.0999	3,363.28	68.2585	3,363.28	62.8936	3,363.28	64.5263	3,363.28	58.7966	3,363.28	63.4484	3,363.28	64.2962	3,363.28	66.5058	3,363.28	67.9044	3,363.28	63.068	3,363.28	64.7643	3,363.28	61.4063	3,363.28	63.701	3,363.28	59.7746	3,363.28	64.3391	3,363.28	67.6682	3,363.28	68.1257	3,363.28	67.1363
3,481.93	80.6453	3,481.93	82.2971	3,481.93	76.954	3,481.93	81.8903	3,481.93	77.4233	3,481.93	80.0253	3,481.93	79.8804	3,481.93	76.9879	3,481.93	81.0301	3,481.93	72.6588	3,481.93	79.0698	3,481.93	73.3217	3,481.93	79.7349	3,481.93	71.2792	3,481.93	79.0676	3,481.93	71.7929	3,481.93	79.028	3,481.93	72.8444	3,481.93	69.2917	3,481.93	68.0368	3,481.93	61.9017	3,481.93	66.5483	3,481.93	57.9802	3,481.93	62.8641	3,481.93	64.5281	3,481.93	66.3988	3,481.93	64.0039	3,481.93	65.3146	3,481.93	66.0383	3,481.93	62.9201	3,481.93	63.1289	3,481.93	56.3165	3,481.93	64.3761	3,481.93	67.7804	3,481.93	69.0731	3,481.93	68.6096
3,604.98	80.6736	3,604.98	81.6688	3,604.98	76.6704	3,604.98	82.4801	3,604.98	78.5042	3,604.98	80.7581	3,604.98	80.5875	3,604.98	75.7551	3,604.98	80.9936	3,604.98	74.2287	3,604.98	79.3293	3,604.98	74.203	3,604.98	80.6436	3,604.98	73.276	3,604.98	78.3012	3,604.98	74.0604	3,604.98	76.7665	3,604.98	70.4005	3,604.98	56.2133	3,604.98	66.9638	3,604.98	58.9717	3,604.98	67.3971	3,604.98	64.6852	3,604.98	67.0599	3,604.98	60.8501	3,604.98	63.7574	3,604.98	61.2718	3,604.98	66.2234	3,604.98	66.6769	3,604.98	62.8651	3,604.98	63.1313	3,604.98	59.8335	3,604.98	65.1159	3,604.98	67.2508	3,604.98	69.3089	3,604.98	68.1564
3,732.42	79.9498	3,732.42	81.7563	3,732.42	76.9997	3,732.42	82.385	3,732.42	77.2699	3,732.42	80.7887	3,732.42	80.3971	3,732.42	76.3444	3,732.42	80.4372	3,732.42	75.6561	3,732.42	80.4938	3,732.42	74.9851	3,732.42	80.0787	3,732.42	75.0055	3,732.42	77.0542	3,732.42	69.8326	3,732.42	69.8005	3,732.42	67.8801	3,732.42	66.2869	3,732.42	66.7387	3,732.42	60.9656	3,732.42	65.4605	3,732.42	63.7867	3,732.42	65.5615	3,732.42	62.3163	3,732.42	64.824	3,732.42	64.9572	3,732.42	66.6021	3,732.42	65.5879	3,732.42	62.4285	3,732.42	60.6185	3,732.42	61.0924	3,732.42	65.4833	3,732.42	64.3882	3,732.42	69.559	3,732.42	66.9912
3,864.26	79.2744	3,864.26	81.9256	3,864.26	77.9413	3,864.26	82.5438	3,864.26	77.7429	3,864.26	79.2439	3,864.26	79.153	3,864.26	77.223	3,864.26	80.0105	3,864.26	75.9969	3,864.26	80.2902	3,864.26	74.8639	3,864.26	78.7453	3,864.26	72.7566	3,864.26	76.3185	3,864.26	69.9762	3,864.26	70.942	3,864.26	70.1697	3,864.26	66.6965	3,864.26	64.3153	3,864.26	59.2838	3,864.26	65.8416	3,864.26	59.704	3,864.26	64.588	3,864.26	65.6504	3,864.26	66.7721	3,864.26	63.2152	3,864.26	66.3427	3,864.26	66.245	3,864.26	62.369	3,864.26	59.9237	3,864.26	61.5747	3,864.26	66.5509	3,864.26	62.182	3,864.26	69.6944	3,864.26	65.391
4,000.49	78.1423	4,000.49	82.1809	4,000.49	75.9878	4,000.49	82.2288	4,000.49	77.6656	4,000.49	78.6301	4,000.49	79.9478	4,000.49	76.3863	4,000.49	79.9843	4,000.49	76.3817	4,000.49	80.9062	4,000.49	74.3471	4,000.49	79.6383	4,000.49	73.2259	4,000.49	75.0537	4,000.49	73.5733	4,000.49	69.7448	4,000.49	70.1706	4,000.49	66.6519	4,000.49	66.1126	4,000.49	48.3813	4,000.49	66.8995	4,000.49	60.5684	4,000.49	64.1134	4,000.49	64.3534	4,000.49	65.4756	4,000.49	63.4449	4,000.49	66.3965	4,000.49	64.5051	4,000.49	61.2418	4,000.49	60.6862	4,000.49	61.5575	4,000.49	66.6091	4,000.49	62.1422	4,000.49	68.193	4,000.49	64.1534
4,141.11	78.0103	4,141.11	83.6531	4,141.11	76.6706	4,141.11	81.3779	4,141.11	77.4041	4,141.11	80.0095	4,141.11	79.4421	4,141.11	77.7244	4,141.11	79.5358	4,141.11	76.8234	4,141.11	81.0221	4,141.11	74.1016	4,141.11	79.9472	4,141.11	75.9049	4,141.11	73.5516	4,141.11	70.1868	4,141.11	70.9844	4,141.11	69.192	4,141.11	73.0326	4,141.11	67.4257	4,141.11	60.6983	4,141.11	66.8485	4,141.11	66.004	4,141.11	64.9343	4,141.11	65.8712	4,141.11	66.6888	4,141.11	55.5266	4,141.11	66.6104	4,141.11	63.4467	4,141.11	64.2087	4,141.11	58.3358	4,141.11	60.9989	4,141.11	66.9655	4,141.11	61.9037	4,141.11	67.8895	4,141.11	66.7619
4,287.6	79.6329	4,287.6	82.6367	4,287.6	76.7876	4,287.6	80.4089	4,287.6	78.5103	4,287.6	80.1278	4,287.6	79.1101	4,287.6	77.8428	4,287.6	80.5976	4,287.6	74.6882	4,287.6	81.3357	4,287.6	78.0103	4,287.6	78.9009	4,287.6	74.0219	4,287.6	74.0654	4,287.6	75.6692	4,287.6	74.9994	4,287.6	72.9687	4,287.6	71.3862	4,287.6	67.597	4,287.6	61.0184	4,287.6	67.5096	4,287.6	61.9106	4,287.6	62.7402	4,287.6	66.0311	4,287.6	67.4007	4,287.6	62.608	4,287.6	66.348	4,287.6	65.8275	4,287.6	66.2916	4,287.6	57.9869	4,287.6	59.5395	4,287.6	65.6119	4,287.6	63.5764	4,287.6	67.6942	4,287.6	67.4753
4,438.48	80.9938	4,438.48	82.3395	4,438.48	76.906	4,438.48	81.8764	4,438.48	80.6494	4,438.48	80.9438	4,438.48	79.3365	4,438.48	76.6205	4,438.48	81.0621	4,438.48	78.8938	4,438.48	80.6736	4,438.48	76.7389	4,438.48	75.8185	4,438.48	76.5504	4,438.48	76.9178	4,438.48	73.7179	4,438.48	78.4772	4,438.48	67.3154	4,438.48	69.1616	4,438.48	67.1251	4,438.48	62.599	4,438.48	65.1479	4,438.48	55.232	4,438.48	66.1099	4,438.48	65.6364	4,438.48	65.1917	4,438.48	62.6425	4,438.48	67.3031	4,438.48	66.152	4,438.48	65.7214	4,438.48	61.8876	4,438.48	59.519	4,438.48	64.9789	4,438.48	62.4544	4,438.48	67.2195	4,438.48	66.9902
4,595.21	80.7886	4,595.21	82.4441	4,595.21	74.2646	4,595.21	82.0902	4,595.21	81.3024	4,595.21	79.5876	4,595.21	81.4394	4,595.21	78.0352	4,595.21	82.2941	4,595.21	78.3815	4,595.21	78.766	4,595.21	79.2964	4,595.21	75.4212	4,595.21	76.4328	4,595.21	79.5444	4,595.21	72.7986	4,595.21	77.9824	4,595.21	71.9445	4,595.21	70.0763	4,595.21	64.8218	4,595.21	69.3661	4,595.21	67.1968	4,595.21	55.9408	4,595.21	64.78	4,595.21	64.5121	4,595.21	64.6161	4,595.21	59.3192	4,595.21	67.1978	4,595.21	65.8468	4,595.21	65.6376	4,595.21	64.2356	4,595.21	58.3755	4,595.21	62.8234	4,595.21	57.161	4,595.21	67.7833	4,595.21	66.9967
4,756.35	80.4325	4,756.35	81.9689	4,756.35	74.0227	4,756.35	82.601	4,756.35	81.5802	4,756.35	78.1399	4,756.35	82.5162	4,756.35	78.4472	4,756.35	81.4012	4,756.35	80.1482	4,756.35	74.3981	4,756.35	78.2412	4,756.35	79.8569	4,756.35	73.8284	4,756.35	80.3305	4,756.35	74.2042	4,756.35	74.4653	4,756.35	65.5066	4,756.35	72.2972	4,756.35	67.3946	4,756.35	69.4747	4,756.35	62.3531	4,756.35	56.6559	4,756.35	62.8515	4,756.35	58.8831	4,756.35	63.3972	4,756.35	60.353	4,756.35	65.5844	4,756.35	62.9023	4,756.35	66.8442	4,756.35	62.0722	4,756.35	57.7274	4,756.35	65.6344	4,756.35	60.2169	4,756.35	66.5559	4,756.35	67.9241
4,924.8	81.8324	4,924.8	82.0297	4,924.8	75.3842	4,924.8	81.4822	4,924.8	81.0667	4,924.8	77.954	4,924.8	82.0435	4,924.8	80.3205	4,924.8	81.1451	4,924.8	80.0607	4,924.8	75.3896	4,924.8	76.2437	4,924.8	82.3258	4,924.8	74.7964	4,924.8	80.1814	4,924.8	69.0297	4,924.8	75.2014	4,924.8	68.9951	4,924.8	73.2714	4,924.8	63.8959	4,924.8	71.0451	4,924.8	64.5939	4,924.8	64.505	4,924.8	61.9995	4,924.8	48.9013	4,924.8	62.4024	4,924.8	59.5965	4,924.8	64.7379	4,924.8	63.0514	4,924.8	64.4269	4,924.8	62.7906	4,924.8	53.2193	4,924.8	65.6448	4,924.8	60.8288	4,924.8	67.5383	4,924.8	66.0585
5,097.66	82.0838	5,097.66	83.6474	5,097.66	78.18	5,097.66	82.115	5,097.66	80.8732	5,097.66	78.1892	5,097.66	83.2854	5,097.66	80.3565	5,097.66	80.2843	5,097.66	78.8783	5,097.66	77.6827	5,097.66	76.4956	5,097.66	81.9059	5,097.66	71.6226	5,097.66	77.0968	5,097.66	73.4709	5,097.66	75.1457	5,097.66	67.3982	5,097.66	71.074	5,097.66	67.0807	5,097.66	70.7725	5,097.66	59.2708	5,097.66	65.0085	5,097.66	57.1324	5,097.66	60.1608	5,097.66	60.1645	5,097.66	59.0381	5,097.66	62.9581	5,097.66	66.5388	5,097.66	63.6632	5,097.66	60.9039	5,097.66	57.0042	5,097.66	62.6824	5,097.66	56.8231	5,097.66	68.2854	5,097.66	65.8953
5,277.83	81.4483	5,277.83	82.982	5,277.83	78.3229	5,277.83	79.8082	5,277.83	81.1814	5,277.83	80.0432	5,277.83	85.0511	5,277.83	80.8811	5,277.83	78.6249	5,277.83	78.4111	5,277.83	79.4376	5,277.83	73.6244	5,277.83	81.3778	5,277.83	73.6103	5,277.83	75.888	5,277.83	68.8475	5,277.83	72.8364	5,277.83	65.7464	5,277.83	68.0348	5,277.83	65.0997	5,277.83	69.8902	5,277.83	60.9714	5,277.83	55.0622	5,277.83	63.7235	5,277.83	60.7434	5,277.83	60.6171	5,277.83	41.1062	5,277.83	61.1842	5,277.83	63.6664	5,277.83	61.3504	5,277.83	61.7597	5,277.83	54.7893	5,277.83	53.4485	5,277.83	56.569	5,277.83	67.1155	5,277.83	62.4561
5,463.87	81.6545	5,463.87	83.9802	5,463.87	78.4746	5,463.87	79.3727	5,463.87	80.9974	5,463.87	81.5918	5,463.87	85.1748	5,463.87	79.656	5,463.87	78.6598	5,463.87	77.0628	5,463.87	81.0328	5,463.87	74.077	5,463.87	78.6887	5,463.87	71.7476	5,463.87	75.4968	5,463.87	73.3138	5,463.87	72.483	5,463.87	68.6705	5,463.87	72.0198	5,463.87	65.9766	5,463.87	66.4235	5,463.87	60.3818	5,463.87	59.1738	5,463.87	60.7928	5,463.87	63.3043	5,463.87	62.806	5,463.87	57.5165	5,463.87	63.7971	5,463.87	66.4775	5,463.87	62.7921	5,463.87	62.6521	5,463.87	53.0989	5,463.87	61.2205	5,463.87	45.5026	5,463.87	66.16	5,463.87	63.0501
5,657.23	82.8784	5,657.23	83.5881	5,657.23	79.9945	5,657.23	80.7731	5,657.23	81.4569	5,657.23	81.2363	5,657.23	83.5289	5,657.23	79.428	5,657.23	80.7676	5,657.23	78.1618	5,657.23	79.1304	5,657.23	75.4987	5,657.23	77.3759	5,657.23	75.0474	5,657.23	77.3482	5,657.23	69.3055	5,657.23	72.7466	5,657.23	66.0759	5,657.23	72.368	5,657.23	65.4544	5,657.23	68.2483	5,657.23	59.1399	5,657.23	58.6872	5,657.23	62.7317	5,657.23	61.6849	5,657.23	59.0213	5,657.23	60.4212	5,657.23	66.5273	5,657.23	64.0186	5,657.23	63.8478	5,657.23	60.9502	5,657.23	43.3073	5,657.23	62.1921	5,657.23	55.4853	5,657.23	67.6704	5,657.23	64.1531
5,856.45	83.6306	5,856.45	83.4279	5,856.45	81.1074	5,856.45	80.591	5,856.45	80.5953	5,856.45	81.0376	5,856.45	82.3767	5,856.45	79.8371	5,856.45	80.4623	5,856.45	78.2511	5,856.45	78.9731	5,856.45	75.4161	5,856.45	78.2983	5,856.45	72.6661	5,856.45	77.3332	5,856.45	72.7278	5,856.45	74.4481	5,856.45	67.2959	5,856.45	73.5406	5,856.45	63.4113	5,856.45	66.1453	5,856.45	59.0288	5,856.45	58.5954	5,856.45	60.6374	5,856.45	63.9897	5,856.45	60.3855	5,856.45	63.4327	5,856.45	66.5116	5,856.45	64.7126	5,856.45	64.482	5,856.45	60.0998	5,856.45	56.2087	5,856.45	59.0161	5,856.45	49.663	5,856.45	67.4378	5,856.45	64.6172
6,062.99	84.3166	6,062.99	83.1648	6,062.99	80.166	6,062.99	81.9663	6,062.99	79.992	6,062.99	81.1578	6,062.99	81.4811	6,062.99	79.6638	6,062.99	81.0595	6,062.99	78.5031	6,062.99	77.05	6,062.99	74.8876	6,062.99	78.1448	6,062.99	73.4849	6,062.99	76.0873	6,062.99	69.2839	6,062.99	76.5229	6,062.99	66.3834	6,062.99	73.2749	6,062.99	63.9817	6,062.99	60.2442	6,062.99	58.5854	6,062.99	55.2444	6,062.99	60.0845	6,062.99	62.0743	6,062.99	60.3855	6,062.99	64.2522	6,062.99	65.9828	6,062.99	66.1736	6,062.99	64.9546	6,062.99	59.2611	6,062.99	53.5819	6,062.99	56.1473	6,062.99	49.6341	6,062.99	65.9911	6,062.99	62.8972
6,276.86	84.0707	6,276.86	83.9115	6,276.86	82.1163	6,276.86	82.3777	6,276.86	83.7984	6,276.86	80.7904	6,276.86	81.2455	6,276.86	81.2163	6,276.86	79.4783	6,276.86	77.5407	6,276.86	72.7311	6,276.86	75.8793	6,276.86	77.6728	6,276.86	72.4105	6,276.86	76.6757	6,276.86	72.7796	6,276.86	77.164	6,276.86	65.7312	6,276.86	72.042	6,276.86	64.5529	6,276.86	67.919	6,276.86	60.9662	6,276.86	56.3065	6,276.86	60.4364	6,276.86	58.646	6,276.86	61.1088	6,276.86	61.8633	6,276.86	63.8207	6,276.86	60.688	6,276.86	64.0699	6,276.86	58.4102	6,276.86	59.4896	6,276.86	55.0713	6,276.86	54.417	6,276.86	66.0751	6,276.86	64.5865
6,498.05	84.9688	6,498.05	84.3334	6,498.05	82.7221	6,498.05	82.0799	6,498.05	85.3415	6,498.05	81.3915	6,498.05	81.3546	6,498.05	81.1506	6,498.05	79.7355	6,498.05	76.7756	6,498.05	72.4317	6,498.05	74.9699	6,498.05	76.1291	6,498.05	74.1234	6,498.05	77.257	6,498.05	68.8832	6,498.05	74.8259	6,498.05	67.2684	6,498.05	67.0937	6,498.05	59.5525	6,498.05	69.5429	6,498.05	59.9043	6,498.05	60.5519	6,498.05	59.3848	6,498.05	54.1311	6,498.05	62.0422	6,498.05	64.5193	6,498.05	62.7546	6,498.05	61.9059	6,498.05	64.5151	6,498.05	61.2327	6,498.05	61.3771	6,498.05	59.6777	6,498.05	55.6742	6,498.05	64.1992	6,498.05	58.3857
6,726.56	84.9332	6,726.56	84.8914	6,726.56	82.8698	6,726.56	82.6962	6,726.56	85.1551	6,726.56	82.6969	6,726.56	82.3046	6,726.56	80.7387	6,726.56	81.0569	6,726.56	78.4089	6,726.56	73.5369	6,726.56	75.4216	6,726.56	77.0943	6,726.56	74.4497	6,726.56	75.9203	6,726.56	70.0377	6,726.56	66.7179	6,726.56	66.7674	6,726.56	67.0087	6,726.56	62.5459	6,726.56	64.4345	6,726.56	58.9546	6,726.56	59.9392	6,726.56	55.1629	6,726.56	50.9729	6,726.56	62.6634	6,726.56	61.3948	6,726.56	61.8593	6,726.56	53.8498	6,726.56	64.617	6,726.56	63.9171	6,726.56	62.1713	6,726.56	53.3725	6,726.56	59.7797	6,726.56	65.9932	6,726.56	58.3741
6,963.87	84.6512	6,963.87	84.7486	6,963.87	80.9209	6,963.87	82.8691	6,963.87	82.5173	6,963.87	83.2643	6,963.87	83.1066	6,963.87	80.7093	6,963.87	80.6411	6,963.87	79.4645	6,963.87	75.5466	6,963.87	76.4873	6,963.87	77.8099	6,963.87	74.0828	6,963.87	72.4764	6,963.87	71.0482	6,963.87	73.0633	6,963.87	67.785	6,963.87	69.2452	6,963.87	62.4815	6,963.87	54.8908	6,963.87	57.234	6,963.87	50.78	6,963.87	52.666	6,963.87	52.9546	6,963.87	62.9646	6,963.87	57.0845	6,963.87	63.3285	6,963.87	59.5171	6,963.87	66.3484	6,963.87	64.0763	6,963.87	63.027	6,963.87	54.6979	6,963.87	62.2193	6,963.87	64.994	6,963.87	55.3332
7,209.96	85.3843	7,209.96	84.2236	7,209.96	80.2371	7,209.96	83.1777	7,209.96	81.7152	7,209.96	83.0449	7,209.96	83.1969	7,209.96	81.5795	7,209.96	81.2517	7,209.96	80.4096	7,209.96	77.4613	7,209.96	76.3595	7,209.96	78.4872	7,209.96	74.782	7,209.96	73.9419	7,209.96	68.9479	7,209.96	73.8847	7,209.96	67.3749	7,209.96	66.2912	7,209.96	62.7281	7,209.96	61.0665	7,209.96	58.9647	7,209.96	58.8035	7,209.96	57.2665	7,209.96	42.9963	7,209.96	61.0824	7,209.96	56.0842	7,209.96	63.925	7,209.96	57.8905	7,209.96	66.7489	7,209.96	63.7828	7,209.96	64.1982	7,209.96	58.9949	7,209.96	60.3975	7,209.96	63.8969	7,209.96	53.8817
7,464.84	85.2883	7,464.84	82.7099	7,464.84	83.0745	7,464.84	82.5445	7,464.84	83.8346	7,464.84	82.3221	7,464.84	83.2647	7,464.84	81.8077	7,464.84	80.6221	7,464.84	79.3886	7,464.84	78.7902	7,464.84	76.5484	7,464.84	74.8639	7,464.84	74.5334	7,464.84	79.233	7,464.84	71.4437	7,464.84	75.9582	7,464.84	66.8637	7,464.84	73.8588	7,464.84	63.8226	7,464.84	63.1205	7,464.84	59.5822	7,464.84	61.3372	7,464.84	60.0098	7,464.84	53.2749	7,464.84	61.7771	7,464.84	53.2334	7,464.84	64.9183	7,464.84	60.9509	7,464.84	66.1467	7,464.84	62.6967	7,464.84	64.2281	7,464.84	57.8662	7,464.84	59.8319	7,464.84	62.472	7,464.84	59.3567
7,727.05	84.9382	7,727.05	82.8895	7,727.05	82.7568	7,727.05	82.2178	7,727.05	85.0652	7,727.05	82.1702	7,727.05	82.494	7,727.05	81.1539	7,727.05	80.2657	7,727.05	78.9276	7,727.05	79.682	7,727.05	76.3929	7,727.05	68.729	7,727.05	74.5983	7,727.05	80.6339	7,727.05	70.2855	7,727.05	73.9469	7,727.05	69.6121	7,727.05	73.3535	7,727.05	61.8799	7,727.05	50.8723	7,727.05	60.6133	7,727.05	60.2359	7,727.05	60.0694	7,727.05	50.5523	7,727.05	62.0241	7,727.05	59.9727	7,727.05	63.664	7,727.05	61.2243	7,727.05	66.9782	7,727.05	60.5398	7,727.05	63.8577	7,727.05	53.7931	7,727.05	58.1842	7,727.05	62.8008	7,727.05	61.5877
7,999.51	85.9713	7,999.51	83.0123	7,999.51	82.7651	7,999.51	82.066	7,999.51	84.4792	7,999.51	82.0534	7,999.51	81.5733	7,999.51	80.9355	7,999.51	81.3354	7,999.51	78.6825	7,999.51	78.9241	7,999.51	76.1023	7,999.51	74.4995	7,999.51	74.542	7,999.51	79.3236	7,999.51	68.5539	7,999.51	67.8072	7,999.51	68.1729	7,999.51	68.1685	7,999.51	61.8329	7,999.51	58.9191	7,999.51	59.5562	7,999.51	59.004	7,999.51	58.3122	7,999.51	55.2943	7,999.51	59.9999	7,999.51	59.839	7,999.51	62.9207	7,999.51	60.5516	7,999.51	66.2317	7,999.51	61.8299	7,999.51	64.2471	7,999.51	58.2611	7,999.51	52.074	7,999.51	57.5132	7,999.51	58.3458
8,282.23	85.5586	8,282.23	82.1069	8,282.23	83.989	8,282.23	82.7712	8,282.23	83.9699	8,282.23	81.7413	8,282.23	81.372	8,282.23	80.3027	8,282.23	82.1381	8,282.23	78.9247	8,282.23	76.3318	8,282.23	75.82	8,282.23	76.3446	8,282.23	74.2433	8,282.23	73.5692	8,282.23	69.2024	8,282.23	72.1725	8,282.23	63.4258	8,282.23	65.8219	8,282.23	62.377	8,282.23	62.0741	8,282.23	57.2216	8,282.23	60.3969	8,282.23	55.5295	8,282.23	60.4533	8,282.23	59.7167	8,282.23	60.227	8,282.23	63.2316	8,282.23	52.8915	8,282.23	64.8954	8,282.23	60.2339	8,282.23	64.1377	8,282.23	57.0558	8,282.23	61.2419	8,282.23	60.4785	8,282.23	60.6361
8,573.73	85.7926	8,573.73	81.9836	8,573.73	84.5967	8,573.73	82.4024	8,573.73	83.9556	8,573.73	81.1755	8,573.73	81.825	8,573.73	80.7137	8,573.73	82.25	8,573.73	78.5371	8,573.73	77.1805	8,573.73	75.5235	8,573.73	75.3495	8,573.73	72.7804	8,573.73	70.8287	8,573.73	68.1291	8,573.73	74.5764	8,573.73	63.4381	8,573.73	70.8142	8,573.73	57.1741	8,573.73	62.2905	8,573.73	57.6664	8,573.73	60.0548	8,573.73	53.2398	8,573.73	61.2011	8,573.73	57.0724	8,573.73	66.3487	8,573.73	61.659	8,573.73	53.3987	8,573.73	65.462	8,573.73	59.6391	8,573.73	61.9714	8,573.73	56.4732	8,573.73	60.1019	8,573.73	61.0727	8,573.73	60.0788
8,876.95	84.0379	8,876.95	82.4328	8,876.95	83.4524	8,876.95	82.5468	8,876.95	85.3046	8,876.95	81.6221	8,876.95	81.8771	8,876.95	80.9511	8,876.95	81.8648	8,876.95	78.0463	8,876.95	80.0608	8,876.95	74.9703	8,876.95	71.1373	8,876.95	71.6091	8,876.95	76.471	8,876.95	67.9606	8,876.95	73.615	8,876.95	65.9067	8,876.95	69.9952	8,876.95	59.3455	8,876.95	59.0677	8,876.95	57.6439	8,876.95	59.2651	8,876.95	54.4771	8,876.95	58.6537	8,876.95	61.1714	8,876.95	63.5201	8,876.95	62.3576	8,876.95	62.3441	8,876.95	65.3401	8,876.95	61.6449	8,876.95	64.2411	8,876.95	56.763	8,876.95	63.3435	8,876.95	61.7763	8,876.95	53.8139
9,188.96	84.7612	9,188.96	82.0808	9,188.96	83.5204	9,188.96	81.8797	9,188.96	84.4731	9,188.96	82.267	9,188.96	82.6045	9,188.96	80.7125	9,188.96	81.5344	9,188.96	78.3054	9,188.96	81.5866	9,188.96	74.5523	9,188.96	70.1028	9,188.96	73.209	9,188.96	77.5926	9,188.96	68.1072	9,188.96	70.601	9,188.96	66.4311	9,188.96	70.8467	9,188.96	59.8308	9,188.96	57.5996	9,188.96	59.6666	9,188.96	55.4322	9,188.96	52.5036	9,188.96	61.7227	9,188.96	57.2251	9,188.96	55.666	9,188.96	63.421	9,188.96	60.7741	9,188.96	65.6688	9,188.96	60.7258	9,188.96	65.2649	9,188.96	52.0669	9,188.96	59.7182	9,188.96	61.227	9,188.96	55.9336
9,514.16	83.3314	9,514.16	81.3533	9,514.16	83.3097	9,514.16	81.7149	9,514.16	82.4427	9,514.16	82.1023	9,514.16	82.7274	9,514.16	80.1409	9,514.16	81.0218	9,514.16	77.9717	9,514.16	80.6896	9,514.16	75.3905	9,514.16	73.6366	9,514.16	73.3502	9,514.16	74.6692	9,514.16	67.7623	9,514.16	73.0844	9,514.16	65.1143	9,514.16	68.326	9,514.16	58.6217	9,514.16	48.522	9,514.16	58.4999	9,514.16	62.2878	9,514.16	52.4339	9,514.16	61.1662	9,514.16	53.1024	9,514.16	50.9065	9,514.16	63.1353	9,514.16	62.7319	9,514.16	65.8089	9,514.16	57.8282	9,514.16	65.3513	9,514.16	54.7623	9,514.16	61.2544	9,514.16	57.4511	9,514.16	54.5813
9,849.61	83.7823	9,849.61	82.1018	9,849.61	83.2663	9,849.61	82.6982	9,849.61	82.4873	9,849.61	82.0146	9,849.61	81.0702	9,849.61	80.7374	9,849.61	79.4901	9,849.61	77.8371	9,849.61	79.61	9,849.61	76.2063	9,849.61	74.5751	9,849.61	73.0067	9,849.61	70.7878	9,849.61	68.1234	9,849.61	70.443	9,849.61	65.0633	9,849.61	63.6387	9,849.61	58.5221	9,849.61	57.7727	9,849.61	57.6464	9,849.61	64.933	9,849.61	50.5428	9,849.61	57.1783	9,849.61	56.1577	9,849.61	61.3516	9,849.61	62.1164	9,849.61	62.8501	9,849.61	65.5444	9,849.61	53.6317	9,849.61	64.8063	9,849.61	56.391	9,849.61	61.9544	9,849.61	57.4714	9,849.61	54.3469
10,196.8	83.912	10,196.8	83.1988	10,196.8	83.9735	10,196.8	82.6763	10,196.8	82.6397	10,196.8	82.2785	10,196.8	80.64	10,196.8	80.748	10,196.8	79.5689	10,196.8	78.0671	10,196.8	79.7421	10,196.8	76.4039	10,196.8	74.4708	10,196.8	73.7809	10,196.8	70.2574	10,196.8	68.6584	10,196.8	71.5162	10,196.8	64.3659	10,196.8	67.515	10,196.8	59.1831	10,196.8	63.5797	10,196.8	56.9879	10,196.8	62.6024	10,196.8	48.6727	10,196.8	60.8427	10,196.8	55.8941	10,196.8	57.6744	10,196.8	62.0974	10,196.8	59.0893	10,196.8	65.4652	10,196.8	51.8564	10,196.8	64.4071	10,196.8	54.3377	10,196.8	62.417	10,196.8	58.0624	10,196.8	44.1853
10,555.7	84.3402	10,555.7	83.5854	10,555.7	83.6941	10,555.7	82.6335	10,555.7	82.5157	10,555.7	82.2723	10,555.7	81.49	10,555.7	79.8019	10,555.7	81.4344	10,555.7	77.7719	10,555.7	80.6976	10,555.7	76.1092	10,555.7	72.655	10,555.7	73.3591	10,555.7	70.0116	10,555.7	67.3746	10,555.7	73.4968	10,555.7	64.0788	10,555.7	65.8603	10,555.7	57.1216	10,555.7	63.6653	10,555.7	55.9204	10,555.7	59.5941	10,555.7	50.2864	10,555.7	60.5354	10,555.7	51.3209	10,555.7	51.1437	10,555.7	60.5697	10,555.7	57.5908	10,555.7	63.1827	10,555.7	50.8893	10,555.7	64.2118	10,555.7	54.1627	10,555.7	60.1818	10,555.7	57.2044	10,555.7	50.3488
10,927.7	84.7076	10,927.7	83.6966	10,927.7	84.1659	10,927.7	83.1511	10,927.7	83.4831	10,927.7	81.8095	10,927.7	82.4541	10,927.7	79.6603	10,927.7	81.6175	10,927.7	77.5428	10,927.7	80.8011	10,927.7	75.8216	10,927.7	71.5716	10,927.7	71.2782	10,927.7	72.687	10,927.7	65.6723	10,927.7	70.5649	10,927.7	62.4772	10,927.7	63.7465	10,927.7	55.4786	10,927.7	63.7698	10,927.7	53.3284	10,927.7	61.5258	10,927.7	48.7983	10,927.7	58.8784	10,927.7	53.0244	10,927.7	49.5409	10,927.7	58.8787	10,927.7	60.4902	10,927.7	61.2192	10,927.7	52.4592	10,927.7	63.2477	10,927.7	56.839	10,927.7	59.1888	10,927.7	57.3303	10,927.7	53.1291
11,313	84.5682	11,313	84.3648	11,313	84.3097	11,313	83.3166	11,313	83.7888	11,313	81.2848	11,313	82.8204	11,313	80.4836	11,313	81.4977	11,313	77.6438	11,313	79.7169	11,313	75.6907	11,313	72.7692	11,313	70.4735	11,313	67.3519	11,313	66.2704	11,313	69.1246	11,313	62.732	11,313	67.1776	11,313	54.8422	11,313	64.4128	11,313	55.9933	11,313	63.5008	11,313	43.4774	11,313	59.6078	11,313	52.3686	11,313	48.6718	11,313	58.9028	11,313	59.4509	11,313	59.7582	11,313	36.7525	11,313	63.7686	11,313	57.3417	11,313	60.0294	11,313	57.7257	11,313	53.466
11,712.9	84.9353	11,712.9	84.6465	11,712.9	84.3058	11,712.9	83.1058	11,712.9	83.5905	11,712.9	81.7277	11,712.9	82.7595	11,712.9	80.5496	11,712.9	80.2999	11,712.9	78.1367	11,712.9	78.783	11,712.9	74.6977	11,712.9	72.8585	11,712.9	70.8727	11,712.9	68.2779	11,712.9	64.9767	11,712.9	72.6059	11,712.9	60.907	11,712.9	68.6627	11,712.9	57.056	11,712.9	64.5898	11,712.9	53.4657	11,712.9	64.724	11,712.9	41.4731	11,712.9	59.0842	11,712.9	47.0915	11,712.9	53.6935	11,712.9	59.4733	11,712.9	55.0843	11,712.9	58.6255	11,712.9	51.9918	11,712.9	63.9918	11,712.9	52.1488	11,712.9	57.159	11,712.9	57.1336	11,712.9	50.9211
12,126	85.0382	12,126	85.2377	12,126	85.0686	12,126	83.2037	12,126	85.1659	12,126	82.4597	12,126	81.7214	12,126	80.9768	12,126	80.7615	12,126	78.2005	12,126	78.0288	12,126	75.1461	12,126	73.404	12,126	69.6056	12,126	70.0675	12,126	65.3465	12,126	72.3733	12,126	62.743	12,126	68.0267	12,126	57.8701	12,126	68.6528	12,126	52.8334	12,126	66.3987	12,126	49.1994	12,126	61.117	12,126	51.2735	12,126	43.1246	12,126	60.601	12,126	57.5046	12,126	59.1689	12,126	49.9352	12,126	63.6725	12,126	51.0104	12,126	55.3219	12,126	53.7952	12,126	53.2711
12,553.7	85.5095	12,553.7	85.595	12,553.7	84.7675	12,553.7	83.8497	12,553.7	85.1384	12,553.7	82.6322	12,553.7	82.5803	12,553.7	81.8845	12,553.7	81.1078	12,553.7	77.9833	12,553.7	78.5508	12,553.7	75.6526	12,553.7	75.0041	12,553.7	70.6795	12,553.7	71.6158	12,553.7	67.4559	12,553.7	69.2748	12,553.7	63.8889	12,553.7	69.4456	12,553.7	57.4847	12,553.7	69.651	12,553.7	52.5156	12,553.7	68.5772	12,553.7	48.603	12,553.7	60.8721	12,553.7	53.415	12,553.7	53.416	12,553.7	61.0183	12,553.7	54.9222	12,553.7	59.866	12,553.7	48.451	12,553.7	63.1068	12,553.7	50.3323	12,553.7	59.6223	12,553.7	55.6191	12,553.7	55.6844
12,996.1	85.2713	12,996.1	85.7911	12,996.1	85.0209	12,996.1	83.9918	12,996.1	85.1968	12,996.1	83.0453	12,996.1	83.7028	12,996.1	81.7538	12,996.1	81.2005	12,996.1	77.8646	12,996.1	78.8791	12,996.1	75.6809	12,996.1	74.6864	12,996.1	72.0608	12,996.1	68.4297	12,996.1	68.0412	12,996.1	69.5189	12,996.1	63.6547	12,996.1	70.8909	12,996.1	59.2863	12,996.1	69.3862	12,996.1	51.9832	12,996.1	68.2391	12,996.1	45.9009	12,996.1	58.1565	12,996.1	51.8186	12,996.1	51.1923	12,996.1	59.6412	12,996.1	50.6064	12,996.1	59.962	12,996.1	51.1547	12,996.1	61.8767	12,996.1	49.3678	12,996.1	59.7639	12,996.1	56.2043	12,996.1	52.2007
13,454.6	85.4978	13,454.6	85.8469	13,454.6	84.7556	13,454.6	84.1627	13,454.6	85.8923	13,454.6	83.5762	13,454.6	83.7809	13,454.6	81.3003	13,454.6	81.0821	13,454.6	77.2338	13,454.6	78.1974	13,454.6	75.8347	13,454.6	74.8461	13,454.6	71.3248	13,454.6	68.5067	13,454.6	67.2375	13,454.6	69.9169	13,454.6	62.3301	13,454.6	69.9248	13,454.6	58.1561	13,454.6	69.8958	13,454.6	49.8944	13,454.6	67.7512	13,454.6	44.6595	13,454.6	58.1946	13,454.6	49.8815	13,454.6	47.7933	13,454.6	58.0105	13,454.6	50.6788	13,454.6	58.0872	13,454.6	47.7563	13,454.6	61.9043	13,454.6	49.1055	13,454.6	57.78	13,454.6	53.7594	13,454.6	49.558
13,929.2	86.1767	13,929.2	85.7189	13,929.2	85.2708	13,929.2	84.604	13,929.2	85.9657	13,929.2	83.563	13,929.2	83.0918	13,929.2	81.1491	13,929.2	79.8728	13,929.2	76.7064	13,929.2	77.4433	13,929.2	75.6002	13,929.2	74.8202	13,929.2	70.4394	13,929.2	64.0129	13,929.2	66.6078	13,929.2	67.3549	13,929.2	61.7172	13,929.2	70.1802	13,929.2	57.9158	13,929.2	69.7543	13,929.2	45.5604	13,929.2	67.482	13,929.2	47.2113	13,929.2	59.377	13,929.2	48.3149	13,929.2	43.4531	13,929.2	56.903	13,929.2	51.0486	13,929.2	57.2078	13,929.2	47.6589	13,929.2	59.9899	13,929.2	43.5808	13,929.2	57.1359	13,929.2	51.7542	13,929.2	50.9165
14,419.9	86.1292	14,419.9	85.643	14,419.9	85.5271	14,419.9	84.5929	14,419.9	85.0275	14,419.9	83.2453	14,419.9	83.3524	14,419.9	80.1145	14,419.9	80.1747	14,419.9	76.19	14,419.9	78.6389	14,419.9	74.302	14,419.9	72.4459	14,419.9	69.8661	14,419.9	67.2336	14,419.9	64.0989	14,419.9	63.1717	14,419.9	57.8529	14,419.9	70.5529	14,419.9	51.963	14,419.9	69.479	14,419.9	43.5452	14,419.9	67.1444	14,419.9	44.9801	14,419.9	56.149	14,419.9	47.0477	14,419.9	40.8585	14,419.9	51.4309	14,419.9	46.4864	14,419.9	54.1363	14,419.9	31.7738	14,419.9	56.1257	14,419.9	43.2044	14,419.9	56.3426	14,419.9	53.9251	14,419.9	49.8327
14,928.2	85.8301	14,928.2	85.289	14,928.2	86.2678	14,928.2	84.3737	14,928.2	86.1124	14,928.2	82.8782	14,928.2	83.0311	14,928.2	79.4845	14,928.2	81.0065	14,928.2	75.3572	14,928.2	78.8814	14,928.2	72.9895	14,928.2	72.7322	14,928.2	65.2603	14,928.2	66.5916	14,928.2	60.1836	14,928.2	68.4186	14,928.2	54.8101	14,928.2	70.6642	14,928.2	50.8279	14,928.2	69.4149	14,928.2	43.9804	14,928.2	67.1333	14,928.2	41.3962	14,928.2	57.2681	14,928.2	41.9718	14,928.2	43.962	14,928.2	50.5496	14,928.2	47.1175	14,928.2	50.6595	14,928.2	40.3606	14,928.2	55.3324	14,928.2	43.0573	14,928.2	55.7626	14,928.2	45.7953	14,928.2	46.1426
15,455.6	86.1253	15,455.6	85.1759	15,455.6	85.8491	15,455.6	84.433	15,455.6	85.3242	15,455.6	82.3089	15,455.6	82.8295	15,455.6	79.275	15,455.6	79.8061	15,455.6	74.4199	15,455.6	77.48	15,455.6	70.2828	15,455.6	72.0895	15,455.6	62.0203	15,455.6	65.9901	15,455.6	57.0479	15,455.6	63.3379	15,455.6	49.2422	15,455.6	69.3475	15,455.6	48.0496	15,455.6	68.0467	15,455.6	31.7712	15,455.6	66.962	15,455.6	42.9957	15,455.6	55.978	15,455.6	42.7561	15,455.6	44.562	15,455.6	49.1535	15,455.6	46.948	15,455.6	46.1166	15,455.6	36.1358	15,455.6	49.9894	15,455.6	44.7151	15,455.6	47.6917	15,455.6	47.2305	15,455.6	51.7712
16,000.5	86.3285	16,000.5	85.604	16,000.5	85.9635	16,000.5	84.3814	16,000.5	85.623	16,000.5	82.1584	16,000.5	83.3024	16,000.5	79.2144	16,000.5	79.7515	16,000.5	73.4998	16,000.5	76.6897	16,000.5	67.8378	16,000.5	69.7808	16,000.5	56.4211	16,000.5	66.1051	16,000.5	55.1097	16,000.5	62.9329	16,000.5	47.2778	16,000.5	69.6058	16,000.5	48.2403	16,000.5	68.3851	16,000.5	34.331	16,000.5	67.9933	16,000.5	39.3748	16,000.5	55.9598	16,000.5	40.8639	16,000.5	41.3833	16,000.5	41.8444	16,000.5	39.4653	16,000.5	40.8631	16,000.5	39.9799	16,000.5	39.9683	16,000.5	41.8468	16,000.5	54.114	16,000.5	51.6572	16,000.5	50.6219
16,564.5	86.215	16,564.5	85.5355	16,564.5	85.8771	16,564.5	83.9529	16,564.5	84.7798	16,564.5	81.6583	16,564.5	81.5025	16,564.5	78.8954	16,564.5	79.6537	16,564.5	71.1247	16,564.5	75.9069	16,564.5	65.5517	16,564.5	70.374	16,564.5	52.5628	16,564.5	64.6706	16,564.5	50.8408	16,564.5	62.395	16,564.5	38.0742	16,564.5	68.5409	16,564.5	44.2211	16,564.5	67.5175	16,564.5	35.4442	16,564.5	67.2233	16,564.5	38.8096	16,564.5	57.6834	16,564.5	41.6526	16,564.5	20.9083	16,564.5	42.0273	16,564.5	33.3965	16,564.5	44.4325	16,564.5	26.3965	16,564.5	34.877	16,564.5	37.9473	16,564.5	53.2649	16,564.5	49.8857	16,564.5	51.0013
17,148.9	85.99	17,148.9	85.3493	17,148.9	85.4524	17,148.9	83.0592	17,148.9	84.1434	17,148.9	80.9717	17,148.9	81.1961	17,148.9	76.8189	17,148.9	77.9402	17,148.9	68.1251	17,148.9	73.5879	17,148.9	60.5537	17,148.9	68.4011	17,148.9	44.4849	17,148.9	63.1117	17,148.9	49.0446	17,148.9	58.131	17,148.9	46.6969	17,148.9	65.8667	17,148.9	46.0776	17,148.9	65.548	17,148.9	33.8106	17,148.9	66.2523	17,148.9	30.4251	17,148.9	56.384	17,148.9	39.5674	17,148.9	42.3992	17,148.9	45.0477	17,148.9	43.4347	17,148.9	49.1173	17,148.9	43.3533	17,148.9	45.1369	17,148.9	38.2713	17,148.9	51.4611	17,148.9	48.4629	17,148.9	50.0601
17,752.4	85.7277	17,752.4	84.8799	17,752.4	84.7818	17,752.4	82.5644	17,752.4	83.0358	17,752.4	79.5387	17,752.4	79.2334	17,752.4	74.3401	17,752.4	74.2297	17,752.4	64.6842	17,752.4	68.4055	17,752.4	52.9971	17,752.4	61.4142	17,752.4	55.4768	17,752.4	58.0142	17,752.4	53.7071	17,752.4	53.6425	17,752.4	50.5954	17,752.4	62.2538	17,752.4	47.5817	17,752.4	64.0801	17,752.4	32.869	17,752.4	65.4931	17,752.4	20.8812	17,752.4	56.9872	17,752.4	44.842	17,752.4	43.035	17,752.4	45.3203	17,752.4	37.6223	17,752.4	49.5549	17,752.4	40.1461	17,752.4	48.2205	17,752.4	33.8193	17,752.4	44.3704	17,752.4	46.489	17,752.4	47.9846
18,379.4	85.4663	18,379.4	84.3778	18,379.4	84.7217	18,379.4	82.1157	18,379.4	82.7838	18,379.4	78.4587	18,379.4	78.0428	18,379.4	73.274	18,379.4	73.6171	18,379.4	62.6213	18,379.4	65.7747	18,379.4	57.0759	18,379.4	51.436	18,379.4	56.0539	18,379.4	49.0952	18,379.4	53.7536	18,379.4	51.2566	18,379.4	48.5104	18,379.4	62.4669	18,379.4	46.9086	18,379.4	63.9703	18,379.4	38.5478	18,379.4	65.224	18,379.4	27.1386	18,379.4	56.4805	18,379.4	43.2426	18,379.4	41.0065	18,379.4	43.4544	18,379.4	33.3065	18,379.4	48.2018	18,379.4	40.575	18,379.4	48.572	18,379.4	44.3662	18,379.4	44.7593	18,379.4	46.4215	18,379.4	44.9366
19,026.9	85.079	19,026.9	83.9618	19,026.9	84.4345	19,026.9	81.5637	19,026.9	82.3018	19,026.9	77.703	19,026.9	77.7863	19,026.9	72.3444	19,026.9	72.9051	19,026.9	61.4759	19,026.9	63.178	19,026.9	57.0979	19,026.9	46.9116	19,026.9	54.0961	19,026.9	50.0544	19,026.9	52.0227	19,026.9	49.1803	19,026.9	48.1556	19,026.9	60.9173	19,026.9	45.0772	19,026.9	62.8083	19,026.9	38.1668	19,026.9	64.5079	19,026.9	21.5695	19,026.9	55.4354	19,026.9	41.2732	19,026.9	41.0745	19,026.9	42.8351	19,026.9	40.0316	19,026.9	47.9249	19,026.9	41.7447	19,026.9	48.3929	19,026.9	46.2801	19,026.9	47.3305	19,026.9	45.0766	19,026.9	40.7783
19,697.8	84.3936	19,697.8	83.2423	19,697.8	83.7453	19,697.8	80.6217	19,697.8	81.5532	19,697.8	76.6676	19,697.8	76.9928	19,697.8	70.1941	19,697.8	70.3795	19,697.8	59.5088	19,697.8	59.6622	19,697.8	55.8811	19,697.8	55.9527	19,697.8	55.6809	19,697.8	52.1447	19,697.8	49.906	19,697.8	48.9029	19,697.8	48.9083	19,697.8	57.7494	19,697.8	45.4892	19,697.8	60.8879	19,697.8	39.5746	19,697.8	63.012	19,697.8	22.2289	19,697.8	54.3767	19,697.8	39.075	19,697.8	35.041	19,697.8	42.3023	19,697.8	37.2019	19,697.8	47.4308	19,697.8	36.2005	19,697.8	46.811	19,697.8	42.8829	19,697.8	47.6255	19,697.8	44.6829	19,697.8	39.2252
19,999.5	83.9492	19,999.5	82.9163	19,999.5	83.4906	19,999.5	80.1544	19,999.5	81.0647	19,999.5	75.8644	19,999.5	76.9217	19,999.5	69.0424	19,999.5	69.3591	19,999.5	57.5715	19,999.5	50.9776	19,999.5	54.1884	19,999.5	62.6057	19,999.5	57.1971	19,999.5	50.4853	19,999.5	49.7078	19,999.5	55.6527	19,999.5	48.7449	19,999.5	55.3958	19,999.5	43.2614	19,999.5	59.7696	19,999.5	43.6499	19,999.5	62.7841	19,999.5	32.2263	19,999.5	54.0846	19,999.5	42.0305	19,999.5	42.294	19,999.5	43.2064	19,999.5	45.1408	19,999.5	54.4358	19,999.5	37.591	19,999.5	46.6958	19,999.5	48.7612	19,999.5	42.2825	19,999.5	43.5299	19,999.5	40.4902
