"SPL Horizontal"
"On-Axis"		"10°"		"-10°"		"20°"		"-20°"		"30°"		"-30°"		"40°"		"-40°"		"50°"		"-50°"		"60°"		"-60°"		"70°"		"-70°"		"80°"		"-80°"		"90°"		"-90°"		"100°"		"-100°"		"110°"		"-110°"		"120°"		"-120°"		"130°"		"-130°"		"140°"		"-140°"		"150°"		"-150°"		"160°"		"-160°"		"170°"		"-170°"		"180°"
"Frequency / Hz"	"Sound Pressure Level / dB (re 20 µPa/V)  [2.83  V @ 1. m]"	"Frequency / Hz"	"Sound Pressure Level / dB (re 20 µPa/V)  [2.83  V @ 1. m]"	"Frequency / Hz"	"Sound Pressure Level / dB (re 20 µPa/V)  [2.83  V @ 1. m]"	"Frequency / Hz"	"Sound Pressure Level / dB (re 20 µPa/V)  [2.83  V @ 1. m]"	"Frequency / Hz"	"Sound Pressure Level / dB (re 20 µPa/V)  [2.83  V @ 1. m]"	"Frequency / Hz"	"Sound Pressure Level / dB (re 20 µPa/V)  [2.83  V @ 1. m]"	"Frequency / Hz"	"Sound Pressure Level / dB (re 20 µPa/V)  [2.83  V @ 1. m]"	"Frequency / Hz"	"Sound Pressure Level / dB (re 20 µPa/V)  [2.83  V @ 1. m]"	"Frequency / Hz"	"Sound Pressure Level / dB (re 20 µPa/V)  [2.83  V @ 1. m]"	"Frequency / Hz"	"Sound Pressure Level / dB (re 20 µPa/V)  [2.83  V @ 1. m]"	"Frequency / Hz"	"Sound Pressure Level / dB (re 20 µPa/V)  [2.83  V @ 1. m]"	"Frequency / Hz"	"Sound Pressure Level / dB (re 20 µPa/V)  [2.83  V @ 1. m]"	"Frequency / Hz"	"Sound Pressure Level / dB (re 20 µPa/V)  [2.83  V @ 1. m]"	"Frequency / Hz"	"Sound Pressure Level / dB (re 20 µPa/V)  [2.83  V @ 1. m]"	"Frequency / Hz"	"Sound Pressure Level / dB (re 20 µPa/V)  [2.83  V @ 1. m]"	"Frequency / Hz"	"Sound Pressure Level / dB (re 20 µPa/V)  [2.83  V @ 1. m]"	"Frequency / Hz"	"Sound Pressure Level / dB (re 20 µPa/V)  [2.83  V @ 1. m]"	"Frequency / Hz"	"Sound Pressure Level / dB (re 20 µPa/V)  [2.83  V @ 1. m]"	"Frequency / Hz"	"Sound Pressure Level / dB (re 20 µPa/V)  [2.83  V @ 1. m]"	"Frequency / Hz"	"Sound Pressure Level / dB (re 20 µPa/V)  [2.83  V @ 1. m]"	"Frequency / Hz"	"Sound Pressure Level / dB (re 20 µPa/V)  [2.83  V @ 1. m]"	"Frequency / Hz"	"Sound Pressure Level / dB (re 20 µPa/V)  [2.83  V @ 1. m]"	"Frequency / Hz"	"Sound Pressure Level / dB (re 20 µPa/V)  [2.83  V @ 1. m]"	"Frequency / Hz"	"Sound Pressure Level / dB (re 20 µPa/V)  [2.83  V @ 1. m]"	"Frequency / Hz"	"Sound Pressure Level / dB (re 20 µPa/V)  [2.83  V @ 1. m]"	"Frequency / Hz"	"Sound Pressure Level / dB (re 20 µPa/V)  [2.83  V @ 1. m]"	"Frequency / Hz"	"Sound Pressure Level / dB (re 20 µPa/V)  [2.83  V @ 1. m]"	"Frequency / Hz"	"Sound Pressure Level / dB (re 20 µPa/V)  [2.83  V @ 1. m]"	"Frequency / Hz"	"Sound Pressure Level / dB (re 20 µPa/V)  [2.83  V @ 1. m]"	"Frequency / Hz"	"Sound Pressure Level / dB (re 20 µPa/V)  [2.83  V @ 1. m]"	"Frequency / Hz"	"Sound Pressure Level / dB (re 20 µPa/V)  [2.83  V @ 1. m]"	"Frequency / Hz"	"Sound Pressure Level / dB (re 20 µPa/V)  [2.83  V @ 1. m]"	"Frequency / Hz"	"Sound Pressure Level / dB (re 20 µPa/V)  [2.83  V @ 1. m]"	"Frequency / Hz"	"Sound Pressure Level / dB (re 20 µPa/V)  [2.83  V @ 1. m]"	"Frequency / Hz"	"Sound Pressure Level / dB (re 20 µPa/V)  [2.83  V @ 1. m]"	"Frequency / Hz"	"Sound Pressure Level / dB (re 20 µPa/V)  [2.83  V @ 1. m]"
20.5078	45.7765	20.5078	46.0745	20.5078	45.479	20.5078	46.3405	20.5078	45.2362	20.5078	46.5595	20.5078	45.1226	20.5078	46.7299	20.5078	45.2174	20.5078	46.8589	20.5078	45.5695	20.5078	46.9546	20.5078	46.1634	20.5078	47.0204	20.5078	46.9189	20.5078	47.0506	20.5078	47.7256	20.5078	47.0332	20.5078	48.4794	20.5078	46.9567	20.5078	49.0993	20.5078	46.8178	20.5078	49.5292	20.5078	46.6285	20.5078	49.7355	20.5078	46.4197	20.5078	49.7045	20.5078	46.2428	20.5078	49.4431	20.5078	46.1652	20.5078	48.9804	20.5078	46.2555	20.5078	48.3714	20.5078	46.5567	20.5078	47.6974	20.5078	47.0593
21.9727	53.1052	21.9727	53.1475	21.9727	53.0469	21.9727	53.1693	21.9727	52.9773	21.9727	53.1679	21.9727	52.8983	21.9727	53.1435	21.9727	52.8087	21.9727	53.0992	21.9727	52.7043	21.9727	53.0402	21.9727	52.5813	21.9727	52.9735	21.9727	52.4394	21.9727	52.9061	21.9727	52.2846	21.9727	52.8444	21.9727	52.1299	21.9727	52.7932	21.9727	51.9939	21.9727	52.7553	21.9727	51.8967	21.9727	52.7306	21.9727	51.8552	21.9727	52.7159	21.9727	51.8775	21.9727	52.7045	21.9727	51.9596	21.9727	52.6874	21.9727	52.0859	21.9727	52.6537	21.9727	52.2334	21.9727	52.5938	21.9727	52.3782	21.9727	52.5016
23.4375	58.5363	23.4375	58.6517	23.4375	58.4324	23.4375	58.7769	23.4375	58.3394	23.4375	58.9077	23.4375	58.2544	23.4375	59.0382	23.4375	58.1729	23.4375	59.1605	23.4375	58.091	23.4375	59.2654	23.4375	58.0056	23.4375	59.3433	23.4375	57.9165	23.4375	59.385	23.4375	57.8259	23.4375	59.3835	23.4375	57.7388	23.4375	59.3349	23.4375	57.6618	23.4375	59.2397	23.4375	57.6021	23.4375	59.103	23.4375	57.5667	23.4375	58.9335	23.4375	57.5607	23.4375	58.7427	23.4375	57.5868	23.4375	58.5431	23.4375	57.6453	23.4375	58.3462	23.4375	57.7345	23.4375	58.1614	23.4375	57.852	23.4375	57.9953
24.9023	60.4844	24.9023	60.4574	24.9023	60.4946	24.9023	60.4147	24.9023	60.4866	24.9023	60.3575	24.9023	60.4591	24.9023	60.2871	24.9023	60.4109	24.9023	60.2061	24.9023	60.3419	24.9023	60.1177	24.9023	60.2534	24.9023	60.0267	24.9023	60.1483	24.9023	59.9382	24.9023	60.0313	24.9023	59.857	24.9023	59.9089	24.9023	59.7868	24.9023	59.7888	24.9023	59.7291	24.9023	59.6793	24.9023	59.6835	24.9023	59.5883	24.9023	59.6477	24.9023	59.5213	24.9023	59.6183	24.9023	59.4806	24.9023	59.5919	24.9023	59.4647	24.9023	59.5659	24.9023	59.4688	24.9023	59.5389	24.9023	59.4865	24.9023	59.5115
26.3672	64.4833	26.3672	64.5111	26.3672	64.4488	26.3672	64.5311	26.3672	64.4085	26.3672	64.5424	26.3672	64.363	26.3672	64.5444	26.3672	64.3128	26.3672	64.5368	26.3672	64.2584	26.3672	64.5195	26.3672	64.2005	26.3672	64.4925	26.3672	64.1404	26.3672	64.4555	26.3672	64.0799	26.3672	64.4087	26.3672	64.0212	26.3672	64.3528	26.3672	63.9664	26.3672	64.2894	26.3672	63.9174	26.3672	64.2209	26.3672	63.8761	26.3672	64.1504	26.3672	63.8442	26.3672	64.081	26.3672	63.823	26.3672	64.0155	26.3672	63.8139	26.3672	63.9563	26.3672	63.8177	26.3672	63.9052	26.3672	63.8346	26.3672	63.8642
27.832	65.1806	27.832	65.1913	27.832	65.1606	27.832	65.1926	27.832	65.1313	27.832	65.185	27.832	65.0932	27.832	65.1692	27.832	65.0472	27.832	65.1458	27.832	64.9942	27.832	65.1156	27.832	64.9356	27.832	65.0795	27.832	64.873	27.832	65.0379	27.832	64.8088	27.832	64.9913	27.832	64.7456	27.832	64.9403	27.832	64.6864	27.832	64.8862	27.832	64.6344	27.832	64.8304	27.832	64.5921	27.832	64.7752	27.832	64.5611	27.832	64.7226	27.832	64.5419	27.832	64.6745	27.832	64.534	27.832	64.6323	27.832	64.5365	27.832	64.5968	27.832	64.5484	27.832	64.5687
29.2969	67.7413	29.2969	67.7499	29.2969	67.7257	29.2969	67.7511	29.2969	67.7039	29.2969	67.7449	29.2969	67.6767	29.2969	67.7317	29.2969	67.6455	29.2969	67.7123	29.2969	67.6115	29.2969	67.6874	29.2969	67.576	29.2969	67.658	29.2969	67.5404	29.2969	67.6252	29.2969	67.5058	29.2969	67.59	29.2969	67.4734	29.2969	67.5533	29.2969	67.444	29.2969	67.5165	29.2969	67.4181	29.2969	67.4808	29.2969	67.3959	29.2969	67.4476	29.2969	67.3777	29.2969	67.4181	29.2969	67.3633	29.2969	67.3932	29.2969	67.3531	29.2969	67.3733	29.2969	67.3472	29.2969	67.3588	29.2969	67.3459	29.2969	67.3497
30.7617	69.5165	30.7617	69.5232	30.7617	69.5042	30.7617	69.524	30.7617	69.4869	30.7617	69.5189	30.7617	69.4651	30.7617	69.5079	30.7617	69.4395	30.7617	69.4914	30.7617	69.4107	30.7617	69.4698	30.7617	69.3795	30.7617	69.4433	30.7617	69.3465	30.7617	69.4122	30.7617	69.3126	30.7617	69.3767	30.7617	69.2786	30.7617	69.3372	30.7617	69.2453	30.7617	69.2949	30.7617	69.2132	30.7617	69.2512	30.7617	69.183	30.7617	69.2084	30.7617	69.1553	30.7617	69.1692	30.7617	69.1309	30.7617	69.1359	30.7617	69.1108	30.7617	69.1105	30.7617	69.096	30.7617	69.0941	30.7617	69.0876	30.7617	69.0866
32.2266	71.1517	32.2266	71.1562	32.2266	71.1403	32.2266	71.1533	32.2266	71.1223	32.2266	71.1426	32.2266	71.0984	32.2266	71.1243	32.2266	71.0692	32.2266	71.0982	32.2266	71.0354	32.2266	71.0648	32.2266	70.9978	32.2266	71.0243	32.2266	70.957	32.2266	70.9772	32.2266	70.9136	32.2266	70.9244	32.2266	70.8682	32.2266	70.867	32.2266	70.8213	32.2266	70.8068	32.2266	70.7733	32.2266	70.7463	32.2266	70.7254	32.2266	70.6884	32.2266	70.6788	32.2266	70.6365	32.2266	70.6354	32.2266	70.5936	32.2266	70.5974	32.2266	70.5622	32.2266	70.5672	32.2266	70.5438	32.2266	70.5471	32.2266	70.5389
33.6914	73.013	33.6914	73.0191	33.6914	73.0008	33.6914	73.0189	33.6914	72.9831	33.6914	73.0119	33.6914	72.9604	33.6914	72.9978	33.6914	72.9334	33.6914	72.9766	33.6914	72.9027	33.6914	72.9482	33.6914	72.869	33.6914	72.9125	33.6914	72.8329	33.6914	72.8699	33.6914	72.7947	33.6914	72.8211	33.6914	72.7546	33.6914	72.7673	33.6914	72.7126	33.6914	72.7102	33.6914	72.669	33.6914	72.6524	33.6914	72.6245	33.6914	72.5967	33.6914	72.5805	33.6914	72.5463	33.6914	72.5389	33.6914	72.5041	33.6914	72.5022	33.6914	72.4724	33.6914	72.4731	33.6914	72.4531	33.6914	72.4541	33.6914	72.4471
35.1562	74.4273	35.1562	74.4292	35.1562	74.4191	35.1562	74.4245	35.1562	74.405	35.1562	74.413	35.1562	74.3857	35.1562	74.3947	35.1562	74.3618	35.1562	74.3697	35.1562	74.3338	35.1562	74.3383	35.1562	74.3025	35.1562	74.3009	35.1562	74.2683	35.1562	74.2581	35.1562	74.2317	35.1562	74.2108	35.1562	74.1928	35.1562	74.16	35.1562	74.1517	35.1562	74.1074	35.1562	74.1088	35.1562	74.055	35.1562	74.065	35.1562	74.0055	35.1562	74.0216	35.1562	73.9616	35.1562	73.9805	35.1562	73.9258	35.1562	73.944	35.1562	73.9001	35.1562	73.9145	35.1562	73.8861	35.1562	73.8939	35.1562	73.8841
36.6211	75.6169	36.6211	75.6176	36.6211	75.6078	36.6211	75.6097	36.6211	75.5905	36.6211	75.5934	36.6211	75.5658	36.6211	75.569	36.6211	75.5345	36.6211	75.537	36.6211	75.4979	36.6211	75.498	36.6211	75.457	36.6211	75.4528	36.6211	75.4131	36.6211	75.4025	36.6211	75.3675	36.6211	75.3481	36.6211	75.3209	36.6211	75.2913	36.6211	75.2742	36.6211	75.2339	36.6211	75.2281	36.6211	75.1783	36.6211	75.1833	36.6211	75.1271	36.6211	75.1408	36.6211	75.083	36.6211	75.1019	36.6211	75.0482	36.6211	75.068	36.6211	75.0243	36.6211	75.0406	36.6211	75.0121	36.6211	75.0213	36.6211	75.0114
38.0859	76.7622	38.0859	76.7642	38.0859	76.751	38.0859	76.7565	38.0859	76.7312	38.0859	76.7394	38.0859	76.7035	38.0859	76.713	38.0859	76.669	38.0859	76.6782	38.0859	76.6289	38.0859	76.6357	38.0859	76.5844	38.0859	76.5865	38.0859	76.5367	38.0859	76.5319	38.0859	76.4869	38.0859	76.4732	38.0859	76.4359	38.0859	76.4121	38.0859	76.3846	38.0859	76.3504	38.0859	76.3337	38.0859	76.2905	38.0859	76.2841	38.0859	76.2349	38.0859	76.2368	38.0859	76.1862	38.0859	76.1935	38.0859	76.1466	38.0859	76.1561	38.0859	76.1182	38.0859	76.1265	38.0859	76.1019	38.0859	76.1067	38.0859	76.0981
39.5508	77.7723	39.5508	77.7744	39.5508	77.7604	39.5508	77.7666	39.5508	77.7395	39.5508	77.7488	39.5508	77.7103	39.5508	77.7215	39.5508	77.6741	39.5508	77.6852	39.5508	77.632	39.5508	77.6409	39.5508	77.5855	39.5508	77.5898	39.5508	77.5359	39.5508	77.5334	39.5508	77.4842	39.5508	77.4735	39.5508	77.4316	39.5508	77.412	39.5508	77.379	39.5508	77.3512	39.5508	77.3274	39.5508	77.2933	39.5508	77.278	39.5508	77.2406	39.5508	77.232	39.5508	77.195	39.5508	77.1913	39.5508	77.1583	39.5508	77.1574	39.5508	77.1316	39.5508	77.1319	39.5508	77.1155	39.5508	77.1159	39.5508	77.1103
41.0156	78.6698	41.0156	78.6689	41.0156	78.6584	41.0156	78.6556	41.0156	78.6354	41.0156	78.6299	41.0156	78.6016	41.0156	78.5923	41.0156	78.5582	41.0156	78.5437	41.0156	78.5069	41.0156	78.4851	41.0156	78.4496	41.0156	78.4183	41.0156	78.3883	41.0156	78.3453	41.0156	78.3252	41.0156	78.2687	41.0156	78.2621	41.0156	78.1913	41.0156	78.2003	41.0156	78.1164	41.0156	78.1408	41.0156	78.047	41.0156	78.0842	41.0156	77.9859	41.0156	78.0314	41.0156	77.9357	41.0156	77.9832	41.0156	77.8979	41.0156	77.9411	41.0156	77.8736	41.0156	77.9063	41.0156	77.8631	41.0156	77.8807	41.0156	77.8658
42.4805	79.28	42.4805	79.2684	42.4805	79.2796	42.4805	79.2452	42.4805	79.2675	42.4805	79.2109	42.4805	79.244	42.4805	79.1665	42.4805	79.2101	42.4805	79.1133	42.4805	79.1668	42.4805	79.0528	42.4805	79.1157	42.4805	78.987	42.4805	79.0581	42.4805	78.9182	42.4805	78.9958	42.4805	78.8488	42.4805	78.9305	42.4805	78.7814	42.4805	78.8641	42.4805	78.7182	42.4805	78.7985	42.4805	78.6612	42.4805	78.7356	42.4805	78.6117	42.4805	78.6774	42.4805	78.5711	42.4805	78.6257	42.4805	78.5401	42.4805	78.5822	42.4805	78.5196	42.4805	78.5481	42.4805	78.5099	42.4805	78.5243	42.4805	78.5115
43.9453	79.8717	43.9453	79.8709	43.9453	79.8619	43.9453	79.8594	43.9453	79.8418	43.9453	79.8374	43.9453	79.8119	43.9453	79.8055	43.9453	79.7731	43.9453	79.7644	43.9453	79.7264	43.9453	79.7152	43.9453	79.6733	43.9453	79.6592	43.9453	79.6154	43.9453	79.5981	43.9453	79.5543	43.9453	79.5339	43.9453	79.4921	43.9453	79.469	43.9453	79.4305	43.9453	79.4057	43.9453	79.3717	43.9453	79.3465	43.9453	79.3175	43.9453	79.2933	43.9453	79.2694	43.9453	79.2476	43.9453	79.2289	43.9453	79.2106	43.9453	79.1969	43.9453	79.1831	43.9453	79.1742	43.9453	79.1656	43.9453	79.1612	43.9453	79.1583
45.4102	80.1509	45.4102	80.1496	45.4102	80.1405	45.4102	80.1367	45.4102	80.1187	45.4102	80.1128	45.4102	80.0861	45.4102	80.0785	45.4102	80.0436	45.4102	80.0349	45.4102	79.9925	45.4102	79.9832	45.4102	79.9344	45.4102	79.925	45.4102	79.8713	45.4102	79.862	45.4102	79.8052	45.4102	79.7961	45.4102	79.7385	45.4102	79.7297	45.4102	79.6734	45.4102	79.6648	45.4102	79.612	45.4102	79.6037	45.4102	79.5562	45.4102	79.5482	45.4102	79.5075	45.4102	79.5	45.4102	79.4671	45.4102	79.4604	45.4102	79.4358	45.4102	79.4304	45.4102	79.4142	45.4102	79.4106	45.4102	79.4026	45.4102	79.4014
46.875	80.6221	46.875	80.6195	46.875	80.6119	46.875	80.6044	46.875	80.5895	46.875	80.5771	46.875	80.5554	46.875	80.5382	46.875	80.5105	46.875	80.489	46.875	80.4563	46.875	80.431	46.875	80.3944	46.875	80.3661	46.875	80.3268	46.875	80.2966	46.875	80.2557	46.875	80.2247	46.875	80.1834	46.875	80.1529	46.875	80.1122	46.875	80.0835	46.875	80.0445	46.875	80.0186	46.875	79.9823	46.875	79.9598	46.875	79.9274	46.875	79.9089	46.875	79.8814	46.875	79.8669	46.875	79.8454	46.875	79.835	46.875	79.8203	46.875	79.8141	46.875	79.8066	46.875	79.8045
48.3398	80.8847	48.3398	80.8832	48.3398	80.8732	48.3398	80.8687	48.3398	80.849	48.3398	80.8416	48.3398	80.8128	48.3398	80.8028	48.3398	80.7658	48.3398	80.7535	48.3398	80.7093	48.3398	80.6954	48.3398	80.6453	48.3398	80.6302	48.3398	80.576	48.3398	80.5603	48.3398	80.5035	48.3398	80.488	48.3398	80.4305	48.3398	80.4158	48.3398	80.3593	48.3398	80.3459	48.3398	80.292	48.3398	80.2804	48.3398	80.2308	48.3398	80.2213	48.3398	80.1773	48.3398	80.1699	48.3398	80.1328	48.3398	80.1274	48.3398	80.0985	48.3398	80.0949	48.3398	80.075	48.3398	80.073	48.3398	80.0629	48.3398	80.0623
51.2695	81.3485	51.2695	81.3443	51.2695	81.3383	51.2695	81.326	51.2695	81.3141	51.2695	81.2939	51.2695	81.2768	51.2695	81.2495	51.2695	81.2277	51.2695	81.1941	51.2695	81.1686	51.2695	81.1299	51.2695	81.1016	51.2695	81.0593	51.2695	81.0292	51.2695	80.9849	51.2695	80.9541	51.2695	80.9095	51.2695	80.8789	51.2695	80.8358	51.2695	80.8062	51.2695	80.7663	51.2695	80.7384	51.2695	80.7029	51.2695	80.6774	51.2695	80.6473	51.2695	80.6247	51.2695	80.6005	51.2695	80.5814	51.2695	80.563	51.2695	80.5479	51.2695	80.5352	51.2695	80.5248	51.2695	80.5174	51.2695	80.512	51.2695	80.5096
52.7344	81.6008	52.7344	81.599	52.7344	81.587	52.7344	81.5815	52.7344	81.5578	52.7344	81.549	52.7344	81.5144	52.7344	81.5025	52.7344	81.4581	52.7344	81.4438	52.7344	81.3908	52.7344	81.3751	52.7344	81.3151	52.7344	81.2992	52.7344	81.2337	52.7344	81.2189	52.7344	81.1495	52.7344	81.1376	52.7344	81.0658	52.7344	81.0579	52.7344	80.9857	52.7344	80.9826	52.7344	80.9119	52.7344	80.9136	52.7344	80.8468	52.7344	80.8525	52.7344	80.792	52.7344	80.8003	52.7344	80.7485	52.7344	80.7576	52.7344	80.7168	52.7344	80.7249	52.7344	80.6967	52.7344	80.7023	52.7344	80.6879	52.7344	80.6898
54.1992	81.7931	54.1992	81.792	54.1992	81.7783	54.1992	81.7749	54.1992	81.7478	54.1992	81.7424	54.1992	81.7029	54.1992	81.6958	54.1992	81.6449	54.1992	81.6369	54.1992	81.576	54.1992	81.568	54.1992	81.4987	54.1992	81.4919	54.1992	81.4158	54.1992	81.4118	54.1992	81.3307	54.1992	81.3308	54.1992	81.2465	54.1992	81.2518	54.1992	81.1666	54.1992	81.1773	54.1992	81.0938	54.1992	81.1094	54.1992	81.0303	54.1992	81.0495	54.1992	80.9778	54.1992	80.9985	54.1992	80.9372	54.1992	80.9569	54.1992	80.9085	54.1992	80.9248	54.1992	80.8914	54.1992	80.9022	54.1992	80.8851	54.1992	80.8888
55.6641	82.0024	55.6641	82.0017	55.6641	81.985	55.6641	81.9831	55.6641	81.9501	55.6641	81.9472	55.6641	81.8986	55.6641	81.8953	55.6641	81.8324	55.6641	81.8295	55.6641	81.7538	55.6641	81.7521	55.6641	81.6655	55.6641	81.6662	55.6641	81.5711	55.6641	81.575	55.6641	81.4741	55.6641	81.4819	55.6641	81.3786	55.6641	81.3906	55.6641	81.2882	55.6641	81.304	55.6641	81.2062	55.6641	81.2248	55.6641	81.1352	55.6641	81.1551	55.6641	81.0768	55.6641	81.0961	55.6641	81.0315	55.6641	81.0485	55.6641	80.9993	55.6641	81.0125	55.6641	80.9795	55.6641	80.9877	55.6641	80.9712	55.6641	80.9741
58.5938	82.3416	58.5938	82.3346	58.5938	82.3291	58.5938	82.3085	58.5938	82.2973	58.5938	82.2642	58.5938	82.2474	58.5938	82.2034	58.5938	82.1811	58.5938	82.1284	58.5938	82.1006	58.5938	82.042	58.5938	82.0089	58.5938	81.9475	58.5938	81.9096	58.5938	81.8483	58.5938	81.8065	58.5938	81.7483	58.5938	81.7038	58.5938	81.6511	58.5938	81.6055	58.5938	81.56	58.5938	81.5154	58.5938	81.4778	58.5938	81.4362	58.5938	81.4066	58.5938	81.37	58.5938	81.3476	58.5938	81.3175	58.5938	81.3014	58.5938	81.2788	58.5938	81.2679	58.5938	81.253	58.5938	81.2467	58.5938	81.2393	58.5938	81.2373
60.0586	82.5617	60.0586	82.5591	60.0586	82.5451	60.0586	82.5377	60.0586	82.5097	60.0586	82.4983	60.0586	82.4564	60.0586	82.4425	60.0586	82.387	60.0586	82.3722	60.0586	82.3036	60.0586	82.2901	60.0586	82.2093	60.0586	82.199	60.0586	82.1073	60.0586	82.1024	60.0586	82.0014	60.0586	82.0035	60.0586	81.8957	60.0586	81.9056	60.0586	81.7941	60.0586	81.8117	60.0586	81.7003	60.0586	81.7245	60.0586	81.6176	60.0586	81.6461	60.0586	81.5482	60.0586	81.5781	60.0586	81.4938	60.0586	81.5216	60.0586	81.4548	60.0586	81.4774	60.0586	81.4311	60.0586	81.4459	60.0586	81.4222	60.0586	81.4274
62.9883	82.9341	62.9883	82.9289	62.9883	82.92	62.9883	82.9047	62.9883	82.8868	62.9883	82.8625	62.9883	82.8358	62.9883	82.8039	62.9883	82.7685	62.9883	82.7312	62.9883	82.6875	62.9883	82.6471	62.9883	82.5956	62.9883	82.555	62.9883	82.4964	62.9883	82.4584	62.9883	82.3936	62.9883	82.3609	62.9883	82.2914	62.9883	82.2659	62.9883	82.1934	62.9883	82.1765	62.9883	82.1033	62.9883	82.095	62.9883	82.0239	62.9883	82.0232	62.9883	81.9573	62.9883	81.9623	62.9883	81.9047	62.9883	81.9129	62.9883	81.8666	62.9883	81.8751	62.9883	81.8427	62.9883	81.849	62.9883	81.8323	62.9883	81.8346
64.4531	83.0729	64.4531	83.0667	64.4531	83.0596	64.4531	83.0414	64.4531	83.0275	64.4531	82.9979	64.4531	82.9776	64.4531	82.938	64.4531	82.9117	64.4531	82.864	64.4531	82.8324	64.4531	82.7788	64.4531	82.7427	64.4531	82.686	64.4531	82.6461	64.4531	82.5892	64.4531	82.5465	64.4531	82.4924	64.4531	82.4478	64.4531	82.3993	64.4531	82.3536	64.4531	82.3129	64.4531	82.2671	64.4531	82.2355	64.4531	82.191	64.4531	82.1686	64.4531	82.1269	64.4531	82.1129	64.4531	82.0759	64.4531	82.0685	64.4531	82.0383	64.4531	82.0353	64.4531	82.0138	64.4531	82.013	64.4531	82.0018	64.4531	82.0018
67.3828	83.3838	67.3828	83.3718	67.3828	83.3768	67.3828	83.3414	67.3828	83.3512	67.3828	83.2935	67.3828	83.3081	67.3828	83.2301	67.3828	83.249	67.3828	83.1535	67.3828	83.1762	67.3828	83.0668	67.3828	83.0926	67.3828	82.9738	67.3828	83.0014	67.3828	82.878	67.3828	82.9063	67.3828	82.7834	67.3828	82.8111	67.3828	82.6932	67.3828	82.7193	67.3828	82.6104	67.3828	82.6343	67.3828	82.5373	67.3828	82.5585	67.3828	82.4753	67.3828	82.4937	67.3828	82.4253	67.3828	82.4408	67.3828	82.3877	67.3828	82.3999	67.3828	82.3621	67.3828	82.3707	67.3828	82.3481	67.3828	82.3525	67.3828	82.345
68.8477	83.5397	68.8477	83.5275	68.8477	83.5338	68.8477	83.4975	68.8477	83.51	68.8477	83.4509	68.8477	83.4697	68.8477	83.3897	68.8477	83.4144	68.8477	83.3165	68.8477	83.3468	68.8477	83.2346	68.8477	83.2698	68.8477	83.1475	68.8477	83.1867	68.8477	83.059	68.8477	83.1012	68.8477	82.973	68.8477	83.0166	68.8477	82.8925	68.8477	82.9363	68.8477	82.8203	68.8477	82.863	68.8477	82.7582	68.8477	82.7984	68.8477	82.7072	68.8477	82.7436	68.8477	82.6674	68.8477	82.6989	68.8477	82.6388	68.8477	82.6639	68.8477	82.6205	68.8477	82.6381	68.8477	82.6119	68.8477	82.621	68.8477	82.6122
71.7773	83.8816	71.7773	83.8739	71.7773	83.8693	71.7773	83.8465	71.7773	83.8381	71.7773	83.8005	71.7773	83.7897	71.7773	83.7379	71.7773	83.7266	71.7773	83.6617	71.7773	83.6523	71.7773	83.5757	71.7773	83.5705	71.7773	83.4842	71.7773	83.4853	71.7773	83.3918	71.7773	83.4007	71.7773	83.3028	71.7773	83.3204	71.7773	83.2213	71.7773	83.2474	71.7773	83.1502	71.7773	83.1836	71.7773	83.0917	71.7773	83.1301	71.7773	83.0463	71.7773	83.0866	71.7773	83.014	71.7773	83.0525	71.7773	82.9932	71.7773	83.0262	71.7773	82.9825	71.7773	83.0065	71.7773	82.9797	71.7773	82.9924	71.7773	82.9833
74.707	84.3295	74.707	84.3202	74.707	84.3174	74.707	84.2897	74.707	84.2847	74.707	84.2392	74.707	84.2333	74.707	84.1708	74.707	84.1659	74.707	84.0876	74.707	84.0859	74.707	83.9935	74.707	83.9974	74.707	83.893	74.707	83.9047	74.707	83.791	74.707	83.8123	74.707	83.6921	74.707	83.724	74.707	83.6009	74.707	83.6434	74.707	83.521	74.707	83.5725	74.707	83.455	74.707	83.5127	74.707	83.4042	74.707	83.464	74.707	83.3685	74.707	83.4255	74.707	83.3468	74.707	83.3956	74.707	83.3369	74.707	83.3726	74.707	83.3364	74.707	83.3552	74.707	83.343
77.6367	84.6793	77.6367	84.6736	77.6367	84.6623	77.6367	84.6453	77.6367	84.6233	77.6367	84.5955	77.6367	84.5643	77.6367	84.5265	77.6367	84.488	77.6367	84.4414	77.6367	84.3982	77.6367	84.3442	77.6367	84.2992	77.6367	84.2393	77.6367	84.1958	77.6367	84.1318	77.6367	84.0929	77.6367	84.0267	77.6367	83.9951	77.6367	83.9285	77.6367	83.9063	77.6367	83.841	77.6367	83.8292	77.6367	83.7672	77.6367	83.7652	77.6367	83.7084	77.6367	83.7144	77.6367	83.6647	77.6367	83.6758	77.6367	83.6348	77.6367	83.6475	77.6367	83.617	77.6367	83.6277	77.6367	83.6089	77.6367	83.615	77.6367	83.6087
79.1016	84.8286	79.1016	84.8239	79.1016	84.81	79.1016	84.796	79.1016	84.7689	79.1016	84.7459	79.1016	84.7072	79.1016	84.6759	79.1016	84.6277	79.1016	84.5891	79.1016	84.5341	79.1016	84.4892	79.1016	84.4306	79.1016	84.381	79.1016	84.3222	79.1016	84.2695	79.1016	84.2138	79.1016	84.1596	79.1016	84.1102	79.1016	84.0561	79.1016	84.0154	79.1016	83.9629	79.1016	83.9326	79.1016	83.883	79.1016	83.8633	79.1016	83.8181	79.1016	83.8079	79.1016	83.7685	79.1016	83.7655	79.1016	83.7333	79.1016	83.7347	79.1016	83.7108	79.1016	83.7137	79.1016	83.699	79.1016	83.7011	79.1016	83.6961
82.0312	85.0315	82.0312	85.0239	82.0312	85.0163	82.0312	84.9937	82.0312	84.9792	82.0312	84.9421	82.0312	84.9219	82.0312	84.8715	82.0312	84.8473	82.0312	84.7851	82.0312	84.7591	82.0312	84.6871	82.0312	84.6614	82.0312	84.5821	82.0312	84.5591	82.0312	84.4752	82.0312	84.4567	82.0312	84.3713	82.0312	84.359	82.0312	84.2749	82.0312	84.2697	82.0312	84.1896	82.0312	84.1918	82.0312	84.1179	82.0312	84.1268	82.0312	84.061	82.0312	84.075	82.0312	84.0188	82.0312	84.0353	82.0312	83.9901	82.0312	84.0063	82.0312	83.9731	82.0312	83.9859	82.0312	83.9656	82.0312	83.9727	82.0312	83.9659
84.9609	85.3775	84.9609	85.3618	84.9609	85.3694	84.9609	85.3226	84.9609	85.3379	84.9609	85.2616	84.9609	85.2848	84.9609	85.1812	84.9609	85.2126	84.9609	85.0851	84.9609	85.1249	84.9609	84.9777	84.9609	85.0259	84.9609	84.8642	84.9609	84.9204	84.9609	84.7502	84.9609	84.8134	84.9609	84.6416	84.9609	84.7101	84.9609	84.5434	84.9609	84.615	84.9609	84.4598	84.9609	84.5316	84.9609	84.3934	84.9609	84.4621	84.9609	84.3447	84.9609	84.4069	84.9609	84.3124	84.9609	84.3652	84.9609	84.2938	84.9609	84.335	84.9609	84.2856	84.9609	84.3138	84.9609	84.285	84.9609	84.2993	84.9609	84.2898
87.8906	85.4339	87.8906	85.4329	87.8906	85.4124	87.8906	85.4089	87.8906	85.37	87.8906	85.3629	87.8906	85.31	87.8906	85.2976	87.8906	85.2365	87.8906	85.2166	87.8906	85.1545	87.8906	85.1247	87.8906	85.0693	87.8906	85.0278	87.8906	84.986	87.8906	84.9317	87.8906	84.9089	87.8906	84.8422	87.8906	84.8414	87.8906	84.7644	87.8906	84.7855	87.8906	84.7017	87.8906	84.7417	87.8906	84.6558	87.8906	84.7091	87.8906	84.6264	87.8906	84.686	87.8906	84.6115	87.8906	84.67	87.8906	84.6079	87.8906	84.6585	87.8906	84.612	87.8906	84.6491	87.8906	84.6202	87.8906	84.6398	87.8906	84.63
90.8203	86.0922	90.8203	86.1059	90.8203	86.0457	90.8203	86.0872	90.8203	85.9674	90.8203	86.0378	90.8203	85.8598	90.8203	85.9609	90.8203	85.7275	90.8203	85.8608	90.8203	85.5765	90.8203	85.7427	90.8203	85.4144	90.8203	85.6127	90.8203	85.2502	90.8203	85.4774	90.8203	85.0932	90.8203	85.3432	90.8203	84.9521	90.8203	85.2161	90.8203	84.8341	90.8203	85.1007	90.8203	84.7435	90.8203	85.0005	90.8203	84.6813	90.8203	84.9169	90.8203	84.6452	90.8203	84.8494	90.8203	84.6308	90.8203	84.796	90.8203	84.6327	90.8203	84.7538	90.8203	84.6456	90.8203	84.7194	90.8203	84.6657	90.8203	84.6905
95.2148	86.0278	95.2148	86.0217	95.2148	86.0091	95.2148	85.9909	95.2148	85.9669	95.2148	85.9368	95.2148	85.9042	95.2148	85.8628	95.2148	85.825	95.2148	85.7735	95.2148	85.7344	95.2148	85.6746	95.2148	85.6379	95.2148	85.5729	95.2148	85.5416	95.2148	85.475	95.2148	85.451	95.2148	85.387	95.2148	85.371	95.2148	85.3138	95.2148	85.3051	95.2148	85.2581	95.2148	85.2552	95.2148	85.2203	95.2148	85.2214	95.2148	85.1988	95.2148	85.2022	95.2148	85.1905	95.2148	85.1948	95.2148	85.1911	95.2148	85.1953	95.2148	85.1962	95.2148	85.1994	95.2148	85.2016	95.2148	85.2033	95.2148	85.2043
98.1445	86.3783	98.1445	86.3823	98.1445	86.3451	98.1445	86.3574	98.1445	86.2842	98.1445	86.3051	98.1445	86.1985	98.1445	86.2285	98.1445	86.0925	98.1445	86.1319	98.1445	85.972	98.1445	86.021	98.1445	85.8438	98.1445	85.9019	98.1445	85.7155	98.1445	85.7816	98.1445	85.5944	98.1445	85.6666	98.1445	85.4873	98.1445	85.5628	98.1445	85.3991	98.1445	85.4746	98.1445	85.3323	98.1445	85.4045	98.1445	85.287	98.1445	85.3529	98.1445	85.2607	98.1445	85.3178	98.1445	85.2497	98.1445	85.296	98.1445	85.2491	98.1445	85.2831	98.1445	85.2542	98.1445	85.275	98.1445	85.2613	98.1445	85.2683
101.074	86.2662	101.074	86.2632	101.074	86.2464	101.074	86.2376	101.074	86.2049	101.074	86.1912	101.074	86.1436	101.074	86.1268	101.074	86.0658	101.074	86.0488	101.074	85.9758	101.074	85.9626	101.074	85.8785	101.074	85.8741	101.074	85.78	101.074	85.7896	101.074	85.6865	101.074	85.7143	101.074	85.6041	101.074	85.6523	101.074	85.5379	101.074	85.6058	101.074	85.491	101.074	85.5745	101.074	85.4638	101.074	85.5564	101.074	85.4545	101.074	85.5478	101.074	85.4593	101.074	85.5441	101.074	85.4735	101.074	85.5412	101.074	85.4919	101.074	85.5355	101.074	85.5102	101.074	85.5252
105.469	86.7022	105.469	86.6965	105.469	86.675	105.469	86.6569	105.469	86.6178	105.469	86.5848	105.469	86.5353	105.469	86.4838	105.469	86.4341	105.469	86.3596	105.469	86.3216	105.469	86.2199	105.469	86.2057	105.469	86.0741	105.469	86.0941	105.469	85.9327	105.469	85.9934	105.469	85.806	105.469	85.9083	105.469	85.7028	105.469	85.8419	105.469	85.629	105.469	85.7948	105.469	85.5866	105.469	85.7651	105.469	85.5731	105.469	85.7494	105.469	85.5828	105.469	85.7425	105.469	85.608	105.469	85.7388	105.469	85.6405	105.469	85.733	105.469	85.6732	105.469	85.7211	105.469	85.7011
108.398	86.9629	108.398	86.9633	108.398	86.9261	108.398	86.9272	108.398	86.8552	108.398	86.8567	108.398	86.7547	108.398	86.7555	108.398	86.6311	108.398	86.6296	108.398	86.493	108.398	86.4866	108.398	86.3501	108.398	86.3354	108.398	86.2128	108.398	86.1859	108.398	86.0907	108.398	86.0483	108.398	85.9915	108.398	85.9318	108.398	85.9194	108.398	85.8431	108.398	85.875	108.398	85.7857	108.398	85.855	108.398	85.759	108.398	85.8532	108.398	85.7584	108.398	85.8616	108.398	85.7766	108.398	85.8719	108.398	85.8047	108.398	85.8775	108.398	85.8344	108.398	85.8737	108.398	85.8588
112.793	87.176	112.793	87.181	112.793	87.1295	112.793	87.145	112.793	87.0431	112.793	87.0708	112.793	86.9207	112.793	86.9633	112.793	86.7688	112.793	86.8294	112.793	86.596	112.793	86.6779	112.793	86.4131	112.793	86.5191	112.793	86.2325	112.793	86.3639	112.793	86.0669	112.793	86.2227	112.793	85.9281	112.793	86.1044	112.793	85.8246	112.793	86.0146	112.793	85.7607	112.793	85.9549	112.793	85.735	112.793	85.9227	112.793	85.7414	112.793	85.9119	112.793	85.7704	112.793	85.9138	112.793	85.811	112.793	85.9192	112.793	85.8527	112.793	85.92	112.793	85.8875	112.793	85.9103
117.188	87.1738	117.188	87.1564	117.188	87.1486	117.188	87.097	117.188	87.0817	117.188	86.9985	117.188	86.9763	117.188	86.8656	117.188	86.8373	117.188	86.705	117.188	86.6719	117.188	86.5254	117.188	86.4893	117.188	86.3374	117.188	86.3006	117.188	86.1527	117.188	86.1178	117.188	85.9831	117.188	85.9532	117.188	85.8392	117.188	85.8172	117.188	85.729	117.188	85.7166	117.188	85.6558	117.188	85.6534	117.188	85.6181	117.188	85.6241	117.188	85.6097	117.188	85.6211	117.188	85.6209	117.188	85.634	117.188	85.6406	117.188	85.6517	117.188	85.6587	117.188	85.665	117.188	85.6679
120.117	87.3112	120.117	87.2962	120.117	87.284	120.117	87.2395	120.117	87.215	120.117	87.1435	120.117	87.1067	120.117	87.012	120.117	86.9629	120.117	86.8503	120.117	86.7895	120.117	86.6661	120.117	86.5948	120.117	86.4686	120.117	86.3891	120.117	86.2687	120.117	86.1843	120.117	86.0781	120.117	85.9934	120.117	85.9079	120.117	85.828	120.117	85.7672	120.117	85.6971	120.117	85.6615	120.117	85.6047	120.117	85.5916	120.117	85.5492	120.117	85.5533	120.117	85.5244	120.117	85.5387	120.117	85.5208	120.117	85.5378	120.117	85.528	120.117	85.5412	120.117	85.537	120.117	85.542
124.512	87.2035	124.512	87.1932	124.512	87.1767	124.512	87.1458	124.512	87.1143	124.512	87.0624	124.512	87.0188	124.512	86.9457	124.512	86.8938	124.512	86.7997	124.512	86.7442	124.512	86.6305	124.512	86.5757	124.512	86.4455	124.512	86.3956	124.512	86.2534	124.512	86.2119	124.512	86.064	124.512	86.0332	124.512	85.887	124.512	85.8683	124.512	85.7311	124.512	85.7245	124.512	85.6029	124.512	85.6071	124.512	85.5057	124.512	85.5181	124.512	85.439	124.512	85.4559	124.512	85.3988	124.512	85.4162	124.512	85.3788	124.512	85.3929	124.512	85.3722	124.512	85.38	124.512	85.3734
128.906	86.8794	128.906	86.8767	128.906	86.8464	128.906	86.8384	128.906	86.7795	128.906	86.767	128.906	86.6828	128.906	86.6671	128.906	86.5622	128.906	86.5449	128.906	86.4251	128.906	86.4083	128.906	86.2805	128.906	86.2662	128.906	86.1376	128.906	86.1277	128.906	86.0052	128.906	86.0012	128.906	85.8911	128.906	85.8936	128.906	85.8007	128.906	85.8096	128.906	85.7366	128.906	85.751	128.906	85.6984	128.906	85.7164	128.906	85.6826	128.906	85.702	128.906	85.6834	128.906	85.7017	128.906	85.6937	128.906	85.7087	128.906	85.7066	128.906	85.7164	128.906	85.7165	128.906	85.7199
133.301	86.8676	133.301	86.8738	133.301	86.8199	133.301	86.8386	133.301	86.7327	133.301	86.7644	133.301	86.6107	133.301	86.656	133.301	86.4605	133.301	86.5207	133.301	86.2911	133.301	86.368	133.301	86.1136	133.301	86.209	133.301	85.94	133.301	86.0555	133.301	85.7829	133.301	85.9186	133.301	85.6532	133.301	85.8072	133.301	85.5588	133.301	85.7263	133.301	85.503	133.301	85.6763	133.301	85.4839	133.301	85.6536	133.301	85.4952	133.301	85.6507	133.301	85.527	133.301	85.6588	133.301	85.5688	133.301	85.6686	133.301	85.6104	133.301	85.6725	133.301	85.644	133.301	85.6651
139.16	86.8173	139.16	86.8214	139.16	86.7675	139.16	86.7804	139.16	86.674	139.16	86.6972	139.16	86.541	139.16	86.5771	139.16	86.3751	139.16	86.4279	139.16	86.1857	139.16	86.2597	139.16	85.9841	139.16	86.0841	139.16	85.7835	139.16	85.9139	139.16	85.5974	139.16	85.7613	139.16	85.4387	139.16	85.6359	139.16	85.3174	139.16	85.5438	139.16	85.2391	139.16	85.4855	139.16	85.2041	139.16	85.4565	139.16	85.2074	139.16	85.4483	139.16	85.2393	139.16	85.4506	139.16	85.2882	139.16	85.4527	139.16	85.342	139.16	85.4464	139.16	85.3903	139.16	85.426
143.555	86.6352	143.555	86.62	143.555	86.602	143.555	86.5576	143.555	86.5215	143.555	86.4521	143.555	86.3979	143.555	86.3101	143.555	86.2382	143.555	86.1409	143.555	86.0518	143.555	85.9563	143.555	85.8513	143.555	85.7699	143.555	85.6509	143.555	85.5957	143.555	85.4654	143.555	85.4469	143.555	85.3083	143.555	85.3331	143.555	85.1896	143.555	85.259	143.555	85.1141	143.555	85.2228	143.555	85.0806	143.555	85.2171	143.555	85.0833	143.555	85.231	143.555	85.1121	143.555	85.2523	143.555	85.1556	143.555	85.2703	143.555	85.202	143.555	85.277	143.555	85.2416	143.555	85.2677
147.949	86.419	147.949	86.3926	147.949	86.3953	147.949	86.317	147.949	86.323	147.949	86.1959	147.949	86.2066	147.949	86.036	147.949	86.0533	147.949	85.8467	147.949	85.8732	147.949	85.6406	147.949	85.679	147.949	85.4326	147.949	85.4858	147.949	85.2389	147.949	85.3095	147.949	85.0754	147.949	85.1645	147.949	84.9549	147.949	85.0611	147.949	84.8845	147.949	85.0035	147.949	84.8643	147.949	84.9886	147.949	84.8868	147.949	85.0074	147.949	84.939	147.949	85.0465	147.949	85.0051	147.949	85.092	147.949	85.0698	147.949	85.1304	147.949	85.1204	147.949	85.1514	147.949	85.1487
153.809	86.3087	153.809	86.295	153.809	86.2683	153.809	86.228	153.809	86.1755	153.809	86.111	153.809	86.0348	153.809	85.9501	153.809	85.8533	153.809	85.7543	153.809	85.6414	153.809	85.5358	153.809	85.4128	153.809	85.3097	153.809	85.1843	153.809	85.0932	153.809	84.9742	153.809	84.9035	153.809	84.8005	153.809	84.7554	153.809	84.6764	153.809	84.6581	153.809	84.6082	153.809	84.6134	153.809	84.5925	153.809	84.615	153.809	84.6183	153.809	84.6506	153.809	84.6692	153.809	84.7039	153.809	84.7282	153.809	84.7586	153.809	84.7798	153.809	84.8004	153.809	84.8125	153.809	84.8199
159.668	86.1469	159.668	86.1385	159.668	86.1007	159.668	86.0759	159.668	86.0022	159.668	85.9617	159.668	85.8564	159.668	85.8015	159.668	85.6709	159.668	85.6042	159.668	85.4566	159.668	85.382	159.668	85.2278	159.668	85.1509	159.668	85.0015	159.668	84.9293	159.668	84.7961	159.668	84.7363	159.668	84.6294	159.668	84.5887	159.668	84.5152	159.668	84.4975	159.668	84.46	159.668	84.4648	159.668	84.4612	159.668	84.4834	159.668	84.5068	159.668	84.539	159.668	84.5791	159.668	84.6129	159.668	84.6576	159.668	84.6863	159.668	84.7239	159.668	84.7428	159.668	84.7641	159.668	84.7706
165.527	85.9684	165.527	85.9453	165.527	85.9333	165.527	85.865	165.527	85.8419	165.527	85.7321	165.527	85.6993	165.527	85.5544	165.527	85.5141	165.527	85.3433	165.527	85.2984	165.527	85.114	165.527	85.0679	165.527	84.8844	165.527	84.8413	165.527	84.6747	165.527	84.6387	165.527	84.5047	165.527	84.479	165.527	84.3904	165.527	84.3765	165.527	84.3406	165.527	84.3375	165.527	84.3537	165.527	84.3584	165.527	84.418	165.527	84.4266	165.527	84.5139	165.527	84.5231	165.527	84.6187	165.527	84.6265	165.527	84.7109	165.527	84.7163	165.527	84.7739	165.527	84.7766	165.527	84.7969
171.387	85.9265	171.387	85.8966	171.387	85.8892	171.387	85.7992	171.387	85.788	171.387	85.6374	171.387	85.6291	171.387	85.4182	171.387	85.4224	171.387	85.1534	171.387	85.1811	171.387	84.8602	171.387	84.9224	171.387	84.5611	171.387	84.6668	171.387	84.2829	171.387	84.4364	171.387	84.0532	171.387	84.2515	171.387	83.8951	171.387	84.1277	171.387	83.8217	171.387	84.0717	171.387	83.8322	171.387	84.0795	171.387	83.9115	171.387	84.1374	171.387	84.0343	171.387	84.2245	171.387	84.172	171.387	84.3178	171.387	84.2977	171.387	84.3954	171.387	84.3911	171.387	84.4398	171.387	84.4398
177.246	85.7376	177.246	85.7387	177.246	85.6679	177.246	85.6697	177.246	85.5331	177.246	85.5317	177.246	85.3394	177.246	85.3286	177.246	85.0959	177.246	85.0677	177.246	84.8156	177.246	84.7615	177.246	84.5159	177.246	84.4282	177.246	84.2185	177.246	84.0928	177.246	83.9492	177.246	83.7852	177.246	83.7336	177.246	83.5365	177.246	83.5918	177.246	83.3716	177.246	83.5326	177.246	83.3024	177.246	83.5498	177.246	83.3239	177.246	83.6234	177.246	83.4159	177.246	83.7251	177.246	83.5488	177.246	83.8249	177.246	83.6905	177.246	83.8969	177.246	83.8127	177.246	83.9229	177.246	83.8942
183.105	85.273	183.105	85.2896	183.105	85.193	183.105	85.2428	183.105	85.0524	183.105	85.1352	183.105	84.857	183.105	84.9715	183.105	84.616	183.105	84.759	183.105	84.3426	183.105	84.5084	183.105	84.0531	183.105	84.234	183.105	83.7671	183.105	83.9548	183.105	83.5055	183.105	83.6935	183.105	83.2887	183.105	83.4737	183.105	83.1338	183.105	83.3149	183.105	83.0512	183.105	83.2274	183.105	83.041	183.105	83.2089	183.105	83.0923	183.105	83.2452	183.105	83.1846	183.105	83.3139	183.105	83.2916	183.105	83.3897	183.105	83.3875	183.105	83.4486	183.105	83.4517	183.105	83.4724
188.965	85.1544	188.965	85.1615	188.965	85.0747	188.965	85.0988	188.965	84.9226	188.965	84.9718	188.965	84.7022	188.965	84.7888	188.965	84.4227	188.965	84.5605	188.965	84.0997	188.965	84.3008	188.965	83.7559	188.965	84.0273	188.965	83.4209	188.965	83.7612	188.965	83.1279	188.965	83.5263	188.965	82.9076	188.965	83.3458	188.965	82.7803	188.965	83.2365	188.965	82.7506	188.965	83.2022	188.965	82.8065	188.965	83.2323	188.965	82.9247	188.965	83.3046	188.965	83.0761	188.965	83.3917	188.965	83.2321	188.965	83.4682	188.965	83.368	188.965	83.5138	188.965	83.4657	188.965	83.515
196.289	85.1973	196.289	85.1672	196.289	85.1459	196.289	85.0582	196.289	85.0135	196.289	84.8766	196.289	84.8035	196.289	84.6322	196.289	84.5231	196.289	84.3391	196.289	84.1838	196.289	84.0154	196.289	83.803	196.289	83.6833	196.289	83.4054	196.289	83.3682	196.289	83.0239	196.289	83.0965	196.289	82.6967	196.289	82.8924	196.289	82.4606	196.289	82.7721	196.289	82.3401	196.289	82.7389	196.289	82.3379	196.289	82.7804	196.289	82.4339	196.289	82.8708	196.289	82.5916	196.289	82.9778	196.289	82.7701	196.289	83.07	196.289	82.9332	196.289	83.1223	196.289	83.0546	196.289	83.1191
203.613	85.0502	203.613	85.0166	203.613	84.9952	203.613	84.895	203.613	84.8549	203.613	84.6894	203.613	84.6354	203.613	84.4082	203.613	84.3462	203.613	84.0643	203.613	84.0002	203.613	83.6762	203.613	83.6154	203.613	83.2682	203.613	83.2146	203.613	82.8708	203.613	82.8269	203.613	82.5191	203.613	82.4852	203.613	82.2479	203.613	82.2218	203.613	82.0834	203.613	82.0601	203.613	82.0345	203.613	82.0075	203.613	82.0876	203.613	82.0514	203.613	82.2101	203.613	82.1638	203.613	82.3592	203.613	82.3086	203.613	82.4935	203.613	82.4493	203.613	82.5805	203.613	82.5547	203.613	82.602
210.938	84.734	210.938	84.6895	210.938	84.7041	210.938	84.5704	210.938	84.6015	210.938	84.3783	210.938	84.4295	210.938	84.1175	210.938	84.1937	210.938	83.7965	210.938	83.9029	210.938	83.4286	210.938	83.5707	210.938	83.0337	210.938	83.2164	210.938	82.6384	210.938	82.8656	210.938	82.2747	210.938	82.5475	210.938	81.9759	210.938	82.2905	210.938	81.7685	210.938	82.1142	210.938	81.6647	210.938	82.0238	210.938	81.6576	210.938	82.0073	210.938	81.7241	210.938	82.0399	210.938	81.8328	210.938	82.0917	210.938	81.9517	210.938	82.1351	210.938	82.0545	210.938	82.1494	210.938	82.1231
218.262	84.3124	218.262	84.3074	218.262	84.2357	218.262	84.2194	218.262	84.0822	218.262	84.0509	218.262	83.8603	218.262	83.8086	218.262	83.5822	218.262	83.5036	218.262	83.2645	218.262	83.1525	218.262	82.9294	218.262	82.7771	218.262	82.6044	218.262	82.406	218.262	82.3204	218.262	82.0729	218.262	82.1072	218.262	81.8142	218.262	81.986	218.262	81.6605	218.262	81.9624	218.262	81.6267	218.262	82.024	218.262	81.7043	218.262	82.1432	218.262	81.863	218.262	82.2849	218.262	82.0604	218.262	82.4153	218.262	82.2543	218.262	82.507	218.262	82.4112	218.262	82.5418	218.262	82.5101
225.586	84.4727	225.586	84.492	225.586	84.354	225.586	84.4124	225.586	84.1379	225.586	84.2387	225.586	83.8304	225.586	83.9803	225.586	83.4412	225.586	83.6524	225.586	82.987	225.586	83.2771	225.586	82.4945	225.586	82.8836	225.586	82.0039	225.586	82.5068	225.586	81.5702	225.586	82.1843	225.586	81.2549	225.586	81.951	225.586	81.1076	225.586	81.8321	225.586	81.1437	225.586	81.835	225.586	81.3358	225.586	81.9448	225.586	81.6264	225.586	82.127	225.586	81.9504	225.586	82.3353	225.586	82.252	225.586	82.5233	225.586	82.4914	225.586	82.6526	225.586	82.6436	225.586	82.6971
232.91	84.6749	232.91	84.6333	232.91	84.6155	232.91	84.4913	232.91	84.4563	232.91	84.2532	232.91	84.2002	232.91	83.9268	232.91	83.8518	232.91	83.5261	232.91	83.418	232.91	83.0718	232.91	82.9107	232.91	82.5939	232.91	82.3518	232.91	82.1308	232.91	81.7799	232.91	81.7275	232.91	81.2552	232.91	81.4275	232.91	80.8547	232.91	81.2632	232.91	80.6494	232.91	81.245	232.91	80.6688	232.91	81.3566	232.91	80.8807	232.91	81.5581	232.91	81.2078	232.91	81.7944	232.91	81.562	232.91	82.0076	232.91	81.8708	232.91	82.1474	232.91	82.0849	232.91	82.1786
241.699	84.298	241.699	84.2743	241.699	84.2319	241.699	84.1577	241.699	84.0803	241.699	83.947	241.699	83.8486	241.699	83.6441	241.699	83.5434	241.699	83.2556	241.699	83.1736	241.699	82.7944	241.699	82.7514	241.699	82.2831	241.699	82.2936	241.699	81.7559	241.699	81.8239	241.699	81.2594	241.699	81.3758	241.699	80.8491	241.699	80.9932	241.699	80.5779	241.699	80.7259	241.699	80.4774	241.699	80.6134	241.699	80.5421	241.699	80.6629	241.699	80.7285	241.699	80.838	241.699	80.9723	241.699	81.0702	241.699	81.2082	241.699	81.2855	241.699	81.383	241.699	81.4265	241.699	81.4612
250.488	84.3576	250.488	84.357	250.488	84.2502	250.488	84.2472	250.488	84.0376	250.488	84.0292	250.488	83.7256	250.488	83.7054	250.488	83.3243	250.488	83.2818	250.488	82.8502	250.488	82.7713	250.488	82.3285	250.488	82.1996	250.488	81.7948	250.488	81.6106	250.488	81.293	250.488	81.0656	250.488	80.8707	250.488	80.6291	250.488	80.5695	250.488	80.3467	250.488	80.4134	250.488	80.2287	250.488	80.3995	250.488	80.2545	250.488	80.4982	250.488	80.3862	250.488	80.6619	250.488	80.5786	250.488	80.8387	250.488	80.7827	250.488	80.9828	250.488	80.9518	250.488	81.0597	250.488	81.05
259.277	84.2715	259.277	84.2624	259.277	84.1822	259.277	84.156	259.277	83.994	259.277	83.9543	259.277	83.7077	259.277	83.6599	259.277	83.3267	259.277	83.2769	259.277	82.8602	259.277	82.8106	259.277	82.3269	259.277	82.2709	259.277	81.7598	259.277	81.6789	259.277	81.207	259.277	81.078	259.277	80.7267	259.277	80.5414	259.277	80.3746	259.277	80.1588	259.277	80.1866	259.277	79.9939	259.277	80.1661	259.277	80.0415	259.277	80.2824	259.277	80.2325	259.277	80.4808	259.277	80.4795	259.277	80.6976	259.277	80.7133	259.277	80.8764	259.277	80.8896	259.277	80.9776	259.277	80.9823
268.066	83.9262	268.066	83.8993	268.066	83.8482	268.066	83.772	268.066	83.6627	268.066	83.5503	268.066	83.37	268.066	83.2399	268.066	82.9727	268.066	82.8475	268.066	82.4769	268.066	82.3825	268.066	81.8944	268.066	81.8612	268.066	81.2499	268.066	81.3105	268.066	80.5897	268.066	80.7722	268.066	79.9861	268.066	80.3032	268.066	79.5261	268.066	79.968	268.066	79.2777	268.066	79.8143	268.066	79.2546	268.066	79.844	268.066	79.412	268.066	80.005	268.066	79.6749	268.066	80.2161	268.066	79.9686	268.066	80.4022	268.066	80.233	268.066	80.5127	268.066	80.426	268.066	80.5225
276.855	83.8553	276.855	83.7922	276.855	83.8291	276.855	83.6384	276.855	83.714	276.855	83.3942	276.855	83.507	276.855	83.0621	276.855	83.2004	276.855	82.6449	276.855	82.7839	276.855	82.1462	276.855	82.2484	276.855	81.5758	276.855	81.5936	276.855	80.9579	276.855	80.8427	276.855	80.3395	276.855	80.062	276.855	79.7924	276.855	79.3704	276.855	79.4008	276.855	78.9068	276.855	79.2305	276.855	78.7465	276.855	79.2883	276.855	78.8484	276.855	79.506	276.855	79.1021	276.855	79.7732	276.855	79.406	276.855	79.9891	276.855	79.6949	276.855	80.0936	276.855	79.927	276.855	80.0689
287.109	83.4196	287.109	83.3889	287.109	83.3623	287.109	83.2714	287.109	83.2155	287.109	83.0665	287.109	82.9823	287.109	82.772	287.109	82.6733	287.109	82.388	287.109	82.3076	287.109	81.9205	287.109	81.9087	287.109	81.3838	287.109	81.4957	287.109	80.8028	287.109	81.0751	287.109	80.2163	287.109	80.6448	287.109	79.6806	287.109	80.2131	287.109	79.2665	287.109	79.8229	287.109	79.041	287.109	79.5522	287.109	79.0377	287.109	79.4736	287.109	79.2348	287.109	79.5939	287.109	79.5571	287.109	79.8397	287.109	79.9025	287.109	80.1	287.109	80.1751	287.109	80.2767	287.109	80.3082
297.363	83.836	297.363	83.857	297.363	83.6964	297.363	83.7655	297.363	83.4358	297.363	83.5726	297.363	83.0549	297.363	83.2922	297.363	82.5585	297.363	82.9366	297.363	81.9617	297.363	82.5102	297.363	81.299	297.363	82.0095	297.363	80.6277	297.363	81.4316	297.363	80.0176	297.363	80.7932	297.363	79.5285	297.363	80.1491	297.363	79.1968	297.363	79.5967	297.363	79.039	297.363	79.2448	297.363	79.0549	297.363	79.1553	297.363	79.219	297.363	79.3038	297.363	79.4785	297.363	79.5963	297.363	79.7694	297.363	79.9148	297.363	80.0313	297.363	80.157	297.363	80.2102	297.363	80.2603
307.617	83.4278	307.617	83.3411	307.617	83.4169	307.617	83.1534	307.617	83.3128	307.617	82.8633	307.617	83.1197	307.617	82.4746	307.617	82.8393	307.617	82.0016	307.617	82.4689	307.617	81.4734	307.617	82.0037	307.617	80.9331	307.617	81.4459	307.617	80.4239	307.617	80.8184	307.617	79.9696	307.617	80.1738	307.617	79.5679	307.617	79.5901	307.617	79.2073	307.617	79.15	307.617	78.8957	307.617	78.9108	307.617	78.6705	307.617	78.8756	307.617	78.5761	307.617	78.9846	307.617	78.6258	307.617	79.1401	307.617	78.7851	307.617	79.2503	307.617	78.9878	307.617	79.2615	307.617	79.1647
319.336	83.0393	319.336	83.0402	319.336	82.8675	319.336	82.8746	319.336	82.5276	319.336	82.5527	319.336	82.0346	319.336	82.0914	319.336	81.4234	319.336	81.5152	319.336	80.7572	319.336	80.8574	319.336	80.1298	319.336	80.1643	319.336	79.6488	319.336	79.507	319.336	79.3926	319.336	78.9892	319.336	79.3668	319.336	78.7167	319.336	79.5069	319.336	78.721	319.336	79.7222	319.336	78.9213	319.336	79.9369	319.336	79.1892	319.336	80.1041	319.336	79.4346	319.336	80.203	319.336	79.6298	319.336	80.2326	319.336	79.7855	319.336	80.2047	319.336	79.9189	319.336	80.1349	319.336	80.0365
329.59	84.2399	329.59	84.2129	329.59	84.1298	329.59	84.0548	329.59	83.8672	329.59	83.761	329.59	83.4329	329.59	83.3214	329.59	82.8111	329.59	82.7296	329.59	81.997	329.59	81.9936	329.59	81.0063	329.59	81.1502	329.59	79.8954	329.59	80.2841	329.59	78.8005	329.59	79.5471	329.59	77.9696	329.59	79.138	329.59	77.6772	329.59	79.189	329.59	77.9871	329.59	79.6402	329.59	78.6867	329.59	80.2852	329.59	79.5071	329.59	80.923	329.59	80.279	329.59	81.4349	329.59	80.9262	329.59	81.7745	329.59	81.4208	329.59	81.936	329.59	81.7549	329.59	81.9273
341.309	84.4664	341.309	84.4039	341.309	84.3682	341.309	84.1827	341.309	84.1074	341.309	83.8053	341.309	83.6809	341.309	83.2754	341.309	83.083	341.309	82.5987	341.309	82.3062	341.309	81.784	341.309	81.3505	341.309	80.8472	341.309	80.2467	341.309	79.8225	341.309	79.0998	341.309	78.7907	341.309	78.1366	341.309	77.9232	341.309	77.6601	341.309	77.4815	341.309	77.8149	341.309	77.6503	341.309	78.4293	341.309	78.3239	341.309	79.2087	341.309	79.1997	341.309	79.9477	341.309	80.023	341.309	80.5515	341.309	80.6642	341.309	80.9833	341.309	81.0788	341.309	81.2253	341.309	81.2622
353.027	84.3557	353.027	84.3549	353.027	84.2514	353.027	84.2401	353.027	84.0383	353.027	83.9901	353.027	83.7024	353.027	83.5765	353.027	83.2213	353.027	82.9734	353.027	82.5657	353.027	82.1682	353.027	81.6993	353.027	81.1719	353.027	80.584	353.027	80.0304	353.027	79.2008	353.027	78.8503	353.027	77.6198	353.027	77.8323	353.027	76.1733	353.027	77.2546	353.027	75.5635	353.027	77.3038	353.027	76.1847	353.027	77.892	353.027	77.4835	353.027	78.7474	353.027	78.8014	353.027	79.6205	353.027	79.8594	353.027	80.3528	353.027	80.5911	353.027	80.8546	353.027	80.9937	353.027	81.0768
366.211	84.5727	366.211	84.493	366.211	84.5169	366.211	84.2724	366.211	84.3353	366.211	83.9182	366.211	84.0317	366.211	83.4465	366.211	83.6022	366.211	82.8642	366.211	83.0386	366.211	82.1543	366.211	82.3298	366.211	81.2809	366.211	81.4573	366.211	80.2215	366.211	80.3951	366.211	79.0142	366.211	79.1357	366.211	77.8188	366.211	77.7758	366.211	76.9677	366.211	76.6634	366.211	76.8358	366.211	76.3431	366.211	77.4396	366.211	76.9435	366.211	78.3849	366.211	77.9805	366.211	79.2881	366.211	78.9902	366.211	79.9643	366.211	79.7704	366.211	80.3576	366.211	80.2629	366.211	80.4581
379.395	85.0407	379.395	85.0355	379.395	84.9403	379.395	84.9122	379.395	84.7396	379.395	84.6503	379.395	84.4354	379.395	84.2232	379.395	84.0121	379.395	83.6016	379.395	83.4415	379.395	82.7561	379.395	82.6901	379.395	81.6585	379.395	81.7346	379.395	80.2914	379.395	80.5818	379.395	78.6871	379.395	79.2951	379.395	77.0279	379.395	78.0372	379.395	75.7783	379.395	77.1066	379.395	75.4972	379.395	76.8278	379.395	76.1758	379.395	77.2446	379.395	77.2896	379.395	78.0582	379.395	78.4129	379.395	78.9269	379.395	79.3313	379.395	79.6371	379.395	79.9388	379.395	80.0779	379.395	80.1886
392.578	84.3374	392.578	84.3502	392.578	84.2371	392.578	84.2795	392.578	84.0387	392.578	84.1203	392.578	83.7283	392.578	83.8597	392.578	83.2934	392.578	83.4787	392.578	82.7236	392.578	82.9511	392.578	82.0102	392.578	82.2407	392.578	81.1447	392.578	81.3	392.578	80.1223	392.578	80.0849	392.578	78.9591	392.578	78.6091	392.578	77.7475	392.578	77.0749	392.578	76.7571	392.578	76.0306	392.578	76.4256	392.578	76.0638	392.578	76.9421	392.578	77.0007	392.578	77.9547	392.578	78.1951	392.578	78.9937	392.578	79.2327	392.578	79.7906	392.578	79.9507	392.578	80.2358	392.578	80.2911
405.762	84.8155	405.762	84.7558	405.762	84.721	405.762	84.5501	405.762	84.4756	405.762	84.218	405.762	84.0866	405.762	83.7842	405.762	83.5567	405.762	83.2651	405.762	82.8762	405.762	82.6557	405.762	82.0241	405.762	81.9224	405.762	80.9793	405.762	81.0083	405.762	79.7455	405.762	79.8578	405.762	78.3973	405.762	78.4777	405.762	77.1614	405.762	77.0687	405.762	76.4655	405.762	76.1656	405.762	76.6663	405.762	76.2826	405.762	77.5796	405.762	77.1825	405.762	78.6902	405.762	78.2707	405.762	79.6295	405.762	79.2237	405.762	80.2416	405.762	79.9393	405.762	80.486	405.762	80.3737
420.41	84.6987	420.41	84.6426	420.41	84.6556	420.41	84.4886	420.41	84.5118	420.41	84.2343	420.41	84.2675	420.41	83.8714	420.41	83.9211	420.41	83.3831	420.41	83.4577	420.41	82.7434	420.41	82.8359	420.41	81.9227	420.41	81.9831	420.41	80.8982	420.41	80.8064	420.41	79.6617	420.41	79.2146	420.41	78.2406	420.41	77.1609	420.41	76.7912	420.41	74.7964	420.41	75.7899	420.41	72.992	420.41	75.8638	420.41	73.2397	420.41	76.8889	420.41	75.0309	420.41	78.1228	420.41	76.8928	420.41	79.0792	420.41	78.3093	420.41	79.5965	420.41	79.2197	420.41	79.6444
435.059	84.3839	435.059	84.3586	435.059	84.3475	435.059	84.2612	435.059	84.2482	435.059	84.0706	435.059	84.0662	435.059	83.7504	435.059	83.7645	435.059	83.2491	435.059	83.3014	435.059	82.5127	435.059	82.6469	435.059	81.499	435.059	81.7915	435.059	80.1833	435.059	80.7444	435.059	78.5657	435.059	79.5272	435.059	76.718	435.059	78.1934	435.059	74.9336	435.059	76.9207	435.059	73.9213	435.059	76.147	435.059	74.3376	435.059	76.336	435.059	75.7725	435.059	77.3104	435.059	77.3734	435.059	78.4546	435.059	78.6776	435.059	79.3558	435.059	79.536	435.059	79.8601	435.059	79.9259
451.172	84.8061	451.172	84.7777	451.172	84.7297	451.172	84.6405	451.172	84.5566	451.172	84.4078	451.172	84.2856	451.172	84.1137	451.172	83.9031	451.172	83.7881	451.172	83.3878	451.172	83.4147	451.172	82.717	451.172	82.9072	451.172	81.8641	451.172	82.1323	451.172	80.786	451.172	80.9551	451.172	79.4267	451.172	79.2756	451.172	77.7811	451.172	77.0768	451.172	76.0889	451.172	74.7137	451.172	75.0817	451.172	73.7015	451.172	75.4293	451.172	75.1303	451.172	76.698	451.172	77.2789	451.172	78.1219	451.172	78.9605	451.172	79.3076	451.172	79.9669	451.172	80.0761	451.172	80.3202
465.82	84.9946	465.82	84.9583	465.82	84.9079	465.82	84.7944	465.82	84.7086	465.82	84.5061	465.82	84.4062	465.82	84.1036	465.82	83.9988	465.82	83.6	465.82	83.4697	465.82	82.9999	465.82	82.7984	465.82	82.2825	465.82	81.9751	465.82	81.398	465.82	80.9932	465.82	80.2926	465.82	79.8119	465.82	78.9543	465.82	78.3344	465.82	77.4691	465.82	76.518	465.82	76.0982	465.82	74.805	465.82	75.312	465.82	74.4937	465.82	75.4788	465.82	75.8046	465.82	76.3761	465.82	77.3462	465.82	77.4507	465.82	78.3951	465.82	78.3199	465.82	78.8639	465.82	78.8163
483.398	84.2089	483.398	84.2073	483.398	84.1296	483.398	84.1386	483.398	83.967	483.398	84.015	483.398	83.7323	483.398	83.8312	483.398	83.4401	483.398	83.5585	483.398	83.086	483.398	83.1507	483.398	82.6238	483.398	82.5511	483.398	81.9605	483.398	81.6874	483.398	80.98	483.398	80.4576	483.398	79.5812	483.398	78.7294	483.398	77.7234	483.398	76.4237	483.398	75.5913	483.398	73.9896	483.398	74.1045	483.398	73.2857	483.398	74.5611	483.398	74.8499	483.398	76.24	483.398	76.7046	483.398	77.7975	483.398	78.0575	483.398	78.816	483.398	78.8996	483.398	79.2944	483.398	79.3065
499.512	84.5248	499.512	84.5086	499.512	84.4476	499.512	84.4062	499.512	84.2646	499.512	84.2031	499.512	83.9757	499.512	83.8667	499.512	83.5914	499.512	83.3722	499.512	83.1131	499.512	82.7304	499.512	82.5151	499.512	81.9866	499.512	81.7496	499.512	81.1741	499.512	80.7645	499.512	80.2418	499.512	79.5106	499.512	79.0231	499.512	77.9297	499.512	77.303	499.512	75.9728	499.512	75.0837	499.512	73.9032	499.512	73.4463	499.512	73.1529	499.512	74.2943	499.512	74.7861	499.512	76.4669	499.512	77.0712	499.512	78.3212	499.512	78.8121	499.512	79.5084	499.512	79.7864	499.512	80.0046
517.09	84.9108	517.09	84.7931	517.09	84.9008	517.09	84.5553	517.09	84.7771	517.09	84.2386	517.09	84.5626	517.09	83.9106	517.09	84.2802	517.09	83.6172	517.09	83.9384	517.09	83.3148	517.09	83.5116	517.09	82.8604	517.09	82.9235	517.09	82.0796	517.09	82.0491	517.09	80.8483	517.09	80.7379	517.09	79.1207	517.09	78.8449	517.09	76.875	517.09	76.2935	517.09	74.0935	517.09	73.4076	517.09	71.6804	517.09	71.9538	517.09	72.821	517.09	73.472	517.09	76.0144	517.09	75.9991	517.09	78.4785	517.09	78.1434	517.09	79.832	517.09	79.5678	517.09	80.1604
536.133	84.8702	536.133	84.793	536.133	84.757	536.133	84.5499	536.133	84.467	536.133	84.195	536.133	84.0412	536.133	83.7882	536.133	83.5213	536.133	83.3679	536.133	82.9326	536.133	82.9313	536.133	82.2844	536.133	82.4335	536.133	81.5674	536.133	81.787	536.133	80.7338	536.133	80.8526	536.133	79.6836	536.133	79.4374	536.133	78.291	536.133	77.3478	536.133	76.5003	536.133	74.6943	536.133	74.6543	536.133	72.9573	536.133	74.0925	536.133	73.8829	536.133	75.5499	536.133	75.7805	536.133	77.4663	536.133	77.3655	536.133	78.7677	536.133	78.4812	536.133	79.2846	536.133	79.14
555.176	84.9445	555.176	84.9533	555.176	84.8445	555.176	84.8476	555.176	84.661	555.176	84.6037	555.176	84.3847	555.176	84.2122	555.176	84.0048	555.176	83.6868	555.176	83.5209	555.176	83.0671	555.176	82.9359	555.176	82.4001	555.176	82.2372	555.176	81.6973	555.176	81.3674	555.176	80.8884	555.176	80.1836	555.176	79.8055	555.176	78.4266	555.176	78.2041	555.176	75.7291	555.176	75.8018	555.176	71.9259	555.176	72.4298	555.176	69.7312	555.176	69.7212	555.176	72.3486	555.176	71.892	555.176	75.1716	555.176	75.2227	555.176	77.0414	555.176	77.3414	555.176	78.0725	555.176	78.2274
574.219	85.4825	574.219	85.4342	574.219	85.3566	574.219	85.2272	574.219	85.0651	574.219	84.8852	574.219	84.67	574.219	84.4502	574.219	84.2644	574.219	83.9746	574.219	83.8866	574.219	83.4696	574.219	83.4696	574.219	82.8707	574.219	82.9022	574.219	82.0755	574.219	82.1191	574.219	80.9985	574.219	81.0979	574.219	79.5469	574.219	79.7556	574.219	77.5028	574.219	77.8459	574.219	74.5094	574.219	74.9605	574.219	71.3608	574.219	71.2639	574.219	72.5545	574.219	71.4493	574.219	75.656	574.219	75.1666	574.219	77.754	574.219	77.8071	574.219	78.952	574.219	79.1341	574.219	79.4382
594.727	85.1172	594.727	85.0761	594.727	84.9324	594.727	84.8397	594.727	84.5432	594.727	84.474	594.727	84.026	594.727	84.0529	594.727	83.4993	594.727	83.6415	594.727	83.0741	594.727	83.2967	594.727	82.7672	594.727	83.0337	594.727	82.4645	594.727	82.7605	594.727	81.9877	594.727	82.2762	594.727	81.1539	594.727	81.3571	594.727	79.7625	594.727	79.8291	594.727	77.5872	594.727	77.5912	594.727	74.5289	594.727	74.7866	594.727	71.6896	594.727	72.9989	594.727	72.4688	594.727	74.6953	594.727	75.2754	594.727	77.3805	594.727	77.5171	594.727	79.0375	594.727	78.9167	594.727	79.4799
615.234	85.2749	615.234	85.2142	615.234	85.1446	615.234	84.9624	615.234	84.8331	615.234	84.5359	615.234	84.3469	615.234	83.9656	615.234	83.7084	615.234	83.2953	615.234	82.9988	615.234	82.5763	615.234	82.313	615.234	81.8498	615.234	81.6311	615.234	81.1106	615.234	80.8172	615.234	80.2688	615.234	79.772	615.234	79.1721	615.234	78.4787	615.234	77.6644	615.234	76.836	615.234	75.5385	615.234	74.5784	615.234	72.3478	615.234	71.9334	615.234	68.0872	615.234	71.5919	615.234	68.9828	615.234	74.2215	615.234	73.2727	615.234	76.5902	615.234	76.0903	615.234	77.7221	615.234	77.5406
637.207	85.531	637.207	85.4046	637.207	85.4116	637.207	85.0561	637.207	85.0607	637.207	84.5384	637.207	84.5364	637.207	83.9458	637.207	83.901	637.207	83.4094	637.207	83.2071	637.207	83.0247	637.207	82.5811	637.207	82.7578	637.207	82.2055	637.207	82.4613	637.207	82.0441	637.207	81.9758	637.207	81.7265	637.207	81.1277	637.207	80.7842	637.207	79.6089	637.207	78.8085	637.207	76.9104	637.207	75.4363	637.207	72.7064	637.207	70.9891	637.207	71.4071	637.207	70.7611	637.207	75.2576	637.207	74.3782	637.207	78.0728	637.207	77.1973	637.207	79.4866	637.207	78.9776	637.207	79.7563
659.18	85.6758	659.18	85.5517	659.18	85.4964	659.18	85.1631	659.18	85.0263	659.18	84.6053	659.18	84.3384	659.18	83.9693	659.18	83.5788	659.18	83.2551	659.18	82.8708	659.18	82.4192	659.18	82.1849	659.18	81.5187	659.18	81.4292	659.18	80.7293	659.18	80.615	659.18	80.1322	659.18	79.7565	659.18	79.5056	659.18	78.7187	659.18	78.4256	659.18	77.2423	659.18	76.4558	659.18	74.8297	659.18	73.434	659.18	70.6764	659.18	71.3808	659.18	69.2533	659.18	73.2697	659.18	73.981	659.18	75.7338	659.18	76.7957	659.18	77.292	659.18	77.9033	659.18	77.994
682.617	84.7348	682.617	84.739	682.617	84.4493	682.617	84.4672	682.617	83.8654	682.617	83.8731	682.617	83.0469	682.617	82.9852	682.617	82.1592	682.617	82.029	682.617	81.4281	682.617	81.292	682.617	80.9831	682.617	80.8201	682.617	80.6787	682.617	80.3967	682.617	80.2573	682.617	79.7925	682.617	79.6582	682.617	78.9069	682.617	78.8788	682.617	77.7087	682.617	77.5866	682.617	76.0575	682.617	75.2363	682.617	73.5694	682.617	71.3151	682.617	70.1595	682.617	67.9121	682.617	70.7144	682.617	72.1002	682.617	74.887	682.617	76.0507	682.617	77.4954	682.617	78.0228	682.617	78.4601
707.52	83.559	707.52	83.4346	707.52	83.4401	707.52	83.0037	707.52	83.0688	707.52	82.2712	707.52	82.3735	707.52	81.3554	707.52	81.387	707.52	80.4039	707.52	80.3246	707.52	79.59	707.52	79.483	707.52	79.1596	707.52	79.0895	707.52	79.1716	707.52	79.1024	707.52	79.2265	707.52	79.0893	707.52	78.7892	707.52	78.4802	707.52	77.4609	707.52	76.8546	707.52	74.9096	707.52	73.8383	707.52	70.5303	707.52	68.6744	707.52	63.6515	707.52	64.6162	707.52	69.3358	707.52	70.1641	707.52	74.8418	707.52	74.5033	707.52	77.4178	707.52	77.0921	707.52	78.0767
732.422	83.3074	732.422	83.0326	732.422	83.2884	732.422	82.5258	732.422	82.9399	732.422	81.8474	732.422	82.2912	732.422	81.0178	732.422	81.4517	732.422	80.028	732.422	80.5721	732.422	78.9735	732.422	79.7705	732.422	78.0729	732.422	79.0636	732.422	77.4408	732.422	78.3803	732.422	76.9876	732.422	77.6554	732.422	76.4834	732.422	76.7998	732.422	75.527	732.422	75.5135	732.422	73.6454	732.422	73.2095	732.422	70.1187	732.422	68.9157	732.422	63.8917	732.422	65.8855	732.422	66.5815	732.422	71.1603	732.422	71.7006	732.422	74.2669	732.422	74.1119	732.422	75.2772	732.422	75.1324
757.324	83.4124	757.324	83.1757	757.324	83.3139	757.324	82.6614	757.324	82.89	757.324	81.9293	757.324	82.1669	757.324	81.0416	757.324	81.1973	757.324	80.1528	757.324	80.238	757.324	79.374	757.324	79.6465	757.324	78.7409	757.324	79.3418	757.324	78.4186	757.324	78.9824	757.324	78.2298	757.324	78.5593	757.324	77.7024	757.324	78.1099	757.324	76.6256	757.324	77.1798	757.324	74.7172	757.324	74.9036	757.324	71.587	757.324	70.2589	757.324	68.4464	757.324	65.0216	757.324	69.6032	757.324	70.3864	757.324	72.5511	757.324	74.3397	757.324	74.6046	757.324	75.81	757.324	75.7093
785.156	86.6386	785.156	86.5507	785.156	86.4215	785.156	86.3578	785.156	85.7995	785.156	86.1393	785.156	84.9218	785.156	85.7421	785.156	84.0244	785.156	85.0705	785.156	83.054	785.156	84.4424	785.156	81.9323	785.156	84.1337	785.156	81.1842	785.156	83.8736	785.156	81.0155	785.156	83.4425	785.156	80.444	785.156	82.8057	785.156	78.8718	785.156	81.8899	785.156	76.446	785.156	80.5093	785.156	73.3573	785.156	78.1486	785.156	68.0144	785.156	74.0467	785.156	58.6466	785.156	69.5646	785.156	73.3609	785.156	73.2017	785.156	77.856	785.156	77.0315	785.156	79.2851	785.156	78.9263
811.523	86.1766	811.523	86.4963	811.523	85.2268	811.523	86.0298	811.523	84.0836	811.523	84.9718	811.523	83.0183	811.523	83.7197	811.523	81.8243	811.523	82.4572	811.523	80.4444	811.523	81.2045	811.523	79.6576	811.523	80.7629	811.523	80.0186	811.523	81.3346	811.523	80.8093	811.523	81.7082	811.523	81.3566	811.523	81.5392	811.523	81.4414	811.523	80.8909	811.523	80.8157	811.523	79.3788	811.523	78.943	811.523	76.1511	811.523	75.3015	811.523	72.0073	811.523	72.9078	811.523	75.4414	811.523	76.9075	811.523	79.4965	811.523	80.2198	811.523	81.7152	811.523	81.9732	811.523	82.4896
840.82	87.0564	840.82	86.9531	840.82	86.6842	840.82	86.5079	840.82	85.797	840.82	85.8092	840.82	84.4879	840.82	84.803	840.82	82.9358	840.82	83.567	840.82	81.0874	840.82	82.4949	840.82	78.5452	840.82	81.5827	840.82	75.5741	840.82	80.3956	840.82	74.5714	840.82	79.3583	840.82	75.0446	840.82	79.4572	840.82	74.4212	840.82	79.4662	840.82	73.6505	840.82	78.1122	840.82	72.6066	840.82	75.4715	840.82	68.0597	840.82	70.1318	840.82	66.3861	840.82	60.2243	840.82	75.2078	840.82	74.2975	840.82	78.6192	840.82	78.3339	840.82	79.6369	840.82	79.5927
870.117	87.0508	870.117	86.739	870.117	87.1057	870.117	86.3943	870.117	86.8064	870.117	85.9838	870.117	86.1745	870.117	85.1786	870.117	85.0491	870.117	83.6959	870.117	83.3096	870.117	81.638	870.117	81.2654	870.117	79.6195	870.117	79.2457	870.117	78.1854	870.117	77.5755	870.117	77.3768	870.117	77.5614	870.117	77.7536	870.117	78.0637	870.117	79.1669	870.117	77.3264	870.117	79.5233	870.117	75.8102	870.117	77.244	870.117	74.1165	870.117	69.7642	870.117	71.1552	870.117	62.7484	870.117	68.3092	870.117	70.9781	870.117	74.0155	870.117	74.4413	870.117	77.4089	870.117	77.1334
900.879	88.1076	900.879	88.0062	900.879	87.5172	900.879	87.5771	900.879	86.3934	900.879	87.217	900.879	85.0695	900.879	86.531	900.879	83.5479	900.879	85.1044	900.879	81.4667	900.879	83.3974	900.879	78.6603	900.879	81.6931	900.879	75.8658	900.879	79.1621	900.879	74.4212	900.879	76.0644	900.879	75.2512	900.879	75.0112	900.879	77.0434	900.879	75.6435	900.879	77.8535	900.879	75.7371	900.879	77.8167	900.879	73.6557	900.879	76.9371	900.879	66.821	900.879	74.1804	900.879	63.217	900.879	71.0372	900.879	73.5609	900.879	74.3052	900.879	77.6402	900.879	77.9672	900.879	79.0377
933.105	88.6475	933.105	88.5539	933.105	88.468	933.105	88.2453	933.105	87.6856	933.105	87.534	933.105	86.388	933.105	86.5505	933.105	85.018	933.105	85.4985	933.105	83.3108	933.105	84.224	933.105	80.4701	933.105	82.8551	933.105	76.7193	933.105	81.6286	933.105	72.9965	933.105	80.0237	933.105	71.4234	933.105	78.9598	933.105	73.5317	933.105	79.9585	933.105	72.5992	933.105	80.6828	933.105	68.8099	933.105	79.6027	933.105	63.8839	933.105	75.7192	933.105	60.7479	933.105	62.3512	933.105	73.4423	933.105	72.1933	933.105	78.2187	933.105	77.6691	933.105	79.9521	933.105	79.7658
965.332	89.3709	965.332	89.5301	965.332	88.4648	965.332	88.9292	965.332	87.4063	965.332	88.2969	965.332	86.5067	965.332	87.9096	965.332	85.2527	965.332	86.8881	965.332	82.9487	965.332	85.1369	965.332	80.1475	965.332	83.8261	965.332	79.1913	965.332	82.5074	965.332	78.698	965.332	80.6354	965.332	76.3268	965.332	79.3295	965.332	75.0505	965.332	78.701	965.332	74.2176	965.332	78.3989	965.332	71.303	965.332	77.3528	965.332	69.1999	965.332	72.6822	965.332	66.422	965.332	66.3031	965.332	68.9582	965.332	75.3602	965.332	77.7865	965.332	79.6719	965.332	82.0091	965.332	82.2729
1,000.49	87.1501	1,000.49	87.1784	1,000.49	86.6297	1,000.49	86.7859	1,000.49	85.1104	1,000.49	85.4052	1,000.49	83.8472	1,000.49	83.7342	1,000.49	84.1768	1,000.49	83.1117	1,000.49	84.5029	1,000.49	82.213	1,000.49	83.6897	1,000.49	80.0479	1,000.49	82.052	1,000.49	78.5221	1,000.49	80.5652	1,000.49	78.5536	1,000.49	77.8024	1,000.49	77.0368	1,000.49	71.9653	1,000.49	74.0565	1,000.49	71.7318	1,000.49	76.1596	1,000.49	73.481	1,000.49	78.272	1,000.49	71.9238	1,000.49	75.5248	1,000.49	64.4919	1,000.49	67.3495	1,000.49	70.7154	1,000.49	67.8198	1,000.49	74.4159	1,000.49	75.8871	1,000.49	77.9322	1,000.49	78.8064
1,035.64	89.1777	1,035.64	88.9739	1,035.64	88.6596	1,035.64	88.296	1,035.64	87.851	1,035.64	87.1387	1,035.64	87.1734	1,035.64	85.561	1,035.64	86.2676	1,035.64	83.9694	1,035.64	85.306	1,035.64	82.5811	1,035.64	83.8932	1,035.64	82.0026	1,035.64	80.8292	1,035.64	81.3329	1,035.64	77.5882	1,035.64	80.2085	1,035.64	75.2106	1,035.64	79.9236	1,035.64	72.0759	1,035.64	79.9567	1,035.64	68.8001	1,035.64	78.7555	1,035.64	68.4373	1,035.64	77.7745	1,035.64	70.548	1,035.64	74.5594	1,035.64	74.7614	1,035.64	39.87	1,035.64	78.6216	1,035.64	73.7874	1,035.64	80.3511	1,035.64	78.7227	1,035.64	80.7191	1,035.64	80.5336
1,072.27	84.6657	1,072.27	84.4359	1,072.27	84.4336	1,072.27	84.552	1,072.27	84.1088	1,072.27	84.8793	1,072.27	84.354	1,072.27	83.8144	1,072.27	84.5473	1,072.27	81.5946	1,072.27	83.5534	1,072.27	80.0237	1,072.27	81.8136	1,072.27	78.9333	1,072.27	80.2914	1,072.27	77.0259	1,072.27	78.997	1,072.27	73.9928	1,072.27	78.9344	1,072.27	70.3404	1,072.27	78.9611	1,072.27	66.2222	1,072.27	77.8554	1,072.27	68.4842	1,072.27	75.746	1,072.27	70.2626	1,072.27	74.9087	1,072.27	73.0341	1,072.27	76.3537	1,072.27	74.4133	1,072.27	76.576	1,072.27	75.9984	1,072.27	77.3916	1,072.27	78.854	1,072.27	78.9365	1,072.27	79.7494
1,108.89	83.4296	1,108.89	82.9999	1,108.89	84.2539	1,108.89	82.6392	1,108.89	84.5134	1,108.89	80.9405	1,108.89	83.936	1,108.89	78.4388	1,108.89	83.7167	1,108.89	76.7469	1,108.89	83.8073	1,108.89	74.5275	1,108.89	83.0474	1,108.89	74.7286	1,108.89	82.1782	1,108.89	77.7562	1,108.89	82.8657	1,108.89	79.2444	1,108.89	82.7357	1,108.89	79.5874	1,108.89	80.4939	1,108.89	79.12	1,108.89	79.1692	1,108.89	79.5327	1,108.89	79.3836	1,108.89	81.0178	1,108.89	76.8178	1,108.89	80.9602	1,108.89	71.9299	1,108.89	79.2623	1,108.89	73.9182	1,108.89	77.8653	1,108.89	76.9071	1,108.89	77.5599	1,108.89	78.9044	1,108.89	78.8993
1,148.44	85.6364	1,148.44	85.6629	1,148.44	85.9475	1,148.44	85.2016	1,148.44	86.1851	1,148.44	84.3316	1,148.44	85.05	1,148.44	83.0506	1,148.44	83.2891	1,148.44	81.4438	1,148.44	82.303	1,148.44	80.4007	1,148.44	80.6759	1,148.44	79.3354	1,148.44	76.8306	1,148.44	77.5745	1,148.44	72.456	1,148.44	75.9578	1,148.44	76.0924	1,148.44	75.4655	1,148.44	77.906	1,148.44	74.4769	1,148.44	77.5136	1,148.44	73.5998	1,148.44	75.9365	1,148.44	73.5029	1,148.44	74.3348	1,148.44	75.8036	1,148.44	73.5593	1,148.44	73.6921	1,148.44	73.0298	1,148.44	66.8949	1,148.44	69.6066	1,148.44	60.938	1,148.44	66.3393	1,148.44	65.1783
1,189.45	84.4642	1,189.45	84.8851	1,189.45	84.9531	1,189.45	85.188	1,189.45	85.4404	1,189.45	85.015	1,189.45	84.9409	1,189.45	84.5259	1,189.45	83.349	1,189.45	83.083	1,189.45	81.6564	1,189.45	80.7413	1,189.45	80.4691	1,189.45	77.7643	1,189.45	78.4642	1,189.45	73.677	1,189.45	74.5065	1,189.45	72.5289	1,189.45	76.8374	1,189.45	74.815	1,189.45	78.5508	1,189.45	77.1748	1,189.45	79.1885	1,189.45	77.7689	1,189.45	79.023	1,189.45	76.6052	1,189.45	78.3855	1,189.45	77.7433	1,189.45	78.0305	1,189.45	76.8406	1,189.45	77.7086	1,189.45	73.5656	1,189.45	77.3167	1,189.45	70.9966	1,189.45	72.6646	1,189.45	69.646
1,230.47	86.5263	1,230.47	86.725	1,230.47	85.6708	1,230.47	86.3615	1,230.47	85.7564	1,230.47	85.9446	1,230.47	85.8441	1,230.47	85.2416	1,230.47	84.7339	1,230.47	85.1468	1,230.47	84.0365	1,230.47	84.5763	1,230.47	83.4855	1,230.47	82.8907	1,230.47	82.7121	1,230.47	82.3925	1,230.47	81.3618	1,230.47	80.776	1,230.47	79.8455	1,230.47	76.8882	1,230.47	80.7414	1,230.47	74.3114	1,230.47	81.3441	1,230.47	75.1631	1,230.47	79.4812	1,230.47	73.7269	1,230.47	77.7985	1,230.47	72.4206	1,230.47	77.9597	1,230.47	71.9566	1,230.47	76.206	1,230.47	63.6266	1,230.47	70.3334	1,230.47	66.5643	1,230.47	51.8965	1,230.47	67.7683
1,274.41	87.3421	1,274.41	87.0991	1,274.41	86.9734	1,274.41	86.4283	1,274.41	86.1153	1,274.41	85.6895	1,274.41	85.714	1,274.41	85.0912	1,274.41	85.3291	1,274.41	84.2439	1,274.41	84.0406	1,274.41	83.4327	1,274.41	83.1173	1,274.41	82.0291	1,274.41	82.2638	1,274.41	80.0618	1,274.41	79.3065	1,274.41	76.9997	1,274.41	76.4701	1,274.41	72.5775	1,274.41	78.3712	1,274.41	71.3328	1,274.41	78.1878	1,274.41	73.5959	1,274.41	77.734	1,274.41	74.7629	1,274.41	77.9138	1,274.41	74.9804	1,274.41	77.1756	1,274.41	73.066	1,274.41	74.1259	1,274.41	66.8919	1,274.41	66.8334	1,274.41	60.2617	1,274.41	63.7339	1,274.41	68.2977
1,319.82	87.4596	1,319.82	87.2288	1,319.82	87.3335	1,319.82	86.5748	1,319.82	86.6485	1,319.82	85.7343	1,319.82	85.5799	1,319.82	84.7398	1,319.82	84.6632	1,319.82	83.9576	1,319.82	83.7171	1,319.82	83.0923	1,319.82	82.6049	1,319.82	80.6883	1,319.82	81.3261	1,319.82	79.0776	1,319.82	79.5113	1,319.82	76.8549	1,319.82	77.2545	1,319.82	72.1315	1,319.82	75.4672	1,319.82	69.9445	1,319.82	75.7361	1,319.82	71.0337	1,319.82	75.9376	1,319.82	74.1494	1,319.82	75.8359	1,319.82	75.492	1,319.82	76.6527	1,319.82	74.2949	1,319.82	73.5328	1,319.82	68.4793	1,319.82	60.2692	1,319.82	64.0843	1,319.82	66.2158	1,319.82	70.1604
1,366.7	86.7485	1,366.7	86.5341	1,366.7	86.3118	1,366.7	85.9577	1,366.7	85.6397	1,366.7	85.166	1,366.7	84.8733	1,366.7	84.2047	1,366.7	84.4881	1,366.7	83.3598	1,366.7	83.499	1,366.7	82.3734	1,366.7	81.0543	1,366.7	80.7958	1,366.7	79.151	1,366.7	78.5688	1,366.7	78.4063	1,366.7	76.8683	1,366.7	76.3609	1,366.7	74.8454	1,366.7	75.7344	1,366.7	69.9935	1,366.7	74.8736	1,366.7	66.4739	1,366.7	74.1067	1,366.7	71.2626	1,366.7	75.0905	1,366.7	71.7322	1,366.7	74.5782	1,366.7	69.5858	1,366.7	70.7953	1,366.7	66.8692	1,366.7	50.5959	1,366.7	60.9694	1,366.7	67.7233	1,366.7	70.7601
1,413.57	86.2318	1,413.57	85.9512	1,413.57	86.0529	1,413.57	85.5573	1,413.57	85.1863	1,413.57	84.945	1,413.57	84.0354	1,413.57	83.8848	1,413.57	83.5418	1,413.57	82.7504	1,413.57	82.3298	1,413.57	81.4966	1,413.57	79.9472	1,413.57	79.7754	1,413.57	78.2576	1,413.57	77.4151	1,413.57	75.8208	1,413.57	76.4052	1,413.57	74.8149	1,413.57	74.9463	1,413.57	73.1058	1,413.57	72.9617	1,413.57	68.5229	1,413.57	70.6634	1,413.57	69.0975	1,413.57	71.3133	1,413.57	72.4924	1,413.57	73.5184	1,413.57	74.3107	1,413.57	72.5272	1,413.57	70.1531	1,413.57	66.3589	1,413.57	60.9995	1,413.57	50.388	1,413.57	48.2326	1,413.57	62.7178
1,463.38	86.9549	1,463.38	86.7395	1,463.38	86.533	1,463.38	86.2464	1,463.38	85.5276	1,463.38	85.2362	1,463.38	84.4287	1,463.38	83.6487	1,463.38	83.2344	1,463.38	82.2104	1,463.38	81.6238	1,463.38	80.1698	1,463.38	79.4029	1,463.38	78.2615	1,463.38	77.0993	1,463.38	76.6443	1,463.38	74.103	1,463.38	74.8763	1,463.38	72.9843	1,463.38	72.2064	1,463.38	70.9672	1,463.38	69.2871	1,463.38	67.5409	1,463.38	66.9831	1,463.38	67.4928	1,463.38	70.2449	1,463.38	71.563	1,463.38	70.7133	1,463.38	71.9524	1,463.38	71.0688	1,463.38	67.7044	1,463.38	65.6024	1,463.38	60.2908	1,463.38	48.9423	1,463.38	61.5946	1,463.38	58.9735
1,516.11	85.7813	1,516.11	85.4934	1,516.11	85.1439	1,516.11	84.6451	1,516.11	84.2139	1,516.11	83.2671	1,516.11	82.8552	1,516.11	81.312	1,516.11	80.7517	1,516.11	80.0813	1,516.11	79.4961	1,516.11	78.7178	1,516.11	78.0461	1,516.11	76.8621	1,516.11	76.6351	1,516.11	75.1053	1,516.11	74.345	1,516.11	71.9644	1,516.11	71.8992	1,516.11	69.3656	1,516.11	69.9769	1,516.11	68.0906	1,516.11	67.4833	1,516.11	63.9281	1,516.11	66.359	1,516.11	64.3707	1,516.11	67.9254	1,516.11	67.5914	1,516.11	66.3643	1,516.11	66.7709	1,516.11	65.1898	1,516.11	62.4835	1,516.11	56.9431	1,516.11	60.6059	1,516.11	54.0475	1,516.11	64.3059
1,568.85	83.7035	1,568.85	83.6265	1,568.85	83.3449	1,568.85	82.0116	1,568.85	82.6848	1,568.85	80.4755	1,568.85	80.9527	1,568.85	78.4819	1,568.85	79.6255	1,568.85	76.812	1,568.85	78.4865	1,568.85	75.8532	1,568.85	77.0078	1,568.85	73.8177	1,568.85	75.8114	1,568.85	72.6641	1,568.85	74.4601	1,568.85	70.7714	1,568.85	72.6814	1,568.85	70.7992	1,568.85	72.1132	1,568.85	69.1694	1,568.85	71.8478	1,568.85	65.2593	1,568.85	67.7363	1,568.85	65.785	1,568.85	67.0913	1,568.85	70.2071	1,568.85	69.5979	1,568.85	70.3341	1,568.85	69.1815	1,568.85	64.4949	1,568.85	63.7567	1,568.85	35.4129	1,568.85	54.298	1,568.85	64.6979
1,624.51	83.0351	1,624.51	83.1295	1,624.51	82.523	1,624.51	81.8871	1,624.51	83.1109	1,624.51	80.3552	1,624.51	81.6623	1,624.51	78.4591	1,624.51	80.7481	1,624.51	76.2503	1,624.51	79.7652	1,624.51	75.2334	1,624.51	78.8873	1,624.51	73.6516	1,624.51	78.0498	1,624.51	73.4768	1,624.51	76.2611	1,624.51	69.9958	1,624.51	73.2987	1,624.51	69.5696	1,624.51	73.3871	1,624.51	69.1504	1,624.51	72.929	1,624.51	66.4288	1,624.51	67.7776	1,624.51	62.78	1,624.51	68.673	1,624.51	63.5528	1,624.51	69.7155	1,624.51	66.0518	1,624.51	69.1781	1,624.51	63.7975	1,624.51	61.2367	1,624.51	37.5162	1,624.51	57.1228	1,624.51	60.156
1,681.64	83.5072	1,681.64	83.3385	1,681.64	84.1588	1,681.64	82.2998	1,681.64	83.5296	1,681.64	81.3423	1,681.64	82.1059	1,681.64	80.377	1,681.64	80.3139	1,681.64	77.706	1,681.64	79.0061	1,681.64	74.7928	1,681.64	78.273	1,681.64	73.3829	1,681.64	75.7614	1,681.64	73.9027	1,681.64	74.365	1,681.64	70.8046	1,681.64	69.743	1,681.64	67.8549	1,681.64	70.0382	1,681.64	68.4299	1,681.64	71.9131	1,681.64	67.5725	1,681.64	70.8694	1,681.64	61.703	1,681.64	70.1262	1,681.64	64.8942	1,681.64	72.5614	1,681.64	70.0618	1,681.64	71.3697	1,681.64	69.6753	1,681.64	66.013	1,681.64	56.784	1,681.64	66.7165	1,681.64	63.2247
1,741.7	83.0393	1,741.7	82.6832	1,741.7	83.0877	1,741.7	82.4289	1,741.7	82.7305	1,741.7	81.1721	1,741.7	81.2812	1,741.7	80.1591	1,741.7	79.1223	1,741.7	79.6378	1,741.7	76.9392	1,741.7	76.4977	1,741.7	76.4128	1,741.7	76.54	1,741.7	75.9404	1,741.7	75.0178	1,741.7	73.4561	1,741.7	73.2791	1,741.7	71.8853	1,741.7	69.4374	1,741.7	71.1034	1,741.7	70.4152	1,741.7	68.6999	1,741.7	71.3885	1,741.7	61.8513	1,741.7	70.5445	1,741.7	62.1089	1,741.7	62.3905	1,741.7	69.5634	1,741.7	65.0059	1,741.7	67.1544	1,741.7	57.1539	1,741.7	58.3443	1,741.7	59.0769	1,741.7	65.5858	1,741.7	58.8363
1,803.22	83.4233	1,803.22	83.3087	1,803.22	83.2424	1,803.22	82.5989	1,803.22	82.1068	1,803.22	81.5663	1,803.22	81.0682	1,803.22	80.8605	1,803.22	79.9221	1,803.22	78.9195	1,803.22	78.2726	1,803.22	77.0636	1,803.22	75.6712	1,803.22	75.6326	1,803.22	74.3513	1,803.22	73.9913	1,803.22	71.9948	1,803.22	73.1772	1,803.22	69.9815	1,803.22	69.4878	1,803.22	68.6551	1,803.22	67.9409	1,803.22	68.8081	1,803.22	69.3318	1,803.22	67.1343	1,803.22	66.6649	1,803.22	65.9717	1,803.22	66.8687	1,803.22	67.8295	1,803.22	69.4414	1,803.22	66.6532	1,803.22	67.608	1,803.22	65.2998	1,803.22	59.8218	1,803.22	62.2624	1,803.22	65.7878
1,866.21	83.0962	1,866.21	82.5357	1,866.21	82.571	1,866.21	82.1209	1,866.21	81.9833	1,866.21	81.4635	1,866.21	81.1282	1,866.21	80.6987	1,866.21	79.5834	1,866.21	79.5061	1,866.21	77.7951	1,866.21	77.1025	1,866.21	75.72	1,866.21	75.8044	1,866.21	74.001	1,866.21	74.3303	1,866.21	72.8421	1,866.21	73.1475	1,866.21	70.2045	1,866.21	70.7992	1,866.21	66.0477	1,866.21	69.0024	1,866.21	68.9958	1,866.21	69.5061	1,866.21	67.8102	1,866.21	68.0963	1,866.21	64.635	1,866.21	66.5176	1,866.21	65.1016	1,866.21	67.4027	1,866.21	67.0345	1,866.21	66.3123	1,866.21	60.9191	1,866.21	62.8084	1,866.21	63.5379	1,866.21	64.9496
1,932.13	82.0861	1,932.13	82.2937	1,932.13	82.1868	1,932.13	81.8912	1,932.13	81.7161	1,932.13	80.9015	1,932.13	80.8315	1,932.13	79.6478	1,932.13	79.5067	1,932.13	77.8027	1,932.13	77.8927	1,932.13	77.1067	1,932.13	75.843	1,932.13	74.8749	1,932.13	74.3781	1,932.13	73.2957	1,932.13	72.7304	1,932.13	71.4525	1,932.13	69.7679	1,932.13	70.0447	1,932.13	68.3917	1,932.13	66.3591	1,932.13	66.4622	1,932.13	68.7587	1,932.13	69.1689	1,932.13	67.8392	1,932.13	65.9653	1,932.13	68.0255	1,932.13	65.9279	1,932.13	69.2673	1,932.13	66.6437	1,932.13	67.3563	1,932.13	63.5408	1,932.13	62.6802	1,932.13	60.9524	1,932.13	63.9593
1,999.51	83.7284	1,999.51	83.5722	1,999.51	83.5104	1,999.51	82.8002	1,999.51	82.7557	1,999.51	81.9614	1,999.51	81.6571	1,999.51	80.6784	1,999.51	80.3753	1,999.51	78.6823	1,999.51	78.5463	1,999.51	76.246	1,999.51	76.5989	1,999.51	73.982	1,999.51	73.8812	1,999.51	72.9472	1,999.51	72.8656	1,999.51	71.2661	1,999.51	71.2924	1,999.51	67.5841	1,999.51	68.8675	1,999.51	66.9407	1,999.51	68.3786	1,999.51	68.8455	1,999.51	68.8387	1,999.51	66.6038	1,999.51	65.9336	1,999.51	63.6384	1,999.51	64.4941	1,999.51	68.2452	1,999.51	68.5418	1,999.51	67.9696	1,999.51	66.2129	1,999.51	65.549	1,999.51	63.0287	1,999.51	65.5151
2,069.82	85.2795	2,069.82	84.9446	2,069.82	84.759	2,069.82	84.2678	2,069.82	83.9694	2,069.82	82.9118	2,069.82	82.567	2,069.82	81.2832	2,069.82	81.0562	2,069.82	79.5179	2,069.82	79.454	2,069.82	77.3067	2,069.82	77.2342	2,069.82	74.6287	2,069.82	75.2939	2,069.82	72.1625	2,069.82	73.6307	2,069.82	71.4274	2,069.82	71.3064	2,069.82	69.2658	2,069.82	68.7718	2,069.82	66.0628	2,069.82	68.3175	2,069.82	68.4993	2,069.82	69.0852	2,069.82	68.4259	2,069.82	69.3772	2,069.82	61.9952	2,069.82	66.537	2,069.82	64.7988	2,069.82	67.7372	2,069.82	66.6841	2,069.82	67.0988	2,069.82	63.4997	2,069.82	66.3485	2,069.82	65.8126
2,143.07	85.7426	2,143.07	85.6696	2,143.07	85.4561	2,143.07	84.9007	2,143.07	84.3142	2,143.07	83.4933	2,143.07	82.9871	2,143.07	82.0478	2,143.07	81.2678	2,143.07	80.341	2,143.07	79.728	2,143.07	79.274	2,143.07	77.4222	2,143.07	76.4025	2,143.07	75.1619	2,143.07	74.2416	2,143.07	73.4927	2,143.07	72.4269	2,143.07	72.3801	2,143.07	70.1499	2,143.07	69.7035	2,143.07	66.1882	2,143.07	67.2032	2,143.07	67.1498	2,143.07	70.2492	2,143.07	68.8134	2,143.07	69.665	2,143.07	66.3684	2,143.07	67.7457	2,143.07	67.4758	2,143.07	68.7192	2,143.07	67.2466	2,143.07	66.1289	2,143.07	63.4633	2,143.07	64.297	2,143.07	67.4733
2,219.24	85.2158	2,219.24	85.1643	2,219.24	84.7078	2,219.24	84.5999	2,219.24	83.8613	2,219.24	83.6258	2,219.24	82.2395	2,219.24	82.1435	2,219.24	80.7325	2,219.24	80.8305	2,219.24	78.7322	2,219.24	78.1532	2,219.24	76.822	2,219.24	76.6678	2,219.24	73.9254	2,219.24	75.1457	2,219.24	72.2719	2,219.24	72.705	2,219.24	70.8771	2,219.24	71.7654	2,219.24	68.3939	2,219.24	69.253	2,219.24	66.7335	2,219.24	67.9016	2,219.24	68.2118	2,219.24	69.2022	2,219.24	68.0039	2,219.24	67.9632	2,219.24	68.2683	2,219.24	66.6122	2,219.24	68.7605	2,219.24	67.2292	2,219.24	64.2774	2,219.24	61.5623	2,219.24	65.1237	2,219.24	64.5435
2,296.88	84.2358	2,296.88	84.1335	2,296.88	83.8857	2,296.88	83.4551	2,296.88	82.8958	2,296.88	82.5545	2,296.88	81.5479	2,296.88	81.0553	2,296.88	79.9895	2,296.88	79.836	2,296.88	78.3385	2,296.88	78.5575	2,296.88	75.8881	2,296.88	76.0151	2,296.88	73.547	2,296.88	73.6997	2,296.88	71.5329	2,296.88	71.2454	2,296.88	69.9087	2,296.88	71.1858	2,296.88	68.5707	2,296.88	68.414	2,296.88	62.4978	2,296.88	65.046	2,296.88	64.6409	2,296.88	69.7151	2,296.88	66.796	2,296.88	69.6748	2,296.88	64.5266	2,296.88	69.8884	2,296.88	67.7082	2,296.88	68.1877	2,296.88	66.2206	2,296.88	64.9944	2,296.88	56.3072	2,296.88	64.8828
2,378.91	84.7682	2,378.91	84.1737	2,378.91	84.2137	2,378.91	83.5114	2,378.91	83.2835	2,378.91	82.202	2,378.91	82.2158	2,378.91	80.8203	2,378.91	80.237	2,378.91	78.8418	2,378.91	78.5628	2,378.91	76.2616	2,378.91	76.7152	2,378.91	74.2041	2,378.91	74.5645	2,378.91	72.1709	2,378.91	71.7463	2,378.91	69.3128	2,378.91	69.3575	2,378.91	67.7193	2,378.91	69.7602	2,378.91	66.2083	2,378.91	67.2715	2,378.91	61.569	2,378.91	66.2293	2,378.91	65.6948	2,378.91	67.2001	2,378.91	65.2955	2,378.91	66.0886	2,378.91	68.3056	2,378.91	67.7809	2,378.91	68.2457	2,378.91	67.7239	2,378.91	64.1156	2,378.91	62.4442	2,378.91	63.0283
2,462.4	85.9789	2,462.4	85.8126	2,462.4	85.6221	2,462.4	85.3015	2,462.4	84.7731	2,462.4	83.8642	2,462.4	83.1346	2,462.4	82.0208	2,462.4	81.1164	2,462.4	79.8062	2,462.4	79.5838	2,462.4	77.8733	2,462.4	77.5078	2,462.4	75.5874	2,462.4	75.4574	2,462.4	73.1271	2,462.4	73.2799	2,462.4	70.3623	2,462.4	71.4462	2,462.4	68.7065	2,462.4	68.6183	2,462.4	68.2087	2,462.4	67.1265	2,462.4	62.2138	2,462.4	63.6543	2,462.4	64.0995	2,462.4	68.6919	2,462.4	64.8254	2,462.4	65.7144	2,462.4	62.7669	2,462.4	67.9	2,462.4	68.356	2,462.4	68.3202	2,462.4	65.0965	2,462.4	65.5115	2,462.4	62.0179
2,548.83	86.3093	2,548.83	86.6387	2,548.83	85.8743	2,548.83	85.6261	2,548.83	84.8427	2,548.83	84.5484	2,548.83	83.1073	2,548.83	82.4663	2,548.83	81.5113	2,548.83	80.5154	2,548.83	78.9664	2,548.83	78.8427	2,548.83	76.8668	2,548.83	76.6865	2,548.83	74.3462	2,548.83	72.4243	2,548.83	72.6554	2,548.83	71.6085	2,548.83	69.6213	2,548.83	69.3513	2,548.83	68.2009	2,548.83	66.4592	2,548.83	67.729	2,548.83	66.4546	2,548.83	64.9688	2,548.83	65.3455	2,548.83	68	2,548.83	67.8082	2,548.83	65.4379	2,548.83	67.3896	2,548.83	66.6951	2,548.83	68.5129	2,548.83	65.6035	2,548.83	64.5419	2,548.83	62.4441	2,548.83	66.8604
2,639.65	85.2993	2,639.65	85.3962	2,639.65	84.7106	2,639.65	84.6992	2,639.65	84.001	2,639.65	83.6938	2,639.65	82.3439	2,639.65	81.7533	2,639.65	80.6371	2,639.65	79.3783	2,639.65	78.1747	2,639.65	77.4765	2,639.65	76.5441	2,639.65	75.734	2,639.65	74.4279	2,639.65	72.9836	2,639.65	71.0318	2,639.65	72.3124	2,639.65	68.2585	2,639.65	69.1549	2,639.65	67.3645	2,639.65	67.6252	2,639.65	66.3307	2,639.65	65.6104	2,639.65	63.0504	2,639.65	65.5452	2,639.65	64.9958	2,639.65	67.7787	2,639.65	67.3777	2,639.65	65.3963	2,639.65	66.7938	2,639.65	66.9434	2,639.65	66.6176	2,639.65	60.727	2,639.65	58.9234	2,639.65	57.2756
2,731.93	84.1991	2,731.93	83.7094	2,731.93	83.8634	2,731.93	83.4635	2,731.93	82.666	2,731.93	82.1795	2,731.93	81.9335	2,731.93	80.8826	2,731.93	79.7156	2,731.93	78.6255	2,731.93	77.8943	2,731.93	75.9452	2,731.93	75.3457	2,731.93	72.7212	2,731.93	73.2145	2,731.93	73.3206	2,731.93	69.9156	2,731.93	69.1333	2,731.93	68.8634	2,731.93	68.8744	2,731.93	67.6923	2,731.93	66.7705	2,731.93	63.1388	2,731.93	65.4975	2,731.93	63.1246	2,731.93	63.7817	2,731.93	62.8327	2,731.93	65.5072	2,731.93	64.0366	2,731.93	66.1573	2,731.93	65.8624	2,731.93	68.1952	2,731.93	65.6055	2,731.93	64.0022	2,731.93	52.2626	2,731.93	61.8889
2,828.61	84.3496	2,828.61	84.0539	2,828.61	84.3499	2,828.61	83.7775	2,828.61	83.3298	2,828.61	82.3063	2,828.61	81.9991	2,828.61	80.8879	2,828.61	79.7982	2,828.61	79.0824	2,828.61	77.8593	2,828.61	76.1153	2,828.61	75.2712	2,828.61	74.8454	2,828.61	72.6405	2,828.61	72.7504	2,828.61	70.156	2,828.61	69.0851	2,828.61	68.3765	2,828.61	67.7709	2,828.61	65.2126	2,828.61	66.6708	2,828.61	64.8037	2,828.61	63.4695	2,828.61	63.98	2,828.61	59.18	2,828.61	64.1264	2,828.61	62.9999	2,828.61	64.651	2,828.61	61.4178	2,828.61	65.7659	2,828.61	66.3421	2,828.61	67.164	2,828.61	62.6688	2,828.61	61.6049	2,828.61	53.2336
2,928.22	85.6414	2,928.22	85.5774	2,928.22	85.2547	2,928.22	84.5257	2,928.22	84.3101	2,928.22	83.4354	2,928.22	82.5736	2,928.22	81.6171	2,928.22	80.6571	2,928.22	79.6048	2,928.22	78.0305	2,928.22	77.6166	2,928.22	75.6933	2,928.22	75.7356	2,928.22	73.5611	2,928.22	73.0196	2,928.22	71.7327	2,928.22	69.9535	2,928.22	69.2054	2,928.22	68.2106	2,928.22	66.8888	2,928.22	65.3753	2,928.22	65.7847	2,928.22	64.2292	2,928.22	64.1614	2,928.22	63.9562	2,928.22	65.2561	2,928.22	65.9105	2,928.22	65.0535	2,928.22	64.6182	2,928.22	63.8959	2,928.22	68.1358	2,928.22	67.8801	2,928.22	64.9145	2,928.22	59.6231	2,928.22	60.8541
3,030.76	86.2534	3,030.76	86.3151	3,030.76	85.6026	3,030.76	85.3867	3,030.76	84.8554	3,030.76	84.0696	3,030.76	82.8474	3,030.76	82.4093	3,030.76	80.9646	3,030.76	79.6676	3,030.76	78.4997	3,030.76	77.9099	3,030.76	76.3154	3,030.76	75.4398	3,030.76	73.9488	3,030.76	72.6878	3,030.76	72.1477	3,030.76	70.4997	3,030.76	69.3058	3,030.76	68.2604	3,030.76	67.6129	3,030.76	66.8116	3,030.76	64.5912	3,030.76	63.8163	3,030.76	63.1994	3,030.76	62.697	3,030.76	64.2966	3,030.76	66.5407	3,030.76	65.0748	3,030.76	62.0281	3,030.76	63.7688	3,030.76	67.6285	3,030.76	67.5904	3,030.76	62.8868	3,030.76	60.7882	3,030.76	56.2032
3,137.7	86.2175	3,137.7	86.0775	3,137.7	85.9168	3,137.7	85.3052	3,137.7	84.4135	3,137.7	84.1247	3,137.7	82.8623	3,137.7	81.9493	3,137.7	80.8129	3,137.7	80.3391	3,137.7	78.9536	3,137.7	78.4651	3,137.7	76.4054	3,137.7	75.6775	3,137.7	73.7029	3,137.7	73.8802	3,137.7	72.1755	3,137.7	71.6739	3,137.7	69.1286	3,137.7	69.3508	3,137.7	67.9836	3,137.7	67.4257	3,137.7	65.9734	3,137.7	64.9369	3,137.7	64.0517	3,137.7	64.5501	3,137.7	62.8584	3,137.7	66.7538	3,137.7	66.7505	3,137.7	65.1878	3,137.7	63.6975	3,137.7	66.5404	3,137.7	68.003	3,137.7	65.7575	3,137.7	60.0121	3,137.7	55.8639
3,249.02	86.0657	3,249.02	85.7511	3,249.02	85.5688	3,249.02	85.0582	3,249.02	84.3918	3,249.02	83.8456	3,249.02	82.9472	3,249.02	82.2309	3,249.02	81.0126	3,249.02	80.3431	3,249.02	79.0613	3,249.02	77.9652	3,249.02	76.6653	3,249.02	75.5168	3,249.02	74.2023	3,249.02	73.9393	3,249.02	72.5624	3,249.02	70.7845	3,249.02	68.5751	3,249.02	68.1397	3,249.02	68.0721	3,249.02	68.2129	3,249.02	65.7365	3,249.02	66.1529	3,249.02	64.0302	3,249.02	63.9255	3,249.02	64.1303	3,249.02	65.389	3,249.02	67.0413	3,249.02	67.0432	3,249.02	62.7764	3,249.02	66.2699	3,249.02	67.6596	3,249.02	67.4612	3,249.02	60.6011	3,249.02	62.2249
3,363.28	86.423	3,363.28	85.9746	3,363.28	86.083	3,363.28	85.2919	3,363.28	84.8015	3,363.28	84.0962	3,363.28	83.2929	3,363.28	82.337	3,363.28	81.7209	3,363.28	80.954	3,363.28	79.8147	3,363.28	78.5153	3,363.28	76.9444	3,363.28	75.9455	3,363.28	74.1362	3,363.28	73.2862	3,363.28	72.2424	3,363.28	71.7198	3,363.28	69.2083	3,363.28	67.9097	3,363.28	67.693	3,363.28	67.6141	3,363.28	66.5934	3,363.28	65.2631	3,363.28	62.6767	3,363.28	61.6775	3,363.28	63.7331	3,363.28	64.1301	3,363.28	67.0647	3,363.28	65.6585	3,363.28	64.8847	3,363.28	66.1059	3,363.28	67.9268	3,363.28	63.0686	3,363.28	62.9084	3,363.28	56.7051
3,481.93	86.8401	3,481.93	86.8315	3,481.93	86.2244	3,481.93	86.1529	3,481.93	85.418	3,481.93	84.833	3,481.93	83.8239	3,481.93	83.6954	3,481.93	81.9508	3,481.93	81.4329	3,481.93	79.4359	3,481.93	79.5138	3,481.93	77.4494	3,481.93	77.0199	3,481.93	75.0044	3,481.93	74.1649	3,481.93	71.8089	3,481.93	71.9653	3,481.93	69.6749	3,481.93	68.7447	3,481.93	66.915	3,481.93	68.1015	3,481.93	67.2063	3,481.93	65.1562	3,481.93	63.0868	3,481.93	64.2567	3,481.93	63.8629	3,481.93	63.8563	3,481.93	65.0452	3,481.93	66.721	3,481.93	63.6441	3,481.93	66.1229	3,481.93	66.4836	3,481.93	64.6515	3,481.93	60.6098	3,481.93	53.8834
3,604.98	86.8109	3,604.98	86.8323	3,604.98	86.3585	3,604.98	85.9983	3,604.98	85.5733	3,604.98	84.8786	3,604.98	84.1521	3,604.98	83.5468	3,604.98	82.4244	3,604.98	81.2551	3,604.98	80.0278	3,604.98	78.7488	3,604.98	77.6161	3,604.98	76.437	3,604.98	75.272	3,604.98	73.9718	3,604.98	72.9686	3,604.98	71.5769	3,604.98	71.6379	3,604.98	69.864	3,604.98	68.5023	3,604.98	67.548	3,604.98	68.1005	3,604.98	65.7942	3,604.98	65.0872	3,604.98	65.0563	3,604.98	66.3034	3,604.98	64.261	3,604.98	65.3043	3,604.98	66.6816	3,604.98	65.9004	3,604.98	65.2644	3,604.98	67.6308	3,604.98	66.4367	3,604.98	60.0278	3,604.98	56.5017
3,732.42	87.1589	3,732.42	87.117	3,732.42	86.8642	3,732.42	86.4787	3,732.42	85.647	3,732.42	85.453	3,732.42	84.3932	3,732.42	83.4712	3,732.42	82.4515	3,732.42	81.5373	3,732.42	80.5271	3,732.42	79.1657	3,732.42	78.7651	3,732.42	77.2953	3,732.42	76.1827	3,732.42	75.2203	3,732.42	73.8807	3,732.42	72.2991	3,732.42	72.2822	3,732.42	70.871	3,732.42	69.3305	3,732.42	67.4958	3,732.42	68.4324	3,732.42	67.135	3,732.42	65.7892	3,732.42	64.0035	3,732.42	65.7866	3,732.42	64.7166	3,732.42	66.1104	3,732.42	67.8923	3,732.42	67.0743	3,732.42	65.7026	3,732.42	68.0822	3,732.42	65.9249	3,732.42	61.5897	3,732.42	55.9352
3,864.26	86.738	3,864.26	86.3672	3,864.26	86.3922	3,864.26	85.6054	3,864.26	85.1058	3,864.26	84.5885	3,864.26	83.7061	3,864.26	82.9568	3,864.26	82.3354	3,864.26	81.5151	3,864.26	80.3493	3,864.26	79.3995	3,864.26	78.0029	3,864.26	77.5001	3,864.26	75.6768	3,864.26	75.1667	3,864.26	74.325	3,864.26	74.0734	3,864.26	72.1919	3,864.26	70.584	3,864.26	69.2241	3,864.26	67.6734	3,864.26	67.6339	3,864.26	67.728	3,864.26	65.4238	3,864.26	64.1711	3,864.26	62.75	3,864.26	66.6266	3,864.26	65.5253	3,864.26	68.0214	3,864.26	66.8653	3,864.26	66.334	3,864.26	67.0542	3,864.26	65.4303	3,864.26	62.3881	3,864.26	55.8425
4,000.49	85.9676	4,000.49	85.8521	4,000.49	85.2863	4,000.49	84.6628	4,000.49	84.6132	4,000.49	83.8766	4,000.49	83.3215	4,000.49	83.1575	4,000.49	82.1079	4,000.49	81.2638	4,000.49	80.2299	4,000.49	79.5101	4,000.49	78.4702	4,000.49	77.1671	4,000.49	76.8381	4,000.49	74.735	4,000.49	74.3069	4,000.49	73.049	4,000.49	71.475	4,000.49	70.3269	4,000.49	69.9964	4,000.49	67.248	4,000.49	67.5033	4,000.49	66.2705	4,000.49	67.4606	4,000.49	61.7119	4,000.49	65.1186	4,000.49	64.904	4,000.49	65.3939	4,000.49	66.9482	4,000.49	66.9607	4,000.49	64.2872	4,000.49	66.9628	4,000.49	64.8219	4,000.49	60.4364	4,000.49	48.9618
4,141.11	86.7356	4,141.11	86.3083	4,141.11	85.9877	4,141.11	85.8141	4,141.11	84.9538	4,141.11	84.9641	4,141.11	84.3463	4,141.11	83.2794	4,141.11	82.6598	4,141.11	81.8273	4,141.11	81.4133	4,141.11	80.0734	4,141.11	79.8515	4,141.11	78.6129	4,141.11	78.0266	4,141.11	76.5234	4,141.11	75.9773	4,141.11	73.1342	4,141.11	73.0365	4,141.11	69.5572	4,141.11	70.0171	4,141.11	68.7005	4,141.11	67.6994	4,141.11	67.388	4,141.11	66.669	4,141.11	62.1141	4,141.11	63.8165	4,141.11	64.7072	4,141.11	66.1305	4,141.11	67.3709	4,141.11	67.5575	4,141.11	63.9498	4,141.11	65.9356	4,141.11	66.4699	4,141.11	56.9225	4,141.11	47.4823
4,287.6	86.2983	4,287.6	85.9608	4,287.6	85.852	4,287.6	85.4641	4,287.6	84.9497	4,287.6	84.3745	4,287.6	83.7984	4,287.6	83.248	4,287.6	82.7891	4,287.6	81.7066	4,287.6	81.8259	4,287.6	80.4744	4,287.6	79.8372	4,287.6	78.3447	4,287.6	77.2828	4,287.6	75.6911	4,287.6	73.5523	4,287.6	72.9989	4,287.6	71.6256	4,287.6	71.3	4,287.6	67.9043	4,287.6	69.1658	4,287.6	66.9933	4,287.6	66.4196	4,287.6	65.3899	4,287.6	64.1734	4,287.6	60.9357	4,287.6	64.1506	4,287.6	65.2411	4,287.6	66.011	4,287.6	66.7538	4,287.6	64.6717	4,287.6	62.7565	4,287.6	64.302	4,287.6	60.0417	4,287.6	56.6191
4,438.48	85.9462	4,438.48	86.0997	4,438.48	85.8084	4,438.48	85.254	4,438.48	85.3059	4,438.48	84.6441	4,438.48	84.1584	4,438.48	83.8345	4,438.48	82.8747	4,438.48	82.3532	4,438.48	81.0031	4,438.48	80.3569	4,438.48	79.2147	4,438.48	77.4629	4,438.48	76.4541	4,438.48	75.3132	4,438.48	73.9092	4,438.48	72.0428	4,438.48	71.6014	4,438.48	70.8448	4,438.48	68.5615	4,438.48	64.8691	4,438.48	66.2467	4,438.48	65.0602	4,438.48	64.516	4,438.48	63.9319	4,438.48	61.2559	4,438.48	63.5471	4,438.48	64.7619	4,438.48	65.7194	4,438.48	65.4489	4,438.48	64.549	4,438.48	63.4827	4,438.48	64.1616	4,438.48	58.4001	4,438.48	55.2585
4,595.21	85.6836	4,595.21	85.2387	4,595.21	85.5276	4,595.21	85.2422	4,595.21	84.4863	4,595.21	84.1813	4,595.21	83.5437	4,595.21	82.8604	4,595.21	81.9128	4,595.21	81.3562	4,595.21	80.2466	4,595.21	79.6997	4,595.21	77.9743	4,595.21	77.5319	4,595.21	75.167	4,595.21	74.7591	4,595.21	72.5781	4,595.21	71.3363	4,595.21	69.8953	4,595.21	67.3884	4,595.21	66.3419	4,595.21	66.7886	4,595.21	64.8822	4,595.21	65.5152	4,595.21	64.0797	4,595.21	63.8377	4,595.21	56.4162	4,595.21	61.1835	4,595.21	63.3794	4,595.21	62.547	4,595.21	65.1663	4,595.21	63.6738	4,595.21	62.9593	4,595.21	63.0926	4,595.21	59.8265	4,595.21	54.6288
4,756.35	85.9843	4,756.35	85.9281	4,756.35	85.5489	4,756.35	85.3492	4,756.35	85.2288	4,756.35	84.4208	4,756.35	83.5171	4,756.35	82.6489	4,756.35	82.5785	4,756.35	81.1409	4,756.35	81.0392	4,756.35	79.019	4,756.35	78.4023	4,756.35	76.394	4,756.35	75.0118	4,756.35	73.0212	4,756.35	72.3607	4,756.35	70.905	4,756.35	69.5822	4,756.35	69.1568	4,756.35	67.9878	4,756.35	64.9584	4,756.35	64.7215	4,756.35	64.417	4,756.35	63.5601	4,756.35	60.6863	4,756.35	62.0086	4,756.35	63.4665	4,756.35	63.9033	4,756.35	63.2559	4,756.35	64.3575	4,756.35	63.4364	4,756.35	61.303	4,756.35	62.8182	4,756.35	57.9433	4,756.35	59.0042
4,924.8	86.8226	4,924.8	86.576	4,924.8	86.555	4,924.8	85.968	4,924.8	85.2486	4,924.8	84.6888	4,924.8	83.9762	4,924.8	83.6341	4,924.8	82.389	4,924.8	82.3693	4,924.8	80.542	4,924.8	79.9014	4,924.8	78.2246	4,924.8	76.7706	4,924.8	75.2689	4,924.8	74.6933	4,924.8	71.8283	4,924.8	71.5283	4,924.8	69.7583	4,924.8	68.8454	4,924.8	68.0264	4,924.8	67.0788	4,924.8	64.7855	4,924.8	63.9618	4,924.8	64.3191	4,924.8	61.2232	4,924.8	62.0877	4,924.8	59.465	4,924.8	63.5161	4,924.8	64.2768	4,924.8	65.2731	4,924.8	65.4388	4,924.8	63.8854	4,924.8	62.6966	4,924.8	58.2022	4,924.8	58.7537
5,097.66	85.9532	5,097.66	85.8167	5,097.66	85.6885	5,097.66	85.1585	5,097.66	84.7204	5,097.66	83.876	5,097.66	83.0537	5,097.66	82.6683	5,097.66	82.3534	5,097.66	80.9343	5,097.66	80.7101	5,097.66	78.4733	5,097.66	77.5709	5,097.66	76.497	5,097.66	75.0822	5,097.66	73.4277	5,097.66	73.6966	5,097.66	72.311	5,097.66	69.5647	5,097.66	67.9611	5,097.66	67.8741	5,097.66	67.107	5,097.66	65.4471	5,097.66	64.5706	5,097.66	61.2074	5,097.66	64.354	5,097.66	62.6457	5,097.66	63.181	5,097.66	62.89	5,097.66	64.5063	5,097.66	64.6536	5,097.66	65.7815	5,097.66	62.9666	5,097.66	61.9213	5,097.66	57.915	5,097.66	58.7828
5,277.83	85.7679	5,277.83	85.7262	5,277.83	85.5653	5,277.83	85.3706	5,277.83	84.3784	5,277.83	83.9818	5,277.83	83.1249	5,277.83	82.8318	5,277.83	82.2173	5,277.83	81.5584	5,277.83	79.9418	5,277.83	78.9949	5,277.83	77.8213	5,277.83	76.5291	5,277.83	75.9758	5,277.83	73.8531	5,277.83	71.4832	5,277.83	70.9932	5,277.83	70.7243	5,277.83	70.0162	5,277.83	66.9906	5,277.83	67.01	5,277.83	64.4588	5,277.83	63.1487	5,277.83	63.3801	5,277.83	61.3585	5,277.83	62.6988	5,277.83	61.9755	5,277.83	63.5328	5,277.83	63.0102	5,277.83	64.3066	5,277.83	65.1318	5,277.83	61.9587	5,277.83	61.6445	5,277.83	57.5289	5,277.83	59.7482
5,463.87	85.0813	5,463.87	85.2633	5,463.87	85.0681	5,463.87	84.9032	5,463.87	84.0404	5,463.87	83.6546	5,463.87	83.2208	5,463.87	82.7931	5,463.87	82.0388	5,463.87	81.1284	5,463.87	80.1508	5,463.87	78.8121	5,463.87	77.9629	5,463.87	77.0955	5,463.87	75.2621	5,463.87	75.2589	5,463.87	74.0654	5,463.87	72.1201	5,463.87	71.3297	5,463.87	70.3701	5,463.87	68.144	5,463.87	68.0767	5,463.87	65.4223	5,463.87	64.8951	5,463.87	62.8666	5,463.87	64.1882	5,463.87	62.6268	5,463.87	56.3937	5,463.87	64.6453	5,463.87	63.6562	5,463.87	64.3404	5,463.87	66.4559	5,463.87	63.3517	5,463.87	60.9265	5,463.87	56.7954	5,463.87	60.2763
5,657.23	84.9153	5,657.23	84.9845	5,657.23	84.8017	5,657.23	84.7541	5,657.23	84.2864	5,657.23	83.9923	5,657.23	83.3898	5,657.23	83.0023	5,657.23	81.9634	5,657.23	81.083	5,657.23	79.9895	5,657.23	79.085	5,657.23	77.9263	5,657.23	77.4756	5,657.23	76.4477	5,657.23	73.8374	5,657.23	72.9598	5,657.23	71.4121	5,657.23	70.7845	5,657.23	68.0836	5,657.23	68.3243	5,657.23	66.1302	5,657.23	65.6454	5,657.23	63.6994	5,657.23	64.5428	5,657.23	63.4832	5,657.23	62.2191	5,657.23	63.1039	5,657.23	62.53	5,657.23	65.3288	5,657.23	63.5825	5,657.23	65.6668	5,657.23	63.758	5,657.23	61.8883	5,657.23	57.4449	5,657.23	61.6529
5,856.45	84.1472	5,856.45	84.2715	5,856.45	84.5492	5,856.45	83.8427	5,856.45	83.6901	5,856.45	83.3576	5,856.45	83.2831	5,856.45	82.3613	5,856.45	81.6922	5,856.45	80.1823	5,856.45	79.5853	5,856.45	78.7635	5,856.45	77.9771	5,856.45	75.8967	5,856.45	75.1025	5,856.45	74.663	5,856.45	72.8302	5,856.45	71.3468	5,856.45	70.211	5,856.45	69.3223	5,856.45	66.8455	5,856.45	67.4447	5,856.45	65.5661	5,856.45	64.0641	5,856.45	64.5738	5,856.45	62.0147	5,856.45	59.682	5,856.45	58.1204	5,856.45	63.493	5,856.45	63.1823	5,856.45	64.1379	5,856.45	65.7991	5,856.45	63.6754	5,856.45	61.4215	5,856.45	56.6472	5,856.45	57.1818
6,062.99	85.306	6,062.99	85.3955	6,062.99	85.091	6,062.99	84.9463	6,062.99	84.687	6,062.99	84.0899	6,062.99	83.2076	6,062.99	82.5432	6,062.99	81.5469	6,062.99	80.97	6,062.99	80.2253	6,062.99	79.6279	6,062.99	78.4653	6,062.99	77.6793	6,062.99	76.3358	6,062.99	74.0776	6,062.99	72.637	6,062.99	70.5043	6,062.99	69.3485	6,062.99	66.4158	6,062.99	66.8186	6,062.99	64.3087	6,062.99	64.7833	6,062.99	62.3318	6,062.99	62.7381	6,062.99	62.1075	6,062.99	60.7619	6,062.99	60.3933	6,062.99	61.3363	6,062.99	64.171	6,062.99	64.1856	6,062.99	64.3896	6,062.99	64.0875	6,062.99	58.6048	6,062.99	56.3098	6,062.99	60.2552
6,276.86	85.1487	6,276.86	84.8692	6,276.86	84.7585	6,276.86	84.2983	6,276.86	83.7531	6,276.86	83.0802	6,276.86	82.6249	6,276.86	81.2908	6,276.86	80.772	6,276.86	79.909	6,276.86	79.561	6,276.86	78.4583	6,276.86	77.7693	6,276.86	76.0017	6,276.86	74.8205	6,276.86	73.2347	6,276.86	72.0404	6,276.86	69.6523	6,276.86	69.336	6,276.86	68.6377	6,276.86	65.281	6,276.86	65.8184	6,276.86	64.325	6,276.86	61.8927	6,276.86	61.1826	6,276.86	59.2245	6,276.86	60.8861	6,276.86	59.4698	6,276.86	60.0213	6,276.86	63.168	6,276.86	63.2793	6,276.86	63.4346	6,276.86	62.0567	6,276.86	60.0972	6,276.86	56.8128	6,276.86	56.6651
6,498.05	85.7757	6,498.05	85.2927	6,498.05	84.6716	6,498.05	84.6733	6,498.05	84.1754	6,498.05	83.4492	6,498.05	82.4742	6,498.05	81.6303	6,498.05	80.9177	6,498.05	80.3784	6,498.05	80.0143	6,498.05	78.5038	6,498.05	77.7502	6,498.05	76.1101	6,498.05	74.8481	6,498.05	72.7141	6,498.05	72.1096	6,498.05	70.5987	6,498.05	69.845	6,498.05	67.6903	6,498.05	67.0213	6,498.05	65.6097	6,498.05	64.5669	6,498.05	61.4743	6,498.05	61.3033	6,498.05	61.7078	6,498.05	60.4879	6,498.05	56.0687	6,498.05	59.3735	6,498.05	62.953	6,498.05	62.3928	6,498.05	63.2442	6,498.05	61.9538	6,498.05	57.1994	6,498.05	54.4229	6,498.05	55.622
6,726.56	86.1146	6,726.56	85.788	6,726.56	85.3458	6,726.56	85.0027	6,726.56	84.5516	6,726.56	83.9346	6,726.56	83.1079	6,726.56	81.8349	6,726.56	81.5764	6,726.56	81.0077	6,726.56	79.8717	6,726.56	78.6843	6,726.56	77.5043	6,726.56	76.3068	6,726.56	74.2616	6,726.56	73.5004	6,726.56	72.4801	6,726.56	71.0142	6,726.56	69.7709	6,726.56	68.6959	6,726.56	67.0966	6,726.56	65.3239	6,726.56	64.5208	6,726.56	62.9321	6,726.56	61.5558	6,726.56	60.4119	6,726.56	60.3434	6,726.56	59.0125	6,726.56	59.6444	6,726.56	62.0243	6,726.56	61.3008	6,726.56	62.2042	6,726.56	61.7014	6,726.56	56.6283	6,726.56	52.4479	6,726.56	55.2324
6,963.87	85.9918	6,963.87	85.3872	6,963.87	85.0742	6,963.87	84.8771	6,963.87	84.5996	6,963.87	83.6153	6,963.87	82.8122	6,963.87	82.061	6,963.87	81.7393	6,963.87	80.4596	6,963.87	79.8498	6,963.87	78.2331	6,963.87	77.3457	6,963.87	75.1971	6,963.87	75.4245	6,963.87	73.0958	6,963.87	72.1445	6,963.87	70.4554	6,963.87	69.3012	6,963.87	67.565	6,963.87	66.823	6,963.87	65.8367	6,963.87	64.8072	6,963.87	62.9075	6,963.87	61.1759	6,963.87	61.5595	6,963.87	58.73	6,963.87	56.5013	6,963.87	57.5498	6,963.87	61.2076	6,963.87	61.8518	6,963.87	62.0271	6,963.87	62.3041	6,963.87	50.3727	6,963.87	47.3551	6,963.87	56.4117
7,209.96	86.3248	7,209.96	85.7889	7,209.96	85.5091	7,209.96	85.3744	7,209.96	85.1318	7,209.96	84.2619	7,209.96	83.7416	7,209.96	82.9845	7,209.96	82.1891	7,209.96	81.2177	7,209.96	79.8376	7,209.96	78.8101	7,209.96	77.9356	7,209.96	76.8205	7,209.96	75.5688	7,209.96	74.3643	7,209.96	72.6601	7,209.96	71.5364	7,209.96	69.4983	7,209.96	68.2481	7,209.96	67.0222	7,209.96	66.1064	7,209.96	63.9528	7,209.96	63.1538	7,209.96	61.0406	7,209.96	60.4741	7,209.96	60.9207	7,209.96	57.5425	7,209.96	59.2336	7,209.96	61.322	7,209.96	61.5896	7,209.96	60.8473	7,209.96	60.0672	7,209.96	49.5259	7,209.96	50.1012	7,209.96	55.6328
7,464.84	86.1805	7,464.84	85.8357	7,464.84	85.612	7,464.84	85.6026	7,464.84	85.2599	7,464.84	84.4943	7,464.84	83.8351	7,464.84	83.478	7,464.84	82.2417	7,464.84	81.0117	7,464.84	79.8163	7,464.84	79.078	7,464.84	77.762	7,464.84	76.4856	7,464.84	75.2407	7,464.84	73.4377	7,464.84	71.8684	7,464.84	69.7512	7,464.84	68.667	7,464.84	67.3488	7,464.84	66.1479	7,464.84	64.7341	7,464.84	62.9811	7,464.84	62.4487	7,464.84	58.5254	7,464.84	59.3494	7,464.84	60.3263	7,464.84	57.5025	7,464.84	58.2887	7,464.84	60.6007	7,464.84	60.0233	7,464.84	59.7271	7,464.84	59.3647	7,464.84	48.3435	7,464.84	49.3395	7,464.84	57.9699
7,727.05	85.3193	7,727.05	85.069	7,727.05	85.221	7,727.05	85.0729	7,727.05	84.9345	7,727.05	84.0752	7,727.05	84.2215	7,727.05	82.4549	7,727.05	82.008	7,727.05	79.9979	7,727.05	79.6589	7,727.05	77.8733	7,727.05	77.7364	7,727.05	75.0884	7,727.05	74.6932	7,727.05	72.9009	7,727.05	72.4831	7,727.05	70.0867	7,727.05	69.3742	7,727.05	67.6629	7,727.05	66.7713	7,727.05	65.0184	7,727.05	63.3263	7,727.05	61.4861	7,727.05	60.991	7,727.05	60.7886	7,727.05	60.5476	7,727.05	56.5685	7,727.05	59.0591	7,727.05	59.7643	7,727.05	60.9204	7,727.05	60.2983	7,727.05	60.562	7,727.05	43.1885	7,727.05	40.5591	7,727.05	58.1861
7,999.51	84.4487	7,999.51	84.4631	7,999.51	84.5941	7,999.51	84.5915	7,999.51	84.0424	7,999.51	84.1104	7,999.51	83.5061	7,999.51	82.5839	7,999.51	80.9925	7,999.51	80.1245	7,999.51	79.0327	7,999.51	78.3975	7,999.51	77.1288	7,999.51	76.0839	7,999.51	74.8107	7,999.51	73.3653	7,999.51	71.6549	7,999.51	70.6464	7,999.51	69.0285	7,999.51	67.3168	7,999.51	65.7749	7,999.51	65.05	7,999.51	63.5105	7,999.51	62.0646	7,999.51	60.7429	7,999.51	60.0705	7,999.51	57.7679	7,999.51	57.5417	7,999.51	56.2147	7,999.51	57.9619	7,999.51	58.846	7,999.51	59.7745	7,999.51	61.3048	7,999.51	49.5077	7,999.51	40.4442	7,999.51	57.1126
8,282.23	84.3034	8,282.23	84.416	8,282.23	84.4736	8,282.23	83.9861	8,282.23	83.577	8,282.23	83.5528	8,282.23	83.0914	8,282.23	81.7181	8,282.23	80.7216	8,282.23	79.8176	8,282.23	79.0823	8,282.23	78.1313	8,282.23	76.8594	8,282.23	75.8109	8,282.23	74.6496	8,282.23	72.6242	8,282.23	70.7967	8,282.23	69.3596	8,282.23	68.1332	8,282.23	66.1708	8,282.23	65.2997	8,282.23	64.3871	8,282.23	62.6161	8,282.23	60.7986	8,282.23	60.3495	8,282.23	59.2901	8,282.23	60.0816	8,282.23	57.2274	8,282.23	57.0902	8,282.23	57.6459	8,282.23	59.7285	8,282.23	59.4448	8,282.23	61.4716	8,282.23	51.3776	8,282.23	29.7635	8,282.23	57.495
8,573.73	84.8317	8,573.73	85.0206	8,573.73	84.6486	8,573.73	83.9724	8,573.73	83.5424	8,573.73	83.3869	8,573.73	82.7818	8,573.73	81.6957	8,573.73	80.8598	8,573.73	80.1437	8,573.73	79.09	8,573.73	77.8308	8,573.73	76.6523	8,573.73	75.5042	8,573.73	73.9575	8,573.73	72.4421	8,573.73	70.859	8,573.73	69.0318	8,573.73	67.892	8,573.73	66.895	8,573.73	65.4796	8,573.73	63.4843	8,573.73	62.4884	8,573.73	61.2356	8,573.73	60.4223	8,573.73	59.9362	8,573.73	60.291	8,573.73	56.5029	8,573.73	57.8367	8,573.73	56.9233	8,573.73	59.3871	8,573.73	57.3064	8,573.73	61.5213	8,573.73	51.324	8,573.73	47.075	8,573.73	55.3769
8,876.95	85.0374	8,876.95	85.195	8,876.95	84.6521	8,876.95	83.9666	8,876.95	83.5558	8,876.95	83.5393	8,876.95	82.698	8,876.95	82.1249	8,876.95	81.1752	8,876.95	80.2797	8,876.95	79.0423	8,876.95	77.7347	8,876.95	76.5159	8,876.95	75.0305	8,876.95	73.8239	8,876.95	72.1646	8,876.95	70.953	8,876.95	68.3182	8,876.95	67.7997	8,876.95	66.4054	8,876.95	64.7136	8,876.95	63.306	8,876.95	61.5513	8,876.95	61.4041	8,876.95	59.8559	8,876.95	59.2747	8,876.95	58.7866	8,876.95	56.1434	8,876.95	55.8089	8,876.95	55.2716	8,876.95	57.2571	8,876.95	54.0773	8,876.95	59.4459	8,876.95	53.0847	8,876.95	41.5613	8,876.95	53.1333
9,188.96	85.4003	9,188.96	85.6001	9,188.96	85.0994	9,188.96	84.7082	9,188.96	84.1887	9,188.96	84.1941	9,188.96	83.0673	9,188.96	82.8194	9,188.96	81.7377	9,188.96	80.7163	9,188.96	79.0622	9,188.96	78.0598	9,188.96	76.4492	9,188.96	75.176	9,188.96	73.6368	9,188.96	72.5778	9,188.96	71.2046	9,188.96	68.9185	9,188.96	67.5249	9,188.96	66.5329	9,188.96	64.6819	9,188.96	63.1994	9,188.96	62.3114	9,188.96	60.6648	9,188.96	60.0658	9,188.96	57.2541	9,188.96	58.3523	9,188.96	56.6099	9,188.96	56.1389	9,188.96	54.4203	9,188.96	57.0885	9,188.96	53.5541	9,188.96	58.7495	9,188.96	49.6676	9,188.96	44.9161	9,188.96	50.0136
9,514.16	84.9614	9,514.16	85.1236	9,514.16	84.9843	9,514.16	84.767	9,514.16	84.4619	9,514.16	83.8879	9,514.16	83.158	9,514.16	82.8194	9,514.16	81.742	9,514.16	80.0633	9,514.16	78.7772	9,514.16	77.1993	9,514.16	75.9676	9,514.16	74.2916	9,514.16	72.7959	9,514.16	71.4138	9,514.16	70.8605	9,514.16	68.7454	9,514.16	67.4355	9,514.16	66.2612	9,514.16	64.9004	9,514.16	62.7006	9,514.16	61.245	9,514.16	60.7161	9,514.16	60.1341	9,514.16	56.9417	9,514.16	56.0218	9,514.16	54.512	9,514.16	53.8425	9,514.16	52.6336	9,514.16	54.9383	9,514.16	51.6796	9,514.16	56.0068	9,514.16	50.1942	9,514.16	37.6478	9,514.16	42.9925
9,849.61	84.2494	9,849.61	84.348	9,849.61	84.398	9,849.61	84.4683	9,849.61	84.2249	9,849.61	83.5325	9,849.61	82.7734	9,849.61	82.5237	9,849.61	81.2574	9,849.61	79.4907	9,849.61	78.5047	9,849.61	76.8052	9,849.61	75.9557	9,849.61	74.032	9,849.61	73.2982	9,849.61	71.7667	9,849.61	70.1916	9,849.61	69.0102	9,849.61	67.5009	9,849.61	65.9416	9,849.61	64.6599	9,849.61	62.7301	9,849.61	61.0321	9,849.61	60.4392	9,849.61	59.5496	9,849.61	54.8386	9,849.61	54.9936	9,849.61	54.9447	9,849.61	53.8688	9,849.61	50.9269	9,849.61	53.4555	9,849.61	51.7247	9,849.61	54.8563	9,849.61	48.9891	9,849.61	39.9552	9,849.61	45.3786
10,196.8	84.0123	10,196.8	84.0777	10,196.8	84.2576	10,196.8	84.1558	10,196.8	83.8498	10,196.8	83.1278	10,196.8	82.6576	10,196.8	82.062	10,196.8	81.1128	10,196.8	79.6044	10,196.8	78.6409	10,196.8	77.1029	10,196.8	76.0875	10,196.8	74.2978	10,196.8	73.5336	10,196.8	71.8487	10,196.8	70.4476	10,196.8	69.1839	10,196.8	67.5345	10,196.8	64.8768	10,196.8	63.4139	10,196.8	63.0357	10,196.8	61.2811	10,196.8	60.8962	10,196.8	59.7651	10,196.8	54.1422	10,196.8	54.0241	10,196.8	53.2166	10,196.8	54.2273	10,196.8	48.6618	10,196.8	53.4414	10,196.8	51.7495	10,196.8	53.0036	10,196.8	44.6393	10,196.8	40.9792	10,196.8	49.0386
10,555.7	83.7459	10,555.7	83.7454	10,555.7	83.6764	10,555.7	83.6213	10,555.7	83.0819	10,555.7	82.7705	10,555.7	82.3676	10,555.7	81.5681	10,555.7	80.5222	10,555.7	79.4745	10,555.7	78.2685	10,555.7	76.7428	10,555.7	75.2974	10,555.7	73.669	10,555.7	72.3259	10,555.7	70.9741	10,555.7	68.7592	10,555.7	67.9945	10,555.7	66.199	10,555.7	63.925	10,555.7	62.31	10,555.7	61.8583	10,555.7	60.2096	10,555.7	60.0461	10,555.7	58.8153	10,555.7	52.6245	10,555.7	53.3331	10,555.7	52.5954	10,555.7	53.2525	10,555.7	43.5439	10,555.7	51.0009	10,555.7	49.7855	10,555.7	46.739	10,555.7	41.2989	10,555.7	46.2336	10,555.7	51.2314
10,927.7	82.8329	10,927.7	82.7155	10,927.7	82.7532	10,927.7	82.5405	10,927.7	82.1729	10,927.7	81.8563	10,927.7	81.6116	10,927.7	80.4833	10,927.7	79.7402	10,927.7	78.4965	10,927.7	77.1009	10,927.7	75.1497	10,927.7	73.8774	10,927.7	71.7756	10,927.7	70.5925	10,927.7	68.7279	10,927.7	66.6034	10,927.7	65.2658	10,927.7	64.7027	10,927.7	61.909	10,927.7	60.4538	10,927.7	60.0843	10,927.7	58.6823	10,927.7	57.2861	10,927.7	56.3972	10,927.7	47.4651	10,927.7	50.944	10,927.7	50.771	10,927.7	50.3805	10,927.7	40.2166	10,927.7	46.8313	10,927.7	46.8542	10,927.7	43.6271	10,927.7	32.54	10,927.7	46.2078	10,927.7	50.9196
11,313	81.433	11,313	81.29	11,313	81.487	11,313	81.3821	11,313	81.125	11,313	80.7381	11,313	80.432	11,313	79.2501	11,313	78.6206	11,313	76.8757	11,313	75.7175	11,313	73.6986	11,313	72.6301	11,313	69.8838	11,313	69.3613	11,313	67.248	11,313	65.9129	11,313	64.9569	11,313	63.4316	11,313	61.4079	11,313	59.5224	11,313	59.865	11,313	57.5777	11,313	55.9453	11,313	55.386	11,313	39.9531	11,313	49.0066	11,313	43.5361	11,313	49.3105	11,313	39.8416	11,313	45.567	11,313	44.883	11,313	38.8215	11,313	36.7903	11,313	42.657	11,313	45.6717
11,712.9	79.1352	11,712.9	79.3705	11,712.9	79.2626	11,712.9	79.749	11,712.9	78.8523	11,712.9	79.081	11,712.9	77.6799	11,712.9	77.6472	11,712.9	75.9172	11,712.9	75.0353	11,712.9	72.6031	11,712.9	72.255	11,712.9	69.7583	11,712.9	68.9737	11,712.9	66.8442	11,712.9	66.7158	11,712.9	64.5414	11,712.9	63.7488	11,712.9	61.4126	11,712.9	60.564	11,712.9	57.6613	11,712.9	58.3887	11,712.9	56.4446	11,712.9	54.2788	11,712.9	51.9933	11,712.9	44.1433	11,712.9	49.8581	11,712.9	41.3979	11,712.9	45.9241	11,712.9	40.8086	11,712.9	45.0654	11,712.9	41.6196	11,712.9	25.5108	11,712.9	20.7369	11,712.9	37.563	11,712.9	40.375
12,126	81.0234	12,126	81.4358	12,126	81.3479	12,126	81.7562	12,126	80.9568	12,126	80.9747	12,126	79.8065	12,126	79.8391	12,126	77.9202	12,126	77.0351	12,126	75.2665	12,126	74.1698	12,126	71.6505	12,126	71.4764	12,126	69.8346	12,126	68.5357	12,126	66.8924	12,126	65.0749	12,126	62.52	12,126	61.606	12,126	59.1468	12,126	59.0233	12,126	57.0448	12,126	55.4437	12,126	53.188	12,126	46.1811	12,126	50.7125	12,126	45.383	12,126	44.9888	12,126	44.3701	12,126	47.1433	12,126	44.4783	12,126	38.7688	12,126	40.9409	12,126	38.4127	12,126	37.0386
12,553.7	81.4587	12,553.7	81.9574	12,553.7	81.5134	12,553.7	82.3127	12,553.7	81.0626	12,553.7	81.7059	12,553.7	80.028	12,553.7	80.7166	12,553.7	78.1689	12,553.7	78.0623	12,553.7	75.606	12,553.7	74.9566	12,553.7	72.194	12,553.7	72.117	12,553.7	68.9562	12,553.7	68.4793	12,553.7	65.7645	12,553.7	65.1627	12,553.7	61.2448	12,553.7	61.7108	12,553.7	58.8037	12,553.7	59.3997	12,553.7	56.5771	12,553.7	54.6694	12,553.7	52.3714	12,553.7	48.9766	12,553.7	52.02	12,553.7	44.1384	12,553.7	47.0117	12,553.7	43.9747	12,553.7	48.0103	12,553.7	44.4315	12,553.7	40.3692	12,553.7	41.5474	12,553.7	43.56	12,553.7	32.314
12,996.1	82.004	12,996.1	82.3056	12,996.1	81.6992	12,996.1	82.5739	12,996.1	81.257	12,996.1	82.1577	12,996.1	80.4269	12,996.1	81.1752	12,996.1	78.4415	12,996.1	78.643	12,996.1	75.8446	12,996.1	75.2329	12,996.1	72.6618	12,996.1	71.9506	12,996.1	68.2238	12,996.1	68.8704	12,996.1	65.9697	12,996.1	65.3505	12,996.1	62.2036	12,996.1	62.1573	12,996.1	59.524	12,996.1	59.205	12,996.1	57.0059	12,996.1	54.4853	12,996.1	52.3899	12,996.1	50.0547	12,996.1	49.9844	12,996.1	43.3885	12,996.1	46.179	12,996.1	43.6777	12,996.1	47.5428	12,996.1	45.6709	12,996.1	25.8107	12,996.1	40.4428	12,996.1	45.8222	12,996.1	39.2415
13,454.6	84.2393	13,454.6	84.0073	13,454.6	83.9336	13,454.6	84.0578	13,454.6	83.9126	13,454.6	83.1809	13,454.6	82.8794	13,454.6	81.6838	13,454.6	80.7431	13,454.6	79.3808	13,454.6	78.3215	13,454.6	75.8079	13,454.6	74.4732	13,454.6	71.7848	13,454.6	71.9571	13,454.6	68.8219	13,454.6	68.9514	13,454.6	65.5595	13,454.6	64.4342	13,454.6	62.3646	13,454.6	62.1161	13,454.6	58.5208	13,454.6	58.8939	13,454.6	54.6173	13,454.6	52.6432	13,454.6	49.5115	13,454.6	52.8975	13,454.6	44.8286	13,454.6	46.4722	13,454.6	47.768	13,454.6	49.3713	13,454.6	45.8081	13,454.6	43.1591	13,454.6	34.79	13,454.6	46.2922	13,454.6	43.1537
13,929.2	85.3802	13,929.2	85.2185	13,929.2	85.3291	13,929.2	85.3006	13,929.2	85.1762	13,929.2	84.2471	13,929.2	83.784	13,929.2	82.4142	13,929.2	81.9018	13,929.2	80.1864	13,929.2	79.1432	13,929.2	76.7143	13,929.2	75.9571	13,929.2	72.8412	13,929.2	72.4656	13,929.2	69.4306	13,929.2	69.3715	13,929.2	66.2434	13,929.2	65.1408	13,929.2	62.6734	13,929.2	62.9083	13,929.2	59.4829	13,929.2	58.8118	13,929.2	56.5061	13,929.2	53.0732	13,929.2	50.2416	13,929.2	55.6952	13,929.2	47.7377	13,929.2	44.1815	13,929.2	48.8615	13,929.2	47.4139	13,929.2	43.54	13,929.2	45.0254	13,929.2	45.1065	13,929.2	41.7055	13,929.2	47.7439
14,419.9	85.1548	14,419.9	85.205	14,419.9	85.4937	14,419.9	85.4058	14,419.9	85.1795	14,419.9	84.6579	14,419.9	83.8718	14,419.9	82.7428	14,419.9	82.021	14,419.9	80.2539	14,419.9	78.8394	14,419.9	77.0515	14,419.9	75.9393	14,419.9	72.9955	14,419.9	71.7197	14,419.9	68.922	14,419.9	69.2976	14,419.9	65.6175	14,419.9	64.9641	14,419.9	62.3765	14,419.9	62.0679	14,419.9	59.2217	14,419.9	58.1502	14,419.9	55.988	14,419.9	53.8115	14,419.9	44.6902	14,419.9	57.6663	14,419.9	47.6894	14,419.9	40.4549	14,419.9	49.6956	14,419.9	45.4012	14,419.9	39.9287	14,419.9	45.2333	14,419.9	45.8726	14,419.9	39.3009	14,419.9	46.5587
14,928.2	84.254	14,928.2	84.4769	14,928.2	84.4054	14,928.2	84.9203	14,928.2	84.319	14,928.2	84.649	14,928.2	83.1459	14,928.2	82.7228	14,928.2	81.1941	14,928.2	80.3357	14,928.2	78.2446	14,928.2	77.1968	14,928.2	74.5494	14,928.2	72.8702	14,928.2	70.88	14,928.2	68.326	14,928.2	67.88	14,928.2	65.0611	14,928.2	62.9844	14,928.2	62.026	14,928.2	61.6412	14,928.2	59.1228	14,928.2	57.8312	14,928.2	54.5638	14,928.2	52.5944	14,928.2	46.3061	14,928.2	54.593	14,928.2	46.4181	14,928.2	38.2551	14,928.2	47.2144	14,928.2	43.9828	14,928.2	44.6221	14,928.2	47.6514	14,928.2	46.6163	14,928.2	46.1566	14,928.2	45.9145
15,455.6	83.81	15,455.6	83.5877	15,455.6	83.8549	15,455.6	83.6527	15,455.6	83.977	15,455.6	83.0766	15,455.6	82.9497	15,455.6	81.2358	15,455.6	80.9903	15,455.6	78.6809	15,455.6	78.268	15,455.6	75.4654	15,455.6	74.5021	15,455.6	71.2645	15,455.6	70.9085	15,455.6	67.8395	15,455.6	68.8718	15,455.6	64.2789	15,455.6	63.6461	15,455.6	59.7951	15,455.6	61.7544	15,455.6	57.9188	15,455.6	57.5602	15,455.6	51.3587	15,455.6	50.7129	15,455.6	47.7297	15,455.6	54.1318	15,455.6	48.2145	15,455.6	41.5787	15,455.6	40.229	15,455.6	46.5063	15,455.6	49.0809	15,455.6	52.5519	15,455.6	48.3052	15,455.6	46.3842	15,455.6	51.8676
16,000.5	83.2612	16,000.5	82.9908	16,000.5	83.3277	16,000.5	83.2976	16,000.5	83.0955	16,000.5	82.4495	16,000.5	82.0079	16,000.5	80.7034	16,000.5	79.9689	16,000.5	77.9154	16,000.5	77.0159	16,000.5	74.6154	16,000.5	73.513	16,000.5	71.2665	16,000.5	70.4908	16,000.5	67.6812	16,000.5	66.7458	16,000.5	63.7868	16,000.5	62.4333	16,000.5	59.819	16,000.5	59.9376	16,000.5	56.5254	16,000.5	55.6666	16,000.5	50.2896	16,000.5	50.1308	16,000.5	47.0551	16,000.5	54.0327	16,000.5	47.1157	16,000.5	44.1838	16,000.5	45.5421	16,000.5	47.7003	16,000.5	50.4789	16,000.5	54.6362	16,000.5	48.3313	16,000.5	50.3362	16,000.5	52.5177
16,564.5	83.4546	16,564.5	82.9544	16,564.5	83.9933	16,564.5	83.1774	16,564.5	84.1667	16,564.5	82.0879	16,564.5	83.0291	16,564.5	80.0603	16,564.5	80.8813	16,564.5	77.1002	16,564.5	77.899	16,564.5	73.5576	16,564.5	74.3802	16,564.5	70.3143	16,564.5	71.0086	16,564.5	66.5455	16,564.5	67.6266	16,564.5	62.8233	16,564.5	63.5334	16,564.5	59.7066	16,564.5	60.6539	16,564.5	54.4605	16,564.5	56.7053	16,564.5	48.8159	16,564.5	49.8903	16,564.5	48.4357	16,564.5	55.3495	16,564.5	47.7328	16,564.5	45.0147	16,564.5	47.1433	16,564.5	48.1946	16,564.5	50.5563	16,564.5	54.931	16,564.5	45.2396	16,564.5	51.774	16,564.5	51.4966
17,148.9	82.6327	17,148.9	82.1189	17,148.9	82.8258	17,148.9	82.8177	17,148.9	83.1322	17,148.9	81.9723	17,148.9	81.9559	17,148.9	80.111	17,148.9	79.7468	17,148.9	77.038	17,148.9	76.7292	17,148.9	73.6049	17,148.9	73.4859	17,148.9	69.714	17,148.9	70.0121	17,148.9	66.208	17,148.9	66.6621	17,148.9	62.6166	17,148.9	62.3698	17,148.9	59.26	17,148.9	58.6812	17,148.9	54.5668	17,148.9	54.9204	17,148.9	50.9187	17,148.9	47.1463	17,148.9	49.3334	17,148.9	54.3357	17,148.9	47.5245	17,148.9	47.2853	17,148.9	46.1979	17,148.9	48.5859	17,148.9	50.008	17,148.9	56.0994	17,148.9	45.5917	17,148.9	53.6233	17,148.9	51.7471
17,752.4	82.5934	17,752.4	80.9749	17,752.4	83.4708	17,752.4	81.0645	17,752.4	84.5934	17,752.4	79.9851	17,752.4	83.6668	17,752.4	78.0102	17,752.4	81.5287	17,752.4	74.4558	17,752.4	78.3478	17,752.4	70.9332	17,752.4	75.215	17,752.4	66.5682	17,752.4	71.6799	17,752.4	63.3413	17,752.4	68.4964	17,752.4	59.8932	17,752.4	64.1647	17,752.4	56.9066	17,752.4	60.4354	17,752.4	52.4187	17,752.4	56.5236	17,752.4	48.3603	17,752.4	48.5798	17,752.4	47.9466	17,752.4	56.1726	17,752.4	47.4263	17,752.4	49.2248	17,752.4	44.496	17,752.4	49.3964	17,752.4	47.1618	17,752.4	55.4279	17,752.4	52.2901	17,752.4	54.1999	17,752.4	51.3676
18,379.4	83.6651	18,379.4	80.9607	18,379.4	85.5841	18,379.4	78.4651	18,379.4	87.3893	18,379.4	74.9214	18,379.4	86.7109	18,379.4	70.6885	18,379.4	84.6196	18,379.4	65.9192	18,379.4	81.358	18,379.4	61.2927	18,379.4	78.2206	18,379.4	57.5143	18,379.4	74.5407	18,379.4	55.2585	18,379.4	71.5157	18,379.4	47.4549	18,379.4	67.0163	18,379.4	48.3729	18,379.4	63.9244	18,379.4	47.5287	18,379.4	59.5581	18,379.4	44.291	18,379.4	53.7017	18,379.4	47.439	18,379.4	60.9682	18,379.4	50.5703	18,379.4	50.7551	18,379.4	51.321	18,379.4	46.4823	18,379.4	52.0349	18,379.4	46.4616	18,379.4	57.2864	18,379.4	51.1777	18,379.4	53.1138
19,026.9	85.7871	19,026.9	83.8183	19,026.9	87.775	19,026.9	81.6828	19,026.9	89.8019	19,026.9	79.6053	19,026.9	89.1954	19,026.9	77.7103	19,026.9	86.9258	19,026.9	75.2764	19,026.9	83.4431	19,026.9	72.2214	19,026.9	80.3143	19,026.9	68.9068	19,026.9	76.2822	19,026.9	63.9573	19,026.9	73.2413	19,026.9	62.7714	19,026.9	68.7649	19,026.9	57.0293	19,026.9	65.8279	19,026.9	46.3181	19,026.9	62.0016	19,026.9	36.6266	19,026.9	56.6009	19,026.9	42.0439	19,026.9	64.4389	19,026.9	55.8666	19,026.9	52.6149	19,026.9	55.7536	19,026.9	52.5468	19,026.9	57.7368	19,026.9	52.7744	19,026.9	61.3989	19,026.9	31.3242	19,026.9	57.0232
19,697.8	85.9602	19,697.8	86.3648	19,697.8	87.2539	19,697.8	87.1995	19,697.8	89.8624	19,697.8	86.6853	19,697.8	89.275	19,697.8	85.9414	19,697.8	86.9428	19,697.8	83.2955	19,697.8	83.194	19,697.8	80.049	19,697.8	80.0791	19,697.8	76.9423	19,697.8	76.2543	19,697.8	72.3709	19,697.8	72.6546	19,697.8	70.7607	19,697.8	68.6065	19,697.8	64.8462	19,697.8	65.7299	19,697.8	57.3812	19,697.8	62.9074	19,697.8	49.4028	19,697.8	57.3233	19,697.8	41.3855	19,697.8	66.3239	19,697.8	58.4625	19,697.8	56.2802	19,697.8	58.9879	19,697.8	59.3593	19,697.8	61.5797	19,697.8	60.4345	19,697.8	63.6064	19,697.8	53.6399	19,697.8	58.6667
19,999.5	85.9418	19,999.5	87.9233	19,999.5	85.5662	19,999.5	89.7455	19,999.5	88.6753	19,999.5	89.3884	19,999.5	88.2284	19,999.5	88.7227	19,999.5	85.7785	19,999.5	85.9556	19,999.5	81.854	19,999.5	82.7759	19,999.5	78.9234	19,999.5	79.2415	19,999.5	74.5088	19,999.5	75.6647	19,999.5	70.5969	19,999.5	74.1698	19,999.5	67.2303	19,999.5	67.345	19,999.5	65.2057	19,999.5	61.9466	19,999.5	62.1174	19,999.5	40.6828	19,999.5	59.9227	19,999.5	53.2433	19,999.5	64.0414	19,999.5	58.8358	19,999.5	55.6977	19,999.5	57.177	19,999.5	59.8894	19,999.5	62.8682	19,999.5	62.789	19,999.5	64.2376	19,999.5	59.2923	19,999.5	60.1408
