"SPL Vertical"
"On-Axis"		"10°"		"-10°"		"20°"		"-20°"		"30°"		"-30°"		"40°"		"-40°"		"50°"		"-50°"		"60°"		"-60°"		"70°"		"-70°"		"80°"		"-80°"		"90°"		"-90°"		"100°"		"-100°"		"110°"		"-110°"		"120°"		"-120°"		"130°"		"-130°"		"140°"		"-140°"		"150°"		"-150°"		"160°"		"-160°"		"170°"		"-170°"		"180°"
"Frequency / Hz"	"Sound Pressure Level / dB (re 20 µPa/V)  [2.83  V @ 1. m]"	"Frequency / Hz"	"Sound Pressure Level / dB (re 20 µPa/V)  [2.83  V @ 1. m]"	"Frequency / Hz"	"Sound Pressure Level / dB (re 20 µPa/V)  [2.83  V @ 1. m]"	"Frequency / Hz"	"Sound Pressure Level / dB (re 20 µPa/V)  [2.83  V @ 1. m]"	"Frequency / Hz"	"Sound Pressure Level / dB (re 20 µPa/V)  [2.83  V @ 1. m]"	"Frequency / Hz"	"Sound Pressure Level / dB (re 20 µPa/V)  [2.83  V @ 1. m]"	"Frequency / Hz"	"Sound Pressure Level / dB (re 20 µPa/V)  [2.83  V @ 1. m]"	"Frequency / Hz"	"Sound Pressure Level / dB (re 20 µPa/V)  [2.83  V @ 1. m]"	"Frequency / Hz"	"Sound Pressure Level / dB (re 20 µPa/V)  [2.83  V @ 1. m]"	"Frequency / Hz"	"Sound Pressure Level / dB (re 20 µPa/V)  [2.83  V @ 1. m]"	"Frequency / Hz"	"Sound Pressure Level / dB (re 20 µPa/V)  [2.83  V @ 1. m]"	"Frequency / Hz"	"Sound Pressure Level / dB (re 20 µPa/V)  [2.83  V @ 1. m]"	"Frequency / Hz"	"Sound Pressure Level / dB (re 20 µPa/V)  [2.83  V @ 1. m]"	"Frequency / Hz"	"Sound Pressure Level / dB (re 20 µPa/V)  [2.83  V @ 1. m]"	"Frequency / Hz"	"Sound Pressure Level / dB (re 20 µPa/V)  [2.83  V @ 1. m]"	"Frequency / Hz"	"Sound Pressure Level / dB (re 20 µPa/V)  [2.83  V @ 1. m]"	"Frequency / Hz"	"Sound Pressure Level / dB (re 20 µPa/V)  [2.83  V @ 1. m]"	"Frequency / Hz"	"Sound Pressure Level / dB (re 20 µPa/V)  [2.83  V @ 1. m]"	"Frequency / Hz"	"Sound Pressure Level / dB (re 20 µPa/V)  [2.83  V @ 1. m]"	"Frequency / Hz"	"Sound Pressure Level / dB (re 20 µPa/V)  [2.83  V @ 1. m]"	"Frequency / Hz"	"Sound Pressure Level / dB (re 20 µPa/V)  [2.83  V @ 1. m]"	"Frequency / Hz"	"Sound Pressure Level / dB (re 20 µPa/V)  [2.83  V @ 1. m]"	"Frequency / Hz"	"Sound Pressure Level / dB (re 20 µPa/V)  [2.83  V @ 1. m]"	"Frequency / Hz"	"Sound Pressure Level / dB (re 20 µPa/V)  [2.83  V @ 1. m]"	"Frequency / Hz"	"Sound Pressure Level / dB (re 20 µPa/V)  [2.83  V @ 1. m]"	"Frequency / Hz"	"Sound Pressure Level / dB (re 20 µPa/V)  [2.83  V @ 1. m]"	"Frequency / Hz"	"Sound Pressure Level / dB (re 20 µPa/V)  [2.83  V @ 1. m]"	"Frequency / Hz"	"Sound Pressure Level / dB (re 20 µPa/V)  [2.83  V @ 1. m]"	"Frequency / Hz"	"Sound Pressure Level / dB (re 20 µPa/V)  [2.83  V @ 1. m]"	"Frequency / Hz"	"Sound Pressure Level / dB (re 20 µPa/V)  [2.83  V @ 1. m]"	"Frequency / Hz"	"Sound Pressure Level / dB (re 20 µPa/V)  [2.83  V @ 1. m]"	"Frequency / Hz"	"Sound Pressure Level / dB (re 20 µPa/V)  [2.83  V @ 1. m]"	"Frequency / Hz"	"Sound Pressure Level / dB (re 20 µPa/V)  [2.83  V @ 1. m]"	"Frequency / Hz"	"Sound Pressure Level / dB (re 20 µPa/V)  [2.83  V @ 1. m]"	"Frequency / Hz"	"Sound Pressure Level / dB (re 20 µPa/V)  [2.83  V @ 1. m]"	"Frequency / Hz"	"Sound Pressure Level / dB (re 20 µPa/V)  [2.83  V @ 1. m]"
20.5078	45.7765	20.5078	46.196	20.5078	45.3246	20.5078	46.5857	20.5078	44.853	20.5078	46.9529	20.5078	44.3956	20.5078	47.3035	20.5078	43.9989	20.5078	47.639	20.5078	43.6897	20.5078	47.9568	20.5078	43.4334	20.5078	48.2511	20.5078	43.1267	20.5078	48.5147	20.5078	42.6354	20.5078	48.7393	20.5078	41.8532	20.5078	48.9162	20.5078	40.7824	20.5078	49.0352	20.5078	39.7011	20.5078	49.0848	20.5078	39.324	20.5078	49.0521	20.5078	40.191	20.5078	48.9221	20.5078	41.8176	20.5078	48.6783	20.5078	43.5034	20.5078	48.3018	20.5078	44.9577	20.5078	47.7709	20.5078	46.1342	20.5078	47.0593
21.9727	53.1052	21.9727	52.4643	21.9727	53.7658	21.9727	51.8591	21.9727	54.4283	21.9727	51.3036	21.9727	55.0722	21.9727	50.809	21.9727	55.6739	21.9727	50.3844	21.9727	56.207	21.9727	50.0357	21.9727	56.6433	21.9727	49.7674	21.9727	56.9567	21.9727	49.5825	21.9727	57.1262	21.9727	49.4838	21.9727	57.1392	21.9727	49.4739	21.9727	56.9939	21.9727	49.5552	21.9727	56.6996	21.9727	49.7294	21.9727	56.275	21.9727	49.9964	21.9727	55.7464	21.9727	50.3531	21.9727	55.1431	21.9727	50.7933	21.9727	54.4939	21.9727	51.3068	21.9727	53.8241	21.9727	51.8809	21.9727	53.1544	21.9727	52.5016
23.4375	58.5363	23.4375	58.2816	23.4375	58.8254	23.4375	58.0609	23.4375	59.1452	23.4375	57.8719	23.4375	59.4855	23.4375	57.7113	23.4375	59.829	23.4375	57.5761	23.4375	60.1519	23.4375	57.4638	23.4375	60.4274	23.4375	57.3724	23.4375	60.6291	23.4375	57.3006	23.4375	60.7363	23.4375	57.2478	23.4375	60.7369	23.4375	57.2141	23.4375	60.629	23.4375	57.2004	23.4375	60.4213	23.4375	57.2089	23.4375	60.1311	23.4375	57.2431	23.4375	59.7819	23.4375	57.308	23.4375	59.3997	23.4375	57.4097	23.4375	59.0099	23.4375	57.5548	23.4375	58.6351	23.4375	57.749	23.4375	58.2928	23.4375	57.9953
24.9023	60.4844	24.9023	60.0997	24.9023	60.885	24.9023	59.7386	24.9023	61.2907	24.9023	59.4062	24.9023	61.6876	24.9023	59.106	24.9023	62.0582	24.9023	58.84	24.9023	62.3828	24.9023	58.6097	24.9023	62.6411	24.9023	58.4164	24.9023	62.8144	24.9023	58.2616	24.9023	62.8883	24.9023	58.1473	24.9023	62.855	24.9023	58.0764	24.9023	62.7144	24.9023	58.0526	24.9023	62.4743	24.9023	58.0805	24.9023	62.1492	24.9023	58.1648	24.9023	61.7581	24.9023	58.3102	24.9023	61.3216	24.9023	58.5193	24.9023	60.8605	24.9023	58.7924	24.9023	60.3937	24.9023	59.1257	24.9023	59.9388	24.9023	59.5115
26.3672	64.4833	26.3672	64.2042	26.3672	64.7734	26.3672	63.9429	26.3672	65.0655	26.3672	63.7043	26.3672	65.3484	26.3672	63.4918	26.3672	65.6096	26.3672	63.3072	26.3672	65.8351	26.3672	63.1519	26.3672	66.0113	26.3672	63.0264	26.3672	66.1255	26.3672	62.9316	26.3672	66.1683	26.3672	62.8681	26.3672	66.1353	26.3672	62.8368	26.3672	66.0276	26.3672	62.8388	26.3672	65.8527	26.3672	62.8756	26.3672	65.6225	26.3672	62.9484	26.3672	65.3516	26.3672	63.0584	26.3672	65.0553	26.3672	63.2062	26.3672	64.7473	26.3672	63.3914	26.3672	64.4396	26.3672	63.612	26.3672	64.1424	26.3672	63.8642
27.832	65.1806	27.832	64.9128	27.832	65.4603	27.832	64.6629	27.832	65.7434	27.832	64.4356	27.832	66.02	27.832	64.2337	27.832	66.2779	27.832	64.0588	27.832	66.5037	27.832	63.9118	27.832	66.6831	27.832	63.793	27.832	66.8026	27.832	63.7025	27.832	66.8516	27.832	63.6408	27.832	66.8243	27.832	63.6085	27.832	66.7213	27.832	63.6066	27.832	66.5494	27.832	63.6366	27.832	66.3205	27.832	63.7004	27.832	66.0498	27.832	63.8	27.832	65.7529	27.832	63.9368	27.832	65.4445	27.832	64.1116	27.832	65.1375	27.832	64.3233	27.832	64.8425	27.832	64.5687
29.2969	67.7413	29.2969	67.4769	29.2969	68.0161	29.2969	67.2296	29.2969	68.293	29.2969	67.0046	29.2969	68.5621	29.2969	66.8055	29.2969	68.8122	29.2969	66.6351	29.2969	69.0309	29.2969	66.4949	29.2969	69.2052	29.2969	66.3863	29.2969	69.3236	29.2969	66.3098	29.2969	69.3771	29.2969	66.2662	29.2969	69.3611	29.2969	66.2557	29.2969	69.2766	29.2969	66.2787	29.2969	69.1301	29.2969	66.3355	29.2969	68.9322	29.2969	66.426	29.2969	68.6958	29.2969	66.5499	29.2969	68.4341	29.2969	66.7064	29.2969	68.1591	29.2969	66.8939	29.2969	67.8812	29.2969	67.1097	29.2969	67.609	29.2969	67.3497
30.7617	69.5165	30.7617	69.2658	30.7617	69.7773	30.7617	69.0312	30.7617	70.0409	30.7617	68.8173	30.7617	70.2983	30.7617	68.6274	30.7617	70.5391	30.7617	68.4637	30.7617	70.7513	30.7617	68.3277	30.7617	70.9223	30.7617	68.2201	30.7617	71.0404	30.7617	68.1414	30.7617	71.0961	30.7617	68.0922	30.7617	71.0845	30.7617	68.073	30.7617	71.0058	30.7617	68.0845	30.7617	70.8654	30.7617	68.1278	30.7617	70.6728	30.7617	68.2039	30.7617	70.44	30.7617	68.314	30.7617	70.1795	30.7617	68.4586	30.7617	69.9033	30.7617	68.6373	30.7617	69.6226	30.7617	68.8479	30.7617	69.3474	30.7617	69.0866
32.2266	71.1517	32.2266	70.8905	32.2266	71.4225	32.2266	70.6453	32.2266	71.6942	32.2266	70.421	32.2266	71.9568	32.2266	70.2211	32.2266	72.1984	32.2266	70.0478	32.2266	72.4064	32.2266	69.9024	32.2266	72.5681	32.2266	69.7857	32.2266	72.6723	32.2266	69.698	32.2266	72.7108	32.2266	69.6397	32.2266	72.6796	32.2266	69.611	32.2266	72.5798	32.2266	69.6125	32.2266	72.4175	32.2266	69.6448	32.2266	72.2028	32.2266	69.709	32.2266	71.9484	32.2266	69.8063	32.2266	71.6678	32.2266	69.9379	32.2266	71.3747	32.2266	70.1045	32.2266	71.0817	32.2266	70.3055	32.2266	70.7999	32.2266	70.5389
33.6914	73.013	33.6914	72.7747	33.6914	73.2581	33.6914	72.5495	33.6914	73.5022	33.6914	72.3423	33.6914	73.7359	33.6914	72.1566	33.6914	73.9489	33.6914	71.9949	33.6914	74.1299	33.6914	71.8588	33.6914	74.2682	33.6914	71.7494	33.6914	74.3543	33.6914	71.6675	33.6914	74.3814	33.6914	71.6136	33.6914	74.3469	33.6914	71.5881	33.6914	74.2524	33.6914	71.5915	33.6914	74.1041	33.6914	71.6242	33.6914	73.9114	33.6914	71.6868	33.6914	73.6857	33.6914	71.7797	33.6914	73.4388	33.6914	71.9029	33.6914	73.182	33.6914	72.0563	33.6914	72.9254	33.6914	72.2385	33.6914	72.6779	33.6914	72.4471
35.1562	74.4273	35.1562	74.1986	35.1562	74.6626	35.1562	73.9829	35.1562	74.8971	35.1562	73.7848	35.1562	75.1216	35.1562	73.6078	35.1562	75.326	35.1562	73.4542	35.1562	75.4996	35.1562	73.3258	35.1562	75.6317	35.1562	73.2236	35.1562	75.7133	35.1562	73.148	35.1562	75.7379	35.1562	73.0996	35.1562	75.7027	35.1562	73.0782	35.1562	75.6096	35.1562	73.0841	35.1562	75.4646	35.1562	73.1172	35.1562	75.2771	35.1562	73.1776	35.1562	75.0585	35.1562	73.2652	35.1562	74.8208	35.1562	73.3802	35.1562	74.5753	35.1562	73.5222	35.1562	74.332	35.1562	73.6907	35.1562	74.0994	35.1562	73.8841
36.6211	75.6169	36.6211	75.3884	36.6211	75.8499	36.6211	75.171	36.6211	76.0794	36.6211	74.9697	36.6211	76.2964	36.6211	74.7887	36.6211	76.4912	36.6211	74.6306	36.6211	76.6534	36.6211	74.4976	36.6211	76.7735	36.6211	74.3909	36.6211	76.8431	36.6211	74.3111	36.6211	76.8567	36.6211	74.2587	36.6211	76.8124	36.6211	74.2338	36.6211	76.7127	36.6211	74.2364	36.6211	76.5639	36.6211	74.2664	36.6211	76.3757	36.6211	74.3237	36.6211	76.1591	36.6211	74.4083	36.6211	75.9254	36.6211	74.52	36.6211	75.6852	36.6211	74.6584	36.6211	75.4479	36.6211	74.8228	36.6211	75.2212	36.6211	75.0114
38.0859	76.7622	38.0859	76.5363	38.0859	76.9915	38.0859	76.3201	38.0859	77.2163	38.0859	76.119	38.0859	77.4277	38.0859	75.9368	38.0859	77.6161	38.0859	75.7767	38.0859	77.7715	38.0859	75.6408	38.0859	77.8845	38.0859	75.5305	38.0859	77.9471	38.0859	75.4467	38.0859	77.9542	38.0859	75.3899	38.0859	77.9043	38.0859	75.3603	38.0859	77.8	38.0859	75.3579	38.0859	77.6478	38.0859	75.3828	38.0859	77.4572	38.0859	75.4349	38.0859	77.2391	38.0859	75.5141	38.0859	77.0049	38.0859	75.6205	38.0859	76.7651	38.0859	75.7539	38.0859	76.5291	38.0859	75.9136	38.0859	76.3048	38.0859	76.0981
39.5508	77.7723	39.5508	77.5542	39.5508	77.9929	39.5508	77.3448	39.5508	78.2086	39.5508	77.1493	39.5508	78.4109	39.5508	76.9715	39.5508	78.5905	39.5508	76.8146	39.5508	78.738	39.5508	76.6807	39.5508	78.8443	39.5508	76.5715	39.5508	78.9021	39.5508	76.488	39.5508	78.9064	39.5508	76.4308	39.5508	78.856	39.5508	76.4002	39.5508	78.7536	39.5508	76.3963	39.5508	78.6056	39.5508	76.4192	39.5508	78.4211	39.5508	76.4688	39.5508	78.2106	39.5508	76.5451	39.5508	77.9849	39.5508	76.648	39.5508	77.7538	39.5508	76.7772	39.5508	77.5264	39.5508	76.9318	39.5508	77.3099	39.5508	77.1103
41.0156	78.6698	41.0156	78.4541	41.0156	78.8849	41.0156	78.2444	41.0156	79.0923	41.0156	78.0457	41.0156	79.2836	41.0156	77.8626	41.0156	79.45	41.0156	77.6983	41.0156	79.5826	41.0156	77.5557	41.0156	79.6731	41.0156	77.4366	41.0156	79.7149	41.0156	77.3426	41.0156	79.7038	41.0156	77.2745	41.0156	79.6393	41.0156	77.2328	41.0156	79.5245	41.0156	77.218	41.0156	79.3662	41.0156	77.23	41.0156	79.1737	41.0156	77.2691	41.0156	78.9578	41.0156	77.3351	41.0156	78.7291	41.0156	77.4282	41.0156	78.4976	41.0156	77.5482	41.0156	78.2721	41.0156	77.6945	41.0156	78.0596	41.0156	77.8658
42.4805	79.28	42.4805	79.0684	42.4805	79.4916	42.4805	78.8629	42.4805	79.6963	42.4805	78.6684	42.4805	79.886	42.4805	78.4889	42.4805	80.0519	42.4805	78.3275	42.4805	80.1853	42.4805	78.187	42.4805	80.2777	42.4805	78.0694	42.4805	80.3226	42.4805	77.9761	42.4805	80.3156	42.4805	77.9084	42.4805	80.2562	42.4805	77.8671	42.4805	80.1471	42.4805	77.8526	42.4805	79.9948	42.4805	77.8652	42.4805	79.8081	42.4805	77.9053	42.4805	79.5972	42.4805	77.9728	42.4805	79.3724	42.4805	78.0678	42.4805	79.1435	42.4805	78.1899	42.4805	78.9191	42.4805	78.3384	42.4805	78.7065	42.4805	78.5115
43.9453	79.8717	43.9453	79.6713	43.9453	80.0721	43.9453	79.4766	43.9453	80.2658	43.9453	79.2922	43.9453	80.4452	43.9453	79.1219	43.9453	80.6019	43.9453	78.969	43.9453	80.7275	43.9453	78.8359	43.9453	80.8142	43.9453	78.7247	43.9453	80.8558	43.9453	78.6368	43.9453	80.8484	43.9453	78.5735	43.9453	80.7918	43.9453	78.5355	43.9453	80.6889	43.9453	78.5233	43.9453	80.5459	43.9453	78.5371	43.9453	80.3712	43.9453	78.5772	43.9453	80.1743	43.9453	78.6434	43.9453	79.9647	43.9453	78.7354	43.9453	79.7511	43.9453	78.8527	43.9453	79.5414	43.9453	78.9943	43.9453	79.342	43.9453	79.1583
45.4102	80.1509	45.4102	79.9488	45.4102	80.352	45.4102	79.7518	45.4102	80.5453	45.4102	79.5648	45.4102	80.7227	45.4102	79.3921	45.4102	80.8759	45.4102	79.2369	45.4102	80.9966	45.4102	79.1018	45.4102	81.0772	45.4102	78.989	45.4102	81.1119	45.4102	78.9001	45.4102	81.0974	45.4102	78.8362	45.4102	81.0338	45.4102	78.7978	45.4102	80.9245	45.4102	78.7855	45.4102	80.7763	45.4102	78.7991	45.4102	80.598	45.4102	78.8385	45.4102	80.3994	45.4102	78.9032	45.4102	80.1901	45.4102	78.9927	45.4102	79.9789	45.4102	79.1063	45.4102	79.7733	45.4102	79.243	45.4102	79.5792	45.4102	79.4014
46.875	80.6221	46.875	80.4221	46.875	80.8197	46.875	80.2258	46.875	81.0082	46.875	80.0384	46.875	81.1796	46.875	79.8641	46.875	81.3261	46.875	79.7064	46.875	81.4394	46.875	79.5682	46.875	81.5126	46.875	79.4517	46.875	81.5402	46.875	79.3586	46.875	81.5193	46.875	79.2899	46.875	81.4502	46.875	79.2465	46.875	81.3365	46.875	79.2286	46.875	81.1847	46.875	79.2363	46.875	81.0035	46.875	79.2694	46.875	80.8026	46.875	79.3276	46.875	80.5914	46.875	79.4107	46.875	80.3789	46.875	79.5184	46.875	80.173	46.875	79.65	46.875	79.9799	46.875	79.8045
48.3398	80.8847	48.3398	80.6867	48.3398	81.0794	48.3398	80.4914	48.3398	81.2638	48.3398	80.304	48.3398	81.4306	48.3398	80.1292	48.3398	81.572	48.3398	79.9706	48.3398	81.6804	48.3398	79.8313	48.3398	81.7491	48.3398	79.7139	48.3398	81.7733	48.3398	79.62	48.3398	81.7504	48.3398	79.5509	48.3398	81.6807	48.3398	79.5073	48.3398	81.5681	48.3398	79.4895	48.3398	81.4188	48.3398	79.4972	48.3398	81.2411	48.3398	79.5304	48.3398	81.0442	48.3398	79.5886	48.3398	80.8372	48.3398	79.6714	48.3398	80.6287	48.3398	79.7785	48.3398	80.4261	48.3398	79.9092	48.3398	80.2357	48.3398	80.0623
51.2695	81.3485	51.2695	81.1516	51.2695	81.5401	51.2695	80.9558	51.2695	81.7195	51.2695	80.7667	51.2695	81.8795	51.2695	80.5894	51.2695	82.0128	51.2695	80.4281	51.2695	82.1124	51.2695	80.2864	51.2695	82.1724	51.2695	80.1672	51.2695	82.1887	51.2695	80.0723	51.2695	82.1595	51.2695	80.0031	51.2695	82.0857	51.2695	79.9602	51.2695	81.9714	51.2695	79.9436	51.2695	81.823	51.2695	79.9528	51.2695	81.6486	51.2695	79.9873	51.2695	81.457	51.2695	80.0461	51.2695	81.2567	51.2695	80.1285	51.2695	81.0555	51.2695	80.2338	51.2695	80.8604	51.2695	80.3613	51.2695	80.677	51.2695	80.5096
52.7344	81.6008	52.7344	81.41	52.7344	81.7845	52.7344	81.2181	52.7344	81.9546	52.7344	81.0306	52.7344	82.1042	52.7344	80.8528	52.7344	82.2266	52.7344	80.6889	52.7344	82.3154	52.7344	80.5429	52.7344	82.3649	52.7344	80.418	52.7344	82.3712	52.7344	80.3166	52.7344	82.3328	52.7344	80.2403	52.7344	82.2511	52.7344	80.1901	52.7344	82.1305	52.7344	80.1665	52.7344	81.9776	52.7344	80.1691	52.7344	81.801	52.7344	80.1974	52.7344	81.6095	52.7344	80.2505	52.7344	81.4117	52.7344	80.3273	52.7344	81.2152	52.7344	80.427	52.7344	81.0264	52.7344	80.5482	52.7344	80.8501	52.7344	80.6898
54.1992	81.7931	54.1992	81.6057	54.1992	81.9731	54.1992	81.4167	54.1992	82.1393	54.1992	81.2319	54.1992	82.2849	54.1992	81.0562	54.1992	82.4032	54.1992	80.8941	54.1992	82.4879	54.1992	80.7496	54.1992	82.5335	54.1992	80.6258	54.1992	82.5363	54.1992	80.5253	54.1992	82.4952	54.1992	80.4498	54.1992	82.4118	54.1992	80.4003	54.1992	82.2907	54.1992	80.3772	54.1992	82.139	54.1992	80.38	54.1992	81.9652	54.1992	80.4082	54.1992	81.7781	54.1992	80.4606	54.1992	81.586	54.1992	80.5362	54.1992	81.3959	54.1992	80.6336	54.1992	81.2137	54.1992	80.7516	54.1992	81.0436	54.1992	80.8888
55.6641	82.0024	55.6641	81.813	55.6641	82.1825	55.6641	81.6204	55.6641	82.3468	55.6641	81.4301	55.6641	82.4882	55.6641	81.2473	55.6641	82.6	55.6641	81.0765	55.6641	82.6756	55.6641	80.9221	55.6641	82.7098	55.6641	80.7877	55.6641	82.6993	55.6641	80.6761	55.6641	82.6435	55.6641	80.5897	55.6641	82.5451	55.6641	80.5298	55.6641	82.4096	55.6641	80.4973	55.6641	82.245	55.6641	80.4921	55.6641	82.0607	55.6641	80.5135	55.6641	81.8658	55.6641	80.5605	55.6641	81.6689	55.6641	80.6315	55.6641	81.4768	55.6641	80.7252	55.6641	81.2947	55.6641	80.8399	55.6641	81.1263	55.6641	80.9741
58.5938	82.3416	58.5938	82.1505	58.5938	82.5209	58.5938	81.954	58.5938	82.6817	58.5938	81.7581	58.5938	82.8174	58.5938	81.5687	58.5938	82.9218	58.5938	81.3911	58.5938	82.9888	58.5938	81.2299	58.5938	83.014	58.5938	81.0891	58.5938	82.9946	58.5938	80.9719	58.5938	82.9303	58.5938	80.8808	58.5938	82.8241	58.5938	80.8171	58.5938	82.6816	58.5938	80.7815	58.5938	82.5109	58.5938	80.7737	58.5938	82.3214	58.5938	80.7929	58.5938	82.1229	58.5938	80.8375	58.5938	81.9239	58.5938	80.9059	58.5938	81.7316	58.5938	80.9963	58.5938	81.5511	58.5938	81.1072	58.5938	81.3857	58.5938	81.2373
60.0586	82.5617	60.0586	82.3755	60.0586	82.7363	60.0586	82.1839	60.0586	82.893	60.0586	81.993	60.0586	83.025	60.0586	81.8083	60.0586	83.1262	60.0586	81.6347	60.0586	83.1908	60.0586	81.4766	60.0586	83.2141	60.0586	81.3376	60.0586	83.1936	60.0586	81.2208	60.0586	83.1288	60.0586	81.1282	60.0586	83.0224	60.0586	81.0612	60.0586	82.8798	60.0586	81.0204	60.0586	82.7087	60.0586	81.006	60.0586	82.5183	60.0586	81.0172	60.0586	82.318	60.0586	81.0534	60.0586	82.1166	60.0586	81.1134	60.0586	81.9219	60.0586	81.1963	60.0586	81.7397	60.0586	81.3012	60.0586	81.574	60.0586	81.4274
62.9883	82.9341	62.9883	82.749	62.9883	83.1074	62.9883	82.5585	62.9883	83.2622	62.9883	82.3687	62.9883	83.3921	62.9883	82.1853	62.9883	83.4906	62.9883	82.0134	62.9883	83.5522	62.9883	81.8575	62.9883	83.5726	62.9883	81.7215	62.9883	83.5495	62.9883	81.6082	62.9883	83.483	62.9883	81.5197	62.9883	83.3763	62.9883	81.4571	62.9883	83.2353	62.9883	81.4208	62.9883	83.0677	62.9883	81.4105	62.9883	82.8827	62.9883	81.4254	62.9883	82.6894	62.9883	81.4642	62.9883	82.4961	62.9883	81.5256	62.9883	82.3096	62.9883	81.6085	62.9883	82.1352	62.9883	81.7118	62.9883	81.9761	62.9883	81.8346
64.4531	83.0729	64.4531	82.8877	64.4531	83.2458	64.4531	82.6969	64.4531	83.4	64.4531	82.5067	64.4531	83.5287	64.4531	82.3232	64.4531	83.6257	64.4531	82.1515	64.4531	83.6859	64.4531	81.9965	64.4531	83.7051	64.4531	81.862	64.4531	83.6817	64.4531	81.751	64.4531	83.6162	64.4531	81.6654	64.4531	83.5118	64.4531	81.6063	64.4531	83.3743	64.4531	81.5738	64.4531	83.2112	64.4531	81.5674	64.4531	83.0312	64.4531	81.5859	64.4531	82.8428	64.4531	81.6277	64.4531	82.6538	64.4531	81.6914	64.4531	82.4709	64.4531	81.7757	64.4531	82.2992	64.4531	81.8794	64.4531	82.1421	64.4531	82.0018
67.3828	83.3838	67.3828	83.1986	67.3828	83.5565	67.3828	83.0077	67.3828	83.71	67.3828	82.8176	67.3828	83.8377	67.3828	82.6346	67.3828	83.9336	67.3828	82.4641	67.3828	83.9926	67.3828	82.3111	67.3828	84.011	67.3828	82.1793	67.3828	83.9873	67.3828	82.0718	67.3828	83.9223	67.3828	81.9902	67.3828	83.8194	67.3828	81.9353	67.3828	83.6844	67.3828	81.9071	67.3828	83.5248	67.3828	81.9046	67.3828	83.3489	67.3828	81.9263	67.3828	83.1652	67.3828	81.9707	67.3828	82.9812	67.3828	82.0361	67.3828	82.8032	67.3828	82.121	67.3828	82.6359	67.3828	82.2242	67.3828	82.4826	67.3828	82.345
68.8477	83.5397	68.8477	83.3563	68.8477	83.7109	68.8477	83.1675	68.8477	83.8631	68.8477	82.98	68.8477	83.9901	68.8477	82.8002	68.8477	84.0861	68.8477	82.6339	68.8477	84.1464	68.8477	82.4861	68.8477	84.1678	68.8477	82.361	68.8477	84.1492	68.8477	82.2615	68.8477	84.0915	68.8477	82.1893	68.8477	83.9981	68.8477	82.1448	68.8477	83.8746	68.8477	82.1276	68.8477	83.7278	68.8477	82.1361	68.8477	83.5652	68.8477	82.1685	68.8477	83.3944	68.8477	82.2222	68.8477	83.2222	68.8477	82.2952	68.8477	83.0543	68.8477	82.3854	68.8477	82.8949	68.8477	82.4914	68.8477	82.747	68.8477	82.6122
71.7773	83.8816	71.7773	83.6985	71.7773	84.0507	71.7773	83.5084	71.7773	84.1992	71.7773	83.3184	71.7773	84.321	71.7773	83.1352	71.7773	84.4106	71.7773	82.9654	71.7773	84.464	71.7773	82.8146	71.7773	84.4784	71.7773	82.6875	71.7773	84.4536	71.7773	82.5876	71.7773	84.3914	71.7773	82.5169	71.7773	84.2962	71.7773	82.476	71.7773	84.174	71.7773	82.4642	71.7773	84.0322	71.7773	82.4797	71.7773	83.8779	71.7773	82.5198	71.7773	83.718	71.7773	82.5812	71.7773	83.558	71.7773	82.6608	71.7773	83.4021	71.7773	82.7558	71.7773	83.2533	71.7773	82.8638	71.7773	83.1134	71.7773	82.9833
74.707	84.3295	74.707	84.1482	74.707	84.4956	74.707	83.9587	74.707	84.6397	74.707	83.768	74.707	84.7559	74.707	83.583	74.707	84.8388	74.707	83.41	74.707	84.8843	74.707	83.2549	74.707	84.8903	74.707	83.1224	74.707	84.8564	74.707	83.0161	74.707	84.7851	74.707	82.9382	74.707	84.6809	74.707	82.8897	74.707	84.5503	74.707	82.87	74.707	84.4008	74.707	82.8776	74.707	84.2402	74.707	82.91	74.707	84.0755	74.707	82.9641	74.707	83.9124	74.707	83.0369	74.707	83.7553	74.707	83.1257	74.707	83.6071	74.707	83.2281	74.707	83.4695	74.707	83.343
77.6367	84.6793	77.6367	84.4979	77.6367	84.8427	77.6367	84.3058	77.6367	84.981	77.6367	84.1104	77.6367	85.0882	77.6367	83.9192	77.6367	85.1594	77.6367	83.7389	77.6367	85.1911	77.6367	83.5758	77.6367	85.182	77.6367	83.4351	77.6367	85.1329	77.6367	83.3208	77.6367	85.0472	77.6367	83.2355	77.6367	84.9307	77.6367	83.1803	77.6367	84.7908	77.6367	83.1552	77.6367	84.6357	77.6367	83.1584	77.6367	84.4736	77.6367	83.1875	77.6367	84.3109	77.6367	83.2393	77.6367	84.1529	77.6367	83.3103	77.6367	84.0026	77.6367	83.3972	77.6367	83.8615	77.6367	83.4973	77.6367	83.7302	77.6367	83.6087
79.1016	84.8286	79.1016	84.6478	79.1016	84.9904	79.1016	84.4553	79.1016	85.1263	79.1016	84.2584	79.1016	85.2306	79.1016	84.0647	79.1016	85.2983	79.1016	83.881	79.1016	85.3262	79.1016	83.7136	79.1016	85.313	79.1016	83.5681	79.1016	85.2597	79.1016	83.4485	79.1016	85.1696	79.1016	83.3576	79.1016	85.0486	79.1016	83.2969	79.1016	84.9041	79.1016	83.2663	79.1016	84.7443	79.1016	83.2643	79.1016	84.5773	79.1016	83.2886	79.1016	84.4101	79.1016	83.3361	79.1016	84.2479	79.1016	83.4035	79.1016	84.0941	79.1016	83.4876	79.1016	83.9505	79.1016	83.5857	79.1016	83.8178	79.1016	83.6961
82.0312	85.0315	82.0312	84.8533	82.0312	85.1915	82.0312	84.6643	82.0312	85.3263	82.0312	84.472	82.0312	85.4298	82.0312	84.2841	82.0312	85.4972	82.0312	84.1074	82.0312	85.5253	82.0312	83.948	82.0312	85.5127	82.0312	83.8112	82.0312	85.4607	82.0312	83.7008	82.0312	85.3727	82.0312	83.619	82.0312	85.2547	82.0312	83.5667	82.0312	85.1141	82.0312	83.5433	82.0312	84.9591	82.0312	83.5469	82.0312	84.7978	82.0312	83.5747	82.0312	84.6371	82.0312	83.6235	82.0312	84.4824	82.0312	83.6897	82.0312	84.3371	82.0312	83.7703	82.0312	84.2025	82.0312	83.8628	82.0312	84.079	82.0312	83.9659
84.9609	85.3775	84.9609	85.2023	84.9609	85.5316	84.9609	85.013	84.9609	85.6584	84.9609	84.8172	84.9609	85.7531	84.9609	84.6229	84.9609	85.8123	84.9609	84.4377	84.9609	85.834	84.9609	84.2687	84.9609	85.8183	84.9609	84.1223	84.9609	85.7668	84.9609	84.0033	84.9609	85.6831	84.9609	83.9149	84.9609	85.5723	84.9609	83.8587	84.9609	85.4405	84.9609	83.8343	84.9609	85.2941	84.9609	83.8396	84.9609	85.1394	84.9609	83.8713	84.9609	84.982	84.9609	83.9252	84.9609	84.8268	84.9609	83.9971	84.9609	84.678	84.9609	84.0833	84.9609	84.5382	84.9609	84.1813	84.9609	84.4087	84.9609	84.2898
87.8906	85.4339	87.8906	85.261	87.8906	85.5877	87.8906	85.0761	87.8906	85.7164	87.8906	84.8867	87.8906	85.8152	87.8906	84.7009	87.8906	85.8807	87.8906	84.5265	87.8906	85.9113	87.8906	84.3706	87.8906	85.9069	87.8906	84.2393	87.8906	85.8701	87.8906	84.1371	87.8906	85.8051	87.8906	84.0669	87.8906	85.7182	87.8906	84.0297	87.8906	85.6161	87.8906	84.0249	87.8906	85.5045	87.8906	84.0503	87.8906	85.3877	87.8906	84.1028	87.8906	85.2678	87.8906	84.1785	87.8906	85.145	87.8906	84.2733	87.8906	85.0192	87.8906	84.3829	87.8906	84.8906	87.8906	84.5031	87.8906	84.7602	87.8906	84.63
90.8203	86.0922	90.8203	85.9076	90.8203	86.2508	90.8203	85.704	90.8203	86.3765	90.8203	85.4894	90.8203	86.4636	90.8203	85.2716	90.8203	86.5077	90.8203	85.0586	90.8203	86.5063	90.8203	84.8581	90.8203	86.4592	90.8203	84.6772	90.8203	86.3693	90.8203	84.5223	90.8203	86.2424	90.8203	84.3986	90.8203	86.0872	90.8203	84.3096	90.8203	85.9139	90.8203	84.2571	90.8203	85.7332	90.8203	84.2407	90.8203	85.5542	90.8203	84.2584	90.8203	85.3836	90.8203	84.306	90.8203	85.2247	90.8203	84.3785	90.8203	85.0777	90.8203	84.4701	90.8203	84.941	90.8203	84.5755	90.8203	84.8124	90.8203	84.6905
95.2148	86.0278	95.2148	85.8436	95.2148	86.1898	95.2148	85.6464	95.2148	86.322	95.2148	85.4458	95.2148	86.4184	95.2148	85.2519	95.2148	86.4756	95.2148	85.0738	95.2148	86.4925	95.2148	84.9195	95.2148	86.4708	95.2148	84.7952	95.2148	86.4151	95.2148	84.7045	95.2148	86.332	95.2148	84.6487	95.2148	86.2296	95.2148	84.6268	95.2148	86.116	95.2148	84.6359	95.2148	85.9979	95.2148	84.672	95.2148	85.8798	95.2148	84.7303	95.2148	85.7637	95.2148	84.8059	95.2148	85.6498	95.2148	84.8945	95.2148	85.5373	95.2148	84.9923	95.2148	85.4256	95.2148	85.0963	95.2148	85.3144	95.2148	85.2043
98.1445	86.3783	98.1445	86.204	98.1445	86.5277	98.1445	86.0124	98.1445	86.646	98.1445	85.812	98.1445	86.728	98.1445	85.6115	98.1445	86.7702	98.1445	85.4196	98.1445	86.7712	98.1445	85.2447	98.1445	86.7317	98.1445	85.0938	98.1445	86.6549	98.1445	84.9724	98.1445	86.5468	98.1445	84.8842	98.1445	86.4153	98.1445	84.8305	98.1445	86.2697	98.1445	84.8103	98.1445	86.1193	98.1445	84.8211	98.1445	85.9716	98.1445	84.8584	98.1445	85.832	98.1445	84.9172	98.1445	85.7028	98.1445	84.9921	98.1445	85.5839	98.1445	85.0781	98.1445	85.4734	98.1445	85.171	98.1445	85.3689	98.1445	85.2683
101.074	86.2662	101.074	86.0819	101.074	86.4305	101.074	85.8858	101.074	86.5676	101.074	85.6869	101.074	86.6715	101.074	85.4944	101.074	86.7382	101.074	85.3172	101.074	86.7659	101.074	85.1632	101.074	86.7552	101.074	85.039	101.074	86.7096	101.074	84.9493	101.074	86.6349	101.074	84.8963	101.074	86.5386	101.074	84.8796	101.074	86.4284	101.074	84.8967	101.074	86.3112	101.074	84.9434	101.074	86.1923	101.074	85.0138	101.074	86.0749	101.074	85.1019	101.074	85.9606	101.074	85.2017	101.074	85.8496	101.074	85.3079	101.074	85.7409	101.074	85.4165	101.074	85.6332	101.074	85.5252
105.469	86.7022	105.469	86.5196	105.469	86.8557	105.469	86.3171	105.469	86.9721	105.469	86.1049	105.469	87.046	105.469	85.8937	105.469	87.0741	105.469	85.6941	105.469	87.0566	105.469	85.5157	105.469	86.9969	105.469	85.3666	105.469	86.9023	105.469	85.2525	105.469	86.7826	105.469	85.1768	105.469	86.6498	105.469	85.1397	105.469	86.515	105.469	85.1391	105.469	86.3869	105.469	85.1708	105.469	86.2704	105.469	85.2291	105.469	86.1659	105.469	85.3075	105.469	86.0706	105.469	85.3995	105.469	85.9801	105.469	85.4989	105.469	85.8902	105.469	85.6007	105.469	85.7977	105.469	85.7011
108.398	86.9629	108.398	86.7783	108.398	87.1136	108.398	86.5693	108.398	87.2232	108.398	86.3461	108.398	87.2864	108.398	86.1204	108.398	87.3007	108.398	85.9036	108.398	87.2667	108.398	85.707	108.398	87.1888	108.398	85.5405	108.398	87.0748	108.398	85.4114	108.398	86.936	108.398	85.3246	108.398	86.7857	108.398	85.2811	108.398	86.6368	108.398	85.2788	108.398	86.4996	108.398	85.3127	108.398	86.3799	108.398	85.3757	108.398	86.2781	108.398	85.4599	108.398	86.1903	108.398	85.557	108.398	86.1103	108.398	85.6597	108.398	86.0315	108.398	85.7618	108.398	85.9486	108.398	85.8588
112.793	87.176	112.793	86.9973	112.793	87.3163	112.793	86.789	112.793	87.4114	112.793	86.5611	112.793	87.4568	112.793	86.3251	112.793	87.4508	112.793	86.093	112.793	87.3947	112.793	85.8768	112.793	87.2936	112.793	85.6878	112.793	87.1562	112.793	85.5356	112.793	86.9948	112.793	85.4268	112.793	86.8238	112.793	85.3647	112.793	86.6576	112.793	85.3486	112.793	86.5083	112.793	85.3739	112.793	86.3826	112.793	85.4331	112.793	86.2814	112.793	85.5168	112.793	86.2	112.793	85.6149	112.793	86.1303	112.793	85.718	112.793	86.0634	112.793	85.8183	112.793	85.9916	112.793	85.9103
117.188	87.1738	117.188	86.9828	117.188	87.3263	117.188	86.7621	117.188	87.4329	117.188	86.5213	117.188	87.4882	117.188	86.2714	117.188	87.4888	117.188	86.0235	117.188	87.4343	117.188	85.789	117.188	87.3281	117.188	85.5788	117.188	87.1774	117.188	85.4026	117.188	86.9938	117.188	85.268	117.188	86.7925	117.188	85.1797	117.188	86.5903	117.188	85.139	117.188	86.4029	117.188	85.1435	117.188	86.2413	117.188	85.1872	117.188	86.1098	117.188	85.2617	117.188	86.0053	117.188	85.3567	117.188	85.919	117.188	85.462	117.188	85.8398	117.188	85.568	117.188	85.7581	117.188	85.6679
120.117	87.3112	120.117	87.1168	120.117	87.4667	120.117	86.8925	120.117	87.5752	120.117	86.6484	120.117	87.6303	120.117	86.3947	120.117	87.6277	120.117	86.142	120.117	87.5662	120.117	85.9008	120.117	87.4481	120.117	85.6812	120.117	87.2797	120.117	85.4922	120.117	87.0716	120.117	85.3412	120.117	86.8386	120.117	85.2333	120.117	86.5981	120.117	85.1705	120.117	86.3684	120.117	85.1513	120.117	86.1651	120.117	85.1709	120.117	85.9978	120.117	85.2216	120.117	85.8679	120.117	85.2934	120.117	85.769	120.117	85.3764	120.117	85.6894	120.117	85.4613	120.117	85.6167	120.117	85.542
124.512	87.2035	124.512	87.0182	124.512	87.3503	124.512	86.8034	124.512	87.4515	124.512	86.569	124.512	87.5025	124.512	86.3257	124.512	87.5011	124.512	86.084	124.512	87.448	124.512	85.854	124.512	87.3468	124.512	85.6445	124.512	87.2034	124.512	85.4627	124.512	87.0261	124.512	85.3142	124.512	86.8245	124.512	85.2023	124.512	86.609	124.512	85.1283	124.512	86.3906	124.512	85.0911	124.512	86.1803	124.512	85.0874	124.512	85.9875	124.512	85.1123	124.512	85.8191	124.512	85.1591	124.512	85.6774	124.512	85.2215	124.512	85.5598	124.512	85.2939	124.512	85.4606	124.512	85.3734
128.906	86.8794	128.906	86.6922	128.906	87.0316	128.906	86.4792	128.906	87.1421	128.906	86.2517	128.906	87.2068	128.906	86.0221	128.906	87.2245	128.906	85.8032	128.906	87.1971	128.906	85.6069	128.906	87.1294	128.906	85.4428	128.906	87.029	128.906	85.3179	128.906	86.9055	128.906	85.2351	128.906	86.769	128.906	85.1941	128.906	86.6285	128.906	85.1914	128.906	86.4905	128.906	85.2214	128.906	86.3588	128.906	85.2772	128.906	86.2353	128.906	85.3516	128.906	86.1202	128.906	85.4378	128.906	86.0129	128.906	85.5302	128.906	85.912	128.906	85.6249	128.906	85.815	128.906	85.7199
133.301	86.8676	133.301	86.6681	133.301	87.0298	133.301	86.4412	133.301	87.1465	133.301	86.1983	133.301	87.2118	133.301	85.952	133.301	87.2228	133.301	85.715	133.301	87.1805	133.301	85.5002	133.301	87.0899	133.301	85.3188	133.301	86.9609	133.301	85.1795	133.301	86.8064	133.301	85.0877	133.301	86.6415	133.301	85.0445	133.301	86.4801	133.301	85.0469	133.301	86.3327	133.301	85.0885	133.301	86.2046	133.301	85.1605	133.301	86.0958	133.301	85.2532	133.301	86.0026	133.301	85.3571	133.301	85.9187	133.301	85.4641	133.301	85.8379	133.301	85.5679	133.301	85.7546	133.301	85.6651
139.16	86.8173	139.16	86.6122	139.16	86.9794	139.16	86.375	139.16	87.0898	139.16	86.1186	139.16	87.143	139.16	85.8565	139.16	87.1373	139.16	85.6027	139.16	87.0747	139.16	85.3702	139.16	86.9617	139.16	85.1705	139.16	86.8089	139.16	85.0124	139.16	86.63	139.16	84.9014	139.16	86.4404	139.16	84.8394	139.16	86.2554	139.16	84.8248	139.16	86.0877	139.16	84.8527	139.16	85.9453	139.16	84.9157	139.16	85.8302	139.16	85.0045	139.16	85.7385	139.16	85.1091	139.16	85.6617	139.16	85.2196	139.16	85.5896	139.16	85.3273	139.16	85.513	139.16	85.426
143.555	86.6352	143.555	86.4246	143.555	86.7978	143.555	86.1771	143.555	86.904	143.555	85.9069	143.555	86.9498	143.555	85.6299	143.555	86.9349	143.555	85.3627	143.555	86.8636	143.555	85.1213	143.555	86.7445	143.555	84.9193	143.555	86.5899	143.555	84.7666	143.555	86.4148	143.555	84.668	143.555	86.2348	143.555	84.6233	143.555	86.0637	143.555	84.6275	143.555	85.9112	143.555	84.6726	143.555	85.7821	143.555	84.7487	143.555	85.6757	143.555	84.8455	143.555	85.5873	143.555	84.9533	143.555	85.5096	143.555	85.0636	143.555	85.4346	143.555	85.1698	143.555	85.3554	143.555	85.2677
147.949	86.419	147.949	86.2016	147.949	86.5854	147.949	85.9439	147.949	86.693	147.949	85.66	147.949	86.738	147.949	85.3661	147.949	86.7205	147.949	85.0799	147.949	86.6452	147.949	84.8194	147.949	86.521	147.949	84.6013	147.949	86.3611	147.949	84.4384	147.949	86.1816	147.949	84.3384	147.949	85.9997	147.949	84.3027	147.949	85.8311	147.949	84.3262	147.949	85.6872	147.949	84.399	147.949	85.5732	147.949	84.508	147.949	85.4872	147.949	84.639	147.949	85.4216	147.949	84.7787	147.949	85.3655	147.949	84.9156	147.949	85.3071	147.949	85.0409	147.949	85.2368	147.949	85.1487
153.809	86.3087	153.809	86.0898	153.809	86.4704	153.809	85.8244	153.809	86.5676	153.809	85.5265	153.809	86.597	153.809	85.2124	153.809	86.5595	153.809	84.9005	153.809	86.4608	153.809	84.6096	153.809	86.3114	153.809	84.3579	153.809	86.1262	153.809	84.1605	153.809	85.9233	153.809	84.0278	153.809	85.7217	153.809	83.964	153.809	85.5383	153.809	83.9663	153.809	85.385	153.809	84.0262	153.809	85.2662	153.809	84.1308	153.809	85.1786	153.809	84.2648	153.809	85.1127	153.809	84.4131	153.809	85.0556	153.809	84.562	153.809	84.994	153.809	84.7002	153.809	84.9174	153.809	84.8199
159.668	86.1469	159.668	85.928	159.668	86.3096	159.668	85.6646	159.668	86.4084	159.668	85.3711	159.668	86.4396	159.668	85.0643	159.668	86.4039	159.668	84.7625	159.668	86.3072	159.668	84.4838	159.668	86.1605	159.668	84.2452	159.668	85.9791	159.668	84.0605	159.668	85.7816	159.668	83.9389	159.668	85.5872	159.668	83.8835	159.668	85.4132	159.668	83.8918	159.668	85.2712	159.668	83.9556	159.668	85.1654	159.668	84.0632	159.668	85.0915	159.668	84.2005	159.668	85.039	159.668	84.3528	159.668	84.9933	159.668	84.5061	159.668	84.9399	159.668	84.6485	159.668	84.8677	159.668	84.7706
165.527	85.9684	165.527	85.7578	165.527	86.1185	165.527	85.4982	165.527	86.2007	165.527	85.2048	165.527	86.2117	165.527	84.896	165.527	86.1536	165.527	84.592	165.527	86.0337	165.527	84.314	165.527	85.8646	165.527	84.0817	165.527	85.6648	165.527	83.911	165.527	85.4561	165.527	83.8118	165.527	85.2616	165.527	83.7861	165.527	85.1012	165.527	83.8285	165.527	84.9874	165.527	83.9272	165.527	84.9226	165.527	84.0666	165.527	84.8987	165.527	84.229	165.527	84.8998	165.527	84.3972	165.527	84.9063	165.527	84.5559	165.527	84.8996	165.527	84.6921	165.527	84.8657	165.527	84.7969
171.387	85.9265	171.387	85.7084	171.387	86.0778	171.387	85.4352	171.387	86.1541	171.387	85.122	171.387	86.1513	171.387	84.787	171.387	86.0701	171.387	84.4512	171.387	85.9165	171.387	84.1369	171.387	85.7032	171.387	83.8665	171.387	85.449	171.387	83.6592	171.387	85.1792	171.387	83.5283	171.387	84.9225	171.387	83.4788	171.387	84.7063	171.387	83.506	171.387	84.5509	171.387	83.5972	171.387	84.4637	171.387	83.7345	171.387	84.4372	171.387	83.8971	171.387	84.4514	171.387	84.0651	171.387	84.4804	171.387	84.2205	171.387	84.4992	171.387	84.3487	171.387	84.4891	171.387	84.4398
177.246	85.7376	177.246	85.5135	177.246	85.8911	177.246	85.2289	177.246	85.9669	177.246	84.8974	177.246	85.962	177.246	84.5358	177.246	85.8767	177.246	84.164	177.246	85.7161	177.246	83.8045	177.246	85.4902	177.246	83.4814	177.246	85.2149	177.246	83.2178	177.246	84.9114	177.246	83.0329	177.246	84.6061	177.246	82.9379	177.246	84.3284	177.246	82.9335	177.246	84.106	177.246	83.009	177.246	83.9584	177.246	83.1449	177.246	83.8889	177.246	83.3164	177.246	83.8822	177.246	83.4978	177.246	83.9091	177.246	83.666	177.246	83.9366	177.246	83.8023	177.246	83.9372	177.246	83.8942
183.105	85.273	183.105	85.0467	183.105	85.4282	183.105	84.762	183.105	85.5047	183.105	84.4349	183.105	85.4996	183.105	84.0849	183.105	85.4169	183.105	83.733	183.105	85.267	183.105	83.4005	183.105	85.0663	183.105	83.1071	183.105	84.8357	183.105	82.8693	183.105	84.5962	183.105	82.6988	183.105	84.3657	183.105	82.6024	183.105	84.1573	183.105	82.5807	183.105	83.9793	183.105	82.6286	183.105	83.8374	183.105	82.7346	183.105	83.7345	183.105	82.8816	183.105	83.6682	183.105	83.0488	183.105	83.6276	183.105	83.2146	183.105	83.5945	183.105	83.3601	183.105	83.5482	183.105	83.4724
188.965	85.1544	188.965	84.9232	188.965	85.3036	188.965	84.6229	188.965	85.3627	188.965	84.2712	188.965	85.3289	188.965	83.89	188.965	85.2061	188.965	83.505	188.965	85.0051	188.965	83.144	188.965	84.7451	188.965	82.8342	188.965	84.4536	188.965	82.5983	188.965	84.1646	188.965	82.4505	188.965	83.9134	188.965	82.3943	188.965	83.7283	188.965	82.4225	188.965	83.622	188.965	82.5205	188.965	83.5875	188.965	82.6689	188.965	83.6016	188.965	82.8478	188.965	83.6343	188.965	83.0378	188.965	83.6576	188.965	83.2216	188.965	83.6516	188.965	83.3845	188.965	83.605	188.965	83.515
196.289	85.1973	196.289	84.9584	196.289	85.3502	196.289	84.6462	196.289	85.4087	196.289	84.2781	196.289	85.3699	196.289	83.8752	196.289	85.2368	196.289	83.4625	196.289	85.0189	196.289	83.0674	196.289	84.7323	196.289	82.7179	196.289	84.3994	196.289	82.4388	196.289	84.0478	196.289	82.2482	196.289	83.7081	196.289	82.154	196.289	83.4119	196.289	82.1524	196.289	83.1872	196.289	82.2297	196.289	83.0522	196.289	82.3653	196.289	83.0074	196.289	82.5358	196.289	83.032	196.289	82.7174	196.289	83.0898	196.289	82.8875	196.289	83.1416	196.289	83.0266	196.289	83.1567	196.289	83.1191
203.613	85.0502	203.613	84.8039	203.613	85.2012	203.613	84.4752	203.613	85.2489	203.613	84.0812	203.613	85.1909	203.613	83.6433	203.613	85.0308	203.613	83.1871	203.613	84.7796	203.613	82.7416	203.613	84.4555	203.613	82.3382	203.613	84.0836	203.613	82.0069	203.613	83.6938	203.613	81.7723	203.613	83.3177	203.613	81.6474	203.613	82.9857	203.613	81.6309	203.613	82.7241	203.613	81.7074	203.613	82.5516	203.613	81.8515	203.613	82.4732	203.613	82.0333	203.613	82.4753	203.613	82.2232	203.613	82.5264	203.613	82.3944	203.613	82.5864	203.613	82.5255	203.613	82.6195	203.613	82.602
210.938	84.734	210.938	84.5169	210.938	84.8618	210.938	84.2214	210.938	84.8935	210.938	83.8624	210.938	84.8274	210.938	83.4581	210.938	84.6681	210.938	83.0302	210.938	84.4273	210.938	82.6032	210.938	84.1242	210.938	82.2032	210.938	83.7843	210.938	81.8561	210.938	83.4363	210.938	81.5844	210.938	83.1078	210.938	81.4039	210.938	82.8206	210.938	81.3202	210.938	82.5891	210.938	81.3279	210.938	82.42	210.938	81.4113	210.938	82.3128	210.938	81.5473	210.938	82.2577	210.938	81.7098	210.938	82.2356	210.938	81.8733	210.938	82.221	210.938	82.016	210.938	82.1894	210.938	82.1231
218.262	84.3124	218.262	84.0738	218.262	84.4605	218.262	83.7593	218.262	84.5085	218.262	83.3884	218.262	84.4533	218.262	82.9845	218.262	84.299	218.262	82.5739	218.262	84.058	218.262	82.185	218.262	83.7518	218.262	81.846	218.262	83.411	218.262	81.5818	218.262	83.074	218.262	81.4105	218.262	82.7806	218.262	81.3392	218.262	82.5638	218.262	81.3634	218.262	82.4396	218.262	81.4677	218.262	82.4034	218.262	81.6302	218.262	82.4323	218.262	81.8265	218.262	82.494	218.262	82.0326	218.262	82.5553	218.262	82.2268	218.262	82.5888	218.262	82.3907	218.262	82.5765	218.262	82.5101
225.586	84.4727	225.586	84.2183	225.586	84.621	225.586	83.8727	225.586	84.6534	225.586	83.4566	225.586	84.566	225.586	82.9964	225.586	84.3617	225.586	82.524	225.586	84.0518	225.586	82.0754	225.586	83.6585	225.586	81.6884	225.586	83.2168	225.586	81.3968	225.586	82.7748	225.586	81.224	225.586	82.3897	225.586	81.1777	225.586	82.1165	225.586	81.2486	225.586	81.9908	225.586	81.4137	225.586	82.0138	225.586	81.6427	225.586	82.1504	225.586	81.9033	225.586	82.3425	225.586	82.1649	225.586	82.5303	225.586	82.3998	225.586	82.6674	225.586	82.5838	225.586	82.7262	225.586	82.6971
232.91	84.6749	232.91	84.4249	232.91	84.8133	232.91	84.0776	232.91	84.83	232.91	83.6522	232.91	84.7201	232.91	83.1717	232.91	84.4851	232.91	82.6634	232.91	84.1335	232.91	82.1586	232.91	83.6829	232.91	81.6916	232.91	83.1609	232.91	81.2983	232.91	82.6065	232.91	81.0123	232.91	82.0712	232.91	80.858	232.91	81.6181	232.91	80.8433	232.91	81.3128	232.91	80.9554	232.91	81.2012	232.91	81.1632	232.91	81.2816	232.91	81.4248	232.91	81.4976	232.91	81.6955	232.91	81.7625	232.91	81.9336	232.91	81.9955	232.91	82.1037	232.91	82.1423	232.91	82.1786
241.699	84.298	241.699	84.0321	241.699	84.4562	241.699	83.6733	241.699	84.4965	241.699	83.2415	241.699	84.4146	241.699	82.7615	241.699	84.2119	241.699	82.2626	241.699	83.8962	241.699	81.7773	241.699	83.4816	241.699	81.3392	241.699	82.9875	241.699	80.9789	241.699	82.439	241.699	80.7203	241.699	81.8693	241.699	80.5767	241.699	81.3247	241.699	80.5484	241.699	80.8702	241.699	80.623	241.699	80.5802	241.699	80.7761	241.699	80.5048	241.699	80.9747	241.699	80.6303	241.699	81.1802	241.699	80.8776	241.699	81.3529	241.699	81.1456	241.699	81.4561	241.699	81.3545	241.699	81.4612
250.488	84.3576	250.488	84.0204	250.488	84.57	250.488	83.5738	250.488	84.6475	250.488	83.0396	250.488	84.5857	250.488	82.4463	250.488	84.3862	250.488	81.8303	250.488	84.0583	250.488	81.2345	250.488	83.6202	250.488	80.7058	250.488	83.0999	250.488	80.288	250.488	82.5347	250.488	80.0125	250.488	81.9683	250.488	79.8899	250.488	81.448	250.488	79.9081	250.488	81.0204	250.488	80.0372	250.488	80.7262	250.488	80.2393	250.488	80.5885	250.488	80.4744	250.488	80.5991	250.488	80.7045	250.488	80.7137	250.488	80.8948	250.488	80.8664	250.488	81.0163	250.488	80.9935	250.488	81.05
259.277	84.2715	259.277	83.9864	259.277	84.4419	259.277	83.6002	259.277	84.4893	259.277	83.1314	259.277	84.4104	259.277	82.6041	259.277	84.2083	259.277	82.0476	259.277	83.8922	259.277	81.4969	259.277	83.4781	259.277	80.9912	259.277	82.9876	259.277	80.5706	259.277	82.4467	259.277	80.2692	259.277	81.8863	259.277	80.1063	259.277	81.3448	259.277	80.0798	259.277	80.8734	259.277	80.167	259.277	80.5322	259.277	80.3314	259.277	80.3688	259.277	80.5322	259.277	80.3862	259.277	80.7297	259.277	80.5324	259.277	80.8887	259.277	80.7257	259.277	80.9797	259.277	80.8916	259.277	80.9823
268.066	83.9262	268.066	83.6376	268.066	84.0936	268.066	83.2381	268.066	84.1336	268.066	82.7424	268.066	84.0456	268.066	82.1716	268.066	83.8352	268.066	81.5556	268.066	83.5163	268.066	80.9363	268.066	83.1098	268.066	80.3671	268.066	82.6417	268.066	79.9059	268.066	82.139	268.066	79.6003	268.066	81.6272	268.066	79.4708	268.066	81.1323	268.066	79.5028	268.066	80.687	268.066	79.6543	268.066	80.3348	268.066	79.8723	268.066	80.1194	268.066	80.1065	268.066	80.0603	268.066	80.3151	268.066	80.1332	268.066	80.4664	268.066	80.2779	268.066	80.5387	268.066	80.4256	268.066	80.5225
276.855	83.8553	276.855	83.5554	276.855	84.0302	276.855	83.1403	276.855	84.0748	276.855	82.6244	276.855	83.9887	276.855	82.0267	276.855	83.7773	276.855	81.3716	276.855	83.4529	276.855	80.6901	276.855	83.0348	276.855	80.0227	276.855	82.5476	276.855	79.421	276.855	82.0181	276.855	78.9454	276.855	81.4735	276.855	78.6513	276.855	80.9446	276.855	78.566	276.855	80.4731	276.855	78.6722	276.855	80.1111	276.855	78.9142	276.855	79.902	276.855	79.2209	276.855	79.8497	276.855	79.5286	276.855	79.908	276.855	79.79	276.855	80.0042	276.855	79.975	276.855	80.0722	276.855	80.0689
287.109	83.4196	287.109	83.1821	287.109	83.5301	287.109	82.8259	287.109	83.5115	287.109	82.3664	287.109	83.3694	287.109	81.8255	287.109	83.1177	287.109	81.2324	287.109	82.7787	287.109	80.6229	287.109	82.3812	287.109	80.0387	287.109	81.9568	287.109	79.5235	287.109	81.5345	287.109	79.1189	287.109	81.1381	287.109	78.8578	287.109	80.7873	287.109	78.7577	287.109	80.5036	287.109	78.8155	287.109	80.3097	287.109	79.006	287.109	80.2202	287.109	79.2861	287.109	80.2254	287.109	79.6033	287.109	80.2877	287.109	79.9056	287.109	80.3534	287.109	80.1499	287.109	80.3717	287.109	80.3082
297.363	83.836	297.363	83.5763	297.363	83.9503	297.363	83.1868	297.363	83.9089	297.363	82.6867	297.363	83.7095	297.363	82.0984	297.363	83.3616	297.363	81.4494	297.363	82.89	297.363	80.7743	297.363	82.3352	297.363	80.1178	297.363	81.7481	297.363	79.535	297.363	81.1792	297.363	79.0845	297.363	80.6681	297.363	78.8115	297.363	80.2416	297.363	78.7306	297.363	79.9227	297.363	78.8204	297.363	79.7373	297.363	79.0353	297.363	79.7027	297.363	79.3226	297.363	79.8029	297.363	79.6326	297.363	79.9802	297.363	79.9191	297.363	80.1564	297.363	80.1397	297.363	80.2632	297.363	80.2603
307.617	83.4278	307.617	83.1258	307.617	83.6024	307.617	82.7152	307.617	83.6389	307.617	82.2209	307.617	83.5363	307.617	81.672	307.617	83.303	307.617	81.0995	307.617	82.9567	307.617	80.5344	307.617	82.52	307.617	80.006	307.617	82.0158	307.617	79.54	307.617	81.4612	307.617	79.1574	307.617	80.8688	307.617	78.8716	307.617	80.257	307.617	78.6873	307.617	79.6701	307.617	78.6012	307.617	79.1872	307.617	78.6047	307.617	78.8929	307.617	78.6838	307.617	78.8159	307.617	78.8166	307.617	78.8984	307.617	78.9694	307.617	79.037	307.617	79.0991	307.617	79.1418	307.617	79.1647
319.336	83.0393	319.336	82.6031	319.336	83.2802	319.336	81.9949	319.336	83.3178	319.336	81.2552	319.336	83.1611	319.336	80.4458	319.336	82.8382	319.336	79.6518	319.336	82.3992	319.336	78.9767	319.336	81.9122	319.336	78.5193	319.336	81.4484	319.336	78.3355	319.336	81.0581	319.336	78.409	319.336	80.7542	319.336	78.6622	319.336	80.5198	319.336	78.9971	319.336	80.3343	319.336	79.3312	319.336	80.1907	319.336	79.6122	319.336	80.0925	319.336	79.817	319.336	80.0389	319.336	79.9457	319.336	80.0192	319.336	80.0121	319.336	80.0192	319.336	80.0361	319.336	80.0277	319.336	80.0365
329.59	84.2399	329.59	83.8974	329.59	84.3566	329.59	83.3389	329.59	84.245	329.59	82.58	329.59	83.9121	329.59	81.6448	329.59	83.379	329.59	80.5713	329.59	82.6861	329.59	79.4256	329.59	81.9003	329.59	78.3268	329.59	81.1179	329.59	77.4692	329.59	80.4513	329.59	77.0814	329.59	79.994	329.59	77.2714	329.59	79.7876	329.59	77.9167	329.59	79.8236	329.59	78.7748	329.59	80.0663	329.59	79.6457	329.59	80.4583	329.59	80.4179	329.59	80.9173	329.59	81.043	329.59	81.3527	329.59	81.5047	329.59	81.6913	329.59	81.7995	329.59	81.8892	329.59	81.9273
341.309	84.4664	341.309	84.141	341.309	84.5769	341.309	83.6102	341.309	84.4703	341.309	82.8905	341.309	84.1529	341.309	82.0062	341.309	83.6415	341.309	80.9908	341.309	82.9656	341.309	79.8924	341.309	82.1703	341.309	78.7844	341.309	81.3168	341.309	77.783	341.309	80.479	341.309	77.0576	341.309	79.7336	341.309	76.7853	341.309	79.1546	341.309	77.0313	341.309	78.8187	341.309	77.6809	341.309	78.8002	341.309	78.5267	341.309	79.1162	341.309	79.3874	341.309	79.6716	341.309	80.1464	341.309	80.2942	341.309	80.7361	341.309	80.8244	341.309	81.1164	341.309	81.1619	341.309	81.2622
353.027	84.3557	353.027	84.0689	353.027	84.4275	353.027	83.5762	353.027	84.2835	353.027	82.893	353.027	83.9335	353.027	82.0391	353.027	83.3993	353.027	81.038	353.027	82.7147	353.027	79.9197	353.027	81.9279	353.027	78.7295	353.027	81.103	353.027	77.5533	353.027	80.3179	353.027	76.557	353.027	79.6515	353.027	75.9961	353.027	79.1699	353.027	76.0828	353.027	78.9247	353.027	76.7709	353.027	78.9512	353.027	77.784	353.027	79.2399	353.027	78.8413	353.027	79.7097	353.027	79.7659	353.027	80.2337	353.027	80.4676	353.027	80.6911	353.027	80.9072	353.027	80.9923	353.027	81.0768
366.211	84.5727	366.211	84.3782	366.211	84.5746	366.211	83.9957	366.211	84.383	366.211	83.4325	366.211	84.0011	366.211	82.6979	366.211	83.4376	366.211	81.8025	366.211	82.713	366.211	80.7601	366.211	81.8689	366.211	79.5967	366.211	80.9775	366.211	78.3726	366.211	80.1363	366.211	77.2218	366.211	79.436	366.211	76.377	366.211	78.9259	366.211	76.0855	366.211	78.6272	366.211	76.4024	366.211	78.5768	366.211	77.135	366.211	78.8093	366.211	78.0279	366.211	79.2712	366.211	78.8973	366.211	79.8072	366.211	79.6335	366.211	80.2485	366.211	80.1682	366.211	80.4823	366.211	80.4581
379.395	85.0407	379.395	84.7689	379.395	85.1289	379.395	84.324	379.395	85.0271	379.395	83.7197	379.395	84.7314	379.395	82.9716	379.395	84.2395	379.395	82.0963	379.395	83.5499	379.395	81.112	379.395	82.6674	379.395	80.0417	379.395	81.6126	379.395	78.9215	379.395	80.4376	379.395	77.8202	379.395	79.2475	379.395	76.866	379.395	78.2286	379.395	76.2532	379.395	77.6409	379.395	76.1617	379.395	77.6721	379.395	76.6048	379.395	78.2293	379.395	77.3989	379.395	78.998	379.395	78.3033	379.395	79.6901	379.395	79.1348	379.395	80.1483	379.395	79.7834	379.395	80.3162	379.395	80.1886
392.578	84.3374	392.578	84.1032	392.578	84.4159	392.578	83.7207	392.578	84.3315	392.578	83.2008	392.578	84.0745	392.578	82.558	392.578	83.6351	392.578	81.8088	392.578	83.0133	392.578	80.9703	392.578	82.2296	392.578	80.0608	392.578	81.3301	392.578	79.1069	392.578	80.377	392.578	78.1617	392.578	79.4247	392.578	77.331	392.578	78.5028	392.578	76.7832	392.578	77.6543	392.578	76.6903	392.578	77.0505	392.578	77.0931	392.578	77.0156	392.578	77.8447	392.578	77.6744	392.578	78.7132	392.578	78.6797	392.578	79.4973	392.578	79.5824	392.578	80.0553	392.578	80.1409	392.578	80.2911
405.762	84.8155	405.762	84.5196	405.762	84.8957	405.762	84.0294	405.762	84.7441	405.762	83.3702	405.762	84.3533	405.762	82.5682	405.762	83.733	405.762	81.6455	405.762	82.9187	405.762	80.6185	405.762	81.9737	405.762	79.5063	405.762	80.9763	405.762	78.3551	405.762	79.998	405.762	77.2763	405.762	79.0856	405.762	76.4683	405.762	78.2656	405.762	76.1529	405.762	77.5864	405.762	76.4108	405.762	77.1841	405.762	77.1056	405.762	77.261	405.762	78.0065	405.762	77.8677	405.762	78.913	405.762	78.7626	405.762	79.6781	405.762	79.6082	405.762	80.192	405.762	80.1769	405.762	80.3737
420.41	84.6987	420.41	84.4787	420.41	84.7142	420.41	84.0672	420.41	84.5212	420.41	83.4836	420.41	84.1262	420.41	82.7519	420.41	83.5482	420.41	81.898	420.41	82.8175	420.41	80.9442	420.41	81.9724	420.41	79.9054	420.41	81.0568	420.41	78.7938	420.41	80.1214	420.41	77.642	420.41	79.2208	420.41	76.5531	420.41	78.4003	420.41	75.7597	420.41	77.6888	420.41	75.5731	420.41	77.1298	420.41	76.1064	420.41	76.8427	420.41	77.1053	420.41	77.0043	420.41	78.1861	420.41	77.6456	420.41	79.0649	420.41	78.5135	420.41	79.5778	420.41	79.2584	420.41	79.6444
435.059	84.3839	435.059	84.1613	435.059	84.4214	435.059	83.7645	435.059	84.2643	435.059	83.202	435.059	83.91	435.059	82.48	435.059	83.3687	435.059	81.6067	435.059	82.6681	435.059	80.6003	435.059	81.854	435.059	79.4986	435.059	80.9862	435.059	78.3685	435.059	80.1273	435.059	77.3158	435.059	79.3238	435.059	76.4846	435.059	78.6014	435.059	76.0312	435.059	78.0092	435.059	76.0579	435.059	77.6796	435.059	76.5454	435.059	77.7694	435.059	77.3481	435.059	78.2606	435.059	78.2566	435.059	78.9238	435.059	79.0729	435.059	79.5107	435.059	79.6545	435.059	79.8691	435.059	79.9259
451.172	84.8061	451.172	84.4898	451.172	84.9156	451.172	83.9869	451.172	84.8012	451.172	83.3216	451.172	84.4485	451.172	82.5201	451.172	83.8539	451.172	81.603	451.172	83.0395	451.172	80.5788	451.172	82.0629	451.172	79.4438	451.172	81.0093	451.172	78.191	451.172	79.9624	451.172	76.8395	451.172	78.9576	451.172	75.5068	451.172	77.9534	451.172	74.5215	451.172	76.9002	451.172	74.3665	451.172	75.9773	451.172	75.1785	451.172	75.7957	451.172	76.5345	451.172	76.7364	451.172	77.9494	451.172	78.1883	451.172	79.1403	451.172	79.4261	451.172	79.9607	451.172	80.1535	451.172	80.3202
465.82	84.9946	465.82	84.6906	465.82	85.0627	465.82	84.1776	465.82	84.8771	465.82	83.4879	465.82	84.4358	465.82	82.6583	465.82	83.7585	465.82	81.7247	465.82	82.8827	465.82	80.7132	465.82	81.8485	465.82	79.6335	465.82	80.6932	465.82	78.481	465.82	79.4831	465.82	77.2578	465.82	78.3572	465.82	76.0295	465.82	77.4816	465.82	75.0138	465.82	76.8884	465.82	74.5936	465.82	76.4413	465.82	75.0176	465.82	76.0712	465.82	76.0594	465.82	75.9941	465.82	77.2484	465.82	76.5026	465.82	78.2221	465.82	77.4431	465.82	78.7773	465.82	78.33	465.82	78.8163
483.398	84.2089	483.398	84.0403	483.398	84.1531	483.398	83.6619	483.398	83.8791	483.398	83.1083	483.398	83.4148	483.398	82.4313	483.398	82.8042	483.398	81.6887	483.398	82.0943	483.398	80.9234	483.398	81.3212	483.398	80.1416	483.398	80.5105	483.398	79.306	483.398	79.6881	483.398	78.3557	483.398	78.8842	483.398	77.2541	483.398	78.1223	483.398	76.0645	483.398	77.4119	483.398	75.065	483.398	76.7761	483.398	74.7833	483.398	76.3347	483.398	75.5274	483.398	76.3622	483.398	76.875	483.398	77.0393	483.398	78.1768	483.398	78.0741	483.398	79.042	483.398	78.9441	483.398	79.3065
499.512	84.5248	499.512	84.1213	499.512	84.6672	499.512	83.4949	499.512	84.535	499.512	82.7083	499.512	84.1387	499.512	81.8452	499.512	83.5092	499.512	80.9924	499.512	82.6899	499.512	80.2071	499.512	81.7293	499.512	79.488	499.512	80.6768	499.512	78.7794	499.512	79.5841	499.512	78.0115	499.512	78.5105	499.512	77.1567	499.512	77.543	499.512	76.2839	499.512	76.824	499.512	75.6058	499.512	76.529	499.512	75.4663	499.512	76.7607	499.512	76.0963	499.512	77.4603	499.512	77.2894	499.512	78.4145	499.512	78.5652	499.512	79.3249	499.512	79.5366	499.512	79.914	499.512	80.0046
517.09	84.9108	517.09	84.5496	517.09	84.9741	517.09	83.9116	517.09	84.7597	517.09	83.0577	517.09	84.3223	517.09	82.086	517.09	83.7269	517.09	81.115	517.09	83.0137	517.09	80.2454	517.09	82.1878	517.09	79.5069	517.09	81.2444	517.09	78.8307	517.09	80.1911	517.09	78.0727	517.09	79.0392	517.09	77.0759	517.09	77.794	517.09	75.7542	517.09	76.5045	517.09	74.2943	517.09	75.3955	517.09	73.5883	517.09	74.9672	517.09	74.6573	517.09	75.6458	517.09	76.7275	517.09	77.1279	517.09	78.5861	517.09	78.6771	517.09	79.7668	517.09	79.7686	517.09	80.1604
536.133	84.8702	536.133	84.5702	536.133	84.8323	536.133	83.9534	536.133	84.4736	536.133	83.082	536.133	83.8373	536.133	82.0563	536.133	82.9715	536.133	81.0005	536.133	81.9267	536.133	80.029	536.133	80.7938	536.133	79.2047	536.133	79.7497	536.133	78.5195	536.133	79.0173	536.133	77.9148	536.133	78.6831	536.133	77.3277	536.133	78.5394	536.133	76.7328	536.133	78.2028	536.133	76.1738	536.133	77.3749	536.133	75.8176	536.133	76.1156	536.133	75.9737	536.133	75.279	536.133	76.8005	536.133	75.9554	536.133	77.9461	536.133	77.4699	536.133	78.8492	536.133	78.6686	536.133	79.14
555.176	84.9445	555.176	84.6329	555.176	84.8919	555.176	83.9632	555.176	84.5055	555.176	82.9856	555.176	83.8458	555.176	81.8072	555.176	82.9847	555.176	80.5888	555.176	81.9713	555.176	79.4982	555.176	80.8191	555.176	78.6243	555.176	79.5486	555.176	77.9342	555.176	78.2655	555.176	77.3346	555.176	77.2336	555.176	76.7588	555.176	76.8021	555.176	76.1775	555.176	76.9863	555.176	75.5839	555.176	77.2548	555.176	75.0898	555.176	77.0195	555.176	75.0887	555.176	76.1411	555.176	75.921	555.176	75.4225	555.176	77.1727	555.176	76.0958	555.176	78.0933	555.176	77.4465	555.176	78.2274
574.219	85.4825	574.219	85.0607	574.219	85.5984	574.219	84.3305	574.219	85.4423	574.219	83.3368	574.219	85.0438	574.219	82.1613	574.219	84.4009	574.219	80.8967	574.219	83.4832	574.219	79.6279	574.219	82.26	574.219	78.433	574.219	80.7497	574.219	77.3814	574.219	79.0861	574.219	76.5113	574.219	77.5468	574.219	75.7938	574.219	76.4242	574.219	75.1299	574.219	75.848	574.219	74.4671	574.219	75.8676	574.219	74.0976	574.219	76.3697	574.219	74.7172	574.219	76.9619	574.219	76.3423	574.219	77.4904	574.219	78.0467	574.219	78.184	574.219	79.1501	574.219	78.9926	574.219	79.4382
594.727	85.1172	594.727	84.7055	594.727	85.2312	594.727	84.0254	594.727	85.0445	594.727	83.1201	594.727	84.5849	594.727	82.0343	594.727	83.8962	594.727	80.8115	594.727	83	594.727	79.5035	594.727	81.8881	594.727	78.1699	594.727	80.5929	594.727	76.8724	594.727	79.2434	594.727	75.7103	594.727	77.9639	594.727	74.8483	594.727	76.7074	594.727	74.3714	594.727	75.3615	594.727	74.1392	594.727	74.2663	594.727	74.0748	594.727	74.3276	594.727	74.547	594.727	75.5535	594.727	75.8978	594.727	77.08	594.727	77.6028	594.727	78.4062	594.727	78.9105	594.727	79.2735	594.727	79.4799
615.234	85.2749	615.234	84.8932	615.234	85.2828	615.234	84.1951	615.234	84.9234	615.234	83.2794	615.234	84.2703	615.234	82.2462	615.234	83.4259	615.234	81.1574	615.234	82.4463	615.234	80.0342	615.234	81.3232	615.234	78.8971	615.234	80.0663	615.234	77.7852	615.234	78.7586	615.234	76.7217	615.234	77.5531	615.234	75.7043	615.234	76.7119	615.234	74.7565	615.234	76.4592	615.234	73.9157	615.234	76.4534	615.234	73.2362	615.234	75.9063	615.234	73.1422	615.234	74.3441	615.234	74.2884	615.234	72.8052	615.234	76.0956	615.234	74.0555	615.234	77.3824	615.234	76.3513	615.234	77.5406
637.207	85.531	637.207	84.895	637.207	85.7642	637.207	83.9199	637.207	85.6237	637.207	82.7472	637.207	85.2238	637.207	81.5562	637.207	84.6668	637.207	80.4715	637.207	83.9144	637.207	79.5064	637.207	82.842	637.207	78.6587	637.207	81.4246	637.207	78.0055	637.207	79.8441	637.207	77.5366	637.207	78.4466	637.207	76.987	637.207	77.4978	637.207	76.0255	637.207	76.9942	637.207	74.5835	637.207	76.8503	637.207	73.2935	637.207	76.7862	637.207	73.5011	637.207	76.4418	637.207	75.3268	637.207	76.4333	637.207	77.5073	637.207	77.7208	637.207	79.1297	637.207	79.2144	637.207	79.7563
659.18	85.6758	659.18	85.2774	659.18	85.6751	659.18	84.4233	659.18	85.4106	659.18	83.1568	659.18	84.9925	659.18	81.602	659.18	84.405	659.18	79.934	659.18	83.5769	659.18	78.3396	659.18	82.5269	659.18	76.9544	659.18	81.3487	659.18	75.8523	659.18	80.0977	659.18	75.1371	659.18	78.7901	659.18	74.8427	659.18	77.496	659.18	74.6858	659.18	76.3748	659.18	74.2886	659.18	75.6087	659.18	73.6302	659.18	75.3338	659.18	73.355	659.18	75.5032	659.18	74.4116	659.18	75.8446	659.18	76.295	659.18	76.4105	659.18	77.6858	659.18	77.3375	659.18	77.994
682.617	84.7348	682.617	84.0219	682.617	85.0133	682.617	82.8911	682.617	84.9209	682.617	81.4429	682.617	84.5713	682.617	79.8452	682.617	84.0642	682.617	78.322	682.617	83.4158	682.617	77.1234	682.617	82.5947	682.617	76.299	682.617	81.6401	682.617	75.5433	682.617	80.6706	682.617	74.5713	682.617	79.714	682.617	73.5441	682.617	78.6782	682.617	72.8423	682.617	77.789	682.617	72.212	682.617	77.5209	682.617	71.0698	682.617	77.369	682.617	70.6063	682.617	76.4415	682.617	73.2452	682.617	75.194	682.617	76.3792	682.617	75.6492	682.617	78.1723	682.617	77.3924	682.617	78.4601
707.52	83.559	707.52	82.7136	707.52	83.9341	707.52	81.5094	707.52	83.9489	707.52	80.2776	707.52	83.7825	707.52	79.3321	707.52	83.4922	707.52	78.642	707.52	83.0332	707.52	77.9413	707.52	82.3733	707.52	77.1781	707.52	81.4908	707.52	76.5793	707.52	80.3859	707.52	76.135	707.52	79.0706	707.52	75.5324	707.52	77.7006	707.52	74.7245	707.52	76.8465	707.52	73.9385	707.52	76.6403	707.52	72.8425	707.52	76.2661	707.52	70.3015	707.52	75.4853	707.52	66.8853	707.52	75.5991	707.52	71.2176	707.52	77.2047	707.52	75.8351	707.52	78.4052	707.52	78.0767
732.422	83.3074	732.422	82.9508	732.422	83.3889	732.422	82.3256	732.422	83.302	732.422	81.4858	732.422	83.169	732.422	80.4074	732.422	82.9609	732.422	79.037	732.422	82.5222	732.422	77.5131	732.422	81.7361	732.422	76.1518	732.422	80.5822	732.422	75.0853	732.422	79.1787	732.422	74.2438	732.422	77.9804	732.422	73.67	732.422	77.5334	732.422	73.443	732.422	77.3	732.422	73.4153	732.422	76.3812	732.422	73.2512	732.422	75.2051	732.422	72.6028	732.422	74.8236	732.422	71.4042	732.422	74.6241	732.422	71.1049	732.422	74.7935	732.422	73.2014	732.422	75.4689	732.422	75.1324
757.324	83.4124	757.324	83.1437	757.324	83.5152	757.324	82.7234	757.324	83.3533	757.324	82.0797	757.324	82.8723	757.324	81.1145	757.324	82.2356	757.324	79.8638	757.324	81.6851	757.324	78.5499	757.324	81.15	757.324	77.352	757.324	80.4418	757.324	76.3075	757.324	79.6231	757.324	75.4143	757.324	78.664	757.324	74.7874	757.324	77.3972	757.324	74.6419	757.324	76.8188	757.324	74.6987	757.324	77.493	757.324	74.0035	757.324	77.3541	757.324	71.8344	757.324	75.5085	757.324	69.4329	757.324	73.0224	757.324	71.3685	757.324	72.9989	757.324	74.417	757.324	74.9764	757.324	75.7093
785.156	86.6386	785.156	85.2898	785.156	86.1214	785.156	82.3826	785.156	83.0964	785.156	78.3772	785.156	78.6468	785.156	77.7763	785.156	81.9557	785.156	80.9353	785.156	85.2056	785.156	83.306	785.156	86.2325	785.156	84.6669	785.156	85.9717	785.156	85.1743	785.156	85.1311	785.156	84.9624	785.156	84.1804	785.156	84.2543	785.156	83.4555	785.156	82.8901	785.156	82.7807	785.156	80.771	785.156	81.155	785.156	78.5524	785.156	77.544	785.156	76.3403	785.156	73.3283	785.156	74.604	785.156	75.3316	785.156	74.3954	785.156	78.3458	785.156	76.4747	785.156	79.6287	785.156	78.9263
811.523	86.1766	811.523	86.8317	811.523	84.3473	811.523	86.4641	811.523	82.14	811.523	85.214	811.523	82.5921	811.523	83.2015	811.523	84.4416	811.523	80.7049	811.523	85.0202	811.523	78.6157	811.523	84.0061	811.523	78.537	811.523	81.6528	811.523	79.7684	811.523	78.8914	811.523	80.6265	811.523	77.7711	811.523	80.9624	811.523	78.3465	811.523	80.4217	811.523	79.5795	811.523	77.9823	811.523	80.7054	811.523	74.5087	811.523	80.0824	811.523	70.2163	811.523	75.5324	811.523	59.7216	811.523	55.3045	811.523	75.3662	811.523	77.5434	811.523	80.4418	811.523	81.8843	811.523	82.4896
840.82	87.0564	840.82	87.3447	840.82	85.0395	840.82	86.4141	840.82	81.861	840.82	85.0505	840.82	82.1932	840.82	84.1055	840.82	84.7461	840.82	83.8101	840.82	85.8862	840.82	83.8703	840.82	85.4101	840.82	83.9375	840.82	83.5384	840.82	83.7856	840.82	80.6295	840.82	83.2233	840.82	77.7881	840.82	81.7039	840.82	76.47	840.82	78.7715	840.82	76.2366	840.82	75.5126	840.82	77.7063	840.82	75.1802	840.82	79.3721	840.82	76.1039	840.82	78.742	840.82	74.9841	840.82	75.3899	840.82	75.577	840.82	60.6755	840.82	79.031	840.82	74.6927	840.82	79.5927
870.117	87.0508	870.117	88.7775	870.117	84.7554	870.117	88.945	870.117	85.1458	870.117	87.6372	870.117	86.2725	870.117	84.7829	870.117	85.7713	870.117	80.4398	870.117	83.6974	870.117	78.6357	870.117	80.424	870.117	81.1781	870.117	76.4511	870.117	82.7963	870.117	72.8061	870.117	83.529	870.117	71.5041	870.117	83.8057	870.117	74.3206	870.117	83.2119	870.117	76.8481	870.117	82.0084	870.117	77.1254	870.117	80.693	870.117	76.945	870.117	78.8241	870.117	76.4229	870.117	76.2445	870.117	73.8606	870.117	75.0025	870.117	72.9684	870.117	76.5378	870.117	75.3992	870.117	77.1334
900.879	88.1076	900.879	88.0068	900.879	87.5755	900.879	87.8322	900.879	86.9219	900.879	87.8455	900.879	87.0176	900.879	87.3138	900.879	86.755	900.879	85.5543	900.879	85.0242	900.879	83.0858	900.879	81.9253	900.879	81.8647	900.879	78.2905	900.879	81.4189	900.879	74.817	900.879	80.9324	900.879	71.5045	900.879	81.0476	900.879	61.1144	900.879	80.1112	900.879	72.0292	900.879	77.4845	900.879	79.3669	900.879	73.9912	900.879	81.5465	900.879	72.7642	900.879	81.0515	900.879	74.4935	900.879	77.6543	900.879	76.0844	900.879	66.8587	900.879	78.5722	900.879	74.8649	900.879	79.0377
933.105	88.6475	933.105	88.6175	933.105	87.5602	933.105	87.7785	933.105	86.3555	933.105	86.8627	933.105	86.4047	933.105	86.0068	933.105	86.4461	933.105	84.6811	933.105	85.3887	933.105	83.0453	933.105	83.3252	933.105	82.0953	933.105	80.9624	933.105	81.7151	933.105	79.2658	933.105	81.2487	933.105	77.6364	933.105	80.9419	933.105	74.6239	933.105	79.6505	933.105	69.0188	933.105	76.8007	933.105	68.1556	933.105	74.9545	933.105	76.6739	933.105	77.1037	933.105	79.6677	933.105	79.1623	933.105	78.9389	933.105	78.6071	933.105	70.0599	933.105	78.9784	933.105	74.1746	933.105	79.7658
965.332	89.3709	965.332	89.3338	965.332	86.956	965.332	87.4033	965.332	85.7958	965.332	85.2011	965.332	88.7633	965.332	85.083	965.332	89.1146	965.332	85.1558	965.332	86.0796	965.332	84.4393	965.332	80.4586	965.332	85.1158	965.332	80.5414	965.332	86.7183	965.332	83.0025	965.332	87.6082	965.332	84.1145	965.332	88.0001	965.332	83.6973	965.332	86.9751	965.332	79.9346	965.332	84.4159	965.332	76.329	965.332	80.7007	965.332	82.0626	965.332	68.2279	965.332	84.3247	965.332	73.5351	965.332	82.4754	965.332	78.4334	965.332	70.9551	965.332	81.1609	965.332	77.7998	965.332	82.2729
1,000.49	87.1501	1,000.49	87.5765	1,000.49	87.1753	1,000.49	87.9117	1,000.49	87.8329	1,000.49	87.7004	1,000.49	88.0075	1,000.49	86.6646	1,000.49	87.0915	1,000.49	84.5889	1,000.49	86.8161	1,000.49	81.1969	1,000.49	87.5077	1,000.49	74.8681	1,000.49	87.7343	1,000.49	75.6112	1,000.49	87.2359	1,000.49	79.6985	1,000.49	86.9328	1,000.49	82.1368	1,000.49	86.68	1,000.49	82.2125	1,000.49	84.6978	1,000.49	76.9747	1,000.49	80.5796	1,000.49	73.6557	1,000.49	76.1078	1,000.49	78.6145	1,000.49	81.1411	1,000.49	81.0945	1,000.49	83.0918	1,000.49	82.1078	1,000.49	78.7358	1,000.49	81.588	1,000.49	65.8435	1,000.49	78.8064
1,035.64	89.1777	1,035.64	89.8894	1,035.64	83.9476	1,035.64	87.0526	1,035.64	87.239	1,035.64	80.858	1,035.64	91.706	1,035.64	84.0091	1,035.64	91.4075	1,035.64	88.1937	1,035.64	86.9645	1,035.64	90.0166	1,035.64	78.3942	1,035.64	89.6836	1,035.64	80.7507	1,035.64	87.2153	1,035.64	82.8382	1,035.64	84.1622	1,035.64	82.0628	1,035.64	81.6864	1,035.64	82.0145	1,035.64	77.6871	1,035.64	82.7346	1,035.64	78.27	1,035.64	79.7352	1,035.64	69.4837	1,035.64	71.8741	1,035.64	77.0368	1,035.64	73.6784	1,035.64	80.7396	1,035.64	82.6602	1,035.64	80.2479	1,035.64	81.9931	1,035.64	81.7461	1,035.64	64.1153	1,035.64	80.5336
1,072.27	84.6657	1,072.27	88.033	1,072.27	86.506	1,072.27	89.1844	1,072.27	90.1045	1,072.27	87.8283	1,072.27	89.3851	1,072.27	84.0772	1,072.27	84.5768	1,072.27	76.7901	1,072.27	87.0215	1,072.27	76.9551	1,072.27	90.1074	1,072.27	83.3956	1,072.27	90.7734	1,072.27	86.8214	1,072.27	90.5891	1,072.27	88.8012	1,072.27	90.1957	1,072.27	88.3234	1,072.27	89.9701	1,072.27	84.84	1,072.27	89.6415	1,072.27	81.9284	1,072.27	87.6249	1,072.27	78.0842	1,072.27	81.6105	1,072.27	81.7203	1,072.27	75.9624	1,072.27	83.9866	1,072.27	84.2107	1,072.27	83.1362	1,072.27	83.6139	1,072.27	82.0896	1,072.27	70.1934	1,072.27	79.7494
1,108.89	83.4296	1,108.89	88.1107	1,108.89	84.6319	1,108.89	89.2163	1,108.89	89.9437	1,108.89	86.8694	1,108.89	91.1753	1,108.89	84.0113	1,108.89	89.4241	1,108.89	85.3768	1,108.89	88.3237	1,108.89	84.5768	1,108.89	87.4314	1,108.89	77.4616	1,108.89	84.5152	1,108.89	83.0629	1,108.89	84.9118	1,108.89	88.6503	1,108.89	87.4094	1,108.89	90.3407	1,108.89	89.09	1,108.89	88.6813	1,108.89	90.6452	1,108.89	86.081	1,108.89	90.8062	1,108.89	83.3284	1,108.89	87.8846	1,108.89	82.3756	1,108.89	78.8729	1,108.89	85.2264	1,108.89	83.4752	1,108.89	84.5884	1,108.89	85.0804	1,108.89	82.1465	1,108.89	77.4065	1,108.89	78.8993
1,148.44	85.6364	1,148.44	85.247	1,148.44	87.9354	1,148.44	87.736	1,148.44	88.3158	1,148.44	88.3733	1,148.44	87.3423	1,148.44	87.0362	1,148.44	88.5326	1,148.44	84.9879	1,148.44	88.9921	1,148.44	83.3452	1,148.44	85.1379	1,148.44	81.2905	1,148.44	72.8068	1,148.44	83.6035	1,148.44	78.094	1,148.44	87.1999	1,148.44	83.7207	1,148.44	87.8408	1,148.44	84.991	1,148.44	86.5036	1,148.44	85.5958	1,148.44	85.6622	1,148.44	86.8067	1,148.44	85.116	1,148.44	86.4971	1,148.44	85.2606	1,148.44	81.8446	1,148.44	84.0133	1,148.44	69.9826	1,148.44	81.3748	1,148.44	80.7144	1,148.44	78.4231	1,148.44	78.536	1,148.44	65.1783
1,189.45	84.4642	1,189.45	86.5345	1,189.45	87.4099	1,189.45	87.8555	1,189.45	89.5916	1,189.45	86.0439	1,189.45	89.3129	1,189.45	83.9413	1,189.45	86.7823	1,189.45	86.881	1,189.45	84.7999	1,189.45	89.0407	1,189.45	85.4854	1,189.45	88.603	1,189.45	85.8658	1,189.45	86.6876	1,189.45	85.5132	1,189.45	84.4753	1,189.45	83.8464	1,189.45	83.6822	1,189.45	80.5433	1,189.45	82.8436	1,189.45	80.2937	1,189.45	79.9552	1,189.45	83.9558	1,189.45	79.4731	1,189.45	84.6408	1,189.45	81.5682	1,189.45	79.5887	1,189.45	82.4255	1,189.45	71.8502	1,189.45	80.812	1,189.45	81.9132	1,189.45	77.4912	1,189.45	78.2982	1,189.45	69.646
1,230.47	86.5263	1,230.47	85.8415	1,230.47	89.0503	1,230.47	87.3959	1,230.47	89.0848	1,230.47	86.9048	1,230.47	86.6818	1,230.47	83.8781	1,230.47	86.2351	1,230.47	82.5144	1,230.47	88.3916	1,230.47	85.4266	1,230.47	88.3164	1,230.47	87.0371	1,230.47	86.4797	1,230.47	86.3375	1,230.47	84.8276	1,230.47	83.867	1,230.47	83.8076	1,230.47	83.1614	1,230.47	82.6329	1,230.47	83.6702	1,230.47	80.0229	1,230.47	81.5719	1,230.47	75.1588	1,230.47	80.2432	1,230.47	78.0282	1,230.47	82.8582	1,230.47	79.9702	1,230.47	81.9205	1,230.47	75.0994	1,230.47	75.572	1,230.47	72.7851	1,230.47	63.8395	1,230.47	76.6273	1,230.47	67.7683
1,274.41	87.3421	1,274.41	84.7364	1,274.41	89.0213	1,274.41	85.9588	1,274.41	87.7258	1,274.41	87.0128	1,274.41	85.6957	1,274.41	85.2012	1,274.41	87.7506	1,274.41	79.3762	1,274.41	88.6796	1,274.41	82.1592	1,274.41	86.7446	1,274.41	85.0786	1,274.41	82.593	1,274.41	84.5168	1,274.41	78.1324	1,274.41	81.2504	1,274.41	77.4247	1,274.41	79.0213	1,274.41	78.4809	1,274.41	81.3222	1,274.41	76.4053	1,274.41	81.6045	1,274.41	67.6495	1,274.41	80.5723	1,274.41	76.1142	1,274.41	81.3146	1,274.41	80.5002	1,274.41	79.8076	1,274.41	77.5712	1,274.41	73.4167	1,274.41	70.7486	1,274.41	55.9383	1,274.41	76.9165	1,274.41	68.2977
1,319.82	87.4596	1,319.82	85.4457	1,319.82	88.006	1,319.82	84.9504	1,319.82	87.2652	1,319.82	85.9426	1,319.82	87.4376	1,319.82	85.2314	1,319.82	87.5594	1,319.82	81.3298	1,319.82	85.791	1,319.82	78.654	1,319.82	80.759	1,319.82	80.6513	1,319.82	72.1961	1,319.82	81.2725	1,319.82	68.1288	1,319.82	78.9634	1,319.82	70.324	1,319.82	77.0763	1,319.82	73.2002	1,319.82	78.5896	1,319.82	76.315	1,319.82	78.3035	1,319.82	76.927	1,319.82	77.8851	1,319.82	70.2506	1,319.82	79.0399	1,319.82	73.036	1,319.82	77.7927	1,319.82	77.165	1,319.82	73.0224	1,319.82	73.1155	1,319.82	66.1731	1,319.82	72.6061	1,319.82	70.1604
1,366.7	86.7485	1,366.7	86.3511	1,366.7	86.7935	1,366.7	84.8622	1,366.7	87.2813	1,366.7	84.8446	1,366.7	87.1006	1,366.7	85.9164	1,366.7	85.896	1,366.7	83.5452	1,366.7	81.5181	1,366.7	77.6377	1,366.7	74.5694	1,366.7	78.7182	1,366.7	76.2572	1,366.7	80.5659	1,366.7	76.1915	1,366.7	79.3664	1,366.7	73.5898	1,366.7	79.2983	1,366.7	64.3198	1,366.7	79.5872	1,366.7	65.0481	1,366.7	78.1391	1,366.7	72.8963	1,366.7	74.7653	1,366.7	73.2417	1,366.7	73.9821	1,366.7	65.6568	1,366.7	73.7649	1,366.7	78.1124	1,366.7	70.7799	1,366.7	75.2035	1,366.7	67.1336	1,366.7	68.7913	1,366.7	70.7601
1,413.57	86.2318	1,413.57	86.2362	1,413.57	86.1655	1,413.57	85.9521	1,413.57	85.7634	1,413.57	85.2997	1,413.57	84.243	1,413.57	84.3091	1,413.57	81.8248	1,413.57	82.8614	1,413.57	79.3983	1,413.57	81.8831	1,413.57	77.7794	1,413.57	80.2979	1,413.57	76.2264	1,413.57	74.8633	1,413.57	74.7121	1,413.57	70.4222	1,413.57	73.026	1,413.57	71.4743	1,413.57	75.438	1,413.57	71.877	1,413.57	75.4601	1,413.57	76.3455	1,413.57	72.4035	1,413.57	76.519	1,413.57	64.5353	1,413.57	76.0593	1,413.57	69.1564	1,413.57	76.3645	1,413.57	74.2045	1,413.57	73.0454	1,413.57	71.3714	1,413.57	60.7677	1,413.57	71.1167	1,413.57	62.7178
1,463.38	86.9549	1,463.38	87.0622	1,463.38	85.4275	1,463.38	86.1766	1,463.38	84.1377	1,463.38	85.3722	1,463.38	82.5414	1,463.38	83.6866	1,463.38	76.1455	1,463.38	78.8718	1,463.38	76.0394	1,463.38	72.0686	1,463.38	79.0841	1,463.38	75.7044	1,463.38	76.965	1,463.38	76.6423	1,463.38	74.9563	1,463.38	74.4144	1,463.38	73.0718	1,463.38	74.5067	1,463.38	69.4159	1,463.38	76.31	1,463.38	62.0669	1,463.38	76.4086	1,463.38	69.3609	1,463.38	74.1184	1,463.38	74.0525	1,463.38	71.8092	1,463.38	67.3706	1,463.38	70.8758	1,463.38	66.089	1,463.38	68.8457	1,463.38	70.5907	1,463.38	60.1382	1,463.38	64.6853	1,463.38	58.9735
1,516.11	85.7813	1,516.11	85.1731	1,516.11	85.043	1,516.11	84.4964	1,516.11	83.9856	1,516.11	83.2274	1,516.11	83.0318	1,516.11	78.1228	1,516.11	80.5626	1,516.11	69.879	1,516.11	79.015	1,516.11	70.5751	1,516.11	79.3292	1,516.11	71.6813	1,516.11	77.0566	1,516.11	71.9244	1,516.11	71.5226	1,516.11	72.4904	1,516.11	68.8216	1,516.11	68.7503	1,516.11	71.758	1,516.11	72.022	1,516.11	71.9455	1,516.11	74.6545	1,516.11	61.0269	1,516.11	71.7056	1,516.11	69.1558	1,516.11	69.2961	1,516.11	69.1191	1,516.11	69.5245	1,516.11	63.1416	1,516.11	65.1863	1,516.11	67.3138	1,516.11	62.0133	1,516.11	66.403	1,516.11	64.3059
1,568.85	83.7035	1,568.85	83.7714	1,568.85	83.7374	1,568.85	82.1678	1,568.85	83.7749	1,568.85	79.2001	1,568.85	81.3324	1,568.85	77.4584	1,568.85	81.8992	1,568.85	76.2679	1,568.85	81.692	1,568.85	70.3691	1,568.85	78.9214	1,568.85	64.5095	1,568.85	74.7995	1,568.85	57.2548	1,568.85	69.8558	1,568.85	67.1699	1,568.85	65.464	1,568.85	62.3592	1,568.85	63.5508	1,568.85	62.4427	1,568.85	71.2552	1,568.85	68.352	1,568.85	69.7501	1,568.85	67.8839	1,568.85	57.0759	1,568.85	63.7589	1,568.85	69.2117	1,568.85	65.5713	1,568.85	69.2741	1,568.85	70.3607	1,568.85	67.5197	1,568.85	68.1368	1,568.85	67.6917	1,568.85	64.6979
1,624.51	83.0351	1,624.51	82.76	1,624.51	83.3347	1,624.51	81.4847	1,624.51	81.2006	1,624.51	77.1662	1,624.51	78.7166	1,624.51	74.4058	1,624.51	81.1449	1,624.51	77.3894	1,624.51	79.9569	1,624.51	75.4824	1,624.51	78.6094	1,624.51	73.0515	1,624.51	78.885	1,624.51	74.0141	1,624.51	77.1417	1,624.51	67.7522	1,624.51	74.0927	1,624.51	63.6106	1,624.51	71.0056	1,624.51	66.4105	1,624.51	72.1714	1,624.51	57.3284	1,624.51	68.3285	1,624.51	67.0571	1,624.51	65.9079	1,624.51	65.1036	1,624.51	67.9121	1,624.51	64.4441	1,624.51	68.6511	1,624.51	65.664	1,624.51	61.291	1,624.51	60.5469	1,624.51	68.8793	1,624.51	60.156
1,681.64	83.5072	1,681.64	82.9392	1,681.64	81.6684	1,681.64	81.2479	1,681.64	76.249	1,681.64	79.0283	1,681.64	77.386	1,681.64	75.578	1,681.64	78.6143	1,681.64	70.0221	1,681.64	81.391	1,681.64	71.3377	1,681.64	81.1327	1,681.64	72.5078	1,681.64	76.4976	1,681.64	73.9842	1,681.64	69.7334	1,681.64	68.7621	1,681.64	63.6536	1,681.64	69.5501	1,681.64	58.0271	1,681.64	73.1005	1,681.64	70.9934	1,681.64	67.849	1,681.64	75.9476	1,681.64	71.9686	1,681.64	69.853	1,681.64	55.8889	1,681.64	62.0891	1,681.64	70.5348	1,681.64	73.2068	1,681.64	70.661	1,681.64	58.9666	1,681.64	61.1668	1,681.64	71.7322	1,681.64	63.2247
1,741.7	83.0393	1,741.7	82.8987	1,741.7	81.3106	1,741.7	82.041	1,741.7	70.6069	1,741.7	79.6245	1,741.7	75.3025	1,741.7	72.1554	1,741.7	77.8038	1,741.7	70.1337	1,741.7	79.0471	1,741.7	68.7857	1,741.7	79.5944	1,741.7	62.2804	1,741.7	77.5091	1,741.7	62.4362	1,741.7	75.686	1,741.7	66.9091	1,741.7	73.1101	1,741.7	71.3414	1,741.7	70.3622	1,741.7	69.5657	1,741.7	63.1823	1,741.7	66.9328	1,741.7	68.0904	1,741.7	68.5755	1,741.7	72.8778	1,741.7	65.5129	1,741.7	71.0788	1,741.7	65.9622	1,741.7	50.8913	1,741.7	57.9011	1,741.7	61.8449	1,741.7	63.8819	1,741.7	61.7935	1,741.7	58.8363
1,803.22	83.4233	1,803.22	84.6529	1,803.22	79.3225	1,803.22	83.7417	1,803.22	67.9853	1,803.22	81.0934	1,803.22	72.3612	1,803.22	75.1816	1,803.22	80.8004	1,803.22	65.7509	1,803.22	82.0633	1,803.22	55.906	1,803.22	79.0858	1,803.22	69.7438	1,803.22	73.5671	1,803.22	70.0245	1,803.22	67.9018	1,803.22	71.1618	1,803.22	64.0188	1,803.22	70.3713	1,803.22	60.8209	1,803.22	68.7114	1,803.22	62.8129	1,803.22	69.4692	1,803.22	70.2494	1,803.22	64.8781	1,803.22	67.3495	1,803.22	56.7577	1,803.22	60.4245	1,803.22	58.0613	1,803.22	58.6567	1,803.22	58.3025	1,803.22	55.0816	1,803.22	66.6177	1,803.22	66.546	1,803.22	65.7878
1,866.21	83.0962	1,866.21	84.5978	1,866.21	78.9232	1,866.21	85.0271	1,866.21	72.9688	1,866.21	81.9805	1,866.21	77.4693	1,866.21	76.5076	1,866.21	80.6629	1,866.21	69.3404	1,866.21	81.4901	1,866.21	63.4848	1,866.21	80.5419	1,866.21	63.0742	1,866.21	77.1083	1,866.21	67.166	1,866.21	71.4548	1,866.21	69.7387	1,866.21	68.0486	1,866.21	66.1317	1,866.21	58.8209	1,866.21	64.8406	1,866.21	61.8517	1,866.21	63.068	1,866.21	68.6513	1,866.21	66.7874	1,866.21	68.2298	1,866.21	57.9325	1,866.21	65.2922	1,866.21	56.5027	1,866.21	65.9212	1,866.21	59.6298	1,866.21	59.1934	1,866.21	63.8333	1,866.21	66.5315	1,866.21	64.9496
1,932.13	82.0861	1,932.13	84.9437	1,932.13	79.987	1,932.13	85.2229	1,932.13	76.5153	1,932.13	82.8615	1,932.13	78.5932	1,932.13	79.0717	1,932.13	81.5079	1,932.13	73.7629	1,932.13	82.3132	1,932.13	71.8341	1,932.13	80.4212	1,932.13	68.0948	1,932.13	78.2755	1,932.13	67.2587	1,932.13	73.1399	1,932.13	62.4681	1,932.13	65.9783	1,932.13	65.3914	1,932.13	60.9788	1,932.13	63.9383	1,932.13	51.053	1,932.13	61.0492	1,932.13	68.3215	1,932.13	65.526	1,932.13	69.617	1,932.13	64.1912	1,932.13	65.0368	1,932.13	61.8113	1,932.13	65.1275	1,932.13	47.8281	1,932.13	64.1616	1,932.13	66.6306	1,932.13	63.3049	1,932.13	63.9593
1,999.51	83.7284	1,999.51	85.7703	1,999.51	81.5383	1,999.51	85.1709	1,999.51	81.1942	1,999.51	84.3686	1,999.51	82.7625	1,999.51	81.267	1,999.51	83.2472	1,999.51	77.5783	1,999.51	82.6964	1,999.51	72.7299	1,999.51	80.4514	1,999.51	71.8505	1,999.51	77.9419	1,999.51	69.1238	1,999.51	76.2224	1,999.51	67.922	1,999.51	70.3661	1,999.51	64.0321	1,999.51	67.8133	1,999.51	66.8206	1,999.51	61.6921	1,999.51	66.9991	1,999.51	64.3752	1,999.51	62.4696	1,999.51	69.856	1,999.51	67.1106	1,999.51	67.1091	1,999.51	58.6748	1,999.51	67.4668	1,999.51	55.8852	1,999.51	68.1122	1,999.51	62.5429	1,999.51	63.4795	1,999.51	65.5151
2,069.82	85.2795	2,069.82	86.2313	2,069.82	83.8315	2,069.82	85.5768	2,069.82	82.6825	2,069.82	84.2126	2,069.82	83.1071	2,069.82	81.4988	2,069.82	83.3173	2,069.82	78.6282	2,069.82	82.5806	2,069.82	72.5323	2,069.82	80.4576	2,069.82	68.1383	2,069.82	78.8078	2,069.82	68.1486	2,069.82	76.7795	2,069.82	69.5311	2,069.82	72.6042	2,069.82	69.5474	2,069.82	69.6881	2,069.82	66.1592	2,069.82	65.2069	2,069.82	67.8624	2,069.82	65.9943	2,069.82	65.8045	2,069.82	70.3491	2,069.82	65.2901	2,069.82	67.2673	2,069.82	62.0997	2,069.82	67.6515	2,069.82	58.4582	2,069.82	69.4533	2,069.82	56.6746	2,069.82	57.6603	2,069.82	65.8126
2,143.07	85.7426	2,143.07	86.4347	2,143.07	85.4186	2,143.07	86.2329	2,143.07	85.3012	2,143.07	83.8487	2,143.07	82.4829	2,143.07	81.6675	2,143.07	83.1165	2,143.07	77.448	2,143.07	82.179	2,143.07	73.8014	2,143.07	80.4206	2,143.07	70.0842	2,143.07	79.3441	2,143.07	69.321	2,143.07	78.0116	2,143.07	69.2023	2,143.07	73.7738	2,143.07	69.0178	2,143.07	71.3631	2,143.07	69.0062	2,143.07	64.2758	2,143.07	66.3586	2,143.07	69.5863	2,143.07	69.124	2,143.07	70.3885	2,143.07	63.7295	2,143.07	65.0498	2,143.07	65.658	2,143.07	67.0806	2,143.07	53.5907	2,143.07	70.1329	2,143.07	59.4774	2,143.07	60.3144	2,143.07	67.4733
2,219.24	85.2158	2,219.24	86.369	2,219.24	85.6745	2,219.24	86.8191	2,219.24	86.9689	2,219.24	84.5565	2,219.24	83.7976	2,219.24	81.1033	2,219.24	80.9641	2,219.24	75.5551	2,219.24	81.4405	2,219.24	73.6356	2,219.24	81.2547	2,219.24	72.6965	2,219.24	80.4298	2,219.24	72.3446	2,219.24	76.6001	2,219.24	70.1885	2,219.24	71.8998	2,219.24	69.8119	2,219.24	71.4852	2,219.24	68.5457	2,219.24	69.2195	2,219.24	67.12	2,219.24	70.9038	2,219.24	69.3871	2,219.24	70.6512	2,219.24	67.6464	2,219.24	61.8847	2,219.24	66.0386	2,219.24	65.1929	2,219.24	57.2108	2,219.24	68.3525	2,219.24	60.2222	2,219.24	64.2455	2,219.24	64.5435
2,296.88	84.2358	2,296.88	85.7378	2,296.88	84.6588	2,296.88	86.4253	2,296.88	86.6082	2,296.88	85.1904	2,296.88	85.3907	2,296.88	79.0737	2,296.88	79.1127	2,296.88	76.1936	2,296.88	81.2623	2,296.88	72.8224	2,296.88	80.4545	2,296.88	72.9014	2,296.88	79.5831	2,296.88	68.1709	2,296.88	77.1777	2,296.88	71.599	2,296.88	71.4645	2,296.88	69.0358	2,296.88	65.1767	2,296.88	69.3841	2,296.88	71.4755	2,296.88	71.2182	2,296.88	73.0889	2,296.88	66.3755	2,296.88	69.9965	2,296.88	69.0198	2,296.88	64.9854	2,296.88	65.8126	2,296.88	66.4204	2,296.88	57.0626	2,296.88	69.0692	2,296.88	64.1105	2,296.88	67.6562	2,296.88	64.8828
2,378.91	84.7682	2,378.91	85.3689	2,378.91	84.2331	2,378.91	85.8087	2,378.91	84.9283	2,378.91	83.9428	2,378.91	84.9065	2,378.91	79.7922	2,378.91	79.0224	2,378.91	76.0156	2,378.91	79.8656	2,378.91	73.0062	2,378.91	80.6822	2,378.91	74.6659	2,378.91	80.452	2,378.91	75.0229	2,378.91	79.8713	2,378.91	70.5201	2,378.91	75.0512	2,378.91	72.5958	2,378.91	65.946	2,378.91	68.587	2,378.91	63.7227	2,378.91	69.4792	2,378.91	70.6271	2,378.91	69.5251	2,378.91	69.4621	2,378.91	69.4738	2,378.91	63.1296	2,378.91	66.5754	2,378.91	59.8615	2,378.91	55.4923	2,378.91	67.2992	2,378.91	58.8798	2,378.91	66.263	2,378.91	63.0283
2,462.4	85.9789	2,462.4	86.5376	2,462.4	86.041	2,462.4	85.782	2,462.4	83.4878	2,462.4	82.9883	2,462.4	82.3618	2,462.4	80.2933	2,462.4	79.0878	2,462.4	74.4645	2,462.4	79.2188	2,462.4	75.7501	2,462.4	81.1001	2,462.4	72.3815	2,462.4	81.1242	2,462.4	74.0458	2,462.4	78.4024	2,462.4	74.6051	2,462.4	73.3857	2,462.4	70.6569	2,462.4	64.3967	2,462.4	69.3498	2,462.4	67.7763	2,462.4	68.0199	2,462.4	67.0182	2,462.4	70.308	2,462.4	70.1659	2,462.4	68.8001	2,462.4	60.5908	2,462.4	66.4232	2,462.4	51.7591	2,462.4	62.1165	2,462.4	68.093	2,462.4	58.1424	2,462.4	62.4752	2,462.4	62.0179
2,548.83	86.3093	2,548.83	86.7011	2,548.83	87.0041	2,548.83	85.9931	2,548.83	85.5078	2,548.83	83.19	2,548.83	80.2465	2,548.83	77.5515	2,548.83	77.9917	2,548.83	77.0014	2,548.83	77.6447	2,548.83	75.7264	2,548.83	80.2176	2,548.83	75.1309	2,548.83	78.3252	2,548.83	70.6746	2,548.83	78.1329	2,548.83	71.4598	2,548.83	74.3718	2,548.83	70.2345	2,548.83	66.1775	2,548.83	71.6016	2,548.83	69.4664	2,548.83	69.5067	2,548.83	64.7843	2,548.83	68.0331	2,548.83	68.9924	2,548.83	69.1362	2,548.83	56.7651	2,548.83	68.9482	2,548.83	56.7753	2,548.83	61.536	2,548.83	71.0257	2,548.83	59.6049	2,548.83	59.5736	2,548.83	66.8604
2,639.65	85.2993	2,639.65	85.6534	2,639.65	86.2742	2,639.65	85.9993	2,639.65	86.117	2,639.65	82.741	2,639.65	82.1866	2,639.65	79.0429	2,639.65	75.8853	2,639.65	77.7474	2,639.65	78.5614	2,639.65	75.0609	2,639.65	79.9059	2,639.65	75.2155	2,639.65	79.9709	2,639.65	74.8004	2,639.65	78.2832	2,639.65	70.353	2,639.65	71.4793	2,639.65	70.4289	2,639.65	65.9595	2,639.65	68.4962	2,639.65	61.7923	2,639.65	69.2065	2,639.65	68.8271	2,639.65	68.1037	2,639.65	68.7637	2,639.65	70.4828	2,639.65	48.4234	2,639.65	66.3622	2,639.65	62.0567	2,639.65	61.6245	2,639.65	70.1159	2,639.65	65.1725	2,639.65	63.44	2,639.65	57.2756
2,731.93	84.1991	2,731.93	84.8267	2,731.93	85.1159	2,731.93	84.2795	2,731.93	85.1308	2,731.93	81.6769	2,731.93	82.2809	2,731.93	80.1076	2,731.93	74.3766	2,731.93	76.2916	2,731.93	78.5702	2,731.93	74.4994	2,731.93	79.3173	2,731.93	74.358	2,731.93	78.7161	2,731.93	73.7826	2,731.93	77.7758	2,731.93	71.2888	2,731.93	68.7577	2,731.93	69.8353	2,731.93	64.5683	2,731.93	69.7336	2,731.93	68.6142	2,731.93	67.4531	2,731.93	64.1341	2,731.93	69.5717	2,731.93	68.6885	2,731.93	69.5856	2,731.93	43.1099	2,731.93	67.495	2,731.93	60.1982	2,731.93	64.7037	2,731.93	68.2209	2,731.93	57.0298	2,731.93	65.8946	2,731.93	61.8889
2,828.61	84.3496	2,828.61	85.0073	2,828.61	84.6003	2,828.61	83.0067	2,828.61	83.163	2,828.61	81.757	2,828.61	81.0624	2,828.61	79.8783	2,828.61	75.3198	2,828.61	76.5502	2,828.61	76.7043	2,828.61	77.0668	2,828.61	77.7546	2,828.61	76.1587	2,828.61	76.7323	2,828.61	74.9305	2,828.61	77.1474	2,828.61	73.455	2,828.61	61.8438	2,828.61	71.6971	2,828.61	62.9198	2,828.61	71.1849	2,828.61	63.5035	2,828.61	68.123	2,828.61	67.9395	2,828.61	69.3914	2,828.61	66.989	2,828.61	69.2077	2,828.61	58.6997	2,828.61	66.8946	2,828.61	58.6414	2,828.61	63.2869	2,828.61	66.4879	2,828.61	49.2728	2,828.61	64.0555	2,828.61	53.2336
2,928.22	85.6414	2,928.22	85.6627	2,928.22	85.0097	2,928.22	84.1258	2,928.22	83.1484	2,928.22	81.9698	2,928.22	80.586	2,928.22	79.0834	2,928.22	76.3491	2,928.22	77.7761	2,928.22	74.964	2,928.22	77.423	2,928.22	77.6427	2,928.22	77.0969	2,928.22	76.2059	2,928.22	75.4175	2,928.22	73.8415	2,928.22	72.1374	2,928.22	67.0383	2,928.22	69.6677	2,928.22	64.33	2,928.22	68.6425	2,928.22	58.4005	2,928.22	68.4408	2,928.22	66.0312	2,928.22	68.2333	2,928.22	63.0078	2,928.22	70.1501	2,928.22	51.144	2,928.22	68.2079	2,928.22	55.9471	2,928.22	65.4076	2,928.22	67.1158	2,928.22	49.1842	2,928.22	64.2437	2,928.22	60.8541
3,030.76	86.2534	3,030.76	85.9846	3,030.76	85.1314	3,030.76	84.5134	3,030.76	83.1222	3,030.76	82.3127	3,030.76	79.0618	3,030.76	78.3109	3,030.76	75.7379	3,030.76	79.0529	3,030.76	73.5638	3,030.76	78.2674	3,030.76	77.1304	3,030.76	77.4945	3,030.76	78.1483	3,030.76	73.0511	3,030.76	73.1609	3,030.76	73.4715	3,030.76	73.5667	3,030.76	70.0602	3,030.76	68.5792	3,030.76	70.5846	3,030.76	61.3385	3,030.76	68.4424	3,030.76	61.8311	3,030.76	68.8358	3,030.76	65.948	3,030.76	70.1764	3,030.76	58.5784	3,030.76	69.4199	3,030.76	55.3924	3,030.76	64.6562	3,030.76	66.3852	3,030.76	57.9109	3,030.76	63.7695	3,030.76	56.2032
3,137.7	86.2175	3,137.7	85.2973	3,137.7	85.682	3,137.7	84.4798	3,137.7	83.7511	3,137.7	82.7748	3,137.7	79.8084	3,137.7	79.8249	3,137.7	74.8587	3,137.7	80.2112	3,137.7	73.2609	3,137.7	78.8847	3,137.7	76.2262	3,137.7	76.3372	3,137.7	77.5337	3,137.7	76.7014	3,137.7	74.8389	3,137.7	73.4663	3,137.7	75.4984	3,137.7	69.8041	3,137.7	67.9846	3,137.7	68.9358	3,137.7	60.7924	3,137.7	68.2729	3,137.7	58.8417	3,137.7	69.0068	3,137.7	63.6802	3,137.7	70.0149	3,137.7	60.9212	3,137.7	68.7772	3,137.7	56.4635	3,137.7	65.6496	3,137.7	64.9836	3,137.7	56.9086	3,137.7	65.6308	3,137.7	55.8639
3,249.02	86.0657	3,249.02	84.8617	3,249.02	85.5668	3,249.02	84.5229	3,249.02	83.9199	3,249.02	82.5706	3,249.02	81.3512	3,249.02	81.6331	3,249.02	75.9689	3,249.02	80.3203	3,249.02	72.8696	3,249.02	79.4212	3,249.02	75.1011	3,249.02	79.1221	3,249.02	77.8188	3,249.02	75.4044	3,249.02	76.7416	3,249.02	71.8672	3,249.02	76.9504	3,249.02	69.3286	3,249.02	67.0389	3,249.02	69.6081	3,249.02	60.2364	3,249.02	67.2368	3,249.02	56.8958	3,249.02	68.5203	3,249.02	64.7408	3,249.02	69.3064	3,249.02	61.5799	3,249.02	69.5569	3,249.02	57.668	3,249.02	67.3586	3,249.02	63.8165	3,249.02	49.984	3,249.02	66.6245	3,249.02	62.2249
3,363.28	86.423	3,363.28	84.693	3,363.28	85.7887	3,363.28	84.3858	3,363.28	83.4696	3,363.28	81.4517	3,363.28	81.8235	3,363.28	81.8023	3,363.28	79.1225	3,363.28	81.0401	3,363.28	72.1755	3,363.28	80.4423	3,363.28	75.7766	3,363.28	78.4084	3,363.28	78.9606	3,363.28	75.4681	3,363.28	77.2805	3,363.28	73.9496	3,363.28	77.0448	3,363.28	68.7146	3,363.28	68.0619	3,363.28	67.6992	3,363.28	63.0864	3,363.28	66.3378	3,363.28	61.8656	3,363.28	67.3345	3,363.28	65.327	3,363.28	67.6011	3,363.28	60.6905	3,363.28	68.2242	3,363.28	52.6453	3,363.28	64.8918	3,363.28	60.9076	3,363.28	57.2761	3,363.28	63.9586	3,363.28	56.7051
3,481.93	86.8401	3,481.93	85.7573	3,481.93	86.4946	3,481.93	84.9191	3,481.93	84.5927	3,481.93	82.577	3,481.93	82.1553	3,481.93	81.451	3,481.93	80.5347	3,481.93	82.1065	3,481.93	71.0099	3,481.93	80.1389	3,481.93	76.089	3,481.93	78.2684	3,481.93	77.7133	3,481.93	74.5769	3,481.93	77.6608	3,481.93	69.0299	3,481.93	73.0386	3,481.93	68.0093	3,481.93	64.9564	3,481.93	65.4734	3,481.93	63.1698	3,481.93	65.9231	3,481.93	59.9917	3,481.93	64.8285	3,481.93	62.118	3,481.93	67.0469	3,481.93	59.6909	3,481.93	68.2255	3,481.93	50.5506	3,481.93	65.011	3,481.93	61.1834	3,481.93	56.7466	3,481.93	63.3162	3,481.93	53.8834
3,604.98	86.8109	3,604.98	85.6875	3,604.98	86.6386	3,604.98	84.55	3,604.98	84.6963	3,604.98	83.7903	3,604.98	83.4343	3,604.98	82.1559	3,604.98	81.8737	3,604.98	82.453	3,604.98	75.1747	3,604.98	80.041	3,604.98	76.0696	3,604.98	76.4317	3,604.98	78.1498	3,604.98	73.708	3,604.98	76.3481	3,604.98	71.4769	3,604.98	64.8821	3,604.98	67.9326	3,604.98	52.851	3,604.98	65.0906	3,604.98	62.0987	3,604.98	66.6392	3,604.98	59.2163	3,604.98	65.7282	3,604.98	58.5399	3,604.98	66.4048	3,604.98	60.3667	3,604.98	67.3706	3,604.98	51.5249	3,604.98	64.9829	3,604.98	59.635	3,604.98	53.9986	3,604.98	64.059	3,604.98	56.5017
3,732.42	87.1589	3,732.42	85.8257	3,732.42	87.6229	3,732.42	84.0487	3,732.42	84.4796	3,732.42	84.0076	3,732.42	83.5533	3,732.42	83.1778	3,732.42	82.0151	3,732.42	82.2881	3,732.42	75.4721	3,732.42	79.3246	3,732.42	76.7548	3,732.42	76.2127	3,732.42	76.708	3,732.42	75.0333	3,732.42	74.1862	3,732.42	67.8602	3,732.42	67.1483	3,732.42	67.6917	3,732.42	63.5731	3,732.42	65.4497	3,732.42	60.0169	3,732.42	67.0567	3,732.42	58.756	3,732.42	64.6428	3,732.42	34.8256	3,732.42	66.3381	3,732.42	61.1154	3,732.42	67.8609	3,732.42	47.256	3,732.42	64.0896	3,732.42	62.1732	3,732.42	55.1368	3,732.42	63.572	3,732.42	55.9352
3,864.26	86.738	3,864.26	85.3756	3,864.26	87.7974	3,864.26	84.9729	3,864.26	85.8439	3,864.26	83.0363	3,864.26	84.7236	3,864.26	83.969	3,864.26	83.0053	3,864.26	81.9804	3,864.26	77.8473	3,864.26	78.9026	3,864.26	76.506	3,864.26	77.2148	3,864.26	77.4145	3,864.26	72.1441	3,864.26	73.6895	3,864.26	71.0153	3,864.26	70.9325	3,864.26	65.1909	3,864.26	61.5	3,864.26	64.5713	3,864.26	59.6718	3,864.26	65.771	3,864.26	60.8812	3,864.26	64.9436	3,864.26	47.5552	3,864.26	66.3676	3,864.26	60.5428	3,864.26	66.7719	3,864.26	55.0366	3,864.26	64.6665	3,864.26	61.4836	3,864.26	58.8206	3,864.26	64.7911	3,864.26	55.8425
4,000.49	85.9676	4,000.49	84.6252	4,000.49	86.2772	4,000.49	84.4278	4,000.49	85.6206	4,000.49	84.0872	4,000.49	84.8648	4,000.49	83.5269	4,000.49	83.2123	4,000.49	80.3987	4,000.49	78.4278	4,000.49	78.9559	4,000.49	76.2374	4,000.49	75.258	4,000.49	76.3053	4,000.49	74.5501	4,000.49	74.2373	4,000.49	68.0403	4,000.49	72.0556	4,000.49	66.3139	4,000.49	68.384	4,000.49	61.8164	4,000.49	54.8689	4,000.49	64.6323	4,000.49	60.0553	4,000.49	60.1012	4,000.49	51.7317	4,000.49	64.6385	4,000.49	58.86	4,000.49	66.376	4,000.49	55.867	4,000.49	61.6071	4,000.49	57.02	4,000.49	56.6431	4,000.49	64.2546	4,000.49	48.9618
4,141.11	86.7356	4,141.11	84.6344	4,141.11	87.3673	4,141.11	84.6987	4,141.11	85.7208	4,141.11	84.5492	4,141.11	84.6839	4,141.11	82.5454	4,141.11	82.5673	4,141.11	81.0014	4,141.11	78.7713	4,141.11	77.7001	4,141.11	76.0461	4,141.11	76.0964	4,141.11	72.9644	4,141.11	70.4357	4,141.11	70.4481	4,141.11	70.7862	4,141.11	74.9973	4,141.11	63.7209	4,141.11	67.3984	4,141.11	62.0433	4,141.11	60.9133	4,141.11	60.8831	4,141.11	61.1948	4,141.11	62.513	4,141.11	55.5868	4,141.11	63.3031	4,141.11	59.054	4,141.11	64.8775	4,141.11	53.4426	4,141.11	63.4088	4,141.11	57.3808	4,141.11	57.2116	4,141.11	63.4755	4,141.11	47.4823
4,287.6	86.2983	4,287.6	85.5129	4,287.6	87.4568	4,287.6	85.3621	4,287.6	85.9864	4,287.6	84.0173	4,287.6	83.9988	4,287.6	82.5502	4,287.6	83.4131	4,287.6	80.0095	4,287.6	76.9677	4,287.6	77.7065	4,287.6	71.1499	4,287.6	73.802	4,287.6	72.8712	4,287.6	71.4893	4,287.6	77.5273	4,287.6	60.8438	4,287.6	77.1997	4,287.6	63.799	4,287.6	61.1968	4,287.6	59.0521	4,287.6	55.1037	4,287.6	63.6822	4,287.6	52.7977	4,287.6	61.8268	4,287.6	59.6537	4,287.6	61.305	4,287.6	57.0962	4,287.6	64.0094	4,287.6	57.1205	4,287.6	61.9472	4,287.6	59.5467	4,287.6	59.5415	4,287.6	60.4225	4,287.6	56.6191
4,438.48	85.9462	4,438.48	84.5671	4,438.48	87.1902	4,438.48	85.4478	4,438.48	86.7252	4,438.48	84.7621	4,438.48	83.624	4,438.48	81.7281	4,438.48	82.5529	4,438.48	80.547	4,438.48	77.3296	4,438.48	75.6361	4,438.48	48.6518	4,438.48	72.7397	4,438.48	76.3543	4,438.48	69.1864	4,438.48	78.2992	4,438.48	65.7602	4,438.48	73.3938	4,438.48	60.1578	4,438.48	63.9946	4,438.48	61.7424	4,438.48	48.6813	4,438.48	60.7713	4,438.48	55.0569	4,438.48	61.39	4,438.48	59.4414	4,438.48	63.183	4,438.48	37.8446	4,438.48	63.9587	4,438.48	61.1429	4,438.48	64.4819	4,438.48	58.3474	4,438.48	61.7199	4,438.48	61.4264	4,438.48	55.2585
4,595.21	85.6836	4,595.21	85.4131	4,595.21	86.6669	4,595.21	85.523	4,595.21	86.464	4,595.21	83.2359	4,595.21	84.5041	4,595.21	82.7582	4,595.21	82.9844	4,595.21	78.7528	4,595.21	78.0198	4,595.21	75.2538	4,595.21	71.1165	4,595.21	71.8067	4,595.21	78.0607	4,595.21	67.9899	4,595.21	75.5806	4,595.21	66.5168	4,595.21	70.5477	4,595.21	62.5211	4,595.21	65.6522	4,595.21	59.1495	4,595.21	52.1739	4,595.21	59.7521	4,595.21	43.851	4,595.21	62.2071	4,595.21	56.4597	4,595.21	62.5837	4,595.21	58.4141	4,595.21	63.536	4,595.21	59.59	4,595.21	64.3256	4,595.21	59.3044	4,595.21	60.918	4,595.21	57.2412	4,595.21	54.6288
4,756.35	85.9843	4,756.35	86.1001	4,756.35	85.8186	4,756.35	86.7505	4,756.35	86.2732	4,756.35	84.4041	4,756.35	85.2612	4,756.35	82.2083	4,756.35	81.9509	4,756.35	78.9907	4,756.35	77.5187	4,756.35	74.475	4,756.35	72.7075	4,756.35	71.1379	4,756.35	76.7551	4,756.35	67.1404	4,756.35	71.0329	4,756.35	63.4393	4,756.35	69.6513	4,756.35	61.4999	4,756.35	49.7385	4,756.35	60.7971	4,756.35	57.7601	4,756.35	62.744	4,756.35	47.3835	4,756.35	61.9958	4,756.35	58.0146	4,756.35	62.5789	4,756.35	57.5569	4,756.35	65.4176	4,756.35	54.1056	4,756.35	65.5313	4,756.35	55.7544	4,756.35	64.2394	4,756.35	58.9906	4,756.35	59.0042
4,924.8	86.8226	4,924.8	86.4729	4,924.8	86.3737	4,924.8	86.4192	4,924.8	85.298	4,924.8	84.5314	4,924.8	84.6708	4,924.8	82.1447	4,924.8	81.3298	4,924.8	78.6725	4,924.8	76.5091	4,924.8	73.5209	4,924.8	72.9227	4,924.8	70.2004	4,924.8	73.8903	4,924.8	66.8999	4,924.8	71.1999	4,924.8	65.8962	4,924.8	67.3637	4,924.8	62.2398	4,924.8	57.6527	4,924.8	62.3363	4,924.8	55.2015	4,924.8	60.4191	4,924.8	57.0141	4,924.8	63.2732	4,924.8	57.5046	4,924.8	64.6281	4,924.8	53.7121	4,924.8	66.3627	4,924.8	56.7947	4,924.8	64.607	4,924.8	57.4638	4,924.8	64.4038	4,924.8	54.0872	4,924.8	58.7537
5,097.66	85.9532	5,097.66	86.5193	5,097.66	86.1059	5,097.66	86.7594	5,097.66	85.8542	5,097.66	84.7727	5,097.66	82.745	5,097.66	82.2417	5,097.66	79.9724	5,097.66	78.9232	5,097.66	75.7313	5,097.66	73.698	5,097.66	70.4126	5,097.66	69.9844	5,097.66	69.0296	5,097.66	69.077	5,097.66	70.0074	5,097.66	69.6581	5,097.66	59.57	5,097.66	65.1203	5,097.66	59.8616	5,097.66	62.9906	5,097.66	51.1055	5,097.66	62.3233	5,097.66	58.6808	5,097.66	65.1952	5,097.66	54.8106	5,097.66	64.8744	5,097.66	52.418	5,097.66	66.7535	5,097.66	53.3534	5,097.66	67.2727	5,097.66	58.4407	5,097.66	64.6587	5,097.66	56.8462	5,097.66	58.7828
5,277.83	85.7679	5,277.83	86.5637	5,277.83	84.9065	5,277.83	86.5566	5,277.83	84.6959	5,277.83	84.9004	5,277.83	82.7364	5,277.83	82.4587	5,277.83	78.4086	5,277.83	78.3466	5,277.83	77.7879	5,277.83	72.2604	5,277.83	69.1867	5,277.83	71.7219	5,277.83	64.7073	5,277.83	72.2206	5,277.83	71.4234	5,277.83	69.7493	5,277.83	69.5585	5,277.83	65.8227	5,277.83	65.6106	5,277.83	66.0287	5,277.83	55.7219	5,277.83	62.5022	5,277.83	58.7019	5,277.83	66.2271	5,277.83	49.2266	5,277.83	66.6386	5,277.83	50.0941	5,277.83	67.9583	5,277.83	52.0267	5,277.83	66.6804	5,277.83	56.7884	5,277.83	65.6282	5,277.83	53.2575	5,277.83	59.7482
5,463.87	85.0813	5,463.87	86.5517	5,463.87	84.7003	5,463.87	86.3519	5,463.87	84.5782	5,463.87	84.5865	5,463.87	83.8887	5,463.87	82.3984	5,463.87	79.7783	5,463.87	77.306	5,463.87	80.0596	5,463.87	73.0523	5,463.87	71.3913	5,463.87	73.8886	5,463.87	65.7411	5,463.87	72.7089	5,463.87	71.794	5,463.87	71.0825	5,463.87	72.2783	5,463.87	66.9753	5,463.87	64.7416	5,463.87	65.1678	5,463.87	60.0652	5,463.87	62.2669	5,463.87	56.7643	5,463.87	66.9993	5,463.87	55.3893	5,463.87	66.3978	5,463.87	56.3135	5,463.87	67.5495	5,463.87	49.4025	5,463.87	67.0351	5,463.87	55.2777	5,463.87	64.5783	5,463.87	53.8418	5,463.87	60.2763
5,657.23	84.9153	5,657.23	85.823	5,657.23	84.4064	5,657.23	86.0373	5,657.23	84.3542	5,657.23	84.6456	5,657.23	84.2482	5,657.23	82.0438	5,657.23	81.5875	5,657.23	76.3763	5,657.23	81.0246	5,657.23	75.3053	5,657.23	71.2012	5,657.23	75.4483	5,657.23	68.7602	5,657.23	74.5915	5,657.23	71.2756	5,657.23	71.943	5,657.23	70.8916	5,657.23	68.2296	5,657.23	61.14	5,657.23	65.3818	5,657.23	55.0771	5,657.23	63.4903	5,657.23	54.7358	5,657.23	66.689	5,657.23	52.5248	5,657.23	66.5847	5,657.23	53.4824	5,657.23	68.6601	5,657.23	54.3058	5,657.23	68.3582	5,657.23	55.6619	5,657.23	66.6714	5,657.23	54.2489	5,657.23	61.6529
5,856.45	84.1472	5,856.45	85.4064	5,856.45	83.8265	5,856.45	85.7913	5,856.45	83.5314	5,856.45	83.6204	5,856.45	84.0452	5,856.45	81.228	5,856.45	83.0391	5,856.45	76.908	5,856.45	81.4269	5,856.45	76.8365	5,856.45	72.7813	5,856.45	76.6689	5,856.45	71.0316	5,856.45	75.7249	5,856.45	70.1346	5,856.45	71.3076	5,856.45	70.4462	5,856.45	68.0629	5,856.45	62.234	5,856.45	64.2746	5,856.45	62.888	5,856.45	64.0018	5,856.45	56.0601	5,856.45	66.5989	5,856.45	44.6507	5,856.45	66.0089	5,856.45	53.3368	5,856.45	67.3977	5,856.45	51.9533	5,856.45	67.0776	5,856.45	52.8296	5,856.45	64.5697	5,856.45	52.1512	5,856.45	57.1818
6,062.99	85.306	6,062.99	85.0463	6,062.99	84.9568	6,062.99	85.3079	6,062.99	84.4105	6,062.99	83.5255	6,062.99	83.4052	6,062.99	79.6467	6,062.99	83.0596	6,062.99	76.9641	6,062.99	80.0042	6,062.99	77.9395	6,062.99	74.008	6,062.99	77.2341	6,062.99	71.4382	6,062.99	74.8245	6,062.99	71.3325	6,062.99	71.522	6,062.99	68.5925	6,062.99	66.8694	6,062.99	64.5073	6,062.99	62.0124	6,062.99	61.7385	6,062.99	60.0527	6,062.99	53.3465	6,062.99	64.0629	6,062.99	51.337	6,062.99	64.6517	6,062.99	53.7849	6,062.99	66.6488	6,062.99	57.1816	6,062.99	65.6202	6,062.99	54.6437	6,062.99	63.9326	6,062.99	50.1277	6,062.99	60.2552
6,276.86	85.1487	6,276.86	85.1345	6,276.86	84.7638	6,276.86	85.0842	6,276.86	83.8999	6,276.86	82.8167	6,276.86	82.5987	6,276.86	79.0207	6,276.86	80.5558	6,276.86	77.2691	6,276.86	76.7725	6,276.86	78.2376	6,276.86	73.8709	6,276.86	76.4255	6,276.86	68.9751	6,276.86	73.1024	6,276.86	72.3524	6,276.86	69.3549	6,276.86	63.6811	6,276.86	64.152	6,276.86	63.4903	6,276.86	60.9645	6,276.86	53.1221	6,276.86	60.2703	6,276.86	53.6561	6,276.86	62.4804	6,276.86	51.3952	6,276.86	63.1129	6,276.86	53.3293	6,276.86	62.0711	6,276.86	55.8336	6,276.86	63.8485	6,276.86	52.8765	6,276.86	61.8754	6,276.86	50.5607	6,276.86	56.6651
6,498.05	85.7757	6,498.05	85.6402	6,498.05	84.9556	6,498.05	84.8829	6,498.05	82.9531	6,498.05	82.1762	6,498.05	82.3547	6,498.05	78.3609	6,498.05	77.0397	6,498.05	77.8115	6,498.05	76.6386	6,498.05	77.4892	6,498.05	72.3944	6,498.05	75.0788	6,498.05	68.7548	6,498.05	70.3274	6,498.05	68.3411	6,498.05	65.8563	6,498.05	64.8296	6,498.05	60.3084	6,498.05	61.4485	6,498.05	58.5062	6,498.05	56.8799	6,498.05	57.6184	6,498.05	56.9577	6,498.05	59.4144	6,498.05	50.4575	6,498.05	59.4436	6,498.05	49.2216	6,498.05	59.1696	6,498.05	49.1506	6,498.05	61.7171	6,498.05	48.9889	6,498.05	58.4127	6,498.05	46.7911	6,498.05	55.622
6,726.56	86.1146	6,726.56	85.9347	6,726.56	85.8058	6,726.56	85.0352	6,726.56	83.4433	6,726.56	81.6619	6,726.56	81.0896	6,726.56	78.0298	6,726.56	77.8472	6,726.56	77.7705	6,726.56	75.8025	6,726.56	76.768	6,726.56	73.9083	6,726.56	73.0855	6,726.56	64.7929	6,726.56	68.8376	6,726.56	64.8165	6,726.56	63.4681	6,726.56	62.3961	6,726.56	56.9176	6,726.56	58.3314	6,726.56	54.1297	6,726.56	57.8268	6,726.56	51.857	6,726.56	56.5624	6,726.56	57.1747	6,726.56	49.9814	6,726.56	58.098	6,726.56	46.85	6,726.56	56.1774	6,726.56	48.5824	6,726.56	57.6787	6,726.56	50.0564	6,726.56	56.3398	6,726.56	48.3232	6,726.56	55.2324
6,963.87	85.9918	6,963.87	86.0509	6,963.87	85.4189	6,963.87	85.5588	6,963.87	83.4455	6,963.87	81.3761	6,963.87	80.6574	6,963.87	77.9793	6,963.87	79.583	6,963.87	78.4396	6,963.87	76.4871	6,963.87	76.1139	6,963.87	74.761	6,963.87	71.6591	6,963.87	55.3105	6,963.87	64.1747	6,963.87	62.9136	6,963.87	54.7341	6,963.87	63.2654	6,963.87	50.8166	6,963.87	56.5454	6,963.87	56.1046	6,963.87	60.4302	6,963.87	53.3068	6,963.87	54.6474	6,963.87	55.0549	6,963.87	47.8459	6,963.87	56.0261	6,963.87	47.5794	6,963.87	54.8785	6,963.87	43.5077	6,963.87	54.2912	6,963.87	55.7971	6,963.87	55.795	6,963.87	37.6718	6,963.87	56.4117
7,209.96	86.3248	7,209.96	86.5526	7,209.96	85.7077	7,209.96	85.8911	7,209.96	82.7306	7,209.96	80.1687	7,209.96	81.6979	7,209.96	78.5283	7,209.96	80.0069	7,209.96	78.46	7,209.96	78.1047	7,209.96	74.9142	7,209.96	74.5378	7,209.96	66.6231	7,209.96	64.5641	7,209.96	60.8139	7,209.96	71.1509	7,209.96	57.6494	7,209.96	64.9035	7,209.96	49.2513	7,209.96	64.7941	7,209.96	47.9643	7,209.96	62.7789	7,209.96	51.4245	7,209.96	52.9009	7,209.96	55.6305	7,209.96	47.7959	7,209.96	56.6376	7,209.96	41.8667	7,209.96	55.2495	7,209.96	52.2883	7,209.96	53.8277	7,209.96	51.0097	7,209.96	54.2845	7,209.96	40.3724	7,209.96	55.6328
7,464.84	86.1805	7,464.84	86.4777	7,464.84	85.5623	7,464.84	85.7975	7,464.84	82.9207	7,464.84	79.7014	7,464.84	80.6058	7,464.84	79.8049	7,464.84	80.1451	7,464.84	77.7136	7,464.84	78.9005	7,464.84	72.1979	7,464.84	74.6564	7,464.84	58.3142	7,464.84	67.7177	7,464.84	59.8977	7,464.84	72.0253	7,464.84	62.3535	7,464.84	68.6772	7,464.84	58.286	7,464.84	66.093	7,464.84	56.3345	7,464.84	62.9123	7,464.84	56.1071	7,464.84	56.1506	7,464.84	57.2622	7,464.84	42.0146	7,464.84	59.9604	7,464.84	51.6791	7,464.84	57.0488	7,464.84	46.8682	7,464.84	57.3684	7,464.84	48.5892	7,464.84	59.1438	7,464.84	35.916	7,464.84	57.9699
7,727.05	85.3193	7,727.05	86.0314	7,727.05	84.6788	7,727.05	85.1602	7,727.05	82.7124	7,727.05	80.2554	7,727.05	81.0028	7,727.05	81.0753	7,727.05	79.7265	7,727.05	77.582	7,727.05	78.9101	7,727.05	71.4475	7,727.05	71.5586	7,727.05	65.1207	7,727.05	69.0127	7,727.05	67.9437	7,727.05	66.2396	7,727.05	67.0002	7,727.05	63.0635	7,727.05	63.5666	7,727.05	59.6498	7,727.05	57.4553	7,727.05	58.343	7,727.05	56.8525	7,727.05	51.6986	7,727.05	58.8012	7,727.05	42.5718	7,727.05	62.6577	7,727.05	53.7232	7,727.05	60.9055	7,727.05	47.3472	7,727.05	62.0849	7,727.05	47.3628	7,727.05	61.9031	7,727.05	37.8465	7,727.05	58.1861
7,999.51	84.4487	7,999.51	85.6862	7,999.51	84.0533	7,999.51	83.6726	7,999.51	82.747	7,999.51	81.4353	7,999.51	81.5394	7,999.51	81.7739	7,999.51	78.8319	7,999.51	77.6734	7,999.51	76.5677	7,999.51	73.2926	7,999.51	75.0706	7,999.51	70.7784	7,999.51	67.0463	7,999.51	70.5597	7,999.51	60.0754	7,999.51	67.5529	7,999.51	63.3679	7,999.51	62.8448	7,999.51	60.6075	7,999.51	58.5194	7,999.51	60.5247	7,999.51	60.41	7,999.51	46.2254	7,999.51	62.708	7,999.51	43.4049	7,999.51	63.9669	7,999.51	48.3577	7,999.51	61.8199	7,999.51	46.0278	7,999.51	62.2043	7,999.51	47.4159	7,999.51	61.5403	7,999.51	35.154	7,999.51	57.1126
8,282.23	84.3034	8,282.23	85.051	8,282.23	84.2848	8,282.23	82.7355	8,282.23	82.7215	8,282.23	81.6759	8,282.23	81.3896	8,282.23	81.2051	8,282.23	76.8724	8,282.23	77.5005	8,282.23	73.1864	8,282.23	73.9319	8,282.23	74.6464	8,282.23	71.2251	8,282.23	55.4907	8,282.23	71.8665	8,282.23	65.8367	8,282.23	68.7403	8,282.23	59.1433	8,282.23	64.7383	8,282.23	64.9212	8,282.23	55.9774	8,282.23	62.9091	8,282.23	55.6475	8,282.23	56.0883	8,282.23	61.2837	8,282.23	50.2171	8,282.23	63.4128	8,282.23	50.8725	8,282.23	62.5558	8,282.23	39.135	8,282.23	62.8846	8,282.23	51.1027	8,282.23	62.2314	8,282.23	36.1566	8,282.23	57.495
8,573.73	84.8317	8,573.73	84.6855	8,573.73	84.3	8,573.73	82.2122	8,573.73	83.0597	8,573.73	81.1892	8,573.73	79.5365	8,573.73	80.8623	8,573.73	75.6772	8,573.73	77.1433	8,573.73	72.7181	8,573.73	73.0917	8,573.73	72.5872	8,573.73	72.0506	8,573.73	67.2074	8,573.73	70.936	8,573.73	62.9287	8,573.73	66.8589	8,573.73	59.4892	8,573.73	61.5605	8,573.73	62.598	8,573.73	55.489	8,573.73	63.4152	8,573.73	55.3755	8,573.73	54.6201	8,573.73	61.0285	8,573.73	53.1649	8,573.73	62.62	8,573.73	52.6146	8,573.73	61.0521	8,573.73	44.7185	8,573.73	61.3508	8,573.73	43.7709	8,573.73	60.4972	8,573.73	45.4818	8,573.73	55.3769
8,876.95	85.0374	8,876.95	84.8698	8,876.95	84.2308	8,876.95	82.235	8,876.95	83.5837	8,876.95	80.6559	8,876.95	79.6123	8,876.95	79.911	8,876.95	75.9425	8,876.95	75.4343	8,876.95	74.6276	8,876.95	72.1245	8,876.95	70.1072	8,876.95	71.8743	8,876.95	70.394	8,876.95	70.5823	8,876.95	57.7211	8,876.95	66.2035	8,876.95	58.8666	8,876.95	60.5793	8,876.95	62.4855	8,876.95	54.6747	8,876.95	63.0371	8,876.95	51.6657	8,876.95	50.7607	8,876.95	57.46	8,876.95	50.7908	8,876.95	59.3465	8,876.95	48.1779	8,876.95	57.4949	8,876.95	43.3008	8,876.95	59.3995	8,876.95	49.181	8,876.95	58.5473	8,876.95	47.5877	8,876.95	53.1333
9,188.96	85.4003	9,188.96	84.8177	9,188.96	84.1703	9,188.96	82.342	9,188.96	82.9229	9,188.96	80.2336	9,188.96	80.4816	9,188.96	79.015	9,188.96	76.8694	9,188.96	71.9402	9,188.96	76.0133	9,188.96	72.4258	9,188.96	71.0462	9,188.96	72.7339	9,188.96	69.9178	9,188.96	68.806	9,188.96	50.0617	9,188.96	61.6665	9,188.96	60.156	9,188.96	54.0284	9,188.96	64.9112	9,188.96	51.5318	9,188.96	61.8778	9,188.96	52.2756	9,188.96	52.3849	9,188.96	51.9292	9,188.96	45.4961	9,188.96	54.813	9,188.96	49.7637	9,188.96	53.8095	9,188.96	47.4201	9,188.96	55.2241	9,188.96	45.8807	9,188.96	56.3094	9,188.96	49.5746	9,188.96	50.0136
9,514.16	84.9614	9,514.16	84.2942	9,514.16	82.6856	9,514.16	83.0021	9,514.16	82.5111	9,514.16	80.9252	9,514.16	80.1941	9,514.16	78.0688	9,514.16	77.6882	9,514.16	70.1366	9,514.16	76.3352	9,514.16	74.0378	9,514.16	72.7355	9,514.16	69.3334	9,514.16	68.7919	9,514.16	62.3514	9,514.16	59.9825	9,514.16	43.5312	9,514.16	61.5721	9,514.16	43.4631	9,514.16	65.9743	9,514.16	48.9615	9,514.16	64.5815	9,514.16	46.0545	9,514.16	52.0541	9,514.16	50.0053	9,514.16	49.0863	9,514.16	48.3022	9,514.16	52.7341	9,514.16	48.9303	9,514.16	50.7904	9,514.16	47.9011	9,514.16	46.8121	9,514.16	48.2983	9,514.16	48.5494	9,514.16	42.9925
9,849.61	84.2494	9,849.61	84.0265	9,849.61	81.9924	9,849.61	83.4282	9,849.61	81.8804	9,849.61	81.4334	9,849.61	81.0569	9,849.61	78.2388	9,849.61	76.2961	9,849.61	74.0071	9,849.61	72.475	9,849.61	74.6337	9,849.61	71.4095	9,849.61	64.7097	9,849.61	65.9723	9,849.61	55.5613	9,849.61	57.169	9,849.61	58.9697	9,849.61	59.5562	9,849.61	56.1712	9,849.61	66.8057	9,849.61	46.4886	9,849.61	65.9958	9,849.61	47.4848	9,849.61	55.0401	9,849.61	55.6533	9,849.61	49.0735	9,849.61	54.9956	9,849.61	53.0993	9,849.61	54.3443	9,849.61	49.6595	9,849.61	53.9653	9,849.61	44.9574	9,849.61	49.5275	9,849.61	43.5367	9,849.61	45.3786
10,196.8	84.0123	10,196.8	84.1196	10,196.8	82.4969	10,196.8	83.3117	10,196.8	81.9371	10,196.8	81.3918	10,196.8	80.3176	10,196.8	77.7466	10,196.8	76.0912	10,196.8	76.5077	10,196.8	69.9303	10,196.8	74.5655	10,196.8	69.3226	10,196.8	61.6833	10,196.8	65.453	10,196.8	62.183	10,196.8	55.3689	10,196.8	63.4005	10,196.8	61.2897	10,196.8	58.0728	10,196.8	67.4116	10,196.8	52.7174	10,196.8	66.1113	10,196.8	50.7307	10,196.8	54.1294	10,196.8	57.9346	10,196.8	49.0431	10,196.8	57.6252	10,196.8	51.6209	10,196.8	56.4806	10,196.8	42.1124	10,196.8	56.8035	10,196.8	47.0712	10,196.8	55.2439	10,196.8	38.3238	10,196.8	49.0386
10,555.7	83.7459	10,555.7	83.2511	10,555.7	82.8008	10,555.7	82.2183	10,555.7	81.7212	10,555.7	80.6686	10,555.7	79.3094	10,555.7	76.6639	10,555.7	75.2785	10,555.7	76.9082	10,555.7	71.7736	10,555.7	73.3002	10,555.7	68.08	10,555.7	63.7361	10,555.7	66.8219	10,555.7	64.1842	10,555.7	59.9687	10,555.7	63.3496	10,555.7	60.8394	10,555.7	58.0129	10,555.7	66.794	10,555.7	49.221	10,555.7	66.0366	10,555.7	47.478	10,555.7	54.309	10,555.7	56.4583	10,555.7	49.1779	10,555.7	57.3115	10,555.7	52.8246	10,555.7	57.1235	10,555.7	49.7389	10,555.7	57.721	10,555.7	51.2009	10,555.7	56.9446	10,555.7	43.3279	10,555.7	51.2314
10,927.7	82.8329	10,927.7	82.016	10,927.7	81.84	10,927.7	80.1406	10,927.7	80.139	10,927.7	78.6022	10,927.7	78.26	10,927.7	75.3551	10,927.7	72.8373	10,927.7	75.5456	10,927.7	70.8347	10,927.7	69.7122	10,927.7	66.9483	10,927.7	64.1	10,927.7	64.6853	10,927.7	64.7516	10,927.7	55.5764	10,927.7	62.8344	10,927.7	51.5438	10,927.7	56.0003	10,927.7	63.9713	10,927.7	46.9864	10,927.7	64.2584	10,927.7	48.5868	10,927.7	53.957	10,927.7	54.0331	10,927.7	51.3229	10,927.7	54.865	10,927.7	51.556	10,927.7	55.1367	10,927.7	52.3072	10,927.7	55.9361	10,927.7	52.9694	10,927.7	55.0613	10,927.7	45.6156	10,927.7	50.9196
11,313	81.433	11,313	81.1012	11,313	80.7883	11,313	78.8903	11,313	78.4557	11,313	76.3914	11,313	76.665	11,313	74.3024	11,313	73.9406	11,313	72.6847	11,313	69.4258	11,313	64.079	11,313	67.4548	11,313	65.0198	11,313	62.0871	11,313	63.8218	11,313	58.006	11,313	60.3207	11,313	55.149	11,313	52.6027	11,313	62.8553	11,313	41.6169	11,313	63.4827	11,313	47.094	11,313	51.3156	11,313	48.3867	11,313	50.7287	11,313	51.6537	11,313	49.7382	11,313	51.717	11,313	49.3	11,313	51.6864	11,313	50.3369	11,313	51.5158	11,313	41.5101	11,313	45.6717
11,712.9	79.1352	11,712.9	79.5013	11,712.9	78.316	11,712.9	78.0064	11,712.9	76.0225	11,712.9	74.1664	11,712.9	75.0811	11,712.9	72.8871	11,712.9	70.7356	11,712.9	68.3411	11,712.9	66.3062	11,712.9	60.9897	11,712.9	63.9172	11,712.9	64.1492	11,712.9	57.7698	11,712.9	58.6555	11,712.9	54.8625	11,712.9	54.2747	11,712.9	49.8363	11,712.9	44.4636	11,712.9	59.7772	11,712.9	36.2198	11,712.9	61.0651	11,712.9	41.9343	11,712.9	48.4279	11,712.9	43.3313	11,712.9	44.3215	11,712.9	44.3859	11,712.9	45.0305	11,712.9	44.9379	11,712.9	45.4413	11,712.9	45.076	11,712.9	47.396	11,712.9	46.4867	11,712.9	39.9329	11,712.9	40.375
12,126	81.0234	12,126	81.6875	12,126	80.3452	12,126	80.6116	12,126	78.4041	12,126	76.643	12,126	76.5651	12,126	75.104	12,126	71.7869	12,126	68.5704	12,126	67.4677	12,126	66.8906	12,126	64.9911	12,126	66.8289	12,126	60.6224	12,126	57.6671	12,126	52.1842	12,126	51.3469	12,126	49.5566	12,126	47.3467	12,126	59.8829	12,126	33.2763	12,126	61.6196	12,126	35.5834	12,126	49.5655	12,126	44.3714	12,126	47.1568	12,126	40.446	12,126	42.3355	12,126	44.91	12,126	44.791	12,126	44.1169	12,126	45.3981	12,126	42.3005	12,126	33.4699	12,126	37.0386
12,553.7	81.4587	12,553.7	81.7584	12,553.7	80.9452	12,553.7	81.35	12,553.7	79.0195	12,553.7	77.6033	12,553.7	77.2438	12,553.7	76.267	12,553.7	72.2207	12,553.7	69.6042	12,553.7	68.4472	12,553.7	70.1509	12,553.7	61.4953	12,553.7	66.3476	12,553.7	58.0324	12,553.7	51.7422	12,553.7	54.2669	12,553.7	50.7302	12,553.7	53.5465	12,553.7	52.1751	12,553.7	59.499	12,553.7	31.4875	12,553.7	60.8727	12,553.7	39.7789	12,553.7	45.9343	12,553.7	42.3648	12,553.7	40.7163	12,553.7	47.1949	12,553.7	35.5169	12,553.7	48.7057	12,553.7	38.6466	12,553.7	46.3035	12,553.7	39.5033	12,553.7	43.0515	12,553.7	33.4492	12,553.7	32.314
12,996.1	82.004	12,996.1	81.7327	12,996.1	81.3134	12,996.1	81.6901	12,996.1	78.7918	12,996.1	78.0646	12,996.1	76.801	12,996.1	76.7706	12,996.1	72.555	12,996.1	70.2068	12,996.1	69.2907	12,996.1	71.189	12,996.1	65.0532	12,996.1	62.5614	12,996.1	57.5001	12,996.1	54.7086	12,996.1	56.3278	12,996.1	56.9907	12,996.1	50.3932	12,996.1	54.9636	12,996.1	56.7637	12,996.1	37.7898	12,996.1	58.9357	12,996.1	42.5246	12,996.1	48.8124	12,996.1	45.0743	12,996.1	45.9883	12,996.1	50.1956	12,996.1	44.01	12,996.1	51.7279	12,996.1	33.8012	12,996.1	49.8289	12,996.1	40.9416	12,996.1	48.1997	12,996.1	42.4529	12,996.1	39.2415
13,454.6	84.2393	13,454.6	83.4167	13,454.6	83.058	13,454.6	82.8768	13,454.6	80.8972	13,454.6	78.1501	13,454.6	78.9431	13,454.6	77.7536	13,454.6	75.5713	13,454.6	72.1209	13,454.6	69.5771	13,454.6	71.4463	13,454.6	65.913	13,454.6	56.5093	13,454.6	57.4323	13,454.6	60.7274	13,454.6	57.6397	13,454.6	59.6188	13,454.6	52.3698	13,454.6	56.7474	13,454.6	56.2558	13,454.6	43.1917	13,454.6	59.0669	13,454.6	44.5457	13,454.6	51.6737	13,454.6	47.1788	13,454.6	48.6848	13,454.6	52.2759	13,454.6	48.4354	13,454.6	53.3648	13,454.6	42.3344	13,454.6	51.802	13,454.6	47.0918	13,454.6	49.7788	13,454.6	40.7227	13,454.6	43.1537
13,929.2	85.3802	13,929.2	84.7178	13,929.2	84.1155	13,929.2	83.9467	13,929.2	82.1118	13,929.2	78.3673	13,929.2	79.4329	13,929.2	77.6514	13,929.2	76.5808	13,929.2	74.0474	13,929.2	69.4607	13,929.2	68.0334	13,929.2	64.4313	13,929.2	64.6451	13,929.2	63.6813	13,929.2	62.9823	13,929.2	56.8071	13,929.2	59.5329	13,929.2	53.6533	13,929.2	56.8969	13,929.2	55.9441	13,929.2	48.3671	13,929.2	58.6288	13,929.2	40.8068	13,929.2	50.5148	13,929.2	49.1632	13,929.2	46.7139	13,929.2	52.6819	13,929.2	45.1276	13,929.2	53.1468	13,929.2	44.4014	13,929.2	52.076	13,929.2	48.1308	13,929.2	52.3893	13,929.2	41.9764	13,929.2	47.7439
14,419.9	85.1548	14,419.9	84.6582	14,419.9	84.4299	14,419.9	83.8398	14,419.9	82.2883	14,419.9	78.7978	14,419.9	79.3601	14,419.9	75.0423	14,419.9	75.978	14,419.9	73.2771	14,419.9	71.1169	14,419.9	61.2909	14,419.9	64.6462	14,419.9	67.7303	14,419.9	63.613	14,419.9	63.7905	14,419.9	60.8755	14,419.9	54.9318	14,419.9	54.5546	14,419.9	53.1173	14,419.9	53.1124	14,419.9	46.1947	14,419.9	58.1081	14,419.9	35.836	14,419.9	49.6308	14,419.9	48.7371	14,419.9	42.996	14,419.9	51.9458	14,419.9	43.9658	14,419.9	51.6096	14,419.9	43.8084	14,419.9	50.9039	14,419.9	45.1256	14,419.9	52.5953	14,419.9	37.6135	14,419.9	46.5587
14,928.2	84.254	14,928.2	84.0811	14,928.2	84.3859	14,928.2	82.9734	14,928.2	81.3983	14,928.2	79.8669	14,928.2	78.9406	14,928.2	73.4726	14,928.2	75.0453	14,928.2	71.7733	14,928.2	71.2404	14,928.2	65.5201	14,928.2	66.456	14,928.2	67.4115	14,928.2	61.8915	14,928.2	58.4	14,928.2	60.4175	14,928.2	46.1237	14,928.2	58.4915	14,928.2	49.5616	14,928.2	56.3797	14,928.2	52.0198	14,928.2	56.6652	14,928.2	39.4195	14,928.2	48.167	14,928.2	48.3713	14,928.2	40.236	14,928.2	49.2312	14,928.2	32.3076	14,928.2	52.7891	14,928.2	42.6919	14,928.2	53.7767	14,928.2	36.9894	14,928.2	53.1989	14,928.2	44.5387	14,928.2	45.9145
15,455.6	83.81	15,455.6	84.0168	15,455.6	83.4388	15,455.6	82.6767	15,455.6	78.8143	15,455.6	80.222	15,455.6	77.2912	15,455.6	76.0187	15,455.6	74.1064	15,455.6	72.9188	15,455.6	68.1508	15,455.6	69.7014	15,455.6	59.8716	15,455.6	65.4163	15,455.6	60.4006	15,455.6	46.6779	15,455.6	53.256	15,455.6	57.5293	15,455.6	55.0043	15,455.6	52.2528	15,455.6	59.8626	15,455.6	56.8846	15,455.6	57.7976	15,455.6	36.8892	15,455.6	46.9227	15,455.6	48.4879	15,455.6	41.8979	15,455.6	52.9841	15,455.6	33.179	15,455.6	56.823	15,455.6	42.1979	15,455.6	58.8421	15,455.6	46.4522	15,455.6	57.6791	15,455.6	51.2963	15,455.6	51.8676
16,000.5	83.2612	16,000.5	83.5635	16,000.5	82.5603	16,000.5	82.1653	16,000.5	77.7701	16,000.5	79.5006	16,000.5	75.7007	16,000.5	75.7664	16,000.5	71.9824	16,000.5	72.1233	16,000.5	66.8104	16,000.5	69.5739	16,000.5	63.6166	16,000.5	61.532	16,000.5	54.7177	16,000.5	57.4143	16,000.5	53.777	16,000.5	59.5315	16,000.5	52.8207	16,000.5	52.01	16,000.5	61.7214	16,000.5	57.792	16,000.5	58.8067	16,000.5	31.6015	16,000.5	48.2456	16,000.5	49.6626	16,000.5	41.2949	16,000.5	53.3103	16,000.5	27.1961	16,000.5	57.8941	16,000.5	41.4593	16,000.5	60.5417	16,000.5	47.0816	16,000.5	58.7748	16,000.5	51.9499	16,000.5	52.5177
16,564.5	83.4546	16,564.5	84.226	16,564.5	82.857	16,564.5	81.7294	16,564.5	78.3843	16,564.5	78.2816	16,564.5	76.3507	16,564.5	75.4881	16,564.5	72.5066	16,564.5	68.727	16,564.5	67.7387	16,564.5	69.592	16,564.5	64.0414	16,564.5	57.963	16,564.5	57.3314	16,564.5	61.3488	16,564.5	55.0369	16,564.5	60.395	16,564.5	53.6072	16,564.5	48.9385	16,564.5	63.1668	16,564.5	57.698	16,564.5	60.4862	16,564.5	37.0497	16,564.5	48.8183	16,564.5	50.919	16,564.5	45.3165	16,564.5	53.542	16,564.5	33.5614	16,564.5	57.7732	16,564.5	42.6007	16,564.5	60.7195	16,564.5	43.9585	16,564.5	58.7502	16,564.5	50.696	16,564.5	51.4966
17,148.9	82.6327	17,148.9	84.0643	17,148.9	82.1679	17,148.9	81.3518	17,148.9	76.4324	17,148.9	76.743	17,148.9	75.7085	17,148.9	74.7221	17,148.9	72.7123	17,148.9	67.0877	17,148.9	66.3682	17,148.9	66.9801	17,148.9	63.281	17,148.9	63.6834	17,148.9	51.3105	17,148.9	59.5073	17,148.9	51.9227	17,148.9	59.4572	17,148.9	53.4668	17,148.9	44.6455	17,148.9	63.3338	17,148.9	57.4134	17,148.9	59.8797	17,148.9	42.3327	17,148.9	49.9572	17,148.9	54.0001	17,148.9	46.456	17,148.9	53.9998	17,148.9	39.4309	17,148.9	59.3766	17,148.9	43.1041	17,148.9	61.7588	17,148.9	44.8817	17,148.9	58.7268	17,148.9	51.0389	17,148.9	51.7471
17,752.4	82.5934	17,752.4	83.8962	17,752.4	82.3835	17,752.4	81.0003	17,752.4	76.4215	17,752.4	74.7128	17,752.4	76.1449	17,752.4	73.5745	17,752.4	73.1792	17,752.4	68.19	17,752.4	67.9895	17,752.4	61.5598	17,752.4	62.6302	17,752.4	66.0674	17,752.4	57.2607	17,752.4	52.1322	17,752.4	48.3322	17,752.4	57.0055	17,752.4	55.7402	17,752.4	46.8702	17,752.4	64.2246	17,752.4	57.5618	17,752.4	59.5787	17,752.4	47.9827	17,752.4	50.9496	17,752.4	55.8003	17,752.4	50.4278	17,752.4	54.5723	17,752.4	45.7112	17,752.4	60.681	17,752.4	46.4685	17,752.4	62.2778	17,752.4	49.2723	17,752.4	58.8569	17,752.4	51.5092	17,752.4	51.3676
18,379.4	83.6651	18,379.4	85.0415	18,379.4	83.6028	18,379.4	82.1689	18,379.4	78.3045	18,379.4	73.8822	18,379.4	77.7533	18,379.4	72.3282	18,379.4	74.6675	18,379.4	70.1814	18,379.4	69.8532	18,379.4	57.963	18,379.4	64.7689	18,379.4	65.7784	18,379.4	58.8931	18,379.4	54.0217	18,379.4	48.257	18,379.4	52.4199	18,379.4	56.3612	18,379.4	52.9632	18,379.4	65.0185	18,379.4	59.2882	18,379.4	58.3636	18,379.4	50.8103	18,379.4	52.2569	18,379.4	56.0993	18,379.4	51.9896	18,379.4	56.2351	18,379.4	50.4155	18,379.4	61.9808	18,379.4	51.4584	18,379.4	63.6281	18,379.4	55.0584	18,379.4	60.4422	18,379.4	53.7229	18,379.4	53.1138
19,026.9	85.7871	19,026.9	86.8226	19,026.9	85.659	19,026.9	84.376	19,026.9	81.4651	19,026.9	75.8958	19,026.9	80.1397	19,026.9	69.1882	19,026.9	77.1309	19,026.9	70.4621	19,026.9	71.9301	19,026.9	66.0129	19,026.9	66.4002	19,026.9	63.3622	19,026.9	59.8809	19,026.9	63.633	19,026.9	51.224	19,026.9	55.5331	19,026.9	60.1982	19,026.9	57.1272	19,026.9	65.7871	19,026.9	62.0196	19,026.9	55.7834	19,026.9	53.3103	19,026.9	53.7331	19,026.9	57.0899	19,026.9	55.4481	19,026.9	59.8799	19,026.9	54.5666	19,026.9	63.2002	19,026.9	54.6097	19,026.9	65.2194	19,026.9	59.0081	19,026.9	63.7344	19,026.9	58.7464	19,026.9	57.0232
19,697.8	85.9602	19,697.8	86.6713	19,697.8	86.0831	19,697.8	84.5653	19,697.8	82.6566	19,697.8	76.1031	19,697.8	81.0632	19,697.8	64.3534	19,697.8	78.215	19,697.8	66.232	19,697.8	71.9642	19,697.8	67.183	19,697.8	67.774	19,697.8	63.1161	19,697.8	58.7999	19,697.8	64.5329	19,697.8	47.5023	19,697.8	58.7695	19,697.8	59.8604	19,697.8	57.5103	19,697.8	66.3505	19,697.8	61.8687	19,697.8	49.994	19,697.8	52.8436	19,697.8	52.6264	19,697.8	56.9326	19,697.8	54.088	19,697.8	61.5939	19,697.8	56.4799	19,697.8	62.3256	19,697.8	55.9098	19,697.8	65.4411	19,697.8	58.6177	19,697.8	66.0483	19,697.8	61.02	19,697.8	58.6667
19,999.5	85.9418	19,999.5	86.2514	19,999.5	86.02	19,999.5	83.9754	19,999.5	83.4412	19,999.5	75.1177	19,999.5	81.5749	19,999.5	68.1976	19,999.5	78.1146	19,999.5	67.428	19,999.5	72.688	19,999.5	67.0746	19,999.5	67.4064	19,999.5	66.0979	19,999.5	62.6515	19,999.5	63.3552	19,999.5	59.3534	19,999.5	61.3973	19,999.5	63.662	19,999.5	59.0067	19,999.5	66.1157	19,999.5	63.2967	19,999.5	49.5966	19,999.5	45.8656	19,999.5	52.596	19,999.5	59.8271	19,999.5	56.4687	19,999.5	61.7514	19,999.5	42.2181	19,999.5	62.2736	19,999.5	56.3699	19,999.5	64.1481	19,999.5	60.4229	19,999.5	67.5785	19,999.5	58.8013	19,999.5	60.1408
