"SPL Horizontal"
"On-Axis"		"10°"		"-10°"		"20°"		"-20°"		"30°"		"-30°"		"40°"		"-40°"		"50°"		"-50°"		"60°"		"-60°"		"70°"		"-70°"		"80°"		"-80°"		"90°"		"-90°"		"100°"		"-100°"		"110°"		"-110°"		"120°"		"-120°"		"130°"		"-130°"		"140°"		"-140°"		"150°"		"-150°"		"160°"		"-160°"		"170°"		"-170°"		"180°"
"Frequency [Hz]"	"Sound Pessure Level [dB]   [0.3V at 1m]"	"Frequency [Hz]"	"Sound Pessure Level [dB]   [0.3V at 1m]"	"Frequency [Hz]"	"Sound Pessure Level [dB]   [0.3V at 1m]"	"Frequency [Hz]"	"Sound Pessure Level [dB]   [0.3V at 1m]"	"Frequency [Hz]"	"Sound Pessure Level [dB]   [0.3V at 1m]"	"Frequency [Hz]"	"Sound Pessure Level [dB]   [0.3V at 1m]"	"Frequency [Hz]"	"Sound Pessure Level [dB]   [0.3V at 1m]"	"Frequency [Hz]"	"Sound Pessure Level [dB]   [0.3V at 1m]"	"Frequency [Hz]"	"Sound Pessure Level [dB]   [0.3V at 1m]"	"Frequency [Hz]"	"Sound Pessure Level [dB]   [0.3V at 1m]"	"Frequency [Hz]"	"Sound Pessure Level [dB]   [0.3V at 1m]"	"Frequency [Hz]"	"Sound Pessure Level [dB]   [0.3V at 1m]"	"Frequency [Hz]"	"Sound Pessure Level [dB]   [0.3V at 1m]"	"Frequency [Hz]"	"Sound Pessure Level [dB]   [0.3V at 1m]"	"Frequency [Hz]"	"Sound Pessure Level [dB]   [0.3V at 1m]"	"Frequency [Hz]"	"Sound Pessure Level [dB]   [0.3V at 1m]"	"Frequency [Hz]"	"Sound Pessure Level [dB]   [0.3V at 1m]"	"Frequency [Hz]"	"Sound Pessure Level [dB]   [0.3V at 1m]"	"Frequency [Hz]"	"Sound Pessure Level [dB]   [0.3V at 1m]"	"Frequency [Hz]"	"Sound Pessure Level [dB]   [0.3V at 1m]"	"Frequency [Hz]"	"Sound Pessure Level [dB]   [0.3V at 1m]"	"Frequency [Hz]"	"Sound Pessure Level [dB]   [0.3V at 1m]"	"Frequency [Hz]"	"Sound Pessure Level [dB]   [0.3V at 1m]"	"Frequency [Hz]"	"Sound Pessure Level [dB]   [0.3V at 1m]"	"Frequency [Hz]"	"Sound Pessure Level [dB]   [0.3V at 1m]"	"Frequency [Hz]"	"Sound Pessure Level [dB]   [0.3V at 1m]"	"Frequency [Hz]"	"Sound Pessure Level [dB]   [0.3V at 1m]"	"Frequency [Hz]"	"Sound Pessure Level [dB]   [0.3V at 1m]"	"Frequency [Hz]"	"Sound Pessure Level [dB]   [0.3V at 1m]"	"Frequency [Hz]"	"Sound Pessure Level [dB]   [0.3V at 1m]"	"Frequency [Hz]"	"Sound Pessure Level [dB]   [0.3V at 1m]"	"Frequency [Hz]"	"Sound Pessure Level [dB]   [0.3V at 1m]"	"Frequency [Hz]"	"Sound Pessure Level [dB]   [0.3V at 1m]"	"Frequency [Hz]"	"Sound Pessure Level [dB]   [0.3V at 1m]"	"Frequency [Hz]"	"Sound Pessure Level [dB]   [0.3V at 1m]"	"Frequency [Hz]"	"Sound Pessure Level [dB]   [0.3V at 1m]"
30.7617	65.0474	30.7617	65.0305	30.7617	65.063	30.7617	65.0176	30.7617	65.0789	30.7617	65.0208	30.7617	65.1035	30.7617	65.0577	30.7617	65.1519	30.7617	65.1493	30.7617	65.2442	30.7617	65.3164	30.7617	65.4024	30.7617	65.5742	30.7617	65.6453	30.7617	65.9281	30.7617	65.9836	30.7617	66.3705	30.7617	66.4147	30.7617	66.8827	30.7617	66.9221	30.7617	67.4374	30.7617	67.4783	30.7617	68.0036	30.7617	68.0493	30.7617	68.5494	30.7617	68.5996	30.7617	69.0447	30.7617	69.0958	30.7617	69.4629	30.7617	69.5091	30.7617	69.7818	30.7617	69.8169	30.7617	69.9845	30.7617	70.0034	30.7617	70.0599
32.2266	67.117	32.2266	67.0819	32.2266	67.1612	32.2266	67.0612	32.2266	67.216	32.2266	67.0667	32.2266	67.2896	32.2266	67.1157	32.2266	67.3953	32.2266	67.2286	32.2266	67.5501	32.2266	67.4243	32.2266	67.7707	32.2266	67.7161	32.2266	68.0694	32.2266	68.1063	32.2266	68.4503	32.2266	68.5852	32.2266	68.9064	32.2266	69.1316	32.2266	69.4203	32.2266	69.7165	32.2266	69.9664	32.2266	70.307	32.2266	70.5153	32.2266	70.8704	32.2266	71.0366	32.2266	71.3763	32.2266	71.5023	32.2266	71.7989	32.2266	71.888	32.2266	72.1181	32.2266	72.1744	32.2266	72.3199	32.2266	72.3469	32.2266	72.3967
33.6914	69.9918	33.6914	69.9931	33.6914	69.9934	33.6914	69.9999	33.6914	70.0007	33.6914	70.0207	33.6914	70.0222	33.6914	70.0686	33.6914	70.0713	33.6914	70.1602	33.6914	70.1645	33.6914	70.3127	33.6914	70.319	33.6914	70.5405	33.6914	70.5489	33.6914	70.851	33.6914	70.8611	33.6914	71.2415	33.6914	71.2519	33.6914	71.6984	33.6914	71.707	33.6914	72.1991	33.6914	72.2033	33.6914	72.7148	33.6914	72.7126	33.6914	73.2148	33.6914	73.2054	33.6914	73.6688	33.6914	73.6537	33.6914	74.05	33.6914	74.0325	33.6914	74.3364	33.6914	74.3211	33.6914	74.5123	33.6914	74.5034	33.6914	74.5687
35.1562	72.4242	35.1562	72.433	35.1562	72.4085	35.1562	72.4366	35.1562	72.3886	35.1562	72.4415	35.1562	72.372	35.1562	72.4582	35.1562	72.3706	35.1562	72.501	35.1562	72.3999	35.1562	72.5862	35.1562	72.4773	35.1562	72.7299	35.1562	72.6192	35.1562	72.9442	35.1562	72.8373	35.1562	73.2341	35.1562	73.1347	35.1562	73.5942	35.1562	73.504	35.1562	74.0087	35.1562	73.9273	35.1562	74.4532	35.1562	74.3791	35.1562	74.8976	35.1562	74.83	35.1562	75.3104	35.1562	75.2501	35.1562	75.6625	35.1562	75.6119	35.1562	75.929	35.1562	75.892	35.1562	76.0919	35.1562	76.0723	35.1562	76.1406
36.6211	74.356	36.6211	74.3487	36.6211	74.3527	36.6211	74.3322	36.6211	74.3432	36.6211	74.314	36.6211	74.3373	36.6211	74.3075	36.6211	74.3499	36.6211	74.332	36.6211	74.4001	36.6211	74.4102	36.6211	74.5086	36.6211	74.5651	36.6211	74.6942	36.6211	74.8131	36.6211	74.9686	36.6211	75.1592	36.6211	75.332	36.6211	75.5928	36.6211	75.7716	36.6211	76.0894	36.6211	76.2627	36.6211	76.6154	36.6211	76.7738	36.6211	77.1341	36.6211	77.2708	36.6211	77.6106	36.6211	77.7217	36.6211	78.0154	36.6211	78.0988	36.6211	78.3248	36.6211	78.3802	36.6211	78.5225	36.6211	78.55	36.6211	78.5985
38.0859	75.5995	38.0859	75.5808	38.0859	75.6268	38.0859	75.5726	38.0859	75.665	38.0859	75.5821	38.0859	75.7213	38.0859	75.6209	38.0859	75.8062	38.0859	75.704	38.0859	75.9324	38.0859	75.8473	38.0859	76.1125	38.0859	76.0643	38.0859	76.3566	38.0859	76.3619	38.0859	76.6686	38.0859	76.7374	38.0859	77.0446	38.0859	77.1777	38.0859	77.4723	38.0859	77.6608	38.0859	77.9316	38.0859	78.1591	38.0859	78.3982	38.0859	78.6434	38.0859	78.8457	38.0859	79.0857	38.0859	79.2484	38.0859	79.4612	38.0859	79.5833	38.0859	79.75	38.0859	79.8314	38.0859	79.9373	38.0859	79.978	38.0859	80.0144
39.5508	77.292	39.5508	77.2798	39.5508	77.3185	39.5508	77.2847	39.5508	77.3611	39.5508	77.3135	39.5508	77.4255	39.5508	77.3768	39.5508	77.5203	39.5508	77.4874	39.5508	77.6563	39.5508	77.6582	39.5508	77.8443	39.5508	77.8987	39.5508	78.0924	39.5508	78.2123	39.5508	78.404	39.5508	78.5939	39.5508	78.7752	39.5508	79.0299	39.5508	79.1946	39.5508	79.4994	39.5508	79.6441	39.5508	79.9775	39.5508	80.1009	39.5508	80.4378	39.5508	80.5399	39.5508	80.8552	39.5508	80.9364	39.5508	81.2073	39.5508	81.2681	39.5508	81.4756	39.5508	81.5163	39.5508	81.6464	39.5508	81.6668	39.5508	81.7111
41.0156	79.4703	41.0156	79.4891	41.0156	79.4645	41.0156	79.5229	41.0156	79.4723	41.0156	79.5759	41.0156	79.4968	41.0156	79.654	41.0156	79.5433	41.0156	79.7638	41.0156	79.619	41.0156	79.912	41.0156	79.732	41.0156	80.1032	41.0156	79.8899	41.0156	80.3391	41.0156	80.0976	41.0156	80.6174	41.0156	80.3563	41.0156	80.9308	41.0156	80.6614	41.0156	81.2675	41.0156	81.0023	41.0156	81.6119	41.0156	81.3629	41.0156	81.9454	41.0156	81.7233	41.0156	82.2487	41.0156	82.062	41.0156	82.5027	41.0156	82.3577	41.0156	82.6903	41.0156	82.5915	41.0156	82.7984	41.0156	82.7484	41.0156	82.8186
42.4805	80.8931	42.4805	80.8862	42.4805	80.9129	42.4805	80.894	42.4805	80.9467	42.4805	80.921	42.4805	80.9978	42.4805	80.9741	42.4805	81.0724	42.4805	81.0618	42.4805	81.1776	42.4805	81.1926	42.4805	81.3212	42.4805	81.3739	42.4805	81.5097	42.4805	81.6094	42.4805	81.7464	42.4805	81.8978	42.4805	82.0303	42.4805	82.2315	42.4805	82.3542	42.4805	82.597	42.4805	82.7059	42.4805	82.976	42.4805	83.0684	42.4805	83.3472	42.4805	83.4221	42.4805	83.6889	42.4805	83.7465	42.4805	83.9805	42.4805	84.0218	42.4805	84.2042	42.4805	84.2307	42.4805	84.3466	42.4805	84.3595	42.4805	84.3992
43.9453	82.393	43.9453	82.4131	43.9453	82.3872	43.9453	82.4483	43.9453	82.3969	43.9453	82.5017	43.9453	82.4259	43.9453	82.5782	43.9453	82.4797	43.9453	82.6842	43.9453	82.5651	43.9453	82.8259	43.9453	82.6895	43.9453	83.0087	43.9453	82.859	43.9453	83.2352	43.9453	83.0771	43.9453	83.5041	43.9453	83.343	43.9453	83.8094	43.9453	83.651	43.9453	84.14	43.9453	83.9897	43.9453	84.4806	43.9453	84.3434	43.9453	84.813	43.9453	84.6931	43.9453	85.1176	43.9453	85.0183	43.9453	85.3753	43.9453	85.2991	43.9453	85.5693	43.9453	85.5177	43.9453	85.6861	43.9453	85.66	43.9453	85.7172
45.4102	84.136	45.4102	84.1561	45.4102	84.1299	45.4102	84.1909	45.4102	84.139	45.4102	84.2429	45.4102	84.1662	45.4102	84.3161	45.4102	84.216	45.4102	84.4152	45.4102	84.294	45.4102	84.5454	45.4102	84.406	45.4102	84.7107	45.4102	84.5571	45.4102	84.9134	45.4102	84.7504	45.4102	85.1524	45.4102	84.9857	45.4102	85.423	45.4102	85.2585	45.4102	85.716	45.4102	85.5596	45.4102	86.0185	45.4102	85.8757	45.4102	86.3146	45.4102	86.1901	45.4102	86.5869	45.4102	86.4842	45.4102	86.818	45.4102	86.7395	45.4102	86.9922	45.4102	86.9393	45.4102	87.0968	45.4102	87.0703	45.4102	87.1237
46.875	85.5232	46.875	85.5367	46.875	85.5268	46.875	85.5681	46.875	85.5482	46.875	85.6192	46.875	85.5895	46.875	85.6931	46.875	85.654	46.875	85.7937	46.875	85.7456	46.875	85.9244	46.875	85.8683	46.875	86.0883	46.875	86.0254	46.875	86.2865	46.875	86.2186	46.875	86.5176	46.875	86.4466	46.875	86.7766	46.875	86.705	46.875	87.0553	46.875	86.9857	46.875	87.342	46.875	87.2771	46.875	87.6223	46.875	87.5647	46.875	87.8805	46.875	87.8323	46.875	88.1007	46.875	88.0635	46.875	88.2682	46.875	88.243	46.875	88.3713	46.875	88.3586	46.875	88.4023
48.3398	86.7868	48.3398	86.7976	48.3398	86.7915	48.3398	86.8241	48.3398	86.8123	48.3398	86.8677	48.3398	86.8515	48.3398	86.9309	48.3398	86.9117	48.3398	87.0169	48.3398	86.9966	48.3398	87.1291	48.3398	87.1095	48.3398	87.2706	48.3398	87.2534	48.3398	87.4432	48.3398	87.4294	48.3398	87.6467	48.3398	87.6369	48.3398	87.8781	48.3398	87.8719	48.3398	88.1307	48.3398	88.1275	48.3398	88.3945	48.3398	88.3933	48.3398	88.6563	48.3398	88.6562	48.3398	88.9008	48.3398	88.9011	48.3398	89.1121	48.3398	89.1125	48.3398	89.2753	48.3398	89.2757	48.3398	89.3786	48.3398	89.3788	48.3398	89.414
51.2695	88.623	51.2695	88.6346	51.2695	88.6322	51.2695	88.6675	51.2695	88.6626	51.2695	88.7226	51.2695	88.7149	51.2695	88.8012	51.2695	88.7904	51.2695	88.9051	51.2695	88.8908	51.2695	89.0355	51.2695	89.0177	51.2695	89.1933	51.2695	89.1721	51.2695	89.3783	51.2695	89.3542	51.2695	89.5884	51.2695	89.5623	51.2695	89.8196	51.2695	89.7927	51.2695	90.0651	51.2695	90.0387	51.2695	90.3156	51.2695	90.291	51.2695	90.5595	51.2695	90.5379	51.2695	90.7841	51.2695	90.7663	51.2695	90.9759	51.2695	90.9624	51.2695	91.1227	51.2695	91.1137	51.2695	91.2143	51.2695	91.2099	51.2695	91.2442
52.7344	89.3808	52.7344	89.3969	52.7344	89.3873	52.7344	89.4355	52.7344	89.4168	52.7344	89.4969	52.7344	89.4697	52.7344	89.5814	52.7344	89.5468	52.7344	89.6894	52.7344	89.6488	52.7344	89.8212	52.7344	89.7763	52.7344	89.9764	52.7344	89.9295	52.7344	90.1542	52.7344	90.1074	52.7344	90.3523	52.7344	90.3079	52.7344	90.5668	52.7344	90.5268	52.7344	90.7919	52.7344	90.7577	52.7344	91.0197	52.7344	90.9921	52.7344	91.2406	52.7344	91.2196	52.7344	91.4435	52.7344	91.4285	52.7344	91.6169	52.7344	91.607	52.7344	91.7499	52.7344	91.7441	52.7344	91.8333	52.7344	91.8306	52.7344	91.861
54.1992	90.0196	54.1992	90.0288	54.1992	90.0327	54.1992	90.0601	54.1992	90.0681	54.1992	90.1135	54.1992	90.126	54.1992	90.1889	54.1992	90.2064	54.1992	90.286	54.1992	90.3094	54.1992	90.4047	54.1992	90.4345	54.1992	90.5442	54.1992	90.581	54.1992	90.7032	54.1992	90.7471	54.1992	90.8796	54.1992	90.9301	54.1992	91.0699	54.1992	91.1259	54.1992	91.2693	54.1992	91.3287	54.1992	91.4711	54.1992	91.5313	54.1992	91.6676	54.1992	91.7252	54.1992	91.8494	54.1992	91.9008	54.1992	92.0066	54.1992	92.0486	54.1992	92.1298	54.1992	92.1594	54.1992	92.2106	54.1992	92.226	54.1992	92.2434
55.6641	90.5628	55.6641	90.5597	55.6641	90.5851	55.6641	90.5759	55.6641	90.6262	55.6641	90.6113	55.6641	90.6859	55.6641	90.6657	55.6641	90.7635	55.6641	90.7392	55.6641	90.8585	55.6641	90.8312	55.6641	90.9697	55.6641	90.9414	55.6641	91.0958	55.6641	91.0686	55.6641	91.2349	55.6641	91.2114	55.6641	91.3845	55.6641	91.3674	55.6641	91.5415	55.6641	91.5329	55.6641	91.7018	55.6641	91.7029	55.6641	91.8602	55.6641	91.871	55.6641	92.0108	55.6641	92.0292	55.6641	92.1465	55.6641	92.1687	55.6641	92.2596	55.6641	92.2808	55.6641	92.3427	55.6641	92.3578	55.6641	92.3891	55.6641	92.3946
58.5938	91.228	58.5938	91.2349	58.5938	91.2391	58.5938	91.2596	58.5938	91.268	58.5938	91.3018	58.5938	91.3141	58.5938	91.3606	58.5938	91.3766	58.5938	91.4353	58.5938	91.4546	58.5938	91.5248	58.5938	91.5466	58.5938	91.6279	58.5938	91.6514	58.5938	91.7432	58.5938	91.7675	58.5938	91.869	58.5938	91.8931	58.5938	92.0032	58.5938	92.0262	58.5938	92.143	58.5938	92.1639	58.5938	92.2844	58.5938	92.3026	58.5938	92.4221	58.5938	92.4371	58.5938	92.5498	58.5938	92.5615	58.5938	92.6603	58.5938	92.6687	58.5938	92.7461	58.5938	92.7515	58.5938	92.8011	58.5938	92.8037	58.5938	92.8207
60.0586	91.3608	60.0586	91.3674	60.0586	91.3723	60.0586	91.3919	60.0586	91.4016	60.0586	91.4339	60.0586	91.4481	60.0586	91.4925	60.0586	91.5106	60.0586	91.5665	60.0586	91.5878	60.0586	91.6545	60.0586	91.6783	60.0586	91.755	60.0586	91.7804	60.0586	91.8662	60.0586	91.8924	60.0586	91.9862	60.0586	92.0124	60.0586	92.1129	60.0586	92.1383	60.0586	92.2435	60.0586	92.2674	60.0586	92.3744	60.0586	92.3961	60.0586	92.5011	60.0586	92.52	60.0586	92.6181	60.0586	92.6336	60.0586	92.7191	60.0586	92.7309	60.0586	92.7976	60.0586	92.8055	60.0586	92.8481	60.0586	92.8521	60.0586	92.8667
62.9883	91.6022	62.9883	91.6043	62.9883	91.6179	62.9883	91.6238	62.9883	91.6506	62.9883	91.6601	62.9883	91.6995	62.9883	91.7118	62.9883	91.763	62.9883	91.7774	62.9883	91.839	62.9883	91.8547	62.9883	91.9255	62.9883	91.9417	62.9883	92.02	62.9883	92.0364	62.9883	92.1202	62.9883	92.1366	62.9883	92.224	62.9883	92.2403	62.9883	92.3288	62.9883	92.3454	62.9883	92.4325	62.9883	92.4496	62.9883	92.5322	62.9883	92.5501	62.9883	92.6249	62.9883	92.6432	62.9883	92.7071	62.9883	92.7247	62.9883	92.775	62.9883	92.7899	62.9883	92.8246	62.9883	92.8347	62.9883	92.8524	62.9883	92.856
64.4531	91.6177	64.4531	91.62	64.4531	91.6325	64.4531	91.6393	64.4531	91.6642	64.4531	91.6745	64.4531	91.7114	64.4531	91.7242	64.4531	91.7725	64.4531	91.7862	64.4531	91.8452	64.4531	91.8582	64.4531	91.927	64.4531	91.9378	64.4531	92.0153	64.4531	92.0227	64.4531	92.1075	64.4531	92.1109	64.4531	92.2012	64.4531	92.2005	64.4531	92.294	64.4531	92.29	64.4531	92.3837	64.4531	92.3777	64.4531	92.4681	64.4531	92.4617	64.4531	92.5451	64.4531	92.5395	64.4531	92.6121	64.4531	92.608	64.4531	92.6662	64.4531	92.6638	64.4531	92.7044	64.4531	92.7033	64.4531	92.7242	64.4531	92.7239
67.3828	91.6559	67.3828	91.6628	67.3828	91.6663	67.3828	91.6864	67.3828	91.6934	67.3828	91.7255	67.3828	91.7359	67.3828	91.7781	67.3828	91.7916	67.3828	91.8413	67.3828	91.8578	67.3828	91.9122	67.3828	91.9315	67.3828	91.9877	67.3828	92.0094	67.3828	92.065	67.3828	92.0885	67.3828	92.1415	67.3828	92.1662	67.3828	92.2154	67.3828	92.2402	67.3828	92.285	67.3828	92.3089	67.3828	92.3495	67.3828	92.3714	67.3828	92.4078	67.3828	92.4267	67.3828	92.4589	67.3828	92.4741	67.3828	92.5015	67.3828	92.5126	67.3828	92.534	67.3828	92.5411	67.3828	92.5548	67.3828	92.5583	67.3828	92.563
68.8477	91.6485	68.8477	91.6535	68.8477	91.661	68.8477	91.6755	68.8477	91.6903	68.8477	91.713	68.8477	91.735	68.8477	91.7641	68.8477	91.7928	68.8477	91.8258	68.8477	91.8607	68.8477	91.8952	68.8477	91.9356	68.8477	91.969	68.8477	92.0138	68.8477	92.0442	68.8477	92.0922	68.8477	92.1182	68.8477	92.1678	68.8477	92.1889	68.8477	92.2384	68.8477	92.2551	68.8477	92.3025	68.8477	92.3156	68.8477	92.359	68.8477	92.3699	68.8477	92.4075	68.8477	92.4172	68.8477	92.4476	68.8477	92.4565	68.8477	92.4791	68.8477	92.4867	68.8477	92.5015	68.8477	92.5068	68.8477	92.514	68.8477	92.5159
71.7773	91.5997	71.7773	91.604	71.7773	91.6131	71.7773	91.6255	71.7773	91.6436	71.7773	91.6627	71.7773	91.6894	71.7773	91.7133	71.7773	91.748	71.7773	91.7743	71.7773	91.8162	71.7773	91.8421	71.7773	91.8902	71.7773	91.9131	71.7773	91.9661	71.7773	91.9839	71.7773	92.0405	71.7773	92.0515	71.7773	92.11	71.7773	92.1136	71.7773	92.1723	71.7773	92.1689	71.7773	92.2259	71.7773	92.2169	71.7773	92.2702	71.7773	92.2576	71.7773	92.3053	71.7773	92.2916	71.7773	92.3318	71.7773	92.3193	71.7773	92.3504	71.7773	92.3407	71.7773	92.3619	71.7773	92.3558	71.7773	92.3665	71.7773	92.3645
74.707	91.5864	74.707	91.5902	74.707	91.5996	74.707	91.6104	74.707	91.6289	74.707	91.6455	74.707	91.6728	74.707	91.6929	74.707	91.7284	74.707	91.7495	74.707	91.7924	74.707	91.8116	74.707	91.8606	74.707	91.8752	74.707	91.9292	74.707	91.9366	74.707	91.9941	74.707	91.9927	74.707	92.0521	74.707	92.0412	74.707	92.1007	74.707	92.0808	74.707	92.1385	74.707	92.1114	74.707	92.1655	74.707	92.134	74.707	92.1824	74.707	92.15	74.707	92.1911	74.707	92.1613	74.707	92.1935	74.707	92.1697	74.707	92.1918	74.707	92.1765	74.707	92.1877	74.707	92.1825
77.6367	91.5356	77.6367	91.5367	77.6367	91.5509	77.6367	91.5536	77.6367	91.5817	77.6367	91.5849	77.6367	91.6263	77.6367	91.628	77.6367	91.6817	77.6367	91.6795	77.6367	91.7442	77.6367	91.7355	77.6367	91.8097	77.6367	91.7921	77.6367	91.8737	77.6367	91.8451	77.6367	91.9321	77.6367	91.8914	77.6367	91.9814	77.6367	91.9285	77.6367	92.0191	77.6367	91.9553	77.6367	92.0439	77.6367	91.972	77.6367	92.0559	77.6367	91.9804	77.6367	92.0565	77.6367	91.983	77.6367	92.0485	77.6367	91.9829	77.6367	92.0349	77.6367	91.9832	77.6367	92.0193	77.6367	91.9862	77.6367	92.0047	77.6367	91.9933
79.1016	91.4944	79.1016	91.4964	79.1016	91.509	79.1016	91.5147	79.1016	91.5397	79.1016	91.5475	79.1016	91.5846	79.1016	91.5921	79.1016	91.6408	79.1016	91.6451	79.1016	91.7045	79.1016	91.7024	79.1016	91.7714	79.1016	91.7596	79.1016	91.8367	79.1016	91.8127	79.1016	91.8962	79.1016	91.8583	79.1016	91.9461	79.1016	91.8936	79.1016	91.9835	79.1016	91.9178	79.1016	92.0071	79.1016	91.931	79.1016	92.017	79.1016	91.9353	79.1016	92.0146	79.1016	91.9336	79.1016	92.0028	79.1016	91.9297	79.1016	91.9853	79.1016	91.927	79.1016	91.9661	79.1016	91.9284	79.1016	91.9486	79.1016	91.9356
82.0312	91.418	82.0312	91.4175	82.0312	91.4358	82.0312	91.434	82.0312	91.4701	82.0312	91.4658	82.0312	91.5191	82.0312	91.51	82.0312	91.5795	82.0312	91.5631	82.0312	91.6475	82.0312	91.6206	82.0312	91.7183	82.0312	91.678	82.0312	91.7871	82.0312	91.7309	82.0312	91.8492	82.0312	91.7756	82.0312	91.9006	82.0312	91.8095	82.0312	91.9381	82.0312	91.8313	82.0312	91.9601	82.0312	91.8417	82.0312	91.9665	82.0312	91.8429	82.0312	91.959	82.0312	91.8384	82.0312	91.9406	82.0312	91.8326	82.0312	91.9155	82.0312	91.8297	82.0312	91.8883	82.0312	91.833	82.0312	91.8634	82.0312	91.8443
84.9609	91.4365	84.9609	91.435	84.9609	91.454	84.9609	91.4491	84.9609	91.4866	84.9609	91.4772	84.9609	91.5324	84.9609	91.5168	84.9609	91.5885	84.9609	91.5645	84.9609	91.6511	84.9609	91.6161	84.9609	91.7159	84.9609	91.6674	84.9609	91.7785	84.9609	91.7142	84.9609	91.8344	84.9609	91.753	84.9609	91.8798	84.9609	91.7812	84.9609	91.9118	84.9609	91.7978	84.9609	91.9289	84.9609	91.8033	84.9609	91.9309	84.9609	91.8	84.9609	91.9194	84.9609	91.7917	84.9609	91.8973	84.9609	91.7828	84.9609	91.8689	84.9609	91.7778	84.9609	91.8389	84.9609	91.7801	84.9609	91.8119	84.9609	91.7916
87.8906	91.3002	87.8906	91.3059	87.8906	91.3104	87.8906	91.3269	87.8906	91.3359	87.8906	91.3614	87.8906	91.375	87.8906	91.407	87.8906	91.4254	87.8906	91.4601	87.8906	91.4835	87.8906	91.5167	87.8906	91.5455	87.8906	91.5724	87.8906	91.607	87.8906	91.623	87.8906	91.6639	87.8906	91.665	87.8906	91.7124	87.8906	91.6958	87.8906	91.7497	87.8906	91.7144	87.8906	91.7739	87.8906	91.7213	87.8906	91.7848	87.8906	91.719	87.8906	91.7834	87.8906	91.711	87.8906	91.7723	87.8906	91.7017	87.8906	91.7548	87.8906	91.6954	87.8906	91.7349	87.8906	91.6951	87.8906	91.7163	87.8906	91.7023
90.8203	91.3641	90.8203	91.3687	90.8203	91.3732	90.8203	91.3869	90.8203	91.3954	90.8203	91.4174	90.8203	91.429	90.8203	91.4579	90.8203	91.4715	90.8203	91.5053	90.8203	91.5195	90.8203	91.5558	90.8203	91.569	90.8203	91.6049	90.8203	91.6158	90.8203	91.6484	90.8203	91.6557	90.8203	91.682	90.8203	91.6851	90.8203	91.7028	90.8203	91.7013	90.8203	91.709	90.8203	91.7032	90.8203	91.7008	90.8203	91.6916	90.8203	91.6801	90.8203	91.6688	90.8203	91.6511	90.8203	91.6391	90.8203	91.6189	90.8203	91.608	90.8203	91.5894	90.8203	91.5812	90.8203	91.5682	90.8203	91.5637	90.8203	91.5591
95.2148	91.4205	95.2148	91.4261	95.2148	91.4272	95.2148	91.4434	95.2148	91.4455	95.2148	91.4711	95.2148	91.4744	95.2148	91.507	95.2148	91.5114	95.2148	91.548	95.2148	91.5535	95.2148	91.5904	95.2148	91.597	95.2148	91.63	95.2148	91.6375	95.2148	91.6624	95.2148	91.6708	95.2148	91.6837	95.2148	91.6929	95.2148	91.6909	95.2148	91.7008	95.2148	91.6826	95.2148	91.693	95.2148	91.6593	95.2148	91.6699	95.2148	91.6237	95.2148	91.6341	95.2148	91.5807	95.2148	91.5903	95.2148	91.5369	95.2148	91.545	95.2148	91.4993	95.2148	91.5051	95.2148	91.4743	95.2148	91.4774	95.2148	91.4666
98.1445	91.3909	98.1445	91.398	98.1445	91.3945	98.1445	91.4156	98.1445	91.4086	98.1445	91.4422	98.1445	91.4322	98.1445	91.4761	98.1445	91.4634	98.1445	91.5145	98.1445	91.4994	98.1445	91.5538	98.1445	91.5367	98.1445	91.59	98.1445	91.5714	98.1445	91.619	98.1445	91.5991	98.1445	91.6368	98.1445	91.6159	98.1445	91.6403	98.1445	91.6188	98.1445	91.6279	98.1445	91.6063	98.1445	91.6	98.1445	91.5788	98.1445	91.5591	98.1445	91.5392	98.1445	91.5103	98.1445	91.4925	98.1445	91.4602	98.1445	91.4455	98.1445	91.4161	98.1445	91.4056	98.1445	91.3852	98.1445	91.3797	98.1445	91.3724
101.074	91.4435	101.074	91.4454	101.074	91.4503	101.074	91.4557	101.074	91.4654	101.074	91.4735	101.074	91.4877	101.074	91.4972	101.074	91.5154	101.074	91.5243	101.074	91.546	101.074	91.5518	101.074	91.5761	101.074	91.576	101.074	91.6018	101.074	91.5929	101.074	91.6191	101.074	91.5988	101.074	91.6239	101.074	91.5906	101.074	91.6136	101.074	91.5669	101.074	91.5866	101.074	91.5281	101.074	91.5439	101.074	91.4771	101.074	91.4887	101.074	91.4192	101.074	91.4268	101.074	91.3615	101.074	91.3659	101.074	91.3122	101.074	91.3143	101.074	91.2789	101.074	91.2797	101.074	91.2673
105.469	91.547	105.469	91.5452	105.469	91.5553	105.469	91.5498	105.469	91.5697	105.469	91.5597	105.469	91.5888	105.469	91.5735	105.469	91.6109	105.469	91.5884	105.469	91.6332	105.469	91.6012	105.469	91.6525	105.469	91.6079	105.469	91.6648	105.469	91.6045	105.469	91.6662	105.469	91.5875	105.469	91.6532	105.469	91.5543	105.469	91.623	105.469	91.5044	105.469	91.5748	105.469	91.4397	105.469	91.5098	105.469	91.3648	105.469	91.4319	105.469	91.2868	105.469	91.3475	105.469	91.2145	105.469	91.2649	105.469	91.1574	105.469	91.1936	105.469	91.1235	105.469	91.1424	105.469	91.1181
108.398	91.4564	108.398	91.4568	108.398	91.4625	108.398	91.4636	108.398	91.4746	108.398	91.4761	108.398	91.4919	108.398	91.4928	108.398	91.5129	108.398	91.5116	108.398	91.5353	108.398	91.5292	108.398	91.5561	108.398	91.5421	108.398	91.5717	108.398	91.546	108.398	91.5782	108.398	91.5373	108.398	91.5718	108.398	91.5133	108.398	91.5499	108.398	91.4731	108.398	91.5111	108.398	91.4178	108.398	91.4565	108.398	91.3517	108.398	91.3895	108.398	91.281	108.398	91.316	108.398	91.2141	108.398	91.2439	108.398	91.16	108.398	91.1818	108.398	91.1263	108.398	91.1379	108.398	91.1185
112.793	91.3439	112.793	91.3388	112.793	91.3549	112.793	91.3398	112.793	91.3716	112.793	91.347	112.793	91.3936	112.793	91.3597	112.793	91.4198	112.793	91.3768	112.793	91.4487	112.793	91.3963	112.793	91.4778	112.793	91.4151	112.793	91.5035	112.793	91.4294	112.793	91.5217	112.793	91.4351	112.793	91.5278	112.793	91.4287	112.793	91.518	112.793	91.408	112.793	91.4901	112.793	91.3725	112.793	91.4443	112.793	91.3246	112.793	91.3837	112.793	91.2692	112.793	91.3144	112.793	91.2134	112.793	91.2451	112.793	91.1657	112.793	91.1853	112.793	91.1345	112.793	91.1437	112.793	91.1262
117.188	91.459	117.188	91.4569	117.188	91.4634	117.188	91.4564	117.188	91.4705	117.188	91.4571	117.188	91.481	117.188	91.4586	117.188	91.4949	117.188	91.4601	117.188	91.5119	117.188	91.4601	117.188	91.5304	117.188	91.4567	117.188	91.5477	117.188	91.4477	117.188	91.5603	117.188	91.4307	117.188	91.564	117.188	91.4042	117.188	91.5548	117.188	91.3678	117.188	91.5297	117.188	91.3229	117.188	91.4878	117.188	91.2727	117.188	91.4306	117.188	91.2223	117.188	91.363	117.188	91.178	117.188	91.2919	117.188	91.1463	117.188	91.2262	117.188	91.133	117.188	91.1741	117.188	91.142
120.117	91.6503	120.117	91.6551	120.117	91.6479	120.117	91.6615	120.117	91.6486	120.117	91.6689	120.117	91.6528	120.117	91.6763	120.117	91.6607	120.117	91.6825	120.117	91.6713	120.117	91.6855	120.117	91.6831	120.117	91.6829	120.117	91.6931	120.117	91.6717	120.117	91.6981	120.117	91.6493	120.117	91.6942	120.117	91.6139	120.117	91.6782	120.117	91.5654	120.117	91.6476	120.117	91.5059	120.117	91.6019	120.117	91.44	120.117	91.5429	120.117	91.3744	120.117	91.4749	120.117	91.3168	120.117	91.4047	120.117	91.2749	120.117	91.3402	120.117	91.255	120.117	91.2898	120.117	91.26
124.512	91.6423	124.512	91.6463	124.512	91.6402	124.512	91.652	124.512	91.6405	124.512	91.6588	124.512	91.643	124.512	91.6657	124.512	91.6474	124.512	91.6716	124.512	91.6524	124.512	91.6745	124.512	91.6563	124.512	91.6719	124.512	91.6562	124.512	91.6604	124.512	91.6491	124.512	91.637	124.512	91.6318	124.512	91.5991	124.512	91.602	124.512	91.5455	124.512	91.5584	124.512	91.4779	124.512	91.5018	124.512	91.4008	124.512	91.4348	124.512	91.3216	124.512	91.3624	124.512	91.2496	124.512	91.2912	124.512	91.1943	124.512	91.2287	124.512	91.163	124.512	91.1825	124.512	91.1592
128.906	91.7226	128.906	91.7185	128.906	91.726	128.906	91.7135	128.906	91.7286	128.906	91.7074	128.906	91.7303	128.906	91.6998	128.906	91.7302	128.906	91.69	128.906	91.7273	128.906	91.677	128.906	91.7197	128.906	91.659	128.906	91.705	128.906	91.634	128.906	91.6804	128.906	91.5997	128.906	91.6432	128.906	91.5538	128.906	91.5913	128.906	91.495	128.906	91.5242	128.906	91.4238	128.906	91.4435	128.906	91.3428	128.906	91.3536	128.906	91.2575	128.906	91.2613	128.906	91.1762	128.906	91.1757	128.906	91.1082	128.906	91.1061	128.906	91.0626	128.906	91.0611	128.906	91.046
133.301	91.8291	133.301	91.8219	133.301	91.8366	133.301	91.8146	133.301	91.844	133.301	91.8064	133.301	91.8504	133.301	91.7957	133.301	91.8542	133.301	91.7805	133.301	91.8532	133.301	91.7581	133.301	91.8442	133.301	91.7256	133.301	91.8237	133.301	91.6798	133.301	91.7878	133.301	91.6184	133.301	91.7327	133.301	91.5396	133.301	91.6558	133.301	91.4432	133.301	91.5562	133.301	91.3312	133.301	91.4359	133.301	91.2088	133.301	91.3003	133.301	91.0841	133.301	91.1591	133.301	90.9686	133.301	91.0251	133.301	90.8752	133.301	90.9126	133.301	90.8166	133.301	90.8351	133.301	90.802
139.16	91.5697	139.16	91.5616	139.16	91.5797	139.16	91.5556	139.16	91.5913	139.16	91.552	139.16	91.6044	139.16	91.5502	139.16	91.6181	139.16	91.5488	139.16	91.6313	139.16	91.5452	139.16	91.6415	139.16	91.5359	139.16	91.6448	139.16	91.5165	139.16	91.6366	139.16	91.483	139.16	91.6117	139.16	91.4324	139.16	91.5657	139.16	91.3634	139.16	91.4959	139.16	91.2773	139.16	91.4027	139.16	91.1784	139.16	91.2905	139.16	91.0745	139.16	91.1681	139.16	90.9764	139.16	91.0479	139.16	90.8966	139.16	90.9443	139.16	90.8472	139.16	90.871	139.16	90.8375
143.555	91.5333	143.555	91.5237	143.555	91.5359	143.555	91.5073	143.555	91.5329	143.555	91.485	143.555	91.5268	143.555	91.4587	143.555	91.5206	143.555	91.4298	143.555	91.5165	143.555	91.3986	143.555	91.5157	143.555	91.3643	143.555	91.5169	143.555	91.3247	143.555	91.517	143.555	91.2778	143.555	91.5111	143.555	91.2223	143.555	91.4934	143.555	91.1587	143.555	91.4587	143.555	91.0896	143.555	91.4038	143.555	91.0199	143.555	91.3284	143.555	90.9563	143.555	91.2367	143.555	90.906	143.555	91.1367	143.555	90.8763	143.555	91.0398	143.555	90.8732	143.555	90.9578	143.555	90.9005
147.949	91.6425	147.949	91.6601	147.949	91.6173	147.949	91.6693	147.949	91.5854	147.949	91.6697	147.949	91.548	147.949	91.6611	147.949	91.5065	147.949	91.6433	147.949	91.4621	147.949	91.6157	147.949	91.4158	147.949	91.5772	147.949	91.3688	147.949	91.5265	147.949	91.3218	147.949	91.4632	147.949	91.2758	147.949	91.3883	147.949	91.2315	147.949	91.3051	147.949	91.1895	147.949	91.2197	147.949	91.1501	147.949	91.1397	147.949	91.1132	147.949	91.0722	147.949	91.0785	147.949	91.0223	147.949	91.0463	147.949	90.9916	147.949	91.0179	147.949	90.9788	147.949	90.9952	147.949	90.9811
153.809	91.454	153.809	91.4454	153.809	91.4624	153.809	91.4364	153.809	91.4709	153.809	91.4264	153.809	91.4788	153.809	91.4144	153.809	91.4845	153.809	91.3986	153.809	91.4849	153.809	91.376	153.809	91.4749	153.809	91.3421	153.809	91.448	153.809	91.2916	153.809	91.3973	153.809	91.2186	153.809	91.3169	153.809	91.119	153.809	91.204	153.809	90.9921	153.809	91.0605	153.809	90.8426	153.809	90.8942	153.809	90.6802	153.809	90.7176	153.809	90.5195	153.809	90.5463	153.809	90.3766	153.809	90.3961	153.809	90.2661	153.809	90.2795	153.809	90.198	153.809	90.2051	153.809	90.1773
159.668	91.1788	159.668	91.1625	159.668	91.1867	159.668	91.1406	159.668	91.1853	159.668	91.117	159.668	91.1759	159.668	91.0962	159.668	91.1611	159.668	91.0819	159.668	91.1445	159.668	91.0757	159.668	91.1285	159.668	91.0759	159.668	91.1131	159.668	91.0771	159.668	91.0946	159.668	91.0705	159.668	91.0658	159.668	91.0451	159.668	91.0175	159.668	90.991	159.668	90.9414	159.668	90.902	159.668	90.8333	159.668	90.7782	159.668	90.6962	159.668	90.6282	159.668	90.5415	159.668	90.4689	159.668	90.3883	159.668	90.323	159.668	90.2603	159.668	90.2148	159.668	90.1804	159.668	90.1641
165.527	91.3786	165.527	91.3464	165.527	91.3803	165.527	91.2833	165.527	91.3545	165.527	91.1912	165.527	91.3054	165.527	91.0745	165.527	91.2386	165.527	90.9397	165.527	91.1596	165.527	90.7952	165.527	91.074	165.527	90.6509	165.527	90.9865	165.527	90.5172	165.527	90.9008	165.527	90.4042	165.527	90.819	165.527	90.3185	165.527	90.7406	165.527	90.2615	165.527	90.6627	165.527	90.2286	165.527	90.5817	165.527	90.2103	165.527	90.4951	165.527	90.1965	165.527	90.4045	165.527	90.1808	165.527	90.316	165.527	90.1636	165.527	90.2394	165.527	90.1518	165.527	90.1843	165.527	90.1559
171.387	91.3992	171.387	91.4176	171.387	91.3804	171.387	91.4343	171.387	91.3617	171.387	91.4472	171.387	91.3433	171.387	91.4532	171.387	91.3236	171.387	91.4477	171.387	91.2998	171.387	91.4243	171.387	91.2666	171.387	91.3759	171.387	91.2179	171.387	91.2954	171.387	91.1475	171.387	91.1783	171.387	91.0516	171.387	91.0245	171.387	90.9308	171.387	90.8408	171.387	90.7911	171.387	90.6418	171.387	90.6428	171.387	90.4472	171.387	90.4979	171.387	90.2781	171.387	90.3666	171.387	90.1509	171.387	90.2546	171.387	90.0731	171.387	90.1641	171.387	90.0431	171.387	90.0961	171.387	90.0537
177.246	90.8141	177.246	90.8052	177.246	90.8113	177.246	90.7865	177.246	90.7973	177.246	90.762	177.246	90.7755	177.246	90.7366	177.246	90.7511	177.246	90.7143	177.246	90.7302	177.246	90.6972	177.246	90.7176	177.246	90.6843	177.246	90.7147	177.246	90.6715	177.246	90.7186	177.246	90.6521	177.246	90.7216	177.246	90.619	177.246	90.7138	177.246	90.5675	177.246	90.6854	177.246	90.4969	177.246	90.6311	177.246	90.4124	177.246	90.5518	177.246	90.3242	177.246	90.4553	177.246	90.2446	177.246	90.3546	177.246	90.1856	177.246	90.2641	177.246	90.1554	177.246	90.1961	177.246	90.1588
183.105	91.2529	183.105	91.2278	183.105	91.251	183.105	91.1778	183.105	91.2225	183.105	91.1076	183.105	91.1707	183.105	91.0239	183.105	91.1007	183.105	90.9343	183.105	91.0189	183.105	90.8463	183.105	90.9319	183.105	90.7657	183.105	90.8459	183.105	90.6958	183.105	90.7653	183.105	90.6372	183.105	90.6931	183.105	90.588	183.105	90.6301	183.105	90.5454	183.105	90.5755	183.105	90.5062	183.105	90.5276	183.105	90.4687	183.105	90.4845	183.105	90.433	183.105	90.4453	183.105	90.4012	183.105	90.4107	183.105	90.3761	183.105	90.3828	183.105	90.3606	183.105	90.3641	183.105	90.3564
188.965	91.2995	188.965	91.2772	188.965	91.2919	188.965	91.2253	188.965	91.2568	188.965	91.1467	188.965	91.1987	188.965	91.0462	188.965	91.1237	188.965	90.93	188.965	91.038	188.965	90.8037	188.965	90.9467	188.965	90.6718	188.965	90.8529	188.965	90.5372	188.965	90.7572	188.965	90.4013	188.965	90.6586	188.965	90.2659	188.965	90.5556	188.965	90.1349	188.965	90.4475	188.965	90.0143	188.965	90.3349	188.965	89.9117	188.965	90.2198	188.965	89.833	188.965	90.1064	188.965	89.7815	188.965	90.0001	188.965	89.7571	188.965	89.9074	188.965	89.7582	188.965	89.8342	188.965	89.7841
196.289	91.2076	196.289	91.2058	196.289	91.1772	196.289	91.1709	196.289	91.1179	196.289	91.1045	196.289	91.0345	196.289	91.0107	196.289	90.9336	196.289	90.8958	196.289	90.8223	196.289	90.7679	196.289	90.7073	196.289	90.6349	196.289	90.594	196.289	90.5033	196.289	90.4854	196.289	90.3766	196.289	90.382	196.289	90.255	196.289	90.283	196.289	90.1364	196.289	90.1876	196.289	90.0189	196.289	90.0959	196.289	89.9044	196.289	90.0085	196.289	89.7996	196.289	89.9259	196.289	89.7156	196.289	89.8479	196.289	89.6629	196.289	89.7755	196.289	89.6473	196.289	89.7125	196.289	89.6665
203.613	90.8301	203.613	90.8489	203.613	90.7829	203.613	90.8356	203.613	90.7133	203.613	90.7887	203.613	90.6288	203.613	90.7081	203.613	90.5377	203.613	90.5945	203.613	90.4466	203.613	90.4496	203.613	90.3586	203.613	90.2759	203.613	90.2718	203.613	90.0781	203.613	90.1805	203.613	89.8648	203.613	90.0773	203.613	89.6492	203.613	89.9576	203.613	89.4481	203.613	89.8215	203.613	89.2786	203.613	89.6747	203.613	89.1524	203.613	89.527	203.613	89.0719	203.613	89.3894	203.613	89.0308	203.613	89.2709	203.613	89.0195	203.613	89.1764	203.613	89.0298	203.613	89.1064	203.613	89.0585
210.938	90.7417	210.938	90.7931	210.938	90.67	210.938	90.8262	210.938	90.5771	210.938	90.8447	210.938	90.4642	210.938	90.8517	210.938	90.334	210.938	90.8486	210.938	90.1909	210.938	90.8332	210.938	90.0399	210.938	90.7987	210.938	89.8852	210.938	90.7344	210.938	89.7281	210.938	90.6271	210.938	89.5668	210.938	90.4652	210.938	89.3984	210.938	90.2429	210.938	89.2224	210.938	89.9655	210.938	89.0452	210.938	89.6518	210.938	88.8795	210.938	89.334	210.938	88.7405	210.938	89.049	210.938	88.639	210.938	88.8256	210.938	88.5797	210.938	88.6751	210.938	88.5629	210.938	88.5917
218.262	90.1655	218.262	90.1632	218.262	90.1537	218.262	90.1525	218.262	90.1261	218.262	90.1417	218.262	90.0853	218.262	90.1385	218.262	90.0378	218.262	90.1487	218.262	89.9923	218.262	90.1735	218.262	89.9573	218.262	90.21	218.262	89.9381	218.262	90.2515	218.262	89.9336	218.262	90.2887	218.262	89.9352	218.262	90.3103	218.262	89.9273	218.262	90.3039	218.262	89.8928	218.262	90.2571	218.262	89.8195	218.262	90.161	218.262	89.7068	218.262	90.0157	218.262	89.5692	218.262	89.8334	218.262	89.4345	218.262	89.6396	218.262	89.3362	218.262	89.4671	218.262	89.3025	218.262	89.3476
225.586	89.7148	225.586	89.6911	225.586	89.6938	225.586	89.6322	225.586	89.6286	225.586	89.5556	225.586	89.5278	225.586	89.483	225.586	89.4071	225.586	89.4338	225.586	89.2855	225.586	89.4186	225.586	89.1828	225.586	89.4357	225.586	89.1163	225.586	89.4735	225.586	89.097	225.586	89.5172	225.586	89.127	225.586	89.5555	225.586	89.1971	225.586	89.5845	225.586	89.2889	225.586	89.6056	225.586	89.3801	225.586	89.6205	225.586	89.4519	225.586	89.6281	225.586	89.4956	225.586	89.6244	225.586	89.515	225.586	89.6071	225.586	89.5225	225.586	89.5799	225.586	89.5323	225.586	89.552
232.91	89.9546	232.91	89.8733	232.91	89.9623	232.91	89.7241	232.91	89.9015	232.91	89.5237	232.91	89.7869	232.91	89.3014	232.91	89.6419	232.91	89.0963	232.91	89.4956	232.91	88.9491	232.91	89.3771	232.91	88.887	232.91	89.3081	232.91	88.91	232.91	89.2974	232.91	88.9892	232.91	89.3403	232.91	89.081	232.91	89.4214	232.91	89.1482	232.91	89.5186	232.91	89.1746	232.91	89.607	232.91	89.1683	232.91	89.6642	232.91	89.1543	232.91	89.6763	232.91	89.1594	232.91	89.6411	232.91	89.1987	232.91	89.5677	232.91	89.2719	232.91	89.4712	232.91	89.3675
241.699	90.1769	241.699	90.1197	241.699	90.1382	241.699	89.9732	241.699	89.9993	241.699	89.7464	241.699	89.7614	241.699	89.4539	241.699	89.4356	241.699	89.1225	241.699	89.0465	241.699	88.7981	241.699	88.6323	241.699	88.5448	241.699	88.2404	241.699	88.4266	241.699	87.917	241.699	88.4746	241.699	87.6985	241.699	88.6638	241.699	87.608	241.699	88.926	241.699	87.6574	241.699	89.1872	241.699	87.8444	241.699	89.3966	241.699	88.1426	241.699	89.5348	241.699	88.5	241.699	89.6058	241.699	88.8539	241.699	89.6227	241.699	89.1535	241.699	89.5941	241.699	89.3741	241.699	89.5161
250.488	90.4304	250.488	90.3298	250.488	90.4406	250.488	90.1408	250.488	90.365	250.488	89.8734	250.488	90.2127	250.488	89.5438	250.488	89.9948	250.488	89.1722	250.488	89.7251	250.488	88.7812	250.488	89.4239	250.488	88.3998	250.488	89.1244	250.488	88.0706	250.488	88.8743	250.488	87.854	250.488	88.7228	250.488	87.8104	250.488	88.6936	250.488	87.9605	250.488	88.766	250.488	88.2571	250.488	88.8878	250.488	88.6057	250.488	89.0069	250.488	88.9151	250.488	89.0965	250.488	89.1325	250.488	89.1567	250.488	89.2492	250.488	89.2011	250.488	89.286	250.488	89.2407	250.488	89.2742
259.277	90.7579	259.277	90.6913	259.277	90.7592	259.277	90.5522	259.277	90.6998	259.277	90.3338	259.277	90.582	259.277	90.0343	259.277	90.4075	259.277	89.6614	259.277	90.1813	259.277	89.2364	259.277	89.9131	259.277	88.7947	259.277	89.6176	259.277	88.3826	259.277	89.3126	259.277	88.0491	259.277	89.019	259.277	87.8355	259.277	88.7613	259.277	87.7637	259.277	88.5671	259.277	87.8279	259.277	88.4593	259.277	87.9953	259.277	88.445	259.277	88.2165	259.277	88.5076	259.277	88.4406	259.277	88.612	259.277	88.6275	259.277	88.7174	259.277	88.7523	259.277	88.7895	259.277	88.8054
268.066	90.7599	268.066	90.7308	268.066	90.7193	268.066	90.6336	268.066	90.6123	268.066	90.4735	268.066	90.4449	268.066	90.2579	268.066	90.2233	268.066	89.9949	268.066	89.9544	268.066	89.6938	268.066	89.6485	268.066	89.3696	268.066	89.3263	268.066	89.0472	268.066	89.0231	268.066	88.7631	268.066	88.7868	268.066	88.5603	268.066	88.6629	268.066	88.4749	268.066	88.6718	268.066	88.5187	268.066	88.7931	268.066	88.6693	268.066	88.9748	268.066	88.878	268.066	89.1597	268.066	89.0904	268.066	89.3085	268.066	89.2657	268.066	89.4054	268.066	89.3842	268.066	89.4499	268.066	89.4439
276.855	90.6842	276.855	90.5655	276.855	90.6924	276.855	90.3368	276.855	90.5959	276.855	90.005	276.855	90.4053	276.855	89.5844	276.855	90.1346	276.855	89.0978	276.855	89.7993	276.855	88.5778	276.855	89.4146	276.855	88.0678	276.855	88.9962	276.855	87.6203	276.855	88.5631	276.855	87.2889	276.855	88.1428	276.855	87.1134	276.855	87.7765	276.855	87.1056	276.855	87.5196	276.855	87.2437	276.855	87.4257	276.855	87.4811	276.855	87.5118	276.855	87.7615	276.855	87.7338	276.855	88.0327	276.855	88.0057	276.855	88.2543	276.855	88.2448	276.855	88.3994	276.855	88.3997	276.855	88.4511
287.109	90.5706	287.109	90.6409	287.109	90.4354	287.109	90.6387	287.109	90.2445	287.109	90.5574	287.109	90.0102	287.109	90.3916	287.109	89.7497	287.109	90.1403	287.109	89.4838	287.109	89.8107	287.109	89.2332	287.109	89.4229	287.109	89.0128	287.109	89.0085	287.109	88.8268	287.109	88.6032	287.109	88.669	287.109	88.238	287.109	88.5278	287.109	87.9395	287.109	88.3945	287.109	87.7409	287.109	88.2704	287.109	87.679	287.109	88.1706	287.109	87.7623	287.109	88.1174	287.109	87.942	287.109	88.1241	287.109	88.1311	287.109	88.1801	287.109	88.2563	287.109	88.2512	287.109	88.2907
297.363	91.1766	297.363	91.1592	297.363	91.109	297.363	91.0596	297.363	90.9539	297.363	90.881	297.363	90.7079	297.363	90.6257	297.363	90.3666	297.363	90.2952	297.363	89.9276	297.363	89.8936	297.363	89.3982	297.363	89.4359	297.363	88.8072	297.363	88.9571	297.363	88.2147	297.363	88.5141	297.363	87.708	297.363	88.1668	297.363	87.3739	297.363	87.9434	297.363	87.2529	297.363	87.8227	297.363	87.3149	297.363	87.7592	297.363	87.483	297.363	87.7266	297.363	87.6788	297.363	87.7313	297.363	87.8479	297.363	87.7865	297.363	87.9596	297.363	87.8782	297.363	87.9982	297.363	87.9635
307.617	90.2076	307.617	90.1249	307.617	90.2371	307.617	89.9946	307.617	90.2057	307.617	89.8194	307.617	90.1051	307.617	89.602	307.617	89.9287	307.617	89.3469	307.617	89.6728	307.617	89.0629	307.617	89.3373	307.617	88.7628	307.617	88.9299	307.617	88.4654	307.617	88.4745	307.617	88.1981	307.617	88.0242	307.617	87.9983	307.617	87.6667	307.617	87.9058	307.617	87.4996	307.617	87.9422	307.617	87.5688	307.617	88.0904	307.617	87.8249	307.617	88.2992	307.617	88.1564	307.617	88.5109	307.617	88.4612	307.617	88.685	307.617	88.6841	307.617	88.8003	307.617	88.8105	307.617	88.8456
319.336	90.0101	319.336	89.9695	319.336	89.9861	319.336	89.8661	319.336	89.8968	319.336	89.7026	319.336	89.7414	319.336	89.4809	319.336	89.5187	319.336	89.2021	319.336	89.2272	319.336	88.8692	319.336	88.8677	319.336	88.4925	319.336	88.4437	319.336	88.0949	319.336	87.9625	319.336	87.7131	319.336	87.4414	319.336	87.3923	319.336	86.9252	319.336	87.1755	319.336	86.5069	319.336	87.0903	319.336	86.3092	319.336	87.1363	319.336	86.3982	319.336	87.2809	319.336	86.7095	319.336	87.469	319.336	87.097	319.336	87.6419	319.336	87.4358	319.336	87.7521	319.336	87.6639	319.336	87.7664
329.59	90.2868	329.59	90.1849	329.59	90.299	329.59	89.9879	329.59	90.2303	329.59	89.6974	329.59	90.0861	329.59	89.3214	329.59	89.8625	329.59	88.8723	329.59	89.5468	329.59	88.3669	329.59	89.1237	329.59	87.832	329.59	88.5862	329.59	87.3116	329.59	87.9486	329.59	86.8689	329.59	87.2592	329.59	86.5754	329.59	86.61	329.59	86.4857	329.59	86.1297	329.59	86.6029	329.59	85.9349	329.59	86.8648	329.59	86.0497	329.59	87.1702	329.59	86.3803	329.59	87.4284	329.59	86.7834	329.59	87.5885	329.59	87.1471	329.59	87.6378	329.59	87.417	329.59	87.5801
341.309	90.1949	341.309	90.1235	341.309	90.1733	341.309	89.9646	341.309	90.0561	341.309	89.722	341.309	89.8473	341.309	89.397	341.309	89.5588	341.309	88.9927	341.309	89.2057	341.309	88.5212	341.309	88.8006	341.309	88.0105	341.309	88.3517	341.309	87.5058	341.309	87.8688	341.309	87.0608	341.309	87.3761	341.309	86.7241	341.309	86.9224	341.309	86.5286	341.309	86.5762	341.309	86.4903	341.309	86.3981	341.309	86.6017	341.309	86.4075	341.309	86.818	341.309	86.5698	341.309	87.0624	341.309	86.8138	341.309	87.2594	341.309	87.062	341.309	87.3635	341.309	87.2554	341.309	87.3609
353.027	90.9198	353.027	90.8098	353.027	90.9152	353.027	90.579	353.027	90.802	353.027	90.2223	353.027	90.5836	353.027	89.7333	353.027	90.2601	353.027	89.1013	353.027	89.8304	353.027	88.3114	353.027	89.2973	353.027	87.3575	353.027	88.6716	353.027	86.2701	353.027	87.975	353.027	85.161	353.027	87.2449	353.027	84.2521	353.027	86.5425	353.027	83.7984	353.027	85.9605	353.027	83.8917	353.027	85.6095	353.027	84.3937	353.027	85.5616	353.027	85.0873	353.027	85.7866	353.027	85.7917	353.027	86.1608	353.027	86.3752	353.027	86.539	353.027	86.7536	353.027	86.8082	353.027	86.8942
366.211	90.0883	366.211	90.1579	366.211	89.9695	366.211	90.1644	366.211	89.803	366.211	90.0857	366.211	89.5804	366.211	89.901	366.211	89.2907	366.211	89.5964	366.211	88.9255	366.211	89.1648	366.211	88.4823	366.211	88.6014	366.211	87.9679	366.211	87.908	366.211	87.4067	366.211	87.115	366.211	86.8501	366.211	86.3182	366.211	86.3786	366.211	85.6914	366.211	86.0777	366.211	85.4028	366.211	85.9905	366.211	85.468	366.211	86.0898	366.211	85.7443	366.211	86.2983	366.211	86.0759	366.211	86.5301	366.211	86.3776	366.211	86.7131	366.211	86.6147	366.211	86.7977	366.211	86.7626
379.395	90.3098	379.395	90.3518	379.395	90.2138	379.395	90.3256	379.395	90.0675	379.395	90.2113	379.395	89.8634	379.395	89.9901	379.395	89.5846	379.395	89.652	379.395	89.2087	379.395	89.1994	379.395	88.7089	379.395	88.6466	379.395	88.0521	379.395	88.016	379.395	87.2031	379.395	87.3336	379.395	86.1572	379.395	86.6332	379.395	85.0249	379.395	85.9866	379.395	84.1388	379.395	85.5394	379.395	83.9284	379.395	85.4644	379.395	84.4222	379.395	85.7888	379.395	85.2165	379.395	86.3221	379.395	85.9754	379.395	86.8179	379.395	86.5747	379.395	87.1199	379.395	86.9823	379.395	87.1731
392.578	89.7054	392.578	89.5738	392.578	89.799	392.578	89.4136	392.578	89.8384	392.578	89.2255	392.578	89.7989	392.578	89.0017	392.578	89.6501	392.578	88.7296	392.578	89.3627	392.578	88.3959	392.578	88.9191	392.578	87.985	392.578	88.3229	392.578	87.4745	392.578	87.6039	392.578	86.8503	392.578	86.8207	392.578	86.1567	392.578	86.0643	392.578	85.5535	392.578	85.4564	392.578	85.2698	392.578	85.1141	392.578	85.3825	392.578	85.0809	392.578	85.7183	392.578	85.2955	392.578	86.058	392.578	85.6357	392.578	86.2944	392.578	85.9808	392.578	86.4056	392.578	86.2462	392.578	86.3906
405.762	90.2991	405.762	90.1978	405.762	90.2984	405.762	89.9983	405.762	90.2054	405.762	89.7127	405.762	90.039	405.762	89.3497	405.762	89.8144	405.762	88.9035	405.762	89.5302	405.762	88.3572	405.762	89.1636	405.762	87.7025	405.762	88.6771	405.762	86.9702	405.762	88.0309	405.762	86.2479	405.762	87.1992	405.762	85.6558	405.762	86.2043	405.762	85.2821	405.762	85.2023	405.762	85.1551	405.762	84.5686	405.762	85.2778	405.762	84.6673	405.762	85.6304	405.762	85.3585	405.762	86.1299	405.762	86.1759	405.762	86.6426	405.762	86.8113	405.762	87.0405	405.762	87.1656	405.762	87.2329
420.41	90.1194	420.41	90.103	420.41	89.9872	420.41	89.9478	420.41	89.7243	420.41	89.6848	420.41	89.3693	420.41	89.3484	420.41	88.9645	420.41	88.9502	420.41	88.5334	420.41	88.4635	420.41	88.0679	420.41	87.8314	420.41	87.5416	420.41	87.0025	420.41	86.9446	420.41	85.9815	420.41	86.3122	420.41	84.8911	420.41	85.7209	420.41	84.0148	420.41	85.2609	420.41	83.6927	420.41	85.0128	420.41	84.0164	420.41	85.0179	420.41	84.7175	420.41	85.2316	420.41	85.4394	420.41	85.5373	420.41	85.9578	420.41	85.8329	420.41	86.2045	420.41	86.0708	420.41	86.216
435.059	90.1133	435.059	90.0042	435.059	90.1382	435.059	89.8262	435.059	90.0607	435.059	89.5826	435.059	89.8663	435.059	89.2602	435.059	89.547	435.059	88.8332	435.059	89.0997	435.059	88.2768	435.059	88.5263	435.059	87.5771	435.059	87.8351	435.059	86.7277	435.059	87.046	435.059	85.7242	435.059	86.1912	435.059	84.6016	435.059	85.3146	435.059	83.5576	435.059	84.4919	435.059	83.0316	435.059	83.8962	435.059	83.3344	435.059	83.7967	435.059	84.1909	435.059	84.288	435.059	85.1244	435.059	85.0888	435.059	85.8672	435.059	85.8292	435.059	86.3259	435.059	86.3095	435.059	86.4756
451.172	89.373	451.172	89.4559	451.172	89.2545	451.172	89.4791	451.172	89.1103	451.172	89.4197	451.172	88.9286	451.172	89.2644	451.172	88.6867	451.172	89.0019	451.172	88.3702	451.172	88.6077	451.172	87.9762	451.172	88.0407	451.172	87.49	451.172	87.2587	451.172	86.8568	451.172	86.2334	451.172	85.9893	451.172	84.9624	451.172	84.8355	451.172	83.5345	451.172	83.5371	451.172	82.3348	451.172	82.6276	451.172	82.0656	451.172	82.687	451.172	82.8519	451.172	83.4903	451.172	83.9951	451.172	84.4259	451.172	84.9608	451.172	85.181	451.172	85.5742	451.172	85.6574	451.172	85.8019
465.82	89.3516	465.82	89.3317	465.82	89.2795	465.82	89.237	465.82	89.12	465.82	89.0922	465.82	88.8959	465.82	88.9081	465.82	88.6246	465.82	88.6714	465.82	88.2914	465.82	88.3476	465.82	87.8458	465.82	87.8911	465.82	87.2258	465.82	87.2557	465.82	86.3934	465.82	86.4189	465.82	85.3746	465.82	85.4298	465.82	84.2906	465.82	84.4671	465.82	83.3376	465.82	83.8155	465.82	82.7346	465.82	83.6629	465.82	82.7023	465.82	83.9306	465.82	83.2927	465.82	84.4057	465.82	84.1899	465.82	84.9122	465.82	84.9767	465.82	85.3229	465.82	85.4331	465.82	85.5283
483.398	89.8901	483.398	89.6767	483.398	90.0147	483.398	89.4176	483.398	90.0331	483.398	89.1641	483.398	89.9496	483.398	88.9434	483.398	89.7704	483.398	88.7298	483.398	89.4847	483.398	88.447	483.398	89.0616	483.398	88.0016	483.398	88.4593	483.398	87.3231	483.398	87.6263	483.398	86.392	483.398	86.4935	483.398	85.2599	483.398	84.9977	483.398	84.0615	483.398	83.2229	483.398	83.0439	483.398	81.7554	483.398	82.614	483.398	81.6113	483.398	83.0581	483.398	82.6623	483.398	84.0291	483.398	83.8853	483.398	84.932	483.398	84.808	483.398	85.4711	483.398	85.377	483.398	85.6061
499.512	88.8517	499.512	88.7742	499.512	88.8277	499.512	88.6175	499.512	88.7187	499.512	88.4358	499.512	88.5744	499.512	88.2897	499.512	88.4571	499.512	88.1956	499.512	88.4014	499.512	88.0752	499.512	88.3746	499.512	87.7682	499.512	88.2776	499.512	87.1107	499.512	87.9887	499.512	86.0175	499.512	87.4019	499.512	84.5458	499.512	86.4364	499.512	82.9618	499.512	85.0637	499.512	81.7932	499.512	83.485	499.512	81.6657	499.512	82.5179	499.512	82.6688	499.512	83.0369	499.512	84.1532	499.512	84.3942	499.512	85.465	499.512	85.6095	499.512	86.3019	499.512	86.3579	499.512	86.5946
517.09	89.0231	517.09	88.9733	517.09	88.9735	517.09	88.8366	517.09	88.8284	517.09	88.6329	517.09	88.6113	517.09	88.3746	517.09	88.3695	517.09	88.0746	517.09	88.1572	517.09	87.7714	517.09	87.9762	517.09	87.4968	517.09	87.7336	517.09	87.1772	517.09	87.286	517.09	86.6069	517.09	86.5277	517.09	85.5667	517.09	85.4381	517.09	84.0201	517.09	84.078	517.09	82.4096	517.09	82.5874	517.09	81.7123	517.09	81.3557	517.09	82.2287	517.09	81.2018	517.09	83.2209	517.09	82.3098	517.09	84.1421	517.09	83.6927	517.09	84.7712	517.09	84.6334	517.09	84.9728
536.133	89.4873	536.133	89.3614	536.133	89.4587	536.133	89.0729	536.133	89.2748	536.133	88.6312	536.133	88.9454	536.133	88.1224	536.133	88.51	536.133	87.6999	536.133	88.0191	536.133	87.4389	536.133	87.5144	536.133	87.2206	536.133	87.0428	536.133	86.8453	536.133	86.6305	536.133	86.1959	536.133	86.1812	536.133	85.2486	536.133	85.4688	536.133	84.0022	536.133	84.3394	536.133	82.5696	536.133	83.015	536.133	81.588	536.133	82.2507	536.133	81.9581	536.133	82.5668	536.133	83.2278	536.133	83.488	536.133	84.3917	536.133	84.4163	536.133	85.0934	536.133	85.0669	536.133	85.3103
555.176	89.9802	555.176	89.8202	555.176	89.909	555.176	89.4686	555.176	89.6203	555.176	89.0041	555.176	89.1605	555.176	88.4947	555.176	88.5984	555.176	87.9783	555.176	88.026	555.176	87.4968	555.176	87.5136	555.176	87.0926	555.176	87.015	555.176	86.7207	555.176	86.3672	555.176	86.2175	555.176	85.4329	555.176	85.3828	555.176	84.2386	555.176	84.0694	555.176	82.9991	555.176	82.3211	555.176	82.0169	555.176	80.7729	555.176	81.5647	555.176	80.7167	555.176	81.8484	555.176	82.131	555.176	82.8029	555.176	83.7373	555.176	83.9784	555.176	84.8352	555.176	84.8859	555.176	85.2187
574.219	90.7042	574.219	90.5845	574.219	90.6756	574.219	90.3133	574.219	90.5033	574.219	89.8863	574.219	90.1994	574.219	89.308	574.219	89.7736	574.219	88.6088	574.219	89.2176	574.219	87.8524	574.219	88.5251	574.219	87.1001	574.219	87.7456	574.219	86.317	574.219	86.9817	574.219	85.3517	574.219	86.2397	574.219	84.1065	574.219	85.2836	574.219	82.7526	574.219	83.743	574.219	81.6893	574.219	81.4664	574.219	81.1769	574.219	79.4464	574.219	81.2383	574.219	79.8261	574.219	81.7566	574.219	81.4873	574.219	82.4283	574.219	82.6944	574.219	82.9775	574.219	83.2347	574.219	83.2782
594.727	90.45	594.727	90.3574	594.727	90.4348	594.727	90.1413	594.727	90.3472	594.727	89.8292	594.727	90.2027	594.727	89.4811	594.727	89.9861	594.727	89.1353	594.727	89.679	594.727	88.7395	594.727	89.2814	594.727	88.1708	594.727	88.7927	594.727	87.3549	594.727	88.171	594.727	86.3213	594.727	87.3264	594.727	85.0927	594.727	86.1771	594.727	83.5752	594.727	84.7407	594.727	81.7602	594.727	83.1772	594.727	80.3133	594.727	81.7738	594.727	80.3932	594.727	81.034	594.727	81.5856	594.727	81.3688	594.727	82.7097	594.727	82.2856	594.727	83.328	594.727	83.0589	594.727	83.4247
615.234	90.5429	615.234	90.4772	615.234	90.4729	615.234	90.2777	615.234	90.2624	615.234	89.9458	615.234	89.9043	615.234	89.4744	615.234	89.3976	615.234	88.8567	615.234	88.7726	615.234	88.1453	615.234	88.1106	615.234	87.4739	615.234	87.5001	615.234	86.8991	615.234	86.941	615.234	86.2482	615.234	86.3284	615.234	85.2909	615.234	85.5314	615.234	84.0094	615.234	84.448	615.234	82.6612	615.234	83.1168	615.234	81.7587	615.234	82.0672	615.234	81.973	615.234	82.2122	615.234	83.2547	615.234	83.407	615.234	84.6834	615.234	84.7149	615.234	85.6363	615.234	85.6197	615.234	85.9477
637.207	90.1544	637.207	90.0647	637.207	90.1168	637.207	89.8672	637.207	89.9348	637.207	89.5847	637.207	89.6346	637.207	89.275	637.207	89.3056	637.207	89.0129	637.207	89.0196	637.207	88.7907	637.207	88.7167	637.207	88.4795	637.207	88.2425	637.207	87.9502	637.207	87.4897	637.207	87.1378	637.207	86.4376	637.207	85.9138	637.207	85.0791	637.207	84.055	637.207	83.3985	637.207	81.6632	637.207	81.5111	637.207	79.9093	637.207	79.9896	637.207	79.9238	637.207	79.8061	637.207	80.9353	637.207	80.8465	637.207	82.0983	637.207	82.0473	637.207	82.9317	637.207	82.869	637.207	83.1887
659.18	89.5784	659.18	89.5109	659.18	89.5312	659.18	89.2832	659.18	89.3826	659.18	88.8501	659.18	89.1145	659.18	88.2239	659.18	88.715	659.18	87.527	659.18	88.2315	659.18	86.9723	659.18	87.7839	659.18	86.6769	659.18	87.4762	659.18	86.4532	659.18	87.2318	659.18	85.9354	659.18	86.7966	659.18	84.901	659.18	85.9336	659.18	83.4565	659.18	84.522	659.18	82.0189	659.18	82.5468	659.18	81.1381	659.18	80.4868	659.18	81.3172	659.18	80.1603	659.18	82.4066	659.18	81.8252	659.18	83.5914	659.18	83.4533	659.18	84.3624	659.18	84.3597	659.18	84.6246
682.617	89.5438	682.617	89.4224	682.617	89.4241	682.617	89.1029	682.617	89.0949	682.617	88.6822	682.617	88.6571	682.617	88.2622	682.617	88.2386	682.617	87.8813	682.617	87.9177	682.617	87.4993	682.617	87.6431	682.617	87.0539	682.617	87.3093	682.617	86.5193	682.617	86.9036	682.617	85.8435	682.617	86.3953	682.617	84.7909	682.617	85.555	682.617	83.0269	682.617	84.1206	682.617	80.7248	682.617	82.1801	682.617	79.6343	682.617	80.5655	682.617	80.8011	682.617	80.5211	682.617	82.5604	682.617	81.9288	682.617	84.0427	682.617	83.5905	682.617	84.9899	682.617	84.7751	682.617	85.2529
707.52	90.4193	707.52	90.2615	707.52	90.3196	707.52	89.8747	707.52	89.9765	707.52	89.3139	707.52	89.4315	707.52	88.6351	707.52	88.744	707.52	87.9233	707.52	87.9985	707.52	87.3192	707.52	87.3011	707.52	86.8986	707.52	86.6793	707.52	86.4699	707.52	85.985	707.52	85.6699	707.52	85.099	707.52	84.3205	707.52	84.0849	707.52	82.4652	707.52	82.7622	707.52	79.9516	707.52	80.5928	707.52	77.0278	707.52	78.0479	707.52	77.4152	707.52	78.1739	707.52	80.5413	707.52	80.4052	707.52	82.8518	707.52	82.4222	707.52	84.0812	707.52	83.7983	707.52	84.38
732.422	89.0244	732.422	89.0378	732.422	88.9929	732.422	88.9008	732.422	88.9156	732.422	88.4708	732.422	88.6523	732.422	87.7689	732.422	88.1305	732.422	87.0157	732.422	87.4765	732.422	86.4531	732.422	86.947	732.422	86.0973	732.422	86.6968	732.422	85.822	732.422	86.6413	732.422	85.4585	732.422	86.3819	732.422	84.637	732.422	85.4092	732.422	82.9665	732.422	83.6003	732.422	80.738	732.422	81.3531	732.422	79.4615	732.422	79.0714	732.422	79.8008	732.422	78.43	732.422	81.1344	732.422	80.6687	732.422	82.8018	732.422	82.7845	732.422	83.9667	732.422	83.926	732.422	84.3153
757.324	90.949	757.324	90.7061	757.324	90.8395	757.324	90.1922	757.324	90.3881	757.324	89.5023	757.324	89.7253	757.324	88.7092	757.324	89.0261	757.324	87.9001	757.324	88.4109	757.324	87.2146	757.324	87.9562	757.324	86.7732	757.324	87.6428	757.324	86.4634	757.324	87.2663	757.324	85.9574	757.324	86.6712	757.324	84.9548	757.324	85.824	757.324	83.1251	757.324	84.4219	757.324	79.9245	757.324	81.9008	757.324	76.1975	757.324	78.4126	757.324	78.236	757.324	77.6906	757.324	81.7549	757.324	80.7345	757.324	83.9447	757.324	83.5073	757.324	85.1978	757.324	85.1469	757.324	85.6522
785.156	90.7215	785.156	90.6952	785.156	90.5234	785.156	90.3818	785.156	90.2268	785.156	89.8181	785.156	89.8643	785.156	89.0913	785.156	89.3483	785.156	88.3826	785.156	88.6321	785.156	87.9095	785.156	87.7848	785.156	87.5923	785.156	86.9415	785.156	87.2108	785.156	86.2692	785.156	86.7738	785.156	85.8279	785.156	86.1447	785.156	85.4118	785.156	84.7776	785.156	84.5683	785.156	81.9731	785.156	82.6639	785.156	77.0488	785.156	79.0541	785.156	75.2485	785.156	76.658	785.156	80.1218	785.156	80.6324	785.156	83.2479	785.156	83.7098	785.156	84.8027	785.156	85.0758	785.156	85.3513
811.523	90.8572	811.523	90.6343	811.523	90.8748	811.523	90.3072	811.523	90.5423	811.523	89.7748	811.523	89.877	811.523	88.912	811.523	89.019	811.523	87.7738	811.523	88.0918	811.523	86.6112	811.523	87.2146	811.523	85.8658	811.523	86.6732	811.523	85.717	811.523	86.7126	811.523	85.6632	811.523	86.8794	811.523	85.1937	811.523	86.4187	811.523	84.078	811.523	84.9966	811.523	82.1333	811.523	82.6913	811.523	79.3567	811.523	79.7505	811.523	77.6722	811.523	77.7019	811.523	79.7969	811.523	79.8943	811.523	82.6491	811.523	82.9427	811.523	84.5275	811.523	84.7275	811.523	85.231
840.82	91.3495	840.82	91.218	840.82	91.0832	840.82	90.6615	840.82	90.5838	840.82	89.824	840.82	89.9584	840.82	88.8718	840.82	89.1601	840.82	87.8931	840.82	88.1471	840.82	87.0142	840.82	87.1179	840.82	86.4986	840.82	86.5532	840.82	86.508	840.82	86.6432	840.82	86.6814	840.82	86.8218	840.82	86.3493	840.82	86.4621	840.82	84.9682	840.82	85.2447	840.82	82.059	840.82	82.8278	840.82	77.1852	840.82	78.6525	840.82	73.8118	840.82	75.3326	840.82	78.6253	840.82	79.086	840.82	82.6682	840.82	82.5681	840.82	84.772	840.82	84.6022	840.82	85.3503
870.117	90.7422	870.117	90.8437	870.117	90.6704	870.117	90.8075	870.117	90.5089	870.117	90.3251	870.117	90.0497	870.117	89.3332	870.117	89.1975	870.117	88.0973	870.117	88.013	870.117	86.8468	870.117	86.6747	870.117	85.6874	870.117	85.5576	870.117	85.016	870.117	85.0179	870.117	85.011	870.117	84.7856	870.117	85.0176	870.117	84.4094	870.117	84.4035	870.117	83.6587	870.117	82.725	870.117	82.053	870.117	79.1411	870.117	78.7678	870.117	74.3075	870.117	74.0356	870.117	77.9571	870.117	77.9891	870.117	81.7556	870.117	82.3021	870.117	83.5621	870.117	83.9679	870.117	84.1973
900.879	91.1856	900.879	91.1959	900.879	90.8937	900.879	90.826	900.879	90.5101	900.879	90.2122	900.879	90.0106	900.879	89.4153	900.879	89.1865	900.879	88.2791	900.879	87.961	900.879	86.8319	900.879	86.6072	900.879	85.5141	900.879	85.4856	900.879	84.8648	900.879	84.7582	900.879	84.7295	900.879	84.6548	900.879	84.4887	900.879	84.8172	900.879	83.7177	900.879	84.2363	900.879	81.7927	900.879	82.0525	900.879	78.0535	900.879	77.2362	900.879	74.9331	900.879	73.0134	900.879	78.2984	900.879	78.2719	900.879	81.9543	900.879	82.0288	900.879	84.2178	900.879	84.2834	900.879	85.0443
933.105	90.5546	933.105	90.4525	933.105	90.5382	933.105	90.0895	933.105	90.3894	933.105	89.4025	933.105	89.9418	933.105	88.6171	933.105	89.0769	933.105	87.8649	933.105	87.8363	933.105	86.7814	933.105	86.2774	933.105	85.3648	933.105	84.5809	933.105	84.4349	933.105	83.4908	933.105	84.3399	933.105	83.7547	933.105	84.5387	933.105	84.4349	933.105	84.103	933.105	84.2183	933.105	81.9621	933.105	82.7802	933.105	77.2538	933.105	79.6847	933.105	72.1829	933.105	71.7178	933.105	76.4854	933.105	72.6464	933.105	80.9081	933.105	79.819	933.105	83.0476	933.105	82.5408	933.105	83.4824
965.332	90.8751	965.332	90.567	965.332	90.7756	965.332	90.0684	965.332	90.3482	965.332	89.6468	965.332	89.8351	965.332	89.1052	965.332	89.2453	965.332	88.072	965.332	88.3376	965.332	86.6152	965.332	87.1159	965.332	85.1865	965.332	85.674	965.332	84.089	965.332	84.111	965.332	83.3767	965.332	83.1676	965.332	83.0186	965.332	83.023	965.332	82.5824	965.332	82.7604	965.332	81.1182	965.332	81.5013	965.332	76.8175	965.332	77.8379	965.332	67.8104	965.332	69.3604	965.332	76.5123	965.332	74.5345	965.332	80.9022	965.332	80.0769	965.332	82.7706	965.332	82.4172	965.332	83.198
1000.49	90.1404	1000.49	90.1734	1000.49	90.13	1000.49	89.9089	1000.49	90.0543	1000.49	89.0757	1000.49	89.6014	1000.49	87.9023	1000.49	88.7181	1000.49	86.877	1000.49	87.7044	1000.49	85.8674	1000.49	86.7776	1000.49	84.6919	1000.49	85.5215	1000.49	84.0965	1000.49	83.9943	1000.49	84.2936	1000.49	83.7285	1000.49	84.4956	1000.49	83.9576	1000.49	84.0906	1000.49	83.5036	1000.49	82.3834	1000.49	82.5692	1000.49	78.6815	1000.49	80.4341	1000.49	72.0208	1000.49	75.3112	1000.49	71.309	1000.49	65.3594	1000.49	76.7352	1000.49	75.1768	1000.49	79.389	1000.49	79.605	1000.49	80.5459
1035.64	90.8703	1035.64	90.5325	1035.64	90.8508	1035.64	89.9651	1035.64	90.4657	1035.64	89.2597	1035.64	89.901	1035.64	88.3735	1035.64	89.2146	1035.64	87.2282	1035.64	88.112	1035.64	85.8107	1035.64	86.5411	1035.64	84.0609	1035.64	85.0241	1035.64	82.3185	1035.64	83.5556	1035.64	81.8299	1035.64	82.1247	1035.64	82.2898	1035.64	82.5162	1035.64	82.1825	1035.64	83.1257	1035.64	81.3059	1035.64	82.1811	1035.64	78.8086	1035.64	79.9697	1035.64	71.7831	1035.64	75.4598	1035.64	70.7101	1035.64	71.6821	1035.64	77.7728	1035.64	77.678	1035.64	81.007	1035.64	80.7528	1035.64	81.8897
1072.27	90.4373	1072.27	90.4301	1072.27	90.3033	1072.27	90.1224	1072.27	90.114	1072.27	89.4848	1072.27	89.7359	1072.27	88.7127	1072.27	88.984	1072.27	87.8349	1072.27	87.9447	1072.27	86.5872	1072.27	86.8901	1072.27	85.1163	1072.27	85.6679	1072.27	83.8522	1072.27	83.904	1072.27	83.0726	1072.27	82.773	1072.27	82.9461	1072.27	82.8267	1072.27	82.6224	1072.27	82.6658	1072.27	81.5707	1072.27	81.822	1072.27	79.0931	1072.27	79.8317	1072.27	73.2935	1072.27	75.5012	1072.27	69.3676	1072.27	69.8338	1072.27	75.812	1072.27	75.6122	1072.27	79.6574	1072.27	79.7096	1072.27	80.9545
1108.89	91.1912	1108.89	90.8965	1108.89	91.0114	1108.89	90.3463	1108.89	90.4765	1108.89	89.7634	1108.89	89.8217	1108.89	88.9684	1108.89	89.084	1108.89	87.6822	1108.89	88.1746	1108.89	86.0416	1108.89	86.7865	1108.89	84.2795	1108.89	84.8116	1108.89	82.1929	1108.89	82.8066	1108.89	80.2818	1108.89	80.8158	1108.89	80.356	1108.89	80.4701	1108.89	81.2586	1108.89	81.6437	1108.89	81.096	1108.89	81.4795	1108.89	79.0089	1108.89	79.1668	1108.89	74.5123	1108.89	73.879	1108.89	72.8418	1108.89	72.0956	1108.89	77.2909	1108.89	77.2565	1108.89	80.287	1108.89	80.7854	1108.89	81.7097
1148.44	90.365	1148.44	90.4542	1148.44	90.314	1148.44	90.1787	1148.44	90.2411	1148.44	89.4122	1148.44	89.6722	1148.44	88.4403	1148.44	88.6475	1148.44	87.5093	1148.44	87.5432	1148.44	86.4449	1148.44	86.2585	1148.44	85.0351	1148.44	84.6913	1148.44	83.6876	1148.44	83.1588	1148.44	82.9261	1148.44	82.71	1148.44	82.3974	1148.44	82.5796	1148.44	81.6208	1148.44	81.6836	1148.44	80.4347	1148.44	80.4823	1148.44	78.3134	1148.44	78.3967	1148.44	73.7628	1148.44	76.3568	1148.44	72.448	1148.44	75.9033	1148.44	77.6812	1148.44	78.5556	1148.44	80.5897	1148.44	80.6651	1148.44	81.3879
1189.45	90.5873	1189.45	90.3035	1189.45	90.3134	1189.45	89.8383	1189.45	89.5901	1189.45	89.344	1189.45	89.0131	1189.45	88.589	1189.45	88.5458	1189.45	87.4108	1189.45	87.6768	1189.45	85.8312	1189.45	86.1476	1189.45	83.6015	1189.45	84.1049	1189.45	81.1952	1189.45	82.0654	1189.45	80.7551	1189.45	80.4195	1189.45	81.7933	1189.45	81.1856	1189.45	82.1042	1189.45	82.1214	1189.45	81.2746	1189.45	80.6625	1189.45	77.9292	1189.45	77.3316	1189.45	69.5174	1189.45	67.6323	1189.45	74.306	1189.45	70.9149	1189.45	78.8419	1189.45	78.063	1189.45	81.4832	1189.45	81.407	1189.45	82.5859
1230.47	89.3546	1230.47	89.2973	1230.47	89.2514	1230.47	89.0876	1230.47	89.1611	1230.47	88.5723	1230.47	88.8594	1230.47	87.9779	1230.47	87.9827	1230.47	87.4316	1230.47	87.003	1230.47	86.1403	1230.47	86.1436	1230.47	84.1145	1230.47	84.584	1230.47	81.9543	1230.47	81.4081	1230.47	80.5994	1230.47	78.9967	1230.47	81.9203	1230.47	80.4679	1230.47	82.1914	1230.47	81.8492	1230.47	80.6944	1230.47	81.6348	1230.47	77.546	1230.47	78.1004	1230.47	64.9466	1230.47	63.4918	1230.47	74.3768	1230.47	74.2011	1230.47	80.2298	1230.47	80.5444	1230.47	82.6281	1230.47	83.0704	1230.47	83.577
1274.41	90.544	1274.41	90.2601	1274.41	90.5224	1274.41	89.5214	1274.41	89.9257	1274.41	88.6444	1274.41	88.8458	1274.41	87.9977	1274.41	87.8613	1274.41	87.022	1274.41	87.0926	1274.41	86.1697	1274.41	86.3955	1274.41	84.9172	1274.41	85.0791	1274.41	81.6258	1274.41	83.11	1274.41	77.95	1274.41	80.4537	1274.41	78.3972	1274.41	79.9462	1274.41	81.2939	1274.41	81.6668	1274.41	82.0021	1274.41	81.5329	1274.41	79.5196	1274.41	80.2334	1274.41	71.4051	1274.41	75.7312	1274.41	70.9419	1274.41	56.2295	1274.41	78.9034	1274.41	77.1137	1274.41	82.1619	1274.41	81.5193	1274.41	82.9258
1319.82	91.3695	1319.82	90.8299	1319.82	91.0289	1319.82	90.1413	1319.82	90.1084	1319.82	89.3582	1319.82	89.3764	1319.82	87.8603	1319.82	88.4832	1319.82	86.7488	1319.82	87.5735	1319.82	86.4773	1319.82	87.0642	1319.82	85.1366	1319.82	86.0327	1319.82	82.7722	1319.82	83.6109	1319.82	79.557	1319.82	79.6105	1319.82	79.304	1319.82	78.4856	1319.82	82.0193	1319.82	81.2057	1319.82	82.501	1319.82	82.4413	1319.82	80.5678	1319.82	80.8254	1319.82	73.6278	1319.82	75.2702	1319.82	67.2292	1319.82	67.4921	1319.82	78.5272	1319.82	77.971	1319.82	82.7098	1319.82	81.769	1319.82	83.3899
1366.7	91.0489	1366.7	91.2421	1366.7	90.9425	1366.7	90.8532	1366.7	90.8772	1366.7	89.5227	1366.7	90.1485	1366.7	87.9955	1366.7	89.0752	1366.7	87.3425	1366.7	88.1316	1366.7	86.9351	1366.7	87.0043	1366.7	86.1512	1366.7	85.8129	1366.7	84.0407	1366.7	84.6441	1366.7	79.8358	1366.7	81.9878	1366.7	77.0665	1366.7	79.5513	1366.7	80.404	1366.7	81.54	1366.7	81.8757	1366.7	82.8324	1366.7	80.4633	1366.7	81.5417	1366.7	74.2631	1366.7	74.378	1366.7	71.6856	1366.7	70.3126	1366.7	80.6674	1366.7	79.801	1366.7	83.4824	1366.7	84.1275	1366.7	84.9587
1413.57	92.4899	1413.57	92.478	1413.57	92.3918	1413.57	91.6783	1413.57	91.8172	1413.57	90.3188	1413.57	90.3864	1413.57	88.8355	1413.57	88.8953	1413.57	87.0779	1413.57	87.4047	1413.57	86.4351	1413.57	86.589	1413.57	86.5599	1413.57	86.4343	1413.57	84.9306	1413.57	84.9305	1413.57	80.7584	1413.57	80.7925	1413.57	76.5046	1413.57	75.5937	1413.57	81.1921	1413.57	81.98	1413.57	83.6096	1413.57	84.2744	1413.57	83.466	1413.57	83.652	1413.57	79.7552	1413.57	80.5037	1413.57	73.1568	1413.57	70.8517	1413.57	80.8861	1413.57	80.5339	1413.57	85.0399	1413.57	84.834	1413.57	85.9208
1463.38	92.9101	1463.38	92.5205	1463.38	92.6557	1463.38	92.0416	1463.38	91.907	1463.38	91.5332	1463.38	91.0979	1463.38	89.9868	1463.38	89.8982	1463.38	88.0078	1463.38	87.7199	1463.38	86.1567	1463.38	85.2113	1463.38	85.2532	1463.38	84.5956	1463.38	85.6894	1463.38	85.1294	1463.38	83.8521	1463.38	83.6417	1463.38	78.8276	1463.38	78.1008	1463.38	77.8096	1463.38	75.4025	1463.38	82.7673	1463.38	82.1976	1463.38	83.4742	1463.38	84.0575	1463.38	80.6278	1463.38	82.6662	1463.38	73.7506	1463.38	78.3225	1463.38	78.0632	1463.38	75.7728	1463.38	82.395	1463.38	82.0895	1463.38	83.6429
1516.11	92.2684	1516.11	92.1258	1516.11	92.0143	1516.11	91.9401	1516.11	91.7264	1516.11	91.3761	1516.11	91.1265	1516.11	89.9928	1516.11	89.981	1516.11	88.5683	1516.11	88.6284	1516.11	86.7427	1516.11	86.4239	1516.11	84.6923	1516.11	84.5278	1516.11	84.3223	1516.11	83.9295	1516.11	82.6607	1516.11	83.2825	1516.11	78.4599	1516.11	78.9704	1516.11	78.0171	1516.11	73.9263	1516.11	81.7992	1516.11	79.5778	1516.11	83.0552	1516.11	81.9732	1516.11	81.3909	1516.11	80.7873	1516.11	73.7348	1516.11	76.2458	1516.11	71.4045	1516.11	66.9068	1516.11	79.5877	1516.11	78.5301	1516.11	81.5246
1568.85	92.7745	1568.85	92.7855	1568.85	92.6863	1568.85	92.4817	1568.85	92.4014	1568.85	91.6102	1568.85	91.7334	1568.85	90.5461	1568.85	90.6657	1568.85	89.0645	1568.85	89.2949	1568.85	87.0369	1568.85	87.366	1568.85	85.0653	1568.85	85.6428	1568.85	84.3723	1568.85	84.6717	1568.85	83.2578	1568.85	83.6512	1568.85	79.9944	1568.85	81.0019	1568.85	76.8845	1568.85	77.7194	1568.85	81.0649	1568.85	80.0158	1568.85	82.8023	1568.85	82.4556	1568.85	81.3701	1568.85	80.9488	1568.85	74.5646	1568.85	74.7717	1568.85	75.6135	1568.85	71.2152	1568.85	80.2381	1568.85	80.0183	1568.85	81.8197
1624.51	93.9468	1624.51	93.8242	1624.51	93.8205	1624.51	93.2822	1624.51	93.1086	1624.51	92.4738	1624.51	92.1285	1624.51	91.4573	1624.51	91.4152	1624.51	90.1965	1624.51	90.3566	1624.51	88.1103	1624.51	88.2025	1624.51	85.6675	1624.51	86.1327	1624.51	84.8035	1624.51	84.8731	1624.51	84.5277	1624.51	84.6933	1624.51	82.5589	1624.51	83.1243	1624.51	77.4579	1624.51	78.2882	1624.51	80.2593	1624.51	77.9951	1624.51	83.0877	1624.51	82.3556	1624.51	81.9689	1624.51	82.3295	1624.51	76.4585	1624.51	78.7874	1624.51	69.1395	1624.51	68.7755	1624.51	77.2128	1624.51	77.6171	1624.51	79.8041
1681.64	94.6784	1681.64	94.2737	1681.64	94.5216	1681.64	93.8822	1681.64	93.6147	1681.64	93.0276	1681.64	92.556	1681.64	91.9585	1681.64	91.6451	1681.64	90.6302	1681.64	90.783	1681.64	88.8866	1681.64	88.9349	1681.64	86.7943	1681.64	86.7772	1681.64	85.3655	1681.64	84.2843	1681.64	84.1386	1681.64	83.5558	1681.64	82.7322	1681.64	81.549	1681.64	79.4418	1681.64	77.9016	1681.64	79.014	1681.64	76.8544	1681.64	82.1948	1681.64	81.0355	1681.64	82.4102	1681.64	83.0056	1681.64	77.6656	1681.64	78.3269	1681.64	63.9875	1681.64	52.027	1681.64	74.1871	1681.64	74.7835	1681.64	77.3257
1741.7	94.4294	1741.7	94.1976	1741.7	94.0875	1741.7	93.706	1741.7	93.5412	1741.7	92.5628	1741.7	92.7523	1741.7	91.4248	1741.7	91.5889	1741.7	90.3012	1741.7	90.098	1741.7	88.6351	1741.7	88.426	1741.7	86.6073	1741.7	87.1217	1741.7	84.7716	1741.7	84.5166	1741.7	83.4899	1741.7	81.9308	1741.7	81.834	1741.7	80.7885	1741.7	79.8728	1741.7	79.7314	1741.7	78.4455	1741.7	76.1858	1741.7	82.2445	1741.7	80.6506	1741.7	82.3689	1741.7	82.2859	1741.7	78.7032	1741.7	80.0158	1741.7	61.4196	1741.7	63.8096	1741.7	74.9943	1741.7	73.5093	1741.7	76.7976
1803.22	93.7052	1803.22	93.6037	1803.22	93.4114	1803.22	92.8821	1803.22	93.0126	1803.22	91.6719	1803.22	92.1606	1803.22	90.4784	1803.22	90.9085	1803.22	88.853	1803.22	89.6379	1803.22	87.2816	1803.22	87.7322	1803.22	85.3505	1803.22	87.1787	1803.22	83.356	1803.22	85.3687	1803.22	81.0913	1803.22	83.1358	1803.22	80.4271	1803.22	81.7476	1803.22	78.6499	1803.22	80.4557	1803.22	76.4059	1803.22	77.4737	1803.22	79.0755	1803.22	79.8884	1803.22	80.9138	1803.22	80.9389	1803.22	78.0049	1803.22	79.2001	1803.22	69.5981	1803.22	69.0725	1803.22	74.2761	1803.22	73.1978	1803.22	74.849
1866.21	93.4705	1866.21	93.479	1866.21	93.1577	1866.21	92.7228	1866.21	92.769	1866.21	91.3532	1866.21	91.8074	1866.21	90.2159	1866.21	90.4415	1866.21	88.5442	1866.21	88.9518	1866.21	86.9511	1866.21	87.3836	1866.21	85.6664	1866.21	85.6656	1866.21	83.7641	1866.21	84.674	1866.21	82.0975	1866.21	83.4257	1866.21	81.3368	1866.21	81.6678	1866.21	78.467	1866.21	78.926	1866.21	76.7155	1866.21	78.9179	1866.21	77.526	1866.21	79.3296	1866.21	78.8821	1866.21	80.3934	1866.21	76.9013	1866.21	77.9839	1866.21	72.3176	1866.21	72.8499	1866.21	74.3394	1866.21	74.642	1866.21	77.1189
1932.13	93.0356	1932.13	93.049	1932.13	92.749	1932.13	92.0778	1932.13	92.2513	1932.13	90.9329	1932.13	91.0427	1932.13	89.8216	1932.13	89.9874	1932.13	88.3694	1932.13	88.4554	1932.13	86.993	1932.13	86.601	1932.13	84.9774	1932.13	85.2038	1932.13	84.1788	1932.13	82.4103	1932.13	82.4902	1932.13	81.9281	1932.13	80.4954	1932.13	79.0472	1932.13	77.8605	1932.13	77.6223	1932.13	77.3138	1932.13	77.6021	1932.13	78.7609	1932.13	75.3271	1932.13	80.0488	1932.13	79.1243	1932.13	78.1846	1932.13	78.2405	1932.13	73.478	1932.13	72.5184	1932.13	74.7347	1932.13	74.214	1932.13	76.6084
1999.51	92.5014	1999.51	92.2826	1999.51	92.4156	1999.51	90.9905	1999.51	91.3946	1999.51	90.6404	1999.51	90.9623	1999.51	88.5752	1999.51	89.9431	1999.51	88.0313	1999.51	86.9998	1999.51	86.3071	1999.51	86.4303	1999.51	85.1205	1999.51	84.2918	1999.51	83.3605	1999.51	83.7831	1999.51	82.5392	1999.51	80.5945	1999.51	79.31	1999.51	77.662	1999.51	79.1046	1999.51	77.3276	1999.51	77.8024	1999.51	78.4558	1999.51	76.232	1999.51	76.8625	1999.51	77.4735	1999.51	79.318	1999.51	76.4168	1999.51	77.4811	1999.51	71.4528	1999.51	65.7972	1999.51	76.066	1999.51	73.928	1999.51	77.014
2069.82	92.6827	2069.82	92.6143	2069.82	92.7087	2069.82	92.0061	2069.82	92.0042	2069.82	90.6857	2069.82	91.161	2069.82	89.2999	2069.82	90.09	2069.82	87.9002	2069.82	88.9108	2069.82	86.3715	2069.82	86.9837	2069.82	84.5347	2069.82	85.0285	2069.82	83.0268	2069.82	81.4225	2069.82	82.6858	2069.82	79.939	2069.82	80.121	2069.82	80.2922	2069.82	76.2614	2069.82	80.3024	2069.82	72.4486	2069.82	75.7895	2069.82	77.705	2069.82	76.266	2069.82	76.6906	2069.82	75.66	2069.82	76.3803	2069.82	76.6562	2069.82	72.4041	2069.82	74.6152	2069.82	76.4573	2069.82	75.685	2069.82	78.2326
2143.07	93.0034	2143.07	93.3826	2143.07	92.6092	2143.07	92.2809	2143.07	92.3814	2143.07	91.2365	2143.07	91.6317	2143.07	89.7477	2143.07	90.1088	2143.07	88.3869	2143.07	88.6813	2143.07	86.9073	2143.07	87.3802	2143.07	83.994	2143.07	85.2986	2143.07	81.098	2143.07	84.8494	2143.07	81.6045	2143.07	81.8548	2143.07	80.1261	2143.07	81.7103	2143.07	79.9258	2143.07	76.9931	2143.07	75.7993	2143.07	75.4006	2143.07	78.165	2143.07	75.575	2143.07	77.7686	2143.07	79.5897	2143.07	75.8306	2143.07	76.9765	2143.07	69.2256	2143.07	68.5788	2143.07	75.5092	2143.07	74.8096	2143.07	78.1935
2219.24	91.8038	2219.24	91.6876	2219.24	91.6275	2219.24	91.2099	2219.24	91.1972	2219.24	90.2243	2219.24	90.3848	2219.24	88.7935	2219.24	89.1015	2219.24	87.6589	2219.24	88.1693	2219.24	86.6563	2219.24	86.5937	2219.24	84.8524	2219.24	85.3328	2219.24	83.3901	2219.24	81.9624	2219.24	81.435	2219.24	79.8058	2219.24	80.5209	2219.24	80.0419	2219.24	77.62	2219.24	77.0733	2219.24	73.8536	2219.24	75.3792	2219.24	78.0835	2219.24	77.9387	2219.24	78.3093	2219.24	76.8481	2219.24	74.7381	2219.24	77.2057	2219.24	69.5188	2219.24	67.6768	2219.24	77.5816	2219.24	72.5745	2219.24	76.9389
2296.88	91.7857	2296.88	91.5288	2296.88	91.6554	2296.88	90.9134	2296.88	91.1025	2296.88	89.8773	2296.88	90.1483	2296.88	88.711	2296.88	89.7109	2296.88	87.4022	2296.88	88.3446	2296.88	86.1518	2296.88	86.9331	2296.88	84.9018	2296.88	84.938	2296.88	81.8195	2296.88	82.284	2296.88	80.3458	2296.88	80.5241	2296.88	78.4857	2296.88	80.1068	2296.88	77.7252	2296.88	78.19	2296.88	75.5392	2296.88	75.5695	2296.88	74.2026	2296.88	75.7171	2296.88	78.8667	2296.88	77.0695	2296.88	78.0257	2296.88	77.2016	2296.88	66.0768	2296.88	73.6953	2296.88	69.3655	2296.88	70.522	2296.88	73.6788
2378.91	92.5015	2378.91	92.2667	2378.91	92.3546	2378.91	91.725	2378.91	91.7063	2378.91	90.9402	2378.91	90.82	2378.91	89.7383	2378.91	89.662	2378.91	88.3196	2378.91	88.1745	2378.91	86.472	2378.91	87.1055	2378.91	85.7229	2378.91	85.6331	2378.91	83.4846	2378.91	82.8013	2378.91	81.3478	2378.91	80.3427	2378.91	80.6709	2378.91	79.5089	2378.91	76.7182	2378.91	78.734	2378.91	75.1339	2378.91	75.6518	2378.91	74.6563	2378.91	75.8498	2378.91	75.2374	2378.91	76.613	2378.91	76.1113	2378.91	78.332	2378.91	72.9163	2378.91	74.4012	2378.91	72.0973	2378.91	71.8494	2378.91	76.6384
2462.4	92.2937	2462.4	91.9646	2462.4	91.8864	2462.4	91.4807	2462.4	91.2035	2462.4	90.6984	2462.4	90.4385	2462.4	89.7415	2462.4	88.8452	2462.4	88.0053	2462.4	87.397	2462.4	85.9783	2462.4	85.6716	2462.4	84.1558	2462.4	84.4375	2462.4	82.6017	2462.4	82.2853	2462.4	80.9652	2462.4	79.3662	2462.4	79.026	2462.4	79.5671	2462.4	78.1514	2462.4	76.059	2462.4	73.3802	2462.4	73.7581	2462.4	73.5244	2462.4	73.88	2462.4	75.7335	2462.4	74.1733	2462.4	76.5448	2462.4	74.8109	2462.4	71.4648	2462.4	73.0586	2462.4	72.7869	2462.4	69.4919	2462.4	74.1147
2548.83	91.8676	2548.83	91.5932	2548.83	91.6122	2548.83	90.861	2548.83	91.0844	2548.83	90.0488	2548.83	90.3041	2548.83	88.9197	2548.83	89.113	2548.83	87.3735	2548.83	87.1557	2548.83	85.2249	2548.83	85.8424	2548.83	83.6581	2548.83	83.9752	2548.83	81.4729	2548.83	82.8106	2548.83	78.2697	2548.83	79.9286	2548.83	79.0432	2548.83	78.6551	2548.83	75.8854	2548.83	77.8935	2548.83	75.9553	2548.83	73.451	2548.83	74.0972	2548.83	73.3188	2548.83	71.6816	2548.83	76.7803	2548.83	72.9399	2548.83	75.7783	2548.83	72.4248	2548.83	73.1146	2548.83	72.3796	2548.83	73.9183	2548.83	75.4624
2639.65	92.3539	2639.65	92.2478	2639.65	92.0583	2639.65	91.7273	2639.65	91.4625	2639.65	90.7347	2639.65	90.6255	2639.65	89.5379	2639.65	89.5628	2639.65	87.9795	2639.65	88.204	2639.65	86.2131	2639.65	86.2536	2639.65	84.0788	2639.65	84.6951	2639.65	81.9295	2639.65	82.9551	2639.65	80.0304	2639.65	81.6588	2639.65	77.3807	2639.65	80.1385	2639.65	77.1143	2639.65	79.7985	2639.65	74.4106	2639.65	76.3057	2639.65	74.6566	2639.65	73.6705	2639.65	74.1381	2639.65	73.4925	2639.65	75.2154	2639.65	74.4761	2639.65	71.7225	2639.65	72.6858	2639.65	74.7743	2639.65	69.724	2639.65	74.7799
2731.93	92.8571	2731.93	92.5431	2731.93	92.3575	2731.93	91.9607	2731.93	91.5942	2731.93	90.9888	2731.93	90.9163	2731.93	89.8299	2731.93	89.594	2731.93	88.0598	2731.93	88.0728	2731.93	86.5578	2731.93	86.108	2731.93	84.0363	2731.93	84.1496	2731.93	83.358	2731.93	83.3674	2731.93	80.6152	2731.93	80.4609	2731.93	79.2373	2731.93	79.2193	2731.93	78.9734	2731.93	76.3782	2731.93	76.2272	2731.93	76.5366	2731.93	74.9458	2731.93	75.4215	2731.93	75.7697	2731.93	73.9244	2731.93	75.7136	2731.93	75.9432	2731.93	74.8023	2731.93	73.8236	2731.93	71.197	2731.93	72.8653	2731.93	73.8391
2828.61	92.3461	2828.61	92.2712	2828.61	92.134	2828.61	91.8403	2828.61	91.6902	2828.61	90.9777	2828.61	91.013	2828.61	89.4322	2828.61	89.832	2828.61	87.7787	2828.61	88.1135	2828.61	86.1639	2828.61	86.515	2828.61	83.9134	2828.61	84.4755	2828.61	81.7094	2828.61	81.7135	2828.61	80.1155	2828.61	79.3603	2828.61	78.277	2828.61	77.1167	2828.61	74.7978	2828.61	77.6123	2828.61	75.8997	2828.61	75.2402	2828.61	75.5128	2828.61	76.3209	2828.61	71.3657	2828.61	74.6709	2828.61	74.4476	2828.61	74.8225	2828.61	72.9063	2828.61	74.7859	2828.61	72.8974	2828.61	71.2422	2828.61	76.4394
2928.22	92.3368	2928.22	92.1619	2928.22	92.1726	2928.22	91.6305	2928.22	91.746	2928.22	91.0369	2928.22	91.1116	2928.22	89.6869	2928.22	89.426	2928.22	87.9452	2928.22	88.2109	2928.22	85.6188	2928.22	86.4843	2928.22	83.4453	2928.22	84.1302	2928.22	81.8205	2928.22	82.2929	2928.22	80.1346	2928.22	80.9152	2928.22	77.1908	2928.22	79.0039	2928.22	77.5468	2928.22	78.075	2928.22	71.7041	2928.22	73.4022	2928.22	76.0591	2928.22	75.1816	2928.22	75.2457	2928.22	75.5496	2928.22	75.1121	2928.22	74.3191	2928.22	74.6714	2928.22	75.8014	2928.22	72.165	2928.22	75.3743	2928.22	75.1769
3030.76	92.1054	3030.76	92.233	3030.76	92.2386	3030.76	91.7307	3030.76	92.1389	3030.76	91.2164	3030.76	91.0392	3030.76	89.9898	3030.76	90.0132	3030.76	88.36	3030.76	88.7621	3030.76	86.6468	3030.76	86.8478	3030.76	85.4139	3030.76	85.3455	3030.76	82.1641	3030.76	83.6673	3030.76	79.2619	3030.76	81.1126	3030.76	78.4966	3030.76	78.2098	3030.76	77.3522	3030.76	76.9229	3030.76	75.3864	3030.76	74.791	3030.76	74.6556	3030.76	75.045	3030.76	75.3718	3030.76	75.3114	3030.76	73.4387	3030.76	75.6613	3030.76	72.9849	3030.76	73.5113	3030.76	74.7385	3030.76	72.5201	3030.76	77.9532
3137.7	91.6579	3137.7	91.567	3137.7	91.6148	3137.7	91.4784	3137.7	91.4267	3137.7	90.2826	3137.7	90.7139	3137.7	89.3793	3137.7	89.954	3137.7	88.3403	3137.7	88.222	3137.7	86.3954	3137.7	86.839	3137.7	83.8782	3137.7	84.8643	3137.7	81.8103	3137.7	82.0871	3137.7	78.5424	3137.7	81.4938	3137.7	77.1631	3137.7	78.414	3137.7	77.0384	3137.7	77.7912	3137.7	75.954	3137.7	76.0148	3137.7	78.46	3137.7	72.8286	3137.7	76.4341	3137.7	75.8123	3137.7	74.647	3137.7	74.3208	3137.7	72.6128	3137.7	74.7067	3137.7	73.2534	3137.7	73.1178	3137.7	74.8812
3249.02	92.4055	3249.02	92.4288	3249.02	92.2194	3249.02	92.1781	3249.02	91.9332	3249.02	91.3366	3249.02	91.1097	3249.02	90.0968	3249.02	90.2269	3249.02	88.5541	3249.02	88.5774	3249.02	86.5229	3249.02	86.5797	3249.02	84.2444	3249.02	84.6408	3249.02	82.6633	3249.02	82.612	3249.02	79.883	3249.02	80.6118	3249.02	76.9894	3249.02	79.2963	3249.02	76.728	3249.02	76.1842	3249.02	73.1469	3249.02	75.3304	3249.02	73.7926	3249.02	73.1345	3249.02	75.7429	3249.02	74.5303	3249.02	74.9947	3249.02	73.0703	3249.02	75.6977	3249.02	74.0478	3249.02	73.7665	3249.02	73.7766	3249.02	74.3238
3363.28	92.5514	3363.28	92.4259	3363.28	92.3978	3363.28	91.8224	3363.28	91.8172	3363.28	91.2563	3363.28	91.3591	3363.28	89.7755	3363.28	90.182	3363.28	88.1191	3363.28	88.6976	3363.28	85.9344	3363.28	87.0501	3363.28	84.5748	3363.28	85.0034	3363.28	83.2997	3363.28	83.168	3363.28	80.9319	3363.28	80.5206	3363.28	78.2806	3363.28	78.4408	3363.28	75.9374	3363.28	76.5702	3363.28	73.2635	3363.28	75.0235	3363.28	74.1116	3363.28	73.3014	3363.28	74.0763	3363.28	74.7023	3363.28	75.2805	3363.28	72.6868	3363.28	75.5779	3363.28	74.4183	3363.28	73.5195	3363.28	71.3069	3363.28	75.7194
3481.93	92.5856	3481.93	92.8122	3481.93	92.601	3481.93	92.4943	3481.93	92.4596	3481.93	91.8963	3481.93	91.838	3481.93	90.4936	3481.93	91.0242	3481.93	88.562	3481.93	89.2842	3481.93	86.6209	3481.93	87.1337	3481.93	84.3311	3481.93	85.2972	3481.93	81.3484	3481.93	83.2588	3481.93	80.636	3481.93	79.8336	3481.93	76.9731	3481.93	77.1132	3481.93	74.6784	3481.93	77.1783	3481.93	73.3541	3481.93	76.0021	3481.93	69.0957	3481.93	73.1992	3481.93	74.9628	3481.93	75.8332	3481.93	73.9656	3481.93	72.8118	3481.93	73.5474	3481.93	74.7569	3481.93	73.8563	3481.93	72.3659	3481.93	76.8839
3604.98	91.68	3604.98	91.7926	3604.98	91.8412	3604.98	91.972	3604.98	92.0915	3604.98	91.5658	3604.98	91.3774	3604.98	90.5253	3604.98	90.5771	3604.98	88.8957	3604.98	89.2448	3604.98	86.6478	3604.98	87.6486	3604.98	84.0963	3604.98	85.6328	3604.98	82.1487	3604.98	82.942	3604.98	79.2843	3604.98	81.6624	3604.98	77.2716	3604.98	79.1277	3604.98	75.1149	3604.98	76.2845	3604.98	74.1392	3604.98	74.8231	3604.98	70.3783	3604.98	70.846	3604.98	76.2547	3604.98	76.1924	3604.98	75.2041	3604.98	74.3322	3604.98	74.3164	3604.98	75.6213	3604.98	75.3521	3604.98	72.0336	3604.98	77.0287
3732.42	92.3015	3732.42	92.4199	3732.42	92.334	3732.42	92.6101	3732.42	92.7307	3732.42	92.1272	3732.42	92.3522	3732.42	91.2399	3732.42	91.2013	3732.42	89.6504	3732.42	89.702	3732.42	87.5882	3732.42	87.776	3732.42	85.2844	3732.42	85.8707	3732.42	82.8801	3732.42	83.6718	3732.42	80.6943	3732.42	81.9477	3732.42	77.4864	3732.42	79.388	3732.42	75.5163	3732.42	76.8598	3732.42	73.823	3732.42	75.4271	3732.42	67.3388	3732.42	70.7043	3732.42	73.6622	3732.42	76.076	3732.42	72.651	3732.42	75.8856	3732.42	75.1695	3732.42	77.1778	3732.42	69.4473	3732.42	74.1531	3732.42	74.1834
3864.26	91.8979	3864.26	91.831	3864.26	91.7418	3864.26	91.7534	3864.26	91.6834	3864.26	91.3901	3864.26	91.8498	3864.26	90.3868	3864.26	90.9298	3864.26	88.7267	3864.26	89.3023	3864.26	86.6991	3864.26	87.4894	3864.26	84.6588	3864.26	85.1627	3864.26	82.6233	3864.26	82.7158	3864.26	81.0526	3864.26	80.6664	3864.26	79.1141	3864.26	78.0652	3864.26	76.9734	3864.26	76.0967	3864.26	75.1377	3864.26	72.4154	3864.26	71.5531	3864.26	70.4951	3864.26	73.0807	3864.26	73.5957	3864.26	72.329	3864.26	74.1653	3864.26	75.7962	3864.26	76.9959	3864.26	68.7057	3864.26	71.9737	3864.26	73.1092
4000.49	92.5845	4000.49	92.4745	4000.49	92.6884	4000.49	92.4708	4000.49	92.3494	4000.49	91.7696	4000.49	91.5423	4000.49	90.8261	4000.49	90.6073	4000.49	89.2392	4000.49	89.1717	4000.49	86.7968	4000.49	87.2068	4000.49	84.3709	4000.49	84.9971	4000.49	82.0708	4000.49	83.4444	4000.49	78.8403	4000.49	79.8758	4000.49	77.3744	4000.49	79.4302	4000.49	73.6114	4000.49	76.7681	4000.49	73.2685	4000.49	75.1164	4000.49	70.6564	4000.49	71.7073	4000.49	70.5081	4000.49	68.9778	4000.49	71.9207	4000.49	71.5538	4000.49	75.9693	4000.49	75.4903	4000.49	71.6482	4000.49	71.7444	4000.49	73.5082
4141.11	92.5689	4141.11	92.3844	4141.11	92.5979	4141.11	92.0403	4141.11	92.2085	4141.11	90.843	4141.11	91.6516	4141.11	89.474	4141.11	90.268	4141.11	87.6553	4141.11	88.7621	4141.11	86.0174	4141.11	87.508	4141.11	84.2386	4141.11	85.009	4141.11	82.0927	4141.11	82.4394	4141.11	79.581	4141.11	80.9191	4141.11	77.4497	4141.11	78.7795	4141.11	74.8871	4141.11	76.7314	4141.11	74.0608	4141.11	74.8119	4141.11	71.09	4141.11	71.7218	4141.11	70.3697	4141.11	69.3425	4141.11	67.9643	4141.11	72.7737	4141.11	74.3958	4141.11	74.5893	4141.11	70.4098	4141.11	69.2713	4141.11	73.3455
4287.6	92.9736	4287.6	92.9563	4287.6	92.6336	4287.6	92.4395	4287.6	92.5895	4287.6	91.3401	4287.6	91.7381	4287.6	89.7724	4287.6	90.6432	4287.6	88.2891	4287.6	88.9853	4287.6	86.6009	4287.6	86.9082	4287.6	83.9033	4287.6	84.5186	4287.6	81.0575	4287.6	82.436	4287.6	78.7371	4287.6	79.6375	4287.6	76.2486	4287.6	78.6305	4287.6	74.1072	4287.6	75.0764	4287.6	72.0139	4287.6	74.5866	4287.6	72.711	4287.6	72.5059	4287.6	71.956	4287.6	68.4232	4287.6	70.8801	4287.6	73.9744	4287.6	74.4262	4287.6	74.59	4287.6	69.0795	4287.6	73.5293	4287.6	69.3237
4438.48	92.7247	4438.48	92.5982	4438.48	92.7987	4438.48	92.3416	4438.48	92.239	4438.48	91.497	4438.48	91.4905	4438.48	90.1242	4438.48	90.1671	4438.48	88.1395	4438.48	88.9101	4438.48	86.434	4438.48	87.413	4438.48	83.8558	4438.48	84.9074	4438.48	81.4755	4438.48	82.1197	4438.48	79.2812	4438.48	79.8801	4438.48	77.1973	4438.48	77.9153	4438.48	75.2616	4438.48	76.3779	4438.48	73.1288	4438.48	75.9667	4438.48	71.5108	4438.48	73.1349	4438.48	69.2471	4438.48	69.0993	4438.48	72.1621	4438.48	73.2609	4438.48	74.254	4438.48	75.6792	4438.48	67.525	4438.48	73.3182	4438.48	69.9404
4595.21	92.792	4595.21	92.6447	4595.21	92.7331	4595.21	92.2068	4595.21	91.9226	4595.21	91.5238	4595.21	90.7323	4595.21	90.1732	4595.21	89.863	4595.21	88.6495	4595.21	88.749	4595.21	86.9731	4595.21	86.8577	4595.21	84.7362	4595.21	84.5773	4595.21	82.1226	4595.21	82.6984	4595.21	79.2238	4595.21	80.2176	4595.21	77.1161	4595.21	77.6258	4595.21	74.6378	4595.21	75.4251	4595.21	72.7385	4595.21	74.2748	4595.21	69.4731	4595.21	73.1966	4595.21	66.5817	4595.21	68.3316	4595.21	71.3032	4595.21	73.0015	4595.21	72.7222	4595.21	72.6002	4595.21	70.3406	4595.21	72.2365	4595.21	73.602
4756.35	92.6495	4756.35	92.6444	4756.35	92.3626	4756.35	91.7842	4756.35	92.1231	4756.35	90.8178	4756.35	91.411	4756.35	89.5223	4756.35	90.5375	4756.35	87.9465	4756.35	89.2681	4756.35	86.201	4756.35	87.47	4756.35	84.5857	4756.35	85.6721	4756.35	81.4498	4756.35	82.6798	4756.35	79.5355	4756.35	80.7357	4756.35	77.7214	4756.35	77.7155	4756.35	74.3313	4756.35	77.2848	4756.35	74.2254	4756.35	74.1642	4756.35	73.5719	4756.35	70.9228	4756.35	70.7054	4756.35	71.1349	4756.35	72.2836	4756.35	73.9522	4756.35	73.6366	4756.35	71.371	4756.35	69.171	4756.35	70.6654	4756.35	74.6549
4924.8	92.7244	4924.8	92.4899	4924.8	92.4315	4924.8	92.0829	4924.8	91.7798	4924.8	91.1476	4924.8	91.1814	4924.8	90.35	4924.8	90.2731	4924.8	89.2584	4924.8	88.9841	4924.8	87.1202	4924.8	87.4679	4924.8	85.0823	4924.8	85.2714	4924.8	82.8914	4924.8	83.1319	4924.8	79.6802	4924.8	79.8991	4924.8	77.6758	4924.8	78.1157	4924.8	76.4676	4924.8	77.0254	4924.8	73.3781	4924.8	75.1623	4924.8	67.5394	4924.8	72.2248	4924.8	71.8138	4924.8	69.1273	4924.8	73.4302	4924.8	73.3225	4924.8	72.126	4924.8	74.0102	4924.8	68.2192	4924.8	72.4275	4924.8	72.045
5097.66	93.1189	5097.66	92.723	5097.66	92.8661	5097.66	92.1817	5097.66	92.0664	5097.66	91.6992	5097.66	91.3397	5097.66	90.7943	5097.66	90.7183	5097.66	89.3361	5097.66	89.3818	5097.66	87.4268	5097.66	87.5859	5097.66	84.4754	5097.66	85.5559	5097.66	82.3422	5097.66	83.2328	5097.66	79.6207	5097.66	80.3914	5097.66	76.1647	5097.66	78.2456	5097.66	75.3864	5097.66	77.3497	5097.66	73.7046	5097.66	75.4044	5097.66	71.6315	5097.66	73.2919	5097.66	73.3651	5097.66	69.151	5097.66	72.9318	5097.66	73.4339	5097.66	72.6974	5097.66	74.1337	5097.66	70.9374	5097.66	72.9257	5097.66	69.3159
5277.83	92.8279	5277.83	92.3653	5277.83	92.6345	5277.83	91.7589	5277.83	91.8821	5277.83	91.4714	5277.83	91.5965	5277.83	90.5479	5277.83	91.1887	5277.83	88.6677	5277.83	89.9568	5277.83	86.8302	5277.83	87.7639	5277.83	84.4957	5277.83	85.4735	5277.83	82.2018	5277.83	82.8989	5277.83	80.9684	5277.83	80.3685	5277.83	77.5285	5277.83	77.8708	5277.83	76.6224	5277.83	76.7442	5277.83	74.124	5277.83	73.5135	5277.83	73.9069	5277.83	72.8758	5277.83	72.5698	5277.83	70.2898	5277.83	74.1569	5277.83	71.9985	5277.83	73.9811	5277.83	72.4526	5277.83	69.1462	5277.83	73.5931	5277.83	70.4584
5463.87	92.3087	5463.87	92.2863	5463.87	92.2115	5463.87	92.0481	5463.87	91.597	5463.87	91.6404	5463.87	91.4717	5463.87	91.1476	5463.87	90.7975	5463.87	89.803	5463.87	89.5953	5463.87	87.6153	5463.87	88.1103	5463.87	85.5461	5463.87	85.5775	5463.87	83.1189	5463.87	83.1058	5463.87	80.5015	5463.87	81.3229	5463.87	78.6186	5463.87	78.9923	5463.87	77.5914	5463.87	76.5071	5463.87	73.866	5463.87	76.5603	5463.87	72.676	5463.87	73.0165	5463.87	70.575	5463.87	73.3268	5463.87	73.9146	5463.87	74.8898	5463.87	73.0178	5463.87	73.3533	5463.87	72.1904	5463.87	73.7917	5463.87	68.6847
5657.23	92.8806	5657.23	92.8932	5657.23	92.5224	5657.23	92.5246	5657.23	92.1945	5657.23	92.2717	5657.23	91.6336	5657.23	91.4405	5657.23	91.1654	5657.23	90.1338	5657.23	89.7545	5657.23	88.0798	5657.23	87.8884	5657.23	85.5327	5657.23	85.2672	5657.23	83.0841	5657.23	83.0227	5657.23	80.4165	5657.23	80.6569	5657.23	77.1824	5657.23	77.8321	5657.23	75.7883	5657.23	77.2708	5657.23	75.0924	5657.23	71.9696	5657.23	73.0444	5657.23	71.9727	5657.23	69.7027	5657.23	73.3747	5657.23	75.0015	5657.23	73.1561	5657.23	72.5842	5657.23	71.9444	5657.23	72.134	5657.23	72.6891	5657.23	69.5986
5856.45	92.7758	5856.45	92.5957	5856.45	92.5235	5856.45	92.2743	5856.45	92.0691	5856.45	92.0529	5856.45	91.7359	5856.45	91.232	5856.45	91.0453	5856.45	89.5031	5856.45	89.7901	5856.45	87.5892	5856.45	87.346	5856.45	84.9506	5856.45	85.2412	5856.45	82.8061	5856.45	82.7764	5856.45	79.669	5856.45	79.4534	5856.45	77.6709	5856.45	77.3993	5856.45	76.0656	5856.45	75.5171	5856.45	72.0849	5856.45	74.4965	5856.45	72.5209	5856.45	71.2905	5856.45	69.4618	5856.45	71.4052	5856.45	73.2277	5856.45	74.2416	5856.45	72.282	5856.45	71.8044	5856.45	70.6195	5856.45	72.1794	5856.45	69.2879
6062.99	92.551	6062.99	92.4058	6062.99	92.412	6062.99	92.0759	6062.99	92.0544	6062.99	91.8656	6062.99	92.0569	6062.99	91.0642	6062.99	91.0097	6062.99	89.4192	6062.99	89.4863	6062.99	87.6519	6062.99	87.7301	6062.99	85.4213	6062.99	85.3098	6062.99	82.782	6062.99	83.1173	6062.99	80.3294	6062.99	80.2953	6062.99	78.2299	6062.99	77.671	6062.99	76.6877	6062.99	74.849	6062.99	74.0434	6062.99	73.796	6062.99	72.5431	6062.99	71.4909	6062.99	70.7708	6062.99	72.1851	6062.99	72.626	6062.99	74.3982	6062.99	70.608	6062.99	72.788	6062.99	70.8302	6062.99	72.1242	6062.99	69.2879
6276.86	92.0424	6276.86	92.1439	6276.86	91.9459	6276.86	91.9366	6276.86	91.8886	6276.86	91.5606	6276.86	91.4962	6276.86	90.7598	6276.86	90.606	6276.86	89.2259	6276.86	89.1289	6276.86	87.426	6276.86	87.8273	6276.86	85.1744	6276.86	85.4502	6276.86	82.9119	6276.86	82.9349	6276.86	79.7274	6276.86	80.5921	6276.86	77.8797	6276.86	77.9873	6276.86	75.1036	6276.86	75.2664	6276.86	73.2586	6276.86	74.5255	6276.86	72.4266	6276.86	70.9183	6276.86	71.5742	6276.86	71.2317	6276.86	71.6961	6276.86	72.8171	6276.86	70.6696	6276.86	70.5942	6276.86	69.554	6276.86	70.7226	6276.86	68.2413
6498.05	91.7063	6498.05	91.8051	6498.05	91.7724	6498.05	91.7493	6498.05	91.6722	6498.05	91.2529	6498.05	91.3739	6498.05	90.2861	6498.05	90.5083	6498.05	89.1128	6498.05	89.3221	6498.05	87.4235	6498.05	87.5304	6498.05	85.1786	6498.05	85.7297	6498.05	82.1673	6498.05	82.7927	6498.05	79.326	6498.05	80.2452	6498.05	76.6653	6498.05	76.8335	6498.05	74.7674	6498.05	75.0643	6498.05	73.6986	6498.05	75.0176	6498.05	70.7551	6498.05	71.6633	6498.05	70.7904	6498.05	69.7972	6498.05	71.1017	6498.05	72.502	6498.05	71.0742	6498.05	72.9583	6498.05	69.1287	6498.05	71.8214	6498.05	66.0838
6726.56	91.7322	6726.56	91.8671	6726.56	92.1109	6726.56	91.9807	6726.56	92.0162	6726.56	91.5133	6726.56	91.6825	6726.56	90.5818	6726.56	90.7845	6726.56	89.3309	6726.56	89.6653	6726.56	87.6919	6726.56	88.1546	6726.56	85.3711	6726.56	86.0506	6726.56	82.48	6726.56	83.1792	6726.56	79.2421	6726.56	80.0428	6726.56	76.5726	6726.56	77.5203	6726.56	73.6649	6726.56	75.4218	6726.56	72.9648	6726.56	74.6811	6726.56	68.7915	6726.56	70.6561	6726.56	72.1434	6726.56	69.3075	6726.56	71.6607	6726.56	71.0621	6726.56	71.3822	6726.56	72.0625	6726.56	69.6643	6726.56	70.5206	6726.56	65.7389
6963.87	91.571	6963.87	91.9544	6963.87	92.1434	6963.87	92.062	6963.87	92.2095	6963.87	91.4691	6963.87	91.8104	6963.87	90.4683	6963.87	90.914	6963.87	89.2922	6963.87	89.716	6963.87	87.3925	6963.87	88.1587	6963.87	84.9407	6963.87	85.6535	6963.87	81.6029	6963.87	82.6155	6963.87	79.07	6963.87	79.7826	6963.87	76.347	6963.87	76.8286	6963.87	72.8925	6963.87	73.9771	6963.87	72.6507	6963.87	73.6401	6963.87	70.1026	6963.87	70.2678	6963.87	66.9519	6963.87	67.1592	6963.87	69.2388	6963.87	70.5669	6963.87	71.1093	6963.87	72.9623	6963.87	69.0763	6963.87	70.824	6963.87	63.6108
7209.96	91.4185	7209.96	91.9579	7209.96	92.0315	7209.96	91.914	7209.96	92.0881	7209.96	91.1352	7209.96	91.6344	7209.96	90.1827	7209.96	90.6763	7209.96	89.087	7209.96	89.7975	7209.96	87.3514	7209.96	88.1263	7209.96	84.5546	7209.96	85.2899	7209.96	81.7551	7209.96	82.549	7209.96	78.784	7209.96	79.5116	7209.96	75.9173	7209.96	77.2239	7209.96	72.6584	7209.96	74.5718	7209.96	72.7537	7209.96	72.307	7209.96	67.5569	7209.96	69.3916	7209.96	67.7075	7209.96	67.1131	7209.96	70.0514	7209.96	69.1235	7209.96	70.2879	7209.96	73.2904	7209.96	68.5526	7209.96	69.645	7209.96	63.5641
7464.84	91.3359	7464.84	91.9299	7464.84	92.0421	7464.84	92.0071	7464.84	92.2132	7464.84	91.1038	7464.84	91.7085	7464.84	90.2889	7464.84	90.9863	7464.84	89.1722	7464.84	90.0872	7464.84	87.2337	7464.84	87.7887	7464.84	84.3788	7464.84	85.095	7464.84	81.5389	7464.84	82.6025	7464.84	78.8206	7464.84	79.6048	7464.84	75.6581	7464.84	77.299	7464.84	73.9308	7464.84	74.4317	7464.84	71.6022	7464.84	70.9854	7464.84	68.7363	7464.84	69.4064	7464.84	66.2241	7464.84	68.695	7464.84	67.7653	7464.84	69.7065	7464.84	70.9193	7464.84	72.8825	7464.84	67.2204	7464.84	68.2323	7464.84	61.5474
7727.05	91.4628	7727.05	92.1475	7727.05	92.4211	7727.05	92.3386	7727.05	92.4565	7727.05	91.3812	7727.05	91.9627	7727.05	90.666	7727.05	91.1856	7727.05	89.2021	7727.05	90.2715	7727.05	86.9965	7727.05	87.9441	7727.05	84.2675	7727.05	85.4589	7727.05	81.2644	7727.05	82.4391	7727.05	78.5995	7727.05	79.821	7727.05	75.1359	7727.05	77.1164	7727.05	73.9677	7727.05	74.3815	7727.05	71.4071	7727.05	72.7462	7727.05	69.1357	7727.05	69.5043	7727.05	67.7962	7727.05	68.0557	7727.05	68.0505	7727.05	68.1795	7727.05	70.3377	7727.05	71.5042	7727.05	67.4443	7727.05	68.5568	7727.05	60.8215
7999.51	91.501	7999.51	92.1316	7999.51	92.3611	7999.51	92.2705	7999.51	92.4744	7999.51	91.5099	7999.51	92.0402	7999.51	90.6059	7999.51	91.3801	7999.51	89.2788	7999.51	90.0617	7999.51	86.9259	7999.51	87.7183	7999.51	84.4382	7999.51	85.4089	7999.51	81.5424	7999.51	82.5289	7999.51	78.4678	7999.51	80.1448	7999.51	75.3567	7999.51	76.724	7999.51	73.2893	7999.51	74.5399	7999.51	70.9253	7999.51	72.2489	7999.51	69.8652	7999.51	69.4716	7999.51	64.5736	7999.51	66.2263	7999.51	67.9015	7999.51	66.648	7999.51	70.623	7999.51	71.6741	7999.51	66.6803	7999.51	69.2504	7999.51	56.2069
8282.23	91.8231	8282.23	92.132	8282.23	92.6278	8282.23	92.082	8282.23	92.5365	8282.23	91.3958	8282.23	92.124	8282.23	90.458	8282.23	91.197	8282.23	88.7903	8282.23	89.7181	8282.23	86.729	8282.23	87.8334	8282.23	84.2777	8282.23	85.6101	8282.23	81.6624	8282.23	82.7889	8282.23	78.2076	8282.23	79.5886	8282.23	76.1746	8282.23	76.8738	8282.23	71.973	8282.23	74.6616	8282.23	71.4932	8282.23	72.2941	8282.23	69.0304	8282.23	69.3768	8282.23	65.519	8282.23	66.2345	8282.23	66.8059	8282.23	67.4291	8282.23	70.3684	8282.23	71.0041	8282.23	68.3399	8282.23	70.5842	8282.23	58.0168
8573.73	92.1399	8573.73	92.2397	8573.73	92.5863	8573.73	91.98	8573.73	92.577	8573.73	91.3678	8573.73	92.4334	8573.73	90.0265	8573.73	91.4419	8573.73	88.3227	8573.73	89.9539	8573.73	86.5459	8573.73	88.0631	8573.73	84.0624	8573.73	85.4247	8573.73	81.0445	8573.73	82.7468	8573.73	77.6778	8573.73	79.416	8573.73	74.8986	8573.73	76.8098	8573.73	72.0627	8573.73	74.8846	8573.73	71.7237	8573.73	71.4325	8573.73	67.6034	8573.73	69.3559	8573.73	65.5393	8573.73	67.4384	8573.73	65.0052	8573.73	65.5884	8573.73	69.5873	8573.73	70.3404	8573.73	68.4364	8573.73	70.0073	8573.73	54.7194
8876.95	92.2829	8876.95	92.2227	8876.95	92.6198	8876.95	91.9134	8876.95	92.79	8876.95	91.4662	8876.95	92.5656	8876.95	90.1296	8876.95	91.3432	8876.95	88.3342	8876.95	89.8202	8876.95	86.4522	8876.95	88.1414	8876.95	83.6604	8876.95	85.3985	8876.95	80.5502	8876.95	82.4101	8876.95	77.2466	8876.95	79.1944	8876.95	74.713	8876.95	76.6629	8876.95	71.9634	8876.95	73.9038	8876.95	70.1835	8876.95	71.0277	8876.95	67.9759	8876.95	69.7135	8876.95	66.5285	8876.95	68.2751	8876.95	64.2018	8876.95	66.5459	8876.95	69.4877	8876.95	70.4826	8876.95	69.0611	8876.95	70.9599	8876.95	56.36
9188.96	92.8361	9188.96	92.4852	9188.96	93.1023	9188.96	92.223	9188.96	93.0771	9188.96	91.7234	9188.96	92.8923	9188.96	90.0181	9188.96	91.4822	9188.96	88.3428	9188.96	90.1601	9188.96	86.5515	9188.96	88.3216	9188.96	83.6884	9188.96	85.4656	9188.96	80.3896	9188.96	82.4354	9188.96	77.5125	9188.96	79.4444	9188.96	74.4448	9188.96	76.28	9188.96	72.3402	9188.96	73.6917	9188.96	70.1112	9188.96	71.1679	9188.96	68.5402	9188.96	69.2214	9188.96	66.6923	9188.96	68.2282	9188.96	64.1525	9188.96	66.0563	9188.96	69.4372	9188.96	70.1898	9188.96	67.79	9188.96	69.511	9188.96	54.425
9514.16	93.3202	9514.16	92.8799	9514.16	93.35	9514.16	92.5125	9514.16	93.2995	9514.16	91.8706	9514.16	93.0385	9514.16	89.992	9514.16	91.4912	9514.16	88.3986	9514.16	90.0834	9514.16	86.5063	9514.16	88.3098	9514.16	83.5752	9514.16	85.4751	9514.16	80.0639	9514.16	82.198	9514.16	77.172	9514.16	78.7985	9514.16	74.0831	9514.16	75.8362	9514.16	71.8232	9514.16	73.6067	9514.16	69.4004	9514.16	70.7618	9514.16	68.2235	9514.16	69.3803	9514.16	66.3355	9514.16	67.1921	9514.16	65.7517	9514.16	65.9603	9514.16	69.8479	9514.16	71.0209	9514.16	66.9679	9514.16	69.3097	9514.16	58.6829
9849.61	93.2434	9849.61	92.7945	9849.61	93.2578	9849.61	92.6414	9849.61	93.3024	9849.61	91.8915	9849.61	93.1075	9849.61	90.2421	9849.61	91.5419	9849.61	88.82	9849.61	90.3044	9849.61	86.4854	9849.61	88.141	9849.61	83.3119	9849.61	85.0388	9849.61	79.5964	9849.61	81.7937	9849.61	76.3888	9849.61	78.2962	9849.61	73.4482	9849.61	75.5568	9849.61	71.4303	9849.61	73.1794	9849.61	68.6097	9849.61	70.7839	9849.61	67.6238	9849.61	69.1295	9849.61	66.126	9849.61	67.5673	9849.61	65.0505	9849.61	65.5962	9849.61	69.7213	9849.61	70.2614	9849.61	66.9655	9849.61	69.6087	9849.61	59.1431
10196.8	92.989	10196.8	92.6396	10196.8	93.216	10196.8	92.4086	10196.8	93.3735	10196.8	91.9665	10196.8	93.1087	10196.8	90.3806	10196.8	91.7105	10196.8	88.6011	10196.8	90.1902	10196.8	86.3156	10196.8	87.9468	10196.8	82.985	10196.8	84.707	10196.8	79.6618	10196.8	81.4307	10196.8	76.59	10196.8	78.6945	10196.8	73.706	10196.8	75.2831	10196.8	70.8854	10196.8	72.9736	10196.8	68.3798	10196.8	69.7554	10196.8	68.1538	10196.8	68.3204	10196.8	64.6887	10196.8	66.9693	10196.8	65.687	10196.8	64.3118	10196.8	68.6428	10196.8	70.0377	10196.8	65.0126	10196.8	68.1944	10196.8	55.8919
10555.7	92.7298	10555.7	92.5322	10555.7	92.8777	10555.7	92.3417	10555.7	92.9358	10555.7	91.7139	10555.7	92.8417	10555.7	90.1702	10555.7	91.4661	10555.7	88.1604	10555.7	89.6875	10555.7	85.841	10555.7	87.3961	10555.7	82.8673	10555.7	84.666	10555.7	79.0969	10555.7	81.4902	10555.7	76.5534	10555.7	78.1191	10555.7	73.2561	10555.7	75.504	10555.7	71.7532	10555.7	72.8063	10555.7	67.0723	10555.7	69.2659	10555.7	67.3442	10555.7	68.1329	10555.7	64.3619	10555.7	66.6753	10555.7	63.1177	10555.7	62.2705	10555.7	68.1754	10555.7	69.5022	10555.7	62.9471	10555.7	65.555	10555.7	46.5121
10927.7	92.0344	10927.7	91.9636	10927.7	92.5248	10927.7	92.0399	10927.7	92.443	10927.7	91.4645	10927.7	92.5013	10927.7	90.0546	10927.7	91.2276	10927.7	88.0523	10927.7	89.5401	10927.7	85.4904	10927.7	86.9905	10927.7	82.4816	10927.7	84.3961	10927.7	79.1757	10927.7	80.4923	10927.7	75.3889	10927.7	76.204	10927.7	72.0719	10927.7	73.817	10927.7	70.4313	10927.7	72.4965	10927.7	67.0978	10927.7	69.0652	10927.7	66.0703	10927.7	67.3844	10927.7	66.3452	10927.7	63.2579	10927.7	58.968	10927.7	59.0993	10927.7	67.1193	10927.7	67.8287	10927.7	63.1783	10927.7	64.7959	10927.7	41.1251
11313	91.7113	11313	91.8739	11313	92.5196	11313	91.3746	11313	92.377	11313	91.1937	11313	92.3973	11313	89.7574	11313	91.0772	11313	87.6532	11313	89.0784	11313	85.3402	11313	86.812	11313	82.6279	11313	83.5241	11313	78.8411	11313	79.6377	11313	75.8931	11313	77.1658	11313	72.7062	11313	73.9851	11313	69.577	11313	70.799	11313	67.2676	11313	67.5529	11313	66.8996	11313	67.3879	11313	65.0953	11313	63.056	11313	59.9107	11313	58.0272	11313	65.0557	11313	66.3091	11313	62.2327	11313	64.773	11313	58.3697
11712.9	91.6236	11712.9	91.9658	11712.9	92.2315	11712.9	91.3274	11712.9	91.9674	11712.9	91.1429	11712.9	91.9439	11712.9	89.9758	11712.9	90.6233	11712.9	87.8422	11712.9	88.5999	11712.9	85.4741	11712.9	85.9275	11712.9	81.8761	11712.9	82.4187	11712.9	77.9456	11712.9	78.4537	11712.9	74.6863	11712.9	75.9037	11712.9	71.5382	11712.9	71.6795	11712.9	69.3949	11712.9	69.6958	11712.9	65.3496	11712.9	67.9122	11712.9	67.1353	11712.9	65.6426	11712.9	61.9243	11712.9	60.1506	11712.9	58.6203	11712.9	50.5646	11712.9	64.3336	11712.9	65.0283	11712.9	62.6546	11712.9	63.9734	11712.9	56.2823
12126	92.0744	12126	92.1991	12126	92.3539	12126	91.618	12126	91.6679	12126	91.1285	12126	91.5075	12126	90.0406	12126	90.0366	12126	87.7604	12126	87.8664	12126	84.9555	12126	84.7206	12126	81.5747	12126	81.0132	12126	77.7371	12126	77.5753	12126	73.8718	12126	72.4787	12126	71.5503	12126	70.5557	12126	66.1516	12126	68.3919	12126	63.9981	12126	66.0325	12126	63.8655	12126	62.4027	12126	61.6157	12126	56.515	12126	56.3254	12126	47.2221	12126	64.2787	12126	63.888	12126	62.1469	12126	63.9992	12126	53.8499
12553.7	92.3512	12553.7	92.3685	12553.7	92.4299	12553.7	91.7484	12553.7	91.3801	12553.7	91.169	12553.7	91.0114	12553.7	89.7879	12553.7	89.5219	12553.7	87.7795	12553.7	86.8769	12553.7	84.6265	12553.7	83.4658	12553.7	81.0399	12553.7	79.1966	12553.7	76.751	12553.7	75.0471	12553.7	72.8515	12553.7	71.9159	12553.7	69.4206	12553.7	69.4352	12553.7	66.0076	12553.7	65.2305	12553.7	64.106	12553.7	63.8536	12553.7	61.7702	12553.7	59.8079	12553.7	61.4112	12553.7	51.0887	12553.7	56.5986	12553.7	32.4523	12553.7	62.9749	12553.7	61.0811	12553.7	59.9686	12553.7	63.9696	12553.7	55.852
12996.1	92.4575	12996.1	92.6021	12996.1	92.1435	12996.1	91.8634	12996.1	90.9336	12996.1	91.1967	12996.1	90.1777	12996.1	89.6206	12996.1	88.3864	12996.1	87.1646	12996.1	85.2494	12996.1	83.6588	12996.1	81.6561	12996.1	79.7491	12996.1	77.3605	12996.1	75.6734	12996.1	72.6434	12996.1	71.6668	12996.1	69.9111	12996.1	68.3897	12996.1	66.0054	12996.1	64.4728	12996.1	62.489	12996.1	64.2483	12996.1	60.4698	12996.1	64.1359	12996.1	59.0844	12996.1	60.737	12996.1	52.5142	12996.1	56.089	12996.1	47.6225	12996.1	62.0025	12996.1	58.323	12996.1	59.3917	12996.1	62.9167	12996.1	54.6111
13454.6	92.7226	13454.6	92.6911	13454.6	92.3424	13454.6	92.0286	13454.6	91.0241	13454.6	91.0472	13454.6	89.7281	13454.6	89.2884	13454.6	88.0505	13454.6	86.4595	13454.6	84.8106	13454.6	82.9384	13454.6	81.2729	13454.6	78.817	13454.6	77.5474	13454.6	74.4836	13454.6	73.3809	13454.6	70.1069	13454.6	68.9677	13454.6	65.9786	13454.6	67.067	13454.6	63.0884	13454.6	63.4363	13454.6	61.6301	13454.6	61.4238	13454.6	63.5315	13454.6	59.8362	13454.6	59.5842	13454.6	52.1606	13454.6	53.9123	13454.6	49.8262	13454.6	60.0656	13454.6	52.1283	13454.6	58.8513	13454.6	62.5673	13454.6	48.8931
13929.2	93.0502	13929.2	92.8749	13929.2	92.7834	13929.2	92.0642	13929.2	91.2815	13929.2	90.7404	13929.2	90.0901	13929.2	88.8862	13929.2	88.367	13929.2	85.7339	13929.2	85.3222	13929.2	81.95	13929.2	82.0894	13929.2	77.5308	13929.2	77.9687	13929.2	72.7338	13929.2	74.0947	13929.2	68.7528	13929.2	70.1266	13929.2	64.1956	13929.2	66.8894	13929.2	62.5759	13929.2	63.3767	13929.2	60.092	13929.2	63.6888	13929.2	61.8739	13929.2	59.978	13929.2	57.5664	13929.2	53.0852	13929.2	54.7257	13929.2	52.8295	13929.2	56.99	13929.2	46.4613	13929.2	58.5038	13929.2	62.6447	13929.2	46.6979
14419.9	93.486	14419.9	93.1679	14419.9	93.3031	14419.9	91.9932	14419.9	91.7194	14419.9	90.4562	14419.9	90.3399	14419.9	88.3204	14419.9	88.4753	14419.9	84.7768	14419.9	85.8301	14419.9	80.5138	14419.9	82.6019	14419.9	75.7397	14419.9	78.4581	14419.9	70.1636	14419.9	74.5277	14419.9	66.1992	14419.9	71.0778	14419.9	61.7759	14419.9	67.2949	14419.9	60.604	14419.9	63.7916	14419.9	59.1364	14419.9	63.0535	14419.9	58.4676	14419.9	58.8262	14419.9	58.2869	14419.9	53.9833	14419.9	50.0555	14419.9	54.2848	14419.9	56.7307	14419.9	42.8129	14419.9	57.4012	14419.9	60.5088	14419.9	52.173
14928.2	94.1721	14928.2	93.5928	14928.2	94.0326	14928.2	92.1694	14928.2	92.4253	14928.2	90.1932	14928.2	90.7913	14928.2	87.4916	14928.2	88.7486	14928.2	83.6098	14928.2	86.1291	14928.2	78.8963	14928.2	82.5824	14928.2	73.8922	14928.2	78.6172	14928.2	67.9291	14928.2	73.9991	14928.2	63.1638	14928.2	70.0095	14928.2	59.2712	14928.2	66.5462	14928.2	57.7574	14928.2	63.2225	14928.2	55.2413	14928.2	63.1533	14928.2	55.7476	14928.2	59.8073	14928.2	53.0191	14928.2	54.7541	14928.2	45.4345	14928.2	54.7168	14928.2	53.646	14928.2	40.3059	14928.2	56.4661	14928.2	58.2629	14928.2	52.0999
15455.6	94.8111	15455.6	93.9519	15455.6	94.82	15455.6	92.2289	15455.6	93.1514	15455.6	89.7619	15455.6	91.2064	15455.6	86.3511	15455.6	88.7614	15455.6	82.2892	15455.6	85.6872	15455.6	76.9439	15455.6	81.7992	15455.6	71.6772	15455.6	77.0719	15455.6	64.0651	15455.6	72.0651	15455.6	57.135	15455.6	68.1358	15455.6	53.3732	15455.6	64.8034	15455.6	50.1972	15455.6	61.1936	15455.6	53.5234	15455.6	62.6433	15455.6	46.8577	15455.6	58.0188	15455.6	39.8263	15455.6	52.2802	15455.6	43.1586	15455.6	54.7311	15455.6	41.3847	15455.6	51.7097	15455.6	57.4728	15455.6	55.8522	15455.6	52.1818
16000.5	95.3314	16000.5	94.2565	16000.5	95.4171	16000.5	91.9644	16000.5	93.6941	16000.5	88.918	16000.5	91.2656	16000.5	84.7361	16000.5	88.103	16000.5	80.4174	16000.5	84.4328	16000.5	75.2999	16000.5	80.1422	16000.5	70.2295	16000.5	74.7006	16000.5	61.8329	16000.5	69.7026	16000.5	55.1893	16000.5	65.5503	16000.5	43.882	16000.5	61.1502	16000.5	40.9236	16000.5	58.9139	16000.5	51.2406	16000.5	58.6497	16000.5	45.0173	16000.5	54.9689	16000.5	33.1037	16000.5	46.7747	16000.5	41.8669	16000.5	50.0376	16000.5	45.9659	16000.5	51.7238	16000.5	57.0188	16000.5	56.3449	16000.5	55.0509
16564.5	95.5023	16564.5	94.2438	16564.5	95.6013	16564.5	91.5799	16564.5	93.7553	16564.5	87.675	16564.5	90.9634	16564.5	82.5188	16564.5	86.8434	16564.5	77.7869	16564.5	82.6712	16564.5	73.7129	16564.5	77.08	16564.5	68.7343	16564.5	71.6916	16564.5	62.8347	16564.5	66.3196	16564.5	56.312	16564.5	59.7395	16564.5	49.8498	16564.5	58.3492	16564.5	51.3508	16564.5	54.6176	16564.5	46.3873	16564.5	44.9234	16564.5	49.0259	16564.5	39.2626	16564.5	44.8329	16564.5	43.3249	16564.5	47.4588	16564.5	45.507	16564.5	45.3327	16564.5	46.6373	16564.5	53.5254	16564.5	57.4088	16564.5	58.7365
17148.9	95.1564	17148.9	93.7993	17148.9	95.2269	17148.9	90.8122	17148.9	93.2337	17148.9	85.9003	17148.9	90.1139	17148.9	78.9894	17148.9	85.1849	17148.9	74.2658	17148.9	79.8052	17148.9	72.2912	17148.9	74.2294	17148.9	69.0118	17148.9	67.3112	17148.9	64.3954	17148.9	62.0947	17148.9	60.4859	17148.9	54.9484	17148.9	55.9614	17148.9	52.1085	17148.9	56.0725	17148.9	45.7513	17148.9	48.6869	17148.9	34.4895	17148.9	50.2515	17148.9	49.4848	17148.9	42.877	17148.9	48.4717	17148.9	46.0332	17148.9	42.2235	17148.9	45.2818	17148.9	48.1718	17148.9	43.8248	17148.9	55.7633	17148.9	54.5316
17752.4	94.4789	17752.4	93.1476	17752.4	94.6001	17752.4	89.9592	17752.4	92.6271	17752.4	84.6055	17752.4	89.272	17752.4	75.6554	17752.4	83.4192	17752.4	70.5449	17752.4	76.3902	17752.4	70.8567	17752.4	70.1049	17752.4	68.6979	17752.4	63.9354	17752.4	64.352	17752.4	60.6496	17752.4	61.1966	17752.4	54.1835	17752.4	55.0296	17752.4	50.087	17752.4	55.2847	17752.4	46.6878	17752.4	50.0744	17752.4	48.6336	17752.4	39.8036	17752.4	47.5199	17752.4	42.7511	17752.4	45.1088	17752.4	43.5965	17752.4	40.1521	17752.4	38.1493	17752.4	50.7526	17752.4	33.6377	17752.4	49.6873	17752.4	46.0278
18379.4	93.8271	18379.4	92.4492	18379.4	93.9492	18379.4	89.1211	18379.4	91.9057	18379.4	83.4431	18379.4	88.4212	18379.4	73.4666	18379.4	82.0003	18379.4	66.8462	18379.4	72.8881	18379.4	69.2395	18379.4	65.5197	18379.4	67.299	18379.4	61.4242	18379.4	63.3328	18379.4	60.1278	18379.4	59.2749	18379.4	55.2854	18379.4	54.1751	18379.4	51.023	18379.4	53.3151	18379.4	50.4786	18379.4	47.3742	18379.4	51.5197	18379.4	40.8287	18379.4	46.4932	18379.4	45.375	18379.4	45.5106	18379.4	45.6354	18379.4	37.8123	18379.4	45.4044	18379.4	48.5662	18379.4	46.2723	18379.4	43.6138	18379.4	50.8056
19026.9	93.0008	19026.9	91.5375	19026.9	93.0214	19026.9	87.9549	19026.9	90.7044	19026.9	81.7566	19026.9	86.9072	19026.9	71.9352	19026.9	80.2849	19026.9	64.3661	19026.9	70.3141	19026.9	66.7645	19026.9	61.9787	19026.9	64.1887	19026.9	59.9817	19026.9	58.9118	19026.9	58.8031	19026.9	56.1236	19026.9	52.5594	19026.9	50.019	19026.9	48.444	19026.9	49.1591	19026.9	49.4977	19026.9	42.7837	19026.9	50.141	19026.9	43.9503	19026.9	46.8262	19026.9	45.5037	19026.9	44.1983	19026.9	45.0463	19026.9	30.7464	19026.9	44.0113	19026.9	44.3929	19026.9	37.3778	19026.9	42.662	19026.9	45.1187
19697.8	92.0066	19697.8	90.4258	19697.8	91.8932	19697.8	86.2092	19697.8	89.0856	19697.8	79.3835	19697.8	84.7726	19697.8	71.4124	19697.8	78.2945	19697.8	65.7713	19697.8	69.074	19697.8	61.9081	19697.8	61.0434	19697.8	57.2069	19697.8	55.5685	19697.8	47.6399	19697.8	53.8651	19697.8	48.2891	19697.8	49.5464	19697.8	38.8203	19697.8	43.9051	19697.8	43.0359	19697.8	45.8514	19697.8	41.3964	19697.8	46.0224	19697.8	42.1517	19697.8	42.6666	19697.8	44.5542	19697.8	37.9756	19697.8	45.7967	19697.8	33.7171	19697.8	42.8964	19697.8	37.3644	19697.8	41.5163	19697.8	46.3596	19697.8	42.8492
19999.5	91.6833	19999.5	90.0159	19999.5	91.4072	19999.5	85.2758	19999.5	88.2697	19999.5	77.8288	19999.5	83.663	19999.5	71.3	19999.5	77.3629	19999.5	67.0787	19999.5	68.8605	19999.5	57.0574	19999.5	61.7538	19999.5	50.1928	19999.5	55.7732	19999.5	30.8232	19999.5	50.885	19999.5	45.329	19999.5	44.1591	19999.5	40.8023	19999.5	40.1911	19999.5	35.8475	19999.5	41.528	19999.5	37.7812	19999.5	43.8652	19999.5	43.5859	19999.5	39.6275	19999.5	42.754	19999.5	30.5312	19999.5	41.6366	19999.5	37.6079	19999.5	42.0821	19999.5	38.4221	19999.5	42.3541	19999.5	38.3008	19999.5	43.5901
