"SPL Vertical"
"On-Axis"		"10°"		"-10°"		"20°"		"-20°"		"30°"		"-30°"		"40°"		"-40°"		"50°"		"-50°"		"60°"		"-60°"		"70°"		"-70°"		"80°"		"-80°"		"90°"		"-90°"		"100°"		"-100°"		"110°"		"-110°"		"120°"		"-120°"		"130°"		"-130°"		"140°"		"-140°"		"150°"		"-150°"		"160°"		"-160°"		"170°"		"-170°"		"180°"
"Frequency [Hz]"	"Sound Pessure Level [dB]    /[0.3V at 1m]"	"Frequency [Hz]"	"Sound Pessure Level [dB]    /[0.3V at 1m]"	"Frequency [Hz]"	"Sound Pessure Level [dB]    /[0.3V at 1m]"	"Frequency [Hz]"	"Sound Pessure Level [dB]    /[0.3V at 1m]"	"Frequency [Hz]"	"Sound Pessure Level [dB]    /[0.3V at 1m]"	"Frequency [Hz]"	"Sound Pessure Level [dB]    /[0.3V at 1m]"	"Frequency [Hz]"	"Sound Pessure Level [dB]    /[0.3V at 1m]"	"Frequency [Hz]"	"Sound Pessure Level [dB]    /[0.3V at 1m]"	"Frequency [Hz]"	"Sound Pessure Level [dB]    /[0.3V at 1m]"	"Frequency [Hz]"	"Sound Pessure Level [dB]    /[0.3V at 1m]"	"Frequency [Hz]"	"Sound Pessure Level [dB]    /[0.3V at 1m]"	"Frequency [Hz]"	"Sound Pessure Level [dB]    /[0.3V at 1m]"	"Frequency [Hz]"	"Sound Pessure Level [dB]    /[0.3V at 1m]"	"Frequency [Hz]"	"Sound Pessure Level [dB]    /[0.3V at 1m]"	"Frequency [Hz]"	"Sound Pessure Level [dB]    /[0.3V at 1m]"	"Frequency [Hz]"	"Sound Pessure Level [dB]    /[0.3V at 1m]"	"Frequency [Hz]"	"Sound Pessure Level [dB]    /[0.3V at 1m]"	"Frequency [Hz]"	"Sound Pessure Level [dB]    /[0.3V at 1m]"	"Frequency [Hz]"	"Sound Pessure Level [dB]    /[0.3V at 1m]"	"Frequency [Hz]"	"Sound Pessure Level [dB]    /[0.3V at 1m]"	"Frequency [Hz]"	"Sound Pessure Level [dB]    /[0.3V at 1m]"	"Frequency [Hz]"	"Sound Pessure Level [dB]    /[0.3V at 1m]"	"Frequency [Hz]"	"Sound Pessure Level [dB]    /[0.3V at 1m]"	"Frequency [Hz]"	"Sound Pessure Level [dB]    /[0.3V at 1m]"	"Frequency [Hz]"	"Sound Pessure Level [dB]    /[0.3V at 1m]"	"Frequency [Hz]"	"Sound Pessure Level [dB]    /[0.3V at 1m]"	"Frequency [Hz]"	"Sound Pessure Level [dB]    /[0.3V at 1m]"	"Frequency [Hz]"	"Sound Pessure Level [dB]    /[0.3V at 1m]"	"Frequency [Hz]"	"Sound Pessure Level [dB]    /[0.3V at 1m]"	"Frequency [Hz]"	"Sound Pessure Level [dB]    /[0.3V at 1m]"	"Frequency [Hz]"	"Sound Pessure Level [dB]    /[0.3V at 1m]"	"Frequency [Hz]"	"Sound Pessure Level [dB]    /[0.3V at 1m]"	"Frequency [Hz]"	"Sound Pessure Level [dB]    /[0.3V at 1m]"	"Frequency [Hz]"	"Sound Pessure Level [dB]    /[0.3V at 1m]"	"Frequency [Hz]"	"Sound Pessure Level [dB]    /[0.3V at 1m]"	"Frequency [Hz]"	"Sound Pessure Level [dB]    /[0.3V at 1m]"
30.7617	65.0474	30.7617	65.0001	30.7617	65.1111	30.7617	64.991	30.7617	65.1732	30.7617	65.043	30.7617	65.2216	30.7617	65.176	30.7617	65.2529	30.7617	65.4027	30.7617	65.2736	30.7617	65.7256	30.7617	65.3025	30.7617	66.1364	30.7617	65.3709	30.7617	66.6173	30.7617	65.5181	30.7617	67.1445	30.7617	65.7809	30.7617	67.6917	30.7617	66.1778	30.7617	68.2327	30.7617	66.6981	30.7617	68.7428	30.7617	67.3028	30.7617	69.1994	30.7617	67.9381	30.7617	69.5825	30.7617	68.5501	30.7617	69.8739	30.7617	69.0944	30.7617	70.0583	30.7617	69.5393	30.7617	70.1233	30.7617	69.8645	30.7617	70.0599
32.2266	67.117	32.2266	67.1341	32.2266	67.128	32.2266	67.1965	32.2266	67.1525	32.2266	67.3209	32.2266	67.1821	32.2266	67.5205	32.2266	67.2162	32.2266	67.8017	32.2266	67.2641	32.2266	68.1629	32.2266	67.3461	32.2266	68.5944	32.2266	67.4911	32.2266	69.0799	32.2266	67.7301	32.2266	69.5992	32.2266	68.0854	32.2266	70.1298	32.2266	68.5592	32.2266	70.6495	32.2266	69.1292	32.2266	71.1366	32.2266	69.7543	32.2266	71.571	32.2266	70.386	32.2266	71.9347	32.2266	70.979	32.2266	72.2115	32.2266	71.4972	32.2266	72.3877	32.2266	71.9151	32.2266	72.4521	32.2266	72.2174	32.2266	72.3967
33.6914	69.9918	33.6914	69.9912	33.6914	70.0042	33.6914	70.0154	33.6914	70.0188	33.6914	70.0796	33.6914	70.0315	33.6914	70.1991	33.6914	70.0446	33.6914	70.3865	33.6914	70.068	33.6914	70.6492	33.6914	70.1199	33.6914	70.987	33.6914	70.2253	33.6914	71.3916	33.6914	70.4109	33.6914	71.8469	33.6914	70.6972	33.6914	72.3318	33.6914	71.0901	33.6914	72.8223	33.6914	71.5755	33.6914	73.2936	33.6914	72.1217	33.6914	73.7221	33.6914	72.6875	33.6914	74.0862	33.6914	73.2305	33.6914	74.3667	33.6914	73.714	33.6914	74.548	33.6914	74.1095	33.6914	74.6178	33.6914	74.398	33.6914	74.5687
35.1562	72.4242	35.1562	72.3906	35.1562	72.4568	35.1562	72.3693	35.1562	72.4786	35.1562	72.3761	35.1562	72.485	35.1562	72.4276	35.1562	72.4778	35.1562	72.5387	35.1562	72.4657	35.1562	72.72	35.1562	72.466	35.1562	72.9748	35.1562	72.5032	35.1562	73.2987	35.1562	72.6057	35.1562	73.6787	35.1562	72.7987	35.1562	74.0959	35.1562	73.0951	35.1562	74.5275	35.1562	73.4885	35.1562	74.9494	35.1562	73.953	35.1562	75.3383	35.1562	74.4496	35.1562	75.6726	35.1562	74.9359	35.1562	75.9338	35.1562	75.3731	35.1562	76.1062	35.1562	75.7315	35.1562	76.1779	35.1562	75.9909	35.1562	76.1406
36.6211	74.356	36.6211	74.3313	36.6211	74.3716	36.6211	74.3078	36.6211	74.3738	36.6211	74.302	36.6211	74.3646	36.6211	74.3344	36.6211	74.3522	36.6211	74.4266	36.6211	74.3511	36.6211	74.5975	36.6211	74.3814	36.6211	74.8577	36.6211	74.4673	36.6211	75.2064	36.6211	74.6331	36.6211	75.6308	36.6211	74.8967	36.6211	76.1087	36.6211	75.2626	36.6211	76.6122	36.6211	75.7185	36.6211	77.1115	36.6211	76.2359	36.6211	77.5777	36.6211	76.777	36.6211	77.9841	36.6211	77.3018	36.6211	78.307	36.6211	77.7734	36.6211	78.5262	36.6211	78.1609	36.6211	78.6264	36.6211	78.4411	36.6211	78.5985
38.0859	75.5995	38.0859	75.5633	38.0859	75.6507	38.0859	75.5538	38.0859	75.7088	38.0859	75.5859	38.0859	75.7708	38.0859	75.6745	38.0859	75.839	38.0859	75.8326	38.0859	75.921	38.0859	76.0678	38.0859	76.0294	38.0859	76.3803	38.0859	76.1803	38.0859	76.7623	38.0859	76.3899	38.0859	77.1986	38.0859	76.6706	38.0859	77.6692	38.0859	77.0257	38.0859	78.1512	38.0859	77.4466	38.0859	78.6211	38.0859	77.913	38.0859	79.0555	38.0859	78.396	38.0859	79.4327	38.0859	78.8633	38.0859	79.7324	38.0859	79.2833	38.0859	79.9374	38.0859	79.6284	38.0859	80.0341	38.0859	79.8769	38.0859	80.0144
39.5508	77.292	39.5508	77.2417	39.5508	77.3631	39.5508	77.2251	39.5508	77.4456	39.5508	77.257	39.5508	77.5347	39.5508	77.352	39.5508	77.6301	39.5508	77.5215	39.5508	77.737	39.5508	77.7714	39.5508	77.8652	39.5508	78.0998	39.5508	78.0283	39.5508	78.4964	39.5508	78.2406	39.5508	78.9445	39.5508	78.5138	39.5508	79.4228	39.5508	78.8521	39.5508	79.9076	39.5508	79.2498	39.5508	80.3755	39.5508	79.6899	39.5508	80.8036	39.5508	80.1472	39.5508	81.171	39.5508	80.5921	39.5508	81.4589	39.5508	80.9947	39.5508	81.6516	39.5508	81.3285	39.5508	81.7377	39.5508	81.5722	39.5508	81.7111
41.0156	79.4703	41.0156	79.4407	41.0156	79.518	41.0156	79.438	41.0156	79.5766	41.0156	79.4712	41.0156	79.6411	41.0156	79.5484	41.0156	79.7099	41.0156	79.6756	41.0156	79.7856	41.0156	79.8558	41.0156	79.8747	41.0156	80.0882	41.0156	79.9873	41.0156	80.368	41.0156	80.1355	41.0156	80.6865	41.0156	80.3303	41.0156	81.0317	41.0156	80.5783	41.0156	81.3888	41.0156	80.8777	41.0156	81.741	41.0156	81.2173	41.0156	82.0707	41.0156	81.5773	41.0156	82.3603	41.0156	81.932	41.0156	82.593	41.0156	82.2549	41.0156	82.7539	41.0156	82.5218	41.0156	82.8315	41.0156	82.7137	41.0156	82.8186
42.4805	80.8931	42.4805	80.8655	42.4805	80.9386	42.4805	80.8632	42.4805	80.9968	42.4805	80.8946	42.4805	81.0646	42.4805	80.9685	42.4805	81.142	42.4805	81.0922	42.4805	81.2323	42.4805	81.271	42.4805	81.3415	42.4805	81.5059	42.4805	81.4785	42.4805	81.7934	42.4805	81.6529	42.4805	82.1249	42.4805	81.873	42.4805	82.4876	42.4805	82.1423	42.4805	82.8649	42.4805	82.4574	42.4805	83.2385	42.4805	82.8065	42.4805	83.5889	42.4805	83.1705	42.4805	83.897	42.4805	83.5255	42.4805	84.1454	42.4805	83.8466	42.4805	84.3187	42.4805	84.1106	42.4805	84.4056	42.4805	84.299	42.4805	84.3992
43.9453	82.393	43.9453	82.3723	43.9453	82.4314	43.9453	82.3757	43.9453	82.4827	43.9453	82.4104	43.9453	82.5447	43.9453	82.484	43.9453	82.6174	43.9453	82.6029	43.9453	82.704	43.9453	82.7712	43.9453	82.8106	43.9453	82.9901	43.9453	82.9452	43.9453	83.2566	43.9453	83.1165	43.9453	83.5633	43.9453	83.3315	43.9453	83.8992	43.9453	83.5927	43.9453	84.25	43.9453	83.8962	43.9453	84.599	43.9453	84.2301	43.9453	84.9285	43.9453	84.576	43.9453	85.2207	43.9453	84.9112	43.9453	85.4586	43.9453	85.2122	43.9453	85.6276	43.9453	85.4572	43.9453	85.7162	43.9453	85.6293	43.9453	85.7172
45.4102	84.136	45.4102	84.1093	45.4102	84.1794	45.4102	84.1051	45.4102	84.2352	45.4102	84.1299	45.4102	84.3009	45.4102	84.1903	45.4102	84.3761	45.4102	84.2918	45.4102	84.4628	45.4102	84.4386	45.4102	84.5655	45.4102	84.6319	45.4102	84.6903	45.4102	84.8693	45.4102	84.8443	45.4102	85.145	45.4102	85.0335	45.4102	85.4491	45.4102	85.2604	45.4102	85.7688	45.4102	85.5227	45.4102	86.0888	45.4102	85.8116	45.4102	86.3924	45.4102	86.1123	45.4102	86.6625	45.4102	86.4059	45.4102	86.8829	45.4102	86.6718	45.4102	87.0397	45.4102	86.8901	45.4102	87.1219	45.4102	87.0446	45.4102	87.1237
46.875	85.5232	46.875	85.5068	46.875	85.5592	46.875	85.5142	46.875	85.6115	46.875	85.5501	46.875	85.6781	46.875	85.6193	46.875	85.7586	46.875	85.7257	46.875	85.8543	46.875	85.8721	46.875	85.9682	46.875	86.0589	46.875	86.1045	46.875	86.2841	46.875	86.2676	46.875	86.5424	46.875	86.461	46.875	86.8256	46.875	86.6855	46.875	87.1226	46.875	86.9381	46.875	87.4199	46.875	87.2105	46.875	87.7028	46.875	87.4897	46.875	87.9557	46.875	87.7593	46.875	88.1636	46.875	88.0012	46.875	88.3133	46.875	88.198	46.875	88.3949	46.875	88.3351	46.875	88.4023
48.3398	86.7868	48.3398	86.7588	48.3398	86.8315	48.3398	86.752	48.3398	86.8894	48.3398	86.7711	48.3398	86.9584	48.3398	86.8214	48.3398	87.0379	48.3398	86.9071	48.3398	87.129	48.3398	87.0313	48.3398	87.2343	48.3398	87.1951	48.3398	87.3577	48.3398	87.397	48.3398	87.5035	48.3398	87.6325	48.3398	87.6754	48.3398	87.8941	48.3398	87.875	48.3398	88.1714	48.3398	88.1003	48.3398	88.4518	48.3398	88.3445	48.3398	88.721	48.3398	88.5962	48.3398	88.9639	48.3398	88.8402	48.3398	89.166	48.3398	89.0594	48.3398	89.3144	48.3398	89.2369	48.3398	89.3991	48.3398	89.3584	48.3398	89.414
51.2695	88.623	51.2695	88.6057	51.2695	88.6625	51.2695	88.6133	51.2695	88.7224	51.2695	88.6485	51.2695	88.8009	51.2695	88.7137	51.2695	88.8975	51.2695	88.8113	51.2695	89.012	51.2695	88.9422	51.2695	89.145	51.2695	89.1065	51.2695	89.2974	51.2695	89.3022	51.2695	89.47	51.2695	89.5256	51.2695	89.6628	51.2695	89.7707	51.2695	89.8742	51.2695	90.0293	51.2695	90.1	51.2695	90.2911	51.2695	90.3335	51.2695	90.5442	51.2695	90.5645	51.2695	90.7754	51.2695	90.781	51.2695	90.9718	51.2695	90.9693	51.2695	91.1211	51.2695	91.1162	51.2695	91.2139	51.2695	91.2105	51.2695	91.2442
52.7344	89.3808	52.7344	89.3636	52.7344	89.422	52.7344	89.3724	52.7344	89.4855	52.7344	89.4088	52.7344	89.5695	52.7344	89.4746	52.7344	89.6728	52.7344	89.5706	52.7344	89.7942	52.7344	89.6974	52.7344	89.9331	52.7344	89.854	52.7344	90.0887	52.7344	90.0387	52.7344	90.2605	52.7344	90.2478	52.7344	90.4472	52.7344	90.476	52.7344	90.6466	52.7344	90.7162	52.7344	90.855	52.7344	90.9592	52.7344	91.0665	52.7344	91.1944	52.7344	91.2732	52.7344	91.4101	52.7344	91.4649	52.7344	91.5944	52.7344	91.6301	52.7344	91.7364	52.7344	91.7574	52.7344	91.8271	52.7344	91.8367	52.7344	91.861
54.1992	90.0196	54.1992	90.0044	54.1992	90.058	54.1992	90.0135	54.1992	90.1183	54.1992	90.0481	54.1992	90.1988	54.1992	90.1088	54.1992	90.2981	54.1992	90.196	54.1992	90.4147	54.1992	90.3095	54.1992	90.5471	54.1992	90.4485	54.1992	90.6939	54.1992	90.6112	54.1992	90.8536	54.1992	90.7949	54.1992	91.0244	54.1992	90.9952	54.1992	91.2039	54.1992	91.2065	54.1992	91.3886	54.1992	91.4211	54.1992	91.5738	54.1992	91.6301	54.1992	91.7529	54.1992	91.8234	54.1992	91.9175	54.1992	91.9904	54.1992	92.058	54.1992	92.121	54.1992	92.1645	54.1992	92.2071	54.1992	92.2284	54.1992	92.2434
55.6641	90.5628	55.6641	90.5471	55.6641	90.5983	55.6641	90.5516	55.6641	90.6526	55.6641	90.5767	55.6641	90.7247	55.6641	90.6228	55.6641	90.813	55.6641	90.6898	55.6641	90.916	55.6641	90.7778	55.6641	91.0318	55.6641	90.8863	55.6641	91.1586	55.6641	91.0144	55.6641	91.2945	55.6641	91.1605	55.6641	91.4374	55.6641	91.3218	55.6641	91.5853	55.6641	91.4942	55.6641	91.7355	55.6641	91.6719	55.6641	91.8843	55.6641	91.8477	55.6641	92.0267	55.6641	92.0129	55.6641	92.1564	55.6641	92.1583	55.6641	92.2656	55.6641	92.275	55.6641	92.3462	55.6641	92.3554	55.6641	92.3909	55.6641	92.3946
58.5938	91.228	58.5938	91.2054	58.5938	91.2687	58.5938	91.2014	58.5938	91.3268	58.5938	91.216	58.5938	91.4012	58.5938	91.2492	58.5938	91.4902	58.5938	91.3011	58.5938	91.5918	58.5938	91.3715	58.5938	91.7038	58.5938	91.4603	58.5938	91.8235	58.5938	91.5669	58.5938	91.9486	58.5938	91.6904	58.5938	92.0766	58.5938	91.8287	58.5938	92.2051	58.5938	91.9787	58.5938	92.3316	58.5938	92.1358	58.5938	92.4534	58.5938	92.2936	58.5938	92.5667	58.5938	92.4445	58.5938	92.667	58.5938	92.5803	58.5938	92.7485	58.5938	92.6925	58.5938	92.8049	58.5938	92.7742	58.5938	92.8304	58.5938	92.8207
60.0586	91.3608	60.0586	91.3377	60.0586	91.4022	60.0586	91.3329	60.0586	91.4615	60.0586	91.3464	60.0586	91.5375	60.0586	91.3777	60.0586	91.6286	60.0586	91.4265	60.0586	91.7326	60.0586	91.4923	60.0586	91.8466	60.0586	91.5749	60.0586	91.9678	60.0586	91.6736	60.0586	92.0931	60.0586	91.7876	60.0586	92.2192	60.0586	91.9153	60.0586	92.3434	60.0586	92.0541	60.0586	92.4629	60.0586	92.2	60.0586	92.5748	60.0586	92.3477	60.0586	92.6759	60.0586	92.4905	60.0586	92.7624	60.0586	92.6208	60.0586	92.8294	60.0586	92.731	60.0586	92.8721	60.0586	92.8146	60.0586	92.8856	60.0586	92.8667
62.9883	91.6022	62.9883	91.573	62.9883	91.6486	62.9883	91.5607	62.9883	91.7118	62.9883	91.5647	62.9883	91.7907	62.9883	91.5844	62.9883	91.8836	62.9883	91.6189	62.9883	91.9878	62.9883	91.6678	62.9883	92.1	62.9883	91.7305	62.9883	92.2165	62.9883	91.8068	62.9883	92.3333	62.9883	91.8963	62.9883	92.4467	62.9883	91.9981	62.9883	92.5531	62.9883	92.1108	62.9883	92.6498	62.9883	92.2319	62.9883	92.7341	62.9883	92.3576	62.9883	92.804	62.9883	92.4827	62.9883	92.8574	62.9883	92.6012	62.9883	92.8918	62.9883	92.7066	62.9883	92.9046	62.9883	92.793	62.9883	92.8932	62.9883	92.856
64.4531	91.6177	64.4531	91.5853	64.4531	91.6653	64.4531	91.5681	64.4531	91.728	64.4531	91.5656	64.4531	91.8049	64.4531	91.5773	64.4531	91.8942	64.4531	91.6026	64.4531	91.9934	64.4531	91.6412	64.4531	92.0994	64.4531	91.6928	64.4531	92.2083	64.4531	91.7574	64.4531	92.3162	64.4531	91.8348	64.4531	92.4193	64.4531	91.9242	64.4531	92.5141	64.4531	92.0246	64.4531	92.5976	64.4531	92.1337	64.4531	92.6679	64.4531	92.2483	64.4531	92.7233	64.4531	92.3639	64.4531	92.7623	64.4531	92.4748	64.4531	92.7836	64.4531	92.5752	64.4531	92.7854	64.4531	92.6596	64.4531	92.7659	64.4531	92.7239
67.3828	91.6559	67.3828	91.6367	67.3828	91.6917	67.3828	91.6332	67.3828	91.7442	67.3828	91.6439	67.3828	91.8127	67.3828	91.667	67.3828	91.8952	67.3828	91.7007	67.3828	91.989	67.3828	91.7432	67.3828	92.0899	67.3828	91.7932	67.3828	92.1936	67.3828	91.8494	67.3828	92.2951	67.3828	91.9112	67.3828	92.3897	67.3828	91.978	67.3828	92.4733	67.3828	92.0495	67.3828	92.5427	67.3828	92.1251	67.3828	92.5959	67.3828	92.2039	67.3828	92.6319	67.3828	92.284	67.3828	92.6506	67.3828	92.3631	67.3828	92.6524	67.3828	92.438	67.3828	92.6378	67.3828	92.5057	67.3828	92.6076	67.3828	92.563
68.8477	91.6485	68.8477	91.6273	68.8477	91.6872	68.8477	91.6225	68.8477	91.7435	68.8477	91.6321	68.8477	91.8166	68.8477	91.654	68.8477	91.9043	68.8477	91.686	68.8477	92.0034	68.8477	91.7259	68.8477	92.1097	68.8477	91.7719	68.8477	92.218	68.8477	91.823	68.8477	92.323	68.8477	91.8785	68.8477	92.4194	68.8477	91.9382	68.8477	92.5028	68.8477	92.0023	68.8477	92.5694	68.8477	92.0709	68.8477	92.6171	68.8477	92.1439	68.8477	92.645	68.8477	92.2203	68.8477	92.6532	68.8477	92.2986	68.8477	92.6427	68.8477	92.376	68.8477	92.615	68.8477	92.4495	68.8477	92.572	68.8477	92.5159
71.7773	91.5997	71.7773	91.5736	71.7773	91.6432	71.7773	91.5635	71.7773	91.7044	71.7773	91.5673	71.7773	91.7824	71.7773	91.5826	71.7773	91.8751	71.7773	91.6069	71.7773	91.9788	71.7773	91.6379	71.7773	92.089	71.7773	91.6738	71.7773	92.2001	71.7773	91.7134	71.7773	92.306	71.7773	91.7565	71.7773	92.4011	71.7773	91.8033	71.7773	92.48	71.7773	91.8547	71.7773	92.5388	71.7773	91.9119	71.7773	92.5749	71.7773	91.9756	71.7773	92.5877	71.7773	92.0462	71.7773	92.5779	71.7773	92.1228	71.7773	92.5475	71.7773	92.2034	71.7773	92.4995	71.7773	92.2852	71.7773	92.4372	71.7773	92.3645
74.707	91.5864	74.707	91.5601	74.707	91.6293	74.707	91.5487	74.707	91.6893	74.707	91.5499	74.707	91.7655	74.707	91.561	74.707	91.8558	74.707	91.5791	74.707	91.9565	74.707	91.6018	74.707	92.0628	74.707	91.627	74.707	92.1689	74.707	91.6535	74.707	92.2685	74.707	91.6812	74.707	92.3553	74.707	91.7107	74.707	92.4237	74.707	91.7436	74.707	92.4696	74.707	91.7817	74.707	92.4904	74.707	91.8272	74.707	92.4857	74.707	91.8817	74.707	92.457	74.707	91.9459	74.707	92.4075	74.707	92.019	74.707	92.3419	74.707	92.099	74.707	92.2651	74.707	92.1825
77.6367	91.5356	77.6367	91.5052	77.6367	91.5816	77.6367	91.4889	77.6367	91.6435	77.6367	91.4841	77.6367	91.7207	77.6367	91.4882	77.6367	91.8109	77.6367	91.4982	77.6367	91.9105	77.6367	91.5116	77.6367	92.0145	77.6367	91.5263	77.6367	92.1171	77.6367	91.5411	77.6367	92.2117	77.6367	91.556	77.6367	92.2919	77.6367	91.5718	77.6367	92.3518	77.6367	91.5905	77.6367	92.387	77.6367	91.6148	77.6367	92.3948	77.6367	91.6477	77.6367	92.3749	77.6367	91.6919	77.6367	92.3294	77.6367	91.7492	77.6367	92.2624	77.6367	91.8199	77.6367	92.1797	77.6367	91.9023	77.6367	92.0878	77.6367	91.9933
79.1016	91.4944	79.1016	91.462	79.1016	91.5425	79.1016	91.4438	79.1016	91.6069	79.1016	91.4375	79.1016	91.6865	79.1016	91.4402	79.1016	91.779	79.1016	91.4491	79.1016	91.8807	79.1016	91.4613	79.1016	91.9866	79.1016	91.4748	79.1016	92.0907	79.1016	91.4882	79.1016	92.1863	79.1016	91.5014	79.1016	92.2669	79.1016	91.5153	79.1016	92.3263	79.1016	91.5319	79.1016	92.36	79.1016	91.5541	79.1016	92.3652	79.1016	91.5852	79.1016	92.3417	79.1016	91.6282	79.1016	92.2917	79.1016	91.6851	79.1016	92.2196	79.1016	91.7566	79.1016	92.1315	79.1016	91.8412	79.1016	92.0344	79.1016	91.9356
82.0312	91.418	82.0312	91.3827	82.0312	91.4683	82.0312	91.3612	82.0312	91.5341	82.0312	91.3512	82.0312	91.6145	82.0312	91.3501	82.0312	91.7075	82.0312	91.3552	82.0312	91.8095	82.0312	91.364	82.0312	91.9156	82.0312	91.3745	82.0312	92.02	82.0312	91.3856	82.0312	92.1159	82.0312	91.397	82.0312	92.1966	82.0312	91.4097	82.0312	92.2559	82.0312	91.426	82.0312	92.2889	82.0312	91.4486	82.0312	92.2926	82.0312	91.4809	82.0312	92.2668	82.0312	91.5257	82.0312	92.2138	82.0312	91.5851	82.0312	92.1383	82.0312	91.6594	82.0312	92.0467	82.0312	91.7469	82.0312	91.9463	82.0312	91.8443
84.9609	91.4365	84.9609	91.4031	84.9609	91.4831	84.9609	91.3814	84.9609	91.5434	84.9609	91.3697	84.9609	91.617	84.9609	91.3654	84.9609	91.7023	84.9609	91.3663	84.9609	91.7963	84.9609	91.3703	84.9609	91.8947	84.9609	91.3755	84.9609	91.9921	84.9609	91.381	84.9609	92.082	84.9609	91.3868	84.9609	92.1577	84.9609	91.3939	84.9609	92.2129	84.9609	91.4045	84.9609	92.2425	84.9609	91.4216	84.9609	92.2433	84.9609	91.4486	84.9609	92.2149	84.9609	91.4884	84.9609	92.1598	84.9609	91.5432	84.9609	92.0829	84.9609	91.6133	84.9609	91.9911	84.9609	91.6972	84.9609	91.8916	84.9609	91.7916
87.8906	91.3002	87.8906	91.2709	87.8906	91.3436	87.8906	91.2538	87.8906	91.4019	87.8906	91.2468	87.8906	91.4749	87.8906	91.2471	87.8906	91.5609	87.8906	91.2522	87.8906	91.6572	87.8906	91.2597	87.8906	91.7593	87.8906	91.2678	87.8906	91.8614	87.8906	91.2757	87.8906	91.9569	87.8906	91.2834	87.8906	92.0386	87.8906	91.2924	87.8906	92.0995	87.8906	91.305	87.8906	92.1343	87.8906	91.3244	87.8906	92.1394	87.8906	91.354	87.8906	92.1144	87.8906	91.3964	87.8906	92.062	87.8906	91.4534	87.8906	91.9874	87.8906	91.5249	87.8906	91.8978	87.8906	91.6089	87.8906	91.8005	87.8906	91.7023
90.8203	91.3641	90.8203	91.3332	90.8203	91.4098	90.8203	91.3159	90.8203	91.4708	90.8203	91.3096	90.8203	91.546	90.8203	91.3111	90.8203	91.6333	90.8203	91.317	90.8203	91.729	90.8203	91.3237	90.8203	91.8285	90.8203	91.3282	90.8203	91.9257	90.8203	91.3283	90.8203	92.0137	90.8203	91.3232	90.8203	92.0853	90.8203	91.3138	90.8203	92.1333	90.8203	91.3024	90.8203	92.1521	90.8203	91.293	90.8203	92.1379	90.8203	91.2911	90.8203	92.0903	90.8203	91.3024	90.8203	92.0121	90.8203	91.3324	90.8203	91.91	90.8203	91.3849	90.8203	91.7933	90.8203	91.4612	90.8203	91.6727	90.8203	91.5591
95.2148	91.4205	95.2148	91.384	95.2148	91.47	95.2148	91.3593	95.2148	91.5326	95.2148	91.344	95.2148	91.6076	95.2148	91.3354	95.2148	91.6926	95.2148	91.3299	95.2148	91.7846	95.2148	91.3243	95.2148	91.8789	95.2148	91.3157	95.2148	91.97	95.2148	91.3021	95.2148	92.0511	95.2148	91.2828	95.2148	92.115	95.2148	91.2587	95.2148	92.1546	95.2148	91.2328	95.2148	92.1638	95.2148	91.2098	95.2148	92.1385	95.2148	91.1959	95.2148	92.0779	95.2148	91.1982	95.2148	91.9849	95.2148	91.2232	95.2148	91.8663	95.2148	91.2759	95.2148	91.7322	95.2148	91.3579	95.2148	91.5948	95.2148	91.4666
98.1445	91.3909	98.1445	91.3464	98.1445	91.4472	98.1445	91.3131	98.1445	91.5149	98.1445	91.2895	98.1445	91.5926	98.1445	91.273	98.1445	91.6779	98.1445	91.2605	98.1445	91.7677	98.1445	91.2488	98.1445	91.8578	98.1445	91.2351	98.1445	91.943	98.1445	91.2172	98.1445	92.0173	98.1445	91.1943	98.1445	92.0739	98.1445	91.1673	98.1445	92.1062	98.1445	91.139	98.1445	92.1082	98.1445	91.1139	98.1445	92.0761	98.1445	91.0984	98.1445	92.009	98.1445	91.0996	98.1445	91.9098	98.1445	91.1243	98.1445	91.7855	98.1445	91.1776	98.1445	91.6462	98.1445	91.2611	98.1445	91.5043	98.1445	91.3724
101.074	91.4435	101.074	91.3895	101.074	91.5065	101.074	91.3444	101.074	91.5777	101.074	91.3072	101.074	91.6554	101.074	91.2761	101.074	91.7376	101.074	91.2485	101.074	91.8213	101.074	91.2217	101.074	91.9028	101.074	91.1931	101.074	91.9776	101.074	91.1609	101.074	92.0401	101.074	91.1247	101.074	92.084	101.074	91.0854	101.074	92.1028	101.074	91.0463	101.074	92.0909	101.074	91.0121	101.074	92.0446	101.074	90.9896	101.074	91.9631	101.074	90.9862	101.074	91.8498	101.074	91.0088	101.074	91.712	101.074	91.0628	101.074	91.5604	101.074	91.1499	101.074	91.4078	101.074	91.2673
105.469	91.547	105.469	91.5054	105.469	91.5937	105.469	91.4678	105.469	91.6458	105.469	91.4325	105.469	91.7033	105.469	91.3973	105.469	91.7653	105.469	91.36	105.469	91.8298	105.469	91.3181	105.469	91.8937	105.469	91.2696	105.469	91.9527	105.469	91.2137	105.469	92.0008	105.469	91.1506	105.469	92.0314	105.469	91.0827	105.469	92.0374	105.469	91.0141	105.469	92.0129	105.469	90.9513	105.469	91.9537	105.469	90.9023	105.469	91.8593	105.469	90.8759	105.469	91.7332	105.469	90.8804	105.469	91.5836	105.469	90.9218	105.469	91.4218	105.469	91.002	105.469	91.262	105.469	91.1181
108.398	91.4564	108.398	91.4154	108.398	91.5058	108.398	91.3816	108.398	91.5638	108.398	91.353	108.398	91.6296	108.398	91.327	108.398	91.7017	108.398	91.3003	108.398	91.7772	108.398	91.2698	108.398	91.8523	108.398	91.2327	108.398	91.9218	108.398	91.1874	108.398	91.9795	108.398	91.1337	108.398	92.0183	108.398	91.0732	108.398	92.0311	108.398	91.0102	108.398	92.0116	108.398	90.9509	108.398	91.9558	108.398	90.9036	108.398	91.8633	108.398	90.8776	108.398	91.7378	108.398	90.8817	108.398	91.5875	108.398	90.9224	108.398	91.4246	108.398	91.0022	108.398	91.2634	108.398	91.1185
112.793	91.3439	112.793	91.2817	112.793	91.4161	112.793	91.2301	112.793	91.4972	112.793	91.1883	112.793	91.5852	112.793	91.1545	112.793	91.6776	112.793	91.1257	112.793	91.7715	112.793	91.0987	112.793	91.8632	112.793	91.0698	112.793	91.948	112.793	91.0364	112.793	92.0199	112.793	90.997	112.793	92.0719	112.793	90.9523	112.793	92.0962	112.793	90.9051	112.793	92.0857	112.793	90.8612	112.793	92.0354	112.793	90.8286	112.793	91.9434	112.793	90.8168	112.793	91.8128	112.793	90.8354	112.793	91.6516	112.793	90.892	112.793	91.4726	112.793	90.9898	112.793	91.2919	112.793	91.1262
117.188	91.459	117.188	91.3876	117.188	91.531	117.188	91.3167	117.188	91.6035	117.188	91.2466	117.188	91.6766	117.188	91.1771	117.188	91.7503	117.188	91.108	117.188	91.8245	117.188	91.039	117.188	91.8981	117.188	90.9702	117.188	91.9686	117.188	90.9022	117.188	92.0316	117.188	90.8366	117.188	92.0806	117.188	90.7764	117.188	92.1079	117.188	90.7259	117.188	92.1052	117.188	90.6908	117.188	92.0655	117.188	90.6782	117.188	91.9848	117.188	90.6954	117.188	91.8631	117.188	90.7489	117.188	91.7058	117.188	90.8425	117.188	91.5231	117.188	90.9757	117.188	91.3297	117.188	91.142
120.117	91.6503	120.117	91.6036	120.117	91.6975	120.117	91.5563	120.117	91.7462	120.117	91.5072	120.117	91.7972	120.117	91.4548	120.117	91.8508	120.117	91.3978	120.117	91.9071	120.117	91.335	120.117	91.9647	120.117	91.2662	120.117	92.0209	120.117	91.1922	120.117	92.0713	120.117	91.1152	120.117	92.1097	120.117	91.0396	120.117	92.1287	120.117	90.9715	120.117	92.121	120.117	90.9182	120.117	92.0807	120.117	90.888	120.117	92.0047	120.117	90.8888	120.117	91.8937	120.117	90.9262	120.117	91.7531	120.117	91.0027	120.117	91.5921	120.117	91.1163	120.117	91.4231	120.117	91.26
124.512	91.6423	124.512	91.5972	124.512	91.692	124.512	91.5566	124.512	91.746	124.512	91.5194	124.512	91.803	124.512	91.4835	124.512	91.8618	124.512	91.446	124.512	91.9204	124.512	91.4036	124.512	91.9767	124.512	91.3535	124.512	92.0274	124.512	91.2939	124.512	92.0677	124.512	91.225	124.512	92.0919	124.512	91.1491	124.512	92.0933	124.512	91.0716	124.512	92.0655	124.512	91	124.512	92.004	124.512	90.944	124.512	91.9078	124.512	90.9133	124.512	91.7801	124.512	90.9164	124.512	91.629	124.512	90.9587	124.512	91.466	124.512	91.041	124.512	91.3049	124.512	91.1592
128.906	91.7226	128.906	91.6546	128.906	91.7924	128.906	91.5898	128.906	91.8622	128.906	91.5285	128.906	91.9298	128.906	91.4698	128.906	91.9936	128.906	91.4118	128.906	92.0521	128.906	91.3517	128.906	92.1035	128.906	91.2867	128.906	92.1458	128.906	91.2148	128.906	92.175	128.906	91.1354	128.906	92.186	128.906	91.0506	128.906	92.1721	128.906	90.9648	128.906	92.1267	128.906	90.8855	128.906	92.0448	128.906	90.822	128.906	91.9248	128.906	90.7848	128.906	91.7704	128.906	90.7838	128.906	91.5905	128.906	90.8261	128.906	91.3989	128.906	90.9145	128.906	91.212	128.906	91.046
133.301	91.8291	133.301	91.7651	133.301	91.8899	133.301	91.6985	133.301	91.9468	133.301	91.6295	133.301	91.999	133.301	91.5575	133.301	92.0461	133.301	91.4814	133.301	92.0875	133.301	91.3991	133.301	92.1221	133.301	91.309	133.301	92.1477	133.301	91.2095	133.301	92.1602	133.301	91.1009	133.301	92.1536	133.301	90.9851	133.301	92.1207	133.301	90.867	133.301	92.0541	133.301	90.7544	133.301	91.9484	133.301	90.6579	133.301	91.8019	133.301	90.5899	133.301	91.619	133.301	90.5628	133.301	91.41	133.301	90.5869	133.301	91.1911	133.301	90.6672	133.301	90.9819	133.301	90.802
139.16	91.5697	139.16	91.5047	139.16	91.6382	139.16	91.4446	139.16	91.7085	139.16	91.3896	139.16	91.7787	139.16	91.3385	139.16	91.8471	139.16	91.289	139.16	91.9123	139.16	91.2375	139.16	91.9727	139.16	91.1804	139.16	92.0254	139.16	91.1144	139.16	92.0658	139.16	91.0378	139.16	92.0874	139.16	90.9508	139.16	92.0817	139.16	90.8568	139.16	92.0402	139.16	90.7625	139.16	91.9562	139.16	90.6781	139.16	91.8269	139.16	90.6167	139.16	91.6554	139.16	90.5924	139.16	91.4521	139.16	90.6175	139.16	91.2336	139.16	90.6995	139.16	91.0215	139.16	90.8375
143.555	91.5333	143.555	91.454	143.555	91.6034	143.555	91.3667	143.555	91.664	143.555	91.2729	143.555	91.7161	143.555	91.1746	143.555	91.7617	143.555	91.0735	143.555	91.8034	143.555	90.9711	143.555	91.8433	143.555	90.8694	143.555	91.8818	143.555	90.7702	143.555	91.917	143.555	90.6763	143.555	91.9439	143.555	90.591	143.555	91.9549	143.555	90.519	143.555	91.941	143.555	90.4658	143.555	91.8934	143.555	90.4383	143.555	91.8059	143.555	90.4443	143.555	91.6763	143.555	90.4912	143.555	91.5084	143.555	90.584	143.555	91.3121	143.555	90.7228	143.555	91.1031	143.555	90.9005
147.949	91.6425	147.949	91.6083	147.949	91.6719	147.949	91.5682	147.949	91.6974	147.949	91.5207	147.949	91.7194	147.949	91.4635	147.949	91.7385	147.949	91.3948	147.949	91.7555	147.949	91.3129	147.949	91.7708	147.949	91.2179	147.949	91.784	147.949	91.1118	147.949	91.7935	147.949	90.9993	147.949	91.7955	147.949	90.8881	147.949	91.785	147.949	90.7878	147.949	91.7561	147.949	90.7089	147.949	91.7044	147.949	90.6609	147.949	91.6275	147.949	90.6506	147.949	91.526	147.949	90.681	147.949	91.4037	147.949	90.7506	147.949	91.2665	147.949	90.8536	147.949	91.1224	147.949	90.9811
153.809	91.454	153.809	91.3866	153.809	91.5208	153.809	91.3208	153.809	91.5838	153.809	91.2572	153.809	91.64	153.809	91.1937	153.809	91.6871	153.809	91.1265	153.809	91.7234	153.809	91.05	153.809	91.7479	153.809	90.9588	153.809	91.7587	153.809	90.8491	153.809	91.7523	153.809	90.7196	153.809	91.7231	153.809	90.5737	153.809	91.6636	153.809	90.4189	153.809	91.5666	153.809	90.2677	153.809	91.4271	153.809	90.1349	153.809	91.2459	153.809	90.0363	153.809	91.0306	153.809	89.9851	153.809	90.7964	153.809	89.9901	153.809	90.5629	153.809	90.0548	153.809	90.3508	153.809	90.1773
159.668	91.1788	159.668	91.1227	159.668	91.2348	159.668	91.0683	159.668	91.2885	159.668	91.017	159.668	91.3382	159.668	90.9681	159.668	91.3835	159.668	90.9192	159.668	91.4248	159.668	90.8661	159.668	91.4625	159.668	90.8036	159.668	91.4961	159.668	90.7267	159.668	91.5228	159.668	90.6317	159.668	91.5358	159.668	90.5185	159.668	91.5251	159.668	90.3907	159.668	91.4789	159.668	90.2572	159.668	91.3865	159.668	90.1315	159.668	91.2426	159.668	90.0301	159.668	91.0503	159.668	89.9708	159.668	90.8227	159.668	89.9685	159.668	90.5815	159.668	90.0326	159.668	90.3534	159.668	90.1641
165.527	91.3786	165.527	91.253	165.527	91.484	165.527	91.113	165.527	91.5649	165.527	90.9647	165.527	91.6185	165.527	90.8139	165.527	91.6444	165.527	90.6658	165.527	91.6446	165.527	90.5239	165.527	91.623	165.527	90.3906	165.527	91.5854	165.527	90.2662	165.527	91.5378	165.527	90.1497	165.527	91.4854	165.527	90.0397	165.527	91.4303	165.527	89.9368	165.527	91.3695	165.527	89.8448	165.527	91.2942	165.527	89.7726	165.527	91.1915	165.527	89.7339	165.527	91.0492	165.527	89.7446	165.527	90.862	165.527	89.8177	165.527	90.6364	165.527	89.9575	165.527	90.3918	165.527	90.1559
171.387	91.3992	171.387	91.3476	171.387	91.4535	171.387	91.2976	171.387	91.5101	171.387	91.246	171.387	91.5674	171.387	91.1875	171.387	91.623	171.387	91.1151	171.387	91.6731	171.387	91.0225	171.387	91.7123	171.387	90.905	171.387	91.7323	171.387	90.762	171.387	91.7226	171.387	90.5981	171.387	91.6717	171.387	90.4233	171.387	91.571	171.387	90.252	171.387	91.4182	171.387	90.1	171.387	91.2206	171.387	89.9815	171.387	90.9948	171.387	89.906	171.387	90.7623	171.387	89.8776	171.387	90.5427	171.387	89.8955	171.387	90.3487	171.387	89.9558	171.387	90.1852	171.387	90.0537
177.246	90.8141	177.246	90.7123	177.246	90.9117	177.246	90.6118	177.246	91.0006	177.246	90.5183	177.246	91.0788	177.246	90.4359	177.246	91.1469	177.246	90.3659	177.246	91.2069	177.246	90.3064	177.246	91.2618	177.246	90.2528	177.246	91.3128	177.246	90.1992	177.246	91.358	177.246	90.1406	177.246	91.3904	177.246	90.0748	177.246	91.3994	177.246	90.0041	177.246	91.3723	177.246	89.9355	177.246	91.2986	177.246	89.8797	177.246	91.1734	177.246	89.8493	177.246	91.0003	177.246	89.8557	177.246	90.7917	177.246	89.9076	177.246	90.5673	177.246	90.009	177.246	90.3496	177.246	90.1588
183.105	91.2529	183.105	91.1442	183.105	91.3447	183.105	91.0242	183.105	91.4152	183.105	90.8984	183.105	91.4624	183.105	90.7718	183.105	91.4872	183.105	90.6479	183.105	91.4931	183.105	90.5295	183.105	91.4858	183.105	90.4181	183.105	91.4706	183.105	90.3148	183.105	91.4501	183.105	90.2207	183.105	91.4232	183.105	90.1373	183.105	91.3847	183.105	90.0674	183.105	91.3277	183.105	90.0152	183.105	91.2465	183.105	89.9867	183.105	91.1386	183.105	89.9885	183.105	91.0057	183.105	90.0261	183.105	90.8528	183.105	90.102	183.105	90.687	183.105	90.2144	183.105	90.5178	183.105	90.3564
188.965	91.2995	188.965	91.169	188.965	91.4034	188.965	91.0174	188.965	91.4768	188.965	90.8498	188.965	91.5183	188.965	90.6709	188.965	91.5295	188.965	90.4839	188.965	91.515	188.965	90.292	188.965	91.4807	188.965	90.0991	188.965	91.4316	188.965	89.9108	188.965	91.37	188.965	89.7349	188.965	91.2934	188.965	89.5806	188.965	91.1968	188.965	89.4572	188.965	91.0745	188.965	89.3727	188.965	90.9246	188.965	89.3325	188.965	90.7501	188.965	89.3392	188.965	90.5585	188.965	89.3924	188.965	90.3591	188.965	89.4888	188.965	90.1594	188.965	89.6222	188.965	89.9657	188.965	89.7841
196.289	91.2076	196.289	91.086	196.289	91.3044	196.289	90.9484	196.289	91.3708	196.289	90.8047	196.289	91.4055	196.289	90.6632	196.289	91.4113	196.289	90.5289	196.289	91.3946	196.289	90.4014	196.289	91.3637	196.289	90.2768	196.289	91.3265	196.289	90.1488	196.289	91.2876	196.289	90.0131	196.289	91.2456	196.289	89.8693	196.289	91.1917	196.289	89.7235	196.289	91.1112	196.289	89.5876	196.289	90.989	196.289	89.4772	196.289	90.8166	196.289	89.4074	196.289	90.5974	196.289	89.3888	196.289	90.3485	196.289	89.4263	196.289	90.0948	196.289	89.5197	196.289	89.8615	196.289	89.6665
203.613	90.8301	203.613	90.709	203.613	90.925	203.613	90.5651	203.613	90.9908	203.613	90.4019	203.613	91.0256	203.613	90.2231	203.613	91.0293	203.613	90.0327	203.613	91.0035	203.613	89.8358	203.613	90.951	203.613	89.6389	203.613	90.8756	203.613	89.4492	203.613	90.781	203.613	89.274	203.613	90.6709	203.613	89.1185	203.613	90.5488	203.613	88.9857	203.613	90.4166	203.613	88.8775	203.613	90.2726	203.613	88.7967	203.613	90.1116	203.613	88.7494	203.613	89.9272	203.613	88.7447	203.613	89.7173	203.613	88.7922	203.613	89.4899	203.613	88.8976	203.613	89.2627	203.613	89.0585
210.938	90.7417	210.938	90.6779	210.938	90.7939	210.938	90.6064	210.938	90.8304	210.938	90.5287	210.938	90.8498	210.938	90.4419	210.938	90.8537	210.938	90.338	210.938	90.8465	210.938	90.2062	210.938	90.8319	210.938	90.0357	210.938	90.8095	210.938	89.8209	210.938	90.7719	210.938	89.5652	210.938	90.7046	210.938	89.2837	210.938	90.5904	210.938	89.0019	210.938	90.416	210.938	88.7501	210.938	90.179	210.938	88.5545	210.938	89.8918	210.938	88.43	210.938	89.5795	210.938	88.3784	210.938	89.2728	210.938	88.3931	210.938	88.9977	210.938	88.4659	210.938	88.7691	210.938	88.5917
218.262	90.1655	218.262	90.0953	218.262	90.2274	218.262	90.0238	218.262	90.2766	218.262	89.9588	218.262	90.312	218.262	89.9077	218.262	90.3369	218.262	89.8753	218.262	90.3579	218.262	89.8623	218.262	90.3835	218.262	89.8636	218.262	90.4204	218.262	89.8682	218.262	90.469	218.262	89.8614	218.262	90.5213	218.262	89.8278	218.262	90.561	218.262	89.7575	218.262	90.5675	218.262	89.6502	218.262	90.5221	218.262	89.5176	218.262	90.4127	218.262	89.3824	218.262	90.2385	218.262	89.2735	218.262	90.0133	218.262	89.2193	218.262	89.7649	218.262	89.2411	218.262	89.5307	218.262	89.3476
225.586	89.7148	225.586	89.5795	225.586	89.8302	225.586	89.4391	225.586	89.9156	225.586	89.3081	225.586	89.9679	225.586	89.1972	225.586	89.9929	225.586	89.111	225.586	90.003	225.586	89.049	225.586	90.0138	225.586	89.0079	225.586	90.0375	225.586	88.9854	225.586	90.0776	225.586	88.9804	225.586	90.1271	225.586	88.9919	225.586	90.1715	225.586	89.018	225.586	90.1953	225.586	89.0551	225.586	90.1879	225.586	89.1005	225.586	90.1454	225.586	89.1548	225.586	90.0695	225.586	89.2223	225.586	89.9645	225.586	89.3096	225.586	89.8367	225.586	89.4204	225.586	89.6951	225.586	89.552
232.91	89.9546	232.91	89.7704	232.91	90.0813	232.91	89.5481	232.91	90.1396	232.91	89.3118	232.91	90.1297	232.91	89.0855	232.91	90.0655	232.91	88.8878	232.91	89.9744	232.91	88.7279	232.91	89.8942	232.91	88.6049	232.91	89.8621	232.91	88.5125	232.91	89.8992	232.91	88.4443	232.91	89.9991	232.91	88.399	232.91	90.1293	232.91	88.3812	232.91	90.2458	232.91	88.3987	232.91	90.3107	232.91	88.459	232.91	90.3017	232.91	88.5656	232.91	90.2143	232.91	88.7167	232.91	90.0581	232.91	88.9068	232.91	89.8511	232.91	89.1273	232.91	89.6143	232.91	89.3675
241.699	90.1769	241.699	89.8882	241.699	90.3794	241.699	89.5286	241.699	90.4876	241.699	89.1219	241.699	90.5013	241.699	88.701	241.699	90.4289	241.699	88.3076	241.699	90.2884	241.699	87.9868	241.699	90.1078	241.699	87.7769	241.699	89.9224	241.699	87.6975	241.699	89.7673	241.699	87.7443	241.699	89.6646	241.699	87.8941	241.699	89.615	241.699	88.1151	241.699	89.5988	241.699	88.3757	241.699	89.5911	241.699	88.6476	241.699	89.578	241.699	88.9071	241.699	89.5618	241.699	89.1345	241.699	89.5521	241.699	89.3156	241.699	89.5508	241.699	89.4427	241.699	89.5458	241.699	89.5161
250.488	90.4304	250.488	90.2582	250.488	90.5288	250.488	90.0261	250.488	90.5438	250.488	89.7511	250.488	90.4725	250.488	89.451	250.488	90.3205	250.488	89.1438	250.488	90.1046	250.488	88.8481	250.488	89.854	250.488	88.5823	250.488	89.6107	250.488	88.3631	250.488	89.4251	250.488	88.2026	250.488	89.3439	250.488	88.1051	250.488	89.3907	250.488	88.068	250.488	89.5488	250.488	88.086	250.488	89.7607	250.488	88.1562	250.488	89.9487	250.488	88.2788	250.488	90.0442	250.488	88.4557	250.488	90.0093	250.488	88.6863	250.488	89.8445	250.488	88.9646	250.488	89.5831	250.488	89.2742
259.277	90.7579	259.277	90.5794	259.277	90.8474	259.277	90.3198	259.277	90.8427	259.277	89.9885	259.277	90.7429	259.277	89.5965	259.277	90.5543	259.277	89.1569	259.277	90.2931	259.277	88.6874	259.277	89.9871	259.277	88.2124	259.277	89.6747	259.277	87.7664	259.277	89.3981	259.277	87.3943	259.277	89.1901	259.277	87.1444	259.277	89.063	259.277	87.0524	259.277	89.0077	259.277	87.124	259.277	89.004	259.277	87.3307	259.277	89.0302	259.277	87.6235	259.277	89.065	259.277	87.9524	259.277	89.0839	259.277	88.2776	259.277	89.0598	259.277	88.5694	259.277	88.9703	259.277	88.8054
268.066	90.7599	268.066	90.6331	268.066	90.8359	268.066	90.4658	268.066	90.8522	268.066	90.2674	268.066	90.8028	268.066	90.0437	268.066	90.6866	268.066	89.797	268.066	90.5091	268.066	89.529	268.066	90.2849	268.066	89.2466	268.066	90.0384	268.066	88.9684	268.066	89.8007	268.066	88.7256	268.066	89.6021	268.066	88.5544	268.066	89.4644	268.066	88.4807	268.066	89.3961	268.066	88.5073	268.066	89.3934	268.066	88.6144	268.066	89.4406	268.066	88.7716	268.066	89.5102	268.066	88.9513	268.066	89.5679	268.066	89.1334	268.066	89.5835	268.066	89.3025	268.066	89.5417	268.066	89.4439
276.855	90.6842	276.855	90.4435	276.855	90.836	276.855	90.1321	276.855	90.8857	276.855	89.7723	276.855	90.8252	276.855	89.3901	276.855	90.6544	276.855	89.0125	276.855	90.3836	276.855	88.6612	276.855	90.0361	276.855	88.3472	276.855	89.649	276.855	88.0706	276.855	89.2684	276.855	87.8288	276.855	88.9393	276.855	87.6285	276.855	88.6925	276.855	87.4915	276.855	88.5378	276.855	87.4453	276.855	88.4668	276.855	87.5048	276.855	88.4608	276.855	87.6578	276.855	88.495	276.855	87.8691	276.855	88.5399	276.855	88.0952	276.855	88.564	276.855	88.2982	276.855	88.5396	276.855	88.4511
287.109	90.5706	287.109	90.3664	287.109	90.6947	287.109	90.0894	287.109	90.7359	287.109	89.7536	287.109	90.6929	287.109	89.3801	287.109	90.5651	287.109	88.9937	287.109	90.3526	287.109	88.6186	287.109	90.0618	287.109	88.2733	287.109	89.7121	287.109	87.9691	287.109	89.3414	287.109	87.7138	287.109	89.0041	287.109	87.5182	287.109	88.7514	287.109	87.3996	287.109	88.6043	287.109	87.3761	287.109	88.5406	287.109	87.4527	287.109	88.5148	287.109	87.6106	287.109	88.4917	287.109	87.8102	287.109	88.4594	287.109	88.0082	287.109	88.4193	287.109	88.1725	287.109	88.3677	287.109	88.2907
297.363	91.1766	297.363	91.084	297.363	91.1762	297.363	90.897	297.363	91.0852	297.363	90.6132	297.363	90.9103	297.363	90.2297	297.363	90.6651	297.363	89.749	297.363	90.3693	297.363	89.1885	297.363	90.0442	297.363	88.5909	297.363	89.7064	297.363	88.0278	297.363	89.3628	297.363	87.5825	297.363	89.0135	297.363	87.3103	297.363	88.6659	297.363	87.2065	297.363	88.3529	297.363	87.2177	297.363	88.1307	297.363	87.2862	297.363	88.0388	297.363	87.3821	297.363	88.0556	297.363	87.5022	297.363	88.1083	297.363	87.6485	297.363	88.1262	297.363	87.8106	297.363	88.0767	297.363	87.9635
307.617	90.2076	307.617	90.0335	307.617	90.345	307.617	89.8432	307.617	90.4266	307.617	89.652	307.617	90.4374	307.617	89.4631	307.617	90.3695	307.617	89.264	307.617	90.2249	307.617	89.0315	307.617	90.0192	307.617	88.7457	307.617	89.7813	307.617	88.4078	307.617	89.544	307.617	88.0559	307.617	89.3276	307.617	87.765	307.617	89.1296	307.617	87.6185	307.617	88.9396	307.617	87.6562	307.617	88.768	307.617	87.8459	307.617	88.6554	307.617	88.1099	307.617	88.6391	307.617	88.375	307.617	88.7074	307.617	88.5972	307.617	88.8011	307.617	88.757	307.617	88.8583	307.617	88.8456
319.336	90.0101	319.336	89.8095	319.336	90.1275	319.336	89.5351	319.336	90.1595	319.336	89.2048	319.336	90.1086	319.336	88.8414	319.336	89.9804	319.336	88.4663	319.336	89.7827	319.336	88.0892	319.336	89.5278	319.336	87.7046	319.336	89.2346	319.336	87.3022	319.336	88.9292	319.336	86.8917	319.336	88.6379	319.336	86.5272	319.336	88.3742	319.336	86.3054	319.336	88.1327	319.336	86.3111	319.336	87.902	319.336	86.5418	319.336	87.6933	319.336	86.9012	319.336	87.5512	319.336	87.2682	319.336	87.5208	319.336	87.5565	319.336	87.5943	319.336	87.7249	319.336	87.7039	319.336	87.7664
329.59	90.2868	329.59	90.1078	329.59	90.3936	329.59	89.8702	329.59	90.4131	329.59	89.5825	329.59	90.3341	329.59	89.2451	329.59	90.1528	329.59	88.8527	329.59	89.8771	329.59	88.4014	329.59	89.5282	329.59	87.9	329.59	89.1361	329.59	87.3794	329.59	88.7311	329.59	86.892	329.59	88.3334	329.59	86.4984	329.59	87.9564	329.59	86.2477	329.59	87.6276	329.59	86.1642	329.59	87.4027	329.59	86.2453	329.59	87.3366	329.59	86.462	329.59	87.4209	329.59	86.7626	329.59	87.5692	329.59	87.0843	329.59	87.6785	329.59	87.3704	329.59	87.6869	329.59	87.5801
341.309	90.1949	341.309	89.9671	341.309	90.3473	341.309	89.6713	341.309	90.4161	341.309	89.3143	341.309	90.3942	341.309	88.9058	341.309	90.2782	341.309	88.4639	341.309	90.0715	341.309	88.0185	341.309	89.7868	341.309	87.6072	341.309	89.4471	341.309	87.2614	341.309	89.0802	341.309	86.9935	341.309	88.7097	341.309	86.7972	341.309	88.3491	341.309	86.6666	341.309	88.0068	341.309	86.6105	341.309	87.6988	341.309	86.6466	341.309	87.4533	341.309	86.7758	341.309	87.3011	341.309	86.9654	341.309	87.2539	341.309	87.1586	341.309	87.2868	341.309	87.3006	341.309	87.3432	341.309	87.3609
353.027	90.9198	353.027	90.6284	353.027	91.1039	353.027	90.2519	353.027	91.16	353.027	89.8085	353.027	91.0719	353.027	89.3058	353.027	90.8313	353.027	88.7373	353.027	90.4412	353.027	88.0859	353.027	89.9217	353.027	87.3393	353.027	89.3162	353.027	86.5164	353.027	88.6932	353.027	85.6977	353.027	88.1301	353.027	85.0349	353.027	87.676	353.027	84.6899	353.027	87.3226	353.027	84.7192	353.027	87.0267	353.027	85.0363	353.027	86.774	353.027	85.4999	353.027	86.6138	353.027	85.9927	353.027	86.6075	353.027	86.4304	353.027	86.7317	353.027	86.7465	353.027	86.8687	353.027	86.8942
366.211	90.0883	366.211	89.91	366.211	90.1897	366.211	89.6677	366.211	90.2113	366.211	89.3818	366.211	90.1565	366.211	89.0736	366.211	90.029	366.211	88.755	366.211	89.828	366.211	88.4224	366.211	89.5464	366.211	88.0589	366.211	89.1793	366.211	87.6467	366.211	88.7376	366.211	87.1855	366.211	88.2647	366.211	86.712	366.211	87.8358	366.211	86.3063	366.211	87.5238	366.211	86.0638	366.211	87.3442	366.211	86.0306	366.211	87.2416	366.211	86.1644	366.211	87.1435	366.211	86.3687	366.211	87.0225	366.211	86.5571	366.211	86.9045	366.211	86.6872	366.211	86.8208	366.211	86.7626
379.395	90.3098	379.395	90.1257	379.395	90.4088	379.395	89.8626	379.395	90.4188	379.395	89.5265	379.395	90.3387	379.395	89.1209	379.395	90.1709	379.395	88.6434	379.395	89.92	379.395	88.0845	379.395	89.5912	379.395	87.4362	379.395	89.187	379.395	86.7126	379.395	88.7043	379.395	85.9789	379.395	88.1308	379.395	85.3673	379.395	87.4503	379.395	85.0335	379.395	86.6781	379.395	85.0493	379.395	85.9421	379.395	85.3459	379.395	85.5294	379.395	85.7866	379.395	85.669	379.395	86.2571	379.395	86.2045	379.395	86.6842	379.395	86.7631	379.395	87.0106	379.395	87.1044	379.395	87.1731
392.578	89.7054	392.578	89.5686	392.578	89.7572	392.578	89.3632	392.578	89.713	392.578	89.1066	392.578	89.5661	392.578	88.8096	392.578	89.3115	392.578	88.4682	392.578	88.948	392.578	88.0623	392.578	88.4883	392.578	87.5678	392.578	87.9774	392.578	86.9782	392.578	87.5016	392.578	86.3313	392.578	87.1626	392.578	85.7261	392.578	87.0118	392.578	85.3038	392.578	87.0058	392.578	85.1699	392.578	87.0412	392.578	85.3117	392.578	87.0234	392.578	85.611	392.578	86.9112	392.578	85.9309	392.578	86.7303	392.578	86.1792	392.578	86.5545	392.578	86.3243	392.578	86.4446	392.578	86.3906
405.762	90.2991	405.762	89.9898	405.762	90.505	405.762	89.589	405.762	90.6013	405.762	89.1162	405.762	90.5885	405.762	88.6034	405.762	90.4723	405.762	88.0993	405.762	90.2599	405.762	87.6546	405.762	89.9541	405.762	87.2831	405.762	89.5469	405.762	86.931	405.762	89.0199	405.762	86.505	405.762	88.3549	405.762	85.9535	405.762	87.5628	405.762	85.3495	405.762	86.7261	405.762	84.9145	405.762	86.0304	405.762	84.8865	405.762	85.7096	405.762	85.2853	405.762	85.8637	405.762	85.9063	405.762	86.338	405.762	86.5255	405.762	86.8513	405.762	86.997	405.762	87.1828	405.762	87.2329
420.41	90.1194	420.41	90.027	420.41	90.1151	420.41	89.8378	420.41	90.0198	420.41	89.5507	420.41	89.8442	420.41	89.1568	420.41	89.6012	420.41	88.6389	420.41	89.3019	420.41	87.9837	420.41	88.9562	420.41	87.2047	420.41	88.5729	420.41	86.3678	420.41	88.1559	420.41	85.5993	420.41	87.701	420.41	85.0485	420.41	87.2146	420.41	84.8032	420.41	86.7448	420.41	84.8389	420.41	86.3722	420.41	85.0616	420.41	86.1398	420.41	85.3769	420.41	86.0227	420.41	85.7099	420.41	85.9916	420.41	85.9945	420.41	86.0439	420.41	86.1731	420.41	86.1468	420.41	86.216
435.059	90.1133	435.059	89.8731	435.059	90.2772	435.059	89.5734	435.059	90.3446	435.059	89.2253	435.059	90.2965	435.059	88.8337	435.059	90.1188	435.059	88.3947	435.059	89.805	435.059	87.8945	435.059	89.3554	435.059	87.3114	435.059	88.7767	435.059	86.629	435.059	88.0882	435.059	85.8585	435.059	87.3349	435.059	85.0712	435.059	86.5938	435.059	84.4284	435.059	85.952	435.059	84.1531	435.059	85.4681	435.059	84.3681	435.059	85.183	435.059	84.9454	435.059	85.1564	435.059	85.6129	435.059	85.4116	435.059	86.1511	435.059	85.8399	435.059	86.4496	435.059	86.2468	435.059	86.4756
451.172	89.373	451.172	89.239	451.172	89.393	451.172	88.9845	451.172	89.3226	451.172	88.6216	451.172	89.1947	451.172	88.1774	451.172	89.0383	451.172	87.68	451.172	88.8683	451.172	87.1364	451.172	88.6808	451.172	86.5194	451.172	88.4519	451.172	85.7842	451.172	88.136	451.172	84.9162	451.172	87.6678	451.172	83.9969	451.172	86.9823	451.172	83.2529	451.172	86.0755	451.172	82.9784	451.172	85.1147	451.172	83.2724	451.172	84.489	451.172	83.9272	451.172	84.4893	451.172	84.6541	451.172	84.9189	451.172	85.2607	451.172	85.394	451.172	85.6537	451.172	85.7087	451.172	85.8019
465.82	89.3516	465.82	89.091	465.82	89.5282	465.82	88.7964	465.82	89.5879	465.82	88.5099	465.82	89.5227	465.82	88.2378	465.82	89.344	465.82	87.9447	465.82	89.073	465.82	87.5752	465.82	88.7353	465.82	87.0815	465.82	88.3615	465.82	86.446	465.82	87.9865	465.82	85.7017	465.82	87.6368	465.82	84.9534	465.82	87.3056	465.82	84.3681	465.82	86.9375	465.82	84.0903	465.82	86.4588	465.82	84.1396	465.82	85.8596	465.82	84.4247	465.82	85.2836	465.82	84.8249	465.82	84.9904	465.82	85.2171	465.82	85.0817	465.82	85.481	465.82	85.3515	465.82	85.5283
483.398	89.8901	483.398	89.6833	483.398	89.9682	483.398	89.3291	483.398	89.9293	483.398	88.8119	483.398	89.7789	483.398	88.1402	483.398	89.5223	483.398	87.3762	483.398	89.1729	483.398	86.647	483.398	88.7525	483.398	86.0787	483.398	88.2817	483.398	85.6589	483.398	87.7663	483.398	85.2125	483.398	87.2016	483.398	84.5733	483.398	86.5974	483.398	83.7993	483.398	85.9811	483.398	83.2682	483.398	85.3592	483.398	83.3708	483.398	84.7375	483.398	83.9851	483.398	84.2726	483.398	84.6981	483.398	84.2682	483.398	85.2602	483.398	84.7392	483.398	85.5819	483.398	85.2956	483.398	85.6061
499.512	88.8517	499.512	88.7092	499.512	88.8626	499.512	88.4854	499.512	88.7368	499.512	88.24	499.512	88.5151	499.512	87.9934	499.512	88.2561	499.512	87.709	499.512	88.0049	499.512	87.318	499.512	87.78	499.512	86.7572	499.512	87.5702	499.512	85.9926	499.512	87.329	499.512	85.0356	499.512	86.9772	499.512	83.9786	499.512	86.4363	499.512	83.0634	499.512	85.7018	499.512	82.6761	499.512	84.947	499.512	83.0396	499.512	84.5431	499.512	83.923	499.512	84.7551	499.512	84.9213	499.512	85.3933	499.512	85.7693	499.512	86.0599	499.512	86.3454	499.512	86.494	499.512	86.5946
517.09	89.0231	517.09	88.883	517.09	89.047	517.09	88.6145	517.09	88.9554	517.09	88.2099	517.09	88.7362	517.09	87.6825	517.09	88.3814	517.09	87.0692	517.09	87.9103	517.09	86.4174	517.09	87.3905	517.09	85.7652	517.09	86.9413	517.09	85.1211	517.09	86.6828	517.09	84.4599	517.09	86.6241	517.09	83.7529	517.09	86.6121	517.09	83.0261	517.09	86.427	517.09	82.4189	517.09	85.9215	517.09	82.182	517.09	85.1242	517.09	82.5051	517.09	84.3297	517.09	83.2729	517.09	84.0101	517.09	84.1314	517.09	84.292	517.09	84.7569	517.09	84.7578	517.09	84.9728
536.133	89.4873	536.133	89	536.133	89.7614	536.133	88.3229	536.133	89.8196	536.133	87.523	536.133	89.6715	536.133	86.7424	536.133	89.3391	536.133	86.1778	536.133	88.8557	536.133	85.9364	536.133	88.2605	536.133	85.8956	536.133	87.5929	536.133	85.7803	536.133	86.9052	536.133	85.3272	536.133	86.2905	536.133	84.3738	536.133	85.8547	536.133	82.9862	536.133	85.5746	536.133	81.7875	536.133	85.2374	536.133	81.8114	536.133	84.6439	536.133	82.9255	536.133	83.9089	536.133	84.1487	536.133	83.5744	536.133	85.0071	536.133	84.0047	536.133	85.4001	536.133	84.7701	536.133	85.3103
555.176	89.9802	555.176	89.6542	555.176	90.0248	555.176	89.1073	555.176	89.7943	555.176	88.4553	555.176	89.3533	555.176	87.8215	555.176	88.8028	555.176	87.2566	555.176	88.2516	555.176	86.7045	555.176	87.7975	555.176	86.0704	555.176	87.4958	555.176	85.3166	555.176	87.2918	555.176	84.4895	555.176	86.9978	555.176	83.6547	555.176	86.3979	555.176	82.8163	555.176	85.4188	555.176	81.9745	555.176	84.2917	555.176	81.4051	555.176	83.5337	555.176	81.7058	555.176	83.4561	555.176	82.8718	555.176	83.8652	555.176	84.134	555.176	84.459	555.176	84.9586	555.176	84.9902	555.176	85.2187
574.219	90.7042	574.219	90.2539	574.219	90.8431	574.219	89.4949	574.219	90.7068	574.219	88.4968	574.219	90.341	574.219	87.4047	574.219	89.7749	574.219	86.384	574.219	89.0237	574.219	85.5155	574.219	88.1389	574.219	84.7757	574.219	87.2912	574.219	84.1325	574.219	86.7807	574.219	83.6	574.219	86.7786	574.219	83.1929	574.219	87.0262	574.219	82.865	574.219	87.047	574.219	82.5354	574.219	86.5078	574.219	82.2074	574.219	85.3305	574.219	82.0515	574.219	83.7841	574.219	82.2617	574.219	82.6205	574.219	82.7552	574.219	82.4826	574.219	83.1926	574.219	82.9445	574.219	83.2782
594.727	90.45	594.727	90.137	594.727	90.5665	594.727	89.6117	594.727	90.5197	594.727	88.8855	594.727	90.3324	594.727	88.012	594.727	89.9904	594.727	87.1231	594.727	89.4506	594.727	86.4367	594.727	88.6754	594.727	86.1161	594.727	87.6578	594.727	86.0467	594.727	86.455	594.727	85.8776	594.727	85.2861	594.727	85.269	594.727	84.5729	594.727	84.0459	594.727	84.492	594.727	82.3776	594.727	84.5989	594.727	81.1294	594.727	84.4311	594.727	81.2176	594.727	83.991	594.727	82.0508	594.727	83.6095	594.727	82.7793	594.727	83.4862	594.727	83.2138	594.727	83.4863	594.727	83.4247
615.234	90.5429	615.234	90.1727	615.234	90.6003	615.234	89.5256	615.234	90.347	615.234	88.6665	615.234	89.8331	615.234	87.6829	615.234	89.1532	615.234	86.6884	615.234	88.4098	615.234	85.8433	615.234	87.6611	615.234	85.3309	615.234	86.9054	615.234	85.1936	615.234	86.1152	615.234	85.1989	615.234	85.32	615.234	84.9921	615.234	84.702	615.234	84.3509	615.234	84.4827	615.234	83.3615	615.234	84.5735	615.234	82.5744	615.234	84.6741	615.234	82.708	615.234	84.7428	615.234	83.6658	615.234	85.007	615.234	84.7598	615.234	85.4894	615.234	85.5659	615.234	85.8909	615.234	85.9477
637.207	90.1544	637.207	89.9989	637.207	90.0886	637.207	89.5367	637.207	89.9139	637.207	88.7584	637.207	89.6809	637.207	87.7496	637.207	89.3417	637.207	86.6993	637.207	88.8297	637.207	85.8572	637.207	88.1466	637.207	85.3767	637.207	87.346	637.207	85.1706	637.207	86.4496	637.207	84.9799	637.207	85.4376	637.207	84.5458	637.207	84.3944	637.207	83.7275	637.207	83.6467	637.207	82.6019	637.207	83.4319	637.207	81.5604	637.207	83.3929	637.207	81.1685	637.207	83.048	637.207	81.5823	637.207	82.51	637.207	82.3667	637.207	82.4206	637.207	83.0074	637.207	82.8635	637.207	83.1887
659.18	89.5784	659.18	89.1903	659.18	89.7801	659.18	88.6815	659.18	89.7375	659.18	88.1083	659.18	89.4317	659.18	87.5073	659.18	88.8999	659.18	86.8649	659.18	88.2135	659.18	86.1087	659.18	87.4306	659.18	85.2202	659.18	86.5797	659.18	84.4259	659.18	85.6801	659.18	84.1025	659.18	84.7571	659.18	84.1823	659.18	83.8823	659.18	84.1258	659.18	83.2318	659.18	83.5832	659.18	82.935	659.18	82.7692	659.18	82.8479	659.18	82.4542	659.18	82.8113	659.18	83.0217	659.18	82.9979	659.18	83.8899	659.18	83.5793	659.18	84.494	659.18	84.2605	659.18	84.6246
682.617	89.5438	682.617	89.2568	682.617	89.5338	682.617	88.6451	682.617	89.2736	682.617	87.7438	682.617	88.819	682.617	86.6989	682.617	88.2565	682.617	85.7599	682.617	87.712	682.617	85.119	682.617	87.3085	682.617	84.7051	682.617	87.0869	682.617	84.2923	682.617	86.9322	682.617	83.8237	682.617	86.5827	682.617	83.4824	682.617	85.776	682.617	83.3568	682.617	84.4733	682.617	83.2148	682.617	83.16	682.617	82.8699	682.617	82.7355	682.617	82.623	682.617	83.2434	682.617	83.024	682.617	84.0004	682.617	83.9583	682.617	84.6938	682.617	84.822	682.617	85.1751	682.617	85.2529
707.52	90.4193	707.52	90.2429	707.52	90.2946	707.52	89.7945	707.52	89.9161	707.52	89.1025	707.52	89.4076	707.52	88.1561	707.52	88.8377	707.52	86.9709	707.52	88.1195	707.52	85.7337	707.52	87.1254	707.52	84.817	707.52	85.8705	707.52	84.3568	707.52	84.5853	707.52	83.9994	707.52	83.6605	707.52	83.3684	707.52	83.2852	707.52	82.432	707.52	82.9926	707.52	81.5928	707.52	82.0731	707.52	81.3904	707.52	80.5914	707.52	81.8446	707.52	80.3618	707.52	82.6084	707.52	81.937	707.52	83.4209	707.52	83.4114	707.52	84.0774	707.52	84.1936	707.52	84.38
732.422	89.0244	732.422	88.9064	732.422	89.0099	732.422	88.5838	732.422	88.9025	732.422	88.0529	732.422	88.6165	732.422	87.352	732.422	88.0368	732.422	86.4779	732.422	87.1969	732.422	85.3951	732.422	86.2784	732.422	84.2527	732.422	85.3888	732.422	83.6316	732.422	84.4548	732.422	83.925	732.422	83.5165	732.422	84.4106	732.422	82.9724	732.422	84.1891	732.422	82.8862	732.422	83.121	732.422	82.6045	732.422	82.0303	732.422	81.9325	732.422	81.9997	732.422	81.7224	732.422	82.7727	732.422	82.4846	732.422	83.5842	732.422	83.4598	732.422	84.1275	732.422	84.0999	732.422	84.3153
757.324	90.949	757.324	90.7083	757.324	90.8459	757.324	90.1523	757.324	90.4234	757.324	89.3273	757.324	89.7962	757.324	88.336	757.324	89.0697	757.324	87.3601	757.324	88.208	757.324	86.5484	757.324	87.153	757.324	85.8732	757.324	86.0731	757.324	85.2163	757.324	85.2609	757.324	84.6112	757.324	84.6339	757.324	84.2172	757.324	83.8008	757.324	83.8972	757.324	82.6741	757.324	83.2448	757.324	81.5283	757.324	82.28	757.324	80.522	757.324	82.0433	757.324	80.1428	757.324	83.263	757.324	81.3783	757.324	84.764	757.324	83.3688	757.324	85.6167	757.324	84.8935	757.324	85.6522
785.156	90.7215	785.156	90.5778	785.156	90.6437	785.156	90.1879	785.156	90.4152	785.156	89.6082	785.156	90.0209	785.156	88.8956	785.156	89.3535	785.156	88.0582	785.156	88.3687	785.156	87.0883	785.156	87.1682	785.156	85.9736	785.156	85.9651	785.156	84.6883	785.156	85.0926	785.156	83.385	785.156	84.6651	785.156	82.5247	785.156	84.1925	785.156	82.2125	785.156	83.229	785.156	81.9741	785.156	81.975	785.156	81.6749	785.156	80.7556	785.156	81.83	785.156	79.5223	785.156	82.8566	785.156	79.8269	785.156	84.237	785.156	82.3004	785.156	85.2104	785.156	84.4171	785.156	85.3513
811.523	90.8572	811.523	90.633	811.523	90.7538	811.523	90.0986	811.523	90.3572	811.523	89.3096	811.523	89.7037	811.523	88.3252	811.523	88.8261	811.523	87.324	811.523	87.7837	811.523	86.6154	811.523	86.6315	811.523	86.0242	811.523	85.3959	811.523	84.887	811.523	84.2498	811.523	83.1535	811.523	83.7388	811.523	82.0057	811.523	83.9584	811.523	82.1184	811.523	83.8637	811.523	82.3396	811.523	82.6136	811.523	82.0746	811.523	80.607	811.523	82.0176	811.523	79.8307	811.523	82.8982	811.523	80.8709	811.523	84.1449	811.523	82.748	811.523	85.046	811.523	84.4472	811.523	85.231
840.82	91.3495	840.82	91.1748	840.82	91.091	840.82	90.5921	840.82	90.4676	840.82	89.7278	840.82	89.632	840.82	88.7923	840.82	88.7792	840.82	87.9584	840.82	87.9886	840.82	87.1644	840.82	87.08	840.82	86.1887	840.82	85.7453	840.82	84.9604	840.82	83.8722	840.82	83.6697	840.82	82.0707	840.82	82.735	840.82	81.6523	840.82	82.4719	840.82	82.0257	840.82	82.3911	840.82	81.4695	840.82	81.9686	840.82	79.486	840.82	81.6299	840.82	77.2714	840.82	82.2772	840.82	78.7457	840.82	83.7569	840.82	82.132	840.82	85.0193	840.82	84.4373	840.82	85.3503
870.117	90.7422	870.117	90.8336	870.117	90.2009	870.117	90.3852	870.117	89.523	870.117	89.4988	870.117	88.9081	870.117	88.3054	870.117	88.1562	870.117	86.9615	870.117	87.0143	870.117	85.7457	870.117	85.6021	870.117	84.772	870.117	84.2887	870.117	83.8042	870.117	83.0864	870.117	82.828	870.117	81.5948	870.117	82.3052	870.117	80.2605	870.117	82.2096	870.117	80.7761	870.117	81.8397	870.117	81.7195	870.117	81.0883	870.117	80.7601	870.117	80.8158	870.117	77.288	870.117	81.7589	870.117	76.3019	870.117	83.2091	870.117	80.2621	870.117	84.1913	870.117	82.9695	870.117	84.1973
900.879	91.1856	900.879	91.3865	900.879	90.6858	900.879	91.0683	900.879	90.0723	900.879	90.1757	900.879	89.3266	900.879	88.8831	900.879	88.4087	900.879	87.4543	900.879	87.4717	900.879	85.8845	900.879	86.5753	900.879	84.2235	900.879	85.4837	900.879	83.1176	900.879	84.3076	900.879	82.5801	900.879	83.4503	900.879	81.5755	900.879	82.5306	900.879	80.0631	900.879	81.2732	900.879	79.8981	900.879	80.7278	900.879	80.6027	900.879	80.1412	900.879	80.8937	900.879	76.9318	900.879	81.6528	900.879	73.7547	900.879	83.3734	900.879	79.6579	900.879	84.8282	900.879	83.5229	900.879	85.0443
933.105	90.5546	933.105	90.9655	933.105	89.735	933.105	90.8626	933.105	88.7005	933.105	90.2068	933.105	87.6363	933.105	89.004	933.105	86.7001	933.105	87.4348	933.105	85.9161	933.105	85.8547	933.105	84.939	933.105	84.6716	933.105	83.3512	933.105	84.3598	933.105	81.0122	933.105	84.3936	933.105	78.4161	933.105	83.3532	933.105	78.6109	933.105	80.738	933.105	81.1495	933.105	79.1601	933.105	82.1192	933.105	80.0567	933.105	81.1521	933.105	80.1989	933.105	78.4923	933.105	80.6688	933.105	73.4404	933.105	82.511	933.105	76.7945	933.105	83.6963	933.105	81.5581	933.105	83.4824
965.332	90.8751	965.332	91.0537	965.332	90.4013	965.332	90.9347	965.332	89.5652	965.332	90.3713	965.332	88.3897	965.332	89.0997	965.332	87.247	965.332	87.029	965.332	86.616	965.332	84.668	965.332	86.2251	965.332	83.1074	965.332	85.4184	965.332	83.2076	965.332	84.113	965.332	84.5476	965.332	82.3418	965.332	85.248	965.332	79.5716	965.332	84.048	965.332	78.8606	965.332	81.3839	965.332	80.8476	965.332	80.3314	965.332	80.1024	965.332	81.1535	965.332	77.2343	965.332	81.5966	965.332	76.3032	965.332	82.3278	965.332	77.0615	965.332	83.3934	965.332	80.6902	965.332	83.198
1000.49	90.1404	1000.49	90.7722	1000.49	89.0301	1000.49	90.7537	1000.49	87.9688	1000.49	90.1553	1000.49	87.1787	1000.49	88.9811	1000.49	86.3078	1000.49	87.2091	1000.49	85.2369	1000.49	85.1836	1000.49	84.3979	1000.49	83.6992	1000.49	84.0681	1000.49	82.9583	1000.49	83.8318	1000.49	82.6888	1000.49	83.3324	1000.49	83.1015	1000.49	81.8855	1000.49	83.271	1000.49	78.6103	1000.49	82.0467	1000.49	78.9527	1000.49	80.0496	1000.49	80.8289	1000.49	80.2882	1000.49	79.2835	1000.49	81.3312	1000.49	74.8135	1000.49	81.2994	1000.49	73.4835	1000.49	81.0763	1000.49	78.1413	1000.49	80.5459
1035.64	90.8703	1035.64	91.161	1035.64	90.0874	1035.64	90.9997	1035.64	88.6741	1035.64	90.3757	1035.64	86.81	1035.64	89.2567	1035.64	85.4507	1035.64	87.4524	1035.64	85.3224	1035.64	84.833	1035.64	85.6005	1035.64	81.9775	1035.64	85.1117	1035.64	78.9207	1035.64	83.4562	1035.64	73.6243	1035.64	82.2303	1035.64	77.0355	1035.64	82.7833	1035.64	81.6671	1035.64	82.0662	1035.64	82.5622	1035.64	79.2582	1035.64	81.3108	1035.64	78.6227	1035.64	79.7049	1035.64	77.6501	1035.64	80.1906	1035.64	74.4881	1035.64	81.4913	1035.64	77.3112	1035.64	82.1457	1035.64	80.4146	1035.64	81.8897
1072.27	90.4373	1072.27	90.6944	1072.27	89.8095	1072.27	90.561	1072.27	88.7609	1072.27	89.9085	1072.27	87.2239	1072.27	88.5551	1072.27	85.633	1072.27	86.8418	1072.27	84.6872	1072.27	85.4346	1072.27	84.2213	1072.27	83.7798	1072.27	83.679	1072.27	81.867	1072.27	82.8232	1072.27	82.3286	1072.27	81.2034	1072.27	81.7441	1072.27	79.0862	1072.27	78.4431	1072.27	79.3052	1072.27	78.3455	1072.27	79.4077	1072.27	79.9918	1072.27	78.7108	1072.27	79.6179	1072.27	79.29	1072.27	79.2871	1072.27	77.8842	1072.27	80.1113	1072.27	76.3394	1072.27	80.9637	1072.27	79.2663	1072.27	80.9545
1108.89	91.1912	1108.89	91.295	1108.89	90.3227	1108.89	90.7743	1108.89	88.6768	1108.89	89.8769	1108.89	86.7221	1108.89	88.7826	1108.89	85.2839	1108.89	87.2745	1108.89	84.396	1108.89	85.2313	1108.89	83.7198	1108.89	83.4626	1108.89	83.1308	1108.89	82.3626	1108.89	82.5976	1108.89	81.0125	1108.89	82.2234	1108.89	80.1175	1108.89	81.1316	1108.89	79.9315	1108.89	79.3407	1108.89	80.2043	1108.89	79.6111	1108.89	81.1131	1108.89	79.4563	1108.89	80.9428	1108.89	76.9094	1108.89	80.4017	1108.89	76.4052	1108.89	81.2925	1108.89	77.644	1108.89	82.1013	1108.89	79.8276	1108.89	81.7097
1148.44	90.365	1148.44	90.954	1148.44	89.4191	1148.44	90.9023	1148.44	88.1908	1148.44	90.1098	1148.44	86.3974	1148.44	88.612	1148.44	84.7138	1148.44	86.6897	1148.44	84.0116	1148.44	85.0328	1148.44	83.7475	1148.44	84.3009	1148.44	83.4047	1148.44	83.4491	1148.44	82.3611	1148.44	81.0712	1148.44	80.2462	1148.44	79.3932	1148.44	79.4726	1148.44	79.6864	1148.44	80.0379	1148.44	79.7369	1148.44	79.1484	1148.44	79.7488	1148.44	78.2163	1148.44	79.5169	1148.44	77.2525	1148.44	79.4841	1148.44	77.2708	1148.44	80.38	1148.44	78.6621	1148.44	81.3403	1148.44	80.125	1148.44	81.3879
1189.45	90.5873	1189.45	91.0139	1189.45	89.5535	1189.45	90.9095	1189.45	87.8748	1189.45	90.1226	1189.45	86.0006	1189.45	88.4312	1189.45	84.3426	1189.45	86.1225	1189.45	83.3498	1189.45	84.1532	1189.45	83.3139	1189.45	83.3718	1189.45	83.267	1189.45	83.0971	1189.45	82.2026	1189.45	80.6268	1189.45	79.115	1189.45	75.6957	1189.45	74.712	1189.45	77.1232	1189.45	78.7853	1189.45	79.0443	1189.45	81.4321	1189.45	79.8523	1189.45	81.019	1189.45	80.2553	1189.45	76.2753	1189.45	79.8821	1189.45	67.1663	1189.45	80.5565	1189.45	79.2238	1189.45	81.9767	1189.45	82.1147	1189.45	82.5859
1230.47	89.3546	1230.47	90.1153	1230.47	88.7162	1230.47	90.694	1230.47	87.7197	1230.47	90.4189	1230.47	86.2135	1230.47	88.8947	1230.47	84.8132	1230.47	86.5934	1230.47	83.0559	1230.47	84.3993	1230.47	81.952	1230.47	82.863	1230.47	82.8704	1230.47	82.9677	1230.47	84.0548	1230.47	82.2038	1230.47	83.4487	1230.47	78.4261	1230.47	79.7088	1230.47	75.1969	1230.47	71.1816	1230.47	78.4222	1230.47	78.0483	1230.47	80.207	1230.47	81.1966	1230.47	80.8189	1230.47	78.247	1230.47	81.314	1230.47	54.3508	1230.47	82.4102	1230.47	77.9543	1230.47	83.459	1230.47	82.2814	1230.47	83.577
1274.41	90.544	1274.41	91.1261	1274.41	89.5604	1274.41	90.9297	1274.41	88.2827	1274.41	90.065	1274.41	86.5648	1274.41	88.8566	1274.41	84.5022	1274.41	87.1789	1274.41	82.788	1274.41	84.636	1274.41	82.2198	1274.41	81.3187	1274.41	81.8525	1274.41	79.0281	1274.41	81.4401	1274.41	78.8334	1274.41	80.5303	1274.41	76.1253	1274.41	79.3813	1274.41	67.8406	1274.41	78.3461	1274.41	77.4664	1274.41	76.0071	1274.41	80.7575	1274.41	80.6962	1274.41	80.7736	1274.41	80.8371	1274.41	80.5512	1274.41	72.8524	1274.41	81.7299	1274.41	71.6166	1274.41	83.1817	1274.41	80.162	1274.41	82.9258
1319.82	91.3695	1319.82	91.4271	1319.82	90.5464	1319.82	90.679	1319.82	89.1	1319.82	89.427	1319.82	87.1769	1319.82	87.9095	1319.82	85.3476	1319.82	85.7846	1319.82	84.2154	1319.82	82.7906	1319.82	83.4433	1319.82	80.757	1319.82	82.6156	1319.82	79.6705	1319.82	82.3953	1319.82	79.1234	1319.82	82.0655	1319.82	79.3075	1319.82	78.8937	1319.82	76.3055	1319.82	74.7828	1319.82	72.9163	1319.82	78.8882	1319.82	79.3359	1319.82	81.4032	1319.82	80.5338	1319.82	80.4886	1319.82	80.031	1319.82	70.5903	1319.82	81.3445	1319.82	74.4148	1319.82	83.2672	1319.82	81.0842	1319.82	83.3899
1366.7	91.0489	1366.7	91.5192	1366.7	90.2099	1366.7	91.2032	1366.7	88.996	1366.7	89.8524	1366.7	87.7335	1366.7	88.2118	1366.7	86.3508	1366.7	86.7316	1366.7	84.4302	1366.7	83.6724	1366.7	83.1881	1366.7	76.557	1366.7	82.8755	1366.7	73.0602	1366.7	82.8834	1366.7	76.0064	1366.7	83.1802	1366.7	76.5515	1366.7	82.4634	1366.7	73.2208	1366.7	76.8547	1366.7	68.7449	1366.7	72.3948	1366.7	78.3572	1366.7	81.4879	1366.7	81.5234	1366.7	81.5177	1366.7	81.9582	1366.7	74.7962	1366.7	82.7216	1366.7	73.5537	1366.7	84.5565	1366.7	82.4405	1366.7	84.9587
1413.57	92.4899	1413.57	92.9237	1413.57	90.7175	1413.57	91.6866	1413.57	88.2843	1413.57	89.4326	1413.57	86.1671	1413.57	87.784	1413.57	84.3656	1413.57	86.3728	1413.57	83.3508	1413.57	83.5551	1413.57	83.0099	1413.57	78.3936	1413.57	82.1329	1413.57	68.389	1413.57	81.7201	1413.57	76.777	1413.57	82.5924	1413.57	78.0491	1413.57	82.1501	1413.57	72.0363	1413.57	80.5297	1413.57	72.053	1413.57	67.3037	1413.57	77.9254	1413.57	80.8805	1413.57	80.4599	1413.57	84.4934	1413.57	81.836	1413.57	80.4398	1413.57	83.9061	1413.57	75.3282	1413.57	86.0114	1413.57	82.9285	1413.57	85.9208
1463.38	92.9101	1463.38	93.3532	1463.38	91.1083	1463.38	92.4423	1463.38	87.7935	1463.38	90.1799	1463.38	84.2698	1463.38	87.5225	1463.38	82.488	1463.38	85.4043	1463.38	82.673	1463.38	82.3888	1463.38	83.5773	1463.38	79.8415	1463.38	83.9431	1463.38	77.304	1463.38	82.3829	1463.38	67.1104	1463.38	81.051	1463.38	79.2829	1463.38	82.5105	1463.38	79.9075	1463.38	82.2569	1463.38	76.3746	1463.38	77.0645	1463.38	72.0761	1463.38	72.7657	1463.38	76.6452	1463.38	83.3207	1463.38	79.1342	1463.38	83.0757	1463.38	81.5624	1463.38	75.1777	1463.38	84.2597	1463.38	78.1825	1463.38	83.6429
1516.11	92.2684	1516.11	92.8778	1516.11	91.0272	1516.11	92.8006	1516.11	88.1272	1516.11	91.1829	1516.11	84.6745	1516.11	88.3242	1516.11	83.4943	1516.11	85.5306	1516.11	83.7797	1516.11	82.9667	1516.11	83.9843	1516.11	80.5458	1516.11	83.9499	1516.11	78.1539	1516.11	83.3034	1516.11	68.4338	1516.11	82.6447	1516.11	72.7688	1516.11	82.2582	1516.11	78.7363	1516.11	82.4896	1516.11	78.2118	1516.11	80.5687	1516.11	71.8808	1516.11	68.4222	1516.11	71.8696	1516.11	79.9485	1516.11	76.9677	1516.11	80.7783	1516.11	77.2109	1516.11	73.489	1516.11	80.7525	1516.11	74.1806	1516.11	81.5246
1568.85	92.7745	1568.85	93.1703	1568.85	91.5019	1568.85	92.7908	1568.85	88.9614	1568.85	91.5136	1568.85	85.446	1568.85	89.1198	1568.85	82.9426	1568.85	84.6974	1568.85	83.0148	1568.85	80.6045	1568.85	83.0297	1568.85	80.5759	1568.85	83.6427	1568.85	78.2089	1568.85	83.5068	1568.85	64.2867	1568.85	81.4757	1568.85	71.7448	1568.85	80.6008	1568.85	78.7495	1568.85	81.2854	1568.85	79.4431	1568.85	80.8436	1568.85	74.5177	1568.85	69.6052	1568.85	66.6672	1568.85	79.5572	1568.85	74.5553	1568.85	80.6673	1568.85	78.1313	1568.85	69.6794	1568.85	81.366	1568.85	76.114	1568.85	81.8197
1624.51	93.9468	1624.51	93.861	1624.51	92.6712	1624.51	92.8919	1624.51	89.7939	1624.51	91.39	1624.51	85.2823	1624.51	88.679	1624.51	81.1855	1624.51	83.0073	1624.51	81.7712	1624.51	77.1405	1624.51	82.2335	1624.51	78.0591	1624.51	82.6075	1624.51	77.4208	1624.51	83.9509	1624.51	75.8131	1624.51	83.6753	1624.51	72.2839	1624.51	81.4664	1624.51	70.3746	1624.51	81.5194	1624.51	75.1552	1624.51	81.8666	1624.51	75.5926	1624.51	74.358	1624.51	64.3079	1624.51	74.1034	1624.51	70.8479	1624.51	80.1919	1624.51	74.2353	1624.51	75.3964	1624.51	78.6276	1624.51	74.0146	1624.51	79.8041
1681.64	94.6784	1681.64	94.6627	1681.64	93.5081	1681.64	93.4421	1681.64	90.6054	1681.64	91.0842	1681.64	85.6123	1681.64	87.6419	1681.64	81.0979	1681.64	82.0689	1681.64	81.8311	1681.64	77.3472	1681.64	82.2954	1681.64	74.9532	1681.64	82.2994	1681.64	75.0383	1681.64	83.6893	1681.64	70.7846	1681.64	83.5804	1681.64	67.8151	1681.64	81.7319	1681.64	67.6476	1681.64	81.7086	1681.64	71.3224	1681.64	82.5299	1681.64	68.1917	1681.64	77.8979	1681.64	68.1369	1681.64	68.9311	1681.64	65.8892	1681.64	76.6489	1681.64	74.0612	1681.64	74.1296	1681.64	74.6463	1681.64	74.9539	1681.64	77.3257
1741.7	94.4294	1741.7	94.2526	1741.7	93.4522	1741.7	92.7334	1741.7	90.9757	1741.7	89.7482	1741.7	85.944	1741.7	85.4593	1741.7	78.059	1741.7	80.3498	1741.7	80.0265	1741.7	76.2503	1741.7	81.2912	1741.7	66.7705	1741.7	81.3814	1741.7	74.2288	1741.7	82.7449	1741.7	76.2127	1741.7	82.9063	1741.7	70.2913	1741.7	81.7028	1741.7	73.6932	1741.7	81.183	1741.7	73.4379	1741.7	80.7089	1741.7	65.3512	1741.7	77.406	1741.7	60.0861	1741.7	66.0368	1741.7	42.6722	1741.7	75.6772	1741.7	65.8998	1741.7	74.6787	1741.7	73.9402	1741.7	72.6565	1741.7	76.7976
1803.22	93.7052	1803.22	92.9635	1803.22	92.7929	1803.22	90.8778	1803.22	89.7179	1803.22	87.3839	1803.22	83.4461	1803.22	80.5115	1803.22	68.19	1803.22	76.749	1803.22	77.3213	1803.22	68.987	1803.22	81.3231	1803.22	75.2111	1803.22	81.6398	1803.22	78.683	1803.22	81.4222	1803.22	78.5506	1803.22	81.5974	1803.22	75.5095	1803.22	81.0873	1803.22	75.6836	1803.22	79.7019	1803.22	76.5858	1803.22	79.4565	1803.22	70.4972	1803.22	76.8885	1803.22	61.667	1803.22	69.393	1803.22	54.5447	1803.22	66.3405	1803.22	65.044	1803.22	73.2837	1803.22	67.3511	1803.22	74.5788	1803.22	74.849
1866.21	93.4705	1866.21	92.3717	1866.21	92.4285	1866.21	89.8263	1866.21	88.6534	1866.21	85.5595	1866.21	81.0087	1866.21	80.5131	1866.21	80.3506	1866.21	78.537	1866.21	83.0485	1866.21	72.4679	1866.21	83.069	1866.21	79.7993	1866.21	83.204	1866.21	80.4279	1866.21	82.9599	1866.21	77.5662	1866.21	84.0826	1866.21	74.5406	1866.21	83.192	1866.21	74.8918	1866.21	78.2194	1866.21	78.7121	1866.21	78.1718	1866.21	75.4917	1866.21	77.8693	1866.21	64.4843	1866.21	75.8251	1866.21	65.8636	1866.21	70.8571	1866.21	69.4009	1866.21	71.0611	1866.21	71.9767	1866.21	77.1209	1866.21	77.1189
1932.13	93.0356	1932.13	92.3641	1932.13	91.1976	1932.13	89.2433	1932.13	87.8339	1932.13	85.7431	1932.13	81.2231	1932.13	83.1628	1932.13	84.6414	1932.13	78.7451	1932.13	86.9379	1932.13	78.4462	1932.13	86.7615	1932.13	79.4438	1932.13	84.2332	1932.13	71.73	1932.13	83.1092	1932.13	77.2496	1932.13	82.8638	1932.13	75.7698	1932.13	79.4357	1932.13	51.7213	1932.13	81.1743	1932.13	72.6104	1932.13	80.0923	1932.13	75.8593	1932.13	77.9023	1932.13	68.0123	1932.13	77.5015	1932.13	69.7563	1932.13	72.5408	1932.13	71.8153	1932.13	67.6442	1932.13	75.4872	1932.13	75.8698	1932.13	76.6084
1999.51	92.5014	1999.51	92.2901	1999.51	89.516	1999.51	90.2789	1999.51	84.4612	1999.51	87.9069	1999.51	79.5517	1999.51	85.0181	1999.51	85.4547	1999.51	78.7542	1999.51	87.497	1999.51	77.9318	1999.51	86.3589	1999.51	77.4158	1999.51	86.1752	1999.51	74.5903	1999.51	85.1128	1999.51	75.0121	1999.51	84.0353	1999.51	79.8981	1999.51	85.6759	1999.51	80.793	1999.51	80.1818	1999.51	68.9917	1999.51	75.3329	1999.51	76.6281	1999.51	78.5467	1999.51	75.1555	1999.51	77.3037	1999.51	65.439	1999.51	77.5921	1999.51	69.5107	1999.51	66.5068	1999.51	73.1973	1999.51	74.8733	1999.51	77.014
2069.82	92.6827	2069.82	91.9944	2069.82	90.7634	2069.82	90.7946	2069.82	84.9054	2069.82	87.7993	2069.82	81.1897	2069.82	83.2566	2069.82	86.8776	2069.82	77.4635	2069.82	89.0638	2069.82	82.3046	2069.82	87.2767	2069.82	80.809	2069.82	86.5517	2069.82	80.4393	2069.82	85.6018	2069.82	80.6387	2069.82	82.596	2069.82	82.3057	2069.82	81.8691	2069.82	83.4789	2069.82	81.1748	2069.82	81.2466	2069.82	80.8387	2069.82	71.927	2069.82	78.0348	2069.82	72.1325	2069.82	78.6167	2069.82	73.9467	2069.82	76.2464	2069.82	75.6738	2069.82	71.0387	2069.82	71.7138	2069.82	79.9816	2069.82	78.2326
2143.07	93.0034	2143.07	92.1362	2143.07	91.777	2143.07	90.5227	2143.07	85.2222	2143.07	87.8726	2143.07	83.3033	2143.07	84.8354	2143.07	87.1735	2143.07	83.9368	2143.07	88.7699	2143.07	82.2138	2143.07	88.5027	2143.07	74.3864	2143.07	87.4154	2143.07	84.0193	2143.07	86.2469	2143.07	80.7898	2143.07	82.4981	2143.07	72.153	2143.07	83.277	2143.07	77.4692	2143.07	82.3021	2143.07	80.4453	2143.07	81.8783	2143.07	72.7547	2143.07	75.7936	2143.07	74.7069	2143.07	75.662	2143.07	66.5764	2143.07	77.961	2143.07	77.131	2143.07	57.7298	2143.07	75.4944	2143.07	81.0092	2143.07	78.1935
2219.24	91.8038	2219.24	92.3015	2219.24	90.6159	2219.24	90.227	2219.24	85.8424	2219.24	86.8117	2219.24	84.7244	2219.24	85.4198	2219.24	88.4699	2219.24	82.6152	2219.24	89.2614	2219.24	81.1041	2219.24	88.8813	2219.24	82.5961	2219.24	85.2144	2219.24	77.6418	2219.24	83.4769	2219.24	77.3695	2219.24	83.6381	2219.24	79.2126	2219.24	78.8027	2219.24	75.0314	2219.24	83.3991	2219.24	78.2319	2219.24	82.1963	2219.24	74.5612	2219.24	79.4314	2219.24	78.1638	2219.24	72.3886	2219.24	73.9091	2219.24	73.8827	2219.24	73.5135	2219.24	64.8163	2219.24	73.4414	2219.24	78.4856	2219.24	76.9389
2296.88	91.7857	2296.88	91.8961	2296.88	89.9343	2296.88	90.2431	2296.88	84.6774	2296.88	88.8478	2296.88	85.996	2296.88	85.0261	2296.88	89.1197	2296.88	80.5534	2296.88	89.7662	2296.88	83.8303	2296.88	88.0714	2296.88	81.5388	2296.88	85.788	2296.88	80.8589	2296.88	83.5087	2296.88	80.1528	2296.88	82.424	2296.88	79.4124	2296.88	80.5449	2296.88	78.7538	2296.88	79.9956	2296.88	75.8758	2296.88	81.8888	2296.88	76.0693	2296.88	80.7729	2296.88	72.1979	2296.88	74.5801	2296.88	75.4993	2296.88	73.7243	2296.88	70.346	2296.88	66.5548	2296.88	76.2181	2296.88	77.0546	2296.88	73.6788
2378.91	92.5015	2378.91	92.2271	2378.91	90.673	2378.91	90.7366	2378.91	86.0105	2378.91	88.7676	2378.91	85.6223	2378.91	84.5563	2378.91	89.8324	2378.91	84.0432	2378.91	89.6647	2378.91	82.7458	2378.91	88.3671	2378.91	82.7088	2378.91	85.5766	2378.91	84.868	2378.91	86.647	2378.91	79.7572	2378.91	86.4778	2378.91	79.5341	2378.91	78.42	2378.91	79.1423	2378.91	75.986	2378.91	73.7643	2378.91	76.4998	2378.91	77.3656	2378.91	80.8977	2378.91	73.7292	2378.91	75.6852	2378.91	72.264	2378.91	69.0624	2378.91	71.9707	2378.91	69.4601	2378.91	75.5192	2378.91	77.3404	2378.91	76.6384
2462.4	92.2937	2462.4	92.2315	2462.4	90.179	2462.4	91.0288	2462.4	87.4543	2462.4	87.7588	2462.4	85.3451	2462.4	85.7812	2462.4	89.4675	2462.4	85.5322	2462.4	89.9667	2462.4	83.2501	2462.4	88.642	2462.4	81.6462	2462.4	86.9613	2462.4	79.1964	2462.4	83.2344	2462.4	80.2688	2462.4	81.8636	2462.4	77.284	2462.4	73.1148	2462.4	78.5515	2462.4	78.9613	2462.4	77.4626	2462.4	76.0703	2462.4	75.4159	2462.4	79.3863	2462.4	75.6177	2462.4	76.4258	2462.4	74.4686	2462.4	72.2819	2462.4	69.2483	2462.4	70.1424	2462.4	76.0201	2462.4	77.9479	2462.4	74.1147
2548.83	91.8676	2548.83	92.1833	2548.83	89.9295	2548.83	90.7173	2548.83	86.1476	2548.83	88.2881	2548.83	87.4937	2548.83	86.9209	2548.83	89.1916	2548.83	84.5186	2548.83	90.0734	2548.83	82.1221	2548.83	88.6146	2548.83	82.575	2548.83	87.4143	2548.83	81.1674	2548.83	83.7462	2548.83	81.0792	2548.83	81.4098	2548.83	80.8452	2548.83	78.1286	2548.83	78.4454	2548.83	71.2486	2548.83	77.1528	2548.83	77.7072	2548.83	74.2048	2548.83	79.8058	2548.83	77.0856	2548.83	77.6026	2548.83	70.2585	2548.83	72.8972	2548.83	73.6167	2548.83	71.2073	2548.83	76.3535	2548.83	76.3254	2548.83	75.4624
2639.65	92.3539	2639.65	92.528	2639.65	90.9611	2639.65	90.6107	2639.65	86.9895	2639.65	88.9805	2639.65	87.2063	2639.65	85.6721	2639.65	89.45	2639.65	84.3423	2639.65	89.8828	2639.65	85.1197	2639.65	88.8056	2639.65	83.6817	2639.65	86.416	2639.65	83.4252	2639.65	83.8991	2639.65	82.8028	2639.65	81.7134	2639.65	79.1885	2639.65	78.3109	2639.65	78.4927	2639.65	73.8204	2639.65	76.8085	2639.65	77.0495	2639.65	74.3472	2639.65	78.1131	2639.65	75.4108	2639.65	77.2814	2639.65	75.3379	2639.65	74.3561	2639.65	67.8095	2639.65	66.3616	2639.65	74.1863	2639.65	76.7006	2639.65	74.7799
2731.93	92.8571	2731.93	92.6378	2731.93	90.4631	2731.93	91.2184	2731.93	87.7392	2731.93	88.5869	2731.93	87.6477	2731.93	85.8899	2731.93	89.454	2731.93	85.1958	2731.93	90.1586	2731.93	84.7873	2731.93	88.9765	2731.93	82.9072	2731.93	86.7041	2731.93	81.6738	2731.93	81.8482	2731.93	78.695	2731.93	77.2002	2731.93	78.7885	2731.93	72.9266	2731.93	78.6601	2731.93	75.4295	2731.93	76.426	2731.93	79.5076	2731.93	75.5755	2731.93	78.3429	2731.93	75.9108	2731.93	75.8391	2731.93	74.2569	2731.93	70.1976	2731.93	73.2991	2731.93	68.7824	2731.93	75.5306	2731.93	75.4397	2731.93	73.8391
2828.61	92.3461	2828.61	92.1975	2828.61	90.8298	2828.61	91.8575	2828.61	87.7293	2828.61	87.9604	2828.61	87.4062	2828.61	86.2848	2828.61	89.4092	2828.61	85.1285	2828.61	90.0622	2828.61	84.8605	2828.61	88.6371	2828.61	82.1388	2828.61	86.6212	2828.61	83.8526	2828.61	83.3003	2828.61	81.2226	2828.61	78.0909	2828.61	81.1963	2828.61	77.1882	2828.61	79.982	2828.61	75.1977	2828.61	77.2953	2828.61	79.8723	2828.61	76.5535	2828.61	77.1013	2828.61	75.2097	2828.61	77.4725	2828.61	76.7147	2828.61	69.2904	2828.61	71.1643	2828.61	71.1342	2828.61	73.5088	2828.61	75.3644	2828.61	76.4394
2928.22	92.3368	2928.22	92.4707	2928.22	90.9639	2928.22	91.1177	2928.22	88.9293	2928.22	88.7672	2928.22	87.7693	2928.22	86.1191	2928.22	89.3114	2928.22	85.8277	2928.22	89.6906	2928.22	83.9908	2928.22	88.2886	2928.22	84.1461	2928.22	86.6814	2928.22	79.44	2928.22	82.5633	2928.22	81.1366	2928.22	74.0962	2928.22	78.5008	2928.22	77.2082	2928.22	79.4552	2928.22	80.1441	2928.22	77.5231	2928.22	78.2253	2928.22	75.4492	2928.22	77.1267	2928.22	76.2941	2928.22	76.6912	2928.22	74.0317	2928.22	67.6206	2928.22	73.8342	2928.22	72.8054	2928.22	74.5945	2928.22	75.1684	2928.22	75.1769
3030.76	92.1054	3030.76	93.3196	3030.76	91.3631	3030.76	91.5393	3030.76	88.9078	3030.76	89.0226	3030.76	88.3571	3030.76	86.9436	3030.76	88.8902	3030.76	84.6913	3030.76	89.1308	3030.76	85.6704	3030.76	88.3111	3030.76	83.2017	3030.76	86.6103	3030.76	84.2154	3030.76	80.7536	3030.76	82.3338	3030.76	61.9845	3030.76	80.1343	3030.76	81.0359	3030.76	78.302	3030.76	80.2972	3030.76	77.7667	3030.76	74.8217	3030.76	74.9261	3030.76	77.9542	3030.76	77.7658	3030.76	75.2706	3030.76	76.9879	3030.76	68.0357	3030.76	75.2877	3030.76	72.9983	3030.76	73.4179	3030.76	76.4996	3030.76	77.9532
3137.7	91.6579	3137.7	92.4761	3137.7	91.1449	3137.7	91.5328	3137.7	90.3736	3137.7	89.1444	3137.7	88.4901	3137.7	87.4109	3137.7	88.3946	3137.7	85.8205	3137.7	88.5842	3137.7	85.4694	3137.7	88.3824	3137.7	82.5876	3137.7	86.9742	3137.7	81.7733	3137.7	78.8726	3137.7	82.257	3137.7	77.851	3137.7	80.1788	3137.7	82.6747	3137.7	79.4915	3137.7	78.902	3137.7	77.7664	3137.7	75.7914	3137.7	74.541	3137.7	77.1583	3137.7	76.165	3137.7	77.0212	3137.7	75.6703	3137.7	59.2109	3137.7	74.7954	3137.7	72.0591	3137.7	74.1629	3137.7	76.5411	3137.7	74.8812
3249.02	92.4055	3249.02	93.1212	3249.02	90.7122	3249.02	90.6413	3249.02	90.6684	3249.02	89.4218	3249.02	89.488	3249.02	86.8671	3249.02	87.8498	3249.02	86.8593	3249.02	88.5153	3249.02	85.5582	3249.02	88.4206	3249.02	85.7206	3249.02	87.642	3249.02	82.3117	3249.02	80.1551	3249.02	79.8788	3249.02	81.1802	3249.02	78.7084	3249.02	82.2119	3249.02	78.3319	3249.02	80.2754	3249.02	77.482	3249.02	77.8992	3249.02	71.9567	3249.02	77.6914	3249.02	77.8148	3249.02	76.271	3249.02	76.2636	3249.02	55.8819	3249.02	76.1563	3249.02	72.4801	3249.02	74.1216	3249.02	73.8673	3249.02	74.3238
3363.28	92.5514	3363.28	92.3267	3363.28	89.8438	3363.28	91.8589	3363.28	90.6513	3363.28	88.5157	3363.28	88.9331	3363.28	87.7098	3363.28	87.4544	3363.28	87.297	3363.28	87.9205	3363.28	86.5169	3363.28	88.3754	3363.28	83.811	3363.28	87.6134	3363.28	81.4275	3363.28	79.3884	3363.28	80.1938	3363.28	83.7224	3363.28	78.2565	3363.28	83.8141	3363.28	77.1324	3363.28	76.1446	3363.28	77.5776	3363.28	77.7286	3363.28	72.9613	3363.28	76.361	3363.28	77.195	3363.28	76.2342	3363.28	75.7877	3363.28	57.2283	3363.28	74.0505	3363.28	71.2504	3363.28	73.0694	3363.28	73.3133	3363.28	75.7194
3481.93	92.5856	3481.93	92.3395	3481.93	90.6292	3481.93	90.9956	3481.93	90.8355	3481.93	88.5383	3481.93	89.5822	3481.93	88.1481	3481.93	86.8568	3481.93	87.954	3481.93	87.1592	3481.93	85.8203	3481.93	89.0865	3481.93	82.9657	3481.93	85.5291	3481.93	81.8606	3481.93	79.2851	3481.93	81.3656	3481.93	82.2227	3481.93	78.5581	3481.93	83.5011	3481.93	77.2911	3481.93	80.1861	3481.93	75.5637	3481.93	74.9949	3481.93	73.2357	3481.93	73.0572	3481.93	74.4453	3481.93	75.3003	3481.93	77.0382	3481.93	58.6012	3481.93	74.8557	3481.93	72.0116	3481.93	74.2851	3481.93	75.1413	3481.93	76.8839
3604.98	91.68	3604.98	92.6923	3604.98	89.6054	3604.98	91.3229	3604.98	90.4693	3604.98	88.2898	3604.98	89.967	3604.98	88.2457	3604.98	86.9142	3604.98	87.3835	3604.98	87.0661	3604.98	85.0237	3604.98	88.9709	3604.98	83.3151	3604.98	83.0619	3604.98	80	3604.98	80.9844	3604.98	77.8647	3604.98	79.7926	3604.98	76.0703	3604.98	81.7788	3604.98	76.7005	3604.98	78.593	3604.98	75.6136	3604.98	74.6975	3604.98	70.992	3604.98	68.591	3604.98	75.024	3604.98	73.7797	3604.98	76.6747	3604.98	61.3367	3604.98	73.3107	3604.98	72.7574	3604.98	72.5172	3604.98	74.0041	3604.98	77.0287
3732.42	92.3015	3732.42	92.8425	3732.42	90.4279	3732.42	90.5764	3732.42	90.0427	3732.42	89.6887	3732.42	90.4562	3732.42	88.3112	3732.42	86.7317	3732.42	87.1576	3732.42	87.4224	3732.42	85.1467	3732.42	88.3962	3732.42	83.0436	3732.42	80.1581	3732.42	81.1939	3732.42	81.6283	3732.42	76.5384	3732.42	69.0258	3732.42	78.9843	3732.42	75.5015	3732.42	72.0679	3732.42	74.6973	3732.42	76.2622	3732.42	75.0014	3732.42	71.3749	3732.42	73.4869	3732.42	72.9	3732.42	70.3445	3732.42	75.7532	3732.42	68.3849	3732.42	71.2587	3732.42	71.7329	3732.42	66.1634	3732.42	74.084	3732.42	74.1834
3864.26	91.8979	3864.26	92.2289	3864.26	89.5569	3864.26	90.4118	3864.26	89.9195	3864.26	89.7921	3864.26	90.279	3864.26	88.2704	3864.26	86.1123	3864.26	86.4836	3864.26	86.2564	3864.26	85.3971	3864.26	86.3832	3864.26	83.4516	3864.26	80.0919	3864.26	82.2304	3864.26	82.5943	3864.26	78.9285	3864.26	72.1697	3864.26	78.0797	3864.26	57.8854	3864.26	74.4946	3864.26	69.3194	3864.26	72.0469	3864.26	75.2786	3864.26	70.0162	3864.26	73.0924	3864.26	70.16	3864.26	70.0951	3864.26	75.231	3864.26	70.4732	3864.26	71.0561	3864.26	70.2081	3864.26	68.1805	3864.26	72.2205	3864.26	73.1092
4000.49	92.5845	4000.49	92.1477	4000.49	90.8225	4000.49	89.9438	4000.49	89.7681	4000.49	90.2716	4000.49	90.882	4000.49	87.8789	4000.49	86.8481	4000.49	85.8556	4000.49	84.9027	4000.49	84.6615	4000.49	84.8087	4000.49	81.6755	4000.49	83.6368	4000.49	81.0583	4000.49	84.9933	4000.49	78.9307	4000.49	73.8026	4000.49	78.059	4000.49	72.1311	4000.49	74.8039	4000.49	77.3856	4000.49	76.3562	4000.49	75.0894	4000.49	65.5713	4000.49	73.5496	4000.49	74.3439	4000.49	70.1562	4000.49	73.5748	4000.49	70.3598	4000.49	71.8914	4000.49	70.4389	4000.49	70.9693	4000.49	70.3717	4000.49	73.5082
4141.11	92.5689	4141.11	91.8103	4141.11	90.1815	4141.11	91.2275	4141.11	90.1957	4141.11	89.436	4141.11	90.0842	4141.11	87.9661	4141.11	87.0459	4141.11	84.8032	4141.11	84.5155	4141.11	83.6936	4141.11	86.1156	4141.11	80.9771	4141.11	85.6542	4141.11	78.969	4141.11	84.4958	4141.11	80.3459	4141.11	73.6999	4141.11	77.743	4141.11	74.918	4141.11	76.4465	4141.11	80.9914	4141.11	73.5573	4141.11	76.4792	4141.11	71.3247	4141.11	72.4949	4141.11	74.2935	4141.11	71.9131	4141.11	73.1435	4141.11	70.7891	4141.11	71.6859	4141.11	70.5695	4141.11	71.6835	4141.11	71.2717	4141.11	73.3455
4287.6	92.9736	4287.6	92.2872	4287.6	90.7377	4287.6	90.8859	4287.6	90.472	4287.6	89.5209	4287.6	90.1795	4287.6	86.79	4287.6	86.9261	4287.6	85.3597	4287.6	83.9914	4287.6	81.739	4287.6	86.5486	4287.6	81.0468	4287.6	85.6217	4287.6	80.1376	4287.6	85.6282	4287.6	76.3887	4287.6	69.5103	4287.6	75.1551	4287.6	78.6944	4287.6	75.122	4287.6	80.7717	4287.6	74.8988	4287.6	75.327	4287.6	71.7219	4287.6	74.4595	4287.6	73.9169	4287.6	72.9516	4287.6	75.468	4287.6	70.5239	4287.6	72.0521	4287.6	70.1267	4287.6	68.8746	4287.6	75.4234	4287.6	69.3237
4438.48	92.7247	4438.48	91.9013	4438.48	91.1872	4438.48	91.4477	4438.48	89.6107	4438.48	89.0136	4438.48	89.7531	4438.48	86.6808	4438.48	87.4846	4438.48	85.6197	4438.48	84.8149	4438.48	83.3974	4438.48	84.8352	4438.48	81.453	4438.48	86.6225	4438.48	78.1804	4438.48	83.8847	4438.48	80.0281	4438.48	78.9346	4438.48	78.6078	4438.48	79.9458	4438.48	73.6564	4438.48	75.6873	4438.48	72.5872	4438.48	75.1848	4438.48	71.1661	4438.48	76.7137	4438.48	72.4761	4438.48	69.8518	4438.48	75.7852	4438.48	72.1676	4438.48	71.4401	4438.48	70.0739	4438.48	70.0453	4438.48	75.1397	4438.48	69.9404
4595.21	92.792	4595.21	92.9847	4595.21	91.3997	4595.21	91.3646	4595.21	90.2247	4595.21	89.269	4595.21	90.4876	4595.21	86.8328	4595.21	87.6925	4595.21	85.6291	4595.21	83.4105	4595.21	81.7899	4595.21	84.3975	4595.21	80.5234	4595.21	86.7346	4595.21	78.686	4595.21	82.2776	4595.21	76.2986	4595.21	77.0476	4595.21	74.4934	4595.21	75.383	4595.21	76.4089	4595.21	66.7501	4595.21	73.4064	4595.21	72.0039	4595.21	70.4843	4595.21	74.3497	4595.21	70.8979	4595.21	63.9559	4595.21	74.9557	4595.21	71.1019	4595.21	71.3144	4595.21	69.4666	4595.21	68.3604	4595.21	75.219	4595.21	73.602
4756.35	92.6495	4756.35	92.5047	4756.35	92.261	4756.35	91.23	4756.35	90.7719	4756.35	89.5942	4756.35	90.6822	4756.35	87.3341	4756.35	87.8291	4756.35	84.9296	4756.35	83.9115	4756.35	83.321	4756.35	83.5986	4756.35	81.0751	4756.35	86.2318	4756.35	79.0953	4756.35	78.0188	4756.35	78.3128	4756.35	78.4886	4756.35	76.5799	4756.35	71.8242	4756.35	74.5998	4756.35	63.5204	4756.35	73.1176	4756.35	67.3048	4756.35	72.4848	4756.35	69.1819	4756.35	69.3094	4756.35	58.4382	4756.35	72.1545	4756.35	70.1869	4756.35	70.0637	4756.35	70.2052	4756.35	65.5651	4756.35	73.9307	4756.35	74.6549
4924.8	92.7244	4924.8	92.6625	4924.8	91.2264	4924.8	90.9253	4924.8	90.3966	4924.8	89.5353	4924.8	89.7485	4924.8	87.6051	4924.8	88.3374	4924.8	84.4469	4924.8	82.4989	4924.8	82.7931	4924.8	83.8907	4924.8	80.7183	4924.8	84.4814	4924.8	78.7805	4924.8	77.8711	4924.8	76.2673	4924.8	76.5098	4924.8	75.9086	4924.8	71.2911	4924.8	74.7725	4924.8	69.3016	4924.8	72.6344	4924.8	66.8073	4924.8	71.1287	4924.8	67.6998	4924.8	70.2771	4924.8	67.9704	4924.8	70.7557	4924.8	71.8388	4924.8	68.4944	4924.8	67.7163	4924.8	63.1716	4924.8	72.5243	4924.8	72.045
5097.66	93.1189	5097.66	92.5231	5097.66	91.6766	5097.66	90.535	5097.66	90.3174	5097.66	90.1638	5097.66	89.2956	5097.66	86.9497	5097.66	87.3428	5097.66	85.0005	5097.66	79.7476	5097.66	82.2033	5097.66	83.7314	5097.66	80.0412	5097.66	82.317	5097.66	77.0931	5097.66	77.3469	5097.66	76.6301	5097.66	76.7935	5097.66	75.7489	5097.66	71.0209	5097.66	73.0693	5097.66	72.3589	5097.66	72.5779	5097.66	72.3052	5097.66	72.1745	5097.66	73.9361	5097.66	69.6586	5097.66	66.7724	5097.66	72.0099	5097.66	68.7562	5097.66	68.925	5097.66	67.0868	5097.66	62.6386	5097.66	71.347	5097.66	69.3159
5277.83	92.8279	5277.83	92.0379	5277.83	92.0389	5277.83	90.6609	5277.83	90.7169	5277.83	90.0098	5277.83	89.0059	5277.83	86.6919	5277.83	86.3019	5277.83	85.4282	5277.83	78.716	5277.83	81.5405	5277.83	82.4154	5277.83	80.1843	5277.83	81.327	5277.83	77.4058	5277.83	78.7476	5277.83	75.983	5277.83	73.817	5277.83	75.989	5277.83	70.4024	5277.83	74.3856	5277.83	70.9715	5277.83	71.5867	5277.83	73.4117	5277.83	72.8887	5277.83	71.9174	5277.83	70.9656	5277.83	63.1299	5277.83	72.3937	5277.83	70.5663	5277.83	67.544	5277.83	65.353	5277.83	60.844	5277.83	71.9763	5277.83	70.4584
5463.87	92.3087	5463.87	92.1753	5463.87	92.4286	5463.87	90.6037	5463.87	90.7625	5463.87	89.7107	5463.87	88.747	5463.87	86.7116	5463.87	86.1987	5463.87	84.3305	5463.87	77.5548	5463.87	81.6023	5463.87	80.2317	5463.87	79.8235	5463.87	81.1866	5463.87	77.4576	5463.87	81.0931	5463.87	76.2853	5463.87	75.6872	5463.87	73.4485	5463.87	62.803	5463.87	73.7321	5463.87	68.5006	5463.87	71.8199	5463.87	70.2973	5463.87	72.0644	5463.87	70.4362	5463.87	71.437	5463.87	66.8313	5463.87	74.4226	5463.87	70.933	5463.87	70.1327	5463.87	68.5714	5463.87	51.7942	5463.87	72.2981	5463.87	68.6847
5657.23	92.8806	5657.23	91.6439	5657.23	91.6421	5657.23	90.7959	5657.23	91.5561	5657.23	89.0643	5657.23	89.1155	5657.23	86.115	5657.23	86.79	5657.23	83.9993	5657.23	80.2947	5657.23	81.3532	5657.23	80.7379	5657.23	79.5501	5657.23	80.9677	5657.23	75.6722	5657.23	80.9261	5657.23	74.6255	5657.23	74.908	5657.23	74.1475	5657.23	69.2028	5657.23	71.8966	5657.23	70.2514	5657.23	71.6141	5657.23	70.9988	5657.23	70.2834	5657.23	69.6236	5657.23	69.3435	5657.23	68.3152	5657.23	73.1826	5657.23	68.7359	5657.23	69.8604	5657.23	67.6897	5657.23	57.3995	5657.23	71.8845	5657.23	69.5986
5856.45	92.7758	5856.45	91.3043	5856.45	91.326	5856.45	91.0238	5856.45	91.6155	5856.45	89.0629	5856.45	88.8008	5856.45	85.717	5856.45	86.9915	5856.45	83.6101	5856.45	80.8145	5856.45	80.6535	5856.45	81.0028	5856.45	78.1515	5856.45	80.2384	5856.45	75.4795	5856.45	81.2807	5856.45	74.1411	5856.45	77.3074	5856.45	72.63	5856.45	66.0557	5856.45	72.9403	5856.45	57.1377	5856.45	70.3881	5856.45	73.0659	5856.45	71.0706	5856.45	67.7867	5856.45	67.0401	5856.45	69.1287	5856.45	72.4693	5856.45	66.8143	5856.45	69.6168	5856.45	60.8014	5856.45	58.5029	5856.45	70.6396	5856.45	69.2879
6062.99	92.551	6062.99	91.374	6062.99	91.2757	6062.99	90.6869	6062.99	91.0266	6062.99	89.0257	6062.99	88.6163	6062.99	84.5227	6062.99	87.7221	6062.99	83.6646	6062.99	82.0891	6062.99	79.4903	6062.99	77.7495	6062.99	78.8852	6062.99	82.141	6062.99	75.14	6062.99	80.8513	6062.99	73.567	6062.99	77.0543	6062.99	72.6156	6062.99	70.6883	6062.99	71.6808	6062.99	65.6698	6062.99	70.0525	6062.99	72.2841	6062.99	69.9393	6062.99	66.7033	6062.99	68.9399	6062.99	66.6485	6062.99	71.2594	6062.99	65.498	6062.99	70.2404	6062.99	58.9947	6062.99	59.3349	6062.99	70.6484	6062.99	69.2879
6276.86	92.0424	6276.86	91.2138	6276.86	91.1688	6276.86	90.4936	6276.86	90.6322	6276.86	88.6787	6276.86	88.0145	6276.86	84.9551	6276.86	88.1645	6276.86	83.2904	6276.86	82.4183	6276.86	80.5404	6276.86	78.3107	6276.86	78.984	6276.86	80.7365	6276.86	77.1532	6276.86	82.0704	6276.86	74.716	6276.86	76.2765	6276.86	73.8641	6276.86	68.2117	6276.86	71.2863	6276.86	69.3454	6276.86	70.8686	6276.86	69.4719	6276.86	70.9936	6276.86	68.3122	6276.86	69.5621	6276.86	67.5197	6276.86	71.0711	6276.86	68.3927	6276.86	71.3882	6276.86	60.8401	6276.86	60.1644	6276.86	68.6058	6276.86	68.2413
6498.05	91.7063	6498.05	91.2626	6498.05	91.0985	6498.05	90.5346	6498.05	90.3375	6498.05	88.3797	6498.05	87.712	6498.05	85.0592	6498.05	88.0598	6498.05	83.2585	6498.05	82.4515	6498.05	81.5105	6498.05	77.6652	6498.05	78.775	6498.05	81.724	6498.05	76.738	6498.05	81.1585	6498.05	73.4234	6498.05	76.7032	6498.05	73.0263	6498.05	71.5643	6498.05	71.7348	6498.05	67.4823	6498.05	71.5008	6498.05	62.8489	6498.05	70.3823	6498.05	65.9488	6498.05	69.4476	6498.05	61.0537	6498.05	72.3419	6498.05	66.5058	6498.05	71.9743	6498.05	63.3339	6498.05	64.8196	6498.05	70.2186	6498.05	66.0838
6726.56	91.7322	6726.56	91.2406	6726.56	90.8666	6726.56	90.4108	6726.56	90.1635	6726.56	88.5097	6726.56	87.2368	6726.56	85.4715	6726.56	87.4459	6726.56	83.7133	6726.56	83.8061	6726.56	81.3392	6726.56	77.3237	6726.56	79.3105	6726.56	83.0089	6726.56	76.707	6726.56	77.5917	6726.56	75.3882	6726.56	77.5181	6726.56	72.4558	6726.56	72.0893	6726.56	70.9294	6726.56	67.154	6726.56	70.1168	6726.56	50.8015	6726.56	70.4292	6726.56	56.2281	6726.56	69.5401	6726.56	55.6504	6726.56	72.7788	6726.56	68.6617	6726.56	71.5924	6726.56	64.8335	6726.56	67.087	6726.56	69.6366	6726.56	65.7389
6963.87	91.571	6963.87	91.2841	6963.87	90.6502	6963.87	90.209	6963.87	90.3238	6963.87	88.6405	6963.87	86.7235	6963.87	85.316	6963.87	86.1484	6963.87	83.6036	6963.87	84.2784	6963.87	80.9813	6963.87	76.0311	6963.87	79.3931	6963.87	82.0808	6963.87	76.8198	6963.87	74.293	6963.87	74.0624	6963.87	72.6071	6963.87	71.9939	6963.87	69.2558	6963.87	70.3911	6963.87	63.6759	6963.87	70.0546	6963.87	40.7134	6963.87	69.9767	6963.87	55.4991	6963.87	70.377	6963.87	48.5961	6963.87	70.7404	6963.87	67.6647	6963.87	72.8595	6963.87	56.4415	6963.87	65.2864	6963.87	67.9819	6963.87	63.6108
7209.96	91.4185	7209.96	90.9072	7209.96	90.7498	7209.96	90.0715	7209.96	90.2603	7209.96	88.6602	7209.96	86.7446	7209.96	84.88	7209.96	84.1488	7209.96	83.0461	7209.96	85.0076	7209.96	80.9672	7209.96	73.6338	7209.96	79.1045	7209.96	80.6021	7209.96	76.2462	7209.96	68.7984	7209.96	74.8403	7209.96	75.5376	7209.96	70.8831	7209.96	69.8507	7209.96	71.0197	7209.96	55.2898	7209.96	69.9268	7209.96	55.2339	7209.96	69.6626	7209.96	56.5951	7209.96	69.2103	7209.96	54.9325	7209.96	71.5673	7209.96	63.2136	7209.96	72.2376	7209.96	60.0907	7209.96	68.0376	7209.96	68.0618	7209.96	63.5641
7464.84	91.3359	7464.84	91.1294	7464.84	90.8816	7464.84	90.2227	7464.84	89.9145	7464.84	88.2698	7464.84	87.2504	7464.84	84.8428	7464.84	82.543	7464.84	83.5783	7464.84	84.696	7464.84	80.9025	7464.84	72.1605	7464.84	78.8404	7464.84	75.4172	7464.84	75.3972	7464.84	73.8387	7464.84	72.353	7464.84	73.9613	7464.84	71.099	7464.84	68.851	7464.84	69.5878	7464.84	57.1823	7464.84	67.7082	7464.84	53.5205	7464.84	69.5274	7464.84	54.0935	7464.84	68.6973	7464.84	56.5751	7464.84	69.6041	7464.84	64.7007	7464.84	71.292	7464.84	54.9931	7464.84	66.8463	7464.84	67.6279	7464.84	61.5474
7727.05	91.4628	7727.05	91.1104	7727.05	91.0134	7727.05	90.3264	7727.05	89.9689	7727.05	88.0654	7727.05	87.5648	7727.05	85.3598	7727.05	83.3394	7727.05	83.59	7727.05	84.2265	7727.05	80.6854	7727.05	70.8596	7727.05	78.0137	7727.05	76.2965	7727.05	74.5228	7727.05	77.6536	7727.05	73.7359	7727.05	73.4576	7727.05	70.2793	7727.05	61.2126	7727.05	69.2514	7727.05	62.8406	7727.05	68.5839	7727.05	47.1287	7727.05	69.1567	7727.05	59.5185	7727.05	67.5096	7727.05	53.7208	7727.05	69.241	7727.05	66.0074	7727.05	71.6746	7727.05	55.6633	7727.05	68.1983	7727.05	66.2575	7727.05	60.8215
7999.51	91.501	7999.51	91.1718	7999.51	90.9898	7999.51	90.0447	7999.51	89.6502	7999.51	88.1241	7999.51	87.5252	7999.51	85.0456	7999.51	84.6289	7999.51	83.391	7999.51	82.9368	7999.51	79.8078	7999.51	72.5851	7999.51	77.7527	7999.51	75.2678	7999.51	74.3898	7999.51	77.4273	7999.51	72.9944	7999.51	75.574	7999.51	70.3439	7999.51	69.6672	7999.51	68.5323	7999.51	64.591	7999.51	67.2928	7999.51	52.1737	7999.51	68.941	7999.51	57.9795	7999.51	68.1667	7999.51	48.4234	7999.51	69.6885	7999.51	63.8963	7999.51	71.2	7999.51	52.5695	7999.51	67.9579	7999.51	66.3151	7999.51	56.2069
8282.23	91.8231	8282.23	91.049	8282.23	91.1707	8282.23	89.9869	8282.23	89.3901	8282.23	87.7072	8282.23	87.0018	8282.23	83.8673	8282.23	84.7276	8282.23	83.0192	8282.23	81.407	8282.23	78.8471	8282.23	77.2118	8282.23	77.1154	8282.23	74.8224	8282.23	73.566	8282.23	77.6027	8282.23	71.1342	8282.23	73.3516	8282.23	69.6246	8282.23	68.1416	8282.23	67.5499	8282.23	63.481	8282.23	66.0294	8282.23	55.3783	8282.23	67.4395	8282.23	50.7516	8282.23	67.9321	8282.23	55.3183	8282.23	66.9658	8282.23	64.0698	8282.23	71.3193	8282.23	54.8398	8282.23	69.0638	8282.23	64.6449	8282.23	58.0168
8573.73	92.1399	8573.73	91.3204	8573.73	91.3155	8573.73	90.1367	8573.73	89.7063	8573.73	87.2675	8573.73	85.7206	8573.73	84.4884	8573.73	83.3162	8573.73	82.5995	8573.73	80.1223	8573.73	78.7208	8573.73	79.0875	8573.73	75.9819	8573.73	75.2951	8573.73	73.8255	8573.73	77.3667	8573.73	70.7626	8573.73	72.8552	8573.73	69.7919	8573.73	68.6552	8573.73	68.0316	8573.73	60.9537	8573.73	67.8847	8573.73	61.3056	8573.73	67.679	8573.73	52.8977	8573.73	67.6315	8573.73	53.6969	8573.73	67.9029	8573.73	64.6029	8573.73	71.0722	8573.73	58.0446	8573.73	69.0338	8573.73	63.5818	8573.73	54.7194
8876.95	92.2829	8876.95	92.0167	8876.95	91.7054	8876.95	89.8211	8876.95	89.2571	8876.95	87.5705	8876.95	85.1884	8876.95	84.4586	8876.95	81.8547	8876.95	81.5094	8876.95	79.9171	8876.95	79.0425	8876.95	79.7383	8876.95	75.9886	8876.95	73.276	8876.95	74.5905	8876.95	76.0482	8876.95	70.9265	8876.95	67.4613	8876.95	70.1056	8876.95	68.424	8876.95	68.4832	8876.95	55.181	8876.95	68.0495	8876.95	60.1757	8876.95	68.8016	8876.95	58.0575	8876.95	68.1801	8876.95	50.8088	8876.95	68.3703	8876.95	59.3899	8876.95	71.3983	8876.95	60.2176	8876.95	69.3187	8876.95	63.5568	8876.95	56.36
9188.96	92.8361	9188.96	92.2261	9188.96	92.0202	9188.96	89.5168	9188.96	89.4366	9188.96	87.962	9188.96	86.207	9188.96	83.6322	9188.96	80.9389	9188.96	82.1457	9188.96	81.4547	9188.96	78.8941	9188.96	79.6769	9188.96	77.075	9188.96	67.1424	9188.96	73.8091	9188.96	75.4958	9188.96	70.6522	9188.96	66.3631	9188.96	68.8878	9188.96	64.3991	9188.96	68.6792	9188.96	54.7711	9188.96	67.0992	9188.96	55.4553	9188.96	67.5637	9188.96	59.9349	9188.96	67.1488	9188.96	53.9338	9188.96	68.5262	9188.96	57.2756	9188.96	70.6527	9188.96	57.8253	9188.96	69.6675	9188.96	60.8018	9188.96	54.425
9514.16	93.3202	9514.16	92.2438	9514.16	91.9467	9514.16	89.9149	9514.16	89.4504	9514.16	87.8031	9514.16	86.9073	9514.16	84.8536	9514.16	81.7938	9514.16	82.9238	9514.16	83.9375	9514.16	80.4402	9514.16	79.2488	9514.16	77.2578	9514.16	64.4711	9514.16	74.6995	9514.16	76.4588	9514.16	71.0531	9514.16	70.4647	9514.16	71.1362	9514.16	68.1487	9514.16	68.8772	9514.16	54.4141	9514.16	68.4512	9514.16	50.4753	9514.16	68.3751	9514.16	55.5362	9514.16	65.8165	9514.16	60.5293	9514.16	68.1439	9514.16	62.2969	9514.16	70.2933	9514.16	58.1074	9514.16	70.1538	9514.16	63.4785	9514.16	58.6829
9849.61	93.2434	9849.61	92.1101	9849.61	91.8624	9849.61	89.8897	9849.61	89.1262	9849.61	88.3195	9849.61	87.3	9849.61	85.5408	9849.61	84.7753	9849.61	83.8326	9849.61	85.3352	9849.61	81.5999	9849.61	78.7097	9849.61	78.3506	9849.61	70.9116	9849.61	76.5395	9849.61	75.7549	9849.61	72.6025	9849.61	73.6856	9849.61	71.8062	9849.61	70.2961	9849.61	69.0351	9849.61	57.3804	9849.61	68.5994	9849.61	60.6276	9849.61	69.4583	9849.61	57.0179	9849.61	67.727	9849.61	61.5531	9849.61	69.9613	9849.61	59.875	9849.61	70.9756	9849.61	53.7706	9849.61	70.647	9849.61	62.0823	9849.61	59.1431
10196.8	92.989	10196.8	91.8445	10196.8	91.5631	10196.8	89.9738	10196.8	88.9208	10196.8	89.2805	10196.8	88.3751	10196.8	85.9712	10196.8	86.069	10196.8	85.2214	10196.8	84.4538	10196.8	82.3407	10196.8	79.0429	10196.8	79.7651	10196.8	74.3889	10196.8	76.5849	10196.8	77.8748	10196.8	72.6379	10196.8	71.4128	10196.8	71.5056	10196.8	70.3911	10196.8	69.0376	10196.8	63.4207	10196.8	69.4289	10196.8	54.9615	10196.8	68.8473	10196.8	61.6265	10196.8	68.4012	10196.8	63.1603	10196.8	70.0767	10196.8	51.8428	10196.8	70.2711	10196.8	53.0046	10196.8	70.4464	10196.8	61.6617	10196.8	55.8919
10555.7	92.7298	10555.7	91.0189	10555.7	90.9714	10555.7	90.8064	10555.7	89.0195	10555.7	89.6132	10555.7	88.8427	10555.7	87.7512	10555.7	87.8131	10555.7	85.8661	10555.7	83.819	10555.7	83.6718	10555.7	80.4753	10555.7	79.4059	10555.7	76.023	10555.7	77.0237	10555.7	79.017	10555.7	72.165	10555.7	70.8758	10555.7	72.4134	10555.7	66.6834	10555.7	68.5014	10555.7	66.3572	10555.7	69.67	10555.7	60.6149	10555.7	70.0344	10555.7	59.8923	10555.7	68.2184	10555.7	64.3878	10555.7	70.027	10555.7	53.5657	10555.7	70.4261	10555.7	38.3389	10555.7	71.0396	10555.7	61.6744	10555.7	46.5121
10927.7	92.0344	10927.7	90.9624	10927.7	90.8153	10927.7	90.6644	10927.7	89.288	10927.7	90.5375	10927.7	88.9639	10927.7	87.6692	10927.7	87.5467	10927.7	86.4882	10927.7	83.5751	10927.7	83.1567	10927.7	81.6541	10927.7	79.1517	10927.7	79.058	10927.7	77.5499	10927.7	78.8723	10927.7	73.5535	10927.7	72.1025	10927.7	71.9637	10927.7	58.4842	10927.7	68.3197	10927.7	61.044	10927.7	69.0388	10927.7	52.6164	10927.7	68.907	10927.7	52.4932	10927.7	68.5475	10927.7	58.2448	10927.7	70.4684	10927.7	55.0889	10927.7	70.1067	10927.7	50.5793	10927.7	69.9766	10927.7	54.8886	10927.7	41.1251
11313	91.7113	11313	91.2409	11313	90.8878	11313	91.0341	11313	90.2429	11313	90.6632	11313	90.0594	11313	87.9477	11313	87.6814	11313	86.4845	11313	84.4502	11313	83.1205	11313	83.525	11313	79.1746	11313	79.484	11313	76.644	11313	75.9421	11313	71.8936	11313	71.0155	11313	70.8596	11313	64.6453	11313	69.0815	11313	52.018	11313	68.5947	11313	57.7862	11313	67.9602	11313	46.4777	11313	68.2785	11313	54.8269	11313	69.7012	11313	51.9888	11313	69.2166	11313	40.7863	11313	68.863	11313	52.4491	11313	58.3697
11712.9	91.6236	11712.9	91.5247	11712.9	91.437	11712.9	91.4829	11712.9	90.7051	11712.9	90.4512	11712.9	89.5646	11712.9	88.2564	11712.9	88.9158	11712.9	85.4637	11712.9	84.9329	11712.9	83.09	11712.9	84.8974	11712.9	78.4964	11712.9	76.4641	11712.9	76.6181	11712.9	72.975	11712.9	71.6903	11712.9	70.1653	11712.9	70.0216	11712.9	66.0137	11712.9	66.9576	11712.9	56.5803	11712.9	67.8913	11712.9	60.4916	11712.9	67.5147	11712.9	53.5455	11712.9	65.9621	11712.9	52.9479	11712.9	69.6543	11712.9	53.7944	11712.9	67.9105	11712.9	54.261	11712.9	68.5242	11712.9	57.2201	11712.9	56.2823
12126	92.0744	12126	92.4046	12126	91.8215	12126	91.8247	12126	91.4661	12126	91.0833	12126	90.1589	12126	87.5506	12126	89.1051	12126	85.8164	12126	85.0044	12126	82.5808	12126	84.2357	12126	78.3309	12126	74.9508	12126	74.5538	12126	72.3611	12126	70.4926	12126	67.0623	12126	67.6053	12126	66.0044	12126	67.0495	12126	62.4067	12126	66.6126	12126	60.0709	12126	66.4043	12126	44.745	12126	65.9743	12126	39.9722	12126	68.4144	12126	49.0414	12126	67.0839	12126	56.0686	12126	66.1365	12126	56.119	12126	53.8499
12553.7	92.3512	12553.7	92.8175	12553.7	92.0417	12553.7	92.3423	12553.7	91.8576	12553.7	91.2686	12553.7	89.253	12553.7	87.7265	12553.7	87.7846	12553.7	85.1459	12553.7	83.1454	12553.7	82.6137	12553.7	83.2381	12553.7	76.3951	12553.7	75.9805	12553.7	75.0001	12553.7	71.3475	12553.7	69.8003	12553.7	64.6348	12553.7	67.1617	12553.7	66.4169	12553.7	66.0023	12553.7	61.0539	12553.7	66.3491	12553.7	58.676	12553.7	65.3771	12553.7	43.0115	12553.7	64.8686	12553.7	43.2697	12553.7	67.683	12553.7	51.007	12553.7	64.8917	12553.7	58.8067	12553.7	65.772	12553.7	55.3897	12553.7	55.852
12996.1	92.4575	12996.1	93.0879	12996.1	91.9813	12996.1	92.367	12996.1	92.0704	12996.1	91.3762	12996.1	89.4768	12996.1	87.0734	12996.1	86.2646	12996.1	85.0786	12996.1	82.9297	12996.1	81.3917	12996.1	81.09	12996.1	76.2678	12996.1	73.328	12996.1	73.6568	12996.1	68.5712	12996.1	69.0033	12996.1	63.9183	12996.1	66.8034	12996.1	62.7754	12996.1	65.9848	12996.1	59.3616	12996.1	65.4941	12996.1	62.5036	12996.1	62.68	12996.1	46.0503	12996.1	64.5756	12996.1	50.0122	12996.1	65.0984	12996.1	54.1434	12996.1	64.073	12996.1	54.3369	12996.1	65.0571	12996.1	58.2691	12996.1	54.6111
13454.6	92.7226	13454.6	93.2391	13454.6	92.2786	13454.6	92.5091	13454.6	91.9337	13454.6	90.9605	13454.6	89.3072	13454.6	87.505	13454.6	86.4073	13454.6	84.4417	13454.6	83.8937	13454.6	81.2633	13454.6	79.9441	13454.6	75.6996	13454.6	72.0878	13454.6	73.1757	13454.6	58.8297	13454.6	68.1928	13454.6	62.6839	13454.6	66.8221	13454.6	61.7875	13454.6	64.5285	13454.6	59.3394	13454.6	64.6505	13454.6	57.7018	13454.6	64.3066	13454.6	41.176	13454.6	64.8786	13454.6	44.9317	13454.6	66.0623	13454.6	54.97	13454.6	62.9459	13454.6	54.3596	13454.6	64.0779	13454.6	55.6007	13454.6	48.8931
13929.2	93.0502	13929.2	93.4013	13929.2	92.7471	13929.2	92.6628	13929.2	92.1623	13929.2	90.8062	13929.2	89.5951	13929.2	87.5043	13929.2	85.8246	13929.2	84.3875	13929.2	82.2947	13929.2	80.8725	13929.2	79.059	13929.2	75.8881	13929.2	71.6772	13929.2	72.4487	13929.2	62.1184	13929.2	68.3228	13929.2	60.6982	13929.2	65.7118	13929.2	61.6306	13929.2	63.8035	13929.2	59.6735	13929.2	64.9953	13929.2	52.985	13929.2	64.8051	13929.2	44.0286	13929.2	64.8237	13929.2	41.9824	13929.2	65.8224	13929.2	56.3343	13929.2	61.4766	13929.2	56.7451	13929.2	64.5393	13929.2	56.8844	13929.2	46.6979
14419.9	93.486	14419.9	93.4873	14419.9	93.4114	14419.9	92.7335	14419.9	92.8016	14419.9	90.8578	14419.9	89.1381	14419.9	87.5659	14419.9	86.1143	14419.9	84.4107	14419.9	79.0003	14419.9	81.2143	14419.9	77.8485	14419.9	75.5718	14419.9	66.0242	14419.9	72.52	14419.9	61.6248	14419.9	67.4962	14419.9	54.5809	14419.9	64.9437	14419.9	59.9441	14419.9	64.226	14419.9	57.7245	14419.9	65.0596	14419.9	49.799	14419.9	64.5535	14419.9	49.4782	14419.9	64.3076	14419.9	50.6697	14419.9	65.6033	14419.9	59.3065	14419.9	60.3723	14419.9	57.8884	14419.9	65.0133	14419.9	57.0345	14419.9	52.173
14928.2	94.1721	14928.2	93.7378	14928.2	94.2789	14928.2	92.8981	14928.2	93.2635	14928.2	91.0542	14928.2	89.4723	14928.2	87.3841	14928.2	84.9104	14928.2	84.313	14928.2	78.4588	14928.2	81.0827	14928.2	75.1802	14928.2	74.8945	14928.2	64.2077	14928.2	71.8769	14928.2	57.5138	14928.2	67.0037	14928.2	49.2459	14928.2	64.8472	14928.2	60.6687	14928.2	63.4928	14928.2	56.9701	14928.2	63.995	14928.2	50.2344	14928.2	64.1698	14928.2	49.2264	14928.2	62.5484	14928.2	51.2407	14928.2	63.5375	14928.2	57.2556	14928.2	56.1886	14928.2	58.5769	14928.2	62.3326	14928.2	54.6726	14928.2	52.0999
15455.6	94.8111	15455.6	94.0803	15455.6	94.8353	15455.6	92.9971	15455.6	93.2254	15455.6	91.0969	15455.6	89.0215	15455.6	86.8347	15455.6	83.7956	15455.6	83.5973	15455.6	78.0847	15455.6	80.2115	15455.6	74.3521	15455.6	73.1807	15455.6	63.5247	15455.6	70.6558	15455.6	58.3892	15455.6	64.8324	15455.6	51.7905	15455.6	63.005	15455.6	58.8505	15455.6	61.9013	15455.6	58.0637	15455.6	63.2389	15455.6	48.6875	15455.6	62.6468	15455.6	45.6255	15455.6	59.4974	15455.6	52.4526	15455.6	62.0906	15455.6	55.6948	15455.6	50.3269	15455.6	59.4127	15455.6	60.5304	15455.6	50.191	15455.6	52.1818
16000.5	95.3314	16000.5	94.5135	16000.5	94.9505	16000.5	92.9079	16000.5	92.5901	16000.5	90.6308	16000.5	87.9651	16000.5	85.6395	16000.5	82.356	16000.5	82.0472	16000.5	76.3546	16000.5	78.1317	16000.5	73.1479	16000.5	70.63	16000.5	65.2142	16000.5	68.5602	16000.5	58.6454	16000.5	62.0185	16000.5	49.2246	16000.5	59.8845	16000.5	58.7372	16000.5	59.3611	16000.5	55.4171	16000.5	60.7395	16000.5	43.9639	16000.5	59.5941	16000.5	37.6039	16000.5	56.0742	16000.5	49.0551	16000.5	59.1106	16000.5	55.484	16000.5	47.8656	16000.5	57.9891	16000.5	56.1206	16000.5	51.226	16000.5	55.0509
16564.5	95.5023	16564.5	94.6504	16564.5	94.5219	16564.5	92.3025	16564.5	91.5952	16564.5	89.2835	16564.5	86.3654	16564.5	83.487	16564.5	80.2682	16564.5	79.2977	16564.5	74.3183	16564.5	74.9246	16564.5	69.8962	16564.5	66.4787	16564.5	67.5105	16564.5	65.1246	16564.5	50.9813	16564.5	57.6466	16564.5	53.6485	16564.5	55.7484	16564.5	60.7351	16564.5	55.6253	16564.5	45.1356	16564.5	56.5108	16564.5	47.3722	16564.5	55.4856	16564.5	37.0343	16564.5	52.7388	16564.5	49.7194	16564.5	55.432	16564.5	52.0216	16564.5	51.0514	16564.5	54.7697	16564.5	48.5504	16564.5	50.3401	16564.5	58.7365
17148.9	95.1564	17148.9	94.1982	17148.9	93.7342	17148.9	91.3334	17148.9	90.4662	17148.9	87.2727	17148.9	84.4072	17148.9	80.6272	17148.9	77.6411	17148.9	75.3385	17148.9	71.3481	17148.9	71.0933	17148.9	63.5533	17148.9	62.7847	17148.9	61.7004	17148.9	61.0254	17148.9	54.6133	17148.9	50.2467	17148.9	47.0505	17148.9	49.3323	17148.9	58.8886	17148.9	50.4155	17148.9	51.8765	17148.9	51.297	17148.9	46.1412	17148.9	52.1822	17148.9	20.7124	17148.9	50.2013	17148.9	46.6246	17148.9	49.1978	17148.9	47.8915	17148.9	51.0067	17148.9	47.2989	17148.9	38.1401	17148.9	38.5178	17148.9	54.5316
17752.4	94.4789	17752.4	93.4725	17752.4	92.8816	17752.4	90.1985	17752.4	89.3191	17752.4	85.3197	17752.4	82.8794	17752.4	77.4777	17752.4	75.9775	17752.4	71.7419	17752.4	67.782	17752.4	67.6416	17752.4	59.6827	17752.4	58.3584	17752.4	59.7518	17752.4	57.4576	17752.4	49.0246	17752.4	46.0058	17752.4	48.3256	17752.4	42.0885	17752.4	56.3595	17752.4	44.476	17752.4	53.2213	17752.4	47.7844	17752.4	40.0721	17752.4	50.2368	17752.4	30.8999	17752.4	48.3093	17752.4	36.4989	17752.4	42.9724	17752.4	37.6631	17752.4	49.434	17752.4	44.5239	17752.4	41.424	17752.4	34.2276	17752.4	46.0278
18379.4	93.8271	18379.4	92.7346	18379.4	92.1236	18379.4	89.1374	18379.4	88.2998	18379.4	83.6435	18379.4	81.7232	18379.4	74.8147	18379.4	74.4135	18379.4	68.8985	18379.4	64.1111	18379.4	65.1935	18379.4	53.8729	18379.4	58.4361	18379.4	53.3963	18379.4	56.3437	18379.4	47.1952	18379.4	46.3112	18379.4	50.2156	18379.4	40.0624	18379.4	54.9589	18379.4	45.4014	18379.4	54.5176	18379.4	46.7404	18379.4	39.3465	18379.4	48.0674	18379.4	16.0155	18379.4	44.5334	18379.4	18.4905	18379.4	43.6514	18379.4	35.236	18379.4	46.8625	18379.4	39.7876	18379.4	35.2237	18379.4	38.7502	18379.4	50.8056
19026.9	93.0008	19026.9	91.9766	19026.9	91.3577	19026.9	88.2418	19026.9	87.413	19026.9	82.0486	19026.9	80.3951	19026.9	71.76	19026.9	71.1964	19026.9	66.9193	19026.9	55.9239	19026.9	64.6918	19026.9	51.5884	19026.9	59.4726	19026.9	53.5555	19026.9	56.9219	19026.9	47.2174	19026.9	49.1494	19026.9	47.8873	19026.9	43.9449	19026.9	53.6716	19026.9	47.5459	19026.9	55.2871	19026.9	46.8673	19026.9	40.8015	19026.9	46.3853	19026.9	33.9535	19026.9	44.8498	19026.9	30.9781	19026.9	48.2262	19026.9	38.0417	19026.9	40.7854	19026.9	32.6674	19026.9	48.0031	19026.9	40.6261	19026.9	45.1187
19697.8	92.0066	19697.8	91.1324	19697.8	90.5262	19697.8	87.4203	19697.8	86.7363	19697.8	80.2221	19697.8	79.2635	19697.8	66.9572	19697.8	65.8953	19697.8	66.4395	19697.8	52.8794	19697.8	64.3741	19697.8	58.3463	19697.8	59.9501	19697.8	58.3006	19697.8	55.9952	19697.8	51.8062	19697.8	49.2493	19697.8	47.4375	19697.8	43.988	19697.8	52.9795	19697.8	46.6502	19697.8	54.5601	19697.8	45.7549	19697.8	39.657	19697.8	47.7015	19697.8	33.5651	19697.8	48.3483	19697.8	34.8192	19697.8	51.0066	19697.8	34.1338	19697.8	30.8381	19697.8	37.9871	19697.8	48.014	19697.8	45.9997	19697.8	42.8492
19999.5	91.6833	19999.5	90.5905	19999.5	89.8903	19999.5	86.7907	19999.5	86.2352	19999.5	79.2572	19999.5	78.429	19999.5	63.0669	19999.5	63.8194	19999.5	67.4629	19999.5	41.0867	19999.5	64.7319	19999.5	59.2983	19999.5	61.9406	19999.5	60.1145	19999.5	58.9738	19999.5	48.2312	19999.5	56.2363	19999.5	51.3927	19999.5	50.6887	19999.5	52.6111	19999.5	49.9934	19999.5	53.3497	19999.5	48.6142	19999.5	43.0024	19999.5	47.8282	19999.5	33.6756	19999.5	50.4462	19999.5	40.4365	19999.5	49.9201	19999.5	44.9519	19999.5	28.2878	19999.5	45.5149	19999.5	48.0883	19999.5	40.0599	19999.5	43.5901
