"SPL Horizontal"
"On-Axis"		"10°"		"-10°"		"20°"		"-20°"		"30°"		"-30°"		"40°"		"-40°"		"50°"		"-50°"		"60°"		"-60°"		"70°"		"-70°"		"80°"		"-80°"		"90°"		"-90°"		"100°"		"-100°"		"110°"		"-110°"		"120°"		"-120°"		"130°"		"-130°"		"140°"		"-140°"		"150°"		"-150°"		"160°"		"-160°"		"170°"		"-170°"		"180°"
"Frequency / Hz"	"Sound Pressure Level / dB (re 20 µPa/V)  [2.83  V @ 1. m]"	"Frequency / Hz"	"Sound Pressure Level / dB (re 20 µPa/V)  [2.83  V @ 1. m]"	"Frequency / Hz"	"Sound Pressure Level / dB (re 20 µPa/V)  [2.83  V @ 1. m]"	"Frequency / Hz"	"Sound Pressure Level / dB (re 20 µPa/V)  [2.83  V @ 1. m]"	"Frequency / Hz"	"Sound Pressure Level / dB (re 20 µPa/V)  [2.83  V @ 1. m]"	"Frequency / Hz"	"Sound Pressure Level / dB (re 20 µPa/V)  [2.83  V @ 1. m]"	"Frequency / Hz"	"Sound Pressure Level / dB (re 20 µPa/V)  [2.83  V @ 1. m]"	"Frequency / Hz"	"Sound Pressure Level / dB (re 20 µPa/V)  [2.83  V @ 1. m]"	"Frequency / Hz"	"Sound Pressure Level / dB (re 20 µPa/V)  [2.83  V @ 1. m]"	"Frequency / Hz"	"Sound Pressure Level / dB (re 20 µPa/V)  [2.83  V @ 1. m]"	"Frequency / Hz"	"Sound Pressure Level / dB (re 20 µPa/V)  [2.83  V @ 1. m]"	"Frequency / Hz"	"Sound Pressure Level / dB (re 20 µPa/V)  [2.83  V @ 1. m]"	"Frequency / Hz"	"Sound Pressure Level / dB (re 20 µPa/V)  [2.83  V @ 1. m]"	"Frequency / Hz"	"Sound Pressure Level / dB (re 20 µPa/V)  [2.83  V @ 1. m]"	"Frequency / Hz"	"Sound Pressure Level / dB (re 20 µPa/V)  [2.83  V @ 1. m]"	"Frequency / Hz"	"Sound Pressure Level / dB (re 20 µPa/V)  [2.83  V @ 1. m]"	"Frequency / Hz"	"Sound Pressure Level / dB (re 20 µPa/V)  [2.83  V @ 1. m]"	"Frequency / Hz"	"Sound Pressure Level / dB (re 20 µPa/V)  [2.83  V @ 1. m]"	"Frequency / Hz"	"Sound Pressure Level / dB (re 20 µPa/V)  [2.83  V @ 1. m]"	"Frequency / Hz"	"Sound Pressure Level / dB (re 20 µPa/V)  [2.83  V @ 1. m]"	"Frequency / Hz"	"Sound Pressure Level / dB (re 20 µPa/V)  [2.83  V @ 1. m]"	"Frequency / Hz"	"Sound Pressure Level / dB (re 20 µPa/V)  [2.83  V @ 1. m]"	"Frequency / Hz"	"Sound Pressure Level / dB (re 20 µPa/V)  [2.83  V @ 1. m]"	"Frequency / Hz"	"Sound Pressure Level / dB (re 20 µPa/V)  [2.83  V @ 1. m]"	"Frequency / Hz"	"Sound Pressure Level / dB (re 20 µPa/V)  [2.83  V @ 1. m]"	"Frequency / Hz"	"Sound Pressure Level / dB (re 20 µPa/V)  [2.83  V @ 1. m]"	"Frequency / Hz"	"Sound Pressure Level / dB (re 20 µPa/V)  [2.83  V @ 1. m]"	"Frequency / Hz"	"Sound Pressure Level / dB (re 20 µPa/V)  [2.83  V @ 1. m]"	"Frequency / Hz"	"Sound Pressure Level / dB (re 20 µPa/V)  [2.83  V @ 1. m]"	"Frequency / Hz"	"Sound Pressure Level / dB (re 20 µPa/V)  [2.83  V @ 1. m]"	"Frequency / Hz"	"Sound Pressure Level / dB (re 20 µPa/V)  [2.83  V @ 1. m]"	"Frequency / Hz"	"Sound Pressure Level / dB (re 20 µPa/V)  [2.83  V @ 1. m]"	"Frequency / Hz"	"Sound Pressure Level / dB (re 20 µPa/V)  [2.83  V @ 1. m]"	"Frequency / Hz"	"Sound Pressure Level / dB (re 20 µPa/V)  [2.83  V @ 1. m]"	"Frequency / Hz"	"Sound Pressure Level / dB (re 20 µPa/V)  [2.83  V @ 1. m]"	"Frequency / Hz"	"Sound Pressure Level / dB (re 20 µPa/V)  [2.83  V @ 1. m]"
20.5078	39.4371	20.5078	38.6353	20.5078	40.9122	20.5078	38.7395	20.5078	42.665	20.5078	39.5357	20.5078	44.4366	20.5078	40.6216	20.5078	46.1138	20.5078	41.7186	20.5078	47.6551	20.5078	42.6913	20.5078	49.0429	20.5078	43.4759	20.5078	50.2629	20.5078	44.0342	20.5078	51.2962	20.5078	44.3339	20.5078	52.1189	20.5078	44.3408	20.5078	52.7037	20.5078	44.0188	20.5078	53.0236	20.5078	43.343	20.5078	53.0539	20.5078	42.354	20.5078	52.7748	20.5078	41.3259	20.5078	52.1718	20.5078	41.0082	20.5078	51.234	20.5078	42.105	20.5078	49.9532	20.5078	44.1641	20.5078	48.3247	20.5078	46.3625
21.9727	56.4214	21.9727	56.5344	21.9727	56.3218	21.9727	56.6614	21.9727	56.2351	21.9727	56.8032	21.9727	56.1615	21.9727	56.9597	21.9727	56.1026	21.9727	57.1297	21.9727	56.0611	21.9727	57.3102	21.9727	56.0409	21.9727	57.4964	21.9727	56.0459	21.9727	57.6813	21.9727	56.0791	21.9727	57.8562	21.9727	56.1413	21.9727	58.0103	21.9727	56.2317	21.9727	58.1323	21.9727	56.3502	21.9727	58.2115	21.9727	56.4988	21.9727	58.2412	21.9727	56.6802	21.9727	58.2207	21.9727	56.8922	21.9727	58.1552	21.9727	57.1236	21.9727	58.0531	21.9727	57.3561	21.9727	57.921	21.9727	57.5719	21.9727	57.7609
23.4375	59.3758	23.4375	59.3776	23.4375	59.3826	23.4375	59.3871	23.4375	59.3992	23.4375	59.4036	23.4375	59.4267	23.4375	59.4269	23.4375	59.4659	23.4375	59.4568	23.4375	59.5165	23.4375	59.4925	23.4375	59.5768	23.4375	59.532	23.4375	59.6432	23.4375	59.5716	23.4375	59.7097	23.4375	59.6067	23.4375	59.7692	23.4375	59.6323	23.4375	59.8143	23.4375	59.6442	23.4375	59.8395	23.4375	59.6403	23.4375	59.8426	23.4375	59.622	23.4375	59.8251	23.4375	59.595	23.4375	59.791	23.4375	59.5696	23.4375	59.7453	23.4375	59.557	23.4375	59.6929	23.4375	59.565	23.4375	59.64	23.4375	59.5946
24.9023	63.1338	24.9023	63.151	24.9023	63.1121	24.9023	63.1638	24.9023	63.0862	24.9023	63.1722	24.9023	63.0562	24.9023	63.1764	24.9023	63.0221	24.9023	63.1765	24.9023	62.9837	24.9023	63.1722	24.9023	62.9399	24.9023	63.1621	24.9023	62.8894	24.9023	63.1444	24.9023	62.8298	24.9023	63.1163	24.9023	62.7591	24.9023	63.0749	24.9023	62.6765	24.9023	63.018	24.9023	62.5846	24.9023	62.9451	24.9023	62.4909	24.9023	62.8583	24.9023	62.4078	24.9023	62.7629	24.9023	62.3485	24.9023	62.666	24.9023	62.322	24.9023	62.5742	24.9023	62.3293	24.9023	62.4917	24.9023	62.365	24.9023	62.421
26.3672	67.8671	26.3672	67.8621	26.3672	67.8689	26.3672	67.8541	26.3672	67.8673	26.3672	67.8433	26.3672	67.8623	26.3672	67.8298	26.3672	67.8539	26.3672	67.8138	26.3672	67.8423	26.3672	67.7948	26.3672	67.8277	26.3672	67.7725	26.3672	67.8103	26.3672	67.7461	26.3672	67.7903	26.3672	67.715	26.3672	67.7675	26.3672	67.6791	26.3672	67.7418	26.3672	67.6392	26.3672	67.7129	26.3672	67.5971	26.3672	67.6811	26.3672	67.556	26.3672	67.6469	26.3672	67.5196	26.3672	67.6112	26.3672	67.492	26.3672	67.5752	26.3672	67.4766	26.3672	67.5408	26.3672	67.4752	26.3672	67.5104	26.3672	67.4873
27.832	70.9167	27.832	70.8821	27.832	70.9501	27.832	70.8461	27.832	70.9823	27.832	70.8085	27.832	71.0131	27.832	70.7691	27.832	71.0418	27.832	70.7279	27.832	71.0678	27.832	70.6846	27.832	71.0895	27.832	70.6397	27.832	71.105	27.832	70.5935	27.832	71.1115	27.832	70.547	27.832	71.1059	27.832	70.5018	27.832	71.0852	27.832	70.46	27.832	71.0476	27.832	70.4248	27.832	70.9932	27.832	70.3997	27.832	70.9246	27.832	70.3888	27.832	70.8458	27.832	70.3951	27.832	70.7617	27.832	70.4205	27.832	70.6772	27.832	70.4644	27.832	70.5967	27.832	70.5243
29.2969	73.7862	29.2969	73.7686	29.2969	73.7938	29.2969	73.7409	29.2969	73.7918	29.2969	73.7028	29.2969	73.7804	29.2969	73.6541	29.2969	73.76	29.2969	73.5951	29.2969	73.7307	29.2969	73.5259	29.2969	73.6928	29.2969	73.4473	29.2969	73.6463	29.2969	73.3605	29.2969	73.5908	29.2969	73.2673	29.2969	73.5257	29.2969	73.1705	29.2969	73.4507	29.2969	73.0738	29.2969	73.3658	29.2969	72.9818	29.2969	73.2725	29.2969	72.8999	29.2969	73.174	29.2969	72.8332	29.2969	73.0748	29.2969	72.7861	29.2969	72.9808	29.2969	72.7616	29.2969	72.8978	29.2969	72.7611	29.2969	72.8312	29.2969	72.7848
30.7617	76.3397	30.7617	76.3311	30.7617	76.3392	30.7617	76.3131	30.7617	76.3295	30.7617	76.2855	30.7617	76.3108	30.7617	76.2479	30.7617	76.2829	30.7617	76.2001	30.7617	76.2458	30.7617	76.1416	30.7617	76.1996	30.7617	76.0724	30.7617	76.1444	30.7617	75.9929	30.7617	76.0802	30.7617	75.9042	30.7617	76.0074	30.7617	75.8086	30.7617	75.9266	30.7617	75.7094	30.7617	75.8389	30.7617	75.6115	30.7617	75.7466	30.7617	75.5203	30.7617	75.6527	30.7617	75.4413	30.7617	75.5615	30.7617	75.3794	30.7617	75.4783	30.7617	75.3383	30.7617	75.4083	30.7617	75.3204	30.7617	75.3565	30.7617	75.3265
32.2266	78.8011	32.2266	78.7857	32.2266	78.8051	32.2266	78.7589	32.2266	78.7973	32.2266	78.7209	32.2266	78.7775	32.2266	78.6716	32.2266	78.7454	32.2266	78.6112	32.2266	78.7007	32.2266	78.5401	32.2266	78.6431	32.2266	78.459	32.2266	78.5729	32.2266	78.3689	32.2266	78.4909	32.2266	78.2717	32.2266	78.3983	32.2266	78.1699	32.2266	78.2974	32.2266	78.0669	32.2266	78.1909	32.2266	77.9667	32.2266	78.0828	32.2266	77.8735	32.2266	77.9771	32.2266	77.7919	32.2266	77.8787	32.2266	77.7259	32.2266	77.7927	32.2266	77.679	32.2266	77.724	32.2266	77.654	32.2266	77.6765	32.2266	77.6529
33.6914	81.2326	33.6914	81.2156	33.6914	81.2367	33.6914	81.1857	33.6914	81.2276	33.6914	81.1431	33.6914	81.2053	33.6914	81.0879	33.6914	81.1695	33.6914	81.0204	33.6914	81.1203	33.6914	80.941	33.6914	81.0578	33.6914	80.8509	33.6914	80.9828	33.6914	80.7515	33.6914	80.8963	33.6914	80.6454	33.6914	80.8	33.6914	80.5357	33.6914	80.6963	33.6914	80.4266	33.6914	80.5882	33.6914	80.3228	33.6914	80.4796	33.6914	80.2292	33.6914	80.3746	33.6914	80.1503	33.6914	80.2775	33.6914	80.0901	33.6914	80.1924	33.6914	80.0513	33.6914	80.123	33.6914	80.0353	33.6914	80.0723	33.6914	80.0426
35.1562	83.176	35.1562	83.1606	35.1562	83.1778	35.1562	83.1318	35.1562	83.166	35.1562	83.0896	35.1562	83.1406	35.1562	83.0342	35.1562	83.1013	35.1562	82.9659	35.1562	83.0484	35.1562	82.8854	35.1562	82.982	35.1562	82.7937	35.1562	82.9028	35.1562	82.6926	35.1562	82.812	35.1562	82.5844	35.1562	82.7114	35.1562	82.4725	35.1562	82.6035	35.1562	82.3611	35.1562	82.4918	35.1562	82.2548	35.1562	82.3801	35.1562	82.1583	35.1562	82.273	35.1562	82.0762	35.1562	82.175	35.1562	82.0122	35.1562	82.0904	35.1562	81.9688	35.1562	82.0229	35.1562	81.9479	35.1562	81.9755	35.1562	81.9502
36.6211	84.9607	36.6211	84.9507	36.6211	84.9561	36.6211	84.9261	36.6211	84.937	36.6211	84.8869	36.6211	84.9037	36.6211	84.8333	36.6211	84.8563	36.6211	84.7655	36.6211	84.7953	36.6211	84.6843	36.6211	84.7214	36.6211	84.5909	36.6211	84.6356	36.6211	84.4871	36.6211	84.5397	36.6211	84.3757	36.6211	84.436	36.6211	84.2604	36.6211	84.3275	36.6211	84.1458	36.6211	84.2178	36.6211	84.0368	36.6211	84.1108	36.6211	83.9388	36.6211	84.0108	36.6211	83.856	36.6211	83.9215	36.6211	83.7921	36.6211	83.8461	36.6211	83.7488	36.6211	83.7873	36.6211	83.7269	36.6211	83.7469	36.6211	83.7265
38.0859	86.6083	38.0859	86.5999	38.0859	86.595	38.0859	86.5697	38.0859	86.5604	38.0859	86.5177	38.0859	86.5052	38.0859	86.4444	38.0859	86.4301	38.0859	86.3506	38.0859	86.3366	38.0859	86.2378	38.0859	86.2265	38.0859	86.1083	38.0859	86.1025	38.0859	85.9656	38.0859	85.9678	38.0859	85.8144	38.0859	85.827	38.0859	85.6606	38.0859	85.6852	38.0859	85.5113	38.0859	85.5479	38.0859	85.3735	38.0859	85.4206	38.0859	85.2537	38.0859	85.3077	38.0859	85.1567	38.0859	85.212	38.0859	85.0849	38.0859	85.1349	38.0859	85.0386	38.0859	85.0765	38.0859	85.0165	38.0859	85.0369	38.0859	85.0165
39.5508	88.0614	39.5508	88.0568	39.5508	88.0414	39.5508	88.0273	39.5508	87.9969	39.5508	87.9732	39.5508	87.9284	39.5508	87.8948	39.5508	87.8367	39.5508	87.7929	39.5508	87.7233	39.5508	87.669	39.5508	87.5902	39.5508	87.5252	39.5508	87.4404	39.5508	87.3651	39.5508	87.2781	39.5508	87.1932	39.5508	87.1088	39.5508	87.0157	39.5508	86.9388	39.5508	86.8399	39.5508	86.775	39.5508	86.6737	39.5508	86.624	39.5508	86.5244	39.5508	86.4912	39.5508	86.3983	39.5508	86.3801	39.5508	86.2994	39.5508	86.2925	39.5508	86.2295	39.5508	86.229	39.5508	86.1887	39.5508	86.1899	39.5508	86.176
41.0156	89.3492	41.0156	89.3484	41.0156	89.3247	41.0156	89.322	41.0156	89.275	41.0156	89.2702	41.0156	89.2007	41.0156	89.1932	41.0156	89.1025	41.0156	89.0916	41.0156	88.9818	41.0156	88.9668	41.0156	88.8409	41.0156	88.8207	41.0156	88.6828	41.0156	88.6566	41.0156	88.5121	41.0156	88.4792	41.0156	88.3345	41.0156	88.2948	41.0156	88.157	41.0156	88.111	41.0156	87.9871	41.0156	87.9361	41.0156	87.8319	41.0156	87.7782	41.0156	87.6973	41.0156	87.6438	41.0156	87.5867	41.0156	87.5374	41.0156	87.5014	41.0156	87.4609	41.0156	87.4414	41.0156	87.4145	41.0156	87.4063	41.0156	87.3969
42.4805	90.1841	42.4805	90.1859	42.4805	90.1571	42.4805	90.1626	42.4805	90.105	42.4805	90.1144	42.4805	90.0282	42.4805	90.0419	42.4805	89.9274	42.4805	89.946	42.4805	89.804	42.4805	89.8279	42.4805	89.6602	42.4805	89.6899	42.4805	89.4993	42.4805	89.5351	42.4805	89.3257	42.4805	89.3678	42.4805	89.1454	42.4805	89.1936	42.4805	88.9655	42.4805	89.019	42.4805	88.7938	42.4805	88.8511	42.4805	88.6381	42.4805	88.6967	42.4805	88.5051	42.4805	88.5613	42.4805	88.3996	42.4805	88.4493	42.4805	88.3237	42.4805	88.3626	42.4805	88.2773	42.4805	88.3021	42.4805	88.259	42.4805	88.2675
43.9453	90.7471	43.9453	90.7529	43.9453	90.7159	43.9453	90.7335	43.9453	90.6594	43.9453	90.6894	43.9453	90.5782	43.9453	90.6214	43.9453	90.4733	43.9453	90.5308	43.9453	90.3465	43.9453	90.4194	43.9453	90.2006	43.9453	90.29	43.9453	90.0397	43.9453	90.1459	43.9453	89.8691	43.9453	89.9919	43.9453	89.6957	43.9453	89.8333	43.9453	89.5273	43.9453	89.6763	43.9453	89.3721	43.9453	89.5269	43.9453	89.2375	43.9453	89.3904	43.9453	89.129	43.9453	89.2708	43.9453	89.0492	43.9453	89.1706	43.9453	88.9979	43.9453	89.0906	43.9453	88.9729	43.9453	89.0309	43.9453	88.9714	43.9453	88.9911
45.4102	91.0476	45.4102	91.0541	45.4102	91.0148	45.4102	91.0344	45.4102	90.9557	45.4102	90.9894	45.4102	90.8709	45.4102	90.92	45.4102	90.7617	45.4102	90.8281	45.4102	90.63	45.4102	90.7159	45.4102	90.4791	45.4102	90.5865	45.4102	90.3137	45.4102	90.444	45.4102	90.1399	45.4102	90.2934	45.4102	89.9653	45.4102	90.1405	45.4102	89.7986	45.4102	89.9911	45.4102	89.6485	45.4102	89.851	45.4102	89.5225	45.4102	89.7248	45.4102	89.4258	45.4102	89.6154	45.4102	89.36	45.4102	89.5238	45.4102	89.3234	45.4102	89.4498	45.4102	89.3124	45.4102	89.392	45.4102	89.3223	45.4102	89.3494
46.875	91.3898	46.875	91.3911	46.875	91.3613	46.875	91.3656	46.875	91.3054	46.875	91.3142	46.875	91.2228	46.875	91.2387	46.875	91.1148	46.875	91.1411	46.875	90.9835	46.875	91.0245	46.875	90.8327	46.875	90.8928	46.875	90.6674	46.875	90.7508	46.875	90.4943	46.875	90.6042	46.875	90.3216	46.875	90.4591	46.875	90.1586	46.875	90.3215	46.875	90.0142	46.875	90.1964	46.875	89.896	46.875	90.0871	46.875	89.8086	46.875	89.9949	46.875	89.7528	46.875	89.9188	46.875	89.7259	46.875	89.857	46.875	89.723	46.875	89.8069	46.875	89.7383	46.875	89.7672
48.3398	91.7066	48.3398	91.7021	48.3398	91.6812	48.3398	91.6684	48.3398	91.6261	48.3398	91.6064	48.3398	91.5418	48.3398	91.5179	48.3398	91.4298	48.3398	91.4054	48.3398	91.2927	48.3398	91.2723	48.3398	91.1343	48.3398	91.1232	48.3398	90.9601	48.3398	90.964	48.3398	90.7776	48.3398	90.8018	48.3398	90.5956	48.3398	90.6442	48.3398	90.4244	48.3398	90.4987	48.3398	90.2737	48.3398	90.3713	48.3398	90.1517	48.3398	90.2659	48.3398	90.0627	48.3398	90.1829	48.3398	90.007	48.3398	90.12	48.3398	89.9805	48.3398	90.0728	48.3398	89.9763	48.3398	90.0367	48.3398	89.9874	48.3398	90.0084
51.2695	91.9801	51.2695	91.9773	51.2695	91.9477	51.2695	91.9398	51.2695	91.8802	51.2695	91.8684	51.2695	91.7781	51.2695	91.765	51.2695	91.6429	51.2695	91.6318	51.2695	91.4771	51.2695	91.4725	51.2695	91.2846	51.2695	91.292	51.2695	91.0711	51.2695	91.0968	51.2695	90.8448	51.2695	90.8948	51.2695	90.6158	51.2695	90.6952	51.2695	90.3962	51.2695	90.5071	51.2695	90.1983	51.2695	90.3384	51.2695	90.0334	51.2695	90.1945	51.2695	89.9088	51.2695	90.0772	51.2695	89.8267	51.2695	89.9849	51.2695	89.7838	51.2695	89.9135	51.2695	89.7731	51.2695	89.8582	51.2695	89.7861	51.2695	89.8157
52.7344	91.9569	52.7344	91.9488	52.7344	91.9287	52.7344	91.9053	52.7344	91.8644	52.7344	91.8275	52.7344	91.7643	52.7344	91.7172	52.7344	91.63	52.7344	91.5773	52.7344	91.4638	52.7344	91.4114	52.7344	91.2698	52.7344	91.2246	52.7344	91.0535	52.7344	91.0236	52.7344	90.823	52.7344	90.816	52.7344	90.5882	52.7344	90.6108	52.7344	90.3609	52.7344	90.4171	52.7344	90.1536	52.7344	90.2428	52.7344	89.9774	52.7344	90.0935	52.7344	89.8402	52.7344	89.9713	52.7344	89.7452	52.7344	89.8747	52.7344	89.6904	52.7344	89.8001	52.7344	89.6698	52.7344	89.7433	52.7344	89.6758	52.7344	89.7017
54.1992	91.9823	54.1992	91.9754	54.1992	91.9521	54.1992	91.9323	54.1992	91.8848	54.1992	91.8541	54.1992	91.7808	54.1992	91.743	54.1992	91.6413	54.1992	91.6018	54.1992	91.4687	54.1992	91.4343	54.1992	91.2669	54.1992	91.2456	54.1992	91.0415	54.1992	91.0423	54.1992	90.8008	54.1992	90.8319	54.1992	90.5549	54.1992	90.623	54.1992	90.3164	54.1992	90.4239	54.1992	90.0982	54.1992	90.2422	54.1992	89.9122	54.1992	90.0831	54.1992	89.7671	54.1992	89.9489	54.1992	89.6663	54.1992	89.839	54.1992	89.6084	54.1992	89.7509	54.1992	89.5879	54.1992	89.6818	54.1992	89.5973	54.1992	89.6301
55.6641	92.0213	55.6641	92.013	55.6641	91.9951	55.6641	91.9711	55.6641	91.9339	55.6641	91.8972	55.6641	91.8378	55.6641	91.7937	55.6641	91.7077	55.6641	91.6635	55.6641	91.5458	55.6641	91.5107	55.6641	91.3556	55.6641	91.3403	55.6641	91.1424	55.6641	91.1586	55.6641	90.914	55.6641	90.9725	55.6641	90.6802	55.6641	90.7892	55.6641	90.4532	55.6641	90.6154	55.6641	90.2459	55.6641	90.4563	55.6641	90.0706	55.6641	90.3152	55.6641	89.9364	55.6641	90.1929	55.6641	89.8475	55.6641	90.0883	55.6641	89.8026	55.6641	89.9994	55.6641	89.7956	55.6641	89.9244	55.6641	89.8184	55.6641	89.8632
58.5938	91.9618	58.5938	91.937	58.5938	91.9514	58.5938	91.8782	58.5938	91.9058	58.5938	91.7872	58.5938	91.8257	58.5938	91.667	58.5938	91.713	58.5938	91.5218	58.5938	91.5705	58.5938	91.3574	58.5938	91.4029	58.5938	91.181	58.5938	91.2163	58.5938	91.0011	58.5938	91.019	58.5938	90.8271	58.5938	90.8208	58.5938	90.668	58.5938	90.633	58.5938	90.5315	58.5938	90.4666	58.5938	90.4224	58.5938	90.3311	58.5938	90.3413	58.5938	90.2325	58.5938	90.2848	58.5938	90.1717	58.5938	90.2465	58.5938	90.1441	58.5938	90.219	58.5938	90.1415	58.5938	90.196	58.5938	90.1543	58.5938	90.1742
60.0586	91.9148	60.0586	91.8854	60.0586	91.9078	60.0586	91.8206	60.0586	91.8642	60.0586	91.7225	60.0586	91.7848	60.0586	91.5946	60.0586	91.6717	60.0586	91.4417	60.0586	91.5281	60.0586	91.2701	60.0586	91.3593	60.0586	91.0881	60.0586	91.1719	60.0586	90.9054	60.0586	90.9751	60.0586	90.7322	60.0586	90.7794	60.0586	90.5787	60.0586	90.5965	60.0586	90.4527	60.0586	90.4379	60.0586	90.3583	60.0586	90.3126	60.0586	90.295	60.0586	90.2256	60.0586	90.2573	60.0586	90.1763	60.0586	90.237	60.0586	90.1589	60.0586	90.2247	60.0586	90.1635	60.0586	90.2129	60.0586	90.1794	60.0586	90.1976
62.9883	91.7084	62.9883	91.6747	62.9883	91.7015	62.9883	91.6014	62.9883	91.6539	62.9883	91.4907	62.9883	91.567	62.9883	91.3463	62.9883	91.4432	62.9883	91.1736	62.9883	91.2867	62.9883	90.9802	62.9883	91.1035	62.9883	90.776	62.9883	90.9021	62.9883	90.5728	62.9883	90.693	62.9883	90.3836	62.9883	90.4889	62.9883	90.2213	62.9883	90.3033	62.9883	90.0956	62.9883	90.1488	62.9883	90.0113	62.9883	90.0343	62.9883	89.9669	62.9883	89.9631	62.9883	89.9543	62.9883	89.9317	62.9883	89.9613	62.9883	89.9308	62.9883	89.9748	62.9883	89.9472	62.9883	89.9838	62.9883	89.9676	62.9883	89.9816
64.4531	91.6151	64.4531	91.5756	64.4531	91.6126	64.4531	91.4953	64.4531	91.5684	64.4531	91.3766	64.4531	91.4836	64.4531	91.2234	64.4531	91.3606	64.4531	91.0414	64.4531	91.2038	64.4531	90.8387	64.4531	91.0192	64.4531	90.6258	64.4531	90.8155	64.4531	90.4154	64.4531	90.6037	64.4531	90.2216	64.4531	90.3969	64.4531	90.0577	64.4531	90.2094	64.4531	89.9343	64.4531	90.0541	64.4531	89.8564	64.4531	89.9406	64.4531	89.8218	64.4531	89.8722	64.4531	89.8214	64.4531	89.8445	64.4531	89.8418	64.4531	89.847	64.4531	89.8682	64.4531	89.8652	64.4531	89.8881	64.4531	89.8846	64.4531	89.894
67.3828	91.4789	67.3828	91.4287	67.3828	91.4837	67.3828	91.3339	67.3828	91.4434	67.3828	91.1967	67.3828	91.3596	67.3828	91.021	67.3828	91.2354	67.3828	90.8133	67.3828	91.0751	67.3828	90.5826	67.3828	90.8855	67.3828	90.341	67.3828	90.6755	67.3828	90.104	67.3828	90.4567	67.3828	89.8884	67.3828	90.2426	67.3828	89.711	67.3828	90.0482	67.3828	89.5843	67.3828	89.887	67.3828	89.5142	67.3828	89.769	67.3828	89.497	67.3828	89.6974	67.3828	89.5209	67.3828	89.6676	67.3828	89.5685	67.3828	89.6675	67.3828	89.6216	67.3828	89.6812	67.3828	89.6649	67.3828	89.6925	67.3828	89.6891
68.8477	91.4439	68.8477	91.3878	68.8477	91.4527	68.8477	91.2851	68.8477	91.415	68.8477	91.1377	68.8477	91.3325	68.8477	90.9496	68.8477	91.2085	68.8477	90.7271	68.8477	91.0479	68.8477	90.4797	68.8477	90.8574	68.8477	90.2207	68.8477	90.6464	68.8477	89.9665	68.8477	90.4267	68.8477	89.7365	68.8477	90.2122	68.8477	89.5493	68.8477	90.0178	68.8477	89.4197	68.8477	89.8572	68.8477	89.3541	68.8477	89.7399	68.8477	89.3486	68.8477	89.6685	68.8477	89.3893	68.8477	89.6375	68.8477	89.4563	68.8477	89.6342	68.8477	89.5288	68.8477	89.6421	68.8477	89.5899	68.8477	89.6446	68.8477	89.6292
71.7773	91.544	71.7773	91.4848	71.7773	91.551	71.7773	91.3733	71.7773	91.5071	71.7773	91.2111	71.7773	91.4147	71.7773	91.0015	71.7773	91.2777	71.7773	90.7505	71.7773	91.1018	71.7773	90.4677	71.7773	90.8946	71.7773	90.1672	71.7773	90.6666	71.7773	89.8677	71.7773	90.4307	71.7773	89.5923	71.7773	90.202	71.7773	89.3648	71.7773	89.9965	71.7773	89.2056	71.7773	89.8279	71.7773	89.1255	71.7773	89.7056	71.7773	89.1217	71.7773	89.6307	71.7773	89.1784	71.7773	89.596	71.7773	89.2714	71.7773	89.5867	71.7773	89.3746	71.7773	89.5842	71.7773	89.4664	71.7773	89.5707	71.7773	89.5332
74.707	91.592	74.707	91.5369	74.707	91.5928	74.707	91.4264	74.707	91.5412	74.707	91.2613	74.707	91.4406	74.707	91.0439	74.707	91.2956	74.707	90.7791	74.707	91.1128	74.707	90.4755	74.707	90.901	74.707	90.1463	74.707	90.6713	74.707	89.8102	74.707	90.4374	74.707	89.4915	74.707	90.2143	74.707	89.2181	74.707	90.0169	74.707	89.0161	74.707	89.8571	74.707	88.9033	74.707	89.7407	74.707	88.8826	74.707	89.6657	74.707	88.9407	74.707	89.6216	74.707	89.0522	74.707	89.5925	74.707	89.1872	74.707	89.5603	74.707	89.319	74.707	89.5092	74.707	89.4292
77.6367	91.5581	77.6367	91.5317	77.6367	91.5287	77.6367	91.4489	77.6367	91.4457	77.6367	91.3101	77.6367	91.3129	77.6367	91.1177	77.6367	91.1358	77.6367	90.8763	77.6367	90.9225	77.6367	90.5939	77.6367	90.684	77.6367	90.2829	77.6367	90.4349	77.6367	89.9609	77.6367	90.1925	77.6367	89.6512	77.6367	89.9758	77.6367	89.3808	77.6367	89.8018	77.6367	89.1765	77.6367	89.6824	77.6367	89.0579	77.6367	89.6198	77.6367	89.0307	77.6367	89.6053	77.6367	89.0842	77.6367	89.6211	77.6367	89.1938	77.6367	89.6442	77.6367	89.3287	77.6367	89.6523	77.6367	89.4594	77.6367	89.6283	77.6367	89.5634
79.1016	91.5192	79.1016	91.501	79.1016	91.4795	79.1016	91.4247	79.1016	91.3839	79.1016	91.2911	79.1016	91.2357	79.1016	91.103	79.1016	91.0405	79.1016	90.8654	79.1016	90.8065	79.1016	90.5868	79.1016	90.5455	79.1016	90.2799	79.1016	90.2734	79.1016	89.9625	79.1016	90.0096	79.1016	89.6579	79.1016	89.776	79.1016	89.3929	79.1016	89.5928	79.1016	89.1935	79.1016	89.4742	79.1016	89.0783	79.1016	89.4233	79.1016	89.0522	79.1016	89.4301	79.1016	89.1034	79.1016	89.4738	79.1016	89.2069	79.1016	89.528	79.1016	89.3313	79.1016	89.5671	79.1016	89.4469	79.1016	89.5715	79.1016	89.5311
82.0312	91.5027	82.0312	91.4834	82.0312	91.4598	82.0312	91.4019	82.0312	91.3557	82.0312	91.2596	82.0312	91.1933	82.0312	91.0599	82.0312	90.9774	82.0312	90.8082	82.0312	90.7158	82.0312	90.5134	82.0312	90.4204	82.0312	90.189	82.0312	90.1082	82.0312	89.8541	82.0312	89.801	82.0312	89.5333	82.0312	89.5247	82.0312	89.2553	82.0312	89.305	82.0312	89.0477	82.0312	89.1616	82.0312	88.9295	82.0312	89.1012	82.0312	88.9044	82.0312	89.1145	82.0312	88.9581	82.0312	89.1779	82.0312	89.0621	82.0312	89.2603	82.0312	89.182	82.0312	89.3308	82.0312	89.2859	82.0312	89.3655	82.0312	89.351
84.9609	91.4697	84.9609	91.4537	84.9609	91.42	84.9609	91.3724	84.9609	91.3056	84.9609	91.2273	84.9609	91.129	84.9609	91.0213	84.9609	90.8943	84.9609	90.7599	84.9609	90.6091	84.9609	90.4517	84.9609	90.2849	84.9609	90.1101	84.9609	89.9387	84.9609	89.7544	84.9609	89.5937	84.9609	89.4099	84.9609	89.2782	84.9609	89.1067	84.9609	89.0221	84.9609	88.8745	84.9609	88.8495	84.9609	88.7346	84.9609	88.7709	84.9609	88.6921	84.9609	88.7782	84.9609	88.7326	84.9609	88.8465	84.9609	88.8259	84.9609	88.9413	84.9609	88.9359	84.9609	89.028	84.9609	89.0288	84.9609	89.0796	84.9609	89.0806
87.8906	91.1931	87.8906	91.1688	87.8906	91.152	87.8906	91.0799	87.8906	91.0461	87.8906	90.9283	87.8906	90.8776	87.8906	90.7177	87.8906	90.6507	87.8906	90.4541	87.8906	90.3724	87.8906	90.147	87.8906	90.0538	87.8906	89.8103	87.8906	89.7113	87.8906	89.4634	87.8906	89.367	87.8906	89.1313	87.8906	89.0484	87.8906	88.8425	87.8906	88.7846	87.8906	88.6241	87.8906	88.6001	87.8906	88.4945	87.8906	88.5069	87.8906	88.4562	87.8906	88.4995	87.8906	88.4939	87.8906	88.5557	87.8906	88.5786	87.8906	88.6431	87.8906	88.676	87.8906	88.7284	87.8906	88.7552	87.8906	88.7844	87.8906	88.7945
90.8203	90.9582	90.8203	90.931	90.8203	90.9144	90.8203	90.8331	90.8203	90.8008	90.8203	90.6663	90.8203	90.6208	90.8203	90.4349	90.8203	90.38	90.8203	90.1461	90.8203	90.088	90.8203	89.8114	90.8203	89.7595	90.8203	89.4483	90.8203	89.4157	90.8203	89.0815	90.8203	89.0842	90.8203	88.7427	90.8203	88.7977	90.8203	88.4675	90.8203	88.5877	90.8203	88.2875	90.8203	88.4758	90.8203	88.2208	90.8203	88.4652	90.8203	88.2632	90.8203	88.5384	90.8203	88.3891	90.8203	88.6618	90.8203	88.5588	90.8203	88.7958	90.8203	88.7305	90.8203	88.9042	90.8203	88.8686	90.8203	88.9602	90.8203	88.9489
95.2148	91.0211	95.2148	91.0041	95.2148	90.9563	95.2148	90.9065	95.2148	90.8095	95.2148	90.7306	95.2148	90.5816	95.2148	90.48	95.2148	90.2758	95.2148	90.1614	95.2148	89.8987	95.2148	89.785	95.2148	89.4628	95.2148	89.3678	95.2148	88.9894	95.2148	88.9347	95.2148	88.5117	95.2148	88.5203	95.2148	88.0757	95.2148	88.1667	95.2148	87.7348	95.2148	87.9154	95.2148	87.5357	95.2148	87.7939	95.2148	87.4985	95.2148	87.8033	95.2148	87.6049	95.2148	87.9153	95.2148	87.8046	95.2148	88.0815	95.2148	88.0342	95.2148	88.2487	95.2148	88.2367	95.2148	88.3712	95.2148	88.3715	95.2148	88.4172
98.1445	90.6804	98.1445	90.6408	98.1445	90.6403	98.1445	90.5228	98.1445	90.5202	98.1445	90.3287	98.1445	90.3205	98.1445	90.0621	98.1445	90.0433	98.1445	89.729	98.1445	89.6937	98.1445	89.3394	98.1445	89.2815	98.1445	88.9091	98.1445	88.8236	98.1445	88.4619	98.1445	88.3472	98.1445	88.0311	98.1445	87.8913	98.1445	87.6574	98.1445	87.504	98.1445	87.382	98.1445	87.2324	98.1445	87.2335	98.1445	87.106	98.1445	87.2151	98.1445	87.1218	98.1445	87.3008	98.1445	87.2434	98.1445	87.4439	98.1445	87.4153	98.1445	87.5921	98.1445	87.5814	98.1445	87.7008	98.1445	87.6983	98.1445	87.7403
101.074	90.2556	101.074	90.2011	101.074	90.2234	101.074	90.0616	101.074	90.1041	101.074	89.8403	101.074	89.8989	101.074	89.5427	101.074	89.6109	101.074	89.1779	101.074	89.2464	101.074	88.7601	101.074	88.8171	101.074	88.3111	101.074	88.3426	101.074	87.8618	101.074	87.8534	101.074	87.4516	101.074	87.3923	101.074	87.1242	101.074	87.0115	101.074	86.9166	101.074	86.7601	101.074	86.8457	101.074	86.6662	101.074	86.8991	101.074	86.7217	101.074	87.0388	101.074	86.8843	101.074	87.2133	101.074	87.094	101.074	87.3726	101.074	87.293	101.074	87.4769	101.074	87.4375	101.074	87.5014
105.469	90.6142	105.469	90.5793	105.469	90.5438	105.469	90.4396	105.469	90.3671	105.469	90.1958	105.469	90.0837	105.469	89.849	105.469	89.6944	105.469	89.4019	105.469	89.2031	105.469	88.8612	105.469	88.6201	105.469	88.2413	105.469	87.967	105.469	87.5706	105.469	87.283	105.469	86.8981	105.469	86.6314	105.469	86.2975	105.469	86.0969	105.469	85.857	105.469	85.7637	105.469	85.6466	105.469	85.6755	105.469	85.6783	105.469	85.8063	105.469	85.8944	105.469	86.073	105.469	86.1982	105.469	86.3763	105.469	86.4955	105.469	86.634	105.469	86.7168	105.469	86.7916	105.469	86.821
108.398	90.8368	108.398	90.7851	108.398	90.7903	108.398	90.6351	108.398	90.6452	108.398	90.3866	108.398	90.4012	108.398	90.0398	108.398	90.0581	108.398	89.5959	108.398	89.6172	108.398	89.0594	108.398	89.0828	108.398	88.441	108.398	88.4653	108.398	87.7619	108.398	87.7858	108.398	87.061	108.398	87.0823	108.398	86.3992	108.398	86.4146	108.398	85.8562	108.398	85.8619	108.398	85.508	108.398	85.5014	108.398	85.3888	108.398	85.3711	108.398	85.467	108.398	85.4432	108.398	85.66	108.398	85.6363	108.398	85.8727	108.398	85.8546	108.398	86.029	108.398	86.0193	108.398	86.0828
112.793	90.6627	112.793	90.6225	112.793	90.6041	112.793	90.4831	112.793	90.4469	112.793	90.2444	112.793	90.1918	112.793	89.907	112.793	89.8405	112.793	89.4727	112.793	89.397	112.793	88.9465	112.793	88.8693	112.793	88.339	112.793	88.273	112.793	87.671	112.793	87.6354	112.793	86.9793	112.793	86.9998	112.793	86.3216	112.793	86.4262	112.793	85.7746	112.793	85.9819	112.793	85.4145	112.793	85.7187	112.793	85.2819	112.793	85.6465	112.793	85.3549	112.793	85.7241	112.793	85.5579	112.793	85.8779	112.793	85.7988	112.793	86.0304	112.793	86.0003	112.793	86.121	112.793	86.114
117.188	90.1087	117.188	90.0741	117.188	90.0403	117.188	89.9374	117.188	89.8678	117.188	89.6994	117.188	89.5898	117.188	89.3613	117.188	89.2058	117.188	88.925	117.188	88.7167	117.188	88.3952	117.188	88.1275	117.188	87.7819	117.188	87.451	117.188	87.1041	117.188	86.7138	117.188	86.3961	117.188	85.9636	117.188	85.7126	117.188	85.2745	117.188	85.1282	117.188	84.7382	117.188	84.7204	117.188	84.432	117.188	84.5355	117.188	84.3741	117.188	84.5587	117.188	84.509	117.188	84.7183	117.188	84.7375	117.188	84.921	117.188	84.9627	117.188	85.0855	117.188	85.115	117.188	85.158
120.117	89.85	120.117	89.7791	120.117	89.8131	120.117	89.6013	120.117	89.6666	120.117	89.3177	120.117	89.4086	120.117	88.9292	120.117	89.0369	120.117	88.4378	120.117	88.5499	120.117	87.8479	120.117	87.9487	120.117	87.1694	120.117	87.2399	120.117	86.4221	120.117	86.442	120.117	85.6427	120.117	85.5944	120.117	84.892	120.117	84.7685	120.117	84.2546	120.117	84.07	120.117	83.8199	120.117	83.6123	120.117	83.6394	120.117	83.4554	120.117	83.6909	120.117	83.5601	120.117	83.8865	120.117	83.8108	120.117	84.1172	120.117	84.0816	120.117	84.292	120.117	84.2793	120.117	84.3535
124.512	89.1122	124.512	89.0585	124.512	89.0639	124.512	88.9034	124.512	88.9125	124.512	88.647	124.512	88.6568	124.512	88.2895	124.512	88.2954	124.512	87.8308	124.512	87.8273	124.512	87.2723	124.512	87.2534	124.512	86.6181	124.512	86.5778	124.512	85.8785	124.512	85.8116	124.512	85.075	124.512	84.9776	124.512	84.2474	124.512	84.118	124.512	83.4598	124.512	83.2995	124.512	82.7957	124.512	82.6096	124.512	82.3323	124.512	82.1311	124.512	82.0985	124.512	81.899	124.512	82.0521	124.512	81.8758	124.512	82.1034	124.512	81.9717	124.512	82.1603	124.512	82.0899	124.512	82.1618
128.906	87.8626	128.906	87.7722	128.906	87.8448	128.906	87.5725	128.906	87.7201	128.906	87.2627	128.906	87.4895	128.906	86.8431	128.906	87.1545	128.906	86.3158	128.906	86.7172	128.906	85.6866	128.906	86.1819	128.906	84.9676	128.906	85.5569	128.906	84.1811	128.906	84.8575	128.906	83.3652	128.906	84.1105	128.906	82.5774	128.906	83.3578	128.906	81.892	128.906	82.6571	128.906	81.3824	128.906	82.0727	128.906	81.0903	128.906	81.6554	128.906	81.0016	128.906	81.418	128.906	81.0535	128.906	81.3285	128.906	81.1658	128.906	81.3253	128.906	81.2719	128.906	81.3434	128.906	81.3334
133.301	87.6485	133.301	87.6094	133.301	87.5718	133.301	87.4525	133.301	87.3809	133.301	87.1754	133.301	87.0776	133.301	86.7753	133.301	86.6644	133.301	86.2494	133.301	86.1462	133.301	85.5961	133.301	85.531	133.301	84.8177	133.301	84.8334	133.301	83.9245	133.301	84.0769	133.301	82.9433	133.301	83.2975	133.301	81.9292	133.301	82.5443	133.301	80.9755	133.301	81.8746	133.301	80.206	133.301	81.3384	133.301	79.7286	133.301	80.9594	133.301	79.5679	133.301	80.724	133.301	79.6485	133.301	80.5882	133.301	79.851	133.301	80.4968	133.301	80.0751	133.301	80.4001	133.301	80.2637
139.16	91.1489	139.16	91.1424	139.16	91.0625	139.16	91.0441	139.16	90.8819	139.16	90.8552	139.16	90.6059	139.16	90.5765	139.16	90.2339	139.16	90.2088	139.16	89.7668	139.16	89.7534	139.16	89.2082	139.16	89.2139	139.16	88.5675	139.16	88.5981	139.16	87.8644	139.16	87.9229	139.16	87.1351	139.16	87.2192	139.16	86.4378	139.16	86.5366	139.16	85.8486	139.16	85.9416	139.16	85.4395	139.16	85.5011	139.16	85.2416	139.16	85.2539	139.16	85.2226	139.16	85.1878	139.16	85.3037	139.16	85.2444	139.16	85.3998	139.16	85.3471	139.16	85.4503	139.16	85.4295
143.555	89.2343	143.555	89.194	143.555	89.1802	143.555	89.061	143.555	89.0313	143.555	88.8378	143.555	88.7881	143.555	88.5285	143.555	88.452	143.555	88.1385	143.555	88.0263	143.555	87.676	143.555	87.5165	143.555	87.1527	143.555	86.933	143.555	86.5867	143.555	86.2939	143.555	86.0056	143.555	85.6306	143.555	85.449	143.555	84.992	143.555	84.9668	143.555	84.4435	143.555	84.6081	143.555	84.053	143.555	84.4017	143.555	83.8625	143.555	84.3386	143.555	83.8625	143.555	84.372	143.555	83.9943	143.555	84.4378	143.555	84.1786	143.555	84.4767	143.555	84.3455	143.555	84.4501
147.949	87.9956	147.949	87.9336	147.949	87.9491	147.949	87.7645	147.949	87.7942	147.949	87.4914	147.949	87.5329	147.949	87.1186	147.949	87.1693	147.949	86.6527	147.949	86.7108	147.949	86.1028	147.949	86.1692	147.949	85.4832	147.949	85.5634	147.949	84.8161	147.949	84.9221	147.949	84.1364	147.949	84.2866	147.949	83.4964	147.949	83.7106	147.949	82.9626	147.949	83.2521	147.949	82.6005	147.949	82.9555	147.949	82.4445	147.949	82.831	147.949	82.4763	147.949	82.8466	147.949	82.631	147.949	82.9412	147.949	82.8277	147.949	83.0476	147.949	82.9976	147.949	83.1109	147.949	83.0974
153.809	88.081	153.809	88.0262	153.809	88.0107	153.809	87.8493	153.809	87.8134	153.809	87.5545	153.809	87.4887	153.809	87.1472	153.809	87.0387	153.809	86.6347	153.809	86.4696	153.809	86.0269	153.809	85.7956	153.809	85.339	153.809	85.0442	153.809	84.5947	153.809	84.2631	153.809	83.8322	153.809	83.5257	153.809	83.1103	153.809	82.9242	153.809	82.5079	153.809	82.5407	153.809	82.1066	153.809	82.4043	153.809	81.9536	153.809	82.4718	153.809	82.0304	153.809	82.6523	153.809	82.2602	153.809	82.8513	153.809	82.5458	153.809	82.997	153.809	82.8042	153.809	83.0461	153.809	82.9803
159.668	89.0557	159.668	88.9148	159.668	89.0594	159.668	88.642	159.668	88.9211	159.668	88.2446	159.668	88.6369	159.668	87.7325	159.668	88.2035	159.668	87.1209	159.668	87.62	159.668	86.4326	159.668	86.8911	159.668	85.7023	159.668	86.0342	159.668	84.9801	159.668	85.0928	159.668	84.332	159.668	84.1546	159.668	83.8306	159.668	83.3624	159.668	83.5329	159.668	82.8795	159.668	83.4554	159.668	82.7921	159.668	83.5645	159.668	83.036	159.668	83.792	159.668	83.4496	159.668	84.0611	159.668	83.8789	159.668	84.3044	159.668	84.2265	159.668	84.4709	159.668	84.4462	159.668	84.5253
165.527	91.1836	165.527	91.1174	165.527	91.1261	165.527	90.9274	165.527	90.9441	165.527	90.6124	165.527	90.6351	165.527	90.1703	165.527	90.1959	165.527	89.5996	165.527	89.6222	165.527	88.9016	165.527	88.9106	165.527	88.0855	165.527	88.0626	165.527	87.1804	165.527	87.0947	165.527	86.253	165.527	86.0591	165.527	85.4287	165.527	85.0769	165.527	84.8826	165.527	84.3564	165.527	84.754	165.527	84.1156	165.527	85.0299	165.527	84.3979	165.527	85.5461	165.527	85.0159	165.527	86.1068	165.527	85.716	165.527	86.5686	165.527	86.3176	165.527	86.849	165.527	86.7274	165.527	86.9069
171.387	92.2033	171.387	92.1167	171.387	92.1722	171.387	91.9133	171.387	92.0215	171.387	91.5937	171.387	91.7483	171.387	91.1577	171.387	91.3483	171.387	90.6053	171.387	90.8157	171.387	89.9383	171.387	90.1442	171.387	89.1639	171.387	89.3293	171.387	88.304	171.387	88.3755	171.387	87.4108	171.387	87.3128	171.387	86.588	171.387	86.2274	171.387	85.9933	171.387	85.3014	171.387	85.7772	171.387	84.7932	171.387	85.9654	171.387	84.8662	171.387	86.4219	171.387	85.4112	171.387	86.9466	171.387	86.1489	171.387	87.3772	171.387	86.8389	171.387	87.6146	171.387	87.3456	171.387	87.6093
177.246	92.6071	177.246	92.5346	177.246	92.5695	177.246	92.3465	177.246	92.4264	177.246	92.0364	177.246	92.1816	177.246	91.5967	177.246	91.8381	177.246	91.0188	177.246	91.3976	177.246	90.2943	177.246	90.8611	177.246	89.4188	177.246	90.2298	177.246	88.4028	177.246	89.51	177.246	87.2944	177.246	88.7223	177.246	86.2221	177.246	87.9167	177.246	85.4288	177.246	87.1904	177.246	85.1861	177.246	86.6842	177.246	85.546	177.246	86.5222	177.246	86.2635	177.246	86.714	177.246	87.0291	177.246	87.1316	177.246	87.6417	177.246	87.5944	177.246	88.0095	177.246	87.9519	177.246	88.1076
183.105	91.7674	183.105	91.7911	183.105	91.6339	183.105	91.7032	183.105	91.3924	183.105	91.501	183.105	91.045	183.105	91.18	183.105	90.5953	183.105	90.7335	183.105	90.0494	183.105	90.1526	183.105	89.4184	183.105	89.4289	183.105	88.7225	183.105	88.5611	183.105	87.9998	183.105	87.5716	183.105	87.3173	183.105	86.5396	183.105	86.7768	183.105	85.6469	183.105	86.4936	183.105	85.1696	183.105	86.5361	183.105	85.2964	183.105	86.8666	183.105	85.9185	183.105	87.3554	183.105	86.7351	183.105	87.8507	183.105	87.492	183.105	88.2313	183.105	88.053	183.105	88.4176	183.105	88.3645
188.965	91.6855	188.965	91.6636	188.965	91.5766	188.965	91.5167	188.965	91.3306	188.965	91.2494	188.965	90.9409	188.965	90.8642	188.965	90.4005	188.965	90.3605	188.965	89.7019	188.965	89.7335	188.965	88.8393	188.965	88.9767	188.965	87.8153	188.965	88.0888	188.965	86.6615	188.965	87.0932	188.965	85.4872	188.965	86.0795	188.965	84.5534	188.965	85.2614	188.965	84.2457	188.965	84.9563	188.965	84.7421	188.965	85.3376	188.965	85.7678	188.965	86.2116	188.965	86.9043	188.965	87.2175	188.965	87.8828	188.965	88.0918	188.965	88.5831	188.965	88.7037	188.965	88.9598	188.965	88.9994
196.289	93.0327	196.289	92.9186	196.289	93.0104	196.289	92.6713	196.289	92.8472	196.289	92.2933	196.289	92.5364	196.289	91.7854	196.289	92.0687	196.289	91.1467	196.289	91.4301	196.289	90.3734	196.289	90.6001	196.289	89.4592	196.289	89.5495	196.289	88.3991	196.289	88.2391	196.289	87.2039	196.289	86.6288	196.289	85.94	196.289	84.7257	196.289	84.8059	196.289	82.7762	196.289	84.1725	196.289	81.6456	196.289	84.339	196.289	82.2281	196.289	85.1455	196.289	83.8456	196.289	86.1446	196.289	85.4528	196.289	86.9955	196.289	86.6587	196.289	87.5309	196.289	87.3959	196.289	87.6773
203.613	92.2815	203.613	92.1809	203.613	92.2597	203.613	91.9585	203.613	92.1155	203.613	91.6155	203.613	91.8483	203.613	91.1529	203.613	91.4554	203.613	90.5707	203.613	90.9299	203.613	89.8651	203.613	90.259	203.613	89.027	203.613	89.4217	203.613	88.0439	203.613	88.3878	203.613	86.9094	203.613	87.1203	203.613	85.6548	203.613	85.5924	203.613	84.4207	203.613	83.8556	203.613	83.5393	203.613	82.236	203.613	83.4029	203.613	81.5218	203.613	84.0058	203.613	82.1895	203.613	84.9065	203.613	83.5551	203.613	85.6896	203.613	84.8396	203.613	86.1392	203.613	85.7335	203.613	86.1657
210.938	91.6954	210.938	91.5908	210.938	91.6735	210.938	91.3535	210.938	91.5323	210.938	90.9787	210.938	91.279	210.938	90.4621	210.938	90.919	210.938	89.7992	210.938	90.4531	210.938	88.9831	210.938	89.8753	210.938	88.0051	210.938	89.1705	210.938	86.8583	210.938	88.3142	210.938	85.5559	210.938	87.2775	210.938	84.1812	210.938	86.0434	210.938	82.9864	210.938	84.654	210.938	82.4233	210.938	83.3182	210.938	82.7686	210.938	82.5107	210.938	83.7121	210.938	82.66	210.938	84.7304	210.938	83.5464	210.938	85.5005	210.938	84.5897	210.938	85.8906	210.938	85.4112	210.938	85.8602
218.262	91.2214	218.262	91.1953	218.262	91.1227	218.262	91.0423	218.262	90.9027	218.262	90.76	218.262	90.5665	218.262	90.3444	218.262	90.1199	218.262	89.7868	218.262	89.5684	218.262	89.071	218.262	88.9138	218.262	88.17	218.262	88.1517	218.262	87.0445	218.262	87.269	218.262	85.6469	218.262	86.2476	218.262	83.9438	218.262	85.0814	218.262	82.0121	218.262	83.8254	218.262	80.324	218.262	82.6889	218.262	79.8935	218.262	82.0776	218.262	80.948	218.262	82.2811	218.262	82.4549	218.262	83.0578	218.262	83.6913	218.262	83.9144	218.262	84.453	218.262	84.5183	218.262	84.7192
225.586	91.5783	225.586	91.5895	225.586	91.4275	225.586	91.4582	225.586	91.1423	225.586	91.1833	225.586	90.7308	225.586	90.7638	225.586	90.2029	225.586	90.1975	225.586	89.57	225.586	89.4772	225.586	88.8434	225.586	88.5887	225.586	88.0329	225.586	87.5093	225.586	87.1461	225.586	86.2139	225.586	86.1925	225.586	84.7047	225.586	85.1988	225.586	83.1024	225.586	84.2451	225.586	81.8312	225.586	83.5091	225.586	81.5656	225.586	83.2342	225.586	82.3883	225.586	83.5248	225.586	83.609	225.586	84.1893	225.586	84.6634	225.586	84.9017	225.586	85.3352	225.586	85.411	225.586	85.5777
232.91	92.347	232.91	92.327	232.91	92.2237	232.91	92.1683	232.91	91.9546	232.91	91.8761	232.91	91.5391	232.91	91.4543	232.91	90.9769	232.91	90.9015	232.91	90.2661	232.91	90.2063	232.91	89.3996	232.91	89.3416	232.91	88.3634	232.91	88.2606	232.91	87.1386	232.91	86.8972	232.91	85.7178	232.91	85.1892	232.91	84.1652	232.91	83.1961	232.91	82.7752	232.91	81.5101	232.91	82.2041	232.91	81.4578	232.91	82.8797	232.91	83.0492	232.91	84.2796	232.91	84.8957	232.91	85.6876	232.91	86.318	232.91	86.761	232.91	87.1953	232.91	87.391	232.91	87.5434
241.699	91.5803	241.699	91.4756	241.699	91.5297	241.699	91.2242	241.699	91.3196	241.699	90.8382	241.699	90.9497	241.699	90.3304	241.699	90.4224	241.699	89.7106	241.699	89.7398	241.699	88.9798	241.699	88.8986	241.699	88.1227	241.699	87.8839	241.699	87.0997	241.699	86.6599	241.699	85.8394	241.699	85.1578	241.699	84.2348	241.699	83.269	241.699	82.1677	241.699	80.884	241.699	79.7088	241.699	78.2494	241.699	77.9919	241.699	77.1955	241.699	78.9605	241.699	79.0882	241.699	81.2711	241.699	81.5683	241.699	83.1795	241.699	83.3919	241.699	84.3346	241.699	84.4373	241.699	84.7461
250.488	91.6437	250.488	91.5759	250.488	91.5689	250.488	91.3689	250.488	91.3527	250.488	91.0295	250.488	91.0005	250.488	90.5663	250.488	90.5203	250.488	89.9863	250.488	89.9202	250.488	89.2892	250.488	89.2033	250.488	88.4607	250.488	88.3609	250.488	87.4636	250.488	87.3659	250.488	86.2299	250.488	86.1652	250.488	84.6558	250.488	84.6741	250.488	82.6108	250.488	82.7801	250.488	80.0402	250.488	80.4169	250.488	77.5575	250.488	78.0062	250.488	77.2974	250.488	77.3504	250.488	79.2317	250.488	79.0297	250.488	81.1382	250.488	80.9695	250.488	82.2997	250.488	82.2185	250.488	82.6583
259.277	92.6113	259.277	92.5173	259.277	92.5424	259.277	92.2655	259.277	92.3101	259.277	91.8654	259.277	91.9189	259.277	91.3292	259.277	91.3776	259.277	90.6701	259.277	90.6967	259.277	89.8979	259.277	89.8836	259.277	89.0125	259.277	88.9367	259.277	87.9955	259.277	87.8377	259.277	86.8033	259.277	86.5472	259.277	85.3712	259.277	85.0099	259.277	83.6471	259.277	83.1924	259.277	81.728	259.277	81.2468	259.277	80.2272	259.277	79.9187	259.277	80.2264	259.277	80.2552	259.277	81.5539	259.277	81.7569	259.277	83.0273	259.277	83.2243	259.277	84.0361	259.277	84.1489	259.277	84.4213
268.066	91.8431	268.066	91.7693	268.066	91.7694	268.066	91.5517	268.066	91.5478	268.066	91.1961	268.066	91.1812	268.066	90.7076	268.066	90.6746	268.066	90.0876	268.066	90.0326	268.066	89.33	268.066	89.2543	268.066	88.4164	268.066	88.3263	268.066	87.3093	268.066	87.2125	268.066	85.9405	268.066	85.8396	268.066	84.1935	268.066	84.0758	268.066	81.8814	268.066	81.6892	268.066	78.7849	268.066	78.2769	268.066	75.4083	268.066	73.5683	268.066	75.3929	268.066	72.5432	268.066	78.324	268.066	76.8206	268.066	80.6585	268.066	79.8994	268.066	81.9265	268.066	81.5945	268.066	82.2296
276.855	91.2647	276.855	91.1773	276.855	91.2258	276.855	90.9731	276.855	91.0582	276.855	90.6665	276.855	90.7666	276.855	90.2719	276.855	90.3606	276.855	89.7955	276.855	89.8502	276.855	89.2278	276.855	89.24	276.855	88.5383	276.855	88.5224	276.855	87.6738	276.855	87.6717	276.855	86.558	276.855	86.6417	276.855	85.0899	276.855	85.3662	276.855	83.144	276.855	83.7649	276.855	80.6133	276.855	81.7666	276.855	77.7246	276.855	79.4209	276.855	76.0524	276.855	77.2951	276.855	76.9798	276.855	76.7147	276.855	78.558	276.855	77.7433	276.855	79.4942	276.855	78.9594	276.855	79.6097
287.109	91.1537	287.109	91.0372	287.109	91.1054	287.109	90.7696	287.109	90.8926	287.109	90.3797	287.109	90.5291	287.109	89.91	287.109	90.0411	287.109	89.4077	287.109	89.4657	287.109	88.9061	287.109	88.8426	287.109	88.4001	287.109	88.1975	287.109	87.8319	287.109	87.5195	287.109	87.0949	287.109	86.7427	287.109	86.0489	287.109	85.7469	287.109	84.5328	287.109	84.3801	287.109	82.4031	287.109	82.5306	287.109	79.8136	287.109	80.4151	287.109	78.2957	287.109	79.2823	287.109	79.5466	287.109	80.2492	287.109	81.5772	287.109	81.9171	287.109	82.9372	287.109	83.0708	287.109	83.427
297.363	91.2645	297.363	91.197	297.363	91.1495	297.363	90.9557	297.363	90.8585	297.363	90.5636	297.363	90.4143	297.363	90.0582	297.363	89.857	297.363	89.4898	297.363	89.2402	297.363	88.9098	297.363	88.6153	297.363	88.3452	297.363	88.0057	297.363	87.7695	297.363	87.3804	297.363	87.0899	297.363	86.6466	297.363	86.1583	297.363	85.6626	297.363	84.7917	297.363	84.2541	297.363	82.8002	297.363	82.2335	297.363	80.164	297.363	79.5584	297.363	78.006	297.363	77.3151	297.363	78.7076	297.363	78.075	297.363	80.7788	297.363	80.3544	297.363	82.1999	297.363	81.99	297.363	82.6081
307.617	92.1222	307.617	91.9966	307.617	92.0498	307.617	91.6774	307.617	91.7755	307.617	91.1682	307.617	91.2968	307.617	90.4729	307.617	90.6137	307.617	89.5989	307.617	89.7318	307.617	88.5659	307.617	88.6687	307.617	87.4133	307.617	87.4637	307.617	86.1968	307.617	86.1841	307.617	84.9576	307.617	84.9066	307.617	83.6741	307.617	83.6561	307.617	82.2367	307.617	82.3371	307.617	80.5005	307.617	80.7462	307.617	78.4899	307.617	78.7446	307.617	76.9802	307.617	76.8461	307.617	77.3752	307.617	76.8095	307.617	79.008	307.617	78.5528	307.617	80.3171	307.617	80.1078	307.617	80.724
319.336	91.572	319.336	91.4885	319.336	91.4616	319.336	91.2162	319.336	91.1663	319.336	90.7733	319.336	90.7089	319.336	90.191	319.336	90.1257	319.336	89.5088	319.336	89.4612	319.336	88.7636	319.336	88.7549	319.336	87.9707	319.336	88.0209	319.336	87.1058	319.336	87.2281	319.336	86.0957	319.336	86.2932	319.336	84.8215	319.336	85.0845	319.336	83.1284	319.336	83.4336	319.336	80.8758	319.336	81.1832	319.336	78.2947	319.336	78.5272	319.336	77.1638	319.336	77.2263	319.336	78.7956	319.336	78.7752	319.336	80.9001	319.336	80.8743	319.336	82.24	319.336	82.2235	319.336	82.6763
329.59	93.3651	329.59	93.2444	329.59	93.2625	329.59	92.9097	329.59	92.9433	329.59	92.386	329.59	92.4315	329.59	91.7129	329.59	91.769	329.59	90.94	329.59	91.015	329.59	90.1168	329.59	90.2364	329.59	89.2733	329.59	89.481	329.59	88.3962	329.59	88.7387	329.59	87.41	329.59	87.914	329.59	86.1649	329.59	86.8259	329.59	84.4171	329.59	85.2092	329.59	81.7659	329.59	82.6612	329.59	77.5813	329.59	78.4817	329.59	73.513	329.59	73.149	329.59	77.3236	329.59	76.5633	329.59	81.1679	329.59	80.86	329.59	83.1691	329.59	83.0564	329.59	83.7574
341.309	92.8834	341.309	92.7235	341.309	92.7954	341.309	92.3265	341.309	92.4683	341.309	91.7278	341.309	91.9301	341.309	90.9979	341.309	91.2335	341.309	90.2473	341.309	90.4613	341.309	89.6032	341.309	89.7203	341.309	89.1435	341.309	89.1057	341.309	88.8283	341.309	88.6387	341.309	88.5037	341.309	88.2288	341.309	87.966	341.309	87.6978	341.309	87.0098	341.309	86.8259	341.309	85.4357	341.309	85.3626	341.309	83.0555	341.309	82.993	341.309	79.9038	341.309	79.3525	341.309	77.5333	341.309	75.4299	341.309	78.3659	341.309	76.5823	341.309	79.9593	341.309	79.2837	341.309	80.398
353.027	93.4797	353.027	93.3022	353.027	93.3385	353.027	92.8066	353.027	92.8855	353.027	92.0066	353.027	92.1334	353.027	90.9405	353.027	91.1062	353.027	89.6941	353.027	89.859	353.027	88.4313	353.027	88.5219	353.027	87.3899	353.027	87.3463	353.027	86.7537	353.027	86.6232	353.027	86.4481	353.027	86.3882	353.027	86.1439	353.027	86.3044	353.027	85.4523	353.027	85.932	353.027	84.0434	353.027	84.9318	353.027	81.7918	353.027	83.1396	353.027	79.7963	353.027	81.0475	353.027	80.8344	353.027	80.8118	353.027	83.2558	353.027	82.7479	353.027	84.8287	353.027	84.5027	353.027	85.2341
366.211	92.3107	366.211	92.1391	366.211	92.2299	366.211	91.7232	366.211	91.895	366.211	91.0775	366.211	91.3147	366.211	90.2272	366.211	90.5139	366.211	89.2214	366.211	89.5437	366.211	88.1541	366.211	88.4943	366.211	87.1707	366.211	87.4959	366.211	86.4075	366.211	86.673	366.211	85.8573	366.211	86.0389	366.211	85.3111	366.211	85.4289	366.211	84.447	366.211	84.5519	366.211	82.9007	366.211	83.0539	366.211	80.2014	366.211	80.457	366.211	75.742	366.211	75.9722	366.211	72.7883	366.211	71.4283	366.211	76.9054	366.211	75.89	366.211	79.7766	366.211	79.3764	366.211	80.5459
379.395	92.4907	379.395	92.3435	379.395	92.3539	379.395	91.9148	379.395	91.9285	379.395	91.2027	379.395	91.2107	379.395	90.1989	379.395	90.1994	379.395	88.8911	379.395	88.9014	379.395	87.2838	379.395	87.3513	379.395	85.4664	379.395	85.6665	379.395	83.7541	379.395	84.1292	379.395	82.6847	379.395	83.1129	379.395	82.3848	379.395	82.6641	379.395	82.2114	379.395	82.3416	379.395	81.4478	379.395	81.6474	379.395	79.7559	379.395	80.368	379.395	77.8746	379.395	78.9695	379.395	78.4972	379.395	78.9969	379.395	80.8395	379.395	80.6395	379.395	82.4561	379.395	82.2141	379.395	82.891
392.578	92.5493	392.578	92.3452	392.578	92.5074	392.578	91.8964	392.578	92.2242	392.578	91.2113	392.578	91.7076	392.578	90.3066	392.578	90.9649	392.578	89.209	392.578	90.0022	392.578	87.9582	392.578	88.8286	392.578	86.6094	392.578	87.4662	392.578	85.2296	392.578	85.9571	392.578	83.8722	392.578	84.3443	392.578	82.5183	392.578	82.6003	392.578	80.9986	392.578	80.5175	392.578	78.9364	392.578	77.6124	392.578	75.8033	392.578	73.3432	392.578	72.7319	392.578	72.1388	392.578	75.5838	392.578	76.9376	392.578	79.525	392.578	80.4041	392.578	81.8193	392.578	82.209	392.578	82.6617
405.762	92.5495	405.762	92.426	405.762	92.4382	405.762	92.0774	405.762	92.0917	405.762	91.5231	405.762	91.5194	405.762	90.7921	405.762	90.7419	405.762	89.92	405.762	89.7957	405.762	88.9443	405.762	88.7421	405.762	87.895	405.762	87.6697	405.762	86.7869	405.762	86.6722	405.762	85.6107	405.762	85.7831	405.762	84.3057	405.762	84.9038	405.762	82.6974	405.762	83.7877	405.762	80.3994	405.762	82.0657	405.762	76.6004	405.762	79.1774	405.762	69.5287	405.762	73.8484	405.762	69.759	405.762	62.1758	405.762	75.7024	405.762	71.6843	405.762	78.1083	405.762	76.5838	405.762	78.3433
420.41	93.4918	420.41	93.1826	420.41	93.458	420.41	92.5208	420.41	93.0765	420.41	91.4875	420.41	92.3332	420.41	90.0689	420.41	91.2176	420.41	88.3	420.41	89.752	420.41	86.3855	420.41	88.0566	420.41	84.8861	420.41	86.461	420.41	84.4138	420.41	85.4742	420.41	84.683	420.41	85.2507	420.41	84.8476	420.41	85.2604	420.41	84.3024	420.41	84.8022	420.41	82.5937	420.41	83.2718	420.41	79.0895	420.41	79.9621	420.41	74.0766	420.41	75.0267	420.41	76.8901	420.41	77.474	420.41	81.232	420.41	81.6899	420.41	83.4848	420.41	83.7461	420.41	84.2595
435.059	92.1092	435.059	91.9251	435.059	92.0128	435.059	91.4602	435.059	91.6274	435.059	90.7097	435.059	90.9333	435.059	89.6671	435.059	89.9069	435.059	88.3295	435.059	88.5397	435.059	86.7282	435.059	86.8745	435.059	85.0086	435.059	85.0759	435.059	83.5206	435.059	83.5262	435.059	82.6302	435.059	82.6996	435.059	82.1702	435.059	82.5791	435.059	81.4428	435.059	82.5284	435.059	79.6259	435.059	81.8307	435.059	75.4525	435.059	79.7554	435.059	64.6788	435.059	74.76	435.059	73.0036	435.059	62.3187	435.059	78.9156	435.059	75.3247	435.059	81.3469	435.059	80.1013	435.059	81.7322
451.172	91.7334	451.172	91.6098	451.172	91.6214	451.172	91.2546	451.172	91.2674	451.172	90.6562	451.172	90.6676	451.172	89.7784	451.172	89.8143	451.172	88.5621	451.172	88.6802	451.172	86.9432	451.172	87.2058	451.172	84.905	451.172	85.3154	451.172	82.6716	451.172	83.0512	451.172	81.1344	451.172	81.0287	451.172	81.21	451.172	80.4589	451.172	81.9717	451.172	80.9038	451.172	82.0454	451.172	80.6942	451.172	80.5793	451.172	78.6057	451.172	76.3437	451.172	72.1708	451.172	68.726	451.172	66.4192	451.172	76.7278	451.172	77.8829	451.172	81.1691	451.172	81.6258	451.172	82.5429
465.82	91.1337	465.82	90.9629	465.82	91.0198	465.82	90.5146	465.82	90.6365	465.82	89.8193	465.82	90.0174	465.82	88.9249	465.82	89.2069	465.82	87.8811	465.82	88.247	465.82	86.7246	465.82	87.1656	465.82	85.4947	465.82	85.9814	465.82	84.3041	465.82	84.7498	465.82	83.418	465.82	83.6517	465.82	83.0891	465.82	82.9951	465.82	83.1007	465.82	82.882	465.82	82.7963	465.82	82.8913	465.82	81.4729	465.82	82.3546	465.82	78.308	465.82	80.6479	465.82	72.081	465.82	77.3076	465.82	71.843	465.82	74.2232	465.82	76.519	465.82	76.0898	465.82	77.6525
483.398	91.9019	483.398	91.6687	483.398	91.8578	483.398	91.1694	483.398	91.5237	483.398	90.4125	483.398	90.8863	483.398	89.3973	483.398	89.933	483.398	88.0891	483.398	88.646	483.398	86.3744	483.398	86.9896	483.398	84.0253	483.398	84.925	483.398	80.8175	483.398	82.5945	483.398	77.7362	483.398	80.9127	483.398	78.4002	483.398	81.1657	483.398	80.728	483.398	82.4174	483.398	81.8989	483.398	83.1355	483.398	81.4478	483.398	82.6718	483.398	78.9545	483.398	80.6402	483.398	73.8853	483.398	76.9146	483.398	74.03	483.398	75.4598	483.398	78.3362	483.398	78.3731	483.398	79.6745
499.512	90.7768	499.512	90.6267	499.512	90.6583	499.512	90.2374	499.512	90.2618	499.512	89.6346	499.512	89.6125	499.512	88.8271	499.512	88.7547	499.512	87.8071	499.512	87.7111	499.512	86.5517	499.512	86.4467	499.512	85.0212	499.512	84.8623	499.512	83.1627	499.512	82.8169	499.512	80.9775	499.512	80.2354	499.512	78.806	499.512	77.641	499.512	77.5169	499.512	76.7478	499.512	77.0636	499.512	77.293	499.512	75.8511	499.512	76.8813	499.512	72.1121	499.512	73.6076	499.512	68.2809	499.512	59.3135	499.512	74.7434	499.512	71.6279	499.512	78.4361	499.512	77.5901	499.512	79.3151
517.09	90.7189	517.09	90.4283	517.09	90.5858	517.09	89.7253	517.09	90.0897	517.09	88.6951	517.09	89.3283	517.09	87.4729	517.09	88.3859	517.09	86.2018	517.09	87.2973	517.09	84.9632	517.09	86.0373	517.09	83.6874	517.09	84.5234	517.09	82.1512	517.09	82.6466	517.09	80.1988	517.09	80.429	517.09	78.3746	517.09	78.5228	517.09	78.1445	517.09	78.0951	517.09	78.9775	517.09	78.4012	517.09	78.8436	517.09	77.6109	517.09	76.3287	517.09	74.176	517.09	68.173	517.09	61.9626	517.09	67.3406	517.09	69.4061	517.09	75.3645	517.09	75.7605	517.09	77.2276
536.133	89.7189	536.133	89.5398	536.133	89.6788	536.133	89.1647	536.133	89.3981	536.133	88.5977	536.133	88.8742	536.133	87.8249	536.133	88.1175	536.133	86.8315	536.133	87.1296	536.133	85.6106	536.133	85.8953	536.133	84.1499	536.133	84.4136	536.133	82.4456	536.133	82.7692	536.133	80.6914	536.133	81.2639	536.133	79.6238	536.133	80.49	536.133	79.7524	536.133	80.7181	536.133	80.0752	536.133	81.1927	536.133	79.4487	536.133	80.8448	536.133	77.297	536.133	78.7494	536.133	73.0827	536.133	73.6481	536.133	66.2221	536.133	65.0818	536.133	66.3174	536.133	68.8985	536.133	69.8018
555.176	87.9305	555.176	87.888	555.176	87.7407	555.176	87.5791	555.176	87.3459	555.176	87.0014	555.176	86.7456	555.176	86.1977	555.176	85.9385	555.176	85.2272	555.176	84.9554	555.176	84.0985	555.176	83.8139	555.176	82.6865	555.176	82.397	555.176	80.6985	555.176	80.3815	555.176	77.8096	555.176	77.3238	555.176	74.935	555.176	73.9781	555.176	76.0814	555.176	75.3254	555.176	78.8413	555.176	78.3235	555.176	80.0672	555.176	79.5165	555.176	79.0836	555.176	78.6359	555.176	74.8017	555.176	75.4366	555.176	67.2307	555.176	71.1265	555.176	73.295	555.176	73.2701	555.176	75.306
574.219	89.2925	574.219	89.1015	574.219	89.1395	574.219	88.5829	574.219	88.6458	574.219	87.7659	574.219	87.8424	574.219	86.6983	574.219	86.7884	574.219	85.4693	574.219	85.5625	574.219	84.2047	574.219	84.245	574.219	82.9669	574.219	82.8745	574.219	81.6102	574.219	81.3573	574.219	79.7538	574.219	79.3348	574.219	77.1165	574.219	76.2067	574.219	75.4547	574.219	73.1968	574.219	77.403	574.219	75.8185	574.219	79.3538	574.219	78.8212	574.219	79.4952	574.219	79.6565	574.219	77.5944	574.219	78.4623	574.219	73.6523	574.219	75.4875	574.219	69.2206	574.219	71.4851	574.219	68.6159
594.727	88.0917	594.727	87.9692	594.727	87.9753	594.727	87.6089	594.727	87.5756	594.727	86.9835	594.727	86.8092	594.727	86.072	594.727	85.5994	594.727	84.8956	594.727	83.972	594.727	83.533	594.727	82.1523	594.727	82.1182	594.727	80.5401	594.727	80.7591	594.727	79.3253	594.727	79.255	594.727	78.023	594.727	76.8551	594.727	75.7184	594.727	72.6075	594.727	72.1608	594.727	70.9031	594.727	71.9202	594.727	74.5742	594.727	74.5761	594.727	75.3286	594.727	75.1289	594.727	71.5637	594.727	72.5392	594.727	52.009	594.727	62.622	594.727	69.6682	594.727	66.1849	594.727	71.7086
615.234	88.835	615.234	88.6146	615.234	88.6664	615.234	87.9855	615.234	88.11	615.234	86.9538	615.234	87.1681	615.234	85.5865	615.234	85.9097	615.234	84.0065	615.234	84.471	615.234	82.3671	615.234	82.9732	615.234	80.7424	615.234	81.4488	615.234	78.949	615.234	79.7884	615.234	76.7372	615.234	77.7805	615.234	74.8213	615.234	75.5408	615.234	74.3412	615.234	74.112	615.234	73.6485	615.234	73.8553	615.234	71.5664	615.234	73.3406	615.234	69.217	615.234	71.8095	615.234	67.3257	615.234	69.7857	615.234	68.1198	615.234	70.1366	615.234	71.2627	615.234	72.1795	615.234	72.7535
637.207	88.2236	637.207	87.9439	637.207	88.0913	637.207	87.2923	637.207	87.5967	637.207	86.3814	637.207	86.8406	637.207	85.3303	637.207	85.9078	637.207	84.1985	637.207	84.8282	637.207	82.9825	637.207	83.5798	637.207	81.64	637.207	82.127	637.207	80.0351	637.207	80.521	637.207	77.9939	637.207	78.7904	637.207	76.0649	637.207	76.3855	637.207	75.8167	637.207	72.8542	637.207	76.879	637.207	72.8645	637.207	78.0497	637.207	75.2821	637.207	78.504	637.207	75.3075	637.207	77.169	637.207	72.927	637.207	72.8423	637.207	68.128	637.207	63.003	637.207	58.8934	637.207	44.9441
659.18	87.575	659.18	87.3617	659.18	87.3351	659.18	86.7154	659.18	86.6926	659.18	85.7499	659.18	85.7241	659.18	84.6398	659.18	84.5328	659.18	83.5388	659.18	83.2451	659.18	82.4366	659.18	81.9636	659.18	81.1166	659.18	80.7404	659.18	79.4568	659.18	79.4662	659.18	77.7351	659.18	77.8257	659.18	75.9093	659.18	75.6364	659.18	72.9635	659.18	73.2224	659.18	69.8081	659.18	71.7422	659.18	71.3215	659.18	73.4863	659.18	72.2005	659.18	75.4632	659.18	69.452	659.18	74.1323	659.18	64.4096	659.18	65.8563	659.18	69.5144	659.18	64.8496	659.18	71.0785
682.617	88.5022	682.617	88.2026	682.617	88.3549	682.617	87.5444	682.617	87.7564	682.617	86.674	682.617	86.8073	682.617	85.7346	682.617	85.6153	682.617	84.7345	682.617	84.1602	682.617	83.5191	682.617	82.4072	682.617	81.9222	682.617	80.5511	682.617	79.8528	682.617	78.969	682.617	77.4473	682.617	77.6529	682.617	75.2807	682.617	76.0324	682.617	73.514	682.617	74.0712	682.617	71.4961	682.617	73.3676	682.617	72.0051	682.617	73.582	682.617	73.6786	682.617	72.7668	682.617	72.2281	682.617	70.0356	682.617	68.4586	682.617	69.2176	682.617	71.5381	682.617	73.2051	682.617	74.1686
707.52	87.5161	707.52	87.0881	707.52	87.7646	707.52	86.6017	707.52	87.7707	707.52	86.106	707.52	87.4619	707.52	85.4789	707.52	86.7198	707.52	84.6238	707.52	85.5546	707.52	83.571	707.52	84.2883	707.52	82.3786	707.52	83.2784	707.52	81.2145	707.52	82.2209	707.52	80.2811	707.52	80.3231	707.52	79.1575	707.52	77.2095	707.52	76.8447	707.52	73.194	707.52	73.5493	707.52	68.7276	707.52	73.5005	707.52	70.1128	707.52	74.4839	707.52	73.7301	707.52	71.6758	707.52	74.2499	707.52	55.6829	707.52	70.0686	707.52	68.1618	707.52	54.0008	707.52	69.4784
732.422	88.4227	732.422	88.0736	732.422	88.3549	732.422	87.3707	732.422	87.8558	732.422	86.4684	732.422	86.9771	732.422	85.554	732.422	85.8175	732.422	84.5535	732.422	84.5344	732.422	83.1824	732.422	83.3211	732.422	81.4891	732.422	82.13	732.422	79.9749	732.422	80.7807	732.422	78.7199	732.422	79.6137	732.422	76.8479	732.422	78.5033	732.422	73.1913	732.422	76.0321	732.422	72.8201	732.422	73.5581	732.422	77.5247	732.422	76.5487	732.422	78.9396	732.422	78.8419	732.422	76.7045	732.422	78.1401	732.422	70.0558	732.422	73.7743	732.422	62.7048	732.422	63.6418	732.422	61.8403
757.324	87.4604	757.324	87.5679	757.324	87.2503	757.324	87.43	757.324	86.9034	757.324	86.8219	757.324	86.2751	757.324	85.6306	757.324	85.3252	757.324	84.0544	757.324	84.2874	757.324	82.4641	757.324	83.3401	757.324	80.788	757.324	82.1187	757.324	78.842	757.324	80.2302	757.324	78.0963	757.324	77.9802	757.324	78.4843	757.324	75.7233	757.324	76.959	757.324	73.4275	757.324	70.8986	757.324	69.8203	757.324	67.5862	757.324	63.1498	757.324	76.4418	757.324	73.2826	757.324	78.1216	757.324	75.4211	757.324	74.6315	757.324	72.3685	757.324	66.5909	757.324	69.937	757.324	69.7149
785.156	87.9363	785.156	87.5095	785.156	87.811	785.156	86.7095	785.156	87.1101	785.156	85.8191	785.156	86.0012	785.156	84.987	785.156	84.8199	785.156	84.1396	785.156	83.8467	785.156	83.3466	785.156	82.9755	785.156	82.6505	785.156	81.8003	785.156	81.4841	785.156	80.0622	785.156	79.0467	785.156	77.6052	785.156	75.6981	785.156	74.5264	785.156	73.9703	785.156	73.6628	785.156	72.3064	785.156	72.7182	785.156	66.3878	785.156	65.1287	785.156	62.1609	785.156	65.6683	785.156	64.2856	785.156	68.1602	785.156	58.2588	785.156	68.4992	785.156	66.6365	785.156	70.5749	785.156	70.5131
811.523	88.0129	811.523	87.8701	811.523	88.0163	811.523	87.8438	811.523	87.4656	811.523	87.5642	811.523	86.3108	811.523	86.5677	811.523	85.0391	811.523	85.0674	811.523	84.3003	811.523	83.7227	811.523	84.0892	811.523	82.7423	811.523	83.5525	811.523	81.8501	811.523	81.7989	811.523	80.101	811.523	78.6905	811.523	76.3844	811.523	76.5952	811.523	72.0506	811.523	76.7779	811.523	70.8522	811.523	75.0141	811.523	70.1326	811.523	72.7212	811.523	69.4234	811.523	72.9432	811.523	67.3798	811.523	69.9895	811.523	63.4253	811.523	63.8425	811.523	69.5087	811.523	54.3395	811.523	69.1309
840.82	88.0602	840.82	87.6535	840.82	87.8586	840.82	86.7728	840.82	87.3293	840.82	86.0381	840.82	86.632	840.82	85.5031	840.82	85.3843	840.82	84.2799	840.82	83.2905	840.82	82.2076	840.82	80.9916	840.82	80.7057	840.82	79.285	840.82	79.5494	840.82	77.8764	840.82	76.236	840.82	76.4172	840.82	72.9268	840.82	74.9267	840.82	74.4322	840.82	71.6962	840.82	73.7573	840.82	63.0587	840.82	66.5854	840.82	52.9744	840.82	65.5373	840.82	62.0104	840.82	67.0832	840.82	67.4366	840.82	63.2737	840.82	59.7523	840.82	72.4312	840.82	70.898	840.82	75.4633
870.117	88.1607	870.117	87.8099	870.117	88.2292	870.117	87.4239	870.117	87.864	870.117	86.8381	870.117	87.0983	870.117	85.4756	870.117	85.8498	870.117	83.0605	870.117	83.9313	870.117	80.3395	870.117	81.6502	870.117	78.3323	870.117	79.8336	870.117	76.8686	870.117	77.9713	870.117	76.3061	870.117	74.8971	870.117	75.5218	870.117	73.3711	870.117	72.7773	870.117	73.2794	870.117	68.9924	870.117	70.511	870.117	67.9561	870.117	72.012	870.117	71.5868	870.117	71.8127	870.117	70.6444	870.117	67.3371	870.117	65.721	870.117	67.3129	870.117	62.9551	870.117	65.7213	870.117	62.9547
900.879	88.6583	900.879	88.5745	900.879	88.6535	900.879	88.2186	900.879	88.4776	900.879	87.2639	900.879	87.861	900.879	85.6434	900.879	86.5797	900.879	83.8869	900.879	84.7662	900.879	82.3217	900.879	82.9618	900.879	80.4391	900.879	81.7994	900.879	78.144	900.879	80.7613	900.879	75.5377	900.879	78.9376	900.879	71.9447	900.879	77.2224	900.879	68.3586	900.879	75.8182	900.879	66.3483	900.879	73.1361	900.879	71.0012	900.879	69.8819	900.879	73.6846	900.879	72.2925	900.879	73.3641	900.879	71.8199	900.879	70.4523	900.879	63.9691	900.879	63.5646	900.879	51.0296	900.879	50.2505
933.105	89.5609	933.105	88.993	933.105	89.4672	933.105	87.7261	933.105	88.6426	933.105	86.1261	933.105	87.2134	933.105	85.0543	933.105	85.7524	933.105	84.3325	933.105	84.4267	933.105	83.3698	933.105	82.8378	933.105	82.5245	933.105	80.8933	933.105	81.3917	933.105	78.6401	933.105	79.1723	933.105	75.9833	933.105	77.1126	933.105	73.6656	933.105	75.7706	933.105	74.1337	933.105	73.0674	933.105	72.7808	933.105	67.1915	933.105	66.5288	933.105	62.8634	933.105	54.1033	933.105	69.1345	933.105	62.6407	933.105	63.1377	933.105	60.1899	933.105	67.7019	933.105	61.1894	933.105	70.1751
965.332	89.43	965.332	89.1954	965.332	89.1955	965.332	88.7931	965.332	88.3141	965.332	87.9487	965.332	87.1221	965.332	86.1603	965.332	86.0994	965.332	84.0164	965.332	85.0687	965.332	82.7994	965.332	83.4553	965.332	81.3164	965.332	81.3413	965.332	78.7362	965.332	79.3724	965.332	77.1081	965.332	77.9146	965.332	76.9451	965.332	76.5084	965.332	76.2235	965.332	73.4837	965.332	71.7312	965.332	69.7724	965.332	68.6513	965.332	72.4694	965.332	72.5997	965.332	72.9841	965.332	69.9103	965.332	73.3056	965.332	65.1881	965.332	73.0767	965.332	68.0361	965.332	63.7999	965.332	64.8079
1,000.49	88.7059	1,000.49	88.8984	1,000.49	87.9686	1,000.49	88.1972	1,000.49	87.4282	1,000.49	86.829	1,000.49	87.1356	1,000.49	85.139	1,000.49	86.2104	1,000.49	83.0179	1,000.49	84.1757	1,000.49	80.1775	1,000.49	81.9806	1,000.49	78.0964	1,000.49	80.6755	1,000.49	77.4115	1,000.49	79.4493	1,000.49	75.3261	1,000.49	77.6427	1,000.49	69.1109	1,000.49	75.965	1,000.49	62.3137	1,000.49	75.4177	1,000.49	66.6829	1,000.49	74.705	1,000.49	64.916	1,000.49	72.6286	1,000.49	60.8152	1,000.49	66.4829	1,000.49	71.094	1,000.49	58.8225	1,000.49	71.378	1,000.49	48.8926	1,000.49	66.6556	1,000.49	63.6022	1,000.49	62.5218
1,035.64	88.5228	1,035.64	88.4771	1,035.64	88.5436	1,035.64	88.0558	1,035.64	88.4858	1,035.64	87.0648	1,035.64	88.0422	1,035.64	85.7476	1,035.64	86.853	1,035.64	84.5125	1,035.64	84.9226	1,035.64	82.8197	1,035.64	82.4683	1,035.64	79.5874	1,035.64	79.8536	1,035.64	77.6999	1,035.64	77.1716	1,035.64	79.186	1,035.64	76.124	1,035.64	78.763	1,035.64	77.6077	1,035.64	76.6897	1,035.64	77.0174	1,035.64	73.3466	1,035.64	75.9095	1,035.64	68.3336	1,035.64	73.5721	1,035.64	68.0103	1,035.64	59.1784	1,035.64	70.8136	1,035.64	68.4439	1,035.64	71.5681	1,035.64	68.8589	1,035.64	66.0744	1,035.64	62.7933	1,035.64	65.6843
1,072.27	88.3953	1,072.27	87.6243	1,072.27	88.9601	1,072.27	87.3179	1,072.27	88.6	1,072.27	86.8783	1,072.27	87.0684	1,072.27	85.2228	1,072.27	85.0866	1,072.27	82.8306	1,072.27	83.3449	1,072.27	81.0415	1,072.27	81.0228	1,072.27	79.0991	1,072.27	77.6965	1,072.27	76.495	1,072.27	76.0825	1,072.27	75.3618	1,072.27	75.8357	1,072.27	73.9622	1,072.27	72.9241	1,072.27	72.3019	1,072.27	70.9328	1,072.27	72.6229	1,072.27	68.3435	1,072.27	68.0385	1,072.27	69.1588	1,072.27	62.8547	1,072.27	72.1437	1,072.27	68.0488	1,072.27	70.7338	1,072.27	67.591	1,072.27	69.551	1,072.27	63.0532	1,072.27	60.8871	1,072.27	67.3231
1,108.89	88.7358	1,108.89	88.8042	1,108.89	88.2806	1,108.89	88.2428	1,108.89	87.59	1,108.89	86.5792	1,108.89	86.5819	1,108.89	84.1801	1,108.89	84.699	1,108.89	82.545	1,108.89	81.9271	1,108.89	81.1852	1,108.89	79.8324	1,108.89	79.4918	1,108.89	79.4241	1,108.89	77.7838	1,108.89	77.511	1,108.89	74.5502	1,108.89	74.0286	1,108.89	73.7868	1,108.89	72.0488	1,108.89	75.2467	1,108.89	69.4636	1,108.89	71.833	1,108.89	70.6665	1,108.89	69.5424	1,108.89	73.7526	1,108.89	62.8292	1,108.89	71.1075	1,108.89	65.4111	1,108.89	62.2944	1,108.89	67.763	1,108.89	66.6818	1,108.89	61.8102	1,108.89	63.5571	1,108.89	58.0175
1,148.44	88.9041	1,148.44	89.3393	1,148.44	88.6007	1,148.44	88.7112	1,148.44	88.4208	1,148.44	87.3091	1,148.44	87.4142	1,148.44	86.7	1,148.44	85.8095	1,148.44	84.8063	1,148.44	83.8767	1,148.44	80.5624	1,148.44	81.2692	1,148.44	77.9952	1,148.44	78.3101	1,148.44	75.5896	1,148.44	75.5397	1,148.44	73.9043	1,148.44	73.9341	1,148.44	75.3485	1,148.44	73.2687	1,148.44	73.5045	1,148.44	72.3389	1,148.44	72.1579	1,148.44	71.4359	1,148.44	66.6372	1,148.44	69.3444	1,148.44	66.2263	1,148.44	64.3654	1,148.44	68.5584	1,148.44	67.6111	1,148.44	66.6781	1,148.44	69.1773	1,148.44	70.7493	1,148.44	66.6263	1,148.44	59.5605
1,189.45	89.2722	1,189.45	88.8548	1,189.45	89.0356	1,189.45	87.904	1,189.45	88.2792	1,189.45	86.8365	1,189.45	87.1474	1,189.45	85.3381	1,189.45	85.3933	1,189.45	82.8164	1,189.45	82.7897	1,189.45	79.812	1,189.45	80.4042	1,189.45	77.258	1,189.45	78.5957	1,189.45	75.1548	1,189.45	76.5234	1,189.45	70.269	1,189.45	75.323	1,189.45	56.1877	1,189.45	75.4008	1,189.45	70.9169	1,189.45	72.3995	1,189.45	70.848	1,189.45	69.2489	1,189.45	64.8546	1,189.45	63.1599	1,189.45	61.7392	1,189.45	59.3313	1,189.45	54.2772	1,189.45	64.836	1,189.45	63.4229	1,189.45	63.1032	1,189.45	64.0935	1,189.45	66.2925	1,189.45	60.9953
1,230.47	89.27	1,230.47	88.2493	1,230.47	89.3667	1,230.47	87.4668	1,230.47	88.7604	1,230.47	86.7076	1,230.47	87.3955	1,230.47	84.7922	1,230.47	84.8021	1,230.47	82.652	1,230.47	82.3169	1,230.47	80.2455	1,230.47	80.0736	1,230.47	77.8636	1,230.47	76.0106	1,230.47	76.9954	1,230.47	73.8588	1,230.47	75.4886	1,230.47	73.4286	1,230.47	73.4641	1,230.47	69.0233	1,230.47	67.6048	1,230.47	59.5315	1,230.47	66.0311	1,230.47	62.3782	1,230.47	63.0524	1,230.47	63.9651	1,230.47	47.2954	1,230.47	67.4478	1,230.47	65.7141	1,230.47	69.6431	1,230.47	69.4123	1,230.47	71.9368	1,230.47	63.2546	1,230.47	64.4629	1,230.47	65.4302
1,274.41	89.1431	1,274.41	88.4742	1,274.41	89.6343	1,274.41	88.461	1,274.41	88.8619	1,274.41	87.3608	1,274.41	87.1435	1,274.41	84.8961	1,274.41	85.4365	1,274.41	82.4181	1,274.41	82.9785	1,274.41	78.9257	1,274.41	79.1862	1,274.41	74.0867	1,274.41	76.6192	1,274.41	72.6677	1,274.41	76.2181	1,274.41	70.6099	1,274.41	76.4103	1,274.41	68.6631	1,274.41	73.5719	1,274.41	69.7407	1,274.41	71.19	1,274.41	69.8668	1,274.41	71.3117	1,274.41	65.0875	1,274.41	60.4377	1,274.41	61.1473	1,274.41	66.6807	1,274.41	65.4031	1,274.41	61.0582	1,274.41	61.7677	1,274.41	66.2301	1,274.41	70.3789	1,274.41	68.2501	1,274.41	68.717
1,319.82	89.2566	1,319.82	88.9053	1,319.82	89.6886	1,319.82	88.8671	1,319.82	88.7497	1,319.82	87.1487	1,319.82	87.1723	1,319.82	84.5526	1,319.82	85.1098	1,319.82	82.2891	1,319.82	81.4841	1,319.82	77.9773	1,319.82	78.9013	1,319.82	72.2896	1,319.82	77.9103	1,319.82	65.9055	1,319.82	75.6162	1,319.82	65.8832	1,319.82	75.5236	1,319.82	70.3106	1,319.82	72.8143	1,319.82	70.6825	1,319.82	70.1519	1,319.82	67.5165	1,319.82	70.2758	1,319.82	64.6286	1,319.82	65.1874	1,319.82	62.566	1,319.82	66.5152	1,319.82	62.8975	1,319.82	71.4603	1,319.82	54.5449	1,319.82	69.8316	1,319.82	63.5441	1,319.82	68.7901	1,319.82	55.3413
1,366.7	90.0949	1,366.7	89.7549	1,366.7	89.784	1,366.7	89.0984	1,366.7	88.8807	1,366.7	87.3519	1,366.7	87.854	1,366.7	84.9265	1,366.7	85.6054	1,366.7	82.4857	1,366.7	82.0987	1,366.7	79.1409	1,366.7	78.0712	1,366.7	76.0281	1,366.7	75.594	1,366.7	72.9304	1,366.7	73.7154	1,366.7	70.39	1,366.7	73.0275	1,366.7	71.1893	1,366.7	73.0145	1,366.7	74.3108	1,366.7	74.0715	1,366.7	71.9612	1,366.7	72.3906	1,366.7	67.6332	1,366.7	66.292	1,366.7	63.9839	1,366.7	65.4959	1,366.7	68.1798	1,366.7	61.0888	1,366.7	72.1451	1,366.7	59.5353	1,366.7	60.9819	1,366.7	67.6763	1,366.7	60.236
1,413.57	89.2681	1,413.57	89.0581	1,413.57	89.8071	1,413.57	88.9119	1,413.57	89.0784	1,413.57	87.5184	1,413.57	87.1816	1,413.57	84.4643	1,413.57	85.0492	1,413.57	81.7026	1,413.57	82.0386	1,413.57	78.0357	1,413.57	80.0936	1,413.57	74.2114	1,413.57	76.9353	1,413.57	73.5712	1,413.57	74.8106	1,413.57	71.2347	1,413.57	73.1087	1,413.57	68.0315	1,413.57	66.5702	1,413.57	65.2488	1,413.57	64.5478	1,413.57	71.3022	1,413.57	72.1479	1,413.57	71.8131	1,413.57	54.7023	1,413.57	67.4198	1,413.57	71.1681	1,413.57	62.7798	1,413.57	73.16	1,413.57	54.144	1,413.57	66.977	1,413.57	69.9349	1,413.57	67.407	1,413.57	71.9421
1,463.38	89.5206	1,463.38	88.7649	1,463.38	89.4627	1,463.38	88.3383	1,463.38	88.3735	1,463.38	86.5001	1,463.38	86.5643	1,463.38	83.2025	1,463.38	84.0845	1,463.38	80.0449	1,463.38	81.3766	1,463.38	78.0015	1,463.38	77.5814	1,463.38	76.2763	1,463.38	73.5334	1,463.38	70.847	1,463.38	67.827	1,463.38	71.2869	1,463.38	73.9124	1,463.38	68.091	1,463.38	70.3772	1,463.38	64.5581	1,463.38	69.5514	1,463.38	66.058	1,463.38	67.294	1,463.38	57.8745	1,463.38	72.3903	1,463.38	66.8319	1,463.38	68.8925	1,463.38	69.7041	1,463.38	66.9191	1,463.38	65.9718	1,463.38	66.176	1,463.38	69.1207	1,463.38	68.5366	1,463.38	62.835
1,516.11	89.3564	1,516.11	88.8186	1,516.11	89.6076	1,516.11	88.4164	1,516.11	88.3663	1,516.11	85.9826	1,516.11	86.5415	1,516.11	82.2313	1,516.11	84.7708	1,516.11	79.3568	1,516.11	79.6918	1,516.11	77.1764	1,516.11	77.847	1,516.11	73.3955	1,516.11	76.9027	1,516.11	69.8195	1,516.11	70.8041	1,516.11	68.8528	1,516.11	66.3734	1,516.11	69.2538	1,516.11	65.0795	1,516.11	75.1452	1,516.11	65.4667	1,516.11	70.1075	1,516.11	64.895	1,516.11	64.1496	1,516.11	71.0628	1,516.11	69.1897	1,516.11	66.3879	1,516.11	67.4532	1,516.11	68.1032	1,516.11	59.6536	1,516.11	54.956	1,516.11	72.2129	1,516.11	59.8838	1,516.11	72.6476
1,568.85	88.429	1,568.85	88.1067	1,568.85	88.3031	1,568.85	87.1214	1,568.85	87.4306	1,568.85	84.8514	1,568.85	85.5877	1,568.85	81.2249	1,568.85	82.6183	1,568.85	79.0407	1,568.85	79.3983	1,568.85	76.5177	1,568.85	77.1707	1,568.85	75.0091	1,568.85	76.9174	1,568.85	74.4136	1,568.85	73.6187	1,568.85	72.3103	1,568.85	71.9605	1,568.85	70.5683	1,568.85	70.6141	1,568.85	69.4684	1,568.85	68.9483	1,568.85	71.7079	1,568.85	62.2026	1,568.85	61.0936	1,568.85	71.1715	1,568.85	62.8416	1,568.85	60.6681	1,568.85	65.2889	1,568.85	59.2354	1,568.85	51.3285	1,568.85	67.222	1,568.85	61.789	1,568.85	67.5699	1,568.85	67.7311
1,624.51	88.363	1,624.51	87.7614	1,624.51	88.0785	1,624.51	86.3196	1,624.51	87.1534	1,624.51	83.5476	1,624.51	84.8093	1,624.51	80.6886	1,624.51	81.6793	1,624.51	78.0685	1,624.51	78.9812	1,624.51	76.5169	1,624.51	77.8681	1,624.51	76.6372	1,624.51	77.1698	1,624.51	73.7012	1,624.51	75.1871	1,624.51	71.0249	1,624.51	73.2656	1,624.51	72.869	1,624.51	69.4543	1,624.51	63.9904	1,624.51	71.1008	1,624.51	67.4742	1,624.51	65.319	1,624.51	64.9485	1,624.51	66.3316	1,624.51	61.28	1,624.51	65.088	1,624.51	61.5738	1,624.51	65.3287	1,624.51	71.3633	1,624.51	58.0882	1,624.51	71.458	1,624.51	60.9451	1,624.51	59.5449
1,681.64	89.1235	1,681.64	88.3916	1,681.64	88.7541	1,681.64	86.629	1,681.64	87.3218	1,681.64	84.5679	1,681.64	84.7948	1,681.64	81.9645	1,681.64	81.7047	1,681.64	80.428	1,681.64	80.1605	1,681.64	78.8605	1,681.64	78.7998	1,681.64	76.1824	1,681.64	77.2954	1,681.64	74.919	1,681.64	75.5647	1,681.64	71.6542	1,681.64	72.2725	1,681.64	69.0189	1,681.64	70.0302	1,681.64	67.8337	1,681.64	71.2938	1,681.64	68.0543	1,681.64	66.4478	1,681.64	63.3879	1,681.64	70.3379	1,681.64	63.1835	1,681.64	65.7264	1,681.64	70.8998	1,681.64	62.6648	1,681.64	58.5422	1,681.64	69.2107	1,681.64	63.9753	1,681.64	67.9367	1,681.64	70.6266
1,741.7	89.8398	1,741.7	89.0964	1,741.7	89.3215	1,741.7	87.2868	1,741.7	87.5109	1,741.7	84.3662	1,741.7	84.6204	1,741.7	82.1068	1,741.7	82.3412	1,741.7	81.3845	1,741.7	81.2842	1,741.7	79.3612	1,741.7	80.2065	1,741.7	76.9519	1,741.7	78.2202	1,741.7	75.4364	1,741.7	74.9083	1,741.7	73.0898	1,741.7	75.1646	1,741.7	71.7032	1,741.7	72.6086	1,741.7	69.0494	1,741.7	68.1892	1,741.7	62.3929	1,741.7	68.8354	1,741.7	69.1776	1,741.7	67.3922	1,741.7	56.1815	1,741.7	59.0081	1,741.7	69.6468	1,741.7	66.6279	1,741.7	69.5505	1,741.7	52.7214	1,741.7	67.477	1,741.7	56.7891	1,741.7	66.5595
1,803.22	90.3568	1,803.22	89.6711	1,803.22	89.7327	1,803.22	87.5828	1,803.22	87.7087	1,803.22	85.1035	1,803.22	85.084	1,803.22	83.1278	1,803.22	82.8471	1,803.22	81.4359	1,803.22	81.7067	1,803.22	80.3205	1,803.22	80.0805	1,803.22	77.8591	1,803.22	77.6478	1,803.22	74.9843	1,803.22	75.7075	1,803.22	73.1888	1,803.22	73.1524	1,803.22	68.9783	1,803.22	69.0819	1,803.22	68.6	1,803.22	70.4646	1,803.22	63.8571	1,803.22	64.3662	1,803.22	63.0356	1,803.22	66.299	1,803.22	61.9472	1,803.22	64.5636	1,803.22	64.9517	1,803.22	53.9716	1,803.22	62.7516	1,803.22	60.7642	1,803.22	63.6803	1,803.22	62.254	1,803.22	68.0074
1,866.21	90.3736	1,866.21	89.5251	1,866.21	89.5318	1,866.21	87.3899	1,866.21	87.326	1,866.21	84.6987	1,866.21	84.5326	1,866.21	82.5595	1,866.21	82.8665	1,866.21	81.4659	1,866.21	81.6883	1,866.21	79.4939	1,866.21	79.6537	1,866.21	77.0533	1,866.21	77.043	1,866.21	74.8515	1,866.21	73.7188	1,866.21	71.977	1,866.21	71.4403	1,866.21	71.2918	1,866.21	70.8816	1,866.21	68.3281	1,866.21	67.1774	1,866.21	66.612	1,866.21	67.5115	1,866.21	62.9584	1,866.21	63.305	1,866.21	57.7035	1,866.21	61.3301	1,866.21	63.3115	1,866.21	58.7697	1,866.21	67.2382	1,866.21	53.5659	1,866.21	66.7177	1,866.21	61.2372	1,866.21	62.7124
1,932.13	89.9671	1,932.13	88.8568	1,932.13	89.2846	1,932.13	86.3526	1,932.13	86.8835	1,932.13	83.4862	1,932.13	84.318	1,932.13	81.9733	1,932.13	82.0382	1,932.13	80.5783	1,932.13	80.5932	1,932.13	78.482	1,932.13	78.7357	1,932.13	76.1686	1,932.13	76.099	1,932.13	73.6076	1,932.13	73.2738	1,932.13	72.1033	1,932.13	71.257	1,932.13	69.0745	1,932.13	68.9378	1,932.13	66.7242	1,932.13	67.1635	1,932.13	65.881	1,932.13	65.2002	1,932.13	64.5391	1,932.13	63.6798	1,932.13	64.0596	1,932.13	61.991	1,932.13	57.298	1,932.13	60.8234	1,932.13	63.9642	1,932.13	62.5126	1,932.13	66.8325	1,932.13	61.4083	1,932.13	66.0371
1,999.51	90.4056	1,999.51	89.1329	1,999.51	89.5378	1,999.51	86.2329	1,999.51	87.0632	1,999.51	83.7675	1,999.51	84.1706	1,999.51	81.8462	1,999.51	82.1964	1,999.51	79.7732	1,999.51	80.1912	1,999.51	78.0698	1,999.51	77.6482	1,999.51	75.434	1,999.51	75.1352	1,999.51	71.9194	1,999.51	72.4891	1,999.51	70.1235	1,999.51	69.5189	1,999.51	69.7488	1,999.51	66.9264	1,999.51	67.8808	1,999.51	66.5096	1,999.51	64.9165	1,999.51	63.8581	1,999.51	61.8103	1,999.51	60.3965	1,999.51	60.7646	1,999.51	60.5209	1,999.51	65.9116	1,999.51	45.8697	1,999.51	67.8446	1,999.51	57.3959	1,999.51	67.4142	1,999.51	61.9109	1,999.51	62.1402
2,069.82	90.3172	2,069.82	88.8329	2,069.82	89.4722	2,069.82	86.1018	2,069.82	86.832	2,069.82	83.2516	2,069.82	84.3217	2,069.82	81.5323	2,069.82	82.7783	2,069.82	79.7716	2,069.82	81.1156	2,069.82	76.9955	2,069.82	78.5731	2,069.82	74.5647	2,069.82	76.4163	2,069.82	72.9557	2,069.82	73.9899	2,069.82	70.3744	2,069.82	72.1826	2,069.82	66.0625	2,069.82	70.3186	2,069.82	64.3125	2,069.82	67.3171	2,069.82	62.5082	2,069.82	66.4856	2,069.82	61.1298	2,069.82	63.523	2,069.82	57.2589	2,069.82	63.3157	2,069.82	56.651	2,069.82	65.3214	2,069.82	63.6302	2,069.82	59.4387	2,069.82	68.6873	2,069.82	54.8838	2,069.82	64.5136
2,143.07	90.7888	2,143.07	89.7117	2,143.07	89.9086	2,143.07	86.834	2,143.07	87.8769	2,143.07	84.3546	2,143.07	85.4982	2,143.07	81.9883	2,143.07	83.6308	2,143.07	79.5911	2,143.07	81.3182	2,143.07	77.2882	2,143.07	79.646	2,143.07	74.7839	2,143.07	77.4682	2,143.07	70.361	2,143.07	74.6574	2,143.07	67.0071	2,143.07	71.1876	2,143.07	67.1571	2,143.07	68.7678	2,143.07	66.2058	2,143.07	67.9633	2,143.07	59.9141	2,143.07	65.2412	2,143.07	59.4485	2,143.07	65.242	2,143.07	62.558	2,143.07	58.8166	2,143.07	62.9857	2,143.07	54.8419	2,143.07	65.7326	2,143.07	52.7712	2,143.07	67.9426	2,143.07	59.4736	2,143.07	64.9229
2,219.24	90.733	2,219.24	89.2205	2,219.24	90.0745	2,219.24	86.7234	2,219.24	87.8774	2,219.24	83.7842	2,219.24	85.3394	2,219.24	81.6402	2,219.24	83.1074	2,219.24	80.0701	2,219.24	81.9447	2,219.24	77.3883	2,219.24	79.3336	2,219.24	74.6522	2,219.24	75.9433	2,219.24	71.5153	2,219.24	73.3941	2,219.24	69.9947	2,219.24	71.9023	2,219.24	66.3444	2,219.24	68.1629	2,219.24	62.6394	2,219.24	66.9353	2,219.24	64.6088	2,219.24	64.5976	2,219.24	48.9817	2,219.24	60.2801	2,219.24	50.1735	2,219.24	61.0697	2,219.24	54.0995	2,219.24	53.8333	2,219.24	64.2178	2,219.24	46.0615	2,219.24	68.8652	2,219.24	55.6442	2,219.24	60.6504
2,296.88	89.8966	2,296.88	88.776	2,296.88	89.1638	2,296.88	86.1507	2,296.88	87.3077	2,296.88	83.1645	2,296.88	84.4098	2,296.88	80.8973	2,296.88	82.2759	2,296.88	79.1613	2,296.88	79.6958	2,296.88	76.8207	2,296.88	77.4225	2,296.88	73.389	2,296.88	74.6288	2,296.88	70.7096	2,296.88	70.4173	2,296.88	67.4053	2,296.88	64.751	2,296.88	65.0891	2,296.88	65.5218	2,296.88	61.8343	2,296.88	61.5012	2,296.88	64.7897	2,296.88	62.22	2,296.88	59.7849	2,296.88	62.0283	2,296.88	54.7051	2,296.88	53.3426	2,296.88	60.6713	2,296.88	55.0701	2,296.88	64.4563	2,296.88	55.5837	2,296.88	68.2285	2,296.88	55.2152	2,296.88	62.8983
2,378.91	89.3993	2,378.91	87.7301	2,378.91	89.2169	2,378.91	84.7648	2,378.91	86.619	2,378.91	81.8365	2,378.91	83.7015	2,378.91	80.334	2,378.91	81.4863	2,378.91	78.9251	2,378.91	80.2544	2,378.91	75.5163	2,378.91	77.5813	2,378.91	71.8231	2,378.91	73.1127	2,378.91	67.3921	2,378.91	70.4659	2,378.91	65.2175	2,378.91	66.9004	2,378.91	63.4023	2,378.91	64.2481	2,378.91	62.9206	2,378.91	63.3733	2,378.91	57.3422	2,378.91	61.6601	2,378.91	59.3396	2,378.91	57.922	2,378.91	57.1649	2,378.91	52.4577	2,378.91	62.7963	2,378.91	54.2843	2,378.91	61.4406	2,378.91	52.4271	2,378.91	66.793	2,378.91	54.0316	2,378.91	56.715
2,462.4	89.4549	2,462.4	88.3507	2,462.4	88.3201	2,462.4	85.9422	2,462.4	86.4725	2,462.4	84.0243	2,462.4	84.1764	2,462.4	82.1899	2,462.4	83.0709	2,462.4	79.4275	2,462.4	80.9607	2,462.4	75.3874	2,462.4	78.1306	2,462.4	71.4126	2,462.4	74.7691	2,462.4	66.6571	2,462.4	69.1778	2,462.4	64.988	2,462.4	64.4275	2,462.4	64.2587	2,462.4	66.2914	2,462.4	57.3486	2,462.4	63.0806	2,462.4	54.861	2,462.4	63.2042	2,462.4	55.755	2,462.4	60.858	2,462.4	55.1322	2,462.4	61.1293	2,462.4	58.5715	2,462.4	58.7611	2,462.4	59.801	2,462.4	52.9846	2,462.4	64.8372	2,462.4	48.8937	2,462.4	52.906
2,548.83	90.2558	2,548.83	89.2774	2,548.83	89.6095	2,548.83	87.1877	2,548.83	87.2189	2,548.83	85.5788	2,548.83	85.628	2,548.83	83.8274	2,548.83	84.0327	2,548.83	81.1232	2,548.83	81.7957	2,548.83	77.2413	2,548.83	78.0888	2,548.83	73.4437	2,548.83	73.2809	2,548.83	69.7591	2,548.83	71.0471	2,548.83	67.751	2,548.83	69.5942	2,548.83	60.1912	2,548.83	62.9119	2,548.83	64.8232	2,548.83	65.6945	2,548.83	63.5552	2,548.83	59.612	2,548.83	41.7785	2,548.83	65.9046	2,548.83	52.1959	2,548.83	62.6698	2,548.83	54.0196	2,548.83	54.5676	2,548.83	60.5478	2,548.83	53.0537	2,548.83	63.9121	2,548.83	56.9702	2,548.83	61.3836
2,639.65	89.9849	2,639.65	88.8773	2,639.65	88.8821	2,639.65	86.9045	2,639.65	87.226	2,639.65	84.8742	2,639.65	85.4806	2,639.65	83.3252	2,639.65	84.2246	2,639.65	80.733	2,639.65	81.139	2,639.65	76.3923	2,639.65	77.1637	2,639.65	72.7005	2,639.65	73.7392	2,639.65	68.9057	2,639.65	69.0705	2,639.65	66.2013	2,639.65	67.482	2,639.65	65.6664	2,639.65	66.6142	2,639.65	64.5673	2,639.65	62.9364	2,639.65	64.1494	2,639.65	60.216	2,639.65	56.7439	2,639.65	63.415	2,639.65	57.8067	2,639.65	52.9929	2,639.65	53.9142	2,639.65	57.4491	2,639.65	60.2746	2,639.65	45.3026	2,639.65	63.0575	2,639.65	52.3415	2,639.65	60.6475
2,731.93	88.6007	2,731.93	87.3087	2,731.93	88.1499	2,731.93	85.2587	2,731.93	86.1427	2,731.93	83.6973	2,731.93	84.271	2,731.93	81.9191	2,731.93	82.3189	2,731.93	78.6416	2,731.93	80.2139	2,731.93	75.4444	2,731.93	75.9926	2,731.93	72.6978	2,731.93	71.8723	2,731.93	70.0816	2,731.93	69.5899	2,731.93	66.1657	2,731.93	67.259	2,731.93	66.3867	2,731.93	65.3996	2,731.93	67.6432	2,731.93	66.0232	2,731.93	59.6811	2,731.93	63.1347	2,731.93	62.3423	2,731.93	61.9618	2,731.93	58.3816	2,731.93	55.2587	2,731.93	50.5123	2,731.93	46.3765	2,731.93	54.8896	2,731.93	43.9911	2,731.93	64.4105	2,731.93	51.3299	2,731.93	59.3829
2,828.61	88.0554	2,828.61	87.0658	2,828.61	87.2274	2,828.61	85.1966	2,828.61	85.6051	2,828.61	82.912	2,828.61	83.787	2,828.61	80.9695	2,828.61	82.1193	2,828.61	78.0946	2,828.61	78.7822	2,828.61	75.1718	2,828.61	76.0061	2,828.61	71.5561	2,828.61	73.3148	2,828.61	67.7176	2,828.61	70.6234	2,828.61	66.1654	2,828.61	66.1818	2,828.61	65.5558	2,828.61	65.078	2,828.61	64.4023	2,828.61	66.2912	2,828.61	61.8407	2,828.61	62.4639	2,828.61	61.9556	2,828.61	63.3	2,828.61	48.9902	2,828.61	59.4412	2,828.61	52.4416	2,828.61	58.5033	2,828.61	48.5613	2,828.61	43.785	2,828.61	64.555	2,828.61	55.0182	2,828.61	52.7162
2,928.22	87.8459	2,928.22	86.9362	2,928.22	87.6127	2,928.22	84.8785	2,928.22	85.5335	2,928.22	82.7944	2,928.22	83.0942	2,928.22	80.1178	2,928.22	81.3807	2,928.22	77.6931	2,928.22	78.9731	2,928.22	74.2596	2,928.22	75.6818	2,928.22	72.0304	2,928.22	74.3027	2,928.22	70.0552	2,928.22	70.7034	2,928.22	66.1224	2,928.22	68.5049	2,928.22	64.6003	2,928.22	66.2246	2,928.22	63.9401	2,928.22	65.5192	2,928.22	62.9388	2,928.22	60.03	2,928.22	57.6812	2,928.22	62.5077	2,928.22	47.6125	2,928.22	57.9765	2,928.22	52.5188	2,928.22	60.207	2,928.22	48.2548	2,928.22	42.3865	2,928.22	61.7116	2,928.22	55.592	2,928.22	45.9699
3,030.76	87.9998	3,030.76	86.7572	3,030.76	87.2266	3,030.76	84.1268	3,030.76	85.2371	3,030.76	81.8537	3,030.76	83.1135	3,030.76	79.7964	3,030.76	80.8813	3,030.76	76.8009	3,030.76	78.1772	3,030.76	74.6847	3,030.76	76.4403	3,030.76	71.7657	3,030.76	73.2242	3,030.76	69.9345	3,030.76	71.0491	3,030.76	65.9966	3,030.76	66.8071	3,030.76	63.1363	3,030.76	65.3967	3,030.76	62.0586	3,030.76	64.3832	3,030.76	63.5698	3,030.76	58.035	3,030.76	49.2374	3,030.76	60.5009	3,030.76	57.0739	3,030.76	55.5067	3,030.76	42.9924	3,030.76	54.172	3,030.76	53.2121	3,030.76	51.0771	3,030.76	59.2782	3,030.76	44.7122	3,030.76	56.5026
3,137.7	88.6342	3,137.7	87.5475	3,137.7	87.9971	3,137.7	85.2443	3,137.7	85.4811	3,137.7	83.2907	3,137.7	83.2666	3,137.7	80.9471	3,137.7	81.6888	3,137.7	78.2494	3,137.7	79.0277	3,137.7	75.7311	3,137.7	76.3728	3,137.7	73.071	3,137.7	74.0688	3,137.7	70.3329	3,137.7	71.3621	3,137.7	68.0742	3,137.7	68.9712	3,137.7	65.8542	3,137.7	66.4548	3,137.7	63.7029	3,137.7	64.0032	3,137.7	63.0381	3,137.7	60.063	3,137.7	55.5871	3,137.7	62.2584	3,137.7	47.8762	3,137.7	58.5584	3,137.7	52.5059	3,137.7	52.787	3,137.7	50.4045	3,137.7	46.5719	3,137.7	60.8819	3,137.7	51.2931	3,137.7	56.8104
3,249.02	89.0708	3,249.02	87.5977	3,249.02	88.2351	3,249.02	85.4851	3,249.02	85.8861	3,249.02	84.2305	3,249.02	84.3867	3,249.02	81.8983	3,249.02	82.1917	3,249.02	79.8741	3,249.02	80.1169	3,249.02	77.4043	3,249.02	77.1283	3,249.02	75.3755	3,249.02	75.4566	3,249.02	72.5279	3,249.02	73.6113	3,249.02	71.3673	3,249.02	71.174	3,249.02	68.4072	3,249.02	68.3697	3,249.02	66.6673	3,249.02	65.3815	3,249.02	62.6977	3,249.02	66.4475	3,249.02	52.916	3,249.02	63.2341	3,249.02	52.5195	3,249.02	58.3604	3,249.02	49.8378	3,249.02	57.5638	3,249.02	53.9673	3,249.02	55.5952	3,249.02	60.4133	3,249.02	60.0831	3,249.02	58.6173
3,363.28	87.7592	3,363.28	87.058	3,363.28	87.0288	3,363.28	86.2135	3,363.28	86.1243	3,363.28	84.652	3,363.28	85.5978	3,363.28	82.5071	3,363.28	83.0955	3,363.28	79.7441	3,363.28	80.8291	3,363.28	78.0361	3,363.28	79.1646	3,363.28	76.245	3,363.28	77.0768	3,363.28	74.515	3,363.28	75.2511	3,363.28	72.7621	3,363.28	73.3975	3,363.28	70.4388	3,363.28	69.9375	3,363.28	68.1558	3,363.28	66.8382	3,363.28	65.0684	3,363.28	67.4912	3,363.28	42.2396	3,363.28	65.9448	3,363.28	54.1163	3,363.28	60.2364	3,363.28	49.8464	3,363.28	51.2687	3,363.28	51.4309	3,363.28	56.0662	3,363.28	62.0695	3,363.28	60.8931	3,363.28	52.9372
3,481.93	87.3041	3,481.93	87.161	3,481.93	87.2641	3,481.93	88.1732	3,481.93	87.3824	3,481.93	86.4918	3,481.93	86.6426	3,481.93	83.5432	3,481.93	83.9916	3,481.93	80.7746	3,481.93	81.4253	3,481.93	80.6316	3,481.93	80.3408	3,481.93	79.1448	3,481.93	79.3167	3,481.93	76.5413	3,481.93	77.321	3,481.93	73.7813	3,481.93	74.5226	3,481.93	70.5755	3,481.93	70.3973	3,481.93	69.5159	3,481.93	66.9426	3,481.93	67.306	3,481.93	67.8343	3,481.93	48.697	3,481.93	67.1656	3,481.93	48.7543	3,481.93	59.8206	3,481.93	30.6261	3,481.93	52.1249	3,481.93	47.8567	3,481.93	56.225	3,481.93	62.7501	3,481.93	57.8774	3,481.93	53.122
3,604.98	87.7196	3,604.98	87.9346	3,604.98	87.7075	3,604.98	88.7082	3,604.98	88.6066	3,604.98	86.8711	3,604.98	86.8951	3,604.98	82.369	3,604.98	83.1422	3,604.98	80.387	3,604.98	80.3338	3,604.98	80.7594	3,604.98	79.9483	3,604.98	79.494	3,604.98	79.7563	3,604.98	77.1461	3,604.98	77.0995	3,604.98	74.0215	3,604.98	74.6317	3,604.98	72.3604	3,604.98	69.8483	3,604.98	69.4236	3,604.98	66.6032	3,604.98	68.6532	3,604.98	67.4474	3,604.98	57.558	3,604.98	63.8132	3,604.98	47.1773	3,604.98	54.6846	3,604.98	49.9223	3,604.98	52.6442	3,604.98	58.3484	3,604.98	54.2018	3,604.98	64.8584	3,604.98	49.2829	3,604.98	58.3461
3,732.42	90.1364	3,732.42	90.0378	3,732.42	89.5624	3,732.42	89.8675	3,732.42	89.9826	3,732.42	86.7965	3,732.42	87.6227	3,732.42	82.086	3,732.42	82.6188	3,732.42	80.3921	3,732.42	80.187	3,732.42	80.3836	3,732.42	81.0993	3,732.42	77.9808	3,732.42	78.9885	3,732.42	74.6427	3,732.42	75.6833	3,732.42	72.8066	3,732.42	73.0171	3,732.42	71.4817	3,732.42	69.7253	3,732.42	66.1618	3,732.42	65.16	3,732.42	66.5587	3,732.42	66.6543	3,732.42	55.754	3,732.42	64.775	3,732.42	52.7869	3,732.42	54.0488	3,732.42	47.645	3,732.42	45.9744	3,732.42	56.146	3,732.42	45.7802	3,732.42	61.9069	3,732.42	51.7798	3,732.42	59.7299
3,864.26	91.0547	3,864.26	91.0106	3,864.26	90.8525	3,864.26	90.8358	3,864.26	90.4176	3,864.26	87.2904	3,864.26	87.7229	3,864.26	82.4588	3,864.26	82.429	3,864.26	81.4248	3,864.26	80.6136	3,864.26	80.3205	3,864.26	80.7229	3,864.26	77.2934	3,864.26	77.1668	3,864.26	74.3628	3,864.26	74.0043	3,864.26	71.9614	3,864.26	70.4124	3,864.26	67.2932	3,864.26	68.6614	3,864.26	66.9823	3,864.26	65.5421	3,864.26	63.9279	3,864.26	66.087	3,864.26	57.8132	3,864.26	66.8251	3,864.26	39.4517	3,864.26	46.0615	3,864.26	43.0587	3,864.26	58.5595	3,864.26	61.492	3,864.26	50.8775	3,864.26	54.9365	3,864.26	60.3365	3,864.26	61.1325
4,000.49	90.9364	4,000.49	90.7228	4,000.49	90.9524	4,000.49	89.7898	4,000.49	90.1993	4,000.49	85.9372	4,000.49	86.8555	4,000.49	82.3626	4,000.49	81.8361	4,000.49	81.6599	4,000.49	80.5174	4,000.49	80.1168	4,000.49	80.5818	4,000.49	76.3672	4,000.49	76.5298	4,000.49	73.72	4,000.49	71.4939	4,000.49	70.3117	4,000.49	68.1718	4,000.49	67.9996	4,000.49	61.1314	4,000.49	65.6287	4,000.49	62.4947	4,000.49	70.2745	4,000.49	64.0953	4,000.49	56.3792	4,000.49	63.3539	4,000.49	56.4459	4,000.49	50.731	4,000.49	50.1233	4,000.49	52.6746	4,000.49	64.4623	4,000.49	64.3224	4,000.49	61.8475	4,000.49	53.5956	4,000.49	62.41
4,141.11	91.4397	4,141.11	90.7412	4,141.11	91.3893	4,141.11	89.667	4,141.11	90.277	4,141.11	86.2455	4,141.11	87.129	4,141.11	83.0043	4,141.11	83.2397	4,141.11	82.0033	4,141.11	82.2409	4,141.11	79.9421	4,141.11	81.0989	4,141.11	74.6941	4,141.11	76.0551	4,141.11	69.6703	4,141.11	71.1876	4,141.11	69.6785	4,141.11	69.9808	4,141.11	66.4225	4,141.11	65.1706	4,141.11	60.4698	4,141.11	63.108	4,141.11	62.7393	4,141.11	63.5144	4,141.11	51.1041	4,141.11	59.2678	4,141.11	40.6573	4,141.11	62.4764	4,141.11	54.2461	4,141.11	54.2116	4,141.11	45.5436	4,141.11	57.1943	4,141.11	60.836	4,141.11	52.2605	4,141.11	55.9191
4,287.6	90.6853	4,287.6	90.2986	4,287.6	90.6579	4,287.6	89.1803	4,287.6	89.8946	4,287.6	86.016	4,287.6	86.9248	4,287.6	83.162	4,287.6	83.8813	4,287.6	81.7271	4,287.6	82.1551	4,287.6	78.6747	4,287.6	79.18	4,287.6	72.1185	4,287.6	72.6457	4,287.6	70.8109	4,287.6	70.8708	4,287.6	68.5639	4,287.6	65.3699	4,287.6	66.0057	4,287.6	62.2739	4,287.6	62.3284	4,287.6	62.0762	4,287.6	60.2064	4,287.6	63.0214	4,287.6	55.8524	4,287.6	51.7574	4,287.6	59.2111	4,287.6	62.5932	4,287.6	57.0638	4,287.6	54.8322	4,287.6	44.8831	4,287.6	59.0193	4,287.6	50.368	4,287.6	54.1659	4,287.6	52.0214
4,438.48	89.4029	4,438.48	90.3246	4,438.48	90.1961	4,438.48	89.4202	4,438.48	90.0533	4,438.48	86.4683	4,438.48	87.5321	4,438.48	83.2414	4,438.48	83.705	4,438.48	79.5263	4,438.48	80.2624	4,438.48	75.5711	4,438.48	76.3735	4,438.48	73.3927	4,438.48	74.557	4,438.48	72.7749	4,438.48	73.9841	4,438.48	71.2336	4,438.48	68.2753	4,438.48	65.3903	4,438.48	66.6398	4,438.48	67.0241	4,438.48	65.3674	4,438.48	59.0144	4,438.48	65.4532	4,438.48	53.035	4,438.48	58.0659	4,438.48	58.6283	4,438.48	46.3557	4,438.48	54.8221	4,438.48	50.0464	4,438.48	58.0641	4,438.48	60.0564	4,438.48	51.5656	4,438.48	54.0248	4,438.48	51.3472
4,595.21	90.2228	4,595.21	91.1623	4,595.21	91.0769	4,595.21	89.6853	4,595.21	90.3651	4,595.21	86.0811	4,595.21	87.0129	4,595.21	82.511	4,595.21	83.2323	4,595.21	76.8678	4,595.21	78.1843	4,595.21	76.1169	4,595.21	74.6893	4,595.21	76.7314	4,595.21	76.948	4,595.21	73.4865	4,595.21	75.4005	4,595.21	70.1107	4,595.21	70.996	4,595.21	61.4203	4,595.21	66.9915	4,595.21	65.271	4,595.21	67.4563	4,595.21	63.599	4,595.21	58.9324	4,595.21	55.554	4,595.21	55.6903	4,595.21	54.5824	4,595.21	58.8964	4,595.21	57.9128	4,595.21	53.5749	4,595.21	58.8869	4,595.21	57.4739	4,595.21	61.6264	4,595.21	61.3768	4,595.21	43.9752
4,756.35	91.2458	4,756.35	91.3199	4,756.35	91.5441	4,756.35	89.3105	4,756.35	90.2608	4,756.35	85.1471	4,756.35	86.3313	4,756.35	81.693	4,756.35	82.8815	4,756.35	76.0969	4,756.35	77.3043	4,756.35	77.8975	4,756.35	76.4931	4,756.35	77.211	4,756.35	78.3159	4,756.35	74.9419	4,756.35	75.5072	4,756.35	69.5439	4,756.35	69.9602	4,756.35	65.5736	4,756.35	68.4842	4,756.35	65.7742	4,756.35	63.8733	4,756.35	62.8938	4,756.35	60.517	4,756.35	58.9862	4,756.35	62.7059	4,756.35	32.4307	4,756.35	56.2641	4,756.35	49.1908	4,756.35	55.8794	4,756.35	57.2307	4,756.35	53.3151	4,756.35	58.7494	4,756.35	58.5355	4,756.35	55.7119
4,924.8	91.2801	4,924.8	91.0525	4,924.8	91.0558	4,924.8	88.9589	4,924.8	89.3541	4,924.8	85.9279	4,924.8	86.1048	4,924.8	83.3156	4,924.8	83.9135	4,924.8	78.6358	4,924.8	79.3287	4,924.8	79.6574	4,924.8	78.4079	4,924.8	77.8969	4,924.8	78.8827	4,924.8	74.3762	4,924.8	75.1741	4,924.8	68.0373	4,924.8	70.3258	4,924.8	67.4332	4,924.8	69.6409	4,924.8	67.1691	4,924.8	63.8075	4,924.8	56.6976	4,924.8	65.927	4,924.8	52.0404	4,924.8	56.5296	4,924.8	57.3678	4,924.8	50.7674	4,924.8	46.7864	4,924.8	59.1277	4,924.8	54.9688	4,924.8	59.2989	4,924.8	53.1703	4,924.8	43.8285	4,924.8	47.6808
5,097.66	91.1103	5,097.66	90.3936	5,097.66	90.8753	5,097.66	88.6422	5,097.66	89.4796	5,097.66	86.5543	5,097.66	87.146	5,097.66	82.6588	5,097.66	84.1114	5,097.66	78.9874	5,097.66	79.9902	5,097.66	78.5015	5,097.66	77.8524	5,097.66	76.0115	5,097.66	77.2142	5,097.66	73.0942	5,097.66	72.4528	5,097.66	68.0771	5,097.66	68.7228	5,097.66	67.1312	5,097.66	67.7682	5,097.66	58.3534	5,097.66	62.8608	5,097.66	61.3619	5,097.66	58.5212	5,097.66	61.7007	5,097.66	56.679	5,097.66	55.0558	5,097.66	58.6598	5,097.66	52.6969	5,097.66	37.8856	5,097.66	46.8524	5,097.66	59.2665	5,097.66	33.0404	5,097.66	58.1895	5,097.66	55.0756
5,277.83	90.1471	5,277.83	90.5297	5,277.83	90.4117	5,277.83	89.1592	5,277.83	89.6034	5,277.83	86.8184	5,277.83	87.435	5,277.83	82.5739	5,277.83	83.2718	5,277.83	78.7716	5,277.83	80.0161	5,277.83	75.3785	5,277.83	75.802	5,277.83	73.5513	5,277.83	73.6448	5,277.83	70.0744	5,277.83	68.9568	5,277.83	63.5059	5,277.83	68.5742	5,277.83	65.5806	5,277.83	65.5946	5,277.83	62.3191	5,277.83	59.7562	5,277.83	56.5694	5,277.83	60.4755	5,277.83	58.8265	5,277.83	58.5237	5,277.83	56.1835	5,277.83	42.8208	5,277.83	27.3945	5,277.83	60.9624	5,277.83	55.6443	5,277.83	57.5756	5,277.83	55.1456	5,277.83	55.4566	5,277.83	52.3048
5,463.87	90.1422	5,463.87	90.9443	5,463.87	90.9405	5,463.87	89.2467	5,463.87	90.0515	5,463.87	86.061	5,463.87	87.3457	5,463.87	82.1463	5,463.87	82.8665	5,463.87	78.3386	5,463.87	79.8128	5,463.87	74.6109	5,463.87	75.6377	5,463.87	74.4425	5,463.87	74.9156	5,463.87	71.2011	5,463.87	72.8862	5,463.87	69.4639	5,463.87	70.818	5,463.87	66.5635	5,463.87	68.2343	5,463.87	56.3337	5,463.87	63.0986	5,463.87	61.5288	5,463.87	59.0432	5,463.87	59.1542	5,463.87	59.9955	5,463.87	54.5217	5,463.87	57.7018	5,463.87	55.3173	5,463.87	56.4906	5,463.87	52.706	5,463.87	60.7044	5,463.87	52.5735	5,463.87	45.7958	5,463.87	51.1955
5,657.23	88.4975	5,657.23	89.778	5,657.23	89.687	5,657.23	87.5605	5,657.23	88.2027	5,657.23	84.7611	5,657.23	85.9106	5,657.23	82.2048	5,657.23	82.5718	5,657.23	78.8025	5,657.23	79.6533	5,657.23	75.0969	5,657.23	76.1848	5,657.23	75.9371	5,657.23	75.7716	5,657.23	71.5293	5,657.23	73.2225	5,657.23	69.567	5,657.23	70.0338	5,657.23	67.3535	5,657.23	64.5366	5,657.23	60.6229	5,657.23	61.9848	5,657.23	65.2623	5,657.23	64.2677	5,657.23	45.4051	5,657.23	56.5366	5,657.23	49.2116	5,657.23	55.8645	5,657.23	50.7602	5,657.23	60.9179	5,657.23	48.1606	5,657.23	57.7392	5,657.23	52.8213	5,657.23	55.153	5,657.23	53.6881
5,856.45	89.4074	5,856.45	89.6119	5,856.45	89.9399	5,856.45	88.1313	5,856.45	88.4874	5,856.45	85.507	5,856.45	86.5316	5,856.45	83.7782	5,856.45	84.1387	5,856.45	79.8876	5,856.45	80.9115	5,856.45	77.263	5,856.45	78.5358	5,856.45	76.6216	5,856.45	76.7514	5,856.45	70.8152	5,856.45	73.5382	5,856.45	70.6211	5,856.45	70.6159	5,856.45	65.7591	5,856.45	67.1975	5,856.45	61.6324	5,856.45	64.4669	5,856.45	56.6941	5,856.45	59.718	5,856.45	57.1376	5,856.45	62.3599	5,856.45	50.7453	5,856.45	49.6831	5,856.45	58.1074	5,856.45	57.5293	5,856.45	54.1663	5,856.45	59.8919	5,856.45	47.0812	5,856.45	48.4153	5,856.45	36.6854
6,062.99	90.1858	6,062.99	89.5958	6,062.99	90.047	6,062.99	88.4734	6,062.99	88.9061	6,062.99	84.8223	6,062.99	85.7483	6,062.99	82.4341	6,062.99	83.142	6,062.99	78.3524	6,062.99	78.8439	6,062.99	76.1119	6,062.99	78.0362	6,062.99	72.8584	6,062.99	73.2435	6,062.99	67.5299	6,062.99	70.9057	6,062.99	68.5079	6,062.99	66.9245	6,062.99	59.512	6,062.99	60.0802	6,062.99	59.9292	6,062.99	62.2811	6,062.99	60.6532	6,062.99	57.425	6,062.99	57.2379	6,062.99	60.6742	6,062.99	52.4673	6,062.99	53.3352	6,062.99	54.6326	6,062.99	55.8426	6,062.99	42.3912	6,062.99	46.9457	6,062.99	52.1058	6,062.99	59.7814	6,062.99	45.1447
6,276.86	90.2039	6,276.86	90.2916	6,276.86	90.4785	6,276.86	88.7962	6,276.86	89.4804	6,276.86	84.3167	6,276.86	84.9618	6,276.86	80.9901	6,276.86	81.1861	6,276.86	78.141	6,276.86	77.1199	6,276.86	74.4236	6,276.86	75.9963	6,276.86	70.2546	6,276.86	70.4867	6,276.86	71.9796	6,276.86	72.1585	6,276.86	69.9115	6,276.86	67.3236	6,276.86	61.7805	6,276.86	63.6716	6,276.86	58.5442	6,276.86	60.9886	6,276.86	61.8138	6,276.86	60.6942	6,276.86	55.4393	6,276.86	57.0246	6,276.86	45.7219	6,276.86	55.7141	6,276.86	51.774	6,276.86	55.7382	6,276.86	55.6207	6,276.86	59.8908	6,276.86	56.6655	6,276.86	56.0329	6,276.86	44.5005
6,498.05	90.2182	6,498.05	90.8178	6,498.05	90.411	6,498.05	89.6336	6,498.05	89.5868	6,498.05	86.6011	6,498.05	86.3513	6,498.05	82.8355	6,498.05	82.4048	6,498.05	80.5109	6,498.05	80.3871	6,498.05	74.1352	6,498.05	75.1724	6,498.05	76.2506	6,498.05	77.2586	6,498.05	75.5795	6,498.05	76.3075	6,498.05	71.8624	6,498.05	70.7357	6,498.05	67.2768	6,498.05	67.1611	6,498.05	64.8216	6,498.05	64.5325	6,498.05	61.0886	6,498.05	60.282	6,498.05	54.159	6,498.05	56.9191	6,498.05	49.3036	6,498.05	55.0539	6,498.05	44.2584	6,498.05	48.7284	6,498.05	52.0019	6,498.05	61.8883	6,498.05	53.1771	6,498.05	49.0624	6,498.05	53.0871
6,726.56	90.7437	6,726.56	90.0974	6,726.56	90.2315	6,726.56	88.4055	6,726.56	88.3509	6,726.56	86.5403	6,726.56	86.7249	6,726.56	81.745	6,726.56	82.0629	6,726.56	78.827	6,726.56	79.8293	6,726.56	75.777	6,726.56	74.1542	6,726.56	76.8257	6,726.56	78.0881	6,726.56	74.05	6,726.56	74.5543	6,726.56	68.9066	6,726.56	69.1897	6,726.56	66.5944	6,726.56	65.1702	6,726.56	61.2335	6,726.56	61.6206	6,726.56	55.8104	6,726.56	61.2745	6,726.56	53.5944	6,726.56	59.1557	6,726.56	45.1988	6,726.56	51.7243	6,726.56	53.6331	6,726.56	46.6157	6,726.56	48.5593	6,726.56	48.6063	6,726.56	55.6464	6,726.56	52.2922	6,726.56	52.6362
6,963.87	89.3979	6,963.87	88.7184	6,963.87	89.367	6,963.87	86.3105	6,963.87	87.448	6,963.87	83.2854	6,963.87	85.1653	6,963.87	77.2139	6,963.87	78.8723	6,963.87	73.0176	6,963.87	76.2113	6,963.87	73.5301	6,963.87	73.5782	6,963.87	72.2416	6,963.87	74.4697	6,963.87	67.9596	6,963.87	69.379	6,963.87	62.9558	6,963.87	65.5387	6,963.87	61.1015	6,963.87	58.6863	6,963.87	52.8306	6,963.87	60.1974	6,963.87	54.9304	6,963.87	58.0294	6,963.87	46.5398	6,963.87	53.992	6,963.87	50.7983	6,963.87	47.6576	6,963.87	40.5943	6,963.87	44.6638	6,963.87	53.6947	6,963.87	53.8268	6,963.87	51.3737	6,963.87	56.3074	6,963.87	50.3805
7,209.96	87.6084	7,209.96	89.073	7,209.96	89.2252	7,209.96	87.3897	7,209.96	87.8406	7,209.96	83.7645	7,209.96	85.1718	7,209.96	81.3004	7,209.96	80.4673	7,209.96	75.2142	7,209.96	77.0768	7,209.96	75.2168	7,209.96	74.8405	7,209.96	70.0755	7,209.96	72.7061	7,209.96	65.987	7,209.96	66.1612	7,209.96	65.0834	7,209.96	64.4797	7,209.96	59.3119	7,209.96	51.9923	7,209.96	57.8128	7,209.96	61.3661	7,209.96	53.7587	7,209.96	53.3743	7,209.96	53.443	7,209.96	54.227	7,209.96	43.9992	7,209.96	53.976	7,209.96	54.9389	7,209.96	52.0906	7,209.96	53.9369	7,209.96	51.6202	7,209.96	55.9477	7,209.96	53.8295	7,209.96	52.133
7,464.84	87.5515	7,464.84	88.3001	7,464.84	88.1106	7,464.84	87.2908	7,464.84	86.406	7,464.84	83.2717	7,464.84	84.0643	7,464.84	82.3506	7,464.84	81.7041	7,464.84	74.8859	7,464.84	75.2406	7,464.84	73.9571	7,464.84	74.0455	7,464.84	68.298	7,464.84	67.0799	7,464.84	69.6139	7,464.84	68.9448	7,464.84	68.9106	7,464.84	68.3164	7,464.84	61.0308	7,464.84	62.5102	7,464.84	62.0824	7,464.84	62.992	7,464.84	56.4894	7,464.84	53.8539	7,464.84	57.2045	7,464.84	58.3339	7,464.84	54.3883	7,464.84	54.3891	7,464.84	55.5167	7,464.84	52.2351	7,464.84	55.1472	7,464.84	61.4571	7,464.84	57.3036	7,464.84	48.4315	7,464.84	56.369
7,727.05	89.2523	7,727.05	88.7507	7,727.05	88.594	7,727.05	87.9626	7,727.05	86.3248	7,727.05	83.2807	7,727.05	82.4595	7,727.05	81.3962	7,727.05	80.6032	7,727.05	74.742	7,727.05	75.0307	7,727.05	70.5682	7,727.05	69.0906	7,727.05	71.4326	7,727.05	71.2991	7,727.05	70.7612	7,727.05	71.0423	7,727.05	69.6879	7,727.05	68.187	7,727.05	59.3404	7,727.05	62.9042	7,727.05	62.1446	7,727.05	61.9339	7,727.05	58.4854	7,727.05	54.0838	7,727.05	57.8341	7,727.05	61.299	7,727.05	52.997	7,727.05	56.8203	7,727.05	52.0017	7,727.05	57.4612	7,727.05	55.976	7,727.05	59.553	7,727.05	57.533	7,727.05	42.6262	7,727.05	52.8923
7,999.51	89.8275	7,999.51	90.1161	7,999.51	91.1057	7,999.51	89.3176	7,999.51	91.2792	7,999.51	84.0387	7,999.51	87.4261	7,999.51	79.9567	7,999.51	83.398	7,999.51	78.2569	7,999.51	80.9635	7,999.51	70.7504	7,999.51	76.406	7,999.51	75.3218	7,999.51	76.8479	7,999.51	68.2761	7,999.51	73.4721	7,999.51	68.4881	7,999.51	69.4321	7,999.51	62.1664	7,999.51	65.8119	7,999.51	60.6714	7,999.51	63.8275	7,999.51	47.0381	7,999.51	57.427	7,999.51	54.2958	7,999.51	57.2061	7,999.51	52.41	7,999.51	53.9196	7,999.51	44.6158	7,999.51	60.63	7,999.51	63.0725	7,999.51	42.0365	7,999.51	58.425	7,999.51	61.1434	7,999.51	52.8747
8,282.23	91.5293	8,282.23	91.5677	8,282.23	92.4722	8,282.23	90.2738	8,282.23	91.8514	8,282.23	86.2124	8,282.23	88.5595	8,282.23	82.2562	8,282.23	84.3873	8,282.23	77.8744	8,282.23	81.3169	8,282.23	75.7085	8,282.23	79.3948	8,282.23	72.2171	8,282.23	74.109	8,282.23	60.8625	8,282.23	66.4232	8,282.23	59.7301	8,282.23	60.1222	8,282.23	52.5533	8,282.23	64.1852	8,282.23	57.5354	8,282.23	58.0813	8,282.23	47.9327	8,282.23	40.5015	8,282.23	53.4264	8,282.23	51.7224	8,282.23	58.5671	8,282.23	57.7055	8,282.23	55.7105	8,282.23	59.767	8,282.23	62.3532	8,282.23	61.419	8,282.23	64.2776	8,282.23	56.3421	8,282.23	57.4675
8,573.73	90.8934	8,573.73	88.5918	8,573.73	91.0293	8,573.73	87.4331	8,573.73	90.3558	8,573.73	84.3972	8,573.73	87.4276	8,573.73	81.7696	8,573.73	83.1594	8,573.73	76.8713	8,573.73	78.7392	8,573.73	72.1428	8,573.73	78.848	8,573.73	64.1495	8,573.73	70.2833	8,573.73	68.854	8,573.73	69.4776	8,573.73	65.6641	8,573.73	62.288	8,573.73	63.3261	8,573.73	65.6181	8,573.73	53.6581	8,573.73	47.6848	8,573.73	60.6095	8,573.73	55.8857	8,573.73	62.4271	8,573.73	58.1654	8,573.73	59.1277	8,573.73	58.7075	8,573.73	57.9206	8,573.73	59.8021	8,573.73	66.0239	8,573.73	59.3026	8,573.73	64.5959	8,573.73	49.2676	8,573.73	56.313
8,876.95	90.2707	8,876.95	90.1638	8,876.95	89.3744	8,876.95	89.2559	8,876.95	87.61	8,876.95	84.998	8,876.95	83.889	8,876.95	83.0171	8,876.95	78.598	8,876.95	79.9671	8,876.95	73.937	8,876.95	72.7736	8,876.95	74.1416	8,876.95	73.15	8,876.95	69.976	8,876.95	72.2647	8,876.95	73.7774	8,876.95	64.9954	8,876.95	67.142	8,876.95	66.9329	8,876.95	67.7029	8,876.95	55.3404	8,876.95	50.5304	8,876.95	46.7784	8,876.95	62.2163	8,876.95	53.2714	8,876.95	60.8786	8,876.95	55.1057	8,876.95	46.1984	8,876.95	59.5649	8,876.95	61.6488	8,876.95	50.458	8,876.95	60.9874	8,876.95	58.1673	8,876.95	59.2475	8,876.95	59.3609
9,188.96	89.1669	9,188.96	90.4119	9,188.96	90.1783	9,188.96	87.9718	9,188.96	86.6243	9,188.96	83.2884	9,188.96	82.659	9,188.96	82.7542	9,188.96	80.5784	9,188.96	79.0386	9,188.96	75.6325	9,188.96	72.9376	9,188.96	72.745	9,188.96	73.4139	9,188.96	73.0278	9,188.96	68.9	9,188.96	72.0381	9,188.96	54.0866	9,188.96	56.018	9,188.96	64.5691	9,188.96	66.6704	9,188.96	58.7604	9,188.96	57.182	9,188.96	50.964	9,188.96	59.6954	9,188.96	46.7109	9,188.96	46.2578	9,188.96	51.958	9,188.96	52.639	9,188.96	52.8335	9,188.96	57.4202	9,188.96	57.3343	9,188.96	58.7308	9,188.96	61.4313	9,188.96	60.342	9,188.96	51.9694
9,514.16	91.2505	9,514.16	90.657	9,514.16	90.4474	9,514.16	89.9747	9,514.16	88.2767	9,514.16	84.4055	9,514.16	83.6705	9,514.16	80.4958	9,514.16	77.9886	9,514.16	76.7963	9,514.16	72.9897	9,514.16	74.5899	9,514.16	76.7157	9,514.16	69.3849	9,514.16	69.907	9,514.16	67.7343	9,514.16	71.7454	9,514.16	67.2606	9,514.16	74.5118	9,514.16	63.2281	9,514.16	59.7154	9,514.16	63.1262	9,514.16	66.3615	9,514.16	63.9904	9,514.16	59.7355	9,514.16	59.7388	9,514.16	63.5374	9,514.16	56.2943	9,514.16	61.2062	9,514.16	54.0857	9,514.16	67.5111	9,514.16	58.7531	9,514.16	63.8048	9,514.16	60.9946	9,514.16	55.0519	9,514.16	50.1646
9,849.61	94.1401	9,849.61	94.1093	9,849.61	95.141	9,849.61	91.1932	9,849.61	93.0645	9,849.61	85.8065	9,849.61	89.0457	9,849.61	84.4898	9,849.61	85.7398	9,849.61	81.4146	9,849.61	80.3103	9,849.61	76.8225	9,849.61	82.8879	9,849.61	68.6101	9,849.61	76.1334	9,849.61	77.2966	9,849.61	80.4947	9,849.61	75.3092	9,849.61	80.5048	9,849.61	67.852	9,849.61	65.735	9,849.61	67.9777	9,849.61	71.9671	9,849.61	68.4071	9,849.61	68.0026	9,849.61	68.282	9,849.61	71.0795	9,849.61	61.9213	9,849.61	64.0078	9,849.61	64.6338	9,849.61	71.3103	9,849.61	68.0006	9,849.61	66.8429	9,849.61	67.276	9,849.61	63.3882	9,849.61	57.4429
10,196.8	92.5572	10,196.8	93.2149	10,196.8	93.9932	10,196.8	90.608	10,196.8	90.641	10,196.8	85.8963	10,196.8	87.9859	10,196.8	82.4637	10,196.8	83.6786	10,196.8	77.0799	10,196.8	78.2848	10,196.8	64.8217	10,196.8	77.2662	10,196.8	74.071	10,196.8	75.896	10,196.8	75.9748	10,196.8	78.4449	10,196.8	70.0068	10,196.8	75.5267	10,196.8	66.6659	10,196.8	68.7469	10,196.8	68.7883	10,196.8	69.4622	10,196.8	63.5639	10,196.8	65.786	10,196.8	63.0699	10,196.8	65.8602	10,196.8	60.7122	10,196.8	60.9856	10,196.8	65.9262	10,196.8	69.7604	10,196.8	64.0805	10,196.8	67.1783	10,196.8	68.2047	10,196.8	60.5785	10,196.8	57.2739
10,555.7	85.9362	10,555.7	84.7332	10,555.7	85.3732	10,555.7	81.3114	10,555.7	81.53	10,555.7	71.1566	10,555.7	75.0058	10,555.7	67.3865	10,555.7	70.0178	10,555.7	63.0302	10,555.7	66.3544	10,555.7	67.1471	10,555.7	69.7618	10,555.7	59.6475	10,555.7	65.831	10,555.7	55.4277	10,555.7	62.709	10,555.7	66.6715	10,555.7	68.5737	10,555.7	49.6554	10,555.7	66.0411	10,555.7	62.4735	10,555.7	60.7205	10,555.7	56.6063	10,555.7	54.6345	10,555.7	51.3429	10,555.7	59.6969	10,555.7	41.8774	10,555.7	55.2602	10,555.7	54.6538	10,555.7	61.444	10,555.7	50.6308	10,555.7	61.9501	10,555.7	57.3994	10,555.7	55.9482	10,555.7	53.7512
10,927.7	91.9374	10,927.7	92.8791	10,927.7	93.2717	10,927.7	88.9624	10,927.7	88.1098	10,927.7	82.7186	10,927.7	82.5422	10,927.7	79.505	10,927.7	78.4233	10,927.7	74.1953	10,927.7	76.4731	10,927.7	67.7072	10,927.7	75.2477	10,927.7	67.7215	10,927.7	68.1452	10,927.7	74.1533	10,927.7	73.3355	10,927.7	76.6078	10,927.7	77.1979	10,927.7	61.7302	10,927.7	71.8489	10,927.7	70.7137	10,927.7	67.4183	10,927.7	63.1757	10,927.7	55.8152	10,927.7	57.1668	10,927.7	63.9662	10,927.7	52.768	10,927.7	63.1002	10,927.7	57.9025	10,927.7	68.9644	10,927.7	58.7621	10,927.7	64.931	10,927.7	64.1465	10,927.7	59.1637	10,927.7	59.7004
11,313	94.2257	11,313	93.6894	11,313	95.4961	11,313	89.983	11,313	91.1872	11,313	82.1792	11,313	83.0556	11,313	77.2474	11,313	77.4382	11,313	71.471	11,313	75.1738	11,313	49.214	11,313	78.4569	11,313	75.4105	11,313	76.3517	11,313	75.0781	11,313	77.7177	11,313	74.6507	11,313	77.3321	11,313	68.8104	11,313	73.7807	11,313	70.8638	11,313	67.8166	11,313	63.6615	11,313	63.9701	11,313	55.6537	11,313	71.5343	11,313	60.371	11,313	66.5331	11,313	60.7891	11,313	71.816	11,313	62.5282	11,313	70.2985	11,313	67.5507	11,313	59.0255	11,313	54.9018
11,712.9	95.1788	11,712.9	96.0303	11,712.9	97.0457	11,712.9	92.206	11,712.9	92.7523	11,712.9	83.7529	11,712.9	86.1237	11,712.9	81.5531	11,712.9	82.5691	11,712.9	77.6204	11,712.9	80.6089	11,712.9	72.1887	11,712.9	77.1573	11,712.9	56.1094	11,712.9	67.7479	11,712.9	59.3657	11,712.9	74.1192	11,712.9	75.4562	11,712.9	71.2236	11,712.9	73.1827	11,712.9	74.9155	11,712.9	71.0137	11,712.9	64.1133	11,712.9	58.0675	11,712.9	67.4969	11,712.9	59.7287	11,712.9	71.0357	11,712.9	61.2527	11,712.9	64.2151	11,712.9	66.8736	11,712.9	70.5072	11,712.9	67.4276	11,712.9	71.2291	11,712.9	70.3395	11,712.9	60.0369	11,712.9	61.6239
12,126	97.0796	12,126	96.5395	12,126	97.1936	12,126	91.8012	12,126	91.0314	12,126	81.4807	12,126	83.4727	12,126	77.8516	12,126	76.726	12,126	76.4109	12,126	80.7535	12,126	75.0657	12,126	78.4681	12,126	76.6242	12,126	71.085	12,126	74.4265	12,126	54.5584	12,126	78.7382	12,126	76.2963	12,126	71.9417	12,126	76.0035	12,126	72.6129	12,126	63.5192	12,126	62.6644	12,126	66.6908	12,126	59.412	12,126	66.7565	12,126	56.461	12,126	66.0848	12,126	61.8395	12,126	72.6858	12,126	68.2941	12,126	70.2792	12,126	71.0661	12,126	61.817	12,126	63.3951
12,553.7	94.763	12,553.7	95.2482	12,553.7	95.9329	12,553.7	89.8748	12,553.7	89.7857	12,553.7	82.004	12,553.7	84.1847	12,553.7	79.8287	12,553.7	80.2851	12,553.7	78.0501	12,553.7	79.0915	12,553.7	68.5979	12,553.7	76.89	12,553.7	72.3936	12,553.7	65.9648	12,553.7	72.3756	12,553.7	71.7512	12,553.7	72.9296	12,553.7	70.3152	12,553.7	71.36	12,553.7	70.5048	12,553.7	68.8648	12,553.7	64.5862	12,553.7	64.5993	12,553.7	64.3995	12,553.7	57.9201	12,553.7	66.1735	12,553.7	62.6842	12,553.7	60.699	12,553.7	63.9874	12,553.7	68.2835	12,553.7	67.148	12,553.7	70.172	12,553.7	71.1364	12,553.7	65.6989	12,553.7	67.0432
12,996.1	92.0081	12,996.1	91.9612	12,996.1	91.799	12,996.1	86.1292	12,996.1	84.6136	12,996.1	79.6038	12,996.1	80.1042	12,996.1	75.0439	12,996.1	75.8688	12,996.1	77.6145	12,996.1	76.8153	12,996.1	72.6558	12,996.1	71.5446	12,996.1	57.5759	12,996.1	72.117	12,996.1	59.9202	12,996.1	74.1167	12,996.1	62.521	12,996.1	61.3826	12,996.1	68.18	12,996.1	59.4073	12,996.1	61.6673	12,996.1	64.4308	12,996.1	57.1501	12,996.1	59.0889	12,996.1	58.676	12,996.1	50.7116	12,996.1	50.6956	12,996.1	60.1569	12,996.1	58.8372	12,996.1	67.3432	12,996.1	63.7089	12,996.1	69.6605	12,996.1	66.1663	12,996.1	60.0996	12,996.1	64.0413
13,454.6	90.7303	13,454.6	90.8336	13,454.6	91.0362	13,454.6	83.0529	13,454.6	83.9452	13,454.6	78.6091	13,454.6	78.7508	13,454.6	74.5884	13,454.6	75.1539	13,454.6	68.6149	13,454.6	70.3503	13,454.6	56.7896	13,454.6	69.5329	13,454.6	64.17	13,454.6	61.3779	13,454.6	58.7196	13,454.6	56.5223	13,454.6	66.2593	13,454.6	59.7248	13,454.6	61.4334	13,454.6	62.0503	13,454.6	63.5163	13,454.6	55.443	13,454.6	61.5825	13,454.6	60.8105	13,454.6	57.8726	13,454.6	60.0537	13,454.6	50.6601	13,454.6	40.4995	13,454.6	57.7662	13,454.6	59.5607	13,454.6	54.4217	13,454.6	66.1329	13,454.6	64.6423	13,454.6	59.6186	13,454.6	66.2359
13,929.2	92.9333	13,929.2	90.0436	13,929.2	92.5474	13,929.2	84.6864	13,929.2	84.7918	13,929.2	77.9665	13,929.2	78.8192	13,929.2	80.1228	13,929.2	77.0971	13,929.2	75.9502	13,929.2	58.8728	13,929.2	70.4557	13,929.2	66.5253	13,929.2	66.6473	13,929.2	64.9561	13,929.2	51.8446	13,929.2	58.9912	13,929.2	52.8753	13,929.2	55.985	13,929.2	55.5491	13,929.2	60.826	13,929.2	62.5466	13,929.2	55.4477	13,929.2	64.6247	13,929.2	58.7872	13,929.2	58.4016	13,929.2	65.6349	13,929.2	60.4736	13,929.2	50.5997	13,929.2	63.2147	13,929.2	63.5929	13,929.2	59.2749	13,929.2	67.6838	13,929.2	69.3189	13,929.2	65.0612	13,929.2	73.2311
14,419.9	97.8768	14,419.9	92.4619	14,419.9	94.1899	14,419.9	81.6871	14,419.9	78.9804	14,419.9	66.1825	14,419.9	75.0088	14,419.9	80.9666	14,419.9	73.0059	14,419.9	78.5354	14,419.9	73.3293	14,419.9	78.1791	14,419.9	72.4117	14,419.9	64.9088	14,419.9	75.5647	14,419.9	58.7556	14,419.9	65.988	14,419.9	63.5765	14,419.9	68.975	14,419.9	66.6055	14,419.9	69.1308	14,419.9	65.9955	14,419.9	51.5125	14,419.9	60.5681	14,419.9	53.7109	14,419.9	60.7769	14,419.9	64.113	14,419.9	51.1228	14,419.9	62.126	14,419.9	54.5883	14,419.9	66.1913	14,419.9	64.2329	14,419.9	65.794	14,419.9	74.0766	14,419.9	71.5762	14,419.9	73.1674
14,928.2	99.9284	14,928.2	96.0298	14,928.2	97.1795	14,928.2	86.472	14,928.2	84.9776	14,928.2	76.1564	14,928.2	75.8893	14,928.2	79.8623	14,928.2	75.3788	14,928.2	77.3074	14,928.2	75.5315	14,928.2	80.909	14,928.2	73.2185	14,928.2	74.3715	14,928.2	74.2755	14,928.2	62.0579	14,928.2	64.5862	14,928.2	71.9441	14,928.2	67.2281	14,928.2	72.9051	14,928.2	69.0181	14,928.2	68.8101	14,928.2	58.6174	14,928.2	59.1277	14,928.2	55.3129	14,928.2	63.7032	14,928.2	70.9659	14,928.2	60.4551	14,928.2	64.3661	14,928.2	60.3582	14,928.2	70.9927	14,928.2	64.7688	14,928.2	70.9401	14,928.2	75.7627	14,928.2	71.4703	14,928.2	72.8611
15,455.6	97.7301	15,455.6	93.5346	15,455.6	94.4253	15,455.6	85.5292	15,455.6	82.0967	15,455.6	79.9484	15,455.6	75.6067	15,455.6	81.0672	15,455.6	76.2524	15,455.6	77.9595	15,455.6	74.3709	15,455.6	78.6603	15,455.6	61.3228	15,455.6	75.4152	15,455.6	73.8637	15,455.6	36.7967	15,455.6	68.5182	15,455.6	66.5853	15,455.6	53.9935	15,455.6	72.1361	15,455.6	64.0282	15,455.6	68.0326	15,455.6	54.6578	15,455.6	61.4831	15,455.6	44.452	15,455.6	67.2226	15,455.6	69.4509	15,455.6	61.6733	15,455.6	64.1733	15,455.6	65.7653	15,455.6	70.377	15,455.6	66.9964	15,455.6	71.532	15,455.6	74.0274	15,455.6	72.9948	15,455.6	71.8248
16,000.5	100.583	16,000.5	94.5007	16,000.5	96.1464	16,000.5	86.256	16,000.5	81.5892	16,000.5	84.7332	16,000.5	57.247	16,000.5	82.1426	16,000.5	82.3165	16,000.5	84.4045	16,000.5	78.4929	16,000.5	81.8069	16,000.5	78.5221	16,000.5	73.9358	16,000.5	72.5147	16,000.5	72.2175	16,000.5	78.1955	16,000.5	65.0025	16,000.5	74.4361	16,000.5	66.6793	16,000.5	73.1901	16,000.5	67.6372	16,000.5	67.8004	16,000.5	63.7548	16,000.5	54.5175	16,000.5	61.1859	16,000.5	73.3045	16,000.5	60.6077	16,000.5	65.14	16,000.5	57.576	16,000.5	73.3747	16,000.5	68.7719	16,000.5	69.5221	16,000.5	76.1094	16,000.5	74.5531	16,000.5	72.2109
16,564.5	100.541	16,564.5	94.7581	16,564.5	96.2683	16,564.5	83.3536	16,564.5	78.5214	16,564.5	84.3744	16,564.5	73.7593	16,564.5	80.0883	16,564.5	83.2196	16,564.5	84.8459	16,564.5	81.3056	16,564.5	78.1885	16,564.5	75.4977	16,564.5	73.7702	16,564.5	79.7695	16,564.5	66.677	16,564.5	77.8585	16,564.5	72.9571	16,564.5	76.1122	16,564.5	68.1886	16,564.5	76.0138	16,564.5	72.0058	16,564.5	66.3149	16,564.5	65.6473	16,564.5	58.8766	16,564.5	66.6444	16,564.5	72.7182	16,564.5	57.9079	16,564.5	64.7616	16,564.5	60.5759	16,564.5	73.8451	16,564.5	66.9186	16,564.5	73.0863	16,564.5	76.8833	16,564.5	74.8748	16,564.5	72.2503
17,148.9	89.1738	17,148.9	81.4717	17,148.9	81.1873	17,148.9	75.2789	17,148.9	68.0712	17,148.9	75.9663	17,148.9	74.8154	17,148.9	79.9265	17,148.9	75.2867	17,148.9	82.8493	17,148.9	77.9832	17,148.9	77.1848	17,148.9	74.9907	17,148.9	67.7163	17,148.9	75.3286	17,148.9	67.616	17,148.9	74.0656	17,148.9	70.5605	17,148.9	69.9666	17,148.9	68.553	17,148.9	72.6366	17,148.9	62.9534	17,148.9	58.7962	17,148.9	57.0892	17,148.9	55.092	17,148.9	62.4613	17,148.9	72.2902	17,148.9	55.3966	17,148.9	61.473	17,148.9	51.9767	17,148.9	70.3741	17,148.9	55.8786	17,148.9	67.9795	17,148.9	64.6137	17,148.9	65.6	17,148.9	62.5327
17,752.4	95.8941	17,752.4	92.9049	17,752.4	92.9057	17,752.4	83.0255	17,752.4	80.1628	17,752.4	80.6913	17,752.4	76.5758	17,752.4	84.5341	17,752.4	72.8861	17,752.4	84.8923	17,752.4	79.161	17,752.4	72.684	17,752.4	72.8087	17,752.4	67.7128	17,752.4	80.5339	17,752.4	54.7051	17,752.4	77.0643	17,752.4	72.4825	17,752.4	70.6064	17,752.4	71.5912	17,752.4	73.1198	17,752.4	69.8176	17,752.4	65.1586	17,752.4	65.2924	17,752.4	52.6162	17,752.4	66.2929	17,752.4	74.9106	17,752.4	51.8606	17,752.4	63.5121	17,752.4	57.3736	17,752.4	73.6852	17,752.4	62.2259	17,752.4	72.7746	17,752.4	69.0639	17,752.4	71.146	17,752.4	58.772
18,379.4	96.9888	18,379.4	92.447	18,379.4	93.3952	18,379.4	83.456	18,379.4	80.7094	18,379.4	80.9507	18,379.4	77.8365	18,379.4	82.6599	18,379.4	76.2429	18,379.4	82.9827	18,379.4	75.4622	18,379.4	57.5237	18,379.4	74.3794	18,379.4	67.392	18,379.4	77.0008	18,379.4	58.9401	18,379.4	74.0809	18,379.4	68.5265	18,379.4	64.4136	18,379.4	71.1391	18,379.4	67.5976	18,379.4	65.584	18,379.4	63.2489	18,379.4	62.8534	18,379.4	61.7254	18,379.4	62.5726	18,379.4	71.4068	18,379.4	50.7099	18,379.4	59.9933	18,379.4	60.8731	18,379.4	71.2063	18,379.4	62.5369	18,379.4	70.3926	18,379.4	69.9429	18,379.4	69.1888	18,379.4	61.0349
19,026.9	95.6843	19,026.9	89.8707	19,026.9	91.0889	19,026.9	81.9413	19,026.9	74.1136	19,026.9	79.9896	19,026.9	79.2347	19,026.9	85.2668	19,026.9	80.2653	19,026.9	83.3379	19,026.9	75.2393	19,026.9	73.8553	19,026.9	73.7106	19,026.9	75.4477	19,026.9	79.6744	19,026.9	59.9987	19,026.9	75.6203	19,026.9	56.2784	19,026.9	69.3138	19,026.9	63.4298	19,026.9	68.6039	19,026.9	64.2871	19,026.9	56.2605	19,026.9	65.0903	19,026.9	64.6447	19,026.9	67.8475	19,026.9	74.0287	19,026.9	51.4877	19,026.9	62.2251	19,026.9	58.4183	19,026.9	70.1212	19,026.9	58.789	19,026.9	70.7084	19,026.9	67.8282	19,026.9	70.4991	19,026.9	58.5316
19,697.8	93.4203	19,697.8	88.7109	19,697.8	88.6225	19,697.8	78.7018	19,697.8	71.0165	19,697.8	80.8048	19,697.8	77.2543	19,697.8	84.3468	19,697.8	78.0954	19,697.8	80.1075	19,697.8	68.4008	19,697.8	71.7518	19,697.8	68.982	19,697.8	74.8635	19,697.8	71.2518	19,697.8	61.21	19,697.8	69.5107	19,697.8	58.4285	19,697.8	66.7334	19,697.8	60.2863	19,697.8	68.2636	19,697.8	62.4311	19,697.8	59.876	19,697.8	62.4166	19,697.8	58.788	19,697.8	64.4309	19,697.8	68.6248	19,697.8	41.3337	19,697.8	60.8478	19,697.8	57.4331	19,697.8	68.2965	19,697.8	52.4944	19,697.8	68.2745	19,697.8	65.6947	19,697.8	67.9197	19,697.8	52.5662
19,999.5	93.9015	19,999.5	86.2992	19,999.5	87.078	19,999.5	79.1962	19,999.5	74.1464	19,999.5	77.1525	19,999.5	80.1973	19,999.5	78.8426	19,999.5	78.4774	19,999.5	76.1549	19,999.5	70.7886	19,999.5	71.2303	19,999.5	56.7009	19,999.5	74.4377	19,999.5	70.3408	19,999.5	58.5679	19,999.5	62.016	19,999.5	60.5845	19,999.5	58.7263	19,999.5	57.4126	19,999.5	62.3983	19,999.5	59.0205	19,999.5	56.5489	19,999.5	58.7206	19,999.5	57.5358	19,999.5	60.4426	19,999.5	65.5108	19,999.5	42.0944	19,999.5	54.8832	19,999.5	56.2913	19,999.5	62.8888	19,999.5	61.5232	19,999.5	66.3553	19,999.5	64.5493	19,999.5	67.543	19,999.5	55.83
