"SPL Vertical"
"On-Axis"		"10°"		"-10°"		"20°"		"-20°"		"30°"		"-30°"		"40°"		"-40°"		"50°"		"-50°"		"60°"		"-60°"		"70°"		"-70°"		"80°"		"-80°"		"90°"		"-90°"		"100°"		"-100°"		"110°"		"-110°"		"120°"		"-120°"		"130°"		"-130°"		"140°"		"-140°"		"150°"		"-150°"		"160°"		"-160°"		"170°"		"-170°"		"180°"
"Frequency / Hz"	"Sound Pressure Level / dB (re 20 µPa/V)  [2.83  V @ 1. m]"	"Frequency / Hz"	"Sound Pressure Level / dB (re 20 µPa/V)  [2.83  V @ 1. m]"	"Frequency / Hz"	"Sound Pressure Level / dB (re 20 µPa/V)  [2.83  V @ 1. m]"	"Frequency / Hz"	"Sound Pressure Level / dB (re 20 µPa/V)  [2.83  V @ 1. m]"	"Frequency / Hz"	"Sound Pressure Level / dB (re 20 µPa/V)  [2.83  V @ 1. m]"	"Frequency / Hz"	"Sound Pressure Level / dB (re 20 µPa/V)  [2.83  V @ 1. m]"	"Frequency / Hz"	"Sound Pressure Level / dB (re 20 µPa/V)  [2.83  V @ 1. m]"	"Frequency / Hz"	"Sound Pressure Level / dB (re 20 µPa/V)  [2.83  V @ 1. m]"	"Frequency / Hz"	"Sound Pressure Level / dB (re 20 µPa/V)  [2.83  V @ 1. m]"	"Frequency / Hz"	"Sound Pressure Level / dB (re 20 µPa/V)  [2.83  V @ 1. m]"	"Frequency / Hz"	"Sound Pressure Level / dB (re 20 µPa/V)  [2.83  V @ 1. m]"	"Frequency / Hz"	"Sound Pressure Level / dB (re 20 µPa/V)  [2.83  V @ 1. m]"	"Frequency / Hz"	"Sound Pressure Level / dB (re 20 µPa/V)  [2.83  V @ 1. m]"	"Frequency / Hz"	"Sound Pressure Level / dB (re 20 µPa/V)  [2.83  V @ 1. m]"	"Frequency / Hz"	"Sound Pressure Level / dB (re 20 µPa/V)  [2.83  V @ 1. m]"	"Frequency / Hz"	"Sound Pressure Level / dB (re 20 µPa/V)  [2.83  V @ 1. m]"	"Frequency / Hz"	"Sound Pressure Level / dB (re 20 µPa/V)  [2.83  V @ 1. m]"	"Frequency / Hz"	"Sound Pressure Level / dB (re 20 µPa/V)  [2.83  V @ 1. m]"	"Frequency / Hz"	"Sound Pressure Level / dB (re 20 µPa/V)  [2.83  V @ 1. m]"	"Frequency / Hz"	"Sound Pressure Level / dB (re 20 µPa/V)  [2.83  V @ 1. m]"	"Frequency / Hz"	"Sound Pressure Level / dB (re 20 µPa/V)  [2.83  V @ 1. m]"	"Frequency / Hz"	"Sound Pressure Level / dB (re 20 µPa/V)  [2.83  V @ 1. m]"	"Frequency / Hz"	"Sound Pressure Level / dB (re 20 µPa/V)  [2.83  V @ 1. m]"	"Frequency / Hz"	"Sound Pressure Level / dB (re 20 µPa/V)  [2.83  V @ 1. m]"	"Frequency / Hz"	"Sound Pressure Level / dB (re 20 µPa/V)  [2.83  V @ 1. m]"	"Frequency / Hz"	"Sound Pressure Level / dB (re 20 µPa/V)  [2.83  V @ 1. m]"	"Frequency / Hz"	"Sound Pressure Level / dB (re 20 µPa/V)  [2.83  V @ 1. m]"	"Frequency / Hz"	"Sound Pressure Level / dB (re 20 µPa/V)  [2.83  V @ 1. m]"	"Frequency / Hz"	"Sound Pressure Level / dB (re 20 µPa/V)  [2.83  V @ 1. m]"	"Frequency / Hz"	"Sound Pressure Level / dB (re 20 µPa/V)  [2.83  V @ 1. m]"	"Frequency / Hz"	"Sound Pressure Level / dB (re 20 µPa/V)  [2.83  V @ 1. m]"	"Frequency / Hz"	"Sound Pressure Level / dB (re 20 µPa/V)  [2.83  V @ 1. m]"	"Frequency / Hz"	"Sound Pressure Level / dB (re 20 µPa/V)  [2.83  V @ 1. m]"	"Frequency / Hz"	"Sound Pressure Level / dB (re 20 µPa/V)  [2.83  V @ 1. m]"	"Frequency / Hz"	"Sound Pressure Level / dB (re 20 µPa/V)  [2.83  V @ 1. m]"	"Frequency / Hz"	"Sound Pressure Level / dB (re 20 µPa/V)  [2.83  V @ 1. m]"
20.5078	39.4371	20.5078	41.2869	20.5078	36.7029	20.5078	42.6316	20.5078	32.1841	20.5078	43.6582	20.5078	25.9016	20.5078	44.4707	20.5078	32.1064	20.5078	45.1313	20.5078	37.6588	20.5078	45.6789	20.5078	41.0508	20.5078	46.1375	20.5078	43.1997	20.5078	46.5205	20.5078	44.4405	20.5078	46.8337	20.5078	44.8995	20.5078	47.0766	20.5078	44.6357	20.5078	47.2445	20.5078	43.7501	20.5078	47.3317	20.5078	42.5952	20.5078	47.3357	20.5078	42.0129	20.5078	47.2618	20.5078	42.6351	20.5078	47.1237	20.5078	43.8872	20.5078	46.9365	20.5078	45.0324	20.5078	46.6971	20.5078	45.8435	20.5078	46.3625
21.9727	56.4214	21.9727	55.8992	21.9727	57.0567	21.9727	55.493	21.9727	57.7934	21.9727	55.1983	21.9727	58.6096	21.9727	55.0059	21.9727	59.4727	21.9727	54.9038	21.9727	60.3399	21.9727	54.8794	21.9727	61.1602	21.9727	54.9205	21.9727	61.8782	21.9727	55.0154	21.9727	62.4399	21.9727	55.1534	21.9727	62.7986	21.9727	55.3241	21.9727	62.9201	21.9727	55.518	21.9727	62.7877	21.9727	55.7276	21.9727	62.4051	21.9727	55.9497	21.9727	61.7997	21.9727	56.1888	21.9727	61.0236	21.9727	56.4597	21.9727	60.1507	21.9727	56.7891	21.9727	59.2667	21.9727	57.2118	21.9727	58.4518	21.9727	57.7609
23.4375	59.3758	23.4375	58.9132	23.4375	59.9509	23.4375	58.5566	23.4375	60.6342	23.4375	58.2934	23.4375	61.4058	23.4375	58.1091	23.4375	62.227	23.4375	57.9898	23.4375	63.0412	23.4375	57.9235	23.4375	63.7786	23.4375	57.9003	23.4375	64.3648	23.4375	57.9128	23.4375	64.7317	23.4375	57.9551	23.4375	64.8285	23.4375	58.023	23.4375	64.6324	23.4375	58.1136	23.4375	64.1582	23.4375	58.2263	23.4375	63.4648	23.4375	58.3627	23.4375	62.6509	23.4375	58.5272	23.4375	61.8324	23.4375	58.7261	23.4375	61.1006	23.4375	58.9664	23.4375	60.4933	23.4375	59.2538	23.4375	60.0004	23.4375	59.5946
24.9023	63.1338	24.9023	62.5581	24.9023	63.801	24.9023	62.0738	24.9023	64.5508	24.9023	61.6751	24.9023	65.3619	24.9023	61.3533	24.9023	66.1984	24.9023	61.099	24.9023	67.0099	24.9023	60.9037	24.9023	67.7345	24.9023	60.7603	24.9023	68.3056	24.9023	60.6636	24.9023	68.6601	24.9023	60.6102	24.9023	68.7486	24.9023	60.5987	24.9023	68.5445	24.9023	60.6297	24.9023	68.0519	24.9023	60.7057	24.9023	67.3123	24.9023	60.8314	24.9023	66.4046	24.9023	61.0126	24.9023	65.4333	24.9023	61.2557	24.9023	64.5019	24.9023	61.5667	24.9023	63.68	24.9023	61.952	24.9023	62.99	24.9023	62.421
26.3672	67.8671	26.3672	67.3446	26.3672	68.461	26.3672	66.8936	26.3672	69.1197	26.3672	66.5113	26.3672	69.8276	26.3672	66.1931	26.3672	70.5576	26.3672	65.9342	26.3672	71.2694	26.3672	65.7306	26.3672	71.9114	26.3672	65.5791	26.3672	72.4258	26.3672	65.4778	26.3672	72.757	26.3672	65.4261	26.3672	72.8608	26.3672	65.4242	26.3672	72.7139	26.3672	65.474	26.3672	72.3213	26.3672	65.5778	26.3672	71.7202	26.3672	65.739	26.3672	70.9773	26.3672	65.9608	26.3672	70.1753	26.3672	66.2456	26.3672	69.3904	26.3672	66.5944	26.3672	68.6725	26.3672	67.0077	26.3672	68.0393	26.3672	67.4873
27.832	70.9167	27.832	70.3945	27.832	71.5049	27.832	69.9402	27.832	72.1519	27.832	69.5525	27.832	72.8424	27.832	69.2284	27.832	73.5509	27.832	68.9643	27.832	74.2395	27.832	68.7567	27.832	74.8594	27.832	68.6024	27.832	75.355	27.832	68.4993	27.832	75.672	27.832	68.4464	27.832	75.7671	27.832	68.444	27.832	75.6175	27.832	68.4936	27.832	75.2289	27.832	68.5981	27.832	74.6394	27.832	68.7611	27.832	73.9158	27.832	68.9859	27.832	73.1391	27.832	69.2751	27.832	72.3813	27.832	69.6286	27.832	71.6867	27.832	70.0453	27.832	71.0691	27.832	70.5243
29.2969	73.7862	29.2969	73.2815	29.2969	74.3465	29.2969	72.8335	29.2969	74.9569	29.2969	72.4407	29.2969	75.6044	29.2969	72.101	29.2969	76.2654	29.2969	71.8122	29.2969	76.9044	29.2969	71.5724	29.2969	77.4743	29.2969	71.3803	29.2969	77.9211	29.2969	71.2351	29.2969	78.191	29.2969	71.1365	29.2969	78.2409	29.2969	71.0851	29.2969	78.0478	29.2969	71.0826	29.2969	77.6171	29.2969	71.1323	29.2969	76.9871	29.2969	71.2387	29.2969	76.2261	29.2969	71.4074	29.2969	75.4179	29.2969	71.6436	29.2969	74.6379	29.2969	71.951	29.2969	73.9325	29.2969	72.331	29.2969	73.3161	29.2969	72.7848
30.7617	76.3397	30.7617	75.8535	30.7617	76.8823	30.7617	75.4244	30.7617	77.4755	30.7617	75.0508	30.7617	78.1061	30.7617	74.7295	30.7617	78.7506	30.7617	74.4574	30.7617	79.3738	30.7617	74.2321	30.7617	79.9291	30.7617	74.0516	30.7617	80.3631	30.7617	73.9148	30.7617	80.6222	30.7617	73.8213	30.7617	80.6635	30.7617	73.7717	30.7617	80.464	30.7617	73.7673	30.7617	80.0295	30.7617	73.8109	30.7617	79.3995	30.7617	73.9064	30.7617	78.6441	30.7617	74.059	30.7617	77.8488	30.7617	74.2738	30.7617	77.0894	30.7617	74.5549	30.7617	76.4109	30.7617	74.9049	30.7617	75.8254	30.7617	75.3265
32.2266	78.8011	32.2266	78.3044	32.2266	79.3518	32.2266	77.8639	32.2266	79.9493	32.2266	77.4793	32.2266	80.5794	32.2266	77.1484	32.2266	81.2186	32.2266	76.8685	32.2266	81.8325	32.2266	76.6367	32.2266	82.376	32.2266	76.4507	32.2266	82.7976	32.2266	76.3084	32.2266	83.0458	32.2266	76.2084	32.2266	83.079	32.2266	76.1504	32.2266	82.8748	32.2266	76.1353	32.2266	82.4386	32.2266	76.166	32.2266	81.808	32.2266	76.2475	32.2266	81.0499	32.2266	76.3866	32.2266	80.2467	32.2266	76.591	32.2266	79.4729	32.2266	76.8674	32.2266	78.7751	32.2266	77.2204	32.2266	78.1691	32.2266	77.6529
33.6914	81.2326	33.6914	80.7425	33.6914	81.7709	33.6914	80.3038	33.6914	82.3496	33.6914	79.9174	33.6914	82.9548	33.6914	79.5825	33.6914	83.5638	33.6914	79.2978	33.6914	84.1436	33.6914	79.0616	33.6914	84.6513	33.6914	78.8723	33.6914	85.0377	33.6914	78.7283	33.6914	85.2539	33.6914	78.6286	33.6914	85.2609	33.6914	78.5723	33.6914	85.0391	33.6914	78.56	33.6914	84.597	33.6914	78.5937	33.6914	83.9751	33.6914	78.6772	33.6914	83.242	33.6914	78.8166	33.6914	82.4779	33.6914	79.0184	33.6914	81.7506	33.6914	79.2883	33.6914	81.0983	33.6914	79.6292	33.6914	80.5305	33.6914	80.0426
35.1562	83.176	35.1562	82.6889	35.1562	83.7091	35.1562	82.2519	35.1562	84.2799	35.1562	81.8663	35.1562	84.8743	35.1562	81.5319	35.1562	85.4696	35.1562	81.2477	35.1562	86.0335	35.1562	81.0124	35.1562	86.5243	35.1562	80.8242	35.1562	86.894	35.1562	80.6816	35.1562	87.0953	35.1562	80.5833	35.1562	87.0904	35.1562	80.5282	35.1562	86.861	35.1562	80.5163	35.1562	86.4165	35.1562	80.5489	35.1562	85.7984	35.1562	80.6294	35.1562	85.075	35.1562	80.7633	35.1562	84.3253	35.1562	80.9573	35.1562	83.6147	35.1562	81.2177	35.1562	82.9788	35.1562	81.5482	35.1562	82.4255	35.1562	81.9502
36.6211	84.9607	36.6211	84.4764	36.6211	85.4878	36.6211	84.0396	36.6211	86.0492	36.6211	83.6523	36.6211	86.6304	36.6211	83.3151	36.6211	87.209	36.6211	83.0274	36.6211	87.7535	36.6211	82.7882	36.6211	88.2233	36.6211	82.5964	36.6211	88.5719	36.6211	82.4506	36.6211	88.7539	36.6211	82.3497	36.6211	88.7338	36.6211	82.2928	36.6211	88.4955	36.6211	82.2802	36.6211	88.0509	36.6211	82.3133	36.6211	87.4432	36.6211	82.3955	36.6211	86.7409	36.6211	82.5324	36.6211	86.02	36.6211	82.7302	36.6211	85.3398	36.6211	82.9941	36.6211	84.7296	36.6211	83.3264	36.6211	84.1933	36.6211	83.7265
38.0859	86.6083	38.0859	86.1054	38.0859	87.1458	38.0859	85.6432	38.0859	87.7088	38.0859	85.2258	38.0859	88.283	38.0859	84.8565	38.0859	88.8458	38.0859	84.5379	38.0859	89.3648	38.0859	84.2718	38.0859	89.797	38.0859	84.059	38.0859	90.0929	38.0859	83.8998	38.0859	90.2046	38.0859	83.7934	38.0859	90.0979	38.0859	83.7385	38.0859	89.7643	38.0859	83.7331	38.0859	89.2304	38.0859	83.7751	38.0859	88.5578	38.0859	83.8624	38.0859	87.8283	38.0859	83.994	38.0859	87.1178	38.0859	84.1706	38.0859	86.4731	38.0859	84.3957	38.0859	85.9097	38.0859	84.6752	38.0859	85.4261	38.0859	85.0165
39.5508	88.0614	39.5508	87.5599	39.5508	88.5937	39.5508	87.0954	39.5508	89.1473	39.5508	86.6727	39.5508	89.7073	39.5508	86.2955	39.5508	90.2515	39.5508	85.9664	39.5508	90.7476	39.5508	85.6877	39.5508	91.1533	39.5508	85.4605	39.5508	91.4201	39.5508	85.2852	39.5508	91.501	39.5508	85.1612	39.5508	91.3625	39.5508	85.0873	39.5508	90.9968	39.5508	85.0614	39.5508	90.4316	39.5508	85.0815	39.5508	89.7304	39.5508	85.1453	39.5508	88.9776	39.5508	85.252	39.5508	88.2518	39.5508	85.4027	39.5508	87.6011	39.5508	85.6018	39.5508	87.041	39.5508	85.8566	39.5508	86.5684	39.5508	86.176
41.0156	89.3492	41.0156	88.8547	41.0156	89.871	41.0156	88.394	41.0156	90.4104	41.0156	87.9722	41.0156	90.9532	41.0156	87.5933	41.0156	91.4772	41.0156	87.2609	41.0156	91.9511	41.0156	86.9776	41.0156	92.3336	41.0156	86.7452	41.0156	92.5774	41.0156	86.5645	41.0156	92.6371	41.0156	86.4353	41.0156	92.481	41.0156	86.3563	41.0156	92.1035	41.0156	86.3257	41.0156	91.5343	41.0156	86.3411	41.0156	90.8386	41.0156	86.4001	41.0156	90.1011	41.0156	86.5016	41.0156	89.3972	41.0156	86.6467	41.0156	88.7706	41.0156	86.8394	41.0156	88.232	41.0156	87.0868	41.0156	87.7765	41.0156	87.3969
42.4805	90.1841	42.4805	89.701	42.4805	90.6939	42.4805	89.2512	42.4805	91.2207	42.4805	88.8397	42.4805	91.7502	42.4805	88.4704	42.4805	92.2608	42.4805	88.1465	42.4805	92.722	42.4805	87.8704	42.4805	93.0943	42.4805	87.6438	42.4805	93.3322	42.4805	87.4671	42.4805	93.3924	42.4805	87.34	42.4805	93.2444	42.4805	87.2616	42.4805	92.8823	42.4805	87.2298	42.4805	92.3338	42.4805	87.2426	42.4805	91.6601	42.4805	87.2979	42.4805	90.941	42.4805	87.395	42.4805	90.2492	42.4805	87.5349	42.4805	89.6289	42.4805	87.7219	42.4805	89.094	42.4805	87.9633	42.4805	88.6422	42.4805	88.2675
43.9453	90.7471	43.9453	90.2668	43.9453	91.2532	43.9453	89.8197	43.9453	91.7749	43.9453	89.4112	43.9453	92.2977	43.9453	89.046	43.9453	92.8	43.9453	88.7276	43.9453	93.2518	43.9453	88.4587	43.9453	93.6142	43.9453	88.2408	43.9453	93.8432	43.9453	88.0744	43.9453	93.8973	43.9453	87.9592	43.9453	93.7485	43.9453	87.8938	43.9453	93.394	43.9453	87.876	43.9453	92.8647	43.9453	87.9035	43.9453	92.2223	43.9453	87.9738	43.9453	91.5435	43.9453	88.0854	43.9453	90.8936	43.9453	88.2386	43.9453	90.3087	43.9453	88.4365	43.9453	89.7985	43.9453	88.685	43.9453	89.3608	43.9453	88.9911
45.4102	91.0476	45.4102	90.5587	45.4102	91.5606	45.4102	90.1023	45.4102	92.0866	45.4102	89.6852	45.4102	92.61	45.4102	89.3129	45.4102	93.1089	45.4102	88.9901	45.4102	93.5532	45.4102	88.7198	45.4102	93.9046	45.4102	88.5042	45.4102	94.1202	45.4102	88.3437	45.4102	94.16	45.4102	88.2376	45.4102	93.9982	45.4102	88.1841	45.4102	93.6351	45.4102	88.1805	45.4102	93.1041	45.4102	88.2232	45.4102	92.4691	45.4102	88.3088	45.4102	91.8064	45.4102	88.4341	45.4102	91.178	45.4102	88.5979	45.4102	90.6161	45.4102	88.8016	45.4102	90.1271	45.4102	89.0499	45.4102	89.7067	45.4102	89.3494
46.875	91.3898	46.875	90.8966	46.875	91.9038	46.875	90.4338	46.875	92.4267	46.875	90.0096	46.875	92.9426	46.875	89.6311	46.875	93.4298	46.875	89.3045	46.875	93.8587	46.875	89.0342	46.875	94.1921	46.875	88.8229	46.875	94.3884	46.875	88.6714	46.875	94.4095	46.875	88.5786	46.875	94.2324	46.875	88.5418	46.875	93.8603	46.875	88.5567	46.875	93.3304	46.875	88.6183	46.875	92.7093	46.875	88.7211	46.875	92.0728	46.875	88.8602	46.875	91.4788	46.875	89.0326	46.875	90.953	46.875	89.2382	46.875	90.497	46.875	89.4809	46.875	90.1039	46.875	89.7672
48.3398	91.7066	48.3398	91.2176	48.3398	92.2122	48.3398	90.755	48.3398	92.7228	48.3398	90.3273	48.3398	93.2231	48.3398	89.9425	48.3398	93.6921	48.3398	89.6078	48.3398	94.101	48.3398	89.3291	48.3398	94.4134	48.3398	89.1104	48.3398	94.5888	48.3398	88.9535	48.3398	94.59	48.3398	88.8579	48.3398	94.3948	48.3398	88.8208	48.3398	94.0079	48.3398	88.8373	48.3398	93.4684	48.3398	88.9013	48.3398	92.8448	48.3398	89.0059	48.3398	92.2143	48.3398	89.1446	48.3398	91.6342	48.3398	89.313	48.3398	91.1281	48.3398	89.5103	48.3398	90.6945	48.3398	89.7398	48.3398	90.3242	48.3398	90.0084
51.2695	91.9801	51.2695	91.495	51.2695	92.4742	51.2695	91.0277	51.2695	92.9664	51.2695	90.5864	51.2695	93.4421	51.2695	90.179	51.2695	93.8811	51.2695	89.8128	51.2695	94.2555	51.2695	89.4949	51.2695	94.5301	51.2695	89.2311	51.2695	94.6655	51.2695	89.0253	51.2695	94.6264	51.2695	88.8797	51.2695	94.3925	51.2695	88.7941	51.2695	93.9708	51.2695	88.7659	51.2695	93.4024	51.2695	88.7907	51.2695	92.7562	51.2695	88.8628	51.2695	92.1072	51.2695	88.9764	51.2695	91.5096	51.2695	89.1273	51.2695	90.9845	51.2695	89.3146	51.2695	90.5313	51.2695	89.5418	51.2695	90.1436	51.2695	89.8157
52.7344	91.9569	52.7344	91.4783	52.7344	92.4428	52.7344	91.016	52.7344	92.9256	52.7344	90.5777	52.7344	93.3906	52.7344	90.1709	52.7344	93.8176	52.7344	89.803	52.7344	94.1788	52.7344	89.4806	52.7344	94.4392	52.7344	89.2096	52.7344	94.5598	52.7344	88.9943	52.7344	94.5061	52.7344	88.8372	52.7344	94.2593	52.7344	88.7389	52.7344	93.8287	52.7344	88.6976	52.7344	93.2571	52.7344	88.7099	52.7344	92.6144	52.7344	88.7708	52.7344	91.974	52.7344	88.8752	52.7344	91.3859	52.7344	89.0194	52.7344	90.8678	52.7344	89.2025	52.7344	90.4177	52.7344	89.4278	52.7344	90.0302	52.7344	89.7017
54.1992	91.9823	54.1992	91.5112	54.1992	92.4601	54.1992	91.0557	54.1992	92.9339	54.1992	90.6233	54.1992	93.389	54.1992	90.2214	54.1992	93.8045	54.1992	89.8568	54.1992	94.1522	54.1992	89.536	54.1992	94.3968	54.1992	89.2644	54.1992	94.4992	54.1992	89.046	54.1992	94.4256	54.1992	88.8833	54.1992	94.1587	54.1992	88.7768	54.1992	93.71	54.1992	88.7252	54.1992	93.1254	54.1992	88.7252	54.1992	92.4773	54.1992	88.7726	54.1992	91.8397	54.1992	88.8626	54.1992	91.2607	54.1992	88.9919	54.1992	90.755	54.1992	89.1601	54.1992	90.3183	54.1992	89.3708	54.1992	89.9446	54.1992	89.6301
55.6641	92.0213	55.6641	91.5564	55.6641	92.4974	55.6641	91.112	55.6641	92.9726	55.6641	90.6957	55.6641	93.4312	55.6641	90.314	55.6641	93.8516	55.6641	89.9723	55.6641	94.2048	55.6641	89.675	55.6641	94.4547	55.6641	89.4253	55.6641	94.5616	55.6641	89.2257	55.6641	94.4914	55.6641	89.0774	55.6641	94.228	55.6641	88.9808	55.6641	93.7862	55.6641	88.9352	55.6641	93.2167	55.6641	88.9388	55.6641	92.5934	55.6641	88.9893	55.6641	91.9858	55.6641	89.0837	55.6641	91.4347	55.6641	89.2188	55.6641	90.9506	55.6641	89.3928	55.6641	90.5305	55.6641	89.6063	55.6641	90.1694	55.6641	89.8632
58.5938	91.9618	58.5938	91.4898	58.5938	92.4435	58.5938	91.0381	58.5938	92.9224	58.5938	90.6161	58.5938	93.3825	58.5938	90.2319	58.5938	93.8026	58.5938	89.8926	58.5938	94.1549	58.5938	89.6041	58.5938	94.4051	58.5938	89.3706	58.5938	94.516	58.5938	89.1946	58.5938	94.4562	58.5938	89.0768	58.5938	94.2132	58.5938	89.0163	58.5938	93.8048	58.5938	89.0106	58.5938	93.2827	58.5938	89.0561	58.5938	92.7179	58.5938	89.1483	58.5938	92.172	58.5938	89.2826	58.5938	91.6763	58.5938	89.4544	58.5938	91.2341	58.5938	89.6604	58.5938	90.839	58.5938	89.8998	58.5938	90.4863	58.5938	90.1742
60.0586	91.9148	60.0586	91.4412	60.0586	92.3966	60.0586	90.9871	60.0586	92.8731	60.0586	90.5625	60.0586	93.3282	60.0586	90.1766	60.0586	93.7405	60.0586	89.8372	60.0586	94.0827	60.0586	89.5507	60.0586	94.3209	60.0586	89.3215	60.0586	94.4193	60.0586	89.1522	60.0586	94.3484	60.0586	89.0431	60.0586	94.0979	60.0586	88.9929	60.0586	93.6889	60.0586	88.9984	60.0586	93.1751	60.0586	89.0553	60.0586	92.6273	60.0586	89.1583	60.0586	92.1042	60.0586	89.302	60.0586	91.6323	60.0586	89.4809	60.0586	91.2121	60.0586	89.6906	60.0586	90.8359	60.0586	89.9292	60.0586	90.4987	60.0586	90.1976
62.9883	91.7084	62.9883	91.2288	62.9883	92.1908	62.9883	90.7642	62.9883	92.6624	62.9883	90.3258	62.9883	93.1066	62.9883	89.9241	62.9883	93.5024	62.9883	89.5687	62.9883	93.8231	62.9883	89.2677	62.9883	94.036	62.9883	89.0273	62.9883	94.1073	62.9883	88.8513	62.9883	94.0105	62.9883	88.7407	62.9883	93.7398	62.9883	88.6941	62.9883	93.3215	62.9883	88.7078	62.9883	92.814	62.9883	88.7763	62.9883	92.2887	62.9883	88.8931	62.9883	91.7981	62.9883	89.051	62.9883	91.3596	62.9883	89.2432	62.9883	90.9663	62.9883	89.464	62.9883	90.6079	62.9883	89.7102	62.9883	90.2802	62.9883	89.9816
64.4531	91.6151	64.4531	91.131	64.4531	92.1005	64.4531	90.6609	64.4531	92.5733	64.4531	90.2164	64.4531	93.0169	64.4531	89.8088	64.4531	93.4102	64.4531	89.448	64.4531	93.7268	64.4531	89.1428	64.4531	93.9344	64.4531	88.8997	64.4531	93.9997	64.4531	88.7227	64.4531	93.8967	64.4531	88.6131	64.4531	93.6205	64.4531	88.5694	64.4531	93.1985	64.4531	88.5875	64.4531	92.6902	64.4531	88.6617	64.4531	92.1674	64.4531	88.7849	64.4531	91.6825	64.4531	88.9493	64.4531	91.2513	64.4531	89.1475	64.4531	90.8654	64.4531	89.3731	64.4531	90.5135	64.4531	89.6221	64.4531	90.1904	64.4531	89.894
67.3828	91.4789	67.3828	90.976	67.3828	91.9779	67.3828	90.4833	67.3828	92.458	67.3828	90.0142	67.3828	92.9021	67.3828	89.582	67.3828	93.2891	67.3828	89.1988	67.3828	93.5932	67.3828	88.8752	67.3828	93.7834	67.3828	88.6191	67.3828	93.8279	67.3828	88.4354	67.3828	93.7029	67.3828	88.3254	67.3828	93.4063	67.3828	88.2868	67.3828	92.9683	67.3828	88.3145	67.3828	92.4511	67.3828	88.4012	67.3828	91.9274	67.3828	88.5381	67.3828	91.4474	67.3828	88.7161	67.3828	91.024	67.3828	88.9261	67.3828	90.6462	67.3828	89.1608	67.3828	90.3014	67.3828	89.4155	67.3828	89.9834	67.3828	89.6891
68.8477	91.4439	68.8477	90.9327	68.8477	91.9472	68.8477	90.4279	68.8477	92.4278	68.8477	89.9437	68.8477	92.8692	68.8477	89.4944	68.8477	93.2513	68.8477	89.0936	68.8477	93.5492	68.8477	88.7538	68.8477	93.7333	68.8477	88.4844	68.8477	93.7732	68.8477	88.2917	68.8477	93.6464	68.8477	88.1777	68.8477	93.3518	68.8477	88.1401	68.8477	92.9202	68.8477	88.1732	68.8477	92.4128	68.8477	88.2686	68.8477	91.8987	68.8477	88.4164	68.8477	91.4244	68.8477	88.6064	68.8477	91.0007	68.8477	88.8291	68.8477	90.6174	68.8477	89.0765	68.8477	90.2637	68.8477	89.3436	68.8477	89.935	68.8477	89.6292
71.7773	91.544	71.7773	91.0439	71.7773	92.03	71.7773	90.5431	71.7773	92.4882	71.7773	90.0551	71.7773	92.9026	71.7773	89.5936	71.7773	93.254	71.7773	89.1727	71.7773	93.5181	71.7773	88.8053	71.7773	93.666	71.7773	88.5033	71.7773	93.6688	71.7773	88.2755	71.7773	93.5067	71.7773	88.1271	71.7773	93.1832	71.7773	88.0592	71.7773	92.7351	71.7773	88.0687	71.7773	92.2284	71.7773	88.1486	71.7773	91.7312	71.7773	88.2894	71.7773	91.2819	71.7773	88.4799	71.7773	90.8813	71.7773	88.7084	71.7773	90.5139	71.7773	88.9646	71.7773	90.1686	71.7773	89.2407	71.7773	89.842	71.7773	89.5332
74.707	91.592	74.707	91.1	74.707	92.0679	74.707	90.6051	74.707	92.5135	74.707	90.1209	74.707	92.9127	74.707	89.6609	74.707	93.2459	74.707	89.2387	74.707	93.4888	74.707	88.8671	74.707	93.6125	74.707	88.5574	74.707	93.5886	74.707	88.3185	74.707	93.3988	74.707	88.1559	74.707	93.0494	74.707	88.0713	74.707	92.5818	74.707	88.0626	74.707	92.0661	74.707	88.124	74.707	91.5717	74.707	88.247	74.707	91.1328	74.707	88.4212	74.707	90.7443	74.707	88.6356	74.707	90.387	74.707	88.8798	74.707	90.0496	74.707	89.1456	74.707	89.7303	74.707	89.4292
77.6367	91.5581	77.6367	91.0637	77.6367	92.0344	77.6367	90.5659	77.6367	92.4777	77.6367	90.0797	77.6367	92.8713	77.6367	89.6201	77.6367	93.1953	77.6367	89.2019	77.6367	93.4255	77.6367	88.839	77.6367	93.5339	77.6367	88.5432	77.6367	93.4933	77.6367	88.323	77.6367	93.288	77.6367	88.1829	77.6367	92.9284	77.6367	88.1232	77.6367	92.4614	77.6367	88.1399	77.6367	91.9621	77.6367	88.2252	77.6367	91.4999	77.6367	88.3689	77.6367	91.1032	77.6367	88.5589	77.6367	90.7588	77.6367	88.783	77.6367	90.4417	77.6367	89.0301	77.6367	90.1381	77.6367	89.2916	77.6367	89.8453	77.6367	89.5634
79.1016	91.5192	79.1016	91.0225	79.1016	91.9955	79.1016	90.5207	79.1016	92.4363	79.1016	90.0289	79.1016	92.8247	79.1016	89.5628	79.1016	93.1407	79.1016	89.1378	79.1016	93.36	79.1016	88.7687	79.1016	93.4549	79.1016	88.4679	79.1016	93.3987	79.1016	88.2447	79.1016	93.177	79.1016	88.1043	79.1016	92.8026	79.1016	88.047	79.1016	92.3259	79.1016	88.0687	79.1016	91.8258	79.1016	88.1612	79.1016	91.3734	79.1016	88.3134	79.1016	90.9944	79.1016	88.5122	79.1016	90.671	79.1016	88.7442	79.1016	90.3739	79.1016	88.9969	79.1016	90.087	79.1016	89.261	79.1016	89.8062	79.1016	89.5311
82.0312	91.5027	82.0312	91.0053	82.0312	91.9753	82.0312	90.499	82.0312	92.407	82.0312	90	82.0312	92.7807	82.0312	89.5251	82.0312	93.0764	82.0312	89.0908	82.0312	93.2701	82.0312	88.7125	82.0312	93.3344	82.0312	88.4033	82.0312	93.2434	82.0312	88.1726	82.0312	92.9835	82.0312	88.0257	82.0312	92.5694	82.0312	87.9628	82.0312	92.0556	82.0312	87.9794	82.0312	91.5269	82.0312	88.0667	82.0312	91.0599	82.0312	88.2129	82.0312	90.6822	82.0312	88.4039	82.0312	90.3733	82.0312	88.6252	82.0312	90.1006	82.0312	88.8629	82.0312	89.844	82.0312	89.1067	82.0312	89.5956	82.0312	89.351
84.9609	91.4697	84.9609	90.9717	84.9609	91.9388	84.9609	90.4605	84.9609	92.3637	84.9609	89.9525	84.9609	92.7276	84.9609	89.4648	84.9609	93.0115	84.9609	89.0147	84.9609	93.1916	84.9609	88.6185	84.9609	93.2411	84.9609	88.2904	84.9609	93.1339	84.9609	88.041	84.9609	92.8565	84.9609	87.8763	84.9609	92.4242	84.9609	87.7967	84.9609	91.8927	84.9609	87.7979	84.9609	91.3478	84.9609	87.8707	84.9609	90.8651	84.9609	88.0027	84.9609	90.4698	84.9609	88.1797	84.9609	90.1414	84.9609	88.3869	84.9609	89.8497	84.9609	88.6113	84.9609	89.579	84.9609	88.8437	84.9609	89.324	84.9609	89.0806
87.8906	91.1931	87.8906	90.6924	87.8906	91.6659	87.8906	90.1806	87.8906	92.0946	87.8906	89.6747	87.8906	92.4617	87.8906	89.1922	87.8906	92.7477	87.8906	88.7501	87.8906	92.9293	87.8906	88.3639	87.8906	92.9802	87.8906	88.0459	87.8906	92.8758	87.8906	87.8049	87.8906	92.6051	87.8906	87.6448	87.8906	92.1853	87.8906	87.565	87.8906	91.6725	87.8906	87.5605	87.8906	91.1486	87.8906	87.6228	87.8906	90.6812	87.8906	87.7412	87.8906	90.2884	87.8906	87.9036	87.8906	89.9479	87.8906	88.0984	87.8906	89.6337	87.8906	88.3155	87.8906	89.3362	87.8906	88.5482	87.8906	89.0563	87.8906	88.7945
90.8203	90.9582	90.8203	90.4255	90.8203	91.4571	90.8203	89.8787	90.8203	91.9035	90.8203	89.339	90.8203	92.2788	90.8203	88.8287	90.8203	92.5627	90.8203	88.3695	90.8203	92.7321	90.8203	87.9808	90.8203	92.7623	90.8203	87.6772	90.8203	92.632	90.8203	87.4671	90.8203	92.3372	90.8203	87.352	90.8203	91.9075	90.8203	87.3269	90.8203	91.4144	90.8203	87.3821	90.8203	90.9496	90.8203	87.505	90.8203	90.5724	90.8203	87.6818	90.8203	90.2775	90.8203	87.8987	90.8203	90.0202	90.8203	88.1432	90.8203	89.7638	90.8203	88.4047	90.8203	89.4971	90.8203	88.675	90.8203	89.2239	90.8203	88.9489
95.2148	91.0211	95.2148	90.476	95.2148	91.5144	95.2148	89.8975	95.2148	91.9392	95.2148	89.3069	95.2148	92.2793	95.2148	88.7286	95.2148	92.5167	95.2148	88.1891	95.2148	92.6304	95.2148	87.7154	95.2148	92.5961	95.2148	87.3319	95.2148	92.3918	95.2148	87.0567	95.2148	92.0095	95.2148	86.8983	95.2148	91.474	95.2148	86.8542	95.2148	90.8563	95.2148	86.912	95.2148	90.2597	95.2148	87.0522	95.2148	89.7703	95.2148	87.2519	95.2148	89.4106	95.2148	87.4877	95.2148	89.1495	95.2148	87.7381	95.2148	88.9454	95.2148	87.9845	95.2148	88.7689	95.2148	88.2132	95.2148	88.5986	95.2148	88.4172
98.1445	90.6804	98.1445	90.1589	98.1445	91.1509	98.1445	89.6034	98.1445	91.5551	98.1445	89.0329	98.1445	91.8775	98.1445	88.4687	98.1445	92.1012	98.1445	87.9336	98.1445	92.2058	98.1445	87.4507	98.1445	92.1688	98.1445	87.041	98.1445	91.9713	98.1445	86.7217	98.1445	91.6109	98.1445	86.5036	98.1445	91.1188	98.1445	86.3896	98.1445	90.5656	98.1445	86.3749	98.1445	90.0372	98.1445	86.4477	98.1445	89.5852	98.1445	86.5913	98.1445	89.2044	98.1445	86.7863	98.1445	88.8637	98.1445	87.0129	98.1445	88.5465	98.1445	87.2539	98.1445	88.2544	98.1445	87.4975	98.1445	87.9885	98.1445	87.7403
101.074	90.2556	101.074	89.7022	101.074	90.7523	101.074	89.1132	101.074	91.1736	101.074	88.5123	101.074	91.5009	101.074	87.9261	101.074	91.7147	101.074	87.3819	101.074	91.7933	101.074	86.9059	101.074	91.7143	101.074	86.5195	101.074	91.4632	101.074	86.2367	101.074	91.0491	101.074	86.0621	101.074	90.5246	101.074	85.9917	101.074	89.9861	101.074	86.0147	101.074	89.5303	101.074	86.1159	101.074	89.1873	101.074	86.2783	101.074	88.9109	101.074	86.4851	101.074	88.6414	101.074	86.7211	101.074	88.3552	101.074	86.9738	101.074	88.0619	101.074	87.2348	101.074	87.776	101.074	87.5014
105.469	90.6142	105.469	89.9927	105.469	91.1452	105.469	89.3018	105.469	91.5673	105.469	88.5673	105.469	91.8624	105.469	87.8208	105.469	92.0104	105.469	87.1002	105.469	91.9873	105.469	86.4474	105.469	91.7659	105.469	85.9028	105.469	91.3236	105.469	85.4983	105.469	90.6621	105.469	85.2493	105.469	89.8395	105.469	85.1523	105.469	88.9953	105.469	85.1874	105.469	88.3114	105.469	85.3256	105.469	87.8862	105.469	85.5354	105.469	87.6627	105.469	85.788	105.469	87.5191	105.469	86.0594	105.469	87.3771	105.469	86.3305	105.469	87.2143	105.469	86.5872	105.469	87.0294	105.469	86.821
108.398	90.8368	108.398	90.2511	108.398	91.3275	108.398	89.5877	108.398	91.7081	108.398	88.8679	108.398	91.9631	108.398	88.1186	108.398	92.075	108.398	87.3728	108.398	92.0216	108.398	86.6689	108.398	91.7769	108.398	86.0473	108.398	91.3178	108.398	85.5441	108.398	90.641	108.398	85.1839	108.398	89.7922	108.398	84.9735	108.398	88.8903	108.398	84.9016	108.398	88.1014	108.398	84.944	108.398	87.5354	108.398	85.0702	108.398	87.1691	108.398	85.2501	108.398	86.9069	108.398	85.4579	108.398	86.6814	108.398	85.6734	108.398	86.4724	108.398	85.8834	108.398	86.2757	108.398	86.0828
112.793	90.6627	112.793	90.1118	112.793	91.1164	112.793	89.4781	112.793	91.4602	112.793	88.7796	112.793	91.6814	112.793	88.0397	112.793	91.7644	112.793	87.2889	112.793	91.6894	112.793	86.5648	112.793	91.4325	112.793	85.9109	112.793	90.9723	112.793	85.3706	112.793	90.3077	112.793	84.979	112.793	89.4876	112.793	84.7526	112.793	88.6347	112.793	84.6855	112.793	87.9136	112.793	84.7521	112.793	87.4226	112.793	84.9161	112.793	87.1226	112.793	85.1402	112.793	86.9098	112.793	85.3919	112.793	86.7153	112.793	85.647	112.793	86.52	112.793	85.8899	112.793	86.3215	112.793	86.114
117.188	90.1087	117.188	89.5639	117.188	90.5545	117.188	88.9339	117.188	90.8883	117.188	88.2354	117.188	91.0961	117.188	87.4893	117.188	91.1605	117.188	86.7224	117.188	91.059	117.188	85.968	117.188	90.7645	117.188	85.2658	117.188	90.2521	117.188	84.6576	117.188	89.5196	117.188	84.1815	117.188	88.6222	117.188	83.8629	117.188	87.7029	117.188	83.7079	117.188	86.956	117.188	83.7031	117.188	86.4893	117.188	83.8206	117.188	86.2375	117.188	84.0267	117.188	86.0633	117.188	84.2884	117.188	85.8802	117.188	84.5779	117.188	85.6661	117.188	84.8729	117.188	85.4239	117.188	85.158
120.117	89.85	120.117	89.3053	120.117	90.2909	120.117	88.6704	120.117	90.6145	120.117	87.961	120.117	90.8058	120.117	87.1962	120.117	90.8458	120.117	86.4005	120.117	90.7098	120.117	85.6055	120.117	90.367	120.117	84.8502	120.117	89.7866	120.117	84.1789	120.117	88.9562	120.117	83.6358	120.117	87.9179	120.117	83.2546	120.117	86.8109	120.117	83.0497	120.117	85.8631	120.117	83.0114	120.117	85.2544	120.117	83.1111	120.117	84.9664	120.117	83.3095	120.117	84.8481	120.117	83.5666	120.117	84.7726	120.117	83.8458	120.117	84.6789	120.117	84.1162	120.117	84.5422	120.117	84.3535
124.512	89.1122	124.512	88.5956	124.512	89.5287	124.512	87.9949	124.512	89.8299	124.512	87.3279	124.512	90.0003	124.512	86.6144	124.512	90.0223	124.512	85.8761	124.512	89.8747	124.512	85.1375	124.512	89.5321	124.512	84.4246	124.512	88.9701	124.512	83.7645	124.512	88.1802	124.512	83.1832	124.512	87.1956	124.512	82.7023	124.512	86.1158	124.512	82.3356	124.512	85.0904	124.512	82.0866	124.512	84.2378	124.512	81.9475	124.512	83.5769	124.512	81.9008	124.512	83.0687	124.512	81.9224	124.512	82.69	124.512	81.9862	124.512	82.4332	124.512	82.0698	124.512	82.2717	124.512	82.1618
128.906	87.8626	128.906	87.2867	128.906	88.3311	128.906	86.6225	128.906	88.6749	128.906	85.8928	128.906	88.8772	128.906	85.1245	128.906	88.9193	128.906	84.3489	128.906	88.7791	128.906	83.6006	128.906	88.4322	128.906	82.9144	128.906	87.8576	128.906	82.3205	128.906	87.056	128.906	81.8394	128.906	86.0799	128.906	81.4783	128.906	85.0572	128.906	81.2312	128.906	84.1554	128.906	81.0823	128.906	83.4681	128.906	81.0115	128.906	82.9518	128.906	80.9995	128.906	82.5152	128.906	81.0313	128.906	82.121	128.906	81.0976	128.906	81.7846	128.906	81.1962	128.906	81.5236	128.906	81.3334
133.301	87.6485	133.301	86.9487	133.301	88.2098	133.301	86.1278	133.301	88.6164	133.301	85.2064	133.301	88.8522	133.301	84.2112	133.301	88.899	133.301	83.1777	133.301	88.7356	133.301	82.1533	133.301	88.3386	133.301	81.1973	133.301	87.6889	133.301	80.3745	133.301	86.7893	133.301	79.7407	133.301	85.6978	133.301	79.3242	133.301	84.5574	133.301	79.1165	133.301	83.5624	133.301	79.0793	133.301	82.8242	133.301	79.1625	133.301	82.2848	133.301	79.3205	133.301	81.8211	133.301	79.5208	133.301	81.3729	133.301	79.7456	133.301	80.9507	133.301	79.9908	133.301	80.5794	133.301	80.2637
139.16	91.1489	139.16	90.6878	139.16	91.4776	139.16	90.1126	139.16	91.6586	139.16	89.4453	139.16	91.6799	139.16	88.7107	139.16	91.5328	139.16	87.937	139.16	91.2113	139.16	87.1556	139.16	90.714	139.16	86.4016	139.16	90.0477	139.16	85.7128	139.16	89.2395	139.16	85.1281	139.16	88.3558	139.16	84.6831	139.16	87.5133	139.16	84.4022	139.16	86.8444	139.16	84.291	139.16	86.4131	139.16	84.3322	139.16	86.1731	139.16	84.4891	139.16	86.0278	139.16	84.7155	139.16	85.9048	139.16	84.9674	139.16	85.7713	139.16	85.2117	139.16	85.6151	139.16	85.4295
143.555	89.2343	143.555	88.9741	143.555	89.3502	143.555	88.5903	143.555	89.3062	143.555	88.1081	143.555	89.0919	143.555	87.557	143.555	88.7029	143.555	86.9695	143.555	88.1432	143.555	86.3804	143.555	87.4284	143.555	85.8242	143.555	86.5959	143.555	85.3326	143.555	85.7196	143.555	84.9312	143.555	84.92	143.555	84.6359	143.555	84.3314	143.555	84.4505	143.555	84.0167	143.555	84.3649	143.555	83.9232	143.555	84.3568	143.555	83.9501	143.555	84.3955	143.555	84.031	143.555	84.4481	143.555	84.1396	143.555	84.4861	143.555	84.2594	143.555	84.4896	143.555	84.3694	143.555	84.4501
147.949	87.9956	147.949	87.7847	147.949	88.0358	147.949	87.4289	147.949	87.8846	147.949	86.9589	147.949	87.5256	147.949	86.4105	147.949	86.9482	147.949	85.8243	147.949	86.1495	147.949	85.2437	147.949	85.1418	147.949	84.7109	147.949	83.9689	147.949	84.2616	147.949	82.7431	147.949	83.919	147.949	81.6852	147.949	83.6901	147.949	81.0639	147.949	83.5646	147.949	80.963	147.949	83.5179	147.949	81.1925	147.949	83.5162	147.949	81.5248	147.949	83.5225	147.949	81.8627	147.949	83.5033	147.949	82.1977	147.949	83.4334	147.949	82.5282	147.949	83.2989	147.949	82.8356	147.949	83.0974
153.809	88.081	153.809	87.9005	153.809	88.062	153.809	87.5402	153.809	87.8326	153.809	87.0288	153.809	87.3908	153.809	86.4044	153.809	86.7424	153.809	85.716	153.809	85.8955	153.809	85.022	153.809	84.8503	153.809	84.3873	153.809	83.5906	153.809	83.8719	153.809	82.1098	153.809	83.5165	153.809	80.5333	153.809	83.3298	153.809	79.3265	153.809	83.286	153.809	79.0774	153.809	83.3359	153.809	79.6439	153.809	83.4216	153.809	80.4114	153.809	83.4898	153.809	81.0851	153.809	83.4991	153.809	81.6578	153.809	83.4234	153.809	82.1682	153.809	83.2511	153.809	82.6153	153.809	82.9803
159.668	89.0557	159.668	88.7294	159.668	89.2244	159.668	88.2614	159.668	89.2263	159.668	87.6776	159.668	89.0575	159.668	87.0145	159.668	88.7184	159.668	86.3204	159.668	88.2105	159.668	85.6522	159.668	87.5296	159.668	85.0688	159.668	86.6562	159.668	84.6207	159.668	85.5574	159.668	84.339	159.668	84.2438	159.668	84.228	159.668	82.9103	159.668	84.2645	159.668	82.0276	159.668	84.4035	159.668	81.9353	159.668	84.5879	159.668	82.361	159.668	84.7587	159.668	82.8857	159.668	84.8646	159.668	83.3625	159.668	84.8695	159.668	83.7982	159.668	84.756	159.668	84.1955	159.668	84.5253
165.527	91.1836	165.527	90.8169	165.527	91.3664	165.527	90.2665	165.527	91.3737	165.527	89.5417	165.527	91.2231	165.527	88.6626	165.527	90.9405	165.527	87.6656	165.527	90.5506	165.527	86.6117	165.527	90.059	165.527	85.5953	165.527	89.4325	165.527	84.7439	165.527	88.6107	165.527	84.1899	165.527	87.5759	165.527	84.0102	165.527	86.481	165.527	84.1804	165.527	85.7037	165.527	84.5941	165.527	85.5359	165.527	85.1228	165.527	85.8177	165.527	85.6607	165.527	86.2168	165.527	86.1371	165.527	86.5598	165.527	86.5128	165.527	86.7983	165.527	86.7712	165.527	86.9163	165.527	86.9069
171.387	92.2033	171.387	91.8485	171.387	92.3999	171.387	91.3307	171.387	92.4508	171.387	90.6523	171.387	92.3752	171.387	89.8241	171.387	92.1943	171.387	88.8673	171.387	91.921	171.387	87.818	171.387	91.5442	171.387	86.7356	171.387	91.0208	171.387	85.712	171.387	90.299	171.387	84.8746	171.387	89.3876	171.387	84.3618	171.387	88.4471	171.387	84.2601	171.387	87.7646	171.387	84.5446	171.387	87.4887	171.387	85.0916	171.387	87.4787	171.387	85.7489	171.387	87.5498	171.387	86.392	171.387	87.6355	171.387	86.9402	171.387	87.7093	171.387	87.3513	171.387	87.7189	171.387	87.6093
177.246	92.6071	177.246	92.2655	177.246	92.8068	177.246	91.7791	177.246	92.8727	177.246	91.1515	177.246	92.8173	177.246	90.3936	177.246	92.6526	177.246	89.5244	177.246	92.3806	177.246	88.5735	177.246	91.98	177.246	87.5846	177.246	91.4004	177.246	86.6199	177.246	90.5906	177.246	85.7655	177.246	89.5877	177.246	85.1288	177.246	88.6395	177.246	84.8139	177.246	88.1371	177.246	84.8712	177.246	88.171	177.246	85.2575	177.246	88.4178	177.246	85.8529	177.246	88.5956	177.246	86.5206	177.246	88.6388	177.246	87.1545	177.246	88.5695	177.246	87.6923	177.246	88.3965	177.246	88.1076
183.105	91.7674	183.105	91.3848	183.105	92.0294	183.105	90.8826	183.105	92.1732	183.105	90.2654	183.105	92.2028	183.105	89.543	183.105	92.1209	183.105	88.7321	183.105	91.9201	183.105	87.8594	183.105	91.5702	183.105	86.9654	183.105	91.0133	183.105	86.1093	183.105	90.1891	183.105	85.372	183.105	89.121	183.105	84.8512	183.105	88.0592	183.105	84.6371	183.105	87.4756	183.105	84.7699	183.105	87.5796	183.105	85.2089	183.105	88.0416	183.105	85.8485	183.105	88.4866	183.105	86.5668	183.105	88.76	183.105	87.2653	183.105	88.8278	183.105	87.8785	183.105	88.6903	183.105	88.3645
188.965	91.6855	188.965	91.1547	188.965	92.0707	188.965	90.4915	188.965	92.302	188.965	89.7129	188.965	92.3761	188.965	88.8403	188.965	92.2933	188.965	87.9012	188.965	92.0511	188.965	86.9312	188.965	91.6317	188.965	85.9784	188.965	90.9912	188.965	85.1085	188.965	90.0754	188.965	84.4095	188.965	88.8911	188.965	83.9875	188.965	87.6366	188.965	83.9396	188.965	86.7609	188.965	84.3018	188.965	86.632	188.965	85.0113	188.965	87.1269	188.965	85.929	188.965	87.8735	188.965	86.8996	188.965	88.5731	188.965	87.7939	188.965	89.0397	188.965	88.5172	188.965	89.1851	188.965	88.9994
196.289	93.0327	196.289	92.5638	196.289	93.3148	196.289	91.9204	196.289	93.4044	196.289	91.1189	196.289	93.3051	196.289	90.1784	196.289	93.0295	196.289	89.1204	196.289	92.5929	196.289	87.9707	196.289	91.9981	196.289	86.7634	196.289	91.2226	196.289	85.55	196.289	90.2358	196.289	84.4147	196.289	89.0688	196.289	83.4954	196.289	87.8841	196.289	82.9844	196.289	86.8972	196.289	83.049	196.289	86.1779	196.289	83.6832	196.289	85.747	196.289	84.6767	196.289	85.7943	196.289	85.755	196.289	86.361	196.289	86.6998	196.289	87.0826	196.289	87.3696	196.289	87.576	196.289	87.6773
203.613	92.2815	203.613	91.9418	203.613	92.4287	203.613	91.432	203.613	92.3726	203.613	90.7822	203.613	92.1164	203.613	90.0265	203.613	91.6774	203.613	89.1996	203.613	91.0767	203.613	88.3337	203.613	90.3155	203.613	87.457	203.613	89.3583	203.613	86.594	203.613	88.1807	203.613	85.7693	203.613	86.9399	203.613	85.0177	203.613	86.1111	203.613	84.4014	203.613	86.0016	203.613	84.0235	203.613	86.1824	203.613	83.9993	203.613	86.1446	203.613	84.3589	203.613	85.8596	203.613	84.9702	203.613	85.6446	203.613	85.5991	203.613	85.7373	203.613	86.0353	203.613	86.0074	203.613	86.1657
210.938	91.6954	210.938	91.2615	210.938	91.9182	210.938	90.6306	210.938	91.9301	210.938	89.8315	210.938	91.7465	210.938	88.9071	210.938	91.393	210.938	87.9126	210.938	90.8886	210.938	86.9123	210.938	90.2125	210.938	85.9716	210.938	89.2743	210.938	85.1488	210.938	87.9327	210.938	84.4898	210.938	86.1285	210.938	84.033	210.938	84.2445	210.938	83.815	210.938	83.3503	210.938	83.8646	210.938	83.7478	210.938	84.1717	210.938	84.4416	210.938	84.6572	210.938	84.9106	210.938	85.1843	210.938	85.2076	210.938	85.6117	210.938	85.4652	210.938	85.8445	210.938	85.7053	210.938	85.8602
218.262	91.2214	218.262	90.8272	218.262	91.4203	218.262	90.2378	218.262	91.4345	218.262	89.463	218.262	91.2857	218.262	88.5229	218.262	91.0028	218.262	87.4505	218.262	90.6068	218.262	86.2949	218.262	90.0831	218.262	85.1228	218.262	89.3624	218.262	84.0174	218.262	88.3439	218.262	83.0713	218.262	86.9863	218.262	82.3783	218.262	85.4517	218.262	82.0243	218.262	84.1472	218.262	82.0645	218.262	83.376	218.262	82.476	218.262	83.0604	218.262	83.1285	218.262	83.0964	218.262	83.8271	218.262	83.4584	218.262	84.3911	218.262	83.9862	218.262	84.7033	218.262	84.456	218.262	84.7192
225.586	91.5783	225.586	91.1287	225.586	91.8167	225.586	90.4892	225.586	91.8352	225.586	89.6893	225.586	91.6405	225.586	88.7614	225.586	91.2529	225.586	87.7367	225.586	90.6937	225.586	86.6451	225.586	89.9591	225.586	85.5178	225.586	89.0013	225.586	84.3951	225.586	87.7732	225.586	83.3394	225.586	86.41	225.586	82.4531	225.586	85.4366	225.586	81.8911	225.586	85.3047	225.586	81.8187	225.586	85.6109	225.586	82.2806	225.586	85.779	225.586	83.112	225.586	85.7126	225.586	84.0366	225.586	85.5965	225.586	84.8212	225.586	85.5718	225.586	85.3404	225.586	85.6096	225.586	85.5777
232.91	92.347	232.91	91.9153	232.91	92.514	232.91	91.2426	232.91	92.4112	232.91	90.3706	232.91	92.0545	232.91	89.3564	232.91	91.4798	232.91	88.2674	232.91	90.7272	232.91	87.1709	232.91	89.7961	232.91	86.1205	232.91	88.5886	232.91	85.1482	232.91	86.9157	232.91	84.271	232.91	84.7138	232.91	83.5214	232.91	82.7801	232.91	82.9969	232.91	82.8017	232.91	82.8864	232.91	84.0951	232.91	83.3569	232.91	85.2075	232.91	84.3306	232.91	85.975	232.91	85.4906	232.91	86.6022	232.91	86.5182	232.91	87.1394	232.91	87.2249	232.91	87.4904	232.91	87.5434
241.699	91.5803	241.699	91.1546	241.699	91.766	241.699	90.4936	241.699	91.7247	241.699	89.6176	241.699	91.4885	241.699	88.5612	241.699	91.101	241.699	87.3721	241.699	90.5934	241.699	86.1097	241.699	89.9398	241.699	84.8418	241.699	89.0181	241.699	83.6401	241.699	87.6189	241.699	82.5785	241.699	85.5245	241.699	81.7463	241.699	82.7329	241.699	81.2765	241.699	80.0717	241.699	81.3301	241.699	79.1431	241.699	81.9538	241.699	79.6708	241.699	82.9448	241.699	80.6128	241.699	83.9571	241.699	81.7514	241.699	84.6945	241.699	82.9627	241.699	84.9797	241.699	84.0294	241.699	84.7461
250.488	91.6437	250.488	91.2124	250.488	91.8148	250.488	90.5274	250.488	91.7384	250.488	89.6131	250.488	91.4477	250.488	88.513	250.488	90.994	250.488	87.2896	250.488	90.4275	250.488	86.0196	250.488	89.7524	250.488	84.779	250.488	88.8791	250.488	83.6199	250.488	87.6304	250.488	82.5529	250.488	85.8455	250.488	81.5604	250.488	83.6257	250.488	80.6632	250.488	81.6849	250.488	80.0313	250.488	80.8112	250.488	79.9924	250.488	80.5811	250.488	80.6726	250.488	80.4192	250.488	81.6966	250.488	80.475	250.488	82.5452	250.488	81.0369	250.488	82.8993	250.488	81.924	250.488	82.6583
259.277	92.6113	259.277	92.0884	259.277	92.8507	259.277	91.3031	259.277	92.8025	259.277	90.291	259.277	92.4849	259.277	89.1015	259.277	91.9426	259.277	87.7966	259.277	91.2381	259.277	86.4468	259.277	90.4102	259.277	85.1192	259.277	89.4004	259.277	83.8591	259.277	88.0056	259.277	82.6752	259.277	85.9212	259.277	81.5548	259.277	82.9266	259.277	80.5406	259.277	79.7664	259.277	79.8737	259.277	79.3983	259.277	79.9874	259.277	81.198	259.277	80.9797	259.277	82.6882	259.277	82.3296	259.277	83.5601	259.277	83.482	259.277	84.0415	259.277	84.1835	259.277	84.3259	259.277	84.4213
268.066	91.8431	268.066	91.6166	268.066	91.742	268.066	91.0796	268.066	91.3271	268.066	90.2715	268.066	90.6568	268.066	89.2505	268.066	89.8478	268.066	88.0918	268.066	89.0587	268.066	86.8806	268.066	88.4052	268.066	85.6961	268.066	87.8493	268.066	84.5823	268.066	87.2071	268.066	83.5215	268.066	86.2825	268.066	82.4356	268.066	84.9618	268.066	81.2434	268.066	83.1715	268.066	80.0168	268.066	80.7426	268.066	79.2553	268.066	77.3426	268.066	79.6651	268.066	73.2124	268.066	80.9591	268.066	73.5629	268.066	82.1631	268.066	77.667	268.066	82.6764	268.066	80.6331	268.066	82.2296
276.855	91.2647	276.855	91.0105	276.855	91.2101	276.855	90.4449	276.855	90.878	276.855	89.589	276.855	90.337	276.855	88.4884	276.855	89.692	276.855	87.2177	276.855	89.0535	276.855	85.8857	276.855	88.4675	276.855	84.6239	276.855	87.8583	276.855	83.543	276.855	87.0645	276.855	82.6716	276.855	85.9652	276.855	81.9398	276.855	84.6144	276.855	81.2427	276.855	83.2811	276.855	80.5503	276.855	82.3041	276.855	80.0063	276.855	81.8001	276.855	79.8668	276.855	81.4612	276.855	80.1357	276.855	80.8088	276.855	80.4025	276.855	79.7996	276.855	80.2363	276.855	79.209	276.855	79.6097
287.109	91.1537	287.109	90.7901	287.109	91.1348	287.109	90.0701	287.109	90.7396	287.109	89.0511	287.109	90.0142	287.109	87.8213	287.109	89.0556	287.109	86.4974	287.109	88.0143	287.109	85.2117	287.109	87.0528	287.109	84.0785	287.109	86.2462	287.109	83.1461	287.109	85.5379	287.109	82.3728	287.109	84.8252	287.109	81.6579	287.109	83.9985	287.109	80.9221	287.109	82.8861	287.109	80.234	287.109	81.4699	287.109	79.9452	287.109	80.4735	287.109	80.4668	287.109	80.767	287.109	81.6059	287.109	81.6807	287.109	82.7155	287.109	82.4632	287.109	83.357	287.109	83.0598	287.109	83.427
297.363	91.2645	297.363	91.2149	297.363	90.9105	297.363	90.7377	297.363	90.2163	297.363	89.8395	297.363	89.2868	297.363	88.556	297.363	88.2505	297.363	86.9653	297.363	87.2132	297.363	85.2205	297.363	86.2036	297.363	83.5766	297.363	85.1847	297.363	82.314	297.363	84.2308	297.363	81.5153	297.363	83.7244	297.363	80.9805	297.363	83.8172	297.363	80.4532	297.363	83.8631	297.363	79.9059	297.363	83.3729	297.363	79.744	297.363	82.7312	297.363	80.4777	297.363	82.485	297.363	81.7823	297.363	82.2515	297.363	82.8279	297.363	81.7927	297.363	83.1179	297.363	81.8536	297.363	82.6081
307.617	92.1222	307.617	91.8548	307.617	92.0499	307.617	91.2377	307.617	91.6598	307.617	90.267	307.617	90.9921	307.617	88.9419	307.617	90.1131	307.617	87.2714	307.617	89.1059	307.617	85.3005	307.617	87.9986	307.617	83.1711	307.617	86.6404	307.617	81.2009	307.617	84.7014	307.617	79.8108	307.617	82.0934	307.617	79.1071	307.617	80.188	307.617	78.6765	307.617	80.4288	307.617	78.0112	307.617	80.8693	307.617	76.9831	307.617	80.6245	307.617	76.3898	307.617	80.2746	307.617	77.4309	307.617	80.1194	307.617	79.229	307.617	80.1064	307.617	80.436	307.617	80.4008	307.617	80.724
319.336	91.572	319.336	91.0588	319.336	91.7111	319.336	90.1658	319.336	91.4983	319.336	88.911	319.336	90.9644	319.336	87.3398	319.336	90.1469	319.336	85.531	319.336	89.0909	319.336	83.6223	319.336	87.8179	319.336	81.8583	319.336	86.2595	319.336	80.5859	319.336	84.3274	319.336	80.0371	319.336	82.4637	319.336	80.0639	319.336	81.8369	319.336	80.2667	319.336	82.032	319.336	80.3059	319.336	81.8906	319.336	80.0754	319.336	81.9435	319.336	79.8296	319.336	82.7949	319.336	80.1053	319.336	83.5191	319.336	81.0036	319.336	83.5578	319.336	81.9811	319.336	83.1748	319.336	82.6763
329.59	93.3651	329.59	92.6848	329.59	93.5977	329.59	91.5876	329.59	93.3613	329.59	90.1116	329.59	92.6474	329.59	88.2971	329.59	91.4735	329.59	86.1793	329.59	89.8977	329.59	83.7901	329.59	87.9935	329.59	81.1884	329.59	85.6923	329.59	78.5535	329.59	82.5606	329.59	76.3751	329.59	78.1453	329.59	75.3986	329.59	76.1323	329.59	75.633	329.59	78.5731	329.59	76.2135	329.59	79.9477	329.59	76.6749	329.59	80.7383	329.59	77.4096	329.59	82.0376	329.59	79.0081	329.59	83.288	329.59	81.0576	329.59	83.9687	329.59	82.7509	329.59	84.1193	329.59	83.7574
341.309	92.8834	341.309	92.1953	341.309	93.105	341.309	91.0958	341.309	92.8263	341.309	89.6642	341.309	92.0306	341.309	87.9997	341.309	90.7263	341.309	86.2008	341.309	88.9689	341.309	84.342	341.309	86.8742	341.309	82.4708	341.309	84.5257	341.309	80.6466	341.309	81.7324	341.309	79.0536	341.309	77.9585	341.309	78.1699	341.309	73.1324	341.309	78.444	341.309	70.3583	341.309	79.4625	341.309	70.2195	341.309	80.4104	341.309	71.3302	341.309	80.8682	341.309	74.6467	341.309	80.8292	341.309	77.5505	341.309	80.5687	341.309	79.2975	341.309	80.4234	341.309	80.1442	341.309	80.398
353.027	93.4797	353.027	92.9713	353.027	93.4225	353.027	91.9606	353.027	92.7499	353.027	90.5322	353.027	91.423	353.027	88.8005	353.027	89.4274	353.027	86.9078	353.027	86.8182	353.027	85.0021	353.027	83.8137	353.027	83.1916	353.027	80.8179	353.027	81.5051	353.027	78.036	353.027	79.9087	353.027	75.1722	353.027	78.4693	353.027	71.9231	353.027	77.7221	353.027	66.9142	353.027	78.4723	353.027	53.7531	353.027	80.3693	353.027	71.0435	353.027	82.3822	353.027	77.0688	353.027	83.9911	353.027	80.4677	353.027	85.0403	353.027	82.7422	353.027	85.4691	353.027	84.3179	353.027	85.2341
366.211	92.3107	366.211	92.1244	366.211	91.8994	366.211	91.4124	366.211	90.8366	366.211	90.2731	366.211	89.084	366.211	88.8375	366.211	86.637	366.211	87.2636	366.211	83.5989	366.211	85.7116	366.211	80.3367	366.211	84.3022	366.211	77.4176	366.211	83.0756	366.211	74.7618	366.211	81.9783	366.211	71.5377	366.211	80.8959	366.211	69.1233	366.211	79.7345	366.211	70.7828	366.211	78.5712	366.211	72.2561	366.211	77.8859	366.211	71.6252	366.211	78.323	366.211	68.965	366.211	79.5938	366.211	69.4152	366.211	80.7544	366.211	74.7668	366.211	81.1825	366.211	78.5442	366.211	80.5459
379.395	92.4907	379.395	92.3062	379.395	92.0487	379.395	91.549	379.395	90.9498	379.395	90.3041	379.395	89.1975	379.395	88.7059	379.395	86.867	379.395	86.9567	379.395	84.1619	379.395	85.3144	379.395	81.4143	379.395	84.0118	379.395	78.8546	379.395	83.1252	379.395	76.1821	379.395	82.5132	379.395	72.8239	379.395	81.8956	379.395	71.299	379.395	80.9982	379.395	74.1731	379.395	79.7792	379.395	76.4716	379.395	78.9756	379.395	77.0165	379.395	79.9166	379.395	75.3026	379.395	81.9259	379.395	70.1577	379.395	83.4675	379.395	73.714	379.395	83.8988	379.395	79.9078	379.395	82.891
392.578	92.5493	392.578	92.3856	392.578	92.0145	392.578	91.5669	392.578	90.7698	392.578	90.1755	392.578	88.8621	392.578	88.3615	392.578	86.4581	392.578	86.3765	392.578	83.8642	392.578	84.5679	392.578	81.3238	392.578	83.2669	392.578	78.7172	392.578	82.6045	392.578	75.5928	392.578	82.4525	392.578	71.3769	392.578	82.532	392.578	66.1851	392.578	82.5299	392.578	65.7942	392.578	82.1695	392.578	71.1636	392.578	81.3382	392.578	74.6893	392.578	80.4576	392.578	75.2605	392.578	80.6746	392.578	73.7614	392.578	81.9976	392.578	76.3058	392.578	82.9761	392.578	80.5212	392.578	82.6617
405.762	92.5495	405.762	92.4431	405.762	92.0461	405.762	91.727	405.762	90.9732	405.762	90.4407	405.762	89.4141	405.762	88.6742	405.762	87.4628	405.762	86.5869	405.762	85.1303	405.762	84.4207	405.762	82.2843	405.762	82.4927	405.762	78.8566	405.762	81.1378	405.762	75.7014	405.762	80.5558	405.762	74.7173	405.762	80.6706	405.762	74.5588	405.762	81.2042	405.762	72.6086	405.762	81.8331	405.762	69.3911	405.762	82.2757	405.762	71.9468	405.762	82.3581	405.762	73.7063	405.762	82.0526	405.762	70.9121	405.762	81.4213	405.762	65.0443	405.762	80.3741	405.762	73.9313	405.762	78.3433
420.41	93.4918	420.41	93.2493	420.41	93.1484	420.41	92.4595	420.41	92.1882	420.41	91.1752	420.41	90.5923	420.41	89.4837	420.41	88.3561	420.41	87.5476	420.41	85.4498	420.41	85.6611	420.41	81.6664	420.41	84.2431	420.41	76.3017	420.41	83.5492	420.41	68.7678	420.41	83.3084	420.41	70.9155	420.41	82.9565	420.41	74.6509	420.41	82.0972	420.41	76.2452	420.41	80.848	420.41	77.5674	420.41	80.4488	420.41	79.334	420.41	81.961	420.41	80.6399	420.41	83.931	420.41	81.0188	420.41	85.1245	420.41	81.2754	420.41	85.2323	420.41	82.5705	420.41	84.2595
435.059	92.1092	435.059	92.1162	435.059	91.5644	435.059	91.6307	435.059	90.444	435.059	90.6996	435.059	88.7379	435.059	89.3698	435.059	86.5039	435.059	87.6904	435.059	83.8944	435.059	85.7406	435.059	81.0597	435.059	83.7462	435.059	77.9657	435.059	82.2939	435.059	74.7242	435.059	81.9993	435.059	72.765	435.059	82.4485	435.059	72.8486	435.059	82.7053	435.059	73.1323	435.059	82.2842	435.059	73.2266	435.059	81.2702	435.059	73.7992	435.059	80.478	435.059	75.0795	435.059	80.8092	435.059	76.945	435.059	81.6633	435.059	78.9754	435.059	82.0734	435.059	80.6609	435.059	81.7322
451.172	91.7334	451.172	92.5103	451.172	90.1817	451.172	92.616	451.172	87.7714	451.172	92.1468	451.172	84.5399	451.172	91.1836	451.172	80.9258	451.172	89.7872	451.172	77.8997	451.172	87.9919	451.172	75.8388	451.172	85.8017	451.172	74.3839	451.172	83.2406	451.172	73.959	451.172	80.6249	451.172	74.6432	451.172	78.9924	451.172	75.2814	451.172	78.9823	451.172	74.8112	451.172	79.712	451.172	72.397	451.172	80.7252	451.172	67.5191	451.172	82.0564	451.172	68.9166	451.172	83.3111	451.172	74.3484	451.172	83.9482	451.172	77.9605	451.172	83.6992	451.172	80.5979	451.172	82.5429
465.82	91.1337	465.82	91.9697	465.82	89.5256	465.82	92.1206	465.82	87.1921	465.82	91.7296	465.82	84.5113	465.82	90.9676	465.82	82.2458	465.82	90.0011	465.82	80.6862	465.82	88.9467	465.82	79.2972	465.82	87.8309	465.82	77.6962	465.82	86.5879	465.82	75.5597	465.82	85.1154	465.82	72.4566	465.82	83.3771	465.82	72.8583	465.82	81.4895	465.82	77.2585	465.82	79.6717	465.82	79.6334	465.82	78.0772	465.82	79.7161	465.82	76.9203	465.82	77.9788	465.82	76.6411	465.82	75.811	465.82	77.1403	465.82	75.7384	465.82	77.6574	465.82	76.9274	465.82	77.6525
483.398	91.9019	483.398	92.6705	483.398	90.6075	483.398	92.8552	483.398	89.019	483.398	92.4782	483.398	87.6193	483.398	91.618	483.398	86.8385	483.398	90.43	483.398	86.5213	483.398	89.1877	483.398	86.166	483.398	88.2575	483.398	85.3695	483.398	87.8551	483.398	83.7993	483.398	87.7531	483.398	81.1243	483.398	87.4228	483.398	78.1491	483.398	86.348	483.398	79.3401	483.398	84.0948	483.398	82.2838	483.398	80.5144	483.398	83.6951	483.398	78.327	483.398	83.3184	483.398	80.5208	483.398	81.0088	483.398	82.2427	483.398	76.4896	483.398	82.0482	483.398	75.2338	483.398	79.6745
499.512	90.7768	499.512	91.6383	499.512	89.3584	499.512	91.8848	499.512	87.6484	499.512	91.5417	499.512	86.289	499.512	90.6671	499.512	85.9609	499.512	89.3414	499.512	86.4181	499.512	87.7078	499.512	86.8101	499.512	86.1135	499.512	86.505	499.512	85.2132	499.512	85.0571	499.512	85.3499	499.512	82.0111	499.512	85.9046	499.512	78.0724	499.512	86.1292	499.512	79.2857	499.512	85.718	499.512	82.283	499.512	84.7082	499.512	83.2499	499.512	83.3302	499.512	81.7801	499.512	81.7426	499.512	77.4732	499.512	79.9901	499.512	75.5484	499.512	78.9949	499.512	78.6057	499.512	79.3151
517.09	90.7189	517.09	91.7337	517.09	89.0744	517.09	91.9843	517.09	87.2555	517.09	91.4879	517.09	86.1173	517.09	90.3499	517.09	86.2257	517.09	88.7497	517.09	87.0971	517.09	86.9161	517.09	87.8367	517.09	85.1008	517.09	87.8035	517.09	83.667	517.09	86.6069	517.09	83.1783	517.09	84.0186	517.09	83.6742	517.09	80.1071	517.09	84.2178	517.09	75.9164	517.09	83.939	517.09	76.285	517.09	82.6335	517.09	78.5179	517.09	81.3925	517.09	77.4335	517.09	81.876	517.09	71.1462	517.09	82.4701	517.09	58.0735	517.09	81.2214	517.09	70.0714	517.09	77.2276
536.133	89.7189	536.133	91.3362	536.133	87.4781	536.133	92.0713	536.133	85.5482	536.133	91.967	536.133	85.145	536.133	91.1658	536.133	86.145	536.133	89.851	536.133	87.3677	536.133	88.2065	536.133	87.9059	536.133	86.3398	536.133	87.4297	536.133	84.2764	536.133	86.2689	536.133	82.4376	536.133	85.7058	536.133	82.2888	536.133	85.8176	536.133	83.6703	536.133	84.4699	536.133	84.5719	536.133	80.0548	536.133	84.2097	536.133	72.5923	536.133	82.9666	536.133	66.0219	536.133	82.0974	536.133	60.8085	536.133	81.3541	536.133	71.4078	536.133	78.3868	536.133	69.5798	536.133	69.8018
555.176	87.9305	555.176	89.2878	555.176	86.3743	555.176	89.9551	555.176	85.4911	555.176	89.9012	555.176	85.7508	555.176	89.2921	555.176	86.9568	555.176	88.3281	555.176	88.2911	555.176	87.1446	555.176	88.8681	555.176	85.7308	555.176	88.1446	555.176	83.9225	555.176	85.7654	555.176	81.6543	555.176	82.9994	555.176	79.825	555.176	84.3071	555.176	79.9054	555.176	85.5624	555.176	80.5264	555.176	84.382	555.176	80.2189	555.176	81.7399	555.176	79.6128	555.176	78.0957	555.176	80.1555	555.176	72.1098	555.176	80.6719	555.176	71.2844	555.176	79.2892	555.176	72.0549	555.176	75.306
574.219	89.2925	574.219	90.1943	574.219	87.5868	574.219	89.9989	574.219	86.0092	574.219	88.7224	574.219	86.223	574.219	86.652	574.219	88.2089	574.219	84.4762	574.219	89.9702	574.219	83.1534	574.219	90.4241	574.219	82.9188	574.219	89.2685	574.219	82.8651	574.219	86.0398	574.219	81.8919	574.219	80.7508	574.219	79.4354	574.219	82.4779	574.219	77.4419	574.219	84.6419	574.219	78.781	574.219	84.7861	574.219	79.1288	574.219	84.9544	574.219	76.1604	574.219	83.4104	574.219	71.3382	574.219	79.3057	574.219	72.6125	574.219	77.638	574.219	68.0225	574.219	76.731	574.219	68.6159
594.727	88.0917	594.727	89.51	594.727	85.9319	594.727	89.8369	594.727	84.1413	594.727	89.1035	594.727	84.6696	594.727	87.5453	594.727	87.3418	594.727	85.468	594.727	89.7077	594.727	82.941	594.727	90.7337	594.727	79.8519	594.727	90.2833	594.727	78.372	594.727	88.0599	594.727	80.3066	594.727	83.0628	594.727	81.4503	594.727	80.4983	594.727	80.5689	594.727	83.5718	594.727	78.9274	594.727	83.498	594.727	79.419	594.727	82.7672	594.727	79.9805	594.727	81.1731	594.727	77.6115	594.727	76.0166	594.727	71.2367	594.727	67.75	594.727	72.0104	594.727	63.9765	594.727	71.7086
615.234	88.835	615.234	89.5431	615.234	87.6981	615.234	89.3384	615.234	86.6082	615.234	88.2221	615.234	85.8434	615.234	86.6938	615.234	86.4756	615.234	85.432	615.234	88.1462	615.234	84.5487	615.234	89.2409	615.234	83.33	615.234	89.4203	615.234	80.7011	615.234	88.7403	615.234	75.6088	615.234	86.5099	615.234	74.0483	615.234	80.1662	615.234	77.8222	615.234	72.5584	615.234	79.0507	615.234	80.0585	615.234	79.4218	615.234	79.711	615.234	80.4925	615.234	76.3712	615.234	81.1345	615.234	65.0199	615.234	80.4328	615.234	68.2949	615.234	78.0274	615.234	70.2916	615.234	72.7535
637.207	88.2236	637.207	88.6848	637.207	87.3051	637.207	88.3125	637.207	86.4176	637.207	87.1475	637.207	86.4425	637.207	85.6613	637.207	88.0866	637.207	84.3913	637.207	89.7905	637.207	83.4654	637.207	90.3426	637.207	82.6501	637.207	89.6356	637.207	81.616	637.207	87.9209	637.207	80.0867	637.207	85.6169	637.207	77.7446	637.207	83.022	637.207	74.0541	637.207	80.2248	637.207	71.7497	637.207	78.2566	637.207	74.8811	637.207	76.6104	637.207	76.1596	637.207	73.2954	637.207	74.7797	637.207	68.9531	637.207	73.6422	637.207	74.0083	637.207	71.3486	637.207	72.7385	637.207	44.9441
659.18	87.575	659.18	87.8657	659.18	86.9884	659.18	87.5891	659.18	86.5842	659.18	86.8321	659.18	87.191	659.18	85.8741	659.18	88.7943	659.18	84.7897	659.18	89.9475	659.18	83.6077	659.18	89.8505	659.18	82.6285	659.18	88.5591	659.18	81.9032	659.18	86.812	659.18	80.8509	659.18	85.3311	659.18	78.9809	659.18	83.0177	659.18	76.465	659.18	80.4993	659.18	74.1396	659.18	81.9972	659.18	72.8835	659.18	82.0872	659.18	71.71	659.18	80.174	659.18	67.4904	659.18	77.5449	659.18	56.6573	659.18	75.4288	659.18	66.0748	659.18	73.8519	659.18	71.0785
682.617	88.5022	682.617	87.9693	682.617	88.1168	682.617	87.0547	682.617	86.8123	682.617	86.2837	682.617	86.1416	682.617	85.6882	682.617	88.0689	682.617	84.78	682.617	90.0394	682.617	83.2159	682.617	90.119	682.617	81.4416	682.617	88.099	682.617	80.5343	682.617	84.8639	682.617	80.7415	682.617	84.3414	682.617	81.4103	682.617	85.4852	682.617	81.4267	682.617	83.8015	682.617	79.3927	682.617	81.245	682.617	75.2325	682.617	82.5766	682.617	77.0516	682.617	80.7659	682.617	78.4837	682.617	72.4031	682.617	75.4863	682.617	76.0061	682.617	73.2899	682.617	76.5883	682.617	74.1686
707.52	87.5161	707.52	87.6363	707.52	87.2493	707.52	87.3074	707.52	87.2731	707.52	86.6779	707.52	87.9468	707.52	85.8579	707.52	89.0291	707.52	84.6626	707.52	89.4001	707.52	82.802	707.52	88.6175	707.52	80.0657	707.52	87.0641	707.52	76.3657	707.52	84.9352	707.52	72.0897	707.52	80.7287	707.52	71.7	707.52	76.7119	707.52	76.0957	707.52	81.7295	707.52	78.6784	707.52	79.0696	707.52	78.152	707.52	79.2562	707.52	75.3522	707.52	82.6452	707.52	76.2411	707.52	78.2352	707.52	76.8493	707.52	65.573	707.52	74.0365	707.52	59.2309	707.52	69.4784
732.422	88.4227	732.422	88.1934	732.422	88.2928	732.422	87.8455	732.422	87.9363	732.422	87.2572	732.422	88.3424	732.422	86.0068	732.422	89.7349	732.422	84.0491	732.422	90.5978	732.422	82.0339	732.422	90.1282	732.422	80.7486	732.422	88.3405	732.422	80.1791	732.422	85.2856	732.422	79.4926	732.422	80.9867	732.422	77.2918	732.422	76.799	732.422	72.0745	732.422	77.4818	732.422	70.233	732.422	78.7567	732.422	73.31	732.422	76.2633	732.422	75.1397	732.422	70.8185	732.422	76.8286	732.422	67.9818	732.422	75.3208	732.422	68.8578	732.422	68.9488	732.422	69.4337	732.422	61.8403
757.324	87.4604	757.324	87.1546	757.324	87.8358	757.324	86.6181	757.324	87.9405	757.324	85.9012	757.324	87.7807	757.324	85.1336	757.324	88.261	757.324	84.0345	757.324	88.8397	757.324	82.1448	757.324	88.7817	757.324	79.2533	757.324	87.8724	757.324	76.3578	757.324	86.3343	757.324	74.8315	757.324	84.6061	757.324	74.113	757.324	80.8684	757.324	75.0808	757.324	77.1593	757.324	77.1632	757.324	80.237	757.324	76.6864	757.324	78.2629	757.324	70.5011	757.324	76.879	757.324	72.2578	757.324	74.9904	757.324	70.7751	757.324	80.2355	757.324	69.416	757.324	77.9356	757.324	69.7149
785.156	87.9363	785.156	87.6292	785.156	88.255	785.156	87.4288	785.156	88.2364	785.156	87.1186	785.156	88.2331	785.156	86.3164	785.156	88.7293	785.156	84.8339	785.156	88.8891	785.156	82.9534	785.156	88.1936	785.156	81.2388	785.156	86.4983	785.156	79.4084	785.156	83.8698	785.156	76.4778	785.156	79.8048	785.156	72.3353	785.156	77.7605	785.156	71.0546	785.156	79.3888	785.156	76.7598	785.156	77.0843	785.156	80.1634	785.156	75.8931	785.156	79.4217	785.156	79.3997	785.156	78.4378	785.156	79.1986	785.156	77.8205	785.156	77.8355	785.156	72.4773	785.156	75.2706	785.156	70.5131
811.523	88.0129	811.523	87.0306	811.523	88.8685	811.523	87.1489	811.523	88.8007	811.523	87.6098	811.523	88.7722	811.523	87.1435	811.523	89.378	811.523	84.9593	811.523	89.7979	811.523	81.3635	811.523	89.0173	811.523	78.096	811.523	86.6842	811.523	75.1636	811.523	83.8613	811.523	68.7588	811.523	82.8523	811.523	63.6728	811.523	81.3541	811.523	70.7671	811.523	76.4746	811.523	71.4452	811.523	73.5696	811.523	71.1456	811.523	65.7336	811.523	74.8351	811.523	63.8358	811.523	75.3504	811.523	71.6097	811.523	76.0711	811.523	76.0026	811.523	73.9837	811.523	73.2626	811.523	69.1309
840.82	88.0602	840.82	88.0738	840.82	88.6477	840.82	88.0815	840.82	89.116	840.82	87.3556	840.82	88.5262	840.82	85.3786	840.82	87.7984	840.82	82.5713	840.82	87.5944	840.82	80.8154	840.82	87.5832	840.82	81.0029	840.82	86.6258	840.82	81.8194	840.82	84.508	840.82	81.7901	840.82	82.9524	840.82	78.73	840.82	81.6934	840.82	71.2888	840.82	77.3888	840.82	74.5044	840.82	78.0077	840.82	76.4009	840.82	82.9025	840.82	75.0546	840.82	77.4605	840.82	74.0045	840.82	75.7112	840.82	72.9447	840.82	67.8526	840.82	71.093	840.82	74.8913	840.82	75.4633
870.117	88.1607	870.117	87.0511	870.117	89.6361	870.117	86.8381	870.117	90.628	870.117	87.0173	870.117	90.4895	870.117	86.2912	870.117	89.5865	870.117	84.5029	870.117	88.8174	870.117	82.4064	870.117	87.4371	870.117	80.3372	870.117	83.9267	870.117	78.0957	870.117	77.7905	870.117	75.3231	870.117	76.3451	870.117	74.4854	870.117	76.3315	870.117	77.2388	870.117	72.9269	870.117	77.658	870.117	75.405	870.117	78.2266	870.117	75.3396	870.117	79.0326	870.117	80.7113	870.117	72.6324	870.117	78.1523	870.117	75.9507	870.117	79.4559	870.117	75.5256	870.117	74.9336	870.117	62.9547
900.879	88.6583	900.879	88.3625	900.879	88.8921	900.879	87.468	900.879	89.3184	900.879	86.3351	900.879	89.2456	900.879	85.2394	900.879	87.8677	900.879	83.8701	900.879	85.6553	900.879	82.3972	900.879	84.0771	900.879	80.8772	900.879	82.202	900.879	79.1486	900.879	77.8836	900.879	76.0348	900.879	74.6382	900.879	70.785	900.879	75.7091	900.879	71.6962	900.879	74.3147	900.879	74.3808	900.879	78.4801	900.879	78.095	900.879	78.667	900.879	81.1715	900.879	74.8028	900.879	78.6157	900.879	68.0041	900.879	75.4181	900.879	75.0191	900.879	72.6584	900.879	72.2879	900.879	50.2505
933.105	89.5609	933.105	88.7232	933.105	90.5102	933.105	87.5551	933.105	90.4489	933.105	85.5235	933.105	88.717	933.105	83.5858	933.105	86.9334	933.105	82.5243	933.105	86.805	933.105	81.6141	933.105	85.9554	933.105	79.9798	933.105	81.381	933.105	77.6358	933.105	69.0869	933.105	75.8361	933.105	72.9256	933.105	72.4754	933.105	78.367	933.105	69.3103	933.105	79.7972	933.105	73.5376	933.105	73.1525	933.105	70.6098	933.105	81.2245	933.105	73.6585	933.105	79.6379	933.105	73.5731	933.105	75.2131	933.105	69.3327	933.105	73.0509	933.105	65.6437	933.105	72.5823	933.105	70.1751
965.332	89.43	965.332	87.6579	965.332	90.7495	965.332	86.7445	965.332	90.9503	965.332	86.3264	965.332	90.1128	965.332	85.3077	965.332	88.0836	965.332	83.5818	965.332	85.2123	965.332	81.2638	965.332	82.8768	965.332	78.6687	965.332	81.962	965.332	76.8967	965.332	81.9984	965.332	74.9094	965.332	77.7408	965.332	70.8634	965.332	70.663	965.332	67.4558	965.332	76.7218	965.332	71.0596	965.332	75.1565	965.332	73.7279	965.332	58.2337	965.332	77.7548	965.332	67.0231	965.332	75.5575	965.332	71.0711	965.332	72.5637	965.332	72.7288	965.332	71.8551	965.332	62.3656	965.332	64.8079
1,000.49	88.7059	1,000.49	88.3564	1,000.49	89.2256	1,000.49	86.7499	1,000.49	89.9335	1,000.49	84.4063	1,000.49	88.9657	1,000.49	83.5225	1,000.49	86.3425	1,000.49	83.6541	1,000.49	84.1471	1,000.49	82.7137	1,000.49	82.9136	1,000.49	80.7814	1,000.49	81.7693	1,000.49	79.5465	1,000.49	80.8446	1,000.49	78.6481	1,000.49	79.7999	1,000.49	76.4291	1,000.49	76.4313	1,000.49	72.1699	1,000.49	71.9792	1,000.49	73.9748	1,000.49	72.9273	1,000.49	75.4776	1,000.49	79.0402	1,000.49	74.2728	1,000.49	74.2284	1,000.49	73.0874	1,000.49	48.5665	1,000.49	67.5246	1,000.49	70.8974	1,000.49	64.2619	1,000.49	70.49	1,000.49	62.5218
1,035.64	88.5228	1,035.64	86.8918	1,035.64	89.8401	1,035.64	86.2587	1,035.64	89.5423	1,035.64	85.7895	1,035.64	87.0127	1,035.64	84.248	1,035.64	83.2931	1,035.64	82.8112	1,035.64	81.4935	1,035.64	82.2667	1,035.64	82.4565	1,035.64	80.5562	1,035.64	82.1427	1,035.64	75.4149	1,035.64	76.5646	1,035.64	69.9084	1,035.64	77.0808	1,035.64	73.6881	1,035.64	76.9765	1,035.64	75.491	1,035.64	76.4559	1,035.64	74.9177	1,035.64	61.3302	1,035.64	71.5834	1,035.64	78.6899	1,035.64	74.67	1,035.64	75.4311	1,035.64	76.0349	1,035.64	72.1207	1,035.64	69.34	1,035.64	73.3451	1,035.64	63.881	1,035.64	74.9015	1,035.64	65.6843
1,072.27	88.3953	1,072.27	86.6423	1,072.27	89.393	1,072.27	85.8362	1,072.27	89.3484	1,072.27	86.2066	1,072.27	88.4119	1,072.27	86.0044	1,072.27	86.376	1,072.27	83.5731	1,072.27	84.4279	1,072.27	78.7441	1,072.27	83.5177	1,072.27	74.659	1,072.27	83.2428	1,072.27	73.5903	1,072.27	82.3316	1,072.27	73.6763	1,072.27	78.1389	1,072.27	73.4075	1,072.27	77.4904	1,072.27	64.8467	1,072.27	75.7579	1,072.27	72.8387	1,072.27	74.4996	1,072.27	77.6163	1,072.27	67.2275	1,072.27	74.759	1,072.27	66.4442	1,072.27	72.7939	1,072.27	68.8596	1,072.27	72.5368	1,072.27	71.7871	1,072.27	72.0293	1,072.27	72.1703	1,072.27	67.3231
1,108.89	88.7358	1,108.89	88.3946	1,108.89	89.222	1,108.89	86.5404	1,108.89	90.1318	1,108.89	84.7243	1,108.89	88.9753	1,108.89	84.3493	1,108.89	85.6985	1,108.89	83.369	1,108.89	83.6254	1,108.89	81.3844	1,108.89	82.7133	1,108.89	79.3792	1,108.89	83.1097	1,108.89	76.1891	1,108.89	81.3384	1,108.89	66.2281	1,108.89	77.0532	1,108.89	53.9332	1,108.89	69.3138	1,108.89	64.8994	1,108.89	78.8341	1,108.89	68.7197	1,108.89	70.4529	1,108.89	75.35	1,108.89	75.6232	1,108.89	75.5343	1,108.89	65.5514	1,108.89	72.0363	1,108.89	73.2368	1,108.89	69.2052	1,108.89	72.6959	1,108.89	66.2653	1,108.89	69.2552	1,108.89	58.0175
1,148.44	88.9041	1,148.44	87.5614	1,148.44	89.7129	1,148.44	87.8046	1,148.44	87.8689	1,148.44	87.659	1,148.44	86.0831	1,148.44	85.4507	1,148.44	86.9522	1,148.44	82.5065	1,148.44	85.5575	1,148.44	80.5684	1,148.44	84.0903	1,148.44	78.7514	1,148.44	83.8778	1,148.44	76.7169	1,148.44	82.8095	1,148.44	76.5049	1,148.44	79.972	1,148.44	78.3082	1,148.44	75.1371	1,148.44	79.5202	1,148.44	69.2729	1,148.44	73.3601	1,148.44	67.5083	1,148.44	55.0053	1,148.44	69.8676	1,148.44	65.2307	1,148.44	67.8486	1,148.44	69.6277	1,148.44	74.2126	1,148.44	74.0896	1,148.44	78.1548	1,148.44	72.1771	1,148.44	71.7575	1,148.44	59.5605
1,189.45	89.2722	1,189.45	87.7451	1,189.45	89.1736	1,189.45	86.1583	1,189.45	87.1057	1,189.45	85.2344	1,189.45	84.6693	1,189.45	83.5089	1,189.45	83.0568	1,189.45	79.6333	1,189.45	83.6669	1,189.45	77.2149	1,189.45	85.6238	1,189.45	77.8316	1,189.45	84.8631	1,189.45	76.6738	1,189.45	80.5454	1,189.45	73.3284	1,189.45	76.3183	1,189.45	71.2761	1,189.45	75.1946	1,189.45	74.6394	1,189.45	75.4244	1,189.45	72.1999	1,189.45	72.9548	1,189.45	71.1571	1,189.45	77.1263	1,189.45	74.8828	1,189.45	74.1779	1,189.45	75.6486	1,189.45	74.1078	1,189.45	71.5396	1,189.45	57.4991	1,189.45	40.6499	1,189.45	68.6165	1,189.45	60.9953
1,230.47	89.27	1,230.47	88.0615	1,230.47	89.3909	1,230.47	86.3199	1,230.47	86.04	1,230.47	83.3725	1,230.47	82.4845	1,230.47	80.9116	1,230.47	85.3377	1,230.47	80.862	1,230.47	86.5204	1,230.47	81.5414	1,230.47	85.6194	1,230.47	80.4399	1,230.47	83.0705	1,230.47	77.9076	1,230.47	79.4169	1,230.47	76.3455	1,230.47	76.961	1,230.47	71.961	1,230.47	72.3297	1,230.47	72.395	1,230.47	65.8451	1,230.47	72.5648	1,230.47	63.9538	1,230.47	66.9096	1,230.47	71.1375	1,230.47	69.9067	1,230.47	72.5695	1,230.47	68.8499	1,230.47	70.4561	1,230.47	58.6615	1,230.47	72.3154	1,230.47	61.376	1,230.47	65.9005	1,230.47	65.4302
1,274.41	89.1431	1,274.41	88.2588	1,274.41	90.109	1,274.41	87.0695	1,274.41	87.5154	1,274.41	82.7976	1,274.41	83.1815	1,274.41	79.5343	1,274.41	83.0149	1,274.41	81.5603	1,274.41	84.6048	1,274.41	82.3477	1,274.41	84.8595	1,274.41	79.1932	1,274.41	81.8629	1,274.41	75.1102	1,274.41	75.7959	1,274.41	71.0289	1,274.41	70.3995	1,274.41	69.3572	1,274.41	76.2322	1,274.41	69.523	1,274.41	65.7361	1,274.41	67.3931	1,274.41	73.3154	1,274.41	71.8005	1,274.41	72.9144	1,274.41	73.4731	1,274.41	73.7344	1,274.41	74.2371	1,274.41	68.6991	1,274.41	69.775	1,274.41	72.5691	1,274.41	65.0307	1,274.41	68.6284	1,274.41	68.717
1,319.82	89.2566	1,319.82	88.8333	1,319.82	90.0824	1,319.82	87.0124	1,319.82	89.0933	1,319.82	82.7233	1,319.82	86.2111	1,319.82	80.5074	1,319.82	85.5801	1,319.82	81.6393	1,319.82	86.1447	1,319.82	77.8049	1,319.82	83.619	1,319.82	66.9163	1,319.82	79.9344	1,319.82	66.2474	1,319.82	79.1074	1,319.82	55.849	1,319.82	75.0329	1,319.82	63.1637	1,319.82	73.2251	1,319.82	68.0551	1,319.82	72.3068	1,319.82	64.8668	1,319.82	67.4262	1,319.82	66.1019	1,319.82	61.4091	1,319.82	72.0697	1,319.82	72.4257	1,319.82	65.7302	1,319.82	63.9648	1,319.82	64.7014	1,319.82	71.8109	1,319.82	62.8257	1,319.82	63.0319	1,319.82	55.3413
1,366.7	90.0949	1,366.7	89.3515	1,366.7	90.3633	1,366.7	87.3083	1,366.7	89.273	1,366.7	83.2206	1,366.7	85.9533	1,366.7	80.6931	1,366.7	83.0676	1,366.7	80.6244	1,366.7	83.1353	1,366.7	76.8664	1,366.7	82.2466	1,366.7	73.0168	1,366.7	80.2429	1,366.7	71.9378	1,366.7	78.7861	1,366.7	72.9837	1,366.7	74.0388	1,366.7	69.6646	1,366.7	62.8644	1,366.7	62.4045	1,366.7	69.4544	1,366.7	63.2955	1,366.7	71.9872	1,366.7	62.7681	1,366.7	71.9603	1,366.7	71.0929	1,366.7	73.1662	1,366.7	60.8347	1,366.7	73.4119	1,366.7	43.8575	1,366.7	69.2715	1,366.7	53.5478	1,366.7	62.2561	1,366.7	60.236
1,413.57	89.2681	1,413.57	89.4586	1,413.57	89.3671	1,413.57	86.8827	1,413.57	89.4811	1,413.57	82.883	1,413.57	87.5283	1,413.57	79.4534	1,413.57	85.0316	1,413.57	78.8167	1,413.57	83.2372	1,413.57	68.9973	1,413.57	82.3132	1,413.57	71.3483	1,413.57	81.8364	1,413.57	61.7903	1,413.57	79.5086	1,413.57	73.1591	1,413.57	73.8114	1,413.57	72.9989	1,413.57	76.5042	1,413.57	73.7499	1,413.57	69.6519	1,413.57	67.3992	1,413.57	66.2801	1,413.57	67.8249	1,413.57	62.8244	1,413.57	66.3996	1,413.57	62.9895	1,413.57	72.0404	1,413.57	65.8594	1,413.57	60.1343	1,413.57	61.5876	1,413.57	73.2907	1,413.57	68.4456	1,413.57	71.9421
1,463.38	89.5206	1,463.38	88.7581	1,463.38	88.5559	1,463.38	85.904	1,463.38	88.0756	1,463.38	83.9791	1,463.38	86.0919	1,463.38	79.8167	1,463.38	84.376	1,463.38	72.8252	1,463.38	80.5697	1,463.38	66.0605	1,463.38	83.9266	1,463.38	56.3609	1,463.38	81.9753	1,463.38	59.2883	1,463.38	77.1412	1,463.38	69.1854	1,463.38	76.5174	1,463.38	72.2864	1,463.38	67.8952	1,463.38	58.2853	1,463.38	69.8294	1,463.38	68.0871	1,463.38	70.5841	1,463.38	66.3558	1,463.38	68.3925	1,463.38	61.053	1,463.38	63.1678	1,463.38	68.2552	1,463.38	71.6514	1,463.38	72.548	1,463.38	66.303	1,463.38	68.5177	1,463.38	70.7817	1,463.38	62.835
1,516.11	89.3564	1,516.11	87.8244	1,516.11	88.8635	1,516.11	86.6322	1,516.11	87.651	1,516.11	84.9364	1,516.11	85.2165	1,516.11	76.1799	1,516.11	81.9876	1,516.11	70.8745	1,516.11	80.0497	1,516.11	73.6215	1,516.11	82.2641	1,516.11	67.0301	1,516.11	82.4142	1,516.11	70.7982	1,516.11	77.2182	1,516.11	74.211	1,516.11	72.6765	1,516.11	72.9023	1,516.11	67.4912	1,516.11	74.958	1,516.11	75.8173	1,516.11	70.4712	1,516.11	67.002	1,516.11	62.0961	1,516.11	75.9514	1,516.11	64.0598	1,516.11	67.9299	1,516.11	64.4039	1,516.11	67.1278	1,516.11	62.3715	1,516.11	61.4671	1,516.11	65.9557	1,516.11	73.8464	1,516.11	72.6476
1,568.85	88.429	1,568.85	87.8799	1,568.85	87.1933	1,568.85	86.7507	1,568.85	85.429	1,568.85	83.9099	1,568.85	83.5718	1,568.85	78.6155	1,568.85	82.1608	1,568.85	76.6947	1,568.85	81.6644	1,568.85	74.3188	1,568.85	82.7122	1,568.85	75.1498	1,568.85	83.8848	1,568.85	74.155	1,568.85	80.6085	1,568.85	71.2866	1,568.85	71.4392	1,568.85	68.5765	1,568.85	70.5794	1,568.85	63.2427	1,568.85	71.0361	1,568.85	65.8462	1,568.85	63.6115	1,568.85	67.357	1,568.85	53.2034	1,568.85	69.656	1,568.85	60.9516	1,568.85	70.0094	1,568.85	68.6421	1,568.85	70.2626	1,568.85	71.2542	1,568.85	68.9492	1,568.85	65.5893	1,568.85	67.7311
1,624.51	88.363	1,624.51	87.2959	1,624.51	87.4195	1,624.51	85.6343	1,624.51	84.0248	1,624.51	83.241	1,624.51	80.0194	1,624.51	79.866	1,624.51	81.8074	1,624.51	77.2655	1,624.51	82.1372	1,624.51	75.6168	1,624.51	81.9135	1,624.51	72.4961	1,624.51	82.1887	1,624.51	63.5701	1,624.51	77.5694	1,624.51	61.3939	1,624.51	74.2889	1,624.51	66.322	1,624.51	60.5394	1,624.51	64.8729	1,624.51	67.4902	1,624.51	63.6679	1,624.51	69.919	1,624.51	60.2603	1,624.51	63.5957	1,624.51	65.5709	1,624.51	69.0658	1,624.51	70.9024	1,624.51	61.8938	1,624.51	66.1878	1,624.51	68.3243	1,624.51	63.9161	1,624.51	61.5382	1,624.51	59.5449
1,681.64	89.1235	1,681.64	87.958	1,681.64	87.6843	1,681.64	84.9901	1,681.64	82.8584	1,681.64	81.9071	1,681.64	79.3034	1,681.64	79.7664	1,681.64	83.6828	1,681.64	77.5854	1,681.64	84.712	1,681.64	72.4414	1,681.64	82.1636	1,681.64	71.3789	1,681.64	81.0449	1,681.64	65.2726	1,681.64	76.7128	1,681.64	53.6625	1,681.64	65.6831	1,681.64	62.1287	1,681.64	67.9274	1,681.64	61.1481	1,681.64	53.325	1,681.64	58.9561	1,681.64	68.7711	1,681.64	66.4151	1,681.64	57.8634	1,681.64	68.0506	1,681.64	61.0382	1,681.64	74.8901	1,681.64	60.8205	1,681.64	72.7656	1,681.64	58.9439	1,681.64	70.2758	1,681.64	57.3513	1,681.64	70.6266
1,741.7	89.8398	1,741.7	88.3603	1,741.7	88.5795	1,741.7	83.5201	1,741.7	83.0555	1,741.7	78.5542	1,741.7	81.6256	1,741.7	78.4957	1,741.7	85.7154	1,741.7	75.5941	1,741.7	85.805	1,741.7	70.9935	1,741.7	82.6017	1,741.7	70.2855	1,741.7	79.2978	1,741.7	72.0965	1,741.7	74.1311	1,741.7	67.5359	1,741.7	62.8089	1,741.7	66.4993	1,741.7	63.0211	1,741.7	67.125	1,741.7	64.2762	1,741.7	65.1199	1,741.7	56.1579	1,741.7	66.0363	1,741.7	59.2763	1,741.7	66.8369	1,741.7	59.0895	1,741.7	68.4529	1,741.7	67.2398	1,741.7	68.4104	1,741.7	63.2181	1,741.7	67.8461	1,741.7	66.6744	1,741.7	66.5595
1,803.22	90.3568	1,803.22	88.9436	1,803.22	88.4602	1,803.22	83.6997	1,803.22	82.1597	1,803.22	75.592	1,803.22	82.6946	1,803.22	76.3174	1,803.22	86.3403	1,803.22	75.3585	1,803.22	85.942	1,803.22	73.5732	1,803.22	81.3492	1,803.22	69.0852	1,803.22	72.4656	1,803.22	65.5737	1,803.22	68.6978	1,803.22	64.262	1,803.22	62.049	1,803.22	65.5483	1,803.22	36.1378	1,803.22	38.1664	1,803.22	61.4364	1,803.22	52.8554	1,803.22	60.4421	1,803.22	60.8276	1,803.22	62.7787	1,803.22	66.2788	1,803.22	61.6001	1,803.22	62.0407	1,803.22	57.7097	1,803.22	62.8351	1,803.22	55.5426	1,803.22	65.7243	1,803.22	57.8206	1,803.22	68.0074
1,866.21	90.3736	1,866.21	89.1242	1,866.21	88.5961	1,866.21	83.4763	1,866.21	81.7024	1,866.21	72.3697	1,866.21	83.8016	1,866.21	75.8366	1,866.21	86.042	1,866.21	75.4089	1,866.21	84.7546	1,866.21	70.824	1,866.21	78.3491	1,866.21	68.9819	1,866.21	66.9944	1,866.21	67.6529	1,866.21	69.4116	1,866.21	61.0986	1,866.21	64.4696	1,866.21	49.2191	1,866.21	68.2434	1,866.21	63.3956	1,866.21	65.2348	1,866.21	55.9797	1,866.21	55.2879	1,866.21	58.0379	1,866.21	61.9159	1,866.21	63.2992	1,866.21	56.5788	1,866.21	57.9905	1,866.21	52.5981	1,866.21	63.169	1,866.21	54.8396	1,866.21	62.8493	1,866.21	60.4618	1,866.21	62.7124
1,932.13	89.9671	1,932.13	88.4595	1,932.13	87.434	1,932.13	82.5209	1,932.13	78.619	1,932.13	71.6875	1,932.13	84.0317	1,932.13	74.2698	1,932.13	85.5838	1,932.13	73.7272	1,932.13	82.1964	1,932.13	72.9271	1,932.13	75.7742	1,932.13	70.5542	1,932.13	65.9183	1,932.13	67.317	1,932.13	72.562	1,932.13	64.7789	1,932.13	69.7725	1,932.13	65.3652	1,932.13	63.4185	1,932.13	52.0666	1,932.13	63.12	1,932.13	61.9657	1,932.13	53.0693	1,932.13	59.0135	1,932.13	62.3752	1,932.13	57.4875	1,932.13	57.9796	1,932.13	60.3239	1,932.13	53.5644	1,932.13	62.8991	1,932.13	47.5403	1,932.13	66.8903	1,932.13	52.8784	1,932.13	66.0371
1,999.51	90.4056	1,999.51	88.2937	1,999.51	86.8481	1,999.51	80.8477	1,999.51	76.5389	1,999.51	70.0727	1,999.51	84.117	1,999.51	76.5182	1,999.51	85.1103	1,999.51	77.0213	1,999.51	80.0903	1,999.51	75.4526	1,999.51	69.7494	1,999.51	69.9045	1,999.51	68.2584	1,999.51	66.8551	1,999.51	74.9424	1,999.51	65.2599	1,999.51	72.055	1,999.51	52.5773	1,999.51	65.151	1,999.51	64.4458	1,999.51	62.8784	1,999.51	52.4334	1,999.51	59.1709	1,999.51	51.1784	1,999.51	64.3566	1,999.51	52.6248	1,999.51	46.8391	1,999.51	58.877	1,999.51	57.6828	1,999.51	63.7731	1,999.51	57.041	1,999.51	61.8818	1,999.51	54.9213	1,999.51	62.1402
2,069.82	90.3172	2,069.82	87.6565	2,069.82	86.8703	2,069.82	79.2113	2,069.82	73.0302	2,069.82	69.4798	2,069.82	84.1237	2,069.82	77.6219	2,069.82	83.6077	2,069.82	77.145	2,069.82	75.4818	2,069.82	71.7884	2,069.82	65.5779	2,069.82	70.8083	2,069.82	70.8198	2,069.82	66.1947	2,069.82	74.1453	2,069.82	59.9252	2,069.82	62.2828	2,069.82	63.4259	2,069.82	65.2123	2,069.82	57.7197	2,069.82	60.6423	2,069.82	57.6435	2,069.82	55.1302	2,069.82	47.8868	2,069.82	59.4524	2,069.82	65.3618	2,069.82	58.499	2,069.82	56.9252	2,069.82	55.4996	2,069.82	66.0207	2,069.82	56.4745	2,069.82	69.1567	2,069.82	49.8743	2,069.82	64.5136
2,143.07	90.7888	2,143.07	88.7893	2,143.07	86.2509	2,143.07	80.2324	2,143.07	69.2613	2,143.07	70.89	2,143.07	82.0195	2,143.07	77.4332	2,143.07	82.2071	2,143.07	77.1437	2,143.07	75.9878	2,143.07	75.0813	2,143.07	69.7275	2,143.07	69.1079	2,143.07	65.5685	2,143.07	69.2972	2,143.07	67.7826	2,143.07	66.114	2,143.07	63.977	2,143.07	56.8267	2,143.07	46.7165	2,143.07	64.9073	2,143.07	60.8306	2,143.07	60.224	2,143.07	49.5761	2,143.07	52.8085	2,143.07	62.2163	2,143.07	60.8146	2,143.07	57.6244	2,143.07	60.8087	2,143.07	60.181	2,143.07	49.284	2,143.07	55.6462	2,143.07	55.6896	2,143.07	47.9982	2,143.07	64.9229
2,219.24	90.733	2,219.24	89.5853	2,219.24	86.1586	2,219.24	81.8217	2,219.24	61.0468	2,219.24	76.2772	2,219.24	81.8725	2,219.24	78.9366	2,219.24	81.8301	2,219.24	76.8484	2,219.24	75.391	2,219.24	69.7324	2,219.24	67.4001	2,219.24	69.5882	2,219.24	59.3291	2,219.24	67.3254	2,219.24	65.4709	2,219.24	62.2559	2,219.24	65.5424	2,219.24	59.4624	2,219.24	64.3913	2,219.24	50.8486	2,219.24	55.0828	2,219.24	46.7277	2,219.24	58.6872	2,219.24	57.6627	2,219.24	60.048	2,219.24	60.9115	2,219.24	54.3337	2,219.24	52.5836	2,219.24	59.3046	2,219.24	58.4648	2,219.24	54.1395	2,219.24	65.3553	2,219.24	44.2366	2,219.24	60.6504
2,296.88	89.8966	2,296.88	88.8376	2,296.88	85.6512	2,296.88	81.5374	2,296.88	69.8552	2,296.88	76.1735	2,296.88	83.681	2,296.88	78.3882	2,296.88	81.9127	2,296.88	70.6402	2,296.88	75.9879	2,296.88	72.199	2,296.88	53.6705	2,296.88	65.8966	2,296.88	73.7395	2,296.88	65.5081	2,296.88	72.4293	2,296.88	58.479	2,296.88	70.6455	2,296.88	60.3303	2,296.88	63.6495	2,296.88	61.1347	2,296.88	60.738	2,296.88	53.0068	2,296.88	64.2244	2,296.88	61.1072	2,296.88	60.0957	2,296.88	42.1324	2,296.88	56.5446	2,296.88	54.95	2,296.88	52.969	2,296.88	60.6467	2,296.88	64.4587	2,296.88	63.9017	2,296.88	55.0147	2,296.88	62.8983
2,378.91	89.3993	2,378.91	87.7281	2,378.91	84.4025	2,378.91	79.5205	2,378.91	74.8198	2,378.91	76.6723	2,378.91	85.6677	2,378.91	73.4407	2,378.91	84.9227	2,378.91	74.8528	2,378.91	76.4429	2,378.91	72.7152	2,378.91	65.0815	2,378.91	73.9857	2,378.91	75.0205	2,378.91	73.5769	2,378.91	79.7344	2,378.91	73.0581	2,378.91	71.7132	2,378.91	70.0918	2,378.91	70.5707	2,378.91	58.952	2,378.91	68.3205	2,378.91	65.0273	2,378.91	66.6925	2,378.91	63.9753	2,378.91	56.6982	2,378.91	57.4641	2,378.91	66.5759	2,378.91	43.9977	2,378.91	55.074	2,378.91	65.6973	2,378.91	60.5389	2,378.91	60.3588	2,378.91	58.4835	2,378.91	56.715
2,462.4	89.4549	2,462.4	86.2877	2,462.4	84.9552	2,462.4	74.4923	2,462.4	74.9405	2,462.4	76.4766	2,462.4	86.487	2,462.4	77.4374	2,462.4	85.3609	2,462.4	78.0443	2,462.4	77.4311	2,462.4	78.4312	2,462.4	64.6963	2,462.4	77.4405	2,462.4	78.9318	2,462.4	73.069	2,462.4	77.9951	2,462.4	54.8308	2,462.4	68.7913	2,462.4	62.0955	2,462.4	70.1591	2,462.4	68.4049	2,462.4	49.1576	2,462.4	59.5699	2,462.4	62.2411	2,462.4	59.3686	2,462.4	59.3741	2,462.4	53.4352	2,462.4	57.4745	2,462.4	55.9725	2,462.4	55.7312	2,462.4	64.4605	2,462.4	48.5344	2,462.4	63.5391	2,462.4	56.0103	2,462.4	52.906
2,548.83	90.2558	2,548.83	86.9657	2,548.83	85.7988	2,548.83	78.4285	2,548.83	77.48	2,548.83	76.9799	2,548.83	85.7599	2,548.83	79.2077	2,548.83	84.0899	2,548.83	79.6593	2,548.83	73.2291	2,548.83	78.2705	2,548.83	70.5231	2,548.83	73.5746	2,548.83	76.8566	2,548.83	68.2305	2,548.83	76.0346	2,548.83	69.8954	2,548.83	68.9763	2,548.83	64.7887	2,548.83	66.2745	2,548.83	48.2237	2,548.83	60.3331	2,548.83	38.6632	2,548.83	64.4559	2,548.83	52.9108	2,548.83	50.2154	2,548.83	56.6081	2,548.83	59.4595	2,548.83	55.384	2,548.83	55.0922	2,548.83	63.8132	2,548.83	60.3159	2,548.83	64.7274	2,548.83	41.565	2,548.83	61.3836
2,639.65	89.9849	2,639.65	86.5656	2,639.65	86.6632	2,639.65	78.1631	2,639.65	79.5775	2,639.65	80.3415	2,639.65	85.4504	2,639.65	81.3074	2,639.65	81.9666	2,639.65	81.3424	2,639.65	70.5115	2,639.65	75.8077	2,639.65	67.3257	2,639.65	73.0699	2,639.65	74.0546	2,639.65	69.3477	2,639.65	74.4194	2,639.65	62.6134	2,639.65	69.3117	2,639.65	54.1388	2,639.65	67.7559	2,639.65	60.6561	2,639.65	53.2963	2,639.65	47.5068	2,639.65	51.5166	2,639.65	58.295	2,639.65	51.5123	2,639.65	61.8404	2,639.65	57.591	2,639.65	57.233	2,639.65	45.943	2,639.65	57.7865	2,639.65	62.0204	2,639.65	58.8198	2,639.65	40.1504	2,639.65	60.6475
2,731.93	88.6007	2,731.93	84.6064	2,731.93	85.292	2,731.93	77.6532	2,731.93	80.2315	2,731.93	80.8437	2,731.93	85.2165	2,731.93	81.4145	2,731.93	80.9741	2,731.93	79.4723	2,731.93	68.5172	2,731.93	74.2373	2,731.93	60.9394	2,731.93	70.2694	2,731.93	71.0075	2,731.93	50.1418	2,731.93	65.3967	2,731.93	56.5174	2,731.93	61.678	2,731.93	56.8474	2,731.93	58.9223	2,731.93	53.9401	2,731.93	52.1385	2,731.93	49.3572	2,731.93	51.4499	2,731.93	56.9589	2,731.93	55.0494	2,731.93	63.1099	2,731.93	53.6951	2,731.93	54.9338	2,731.93	59.0047	2,731.93	57.1369	2,731.93	56.0984	2,731.93	58.1294	2,731.93	52.7783	2,731.93	59.3829
2,828.61	88.0554	2,828.61	82.4315	2,828.61	85.1918	2,828.61	79.6411	2,828.61	79.4453	2,828.61	82.3676	2,828.61	83.8373	2,828.61	81.091	2,828.61	79.7833	2,828.61	77.0855	2,828.61	69.1027	2,828.61	71.0364	2,828.61	68.3063	2,828.61	59.5727	2,828.61	68.3705	2,828.61	50.0062	2,828.61	62.3088	2,828.61	50.8965	2,828.61	56.9458	2,828.61	51.1104	2,828.61	58.9802	2,828.61	55.9587	2,828.61	49.2126	2,828.61	54.9179	2,828.61	50.6104	2,828.61	54.587	2,828.61	52.9735	2,828.61	58.5332	2,828.61	48.7667	2,828.61	55.8199	2,828.61	57.2038	2,828.61	64.6909	2,828.61	52.2332	2,828.61	56.9879	2,828.61	56.2413	2,828.61	52.7162
2,928.22	87.8459	2,928.22	83.2746	2,928.22	85.2977	2,928.22	82.8667	2,928.22	78.6766	2,928.22	82.7261	2,928.22	81.8151	2,928.22	79.2979	2,928.22	78.5612	2,928.22	73.9782	2,928.22	71.4623	2,928.22	65.763	2,928.22	70.968	2,928.22	65.5604	2,928.22	69.0575	2,928.22	61.324	2,928.22	68.8209	2,928.22	52.0263	2,928.22	58.5834	2,928.22	62.264	2,928.22	59.9942	2,928.22	56.1829	2,928.22	56.7315	2,928.22	59.0101	2,928.22	56.5074	2,928.22	56.8682	2,928.22	56.2418	2,928.22	59.9082	2,928.22	51.4434	2,928.22	55.8481	2,928.22	58.0906	2,928.22	63.4561	2,928.22	48.0582	2,928.22	55.0689	2,928.22	56.8266	2,928.22	45.9699
3,030.76	87.9998	3,030.76	84.8602	3,030.76	86.0456	3,030.76	84.4138	3,030.76	78.695	3,030.76	82.1	3,030.76	80.6139	3,030.76	77.8053	3,030.76	77.7622	3,030.76	72.1504	3,030.76	72.8555	3,030.76	66.9624	3,030.76	71.1338	3,030.76	64.4906	3,030.76	69.6593	3,030.76	62.2133	3,030.76	68.1847	3,030.76	59.8389	3,030.76	61.7862	3,030.76	62.896	3,030.76	58.9304	3,030.76	57.0789	3,030.76	57.9017	3,030.76	57.3238	3,030.76	53.162	3,030.76	58.449	3,030.76	48.8147	3,030.76	59.0319	3,030.76	45.1076	3,030.76	58.6755	3,030.76	54.17	3,030.76	60.8177	3,030.76	47.7035	3,030.76	59.042	3,030.76	51.3986	3,030.76	56.5026
3,137.7	88.6342	3,137.7	85.8311	3,137.7	87.2661	3,137.7	86.0477	3,137.7	81.4171	3,137.7	82.7853	3,137.7	79.6391	3,137.7	78.3685	3,137.7	77.1362	3,137.7	74.5226	3,137.7	72.3112	3,137.7	67.0652	3,137.7	70.4147	3,137.7	60.9181	3,137.7	70.1537	3,137.7	57.4257	3,137.7	68.7547	3,137.7	58.7329	3,137.7	61.0943	3,137.7	44.9143	3,137.7	57.5868	3,137.7	58.0901	3,137.7	55.9707	3,137.7	53.7093	3,137.7	36.8806	3,137.7	54.8849	3,137.7	40.85	3,137.7	56.658	3,137.7	46.7294	3,137.7	57.7338	3,137.7	47.7644	3,137.7	52.9117	3,137.7	53.6616	3,137.7	62.2246	3,137.7	51.1755	3,137.7	56.8104
3,249.02	89.0708	3,249.02	86.9832	3,249.02	88.7243	3,249.02	86.5332	3,249.02	83.1621	3,249.02	84.0436	3,249.02	81.102	3,249.02	77.9971	3,249.02	76.4223	3,249.02	73.0482	3,249.02	69.9872	3,249.02	66.6966	3,249.02	70.1488	3,249.02	54.3109	3,249.02	69.0755	3,249.02	53.9558	3,249.02	70.8547	3,249.02	61.9571	3,249.02	64.1718	3,249.02	57.2555	3,249.02	55.146	3,249.02	61.125	3,249.02	40.4288	3,249.02	48.9477	3,249.02	55.4244	3,249.02	55.769	3,249.02	57.4681	3,249.02	43.5022	3,249.02	52.1224	3,249.02	54.2806	3,249.02	50.0891	3,249.02	57.8416	3,249.02	60.7808	3,249.02	60.3029	3,249.02	58.1582	3,249.02	58.6173
3,363.28	87.7592	3,363.28	87.8097	3,363.28	88.789	3,363.28	86.7389	3,363.28	82.4958	3,363.28	83.1035	3,363.28	82.0061	3,363.28	77.0525	3,363.28	79.846	3,363.28	68.1139	3,363.28	66.4449	3,363.28	55.356	3,363.28	65.7638	3,363.28	64.416	3,363.28	64.5674	3,363.28	63.597	3,363.28	70.2554	3,363.28	68.3416	3,363.28	65.5908	3,363.28	69.1227	3,363.28	60.2431	3,363.28	42.5187	3,363.28	47.6997	3,363.28	61.1541	3,363.28	56.5325	3,363.28	62.7773	3,363.28	60.0418	3,363.28	51.7905	3,363.28	52.4228	3,363.28	56.8183	3,363.28	53.0736	3,363.28	61.6888	3,363.28	60.4787	3,363.28	55.0763	3,363.28	55.5497	3,363.28	52.9372
3,481.93	87.3041	3,481.93	90.0861	3,481.93	89.3668	3,481.93	88.818	3,481.93	85.6867	3,481.93	82.642	3,481.93	81.3819	3,481.93	76.7179	3,481.93	82.2423	3,481.93	64.0205	3,481.93	72.5249	3,481.93	70.0338	3,481.93	62.6444	3,481.93	71.5439	3,481.93	66.38	3,481.93	69.6409	3,481.93	67.1971	3,481.93	74.2727	3,481.93	69.2784	3,481.93	67.0045	3,481.93	65.7525	3,481.93	66.9986	3,481.93	53.492	3,481.93	56.2817	3,481.93	54.9706	3,481.93	66.0709	3,481.93	60.3083	3,481.93	59.6362	3,481.93	54.2265	3,481.93	60.9906	3,481.93	50.6275	3,481.93	66.6494	3,481.93	57.6334	3,481.93	63.3934	3,481.93	35.7739	3,481.93	53.122
3,604.98	87.7196	3,604.98	92.1504	3,604.98	89.5076	3,604.98	90.2419	3,604.98	88.5342	3,604.98	83.9452	3,604.98	83.4262	3,604.98	78.3613	3,604.98	82.5536	3,604.98	73.9178	3,604.98	75.7775	3,604.98	76.4866	3,604.98	74.6207	3,604.98	74.9599	3,604.98	72.6003	3,604.98	72.8142	3,604.98	73.3032	3,604.98	61.1957	3,604.98	71.0111	3,604.98	56.4182	3,604.98	65.4509	3,604.98	68.2561	3,604.98	52.6953	3,604.98	56.5577	3,604.98	46.4268	3,604.98	62.7363	3,604.98	61.8309	3,604.98	51.4765	3,604.98	51.0325	3,604.98	58.5169	3,604.98	56.4898	3,604.98	61.2517	3,604.98	61.8792	3,604.98	66.6105	3,604.98	57.3293	3,604.98	58.3461
3,732.42	90.1364	3,732.42	92.9143	3,732.42	88.2072	3,732.42	89.6909	3,732.42	88.6273	3,732.42	84.6355	3,732.42	83.7155	3,732.42	80.7485	3,732.42	82.5245	3,732.42	78.0221	3,732.42	78.9841	3,732.42	78.2881	3,732.42	78.8934	3,732.42	73.5747	3,732.42	78.2335	3,732.42	73.155	3,732.42	71.4045	3,732.42	65.1598	3,732.42	69.6516	3,732.42	68.2462	3,732.42	67.6782	3,732.42	57.7871	3,732.42	62.9052	3,732.42	63.9621	3,732.42	56.4169	3,732.42	59.813	3,732.42	64.9864	3,732.42	64.5879	3,732.42	58.3143	3,732.42	58.0125	3,732.42	58.6643	3,732.42	59.9091	3,732.42	62.9558	3,732.42	64.749	3,732.42	62.6339	3,732.42	59.7299
3,864.26	91.0547	3,864.26	93.3199	3,864.26	90.2824	3,864.26	89.4065	3,864.26	90.8798	3,864.26	87.2754	3,864.26	86.0946	3,864.26	82.4514	3,864.26	82.5748	3,864.26	82.5034	3,864.26	79.9391	3,864.26	79.0156	3,864.26	82.0169	3,864.26	74.716	3,864.26	79.3542	3,864.26	73.7034	3,864.26	76.6066	3,864.26	74.9813	3,864.26	70.5895	3,864.26	71.4464	3,864.26	63.9336	3,864.26	58.791	3,864.26	45.2506	3,864.26	63.0405	3,864.26	49.0021	3,864.26	62.9415	3,864.26	54.6814	3,864.26	64.8529	3,864.26	55.9438	3,864.26	46.1782	3,864.26	55.6147	3,864.26	54.8124	3,864.26	56.3624	3,864.26	63.4053	3,864.26	59.588	3,864.26	61.1325
4,000.49	90.9364	4,000.49	92.7746	4,000.49	91.3498	4,000.49	90.4073	4,000.49	92.9925	4,000.49	87.5009	4,000.49	88.078	4,000.49	85.0619	4,000.49	79.8576	4,000.49	83.2341	4,000.49	81.825	4,000.49	78.2819	4,000.49	83.5884	4,000.49	78.8609	4,000.49	80.323	4,000.49	76.8288	4,000.49	74.0881	4,000.49	72.8267	4,000.49	63.5323	4,000.49	73.5637	4,000.49	58.2098	4,000.49	64.6535	4,000.49	61.6281	4,000.49	64.9417	4,000.49	35.1974	4,000.49	68.927	4,000.49	38.2691	4,000.49	58.4786	4,000.49	58.2472	4,000.49	62.2736	4,000.49	52.0217	4,000.49	53.3691	4,000.49	53.6387	4,000.49	57.6756	4,000.49	64.6248	4,000.49	62.41
4,141.11	91.4397	4,141.11	91.5123	4,141.11	91.3015	4,141.11	90.1728	4,141.11	91.9044	4,141.11	86.2893	4,141.11	86.7485	4,141.11	84.6447	4,141.11	77.3358	4,141.11	80.9108	4,141.11	81.5487	4,141.11	78.6446	4,141.11	80.738	4,141.11	78.1689	4,141.11	74.718	4,141.11	76.8757	4,141.11	63.8839	4,141.11	73.8524	4,141.11	61.3093	4,141.11	72.4172	4,141.11	38.1233	4,141.11	64.5562	4,141.11	49.6973	4,141.11	65.7941	4,141.11	54.7353	4,141.11	66.4893	4,141.11	54.8292	4,141.11	64.5616	4,141.11	55.9472	4,141.11	62.7129	4,141.11	55.9799	4,141.11	61.8272	4,141.11	51.2726	4,141.11	58.3919	4,141.11	64.411	4,141.11	55.9191
4,287.6	90.6853	4,287.6	90.0243	4,287.6	90.6828	4,287.6	87.4286	4,287.6	89.1424	4,287.6	83.9506	4,287.6	83.9784	4,287.6	81.8624	4,287.6	79.3693	4,287.6	76.6129	4,287.6	79.7396	4,287.6	76.9464	4,287.6	76.5745	4,287.6	74.0543	4,287.6	69.0266	4,287.6	72.4063	4,287.6	52.7272	4,287.6	70.749	4,287.6	64.4452	4,287.6	68.2652	4,287.6	59.6299	4,287.6	60.8487	4,287.6	56.3965	4,287.6	64.1326	4,287.6	58.1336	4,287.6	53.736	4,287.6	64.1856	4,287.6	60.2219	4,287.6	52.0316	4,287.6	54.7304	4,287.6	58.3734	4,287.6	54.0844	4,287.6	56.4608	4,287.6	62.3246	4,287.6	47.6447	4,287.6	52.0214
4,438.48	89.4029	4,438.48	88.8337	4,438.48	89.55	4,438.48	86.2705	4,438.48	87.1354	4,438.48	81.3813	4,438.48	79.1122	4,438.48	76.3039	4,438.48	76.6496	4,438.48	76.6244	4,438.48	80.9259	4,438.48	71.5334	4,438.48	75.9967	4,438.48	65.9179	4,438.48	67.2467	4,438.48	56.4419	4,438.48	59.5627	4,438.48	66.759	4,438.48	57.6705	4,438.48	53.1309	4,438.48	65.2444	4,438.48	62.2317	4,438.48	60.064	4,438.48	53.1718	4,438.48	54.2142	4,438.48	61.6736	4,438.48	58.9728	4,438.48	57.3618	4,438.48	43.5562	4,438.48	63.8508	4,438.48	53.8283	4,438.48	55.6652	4,438.48	51.8041	4,438.48	58.8156	4,438.48	39.8002	4,438.48	51.3472
4,595.21	90.2228	4,595.21	88.063	4,595.21	89.9136	4,595.21	85.5479	4,595.21	86.596	4,595.21	82.0065	4,595.21	73.1735	4,595.21	74.4145	4,595.21	80.6679	4,595.21	74.3278	4,595.21	82.8289	4,595.21	70.3916	4,595.21	77.7465	4,595.21	68.5041	4,595.21	72.0186	4,595.21	69.8864	4,595.21	68.5879	4,595.21	67.4781	4,595.21	57.9289	4,595.21	56.1755	4,595.21	67.8452	4,595.21	61.1089	4,595.21	52.9878	4,595.21	44.6179	4,595.21	52.9609	4,595.21	58.5301	4,595.21	57.1027	4,595.21	58.1938	4,595.21	47.5938	4,595.21	58.424	4,595.21	47.8892	4,595.21	47.5863	4,595.21	43.2255	4,595.21	52.4765	4,595.21	55.4288	4,595.21	43.9752
4,756.35	91.2458	4,756.35	90.0818	4,756.35	90.4384	4,756.35	86.881	4,756.35	86.2539	4,756.35	81.2326	4,756.35	77.4486	4,756.35	76.3412	4,756.35	83.1634	4,756.35	70.7444	4,756.35	81.3336	4,756.35	74.7034	4,756.35	75.2262	4,756.35	71.4078	4,756.35	76.4852	4,756.35	67.1896	4,756.35	71.9158	4,756.35	66.7687	4,756.35	63.9278	4,756.35	62.7291	4,756.35	66.0585	4,756.35	65.5254	4,756.35	39.3487	4,756.35	54.9482	4,756.35	58.6347	4,756.35	60.4826	4,756.35	57.7215	4,756.35	56.7118	4,756.35	56.1177	4,756.35	57.1971	4,756.35	40.144	4,756.35	55.2916	4,756.35	49.6501	4,756.35	62.0664	4,756.35	54.7984	4,756.35	55.7119
4,924.8	91.2801	4,924.8	89.8253	4,924.8	89.8075	4,924.8	85.2687	4,924.8	84.7698	4,924.8	79.1344	4,924.8	79.3679	4,924.8	75.6442	4,924.8	80.5513	4,924.8	72.87	4,924.8	78.4545	4,924.8	75.2573	4,924.8	73.0838	4,924.8	68.7501	4,924.8	76.063	4,924.8	65.4946	4,924.8	65.4646	4,924.8	66.9287	4,924.8	62.1749	4,924.8	63.424	4,924.8	58.6601	4,924.8	59.832	4,924.8	52.0155	4,924.8	65.7589	4,924.8	52.5499	4,924.8	51.4546	4,924.8	52.3331	4,924.8	55.3528	4,924.8	44.6696	4,924.8	61.644	4,924.8	48.8356	4,924.8	54.365	4,924.8	49.1409	4,924.8	58.2997	4,924.8	54.0519	4,924.8	47.6808
5,097.66	91.1103	5,097.66	89.8835	5,097.66	89.7818	5,097.66	85.5914	5,097.66	83.8046	5,097.66	77.3279	5,097.66	79.7651	5,097.66	76.23	5,097.66	80.3245	5,097.66	76.4747	5,097.66	71.7419	5,097.66	72.7786	5,097.66	74.7992	5,097.66	66.4986	5,097.66	78.5638	5,097.66	65.9768	5,097.66	72.0416	5,097.66	65.9335	5,097.66	59.6706	5,097.66	55.3099	5,097.66	59.1763	5,097.66	60.695	5,097.66	56.7521	5,097.66	63.6929	5,097.66	57.9883	5,097.66	57.2837	5,097.66	53.6656	5,097.66	50.0711	5,097.66	46.0211	5,097.66	44.1991	5,097.66	43.6419	5,097.66	61.7082	5,097.66	48.6561	5,097.66	57.1282	5,097.66	42.274	5,097.66	55.0756
5,277.83	90.1471	5,277.83	89.8016	5,277.83	87.5308	5,277.83	85.1399	5,277.83	80.9298	5,277.83	80.1872	5,277.83	80.512	5,277.83	76.8201	5,277.83	79.9961	5,277.83	77.2351	5,277.83	76.005	5,277.83	70.8957	5,277.83	79.0661	5,277.83	69.0164	5,277.83	78.0241	5,277.83	64.58	5,277.83	74.1849	5,277.83	59.75	5,277.83	52.3362	5,277.83	64.0741	5,277.83	53.866	5,277.83	53.9875	5,277.83	54.3499	5,277.83	66.2356	5,277.83	51.4294	5,277.83	61.6491	5,277.83	52.0745	5,277.83	60.9105	5,277.83	46.8171	5,277.83	58.6092	5,277.83	45.805	5,277.83	57.9945	5,277.83	40.8595	5,277.83	53.9257	5,277.83	55.0405	5,277.83	52.3048
5,463.87	90.1422	5,463.87	89.9618	5,463.87	87.4694	5,463.87	84.9267	5,463.87	82.9112	5,463.87	78.5081	5,463.87	81.7405	5,463.87	78.0212	5,463.87	80.045	5,463.87	71.5527	5,463.87	78.4656	5,463.87	73.6459	5,463.87	79.1686	5,463.87	66.4301	5,463.87	74.6999	5,463.87	64.8438	5,463.87	70.639	5,463.87	66.5975	5,463.87	56.0341	5,463.87	59.2625	5,463.87	42.4317	5,463.87	49.4863	5,463.87	49.1199	5,463.87	67.2633	5,463.87	53.1738	5,463.87	62.2438	5,463.87	54.3071	5,463.87	54.9543	5,463.87	47.3466	5,463.87	62.3567	5,463.87	40.4116	5,463.87	60.13	5,463.87	47.7374	5,463.87	56.025	5,463.87	49.9493	5,463.87	51.1955
5,657.23	88.4975	5,657.23	88.6934	5,657.23	86.6099	5,657.23	84.3606	5,657.23	82.7152	5,657.23	77.541	5,657.23	77.21	5,657.23	76.95	5,657.23	75.6064	5,657.23	75.0253	5,657.23	75.121	5,657.23	71.6046	5,657.23	73.6598	5,657.23	65.3404	5,657.23	72.1672	5,657.23	63.8135	5,657.23	64.085	5,657.23	54.9743	5,657.23	51.964	5,657.23	56.1733	5,657.23	51.8422	5,657.23	59.5656	5,657.23	52.1797	5,657.23	66.1512	5,657.23	52.6152	5,657.23	54.2962	5,657.23	40.3415	5,657.23	64.8157	5,657.23	45.9889	5,657.23	60.7412	5,657.23	48.8084	5,657.23	64.8069	5,657.23	41.3274	5,657.23	54.4941	5,657.23	49.9597	5,657.23	53.6881
5,856.45	89.4074	5,856.45	89.0814	5,856.45	87.9458	5,856.45	83.8344	5,856.45	81.0105	5,856.45	77.628	5,856.45	76.1516	5,856.45	78.3187	5,856.45	77.619	5,856.45	76.1136	5,856.45	73.9902	5,856.45	71.6717	5,856.45	74.8844	5,856.45	66.5287	5,856.45	67.6918	5,856.45	63.8993	5,856.45	55.8704	5,856.45	62.577	5,856.45	57.8076	5,856.45	62.9893	5,856.45	54.0115	5,856.45	60.498	5,856.45	32.0005	5,856.45	65.1514	5,856.45	45.0999	5,856.45	63.7513	5,856.45	40.4774	5,856.45	55.8674	5,856.45	47.7295	5,856.45	50.673	5,856.45	39.8789	5,856.45	60.7222	5,856.45	46.7325	5,856.45	47.6114	5,856.45	53.9043	5,856.45	36.6854
6,062.99	90.1858	6,062.99	89.6096	6,062.99	87.4312	6,062.99	82.9321	6,062.99	78.8828	6,062.99	78.5401	6,062.99	79.6758	6,062.99	78.9506	6,062.99	77.3919	6,062.99	77.111	6,062.99	77.934	6,062.99	72.2014	6,062.99	75.4015	6,062.99	68.3032	6,062.99	61.5809	6,062.99	64.9027	6,062.99	65.5924	6,062.99	63.5305	6,062.99	60.9859	6,062.99	60.0753	6,062.99	49.421	6,062.99	58.1291	6,062.99	42.5176	6,062.99	62.9787	6,062.99	43.5703	6,062.99	64.4237	6,062.99	45.531	6,062.99	65.5361	6,062.99	55.9231	6,062.99	59.5835	6,062.99	56.5895	6,062.99	63.1894	6,062.99	34.2701	6,062.99	52.9972	6,062.99	50.674	6,062.99	45.1447
6,276.86	90.2039	6,276.86	88.2295	6,276.86	87.5031	6,276.86	82.8566	6,276.86	78.9089	6,276.86	80.4971	6,276.86	81.2013	6,276.86	79.456	6,276.86	78.4436	6,276.86	72.3012	6,276.86	78.3937	6,276.86	71.4976	6,276.86	73.7485	6,276.86	59.9734	6,276.86	66.0006	6,276.86	48.4415	6,276.86	71.9232	6,276.86	49.5816	6,276.86	58.2352	6,276.86	53.6654	6,276.86	58.4491	6,276.86	63.0064	6,276.86	49.0611	6,276.86	53.9881	6,276.86	51.374	6,276.86	60.0482	6,276.86	50.681	6,276.86	61.5992	6,276.86	39.5377	6,276.86	65.4117	6,276.86	46.3	6,276.86	66.5245	6,276.86	36.5433	6,276.86	52.2269	6,276.86	45.3245	6,276.86	44.5005
6,498.05	90.2182	6,498.05	88.3088	6,498.05	87.4091	6,498.05	81.922	6,498.05	81.9509	6,498.05	79.4162	6,498.05	78.9569	6,498.05	77.1498	6,498.05	74.9636	6,498.05	70.7717	6,498.05	76.2257	6,498.05	58.2492	6,498.05	49.3003	6,498.05	64.5829	6,498.05	74.7979	6,498.05	60.8139	6,498.05	75.0926	6,498.05	59.468	6,498.05	61.6528	6,498.05	57.7635	6,498.05	62.9551	6,498.05	58.5789	6,498.05	56.7142	6,498.05	59.5788	6,498.05	44.3416	6,498.05	65.0315	6,498.05	46.6651	6,498.05	63.605	6,498.05	45.071	6,498.05	51.7121	6,498.05	27.8907	6,498.05	62.5902	6,498.05	51.5863	6,498.05	46.4521	6,498.05	35.3987	6,498.05	53.0871
6,726.56	90.7437	6,726.56	87.8672	6,726.56	88.0911	6,726.56	81.741	6,726.56	82.1402	6,726.56	76.3218	6,726.56	77.903	6,726.56	73.7914	6,726.56	77.8945	6,726.56	67.7354	6,726.56	73.9834	6,726.56	64.765	6,726.56	73.7151	6,726.56	61.9832	6,726.56	78.2975	6,726.56	58.904	6,726.56	70.8475	6,726.56	57.3427	6,726.56	58.1022	6,726.56	57.683	6,726.56	57.2358	6,726.56	59.097	6,726.56	54.942	6,726.56	59.7278	6,726.56	53.761	6,726.56	64.9697	6,726.56	50.1999	6,726.56	62.9324	6,726.56	50.773	6,726.56	63.7528	6,726.56	39.1773	6,726.56	64.613	6,726.56	45.3772	6,726.56	53.6608	6,726.56	45.2654	6,726.56	52.6362
6,963.87	89.3979	6,963.87	85.3255	6,963.87	87.7629	6,963.87	77.7897	6,963.87	82.6452	6,963.87	74.4776	6,963.87	78.5094	6,963.87	74.3442	6,963.87	78.3277	6,963.87	66.7638	6,963.87	71.904	6,963.87	61.5141	6,963.87	75.6375	6,963.87	61.2962	6,963.87	75.7538	6,963.87	61.1049	6,963.87	57.8384	6,963.87	59.7732	6,963.87	46.7668	6,963.87	57.4997	6,963.87	52.5493	6,963.87	54.9301	6,963.87	43.6963	6,963.87	52.7721	6,963.87	42.8027	6,963.87	62.8372	6,963.87	47.2554	6,963.87	59.3153	6,963.87	37.8308	6,963.87	63.3171	6,963.87	36.4835	6,963.87	60.8967	6,963.87	38.7166	6,963.87	44.4311	6,963.87	36.4399	6,963.87	50.3805
7,209.96	87.6084	7,209.96	83.6724	7,209.96	85.6584	7,209.96	78.083	7,209.96	80.5599	7,209.96	76.4666	7,209.96	78.0243	7,209.96	74.016	7,209.96	74.2781	7,209.96	67.1105	7,209.96	66.6352	7,209.96	60.1956	7,209.96	68.0721	7,209.96	58.4424	7,209.96	62.7826	7,209.96	58.7477	7,209.96	52.3423	7,209.96	53.3474	7,209.96	45.8039	7,209.96	54.6032	7,209.96	55.3248	7,209.96	57.574	7,209.96	40.9563	7,209.96	55.3664	7,209.96	25.8037	7,209.96	63.4487	7,209.96	40.0812	7,209.96	60.7667	7,209.96	38.8309	7,209.96	52.4472	7,209.96	44.3212	7,209.96	58.6674	7,209.96	37.7832	7,209.96	56.097	7,209.96	44.3764	7,209.96	52.133
7,464.84	87.5515	7,464.84	85.2286	7,464.84	84.5238	7,464.84	81.4084	7,464.84	79.5842	7,464.84	77.9618	7,464.84	74.4361	7,464.84	73.8964	7,464.84	72.9178	7,464.84	66.7311	7,464.84	67.2076	7,464.84	66.921	7,464.84	68.0665	7,464.84	62.9758	7,464.84	58.2743	7,464.84	55.9048	7,464.84	68.3639	7,464.84	57.1573	7,464.84	61.8956	7,464.84	54.2895	7,464.84	60.2446	7,464.84	55.2975	7,464.84	43.6448	7,464.84	57.671	7,464.84	45.4288	7,464.84	63.4678	7,464.84	36.9587	7,464.84	63.1708	7,464.84	43.2585	7,464.84	63.0067	7,464.84	44.4495	7,464.84	63.426	7,464.84	41.9007	7,464.84	53.2647	7,464.84	46.6754	7,464.84	56.369
7,727.05	89.2523	7,727.05	87.6827	7,727.05	86.5581	7,727.05	82.5293	7,727.05	83.4693	7,727.05	78.8444	7,727.05	78.6808	7,727.05	76.0348	7,727.05	76.7628	7,727.05	70.4418	7,727.05	73.1981	7,727.05	61.3052	7,727.05	67.8827	7,727.05	62.4944	7,727.05	71.6749	7,727.05	61.7228	7,727.05	73.5752	7,727.05	57.7319	7,727.05	63.8863	7,727.05	51.9399	7,727.05	61.534	7,727.05	56.607	7,727.05	53.5443	7,727.05	56.6765	7,727.05	40.3074	7,727.05	63.9752	7,727.05	45.4291	7,727.05	58.1976	7,727.05	46.5354	7,727.05	59.9012	7,727.05	49.2359	7,727.05	56.1605	7,727.05	39.5674	7,727.05	55.7544	7,727.05	50.0562	7,727.05	52.8923
7,999.51	89.8275	7,999.51	87.5823	7,999.51	87.1807	7,999.51	80.54	7,999.51	83.9128	7,999.51	79.8027	7,999.51	80.0934	7,999.51	76.1863	7,999.51	80.6058	7,999.51	69.3668	7,999.51	69.2106	7,999.51	60.8117	7,999.51	66.8662	7,999.51	58.8887	7,999.51	75.8745	7,999.51	62.6978	7,999.51	70.688	7,999.51	56.2189	7,999.51	59.2655	7,999.51	53.4585	7,999.51	63.7902	7,999.51	53.1776	7,999.51	50.2676	7,999.51	52.2508	7,999.51	53.4619	7,999.51	64.419	7,999.51	41.5727	7,999.51	65.734	7,999.51	41.1816	7,999.51	55.7434	7,999.51	50.2892	7,999.51	57.1164	7,999.51	49.5905	7,999.51	63.9322	7,999.51	56.964	7,999.51	52.8747
8,282.23	91.5293	8,282.23	88.6869	8,282.23	89.534	8,282.23	85.4707	8,282.23	86.1484	8,282.23	82.1664	8,282.23	83.5448	8,282.23	77.1717	8,282.23	78.7252	8,282.23	67.6772	8,282.23	74.3765	8,282.23	70.1077	8,282.23	76.5397	8,282.23	70.9603	8,282.23	78.3447	8,282.23	68.2454	8,282.23	62.7185	8,282.23	64.3793	8,282.23	55.0379	8,282.23	60.8038	8,282.23	68.7393	8,282.23	56.8566	8,282.23	51.8877	8,282.23	54.7152	8,282.23	50.9259	8,282.23	65.3782	8,282.23	52.2378	8,282.23	64.9965	8,282.23	43.8783	8,282.23	68.9279	8,282.23	51.9529	8,282.23	67.3178	8,282.23	44.8819	8,282.23	63.6019	8,282.23	53.5682	8,282.23	57.4675
8,573.73	90.8934	8,573.73	89.5661	8,573.73	87.7173	8,573.73	84.9557	8,573.73	81.6527	8,573.73	80.2963	8,573.73	82.2358	8,573.73	76.3441	8,573.73	58.6479	8,573.73	72.6687	8,573.73	75.6985	8,573.73	74.1058	8,573.73	78.7098	8,573.73	69.337	8,573.73	74.0774	8,573.73	68.8507	8,573.73	57.3631	8,573.73	63.5095	8,573.73	63.9495	8,573.73	58.6376	8,573.73	64.88	8,573.73	57.9866	8,573.73	56.0219	8,573.73	54.5619	8,573.73	49.9713	8,573.73	65.1171	8,573.73	51.9737	8,573.73	65.0515	8,573.73	49.3396	8,573.73	62.5199	8,573.73	56.1276	8,573.73	55.4633	8,573.73	51.4725	8,573.73	67.3395	8,573.73	53.3091	8,573.73	56.313
8,876.95	90.2707	8,876.95	87.6618	8,876.95	86.412	8,876.95	81.263	8,876.95	79.7256	8,876.95	79.1457	8,876.95	81.9203	8,876.95	76.8055	8,876.95	75.1856	8,876.95	67.7461	8,876.95	69.7869	8,876.95	70.7913	8,876.95	77.0125	8,876.95	67.9795	8,876.95	54.5906	8,876.95	65.5909	8,876.95	62.4628	8,876.95	61.9755	8,876.95	52.9731	8,876.95	55.8566	8,876.95	61.0979	8,876.95	55.0174	8,876.95	51.0442	8,876.95	57.7387	8,876.95	46.8529	8,876.95	58.0933	8,876.95	53.5915	8,876.95	63.4211	8,876.95	53.3725	8,876.95	65.6116	8,876.95	48.6351	8,876.95	63.6683	8,876.95	48.3688	8,876.95	63.2652	8,876.95	58.242	8,876.95	59.3609
9,188.96	89.1669	9,188.96	85.9635	9,188.96	85.0372	9,188.96	82.4969	9,188.96	83.2014	9,188.96	79.4705	9,188.96	79.854	9,188.96	68.2233	9,188.96	73.7666	9,188.96	72.3956	9,188.96	73.5426	9,188.96	70.9512	9,188.96	71.7827	9,188.96	61.44	9,188.96	66.0676	9,188.96	62.6899	9,188.96	68.0762	9,188.96	48.494	9,188.96	62.5457	9,188.96	49.7392	9,188.96	60.8144	9,188.96	53.5191	9,188.96	52.9738	9,188.96	46.9154	9,188.96	49.8276	9,188.96	52.8449	9,188.96	53.6002	9,188.96	66.2588	9,188.96	56.9212	9,188.96	55.3922	9,188.96	49.6322	9,188.96	66.4885	9,188.96	51.0294	9,188.96	68.8422	9,188.96	55.8332	9,188.96	51.9694
9,514.16	91.2505	9,514.16	88.5927	9,514.16	87.2253	9,514.16	82.6576	9,514.16	85.586	9,514.16	79.2579	9,514.16	75.562	9,514.16	70.9786	9,514.16	75.5518	9,514.16	76.2134	9,514.16	72.5639	9,514.16	69.2966	9,514.16	60.9254	9,514.16	55.795	9,514.16	76.4109	9,514.16	44.6332	9,514.16	73.8291	9,514.16	55.7733	9,514.16	60.6437	9,514.16	54.942	9,514.16	65.9849	9,514.16	51.5613	9,514.16	52.7009	9,514.16	50.2299	9,514.16	56.8957	9,514.16	57.073	9,514.16	57.4743	9,514.16	62.8441	9,514.16	52.7101	9,514.16	58.8828	9,514.16	47.5156	9,514.16	64.0461	9,514.16	52.8295	9,514.16	70.6138	9,514.16	59.0912	9,514.16	50.1646
9,849.61	94.1401	9,849.61	91.3645	9,849.61	86.3585	9,849.61	86.8643	9,849.61	88.4721	9,849.61	82.6701	9,849.61	81.6137	9,849.61	75.2336	9,849.61	76.0804	9,849.61	74.926	9,849.61	75.058	9,849.61	58.5568	9,849.61	68.7829	9,849.61	69.3838	9,849.61	78.0965	9,849.61	60.0657	9,849.61	64.6074	9,849.61	62.4782	9,849.61	62.9607	9,849.61	64.9476	9,849.61	68.4322	9,849.61	60.406	9,849.61	60.1368	9,849.61	59.2592	9,849.61	56.5627	9,849.61	69.1005	9,849.61	64.3072	9,849.61	69.2965	9,849.61	64.2975	9,849.61	69.0363	9,849.61	47.8191	9,849.61	61.0689	9,849.61	60.2433	9,849.61	76.5192	9,849.61	65.3405	9,849.61	57.4429
10,196.8	92.5572	10,196.8	90.0585	10,196.8	86.5615	10,196.8	88.4715	10,196.8	90.1534	10,196.8	79.2122	10,196.8	78.4879	10,196.8	76.5648	10,196.8	78.3786	10,196.8	71.6505	10,196.8	70.3658	10,196.8	67.0152	10,196.8	73.6938	10,196.8	71.1381	10,196.8	67.1691	10,196.8	58.9165	10,196.8	69.1752	10,196.8	65.6756	10,196.8	67.9999	10,196.8	63.1444	10,196.8	65.5577	10,196.8	50.3444	10,196.8	62.7287	10,196.8	49.0442	10,196.8	61.9776	10,196.8	63.1584	10,196.8	62.7209	10,196.8	69.3746	10,196.8	65.1963	10,196.8	68.8412	10,196.8	56.3607	10,196.8	65.5326	10,196.8	62.6404	10,196.8	76.3292	10,196.8	61.9022	10,196.8	57.2739
10,555.7	85.9362	10,555.7	84.8105	10,555.7	77.521	10,555.7	79.4527	10,555.7	76.9589	10,555.7	68.7665	10,555.7	55.4517	10,555.7	64.7278	10,555.7	65.2926	10,555.7	53.4491	10,555.7	63.8811	10,555.7	62.5379	10,555.7	53.1053	10,555.7	60.138	10,555.7	55.8837	10,555.7	40.2046	10,555.7	57.2426	10,555.7	57.2116	10,555.7	56.9092	10,555.7	54.1144	10,555.7	43.7899	10,555.7	54.2167	10,555.7	56.5294	10,555.7	55.0251	10,555.7	56.5105	10,555.7	62.4792	10,555.7	56.2258	10,555.7	61.2582	10,555.7	57.0671	10,555.7	59.0585	10,555.7	48.2172	10,555.7	55.9611	10,555.7	50.7999	10,555.7	68.5548	10,555.7	59.3163	10,555.7	53.7512
10,927.7	91.9374	10,927.7	87.3288	10,927.7	85.8108	10,927.7	85.6898	10,927.7	88.5125	10,927.7	73.2677	10,927.7	77.6458	10,927.7	72.6094	10,927.7	73.9123	10,927.7	68.5234	10,927.7	73.0048	10,927.7	67.9507	10,927.7	68.1975	10,927.7	69.321	10,927.7	66.8849	10,927.7	57.9497	10,927.7	68.725	10,927.7	65.4856	10,927.7	62.1994	10,927.7	57.9444	10,927.7	60.532	10,927.7	63.8529	10,927.7	65.0434	10,927.7	62.0742	10,927.7	63.1934	10,927.7	66.6749	10,927.7	62.4458	10,927.7	65.5716	10,927.7	67.1368	10,927.7	68.6761	10,927.7	59.2639	10,927.7	64.5445	10,927.7	63.9954	10,927.7	74.7117	10,927.7	62.7676	10,927.7	59.7004
11,313	94.2257	11,313	89.987	11,313	89.2485	11,313	85.0491	11,313	89.072	11,313	74.8072	11,313	80.4933	11,313	74.5181	11,313	79.041	11,313	71.2533	11,313	54.8399	11,313	48.724	11,313	71.8477	11,313	73.4889	11,313	73.835	11,313	65.9374	11,313	66.6837	11,313	66.0344	11,313	57.5041	11,313	55.7794	11,313	64.0098	11,313	66.8021	11,313	66.954	11,313	60.6819	11,313	64.8208	11,313	67.2665	11,313	62.0221	11,313	55.135	11,313	68.4189	11,313	64.3696	11,313	58.0897	11,313	69.9618	11,313	64.2446	11,313	74.7571	11,313	66.1372	11,313	54.9018
11,712.9	95.1788	11,712.9	88.4719	11,712.9	90.1698	11,712.9	83.5182	11,712.9	92.3546	11,712.9	65.4747	11,712.9	83.0089	11,712.9	76.8858	11,712.9	79.7519	11,712.9	67.7565	11,712.9	77.3389	11,712.9	70.4536	11,712.9	74.321	11,712.9	73.3808	11,712.9	75.4933	11,712.9	66.8723	11,712.9	56.4629	11,712.9	66.6028	11,712.9	63.0475	11,712.9	51.4951	11,712.9	65.3726	11,712.9	63.4339	11,712.9	66.2448	11,712.9	62.0441	11,712.9	66.4908	11,712.9	60.3219	11,712.9	65.1617	11,712.9	70.5374	11,712.9	69.7578	11,712.9	72.9377	11,712.9	58.6052	11,712.9	69.8714	11,712.9	67.6133	11,712.9	78.4686	11,712.9	60.7705	11,712.9	61.6239
12,126	97.0796	12,126	89.7201	12,126	90.5766	12,126	87.5069	12,126	92.5721	12,126	65.06	12,126	85.4454	12,126	77.8048	12,126	81.7587	12,126	69.2134	12,126	80.2271	12,126	67.496	12,126	73.0266	12,126	74.878	12,126	60.0438	12,126	68.0075	12,126	71.0682	12,126	69.2953	12,126	68.2636	12,126	63.781	12,126	68.5306	12,126	73.0141	12,126	69.7474	12,126	67.2806	12,126	70.1058	12,126	72.0938	12,126	69.5781	12,126	66.6229	12,126	71.9265	12,126	73.841	12,126	64.7362	12,126	74.1744	12,126	68.5358	12,126	78.6689	12,126	68.3943	12,126	63.3951
12,553.7	94.763	12,553.7	84.7714	12,553.7	86.2966	12,553.7	87.1764	12,553.7	92.4737	12,553.7	72.6027	12,553.7	87.1358	12,553.7	59.6016	12,553.7	77.3702	12,553.7	73.7034	12,553.7	82.5772	12,553.7	69.6677	12,553.7	74.0137	12,553.7	72.7849	12,553.7	72.8326	12,553.7	69.3769	12,553.7	68.8794	12,553.7	64.8079	12,553.7	64.9358	12,553.7	62.6187	12,553.7	70.817	12,553.7	65.5826	12,553.7	71.239	12,553.7	59.7091	12,553.7	70.5799	12,553.7	68.5577	12,553.7	69.4676	12,553.7	72.8623	12,553.7	73.654	12,553.7	76.4987	12,553.7	63.5828	12,553.7	75.015	12,553.7	70.1083	12,553.7	78.4557	12,553.7	66.2762	12,553.7	67.0432
12,996.1	92.0081	12,996.1	81.5382	12,996.1	83.523	12,996.1	87.985	12,996.1	91.6238	12,996.1	75.2257	12,996.1	87.0712	12,996.1	74.6088	12,996.1	80.6661	12,996.1	68.3848	12,996.1	75.807	12,996.1	71.1631	12,996.1	77.7685	12,996.1	70.9487	12,996.1	66.0999	12,996.1	68.9913	12,996.1	48.1197	12,996.1	65.1237	12,996.1	57.9708	12,996.1	65.8292	12,996.1	70.1663	12,996.1	70.1303	12,996.1	70.2202	12,996.1	63.9431	12,996.1	70.2735	12,996.1	69.8913	12,996.1	67.4675	12,996.1	67.8984	12,996.1	71.5101	12,996.1	68.1631	12,996.1	59.8393	12,996.1	72.9649	12,996.1	66.732	12,996.1	76.6684	12,996.1	64.6539	12,996.1	64.0413
13,454.6	90.7303	13,454.6	86.2789	13,454.6	90.5803	13,454.6	85.2121	13,454.6	90.9061	13,454.6	80.2948	13,454.6	86.5571	13,454.6	74.8774	13,454.6	79.7859	13,454.6	76.3006	13,454.6	72.4652	13,454.6	69.8683	13,454.6	75.1872	13,454.6	68.5018	13,454.6	66.0786	13,454.6	64.0082	13,454.6	59.582	13,454.6	64.1452	13,454.6	60.4113	13,454.6	63.2173	13,454.6	66.5652	13,454.6	68.3982	13,454.6	68.2365	13,454.6	62.8956	13,454.6	68.6793	13,454.6	67.4099	13,454.6	67.1991	13,454.6	67.3463	13,454.6	70.1101	13,454.6	71.0247	13,454.6	61.7457	13,454.6	73.0592	13,454.6	65.17	13,454.6	75.6367	13,454.6	65.577	13,454.6	66.2359
13,929.2	92.9333	13,929.2	93.9026	13,929.2	97.5618	13,929.2	91.7978	13,929.2	96.2991	13,929.2	85.8148	13,929.2	88.2142	13,929.2	82.119	13,929.2	82.3439	13,929.2	83.847	13,929.2	76.1112	13,929.2	75.7359	13,929.2	69.0974	13,929.2	62.1978	13,929.2	63.6882	13,929.2	64.7611	13,929.2	68.5361	13,929.2	70.1612	13,929.2	71.9522	13,929.2	64.326	13,929.2	68.7122	13,929.2	63.9515	13,929.2	72.1639	13,929.2	63.3596	13,929.2	71.1063	13,929.2	71.7284	13,929.2	71.0068	13,929.2	70.4943	13,929.2	73.981	13,929.2	76.5071	13,929.2	63.7292	13,929.2	76.074	13,929.2	70.5325	13,929.2	78.7548	13,929.2	71.0101	13,929.2	73.2311
14,419.9	97.8768	14,419.9	94.8618	14,419.9	97.5426	14,419.9	92.0398	14,419.9	93.7608	14,419.9	84.0595	14,419.9	86.0653	14,419.9	78.5	14,419.9	79.1607	14,419.9	82.8286	14,419.9	75.2652	14,419.9	75.1784	14,419.9	66.9437	14,419.9	63.726	14,419.9	67.4165	14,419.9	62.8334	14,419.9	61.4378	14,419.9	66.3666	14,419.9	67.0461	14,419.9	55.3568	14,419.9	70.5204	14,419.9	57.7469	14,419.9	67.4851	14,419.9	64.9122	14,419.9	66.4586	14,419.9	70.6172	14,419.9	62.7699	14,419.9	62.2216	14,419.9	68.4072	14,419.9	68.6054	14,419.9	59.6503	14,419.9	67.3464	14,419.9	68.2898	14,419.9	77.3089	14,419.9	68.8523	14,419.9	73.1674
14,928.2	99.9284	14,928.2	95.2211	14,928.2	98.5646	14,928.2	90.6612	14,928.2	92.3599	14,928.2	79.9945	14,928.2	83.8473	14,928.2	79.8499	14,928.2	78.0036	14,928.2	79.4641	14,928.2	75.5659	14,928.2	74.2522	14,928.2	65.9325	14,928.2	68.5854	14,928.2	70.0361	14,928.2	64.3711	14,928.2	71.2498	14,928.2	64.9123	14,928.2	67.9062	14,928.2	60.5566	14,928.2	73.4242	14,928.2	64.248	14,928.2	70.2691	14,928.2	69.1092	14,928.2	69.2747	14,928.2	68.9438	14,928.2	65.5288	14,928.2	65.4251	14,928.2	71.093	14,928.2	69.8815	14,928.2	61.6178	14,928.2	70.2216	14,928.2	70.1394	14,928.2	78.0695	14,928.2	72.2631	14,928.2	72.8611
15,455.6	97.7301	15,455.6	93.2083	15,455.6	96.2319	15,455.6	87.3109	15,455.6	90.0515	15,455.6	82.0492	15,455.6	80.7345	15,455.6	79.7585	15,455.6	77.9575	15,455.6	80.4336	15,455.6	71.4784	15,455.6	73.4753	15,455.6	65.8816	15,455.6	69.8389	15,455.6	55.0687	15,455.6	65.5602	15,455.6	67.1761	15,455.6	60.9478	15,455.6	68.2715	15,455.6	60.3109	15,455.6	69.3464	15,455.6	70.9312	15,455.6	67.2838	15,455.6	70.6629	15,455.6	65.5933	15,455.6	64.0959	15,455.6	64.5051	15,455.6	67.9012	15,455.6	65.364	15,455.6	72.5278	15,455.6	61.5423	15,455.6	70.0467	15,455.6	70.6048	15,455.6	75.4	15,455.6	71.4189	15,455.6	71.8248
16,000.5	100.583	16,000.5	96.1458	16,000.5	97.4124	16,000.5	87.874	16,000.5	85.5894	16,000.5	82.823	16,000.5	73.7593	16,000.5	74.7587	16,000.5	70.1687	16,000.5	81.0426	16,000.5	68.8632	16,000.5	72.0759	16,000.5	61.9012	16,000.5	67.5331	16,000.5	70.663	16,000.5	65.8216	16,000.5	70.2653	16,000.5	57.9465	16,000.5	66.4126	16,000.5	61.3718	16,000.5	73.4099	16,000.5	68.3917	16,000.5	62.9174	16,000.5	66.4011	16,000.5	62.8781	16,000.5	70.0367	16,000.5	65.818	16,000.5	53.2682	16,000.5	70.6637	16,000.5	65.767	16,000.5	60.8025	16,000.5	62.687	16,000.5	69.0645	16,000.5	73.0624	16,000.5	71.6501	16,000.5	72.2109
16,564.5	100.541	16,564.5	94.9372	16,564.5	95.8048	16,564.5	84.3952	16,564.5	82.7328	16,564.5	80.5708	16,564.5	65.237	16,564.5	67.0059	16,564.5	68.2975	16,564.5	79.5638	16,564.5	69.9703	16,564.5	71.3005	16,564.5	74.7328	16,564.5	65.1686	16,564.5	65.0839	16,564.5	54.7034	16,564.5	69.0066	16,564.5	63.8806	16,564.5	62.9747	16,564.5	62.6933	16,564.5	75.2907	16,564.5	69.9702	16,564.5	68.2974	16,564.5	69.2777	16,564.5	65.4028	16,564.5	57.6391	16,564.5	60.4882	16,564.5	59.6976	16,564.5	72.8119	16,564.5	52.6701	16,564.5	57.5764	16,564.5	70.7184	16,564.5	62.7829	16,564.5	74.8572	16,564.5	71.5162	16,564.5	72.2503
17,148.9	89.1738	17,148.9	79.5825	17,148.9	77.1596	17,148.9	84.7442	17,148.9	82.0177	17,148.9	73.4047	17,148.9	74.4847	17,148.9	71.295	17,148.9	74.784	17,148.9	75.3676	17,148.9	65.5015	17,148.9	54.6191	17,148.9	72.2714	17,148.9	53.1469	17,148.9	68.9086	17,148.9	51.2386	17,148.9	60.3971	17,148.9	55.4227	17,148.9	45.3347	17,148.9	54.3365	17,148.9	65.0062	17,148.9	59.1272	17,148.9	57.9002	17,148.9	51.4172	17,148.9	61.5404	17,148.9	44.8872	17,148.9	62.013	17,148.9	61.2404	17,148.9	67.9937	17,148.9	51.9397	17,148.9	59.4589	17,148.9	61.7034	17,148.9	55.5033	17,148.9	67.4566	17,148.9	61.2555	17,148.9	62.5327
17,752.4	95.8941	17,752.4	90.8383	17,752.4	93.654	17,752.4	84.6329	17,752.4	87.8099	17,752.4	74.8381	17,752.4	77.5505	17,752.4	69.5009	17,752.4	74.7568	17,752.4	75.3056	17,752.4	58.6408	17,752.4	65.4239	17,752.4	57.0374	17,752.4	42.944	17,752.4	61.5226	17,752.4	56.0507	17,752.4	70.0508	17,752.4	62.6259	17,752.4	67.2469	17,752.4	61.7621	17,752.4	64.337	17,752.4	66.2056	17,752.4	66.1884	17,752.4	61.0537	17,752.4	63.3477	17,752.4	60.2955	17,752.4	66.2839	17,752.4	58.6331	17,752.4	69.247	17,752.4	65.9169	17,752.4	61.3577	17,752.4	73.3773	17,752.4	53.4738	17,752.4	75.3043	17,752.4	68.6146	17,752.4	58.772
18,379.4	96.9888	18,379.4	91.2021	18,379.4	94.3894	18,379.4	77.6464	18,379.4	86.8765	18,379.4	70.4415	18,379.4	78.8963	18,379.4	71.8239	18,379.4	71.5604	18,379.4	74.8386	18,379.4	61.3219	18,379.4	61.9342	18,379.4	72.7325	18,379.4	56.16	18,379.4	66.4894	18,379.4	57.365	18,379.4	73.5663	18,379.4	62.0993	18,379.4	68.0618	18,379.4	64.4412	18,379.4	67.9447	18,379.4	65.5	18,379.4	65.7059	18,379.4	60.7201	18,379.4	62.3122	18,379.4	49.4941	18,379.4	66.0741	18,379.4	64.2866	18,379.4	63.0587	18,379.4	66.9726	18,379.4	62.7271	18,379.4	70.7804	18,379.4	61.9965	18,379.4	74.7177	18,379.4	69.934	18,379.4	61.0349
19,026.9	95.6843	19,026.9	90.0668	19,026.9	92.0143	19,026.9	81.6878	19,026.9	73.9029	19,026.9	49.991	19,026.9	71.9579	19,026.9	70.4727	19,026.9	62.5057	19,026.9	74.08	19,026.9	67.6091	19,026.9	63.9599	19,026.9	69.7219	19,026.9	54.9337	19,026.9	67.0107	19,026.9	54.3843	19,026.9	69.5676	19,026.9	60.1708	19,026.9	64.87	19,026.9	60.6371	19,026.9	65.5528	19,026.9	62.2557	19,026.9	64.4475	19,026.9	62.8029	19,026.9	64.4371	19,026.9	60.9331	19,026.9	66.2756	19,026.9	62.3606	19,026.9	62.0367	19,026.9	54.3002	19,026.9	60.0063	19,026.9	71.7145	19,026.9	63.3212	19,026.9	70.0071	19,026.9	70.0834	19,026.9	58.5316
19,697.8	93.4203	19,697.8	89.4155	19,697.8	87.2554	19,697.8	83.6054	19,697.8	81.8649	19,697.8	50.1406	19,697.8	75.4255	19,697.8	70.5715	19,697.8	67.6599	19,697.8	72.4036	19,697.8	67.5735	19,697.8	63.7551	19,697.8	66.1553	19,697.8	60.127	19,697.8	65.2749	19,697.8	56.7408	19,697.8	70.0313	19,697.8	58.971	19,697.8	64.878	19,697.8	57.9396	19,697.8	61.3433	19,697.8	56.676	19,697.8	63.3725	19,697.8	55.6476	19,697.8	64.1508	19,697.8	57.9432	19,697.8	65.9019	19,697.8	61.3306	19,697.8	58.5673	19,697.8	63.151	19,697.8	57.99	19,697.8	68.1142	19,697.8	63.6348	19,697.8	70.8745	19,697.8	68.3232	19,697.8	52.5662
19,999.5	93.9015	19,999.5	90.0494	19,999.5	86.4644	19,999.5	80.9557	19,999.5	81.5124	19,999.5	69.7674	19,999.5	76.2496	19,999.5	65.8499	19,999.5	70.9483	19,999.5	71.7598	19,999.5	64.4101	19,999.5	64.7406	19,999.5	66.7027	19,999.5	64.1709	19,999.5	55.9669	19,999.5	57.5777	19,999.5	69.7107	19,999.5	58.3298	19,999.5	63.0316	19,999.5	59.3731	19,999.5	59.0955	19,999.5	62.3528	19,999.5	58.5549	19,999.5	56.9129	19,999.5	57.0244	19,999.5	48.1549	19,999.5	57.7344	19,999.5	51.3545	19,999.5	39.7633	19,999.5	62.3553	19,999.5	51.5305	19,999.5	68.468	19,999.5	64.2625	19,999.5	65.4772	19,999.5	66.8027	19,999.5	55.83
