"SPL Vertical"
"On-Axis"		"10°"		"-10°"		"20°"		"-20°"		"30°"		"-30°"		"40°"		"-40°"		"50°"		"-50°"		"60°"		"-60°"		"70°"		"-70°"		"80°"		"-80°"		"90°"		"-90°"		"100°"		"-100°"		"110°"		"-110°"		"120°"		"-120°"		"130°"		"-130°"		"140°"		"-140°"		"150°"		"-150°"		"160°"		"-160°"		"170°"		"-170°"		"180°"
"Frequency / Hz"	"Sound Pressure Level / dB (re 20 µPa/V)  [2.83  V @ 1. m]"	"Frequency / Hz"	"Sound Pressure Level / dB (re 20 µPa/V)  [2.83  V @ 1. m]"	"Frequency / Hz"	"Sound Pressure Level / dB (re 20 µPa/V)  [2.83  V @ 1. m]"	"Frequency / Hz"	"Sound Pressure Level / dB (re 20 µPa/V)  [2.83  V @ 1. m]"	"Frequency / Hz"	"Sound Pressure Level / dB (re 20 µPa/V)  [2.83  V @ 1. m]"	"Frequency / Hz"	"Sound Pressure Level / dB (re 20 µPa/V)  [2.83  V @ 1. m]"	"Frequency / Hz"	"Sound Pressure Level / dB (re 20 µPa/V)  [2.83  V @ 1. m]"	"Frequency / Hz"	"Sound Pressure Level / dB (re 20 µPa/V)  [2.83  V @ 1. m]"	"Frequency / Hz"	"Sound Pressure Level / dB (re 20 µPa/V)  [2.83  V @ 1. m]"	"Frequency / Hz"	"Sound Pressure Level / dB (re 20 µPa/V)  [2.83  V @ 1. m]"	"Frequency / Hz"	"Sound Pressure Level / dB (re 20 µPa/V)  [2.83  V @ 1. m]"	"Frequency / Hz"	"Sound Pressure Level / dB (re 20 µPa/V)  [2.83  V @ 1. m]"	"Frequency / Hz"	"Sound Pressure Level / dB (re 20 µPa/V)  [2.83  V @ 1. m]"	"Frequency / Hz"	"Sound Pressure Level / dB (re 20 µPa/V)  [2.83  V @ 1. m]"	"Frequency / Hz"	"Sound Pressure Level / dB (re 20 µPa/V)  [2.83  V @ 1. m]"	"Frequency / Hz"	"Sound Pressure Level / dB (re 20 µPa/V)  [2.83  V @ 1. m]"	"Frequency / Hz"	"Sound Pressure Level / dB (re 20 µPa/V)  [2.83  V @ 1. m]"	"Frequency / Hz"	"Sound Pressure Level / dB (re 20 µPa/V)  [2.83  V @ 1. m]"	"Frequency / Hz"	"Sound Pressure Level / dB (re 20 µPa/V)  [2.83  V @ 1. m]"	"Frequency / Hz"	"Sound Pressure Level / dB (re 20 µPa/V)  [2.83  V @ 1. m]"	"Frequency / Hz"	"Sound Pressure Level / dB (re 20 µPa/V)  [2.83  V @ 1. m]"	"Frequency / Hz"	"Sound Pressure Level / dB (re 20 µPa/V)  [2.83  V @ 1. m]"	"Frequency / Hz"	"Sound Pressure Level / dB (re 20 µPa/V)  [2.83  V @ 1. m]"	"Frequency / Hz"	"Sound Pressure Level / dB (re 20 µPa/V)  [2.83  V @ 1. m]"	"Frequency / Hz"	"Sound Pressure Level / dB (re 20 µPa/V)  [2.83  V @ 1. m]"	"Frequency / Hz"	"Sound Pressure Level / dB (re 20 µPa/V)  [2.83  V @ 1. m]"	"Frequency / Hz"	"Sound Pressure Level / dB (re 20 µPa/V)  [2.83  V @ 1. m]"	"Frequency / Hz"	"Sound Pressure Level / dB (re 20 µPa/V)  [2.83  V @ 1. m]"	"Frequency / Hz"	"Sound Pressure Level / dB (re 20 µPa/V)  [2.83  V @ 1. m]"	"Frequency / Hz"	"Sound Pressure Level / dB (re 20 µPa/V)  [2.83  V @ 1. m]"	"Frequency / Hz"	"Sound Pressure Level / dB (re 20 µPa/V)  [2.83  V @ 1. m]"	"Frequency / Hz"	"Sound Pressure Level / dB (re 20 µPa/V)  [2.83  V @ 1. m]"	"Frequency / Hz"	"Sound Pressure Level / dB (re 20 µPa/V)  [2.83  V @ 1. m]"	"Frequency / Hz"	"Sound Pressure Level / dB (re 20 µPa/V)  [2.83  V @ 1. m]"	"Frequency / Hz"	"Sound Pressure Level / dB (re 20 µPa/V)  [2.83  V @ 1. m]"	"Frequency / Hz"	"Sound Pressure Level / dB (re 20 µPa/V)  [2.83  V @ 1. m]"
20.5078	59.9386	20.5078	59.9255	20.5078	59.9095	20.5078	59.9062	20.5078	59.817	20.5078	59.9301	20.5078	59.656	20.5078	60.0544	20.5078	59.4421	20.5078	60.3307	20.5078	59.2218	20.5078	60.7879	20.5078	59.0842	20.5078	61.4202	20.5078	59.1598	20.5078	62.1911	20.5078	59.5756	20.5078	63.0477	20.5078	60.3724	20.5078	63.9366	20.5078	61.4659	20.5078	64.8115	20.5078	62.7034	20.5078	65.6355	20.5078	63.9433	20.5078	66.3787	20.5078	65.0875	20.5078	67.0155	20.5078	66.0781	20.5078	67.5235	20.5078	66.8831	20.5078	67.8818	20.5078	67.4869	20.5078	68.0714	20.5078	67.8841	20.5078	68.0763
21.9727	63.4262	21.9727	63.3479	21.9727	63.4716	21.9727	63.2549	21.9727	63.4728	21.9727	63.1726	21.9727	63.425	21.9727	63.1332	21.9727	63.3319	21.9727	63.1734	21.9727	63.2089	21.9727	63.3279	21.9727	63.089	21.9727	63.6202	21.9727	63.0263	21.9727	64.0543	21.9727	63.0934	21.9727	64.6124	21.9727	63.3608	21.9727	65.2598	21.9727	63.863	21.9727	65.9531	21.9727	64.5726	21.9727	66.648	21.9727	65.4105	21.9727	67.3036	21.9727	66.2798	21.9727	67.8833	21.9727	67.0951	21.9727	68.3556	21.9727	67.7943	21.9727	68.6933	21.9727	68.3373	21.9727	68.8739	21.9727	68.7021	21.9727	68.8803
23.4375	61.5107	23.4375	61.2792	23.4375	61.6571	23.4375	60.9929	23.4375	61.6997	23.4375	60.699	23.4375	61.6278	23.4375	60.4655	23.4375	61.4394	23.4375	60.3772	23.4375	61.1457	23.4375	60.5148	23.4375	60.7825	23.4375	60.9199	23.4375	60.4285	23.4375	61.572	23.4375	60.2203	23.4375	62.3996	23.4375	60.3288	23.4375	63.3141	23.4375	60.863	23.4375	64.2368	23.4375	61.7758	23.4375	65.1082	23.4375	62.8978	23.4375	65.8853	23.4375	64.0505	23.4375	66.5367	23.4375	65.1095	23.4375	67.0378	23.4375	66.0048	23.4375	67.3686	23.4375	66.7016	23.4375	67.5119	23.4375	67.1856	23.4375	67.4542
24.9023	63.0902	24.9023	63.1123	24.9023	63.0866	24.9023	63.183	24.9023	63.0814	24.9023	63.3374	24.9023	63.0684	24.9023	63.6073	24.9023	63.0581	24.9023	64.0127	24.9023	63.0818	24.9023	64.5547	24.9023	63.1915	24.9023	65.2148	24.9023	63.452	24.9023	65.9608	24.9023	63.9184	24.9023	66.7548	24.9023	64.6066	24.9023	67.5599	24.9023	65.4801	24.9023	68.3431	24.9023	66.4637	24.9023	69.0757	24.9023	67.473	24.9023	69.7326	24.9023	68.4347	24.9023	70.2912	24.9023	69.2943	24.9023	70.7303	24.9023	70.0143	24.9023	71.0309	24.9023	70.5711	24.9023	71.1762	24.9023	70.9521	24.9023	71.1528
26.3672	66.5406	26.3672	66.5304	26.3672	66.5648	26.3672	66.5499	26.3672	66.5924	26.3672	66.6181	26.3672	66.6192	26.3672	66.7546	26.3672	66.6493	26.3672	66.9761	26.3672	66.6961	26.3672	67.2928	26.3672	66.7833	26.3672	67.7047	26.3672	66.9431	26.3672	68.2017	26.3672	67.2097	26.3672	68.7644	26.3672	67.6078	26.3672	69.3676	26.3672	68.1403	26.3672	69.983	26.3672	68.7833	26.3672	70.5822	26.3672	69.4909	26.3672	71.137	26.3672	70.2076	26.3672	71.6213	26.3672	70.88	26.3672	72.0104	26.3672	71.4635	26.3672	72.2827	26.3672	71.9252	26.3672	72.4201	26.3672	72.2441	26.3672	72.4095
27.832	67.2254	27.832	67.2041	27.832	67.2545	27.832	67.2046	27.832	67.2815	27.832	67.244	27.832	67.3022	27.832	67.3408	27.832	67.3191	27.832	67.5113	27.832	67.3424	27.832	67.7671	27.832	67.3915	27.832	68.1113	27.832	67.4939	27.832	68.5375	27.832	67.6812	27.832	69.0301	27.832	67.9805	27.832	69.5669	27.832	68.4032	27.832	70.1212	27.832	68.9372	27.832	70.6648	27.832	69.5479	27.832	71.1699	27.832	70.1865	27.832	71.6097	27.832	70.8019	27.832	71.9597	27.832	71.3487	27.832	72.1987	27.832	71.7915	27.832	72.3094	27.832	72.1064	27.832	72.2802
29.2969	69.4465	29.2969	69.4323	29.2969	69.4727	29.2969	69.4417	29.2969	69.5029	29.2969	69.4889	29.2969	69.5343	29.2969	69.5887	29.2969	69.5699	29.2969	69.7541	29.2969	69.6191	29.2969	69.9938	29.2969	69.6979	29.2969	70.3102	29.2969	69.8276	29.2969	70.6983	29.2969	70.0314	29.2969	71.1458	29.2969	70.3276	29.2969	71.6347	29.2969	70.7228	29.2969	72.1426	29.2969	71.2068	29.2969	72.6448	29.2969	71.7525	29.2969	73.1159	29.2969	72.3214	29.2969	73.5306	29.2969	72.8712	29.2969	73.8649	29.2969	73.3618	29.2969	74.0975	29.2969	73.7601	29.2969	74.211	29.2969	74.0422	29.2969	74.194
30.7617	70.9541	30.7617	70.9456	30.7617	70.9846	30.7617	70.9677	30.7617	71.0308	30.7617	71.0308	30.7617	71.0899	30.7617	71.145	30.7617	71.1635	30.7617	71.319	30.7617	71.2579	30.7617	71.5582	30.7617	71.3838	30.7617	71.8635	30.7617	71.5556	30.7617	72.2308	30.7617	71.7885	30.7617	72.6504	30.7617	72.0943	30.7617	73.1077	30.7617	72.4765	30.7617	73.5844	30.7617	72.9271	30.7617	74.0591	30.7617	73.4251	30.7617	74.5089	30.7617	73.9398	30.7617	74.9099	30.7617	74.4352	30.7617	75.2388	30.7617	74.876	30.7617	75.4745	30.7617	75.2312	30.7617	75.5996	30.7617	75.4779	30.7617	75.6022
32.2266	71.6244	32.2266	71.6137	32.2266	71.6567	32.2266	71.6313	32.2266	71.7059	32.2266	71.685	32.2266	71.7695	32.2266	71.7828	32.2266	71.8484	32.2266	71.9316	32.2266	71.9466	32.2266	72.1364	32.2266	72.0717	32.2266	72.3987	32.2266	72.2337	32.2266	72.716	32.2266	72.4438	32.2266	73.081	32.2266	72.7109	32.2266	73.4821	32.2266	73.0383	32.2266	73.9036	32.2266	73.4207	32.2266	74.3263	32.2266	73.8429	32.2266	74.7292	32.2266	74.2811	32.2266	75.09	32.2266	74.7057	32.2266	75.387	32.2266	75.0864	32.2266	75.6005	32.2266	75.3953	32.2266	75.7145	32.2266	75.6108	32.2266	75.719
33.6914	72.5778	33.6914	72.5747	33.6914	72.6034	33.6914	72.5989	33.6914	72.648	33.6914	72.6559	33.6914	72.7096	33.6914	72.7514	33.6914	72.7887	33.6914	72.8903	33.6914	72.8877	33.6914	73.076	33.6914	73.0119	33.6914	73.3095	33.6914	73.168	33.6914	73.5888	33.6914	73.3634	33.6914	73.9086	33.6914	73.6044	33.6914	74.2595	33.6914	73.8931	33.6914	74.6286	33.6914	74.2255	33.6914	75.0001	33.6914	74.5903	33.6914	75.3552	33.6914	74.9688	33.6914	75.6742	33.6914	75.3372	33.6914	75.9373	33.6914	75.6695	33.6914	76.1262	33.6914	75.9413	33.6914	76.2266	33.6914	76.1324	33.6914	76.2294
35.1562	74.1476	35.1562	74.1371	35.1562	74.1796	35.1562	74.1518	35.1562	74.2302	35.1562	74.196	35.1562	74.298	35.1562	74.2741	35.1562	74.3829	35.1562	74.39	35.1562	74.4865	35.1562	74.547	35.1562	74.6122	35.1562	74.7464	35.1562	74.7644	35.1562	74.9875	35.1562	74.9485	35.1562	75.2667	35.1562	75.1687	35.1562	75.5773	35.1562	75.4268	35.1562	75.9088	35.1562	75.72	35.1562	76.2475	35.1562	76.0394	35.1562	76.5768	35.1562	76.37	35.1562	76.878	35.1562	76.6914	35.1562	77.132	35.1562	76.9806	35.1562	77.3206	35.1562	77.2148	35.1562	77.4292	35.1562	77.3749	35.1562	77.4481
36.6211	74.9521	36.6211	74.9337	36.6211	74.9918	36.6211	74.9397	36.6211	75.0506	36.6211	74.9737	36.6211	75.127	36.6211	75.0393	36.6211	75.2207	36.6211	75.1402	36.6211	75.3326	36.6211	75.2793	36.6211	75.4648	36.6211	75.4583	36.6211	75.6205	36.6211	75.6773	36.6211	75.803	36.6211	75.9336	36.6211	76.0155	36.6211	76.2216	36.6211	76.2587	36.6211	76.5322	36.6211	76.5299	36.6211	76.8531	36.6211	76.8214	36.6211	77.1688	36.6211	77.1202	36.6211	77.4614	36.6211	77.4083	36.6211	77.7123	36.6211	77.6647	36.6211	77.904	36.6211	77.8689	36.6211	78.0216	36.6211	78.0032	36.6211	78.0556
38.0859	75.4059	38.0859	75.3839	38.0859	75.4489	38.0859	75.3852	38.0859	75.5109	38.0859	75.4126	38.0859	75.5904	38.0859	75.469	38.0859	75.6866	38.0859	75.557	38.0859	75.7994	38.0859	75.6788	38.0859	75.9297	38.0859	75.8356	38.0859	76.0788	38.0859	76.0273	38.0859	76.2485	38.0859	76.2517	38.0859	76.44	38.0859	76.5042	38.0859	76.6534	38.0859	76.7773	38.0859	76.8865	38.0859	77.0605	38.0859	77.1332	38.0859	77.3404	38.0859	77.3834	38.0859	77.6013	38.0859	77.6231	38.0859	77.8267	38.0859	77.8354	38.0859	78.0009	38.0859	78.003	38.0859	78.1109	38.0859	78.1109	38.0859	78.1483
39.5508	76.1904	39.5508	76.1636	39.5508	76.2376	39.5508	76.1594	39.5508	76.3032	39.5508	76.1801	39.5508	76.3855	39.5508	76.2279	39.5508	76.4832	39.5508	76.3046	39.5508	76.5953	39.5508	76.4116	39.5508	76.7215	39.5508	76.5496	39.5508	76.8619	39.5508	76.7182	39.5508	77.017	39.5508	76.9155	39.5508	77.1872	39.5508	77.1376	39.5508	77.3723	39.5508	77.3783	39.5508	77.5704	39.5508	77.6287	39.5508	77.7774	39.5508	77.8771	39.5508	77.9857	39.5508	78.1099	39.5508	78.1844	39.5508	78.3125	39.5508	78.36	39.5508	78.4706	39.5508	78.498	39.5508	78.5727	39.5508	78.5851	39.5508	78.6114
41.0156	77.0929	41.0156	77.0663	41.0156	77.1406	41.0156	77.0625	41.0156	77.2077	41.0156	77.083	41.0156	77.2926	41.0156	77.1292	41.0156	77.3937	41.0156	77.2025	41.0156	77.5098	41.0156	77.3038	41.0156	77.6397	41.0156	77.4336	41.0156	77.7827	41.0156	77.5918	41.0156	77.9385	41.0156	77.7768	41.0156	78.1068	41.0156	77.9857	41.0156	78.2869	41.0156	78.2132	41.0156	78.4769	41.0156	78.4515	41.0156	78.673	41.0156	78.6902	41.0156	78.8683	41.0156	78.9165	41.0156	79.0529	41.0156	79.1161	41.0156	79.2142	41.0156	79.2753	41.0156	79.3383	41.0156	79.382	41.0156	79.4128	41.0156	79.4286
42.4805	77.7092	42.4805	77.682	42.4805	77.7596	42.4805	77.6787	42.4805	77.8317	42.4805	77.7003	42.4805	77.9242	42.4805	77.7473	42.4805	78.0351	42.4805	77.8203	42.4805	78.1626	42.4805	77.9196	42.4805	78.3045	42.4805	78.0452	42.4805	78.4591	42.4805	78.1969	42.4805	78.6244	42.4805	78.3733	42.4805	78.799	42.4805	78.572	42.4805	78.9808	42.4805	78.7885	42.4805	79.1672	42.4805	79.0161	42.4805	79.354	42.4805	79.2457	42.4805	79.5348	42.4805	79.4657	42.4805	79.7009	42.4805	79.663	42.4805	79.8412	42.4805	79.8246	42.4805	79.944	42.4805	79.9388	42.4805	79.9987	42.4805	79.9978
43.9453	77.9964	43.9453	77.9651	43.9453	78.0484	43.9453	77.9553	43.9453	78.12	43.9453	77.9674	43.9453	78.2099	43.9453	78.0017	43.9453	78.3162	43.9453	78.0584	43.9453	78.4365	43.9453	78.1377	43.9453	78.5686	43.9453	78.2397	43.9453	78.71	43.9453	78.3642	43.9453	78.8584	43.9453	78.5104	43.9453	79.0117	43.9453	78.6766	43.9453	79.1677	43.9453	78.8596	43.9453	79.3239	43.9453	79.0541	43.9453	79.4768	43.9453	79.2528	43.9453	79.6213	43.9453	79.4461	43.9453	79.7507	43.9453	79.6227	43.9453	79.8565	43.9453	79.7711	43.9453	79.9293	43.9453	79.8811	43.9453	79.9608	43.9453	79.9453
45.4102	78.414	45.4102	78.3798	45.4102	78.4661	45.4102	78.364	45.4102	78.5352	45.4102	78.3669	45.4102	78.62	45.4102	78.3887	45.4102	78.7185	45.4102	78.4296	45.4102	78.8286	45.4102	78.4897	45.4102	78.9476	45.4102	78.5692	45.4102	79.0728	45.4102	78.668	45.4102	79.2016	45.4102	78.7859	45.4102	79.3316	45.4102	78.9217	45.4102	79.4605	45.4102	79.0732	45.4102	79.5861	45.4102	79.2363	45.4102	79.7059	45.4102	79.4052	45.4102	79.8163	45.4102	79.5719	45.4102	79.9126	45.4102	79.7267	45.4102	79.9885	45.4102	79.8596	45.4102	80.0368	45.4102	79.9617	45.4102	80.051	45.4102	80.0264
46.875	79.0245	46.875	78.9869	46.875	79.0811	46.875	78.9688	46.875	79.1556	46.875	78.9704	46.875	79.2463	46.875	78.9915	46.875	79.3509	46.875	79.0318	46.875	79.4668	46.875	79.091	46.875	79.5908	46.875	79.1688	46.875	79.7198	46.875	79.2649	46.875	79.8508	46.875	79.379	46.875	79.9808	46.875	79.51	46.875	80.1074	46.875	79.6563	46.875	80.2282	46.875	79.8143	46.875	80.341	46.875	79.9789	46.875	80.4427	46.875	80.1427	46.875	80.5291	46.875	80.2966	46.875	80.5948	46.875	80.4309	46.875	80.6334	46.875	80.5365	46.875	80.6388	46.875	80.6068
48.3398	79.349	48.3398	79.3066	48.3398	79.4135	48.3398	79.287	48.3398	79.4986	48.3398	79.2904	48.3398	79.6022	48.3398	79.3162	48.3398	79.7216	48.3398	79.3639	48.3398	79.8535	48.3398	79.4326	48.3398	79.9944	48.3398	79.5215	48.3398	80.1406	48.3398	79.6299	48.3398	80.2884	48.3398	79.757	48.3398	80.4344	48.3398	79.9016	48.3398	80.5756	48.3398	80.0617	48.3398	80.7094	48.3398	80.2338	48.3398	80.8328	48.3398	80.4126	48.3398	80.9426	48.3398	80.5905	48.3398	81.0343	48.3398	80.7582	48.3398	81.1022	48.3398	80.9054	48.3398	81.14	48.3398	81.0226	48.3398	81.1414	48.3398	81.1024
51.2695	79.7587	51.2695	79.7241	51.2695	79.8181	51.2695	79.7141	51.2695	79.9017	51.2695	79.7272	51.2695	80.0072	51.2695	79.7611	51.2695	80.1309	51.2695	79.8138	51.2695	80.2683	51.2695	79.8827	51.2695	80.414	51.2695	79.966	51.2695	80.5627	51.2695	80.062	51.2695	80.7091	51.2695	80.1694	51.2695	80.8486	51.2695	80.2873	51.2695	80.9772	51.2695	80.4144	51.2695	81.0915	51.2695	80.5491	51.2695	81.1887	51.2695	80.6886	51.2695	81.2663	51.2695	80.8287	51.2695	81.3217	51.2695	80.964	51.2695	81.3525	51.2695	81.0879	51.2695	81.3561	51.2695	81.1939	51.2695	81.3308	51.2695	81.2761
52.7344	80.5033	52.7344	80.474	52.7344	80.5469	52.7344	80.4582	52.7344	80.6052	52.7344	80.4548	52.7344	80.6773	52.7344	80.4624	52.7344	80.7615	52.7344	80.4798	52.7344	80.8552	52.7344	80.506	52.7344	80.9547	52.7344	80.5402	52.7344	81.0559	52.7344	80.5821	52.7344	81.1543	52.7344	80.6316	52.7344	81.2456	52.7344	80.6889	52.7344	81.3257	52.7344	80.7544	52.7344	81.3913	52.7344	80.8282	52.7344	81.4399	52.7344	80.9094	52.7344	81.4697	52.7344	80.9967	52.7344	81.4801	52.7344	81.087	52.7344	81.4711	52.7344	81.1766	52.7344	81.4432	52.7344	81.261	52.7344	81.3975	52.7344	81.3359
54.1992	81.0815	54.1992	81.038	54.1992	81.1267	54.1992	80.9961	54.1992	81.1739	54.1992	80.9561	54.1992	81.2233	54.1992	80.9186	54.1992	81.2747	54.1992	80.8843	54.1992	81.3275	54.1992	80.8545	54.1992	81.3805	54.1992	80.8303	54.1992	81.4317	54.1992	80.8133	54.1992	81.4785	54.1992	80.805	54.1992	81.5179	54.1992	80.8069	54.1992	81.5467	54.1992	80.8208	54.1992	81.5621	54.1992	80.8478	54.1992	81.5621	54.1992	80.8888	54.1992	81.5455	54.1992	80.9436	54.1992	81.5125	54.1992	81.0105	54.1992	81.4642	54.1992	81.0867	54.1992	81.4026	54.1992	81.1684	54.1992	81.3304	54.1992	81.2511
55.6641	80.9174	55.6641	80.8732	55.6641	80.9665	55.6641	80.8343	55.6641	81.0201	55.6641	80.8017	55.6641	81.078	55.6641	80.7761	55.6641	81.1401	55.6641	80.7584	55.6641	81.2059	55.6641	80.7495	55.6641	81.2744	55.6641	80.75	55.6641	81.3437	55.6641	80.7608	55.6641	81.4111	55.6641	80.7824	55.6641	81.4733	55.6641	80.8157	55.6641	81.5268	55.6641	80.8612	55.6641	81.5683	55.6641	80.9192	55.6641	81.5956	55.6641	80.9892	55.6641	81.607	55.6641	81.0697	55.6641	81.6019	55.6641	81.1575	55.6641	81.5799	55.6641	81.2483	55.6641	81.5413	55.6641	81.3367	55.6641	81.4867	55.6641	81.4175
58.5938	81.2064	58.5938	81.1549	58.5938	81.274	58.5938	81.1195	58.5938	81.3563	58.5938	81.0995	58.5938	81.451	58.5938	81.0933	58.5938	81.5547	58.5938	81.0988	58.5938	81.6633	58.5938	81.1137	58.5938	81.7717	58.5938	81.1361	58.5938	81.875	58.5938	81.1645	58.5938	81.9678	58.5938	81.1981	58.5938	82.0452	58.5938	81.2369	58.5938	82.103	58.5938	81.2816	58.5938	82.1382	58.5938	81.3336	58.5938	82.1491	58.5938	81.3939	58.5938	82.136	58.5938	81.4632	58.5938	82.1006	58.5938	81.5414	58.5938	82.046	58.5938	81.6268	58.5938	81.9762	58.5938	81.7167	58.5938	81.8954	58.5938	81.8075
60.0586	81.4882	60.0586	81.4404	60.0586	81.5483	60.0586	81.4048	60.0586	81.6199	60.0586	81.3806	60.0586	81.7013	60.0586	81.3665	60.0586	81.7899	60.0586	81.3608	60.0586	81.8821	60.0586	81.3619	60.0586	81.974	60.0586	81.3684	60.0586	82.0608	60.0586	81.3794	60.0586	82.1379	60.0586	81.3948	60.0586	82.2005	60.0586	81.4151	60.0586	82.2448	60.0586	81.4417	60.0586	82.2678	60.0586	81.4766	60.0586	82.2682	60.0586	81.5217	60.0586	82.2463	60.0586	81.5782	60.0586	82.2039	60.0586	81.6463	60.0586	82.1441	60.0586	81.7246	60.0586	82.0707	60.0586	81.8103	60.0586	81.9877	60.0586	81.8995
62.9883	81.6127	62.9883	81.5654	62.9883	81.673	62.9883	81.5309	62.9883	81.7461	62.9883	81.5081	62.9883	81.8308	62.9883	81.4958	62.9883	81.9247	62.9883	81.4922	62.9883	82.0249	62.9883	81.4959	62.9883	82.1271	62.9883	81.5056	62.9883	82.2266	62.9883	81.5205	62.9883	82.3181	62.9883	81.5405	62.9883	82.3961	62.9883	81.566	62.9883	82.4557	62.9883	81.5986	62.9883	82.4928	62.9883	81.64	62.9883	82.505	62.9883	81.6925	62.9883	82.4912	62.9883	81.7574	62.9883	82.4526	62.9883	81.835	62.9883	82.392	62.9883	81.924	62.9883	82.3133	62.9883	82.0214	62.9883	82.2216	62.9883	82.1223
64.4531	81.687	64.4531	81.6336	64.4531	81.754	64.4531	81.5938	64.4531	81.834	64.4531	81.5669	64.4531	81.9252	64.4531	81.5516	64.4531	82.0252	64.4531	81.5465	64.4531	82.1305	64.4531	81.5498	64.4531	82.2367	64.4531	81.5599	64.4531	82.339	64.4531	81.5757	64.4531	82.4318	64.4531	81.5965	64.4531	82.5095	64.4531	81.6227	64.4531	82.5672	64.4531	81.6552	64.4531	82.6007	64.4531	81.6959	64.4531	82.6072	64.4531	81.7467	64.4531	82.5863	64.4531	81.8096	64.4531	82.5391	64.4531	81.8854	64.4531	82.4692	64.4531	81.9737	64.4531	82.3814	64.4531	82.0722	64.4531	82.2818	64.4531	82.1766
67.3828	82.0292	67.3828	81.9778	67.3828	82.0947	67.3828	81.9406	67.3828	82.1734	67.3828	81.9166	67.3828	82.2635	67.3828	81.9042	67.3828	82.3623	67.3828	81.9015	67.3828	82.466	67.3828	81.9061	67.3828	82.5701	67.3828	81.9157	67.3828	82.6694	67.3828	81.9285	67.3828	82.7582	67.3828	81.9433	67.3828	82.8305	67.3828	81.9599	67.3828	82.8809	67.3828	81.9793	67.3828	82.9048	67.3828	82.0036	67.3828	82.8994	67.3828	82.0357	67.3828	82.8642	67.3828	82.0789	67.3828	82.8014	67.3828	82.1361	67.3828	82.716	67.3828	82.2089	67.3828	82.6148	67.3828	82.2971	67.3828	82.5061	67.3828	82.3978
68.8477	82.154	68.8477	82.1056	68.8477	82.2178	68.8477	82.0724	68.8477	82.2962	68.8477	82.0537	68.8477	82.3871	68.8477	82.0475	68.8477	82.4878	68.8477	82.0516	68.8477	82.5945	68.8477	82.0634	68.8477	82.7027	68.8477	82.0802	68.8477	82.8069	68.8477	82.0998	68.8477	82.9011	68.8477	82.1205	68.8477	82.9793	68.8477	82.1418	68.8477	83.0354	68.8477	82.1644	68.8477	83.0646	68.8477	82.1902	68.8477	83.0636	68.8477	82.2221	68.8477	83.0318	68.8477	82.2638	68.8477	82.9713	68.8477	82.3185	68.8477	82.8873	68.8477	82.3884	68.8477	82.7871	68.8477	82.4739	68.8477	82.6793	68.8477	82.5725
71.7773	82.192	71.7773	82.1434	71.7773	82.2547	71.7773	82.1091	71.7773	82.3302	71.7773	82.0882	71.7773	82.4169	71.7773	82.0792	71.7773	82.5119	71.7773	82.08	71.7773	82.6119	71.7773	82.0879	71.7773	82.7127	71.7773	82.1001	71.7773	82.8094	71.7773	82.1143	71.7773	82.8965	71.7773	82.1286	71.7773	82.9681	71.7773	82.1426	71.7773	83.0183	71.7773	82.1568	71.7773	83.0419	71.7773	82.1733	71.7773	83.0356	71.7773	82.1955	71.7773	82.9982	71.7773	82.2275	71.7773	82.9319	71.7773	82.2736	71.7773	82.842	71.7773	82.3369	71.7773	82.7364	71.7773	82.4183	71.7773	82.6246	71.7773	82.5159
74.707	82.384	74.707	82.3337	74.707	82.4461	74.707	82.2957	74.707	82.5191	74.707	82.2691	74.707	82.6011	74.707	82.2525	74.707	82.6895	74.707	82.2438	74.707	82.7811	74.707	82.2402	74.707	82.8722	74.707	82.2392	74.707	82.9581	74.707	82.2383	74.707	83.0336	74.707	82.236	74.707	83.0929	74.707	82.2319	74.707	83.1301	74.707	82.2272	74.707	83.1398	74.707	82.2246	74.707	83.1185	74.707	82.2284	74.707	83.0652	74.707	82.2442	74.707	82.9822	74.707	82.2773	74.707	82.8755	74.707	82.3324	74.707	82.7544	74.707	82.4113	74.707	82.6296	74.707	82.5122
77.6367	82.5922	77.6367	82.5444	77.6367	82.6521	77.6367	82.509	77.6367	82.7232	77.6367	82.485	77.6367	82.8038	77.6367	82.4709	77.6367	82.8913	77.6367	82.4642	77.6367	82.9826	77.6367	82.462	77.6367	83.074	77.6367	82.4613	77.6367	83.1607	77.6367	82.4595	77.6367	83.2371	77.6367	82.4548	77.6367	83.297	77.6367	82.4464	77.6367	83.334	77.6367	82.4355	77.6367	83.3423	77.6367	82.4252	77.6367	83.3179	77.6367	82.4202	77.6367	83.2597	77.6367	82.4268	77.6367	83.1703	77.6367	82.4517	77.6367	83.0562	77.6367	82.5004	77.6367	82.9278	77.6367	82.5758	77.6367	82.7973	77.6367	82.6767
79.1016	82.6194	79.1016	82.5709	79.1016	82.6796	79.1016	82.5345	79.1016	82.7506	79.1016	82.5093	79.1016	82.8305	79.1016	82.4937	79.1016	82.9168	79.1016	82.4853	79.1016	83.0063	79.1016	82.4812	79.1016	83.0954	79.1016	82.4782	79.1016	83.1793	79.1016	82.4736	79.1016	83.2526	79.1016	82.4655	79.1016	83.3091	79.1016	82.4532	79.1016	83.3426	79.1016	82.4379	79.1016	83.3472	79.1016	82.4227	79.1016	83.3188	79.1016	82.4128	79.1016	83.2564	79.1016	82.4146	79.1016	83.1626	79.1016	82.4354	79.1016	83.0443	79.1016	82.4811	79.1016	82.9119	79.1016	82.5549	79.1016	82.7783	79.1016	82.656
82.0312	82.6697	82.0312	82.6169	82.0312	82.7306	82.0312	82.5725	82.0312	82.7982	82.0312	82.5363	82.0312	82.8706	82.0312	82.5071	82.0312	82.9455	82.0312	82.4828	82.0312	83.0201	82.0312	82.4608	82.0312	83.0909	82.0312	82.4384	82.0312	83.1539	82.0312	82.4132	82.0312	83.2043	82.0312	82.3835	82.0312	83.2367	82.0312	82.3491	82.0312	83.2453	82.0312	82.3117	82.0312	83.2251	82.0312	82.2747	82.0312	83.1727	82.0312	82.244	82.0312	83.0877	82.0312	82.2268	82.0312	82.9736	82.0312	82.2312	82.0312	82.8383	82.0312	82.264	82.0312	82.6932	82.0312	82.3294	82.0312	82.5518	82.0312	82.4272
84.9609	82.6691	84.9609	82.6179	84.9609	82.7303	84.9609	82.5769	84.9609	82.8004	84.9609	82.5452	84.9609	82.8775	84.9609	82.5209	84.9609	82.959	84.9609	82.5013	84.9609	83.0415	84.9609	82.4831	84.9609	83.121	84.9609	82.4629	84.9609	83.1928	84.9609	82.4379	84.9609	83.2512	84.9609	82.4061	84.9609	83.2897	84.9609	82.3671	84.9609	83.3017	84.9609	82.3227	84.9609	83.2815	84.9609	82.2771	84.9609	83.2251	84.9609	82.2369	84.9609	83.132	84.9609	82.2106	84.9609	83.0063	84.9609	82.2077	84.9609	82.8569	84.9609	82.2368	84.9609	82.697	84.9609	82.3031	84.9609	82.542	84.9609	82.4068
87.8906	82.7817	87.8906	82.7202	87.8906	82.8515	87.8906	82.6681	87.8906	82.9275	87.8906	82.6254	87.8906	83.0073	87.8906	82.5912	87.8906	83.0884	87.8906	82.5633	87.8906	83.168	87.8906	82.5389	87.8906	83.2431	87.8906	82.5149	87.8906	83.3101	87.8906	82.4884	87.8906	83.3645	87.8906	82.4575	87.8906	83.4009	87.8906	82.4219	87.8906	83.413	87.8906	82.383	87.8906	83.395	87.8906	82.3447	87.8906	83.3423	87.8906	82.3135	87.8906	83.2538	87.8906	82.2973	87.8906	83.1324	87.8906	82.305	87.8906	82.986	87.8906	82.3443	87.8906	82.827	87.8906	82.4197	87.8906	82.6703	87.8906	82.5306
90.8203	82.6701	90.8203	82.6052	90.8203	82.7408	90.8203	82.5474	90.8203	82.8156	90.8203	82.4974	90.8203	82.8924	90.8203	82.4549	90.8203	82.9693	90.8203	82.4186	90.8203	83.0443	90.8203	82.3865	90.8203	83.1152	90.8203	82.3562	90.8203	83.1789	90.8203	82.3252	90.8203	83.2314	90.8203	82.292	90.8203	83.2676	90.8203	82.2564	90.8203	83.2814	90.8203	82.2199	90.8203	83.2667	90.8203	82.1865	90.8203	83.2188	90.8203	82.162	90.8203	83.1356	90.8203	82.1541	90.8203	83.0194	90.8203	82.171	90.8203	82.8772	90.8203	82.2196	90.8203	82.7203	90.8203	82.3031	90.8203	82.5631	90.8203	82.4201
95.2148	82.892	95.2148	82.8262	95.2148	82.9603	95.2148	82.7648	95.2148	83.0289	95.2148	82.7083	95.2148	83.0949	95.2148	82.6561	95.2148	83.1557	95.2148	82.6065	95.2148	83.2088	95.2148	82.5568	95.2148	83.2517	95.2148	82.5041	95.2148	83.2819	95.2148	82.446	95.2148	83.2962	95.2148	82.3807	95.2148	83.2907	95.2148	82.3085	95.2148	83.2607	95.2148	82.232	95.2148	83.2022	95.2148	82.1563	95.2148	83.1122	95.2148	82.0891	95.2148	82.9908	95.2148	82.0402	95.2148	82.8421	95.2148	82.0198	95.2148	82.6748	95.2148	82.0369	95.2148	82.5018	95.2148	82.0968	95.2148	82.3384	95.2148	82.1995
98.1445	83.0258	98.1445	82.9709	98.1445	83.0816	98.1445	82.9187	98.1445	83.1358	98.1445	82.8704	98.1445	83.1859	98.1445	82.8256	98.1445	83.23	98.1445	82.7825	98.1445	83.2665	98.1445	82.7382	98.1445	83.2938	98.1445	82.689	98.1445	83.31	98.1445	82.6316	98.1445	83.3119	98.1445	82.5634	98.1445	83.2955	98.1445	82.4839	98.1445	83.2558	98.1445	82.3946	98.1445	83.1878	98.1445	82.3006	98.1445	83.0884	98.1445	82.2096	98.1445	82.9579	98.1445	82.1322	98.1445	82.8014	98.1445	82.0806	98.1445	82.6294	98.1445	82.0663	98.1445	82.4569	98.1445	82.0977	98.1445	82.3009	98.1445	82.1774
101.074	82.7746	101.074	82.7217	101.074	82.8274	101.074	82.6701	101.074	82.8786	101.074	82.6204	101.074	82.9267	101.074	82.5721	101.074	82.9705	101.074	82.5238	101.074	83.0091	101.074	82.4735	101.074	83.0415	101.074	82.4184	101.074	83.0662	101.074	82.356	101.074	83.0801	101.074	82.285	101.074	83.0789	101.074	82.2054	101.074	83.0566	101.074	82.1196	101.074	83.0069	101.074	82.0328	101.074	82.9248	101.074	81.953	101.074	82.8087	101.074	81.8906	101.074	82.6619	101.074	81.8571	101.074	82.4935	101.074	81.8629	101.074	82.3178	101.074	81.9148	101.074	82.1521	101.074	82.0134
105.469	82.7231	105.469	82.6523	105.469	82.7902	105.469	82.581	105.469	82.8502	105.469	82.5116	105.469	82.8998	105.469	82.4451	105.469	82.9369	105.469	82.3811	105.469	82.9603	105.469	82.318	105.469	82.9696	105.469	82.2535	105.469	82.9648	105.469	82.1851	105.469	82.9454	105.469	82.1113	105.469	82.9101	105.469	82.032	105.469	82.8565	105.469	81.9495	105.469	82.7819	105.469	81.8685	105.469	82.6842	105.469	81.7963	105.469	82.5634	105.469	81.7418	105.469	82.423	105.469	81.7143	105.469	82.2703	105.469	81.7216	105.469	82.1162	105.469	81.7683	105.469	81.9733	105.469	81.854
108.398	82.8636	108.398	82.7803	108.398	82.9419	108.398	82.6953	108.398	83.0118	108.398	82.6113	108.398	83.0701	108.398	82.5296	108.398	83.1145	108.398	82.4498	108.398	83.1437	108.398	82.3704	108.398	83.1566	108.398	82.2888	108.398	83.1521	108.398	82.2026	108.398	83.1284	108.398	82.1097	108.398	83.0825	108.398	82.01	108.398	83.0105	108.398	81.9055	108.398	82.9087	108.398	81.8013	108.398	82.775	108.398	81.7053	108.398	82.6109	108.398	81.6279	108.398	82.423	108.398	81.5806	108.398	82.2228	108.398	81.5742	108.398	82.026	108.398	81.6164	108.398	81.8498	108.398	81.7097
112.793	82.5968	112.793	82.5225	112.793	82.6696	112.793	82.4497	112.793	82.7384	112.793	82.3811	112.793	82.8015	112.793	82.3184	112.793	82.8581	112.793	82.2623	112.793	82.9083	112.793	82.2121	112.793	82.9523	112.793	82.1659	112.793	82.9898	112.793	82.1213	112.793	83.0189	112.793	82.0758	112.793	83.0352	112.793	82.0282	112.793	83.0325	112.793	81.9788	112.793	83.0034	112.793	81.9307	112.793	82.9415	112.793	81.8893	112.793	82.8435	112.793	81.8629	112.793	82.7115	112.793	81.8609	112.793	82.5537	112.793	81.8923	112.793	82.3836	112.793	81.9631	112.793	82.2182	112.793	82.0738
117.188	82.6529	117.188	82.5539	117.188	82.7434	117.188	82.4507	117.188	82.8215	117.188	82.3467	117.188	82.8834	117.188	82.2446	117.188	82.9268	117.188	82.1465	117.188	82.9506	117.188	82.0531	117.188	82.9551	117.188	81.9649	117.188	82.9416	117.188	81.882	117.188	82.9118	117.188	81.8048	117.188	82.8668	117.188	81.7343	117.188	82.8064	117.188	81.6726	117.188	82.7296	117.188	81.6232	117.188	82.6348	117.188	81.5903	117.188	82.5212	117.188	81.5791	117.188	82.3904	117.188	81.5946	117.188	82.2468	117.188	81.6403	117.188	82.0979	117.188	81.7174	117.188	81.9535	117.188	81.8238
120.117	82.7869	120.117	82.6835	120.117	82.881	120.117	82.575	120.117	82.9616	120.117	82.4644	120.117	83.0242	120.117	82.3532	120.117	83.0654	120.117	82.2421	120.117	83.0831	120.117	82.1305	120.117	83.0763	120.117	82.0178	120.117	83.045	120.117	81.9038	120.117	82.9897	120.117	81.7893	120.117	82.9107	120.117	81.6767	120.117	82.808	120.117	81.5702	120.117	82.6818	120.117	81.4758	120.117	82.5331	120.117	81.4005	120.117	82.3651	120.117	81.3516	120.117	82.1837	120.117	81.3357	120.117	81.9977	120.117	81.3574	120.117	81.8179	120.117	81.4191	120.117	81.6553	120.117	81.5198
124.512	82.755	124.512	82.6519	124.512	82.8465	124.512	82.5417	124.512	82.922	124.512	82.428	124.512	82.9777	124.512	82.3126	124.512	83.0112	124.512	82.1959	124.512	83.0217	124.512	82.0769	124.512	83.0094	124.512	81.9538	124.512	82.9748	124.512	81.8251	124.512	82.9181	124.512	81.691	124.512	82.838	124.512	81.5535	124.512	82.7321	124.512	81.4176	124.512	82.598	124.512	81.2909	124.512	82.4344	124.512	81.1832	124.512	82.2437	124.512	81.1051	124.512	82.0325	124.512	81.0667	124.512	81.8124	124.512	81.0757	124.512	81.5982	124.512	81.1363	124.512	81.4054	124.512	81.248
128.906	82.5995	128.906	82.4919	128.906	82.6962	128.906	82.3781	128.906	82.7777	128.906	82.2623	128.906	82.8409	128.906	82.1471	128.906	82.8839	128.906	82.0338	128.906	82.9067	128.906	81.9218	128.906	82.91	128.906	81.8095	128.906	82.8942	128.906	81.695	128.906	82.8589	128.906	81.5775	128.906	82.8015	128.906	81.4575	128.906	82.7174	128.906	81.3384	128.906	82.6019	128.906	81.2262	128.906	82.4511	128.906	81.1294	128.906	82.2658	128.906	81.0584	128.906	82.0521	128.906	81.0241	128.906	81.8228	128.906	81.0361	128.906	81.5954	128.906	81.1009	128.906	81.3889	128.906	81.2202
133.301	82.5586	133.301	82.4473	133.301	82.6552	133.301	82.3262	133.301	82.7328	133.301	82.2	133.301	82.7889	133.301	82.0721	133.301	82.8226	133.301	81.9448	133.301	82.8345	133.301	81.8186	133.301	82.8267	133.301	81.6928	133.301	82.801	133.301	81.5667	133.301	82.758	133.301	81.4399	133.301	82.6961	133.301	81.3141	133.301	82.6116	133.301	81.1929	133.301	82.4994	133.301	81.0828	133.301	82.3552	133.301	80.9923	133.301	82.1782	133.301	80.9311	133.301	81.973	133.301	80.9091	133.301	81.7502	133.301	80.9346	133.301	81.5256	133.301	81.0123	133.301	81.3173	133.301	81.142
139.16	82.2177	139.16	82.1006	139.16	82.3229	139.16	81.9765	139.16	82.412	139.16	81.8509	139.16	82.4825	139.16	81.7284	139.16	82.5338	139.16	81.6121	139.16	82.5669	139.16	81.5033	139.16	82.5839	139.16	81.4015	139.16	82.5867	139.16	81.3052	139.16	82.5756	139.16	81.2127	139.16	82.5481	139.16	81.1235	139.16	82.4988	139.16	81.0392	139.16	82.4205	139.16	80.9642	139.16	82.3068	139.16	80.9054	139.16	82.1549	139.16	80.8719	139.16	81.9683	139.16	80.8732	139.16	81.7574	139.16	80.9174	139.16	81.5383	139.16	81.0095	139.16	81.3297	139.16	81.1491
143.555	82.1091	143.555	81.9724	143.555	82.2332	143.555	81.8302	143.555	82.3389	143.555	81.6896	143.555	82.4218	143.555	81.5567	143.555	82.4802	143.555	81.4358	143.555	82.5151	143.555	81.3294	143.555	82.5296	143.555	81.2375	143.555	82.5272	143.555	81.1585	143.555	82.5107	143.555	81.0901	143.555	82.4802	143.555	81.0304	143.555	82.432	143.555	80.9789	143.555	82.3599	143.555	80.9372	143.555	82.2576	143.555	80.9096	143.555	82.1213	143.555	80.9023	143.555	81.9533	143.555	80.9225	143.555	81.7623	143.555	80.977	143.555	81.5627	143.555	81.0705	143.555	81.3713	143.555	81.2036
147.949	82.2977	147.949	82.1455	147.949	82.4275	147.949	81.9776	147.949	82.529	147.949	81.8008	147.949	82.5981	147.949	81.6215	147.949	82.633	147.949	81.4451	147.949	82.6345	147.949	81.2758	147.949	82.6062	147.949	81.1168	147.949	82.5529	147.949	80.9703	147.949	82.4798	147.949	80.8385	147.949	82.3901	147.949	80.7237	147.949	82.2841	147.949	80.6286	147.949	82.1593	147.949	80.5569	147.949	82.0119	147.949	80.5129	147.949	81.8398	147.949	80.501	147.949	81.6449	147.949	80.5255	147.949	81.4346	147.949	80.5895	147.949	81.2208	147.949	80.6946	147.949	81.0179	147.949	80.8392
153.809	82.2354	153.809	82.0811	153.809	82.3586	153.809	81.9027	153.809	82.4454	153.809	81.708	153.809	82.4934	153.809	81.5047	153.809	82.5038	153.809	81.2995	153.809	82.4805	153.809	81.0982	153.809	82.4303	153.809	80.9055	153.809	82.3599	153.809	80.7254	153.809	82.2753	153.809	80.5618	153.809	82.1786	153.809	80.4192	153.809	82.0686	153.809	80.3026	153.809	81.941	153.809	80.2174	153.809	81.7905	153.809	80.169	153.809	81.6144	153.809	80.1617	153.809	81.4143	153.809	80.1982	153.809	81.1972	153.809	80.2793	153.809	80.9745	153.809	80.4033	153.809	80.7598	153.809	80.5659
159.668	82.2874	159.668	82.1527	159.668	82.3934	159.668	81.9945	159.668	82.4668	159.668	81.8182	159.668	82.5063	159.668	81.6288	159.668	82.5127	159.668	81.4305	159.668	82.4896	159.668	81.2261	159.668	82.4422	159.668	81.0184	159.668	82.3759	159.668	80.8107	159.668	82.2943	159.668	80.6082	159.668	82.198	159.668	80.4187	159.668	82.0844	159.668	80.253	159.668	81.9482	159.668	80.1232	159.668	81.7851	159.668	80.0412	159.668	81.5934	159.668	80.0152	159.668	81.3766	159.668	80.0486	159.668	81.1431	159.668	80.139	159.668	80.9043	159.668	80.2795	159.668	80.6729	159.668	80.4609
165.527	82.086	165.527	81.9537	165.527	82.1912	165.527	81.8025	165.527	82.2628	165.527	81.6403	165.527	82.2972	165.527	81.4742	165.527	82.2941	165.527	81.3086	165.527	82.2574	165.527	81.1459	165.527	82.194	165.527	80.9859	165.527	82.1123	165.527	80.8283	165.527	82.0194	165.527	80.6734	165.527	81.9191	165.527	80.5239	165.527	81.8101	165.527	80.386	165.527	81.6873	165.527	80.269	165.527	81.5447	165.527	80.1836	165.527	81.3793	165.527	80.1397	165.527	81.1932	165.527	80.1435	165.527	80.994	165.527	80.1964	165.527	80.793	165.527	80.2951	165.527	80.6023	165.527	80.4331
171.387	81.9383	171.387	81.7815	171.387	82.0653	171.387	81.6045	171.387	82.1554	171.387	81.4172	171.387	82.2045	171.387	81.2286	171.387	82.2124	171.387	81.0449	171.387	82.1824	171.387	80.869	171.387	82.1206	171.387	80.701	171.387	82.0337	171.387	80.5393	171.387	81.9273	171.387	80.3832	171.387	81.804	171.387	80.2344	171.387	81.6632	171.387	80.0987	171.387	81.5024	171.387	79.985	171.387	81.32	171.387	79.9039	171.387	81.1187	171.387	79.8646	171.387	80.9058	171.387	79.8717	171.387	80.6925	171.387	79.9247	171.387	80.4899	171.387	80.0188	171.387	80.3064	171.387	80.1479
177.246	81.7996	177.246	81.6303	177.246	81.9314	177.246	81.4321	177.246	82.0201	177.246	81.2152	177.246	82.0631	177.246	80.9908	177.246	82.0619	177.246	80.7697	177.246	82.0215	177.246	80.5612	177.246	81.9497	177.246	80.3726	177.246	81.8552	177.246	80.2085	177.246	81.7448	177.246	80.0715	177.246	81.622	177.246	79.9631	177.246	81.486	177.246	79.8845	177.246	81.3338	177.246	79.837	177.246	81.1635	177.246	79.8215	177.246	80.9782	177.246	79.8376	177.246	80.7864	177.246	79.8828	177.246	80.5999	177.246	79.9526	177.246	80.4292	177.246	80.043	177.246	80.2798	177.246	80.1517
183.105	81.7797	183.105	81.6313	183.105	81.8917	183.105	81.4528	183.105	81.9627	183.105	81.2511	183.105	81.991	183.105	81.0325	183.105	81.9781	183.105	80.8026	183.105	81.9292	183.105	80.5657	183.105	81.8519	183.105	80.3265	183.105	81.754	183.105	80.0906	183.105	81.6414	183.105	79.8664	183.105	81.5152	183.105	79.6656	183.105	81.372	183.105	79.5017	183.105	81.2061	183.105	79.3882	183.105	81.014	183.105	79.3338	183.105	80.7981	183.105	79.3392	183.105	80.5686	183.105	79.397	183.105	80.3401	183.105	79.4947	183.105	80.1264	183.105	79.6203	183.105	79.9353	183.105	79.7673
188.965	81.7236	188.965	81.5576	188.965	81.8477	188.965	81.358	188.965	81.9238	188.965	81.1331	188.965	81.9484	188.965	80.8908	188.965	81.9226	188.965	80.6376	188.965	81.8519	188.965	80.3782	188.965	81.746	188.965	80.1163	188.965	81.6163	188.965	79.8557	188.965	81.4729	188.965	79.6019	188.965	81.3213	188.965	79.3644	188.965	81.1609	188.965	79.1572	188.965	80.9866	188.965	78.9974	188.965	80.7931	188.965	78.9017	188.965	80.5787	188.965	78.8806	188.965	80.3472	188.965	78.9343	188.965	80.1071	188.965	79.0523	188.965	79.8674	188.965	79.2184	188.965	79.6353	188.965	79.4166
196.289	81.8894	196.289	81.7341	196.289	82.0031	196.289	81.5482	196.289	82.0657	196.289	81.3427	196.289	82.0717	196.289	81.1265	196.289	82.0204	196.289	80.9054	196.289	81.917	196.289	80.6818	196.289	81.7715	196.289	80.4555	196.289	81.5967	196.289	80.2262	196.289	81.4048	196.289	79.9961	196.289	81.2047	196.289	79.7721	196.289	81.0002	196.289	79.5671	196.289	80.7922	196.289	79.3982	196.289	80.5818	196.289	79.2823	196.289	80.3732	196.289	79.2299	196.289	80.1734	196.289	79.2411	196.289	79.9888	196.289	79.3057	196.289	79.822	196.289	79.4077	196.289	79.6708	196.289	79.5322
203.613	81.6833	203.613	81.5295	203.613	81.7861	203.613	81.3345	203.613	81.8313	203.613	81.1097	203.613	81.8174	203.613	80.8654	203.613	81.7487	203.613	80.6102	203.613	81.6348	203.613	80.3499	203.613	81.4892	203.613	80.0882	203.613	81.3255	203.613	79.8284	203.613	81.1531	203.613	79.5758	203.613	80.974	203.613	79.3392	203.613	80.7822	203.613	79.1314	203.613	80.5686	203.613	78.9669	203.613	80.3287	203.613	78.8585	203.613	80.0691	203.613	78.8117	203.613	79.808	203.613	78.8225	203.613	79.5683	203.613	78.8786	203.613	79.3663	203.613	78.9653	203.613	79.2041	203.613	79.0734
210.938	81.5633	210.938	81.4197	210.938	81.6587	210.938	81.2377	210.938	81.6982	210.938	81.0272	210.938	81.6783	210.938	80.7965	210.938	81.6007	210.938	80.5508	210.938	81.4728	210.938	80.2922	210.938	81.3068	210.938	80.0211	210.938	81.1181	210.938	79.7386	210.938	80.921	210.938	79.4503	210.938	80.7246	210.938	79.1686	210.938	80.5303	210.938	78.9138	210.938	80.3325	210.938	78.7106	210.938	80.1249	210.938	78.5813	210.938	79.9064	210.938	78.5366	210.938	79.6845	210.938	78.571	210.938	79.4716	210.938	78.6651	210.938	79.277	210.938	78.7948	210.938	79.1023	210.938	78.9427
218.262	81.3298	218.262	81.145	218.262	81.4615	218.262	80.9213	218.262	81.5296	218.262	80.6745	218.262	81.5287	218.262	80.4197	218.262	81.46	218.262	80.1694	218.262	81.3319	218.262	79.9315	218.262	81.1599	218.262	79.71	218.262	80.9646	218.262	79.5057	218.262	80.7677	218.262	79.3191	218.262	80.5865	218.262	79.1533	218.262	80.4281	218.262	79.0152	218.262	80.2883	218.262	78.9153	218.262	80.1559	218.262	78.8642	218.262	80.0199	218.262	78.8675	218.262	79.8755	218.262	78.9227	218.262	79.7247	218.262	79.019	218.262	79.5726	218.262	79.1418	218.262	79.4234	218.262	79.279
225.586	81.6239	225.586	81.4362	225.586	81.7473	225.586	81.1968	225.586	81.7963	225.586	80.9192	225.586	81.765	225.586	80.6171	225.586	81.6527	225.586	80.3028	225.586	81.4651	225.586	79.9872	225.586	81.2148	225.586	79.6799	225.586	80.9208	225.586	79.3901	225.586	80.607	225.586	79.128	225.586	80.2997	225.586	78.9062	225.586	80.0233	225.586	78.7391	225.586	79.7965	225.586	78.6403	225.586	79.6283	225.586	78.6174	225.586	79.5169	225.586	78.6675	225.586	79.449	225.586	78.775	225.586	79.4033	225.586	78.9153	225.586	79.3565	225.586	79.0612	225.586	79.2889	225.586	79.1901
232.91	81.437	232.91	81.242	232.91	81.5688	232.91	80.9976	232.91	81.6259	232.91	80.7178	232.91	81.6002	232.91	80.4158	232.91	81.4886	232.91	80.1032	232.91	81.2941	232.91	79.7898	232.91	81.0259	232.91	79.4846	232.91	80.6995	232.91	79.196	232.91	80.3367	232.91	78.9337	232.91	79.9641	232.91	78.7084	232.91	79.6114	232.91	78.5322	232.91	79.3068	232.91	78.4168	232.91	79.0725	232.91	78.369	232.91	78.9188	232.91	78.3869	232.91	78.8392	232.91	78.4572	232.91	78.8114	232.91	78.5566	232.91	78.8036	232.91	78.6581	232.91	78.7858	232.91	78.7384
241.699	81.2957	241.699	81.0492	241.699	81.4776	241.699	80.7525	241.699	81.5841	241.699	80.4204	241.699	81.6089	241.699	80.0669	241.699	81.5508	241.699	79.7032	241.699	81.4132	241.699	79.3382	241.699	81.2025	241.699	78.9811	241.699	80.9264	241.699	78.6437	241.699	80.5915	241.699	78.3429	241.699	80.2031	241.699	78.0998	241.699	79.7674	241.699	77.9337	241.699	79.2994	241.699	77.8553	241.699	78.8329	241.699	77.8595	241.699	78.4237	241.699	77.9244	241.699	78.1344	241.699	78.016	241.699	77.9986	241.699	78.0968	241.699	77.9944	241.699	78.1361	241.699	78.0574	241.699	78.1192
250.488	81.7751	250.488	81.4933	250.488	81.9789	250.488	81.1433	250.488	82.0971	250.488	80.7362	250.488	82.1255	250.488	80.284	250.488	82.0639	250.488	79.7996	250.488	81.9155	250.488	79.2974	250.488	81.6871	250.488	78.7947	250.488	81.3873	250.488	78.3134	250.488	81.027	250.488	77.881	250.488	80.6191	250.488	77.529	250.488	80.1801	250.488	77.2869	250.488	79.7309	250.488	77.1727	250.488	79.2971	250.488	77.1829	250.488	78.9063	250.488	77.2912	250.488	78.5827	250.488	77.4561	250.488	78.3387	250.488	77.6347	250.488	78.1671	250.488	77.7956	250.488	78.0417	250.488	77.9275
259.277	81.468	259.277	81.2586	259.277	81.618	259.277	80.9977	259.277	81.702	259.277	80.6926	259.277	81.7169	259.277	80.3475	259.277	81.664	259.277	79.9645	259.277	81.5475	259.277	79.5463	259.277	81.3719	259.277	79.1007	259.277	81.1383	259.277	78.6457	259.277	80.8431	259.277	78.213	259.277	80.4799	259.277	77.8454	259.277	80.0479	259.277	77.5872	259.277	79.5633	259.277	77.4671	259.277	79.0706	259.277	77.4841	259.277	78.6402	259.277	77.6062	259.277	78.3403	259.277	77.7821	259.277	78.1946	259.277	77.9589	259.277	78.1647	259.277	78.0943	259.277	78.1772	259.277	78.1658
268.066	81.3227	268.066	81.0771	268.066	81.4889	268.066	80.7639	268.066	81.5685	268.066	80.3958	268.066	81.5618	268.066	79.9822	268.066	81.4776	268.066	79.5267	268.066	81.3318	268.066	79.0281	268.066	81.1434	268.066	78.4865	268.066	80.9275	268.066	77.9129	268.066	80.6873	268.066	77.3417	268.066	80.4097	268.066	76.8393	268.066	80.0703	268.066	76.494	268.066	79.6483	268.066	76.377	268.066	79.1481	268.066	76.4923	268.066	78.6168	268.066	76.7659	268.066	78.1424	268.066	77.0884	268.066	77.8141	268.066	77.3658	268.066	77.661	268.066	77.5443	268.066	77.6283	268.066	77.6177
276.855	81.1698	276.855	80.9398	276.855	81.318	276.855	80.6382	276.855	81.3803	276.855	80.2806	276.855	81.3588	276.855	79.885	276.855	81.2608	276.855	79.468	276.855	81.0978	276.855	79.0398	276.855	80.8856	276.855	78.6013	276.855	80.6434	276.855	78.146	276.855	80.3929	276.855	77.667	276.855	80.152	276.855	77.1699	276.855	79.9244	276.855	76.6869	276.855	79.6926	276.855	76.2849	276.855	79.4255	276.855	76.0498	276.855	79.0982	276.855	76.04	276.855	78.713	276.855	76.2379	276.855	78.304	276.855	76.5587	276.855	77.9154	276.855	76.91	276.855	77.5682	276.855	77.2442
287.109	81.1553	287.109	81.0135	287.109	81.2307	287.109	80.8093	287.109	81.2363	287.109	80.5447	287.109	81.173	287.109	80.2184	287.109	81.0488	287.109	79.8275	287.109	80.8781	287.109	79.3717	287.109	80.6774	287.109	78.8592	287.109	80.4576	287.109	78.3127	287.109	80.2184	287.109	77.7748	287.109	79.9496	287.109	77.3051	287.109	79.6441	287.109	76.9675	287.109	79.3134	287.109	76.8055	287.109	78.9938	287.109	76.8219	287.109	78.7309	287.109	76.9804	287.109	78.5477	287.109	77.2257	287.109	78.4261	287.109	77.504	287.109	78.3207	287.109	77.7736	287.109	78.1885	287.109	78.0066
297.363	81.4287	297.363	81.2877	297.363	81.4984	297.363	81.0917	297.363	81.4819	297.363	80.8522	297.363	81.3702	297.363	80.5698	297.363	81.1621	297.363	80.2321	297.363	80.8652	297.363	79.8168	297.363	80.4962	297.363	79.3007	297.363	80.0812	297.363	78.6724	297.363	79.6519	297.363	77.9484	297.363	79.2395	297.363	77.193	297.363	78.8658	297.363	76.5322	297.363	78.5427	297.363	76.1295	297.363	78.2819	297.363	76.0941	297.363	78.1033	297.363	76.389	297.363	78.0235	297.363	76.8594	297.363	78.0308	297.363	77.3418	297.363	78.0726	297.363	77.7286	297.363	78.0752	297.363	77.973
307.617	80.9339	307.617	80.6925	307.617	81.1094	307.617	80.4072	307.617	81.2019	307.617	80.1015	307.617	81.2005	307.617	79.7944	307.617	81.1012	307.617	79.4942	307.617	80.906	307.617	79.1942	307.617	80.6213	307.617	78.8736	307.617	80.2543	307.617	78.5051	307.617	79.8113	307.617	78.0652	307.617	79.299	307.617	77.5491	307.617	78.7343	307.617	76.9884	307.617	78.1592	307.617	76.4671	307.617	77.6505	307.617	76.1117	307.617	77.3022	307.617	76.0297	307.617	77.1667	307.617	76.223	307.617	77.2023	307.617	76.5774	307.617	77.2932	307.617	76.9428	307.617	77.3192	307.617	77.2067
319.336	81.0098	319.336	80.7799	319.336	81.1629	319.336	80.4991	319.336	81.2182	319.336	80.1909	319.336	81.1661	319.336	79.8686	319.336	81.0106	319.336	79.5319	319.336	80.7668	319.336	79.1693	319.336	80.454	319.336	78.7648	319.336	80.0856	319.336	78.3089	319.336	79.6626	319.336	77.8086	319.336	79.1741	319.336	77.2965	319.336	78.6105	319.336	76.834	319.336	77.9885	319.336	76.4994	319.336	77.381	319.336	76.3568	319.336	76.918	319.336	76.417	319.336	76.7182	319.336	76.6251	319.336	76.7813	319.336	76.8858	319.336	76.9776	319.336	77.1018	319.336	77.1503	319.336	77.2005
329.59	80.8498	329.59	80.5931	329.59	81.0172	329.59	80.281	329.59	81.0759	329.59	79.9518	329.59	81.0251	329.59	79.6329	329.59	80.8793	329.59	79.3275	329.59	80.6622	329.59	79.0113	329.59	80.3964	329.59	78.6449	329.59	80.0952	329.59	78.193	329.59	79.7545	329.59	77.6466	329.59	79.3512	329.59	77.0409	329.59	78.8516	329.59	76.4676	329.59	78.236	329.59	76.0616	329.59	77.5388	329.59	75.9373	329.59	76.8875	329.59	76.1024	329.59	76.479	329.59	76.4433	329.59	76.433	329.59	76.7997	329.59	76.6572	329.59	77.0394	329.59	76.934	329.59	77.0869
341.309	80.8593	341.309	80.5348	341.309	81.0738	341.309	80.126	341.309	81.167	341.309	79.6721	341.309	81.1403	341.309	79.2206	341.309	81.0071	341.309	78.813	341.309	80.7907	341.309	78.4649	341.309	80.5187	341.309	78.155	341.309	80.2108	341.309	77.834	341.309	79.8642	341.309	77.4499	341.309	79.4474	341.309	76.9802	341.309	78.913	341.309	76.4599	341.309	78.2325	341.309	75.9967	341.309	77.4471	341.309	75.7426	341.309	76.7148	341.309	75.7948	341.309	76.2752	341.309	76.1021	341.309	76.2546	341.309	76.4968	341.309	76.5154	341.309	76.8055	341.309	76.7978	341.309	76.9163
353.027	80.6635	353.027	80.4058	353.027	80.8026	353.027	80.0519	353.027	80.8166	353.027	79.6367	353.027	80.715	353.027	79.1984	353.027	80.521	353.027	78.7644	353.027	80.2672	353.027	78.338	353.027	79.9922	353.027	77.8941	353.027	79.7311	353.027	77.3922	353.027	79.4989	353.027	76.8008	353.027	79.2719	353.027	76.1313	353.027	78.9867	353.027	75.4734	353.027	78.5695	353.027	75.0086	353.027	77.9839	353.027	74.9274	353.027	77.2847	353.027	75.2533	353.027	76.6481	353.027	75.795	353.027	76.3002	353.027	76.3054	353.027	76.3141	353.027	76.6184	353.027	76.5204	353.027	76.675
366.211	81.3497	366.211	81.1303	366.211	81.456	366.211	80.8151	366.211	81.4356	366.211	80.4225	366.211	81.2813	366.211	79.9675	366.211	80.9957	366.211	79.4578	366.211	80.5966	366.211	78.8908	366.211	80.1219	366.211	78.2565	366.211	79.6271	366.211	77.543	366.211	79.1669	366.211	76.7451	366.211	78.7639	366.211	75.8754	366.211	78.3869	366.211	74.9866	366.211	77.9675	366.211	74.2044	366.211	77.4508	366.211	73.7325	366.211	76.851	366.211	73.7372	366.211	76.2787	366.211	74.1651	366.211	75.8891	366.211	74.7644	366.211	75.7386	366.211	75.285	366.211	75.706	366.211	75.5972
379.395	80.5714	379.395	80.2347	379.395	80.8001	379.395	79.8418	379.395	80.8878	379.395	79.4556	379.395	80.8207	379.395	79.1281	379.395	80.6022	379.395	78.874	379.395	80.2516	379.395	78.6582	379.395	79.8022	379.395	78.4112	379.395	79.2983	379.395	78.0587	379.395	78.7852	379.395	77.549	379.395	78.2897	379.395	76.8738	379.395	77.8054	379.395	76.0963	379.395	77.3056	379.395	75.3792	379.395	76.7939	379.395	74.9622	379.395	76.3552	379.395	75.004	379.395	76.1318	379.395	75.4189	379.395	76.1889	379.395	75.9582	379.395	76.4158	379.395	76.4012	379.395	76.6131	379.395	76.6284
392.578	80.5644	392.578	80.2024	392.578	80.754	392.578	79.7069	392.578	80.7596	392.578	79.1474	392.578	80.5929	392.578	78.6178	392.578	80.2842	392.578	78.205	392.578	79.8765	392.578	77.9384	392.578	79.4183	392.578	77.7619	392.578	78.9538	392.578	77.5633	392.578	78.5113	392.578	77.229	392.578	78.089	392.578	76.6871	392.578	77.6499	392.578	75.9377	392.578	77.1416	392.578	75.0985	392.578	76.5451	392.578	74.4448	392.578	75.9371	392.578	74.2953	392.578	75.5069	392.578	74.6839	392.578	75.4282	392.578	75.2979	392.578	75.6518	392.578	75.8005	392.578	75.9279	392.578	76.0167
405.762	81.0378	405.762	80.6827	405.762	81.187	405.762	80.1387	405.762	81.1319	405.762	79.4465	405.762	80.8906	405.762	78.679	405.762	80.4948	405.762	77.944	405.762	79.9856	405.762	77.3553	405.762	79.4086	405.762	76.9659	405.762	78.8112	405.762	76.7184	405.762	78.2359	405.762	76.4787	405.762	77.7077	405.762	76.118	405.762	77.2244	405.762	75.5785	405.762	76.7664	405.762	74.9218	405.762	76.3291	405.762	74.3701	405.762	75.9568	405.762	74.2301	405.762	75.7408	405.762	74.6011	405.762	75.7481	405.762	75.2326	405.762	75.925	405.762	75.7916	405.762	76.0997	405.762	76.0891
420.41	81.0721	420.41	80.7442	420.41	81.2294	420.41	80.2704	420.41	81.2176	420.41	79.7019	420.41	81.0603	420.41	79.1101	420.41	80.795	420.41	78.5684	420.41	80.461	420.41	78.1224	420.41	80.0866	420.41	77.7691	420.41	79.678	420.41	77.4598	420.41	79.2143	420.41	77.1258	420.41	78.649	420.41	76.7074	420.41	77.9265	420.41	76.1807	420.41	77.0251	420.41	75.5895	420.41	76.0339	420.41	75.0736	420.41	75.2259	420.41	74.838	420.41	74.9388	420.41	74.9942	420.41	75.1994	420.41	75.4193	420.41	75.6717	420.41	75.8547	420.41	76.0217	420.41	76.0885
435.059	81.0971	435.059	80.7773	435.059	81.2124	435.059	80.2519	435.059	81.14	435.059	79.5409	435.059	80.9098	435.059	78.6998	435.059	80.5632	435.059	77.8405	435.059	80.1513	435.059	77.1291	435.059	79.7335	435.059	76.7078	435.059	79.3582	435.059	76.5714	435.059	79.0202	435.059	76.561	435.059	78.6384	435.059	76.4956	435.059	78.0989	435.059	76.2836	435.059	77.3533	435.059	75.9651	435.059	76.536	435.059	75.7153	435.059	76.0098	435.059	75.7566	435.059	76.0801	435.059	76.1516	435.059	76.5858	435.059	76.72	435.059	77.1261	435.059	77.2153	435.059	77.4503	435.059	77.4795
451.172	81.9832	451.172	81.5415	451.172	82.1767	451.172	80.8491	451.172	82.1342	451.172	79.9205	451.172	81.8719	451.172	78.8005	451.172	81.4039	451.172	77.5841	451.172	80.7431	451.172	76.427	451.172	79.9126	451.172	75.4988	451.172	78.9634	451.172	74.8635	451.172	77.9762	451.172	74.4101	451.172	77.022	451.172	73.9485	451.172	76.0955	451.172	73.3678	451.172	75.0966	451.172	72.7722	451.172	73.9313	451.172	72.5499	451.172	72.763	451.172	73.0693	451.172	72.2767	451.172	74.1296	451.172	73.0156	451.172	75.1847	451.172	74.3452	451.172	75.851	451.172	75.4352	451.172	75.9545
465.82	82.4834	465.82	82.2248	465.82	82.5275	465.82	81.739	465.82	82.3697	465.82	81.0143	465.82	82.0208	465.82	80.0423	465.82	81.4909	465.82	78.8287	465.82	80.8017	465.82	77.4217	465.82	80.0059	465.82	75.9628	465.82	79.1884	465.82	74.7095	465.82	78.4181	465.82	73.8866	465.82	77.6655	465.82	73.4131	465.82	76.7713	465.82	72.9527	465.82	75.5143	465.82	72.2511	465.82	73.7616	465.82	71.4015	465.82	71.7858	465.82	70.9777	465.82	70.7115	465.82	71.5009	465.82	71.306	465.82	72.552	465.82	72.5105	465.82	73.4035	465.82	73.3983	465.82	73.7102
483.398	82.148	483.398	81.9569	483.398	82.1854	483.398	81.612	483.398	82.0777	483.398	81.1149	483.398	81.844	483.398	80.462	483.398	81.5068	483.398	79.6447	483.398	81.081	483.398	78.6593	483.398	80.5683	483.398	77.5348	483.398	79.9636	483.398	76.3779	483.398	79.2701	483.398	75.385	483.398	78.5076	483.398	74.7166	483.398	77.6947	483.398	74.304	483.398	76.8201	483.398	73.8937	483.398	75.8534	483.398	73.2859	483.398	74.8148	483.398	72.4931	483.398	73.8345	483.398	71.7738	483.398	73.0846	483.398	71.4578	483.398	72.6028	483.398	71.5876	483.398	72.2592	483.398	71.9195
499.512	81.3277	499.512	81.2107	499.512	81.3338	499.512	80.9954	499.512	81.24	499.512	80.6983	499.512	81.0794	499.512	80.3112	499.512	80.8893	499.512	79.7865	499.512	80.6889	499.512	79.0487	499.512	80.4664	499.512	78.0352	499.512	80.1745	499.512	76.7665	499.512	79.7313	499.512	75.4436	499.512	79.029	499.512	74.4751	499.512	77.958	499.512	74.1755	499.512	76.484	499.512	74.3894	499.512	74.8765	499.512	74.7418	499.512	73.9843	499.512	75.0326	499.512	74.3776	499.512	75.2706	499.512	75.2985	499.512	75.5356	499.512	75.9716	499.512	75.8468	499.512	76.2155	499.512	76.1217
517.09	80.1997	517.09	80.0657	517.09	80.2177	517.09	79.8882	517.09	80.0753	517.09	79.7238	517.09	79.7918	517.09	79.5728	517.09	79.482	517.09	79.3736	517.09	79.3525	517.09	79.0406	517.09	79.5687	517.09	78.5117	517.09	80.0575	517.09	77.7782	517.09	80.521	517.09	76.8938	517.09	80.6186	517.09	75.9721	517.09	80.0527	517.09	75.1785	517.09	78.5345	517.09	74.7081	517.09	75.7588	517.09	74.714	517.09	72.101	517.09	75.1944	517.09	71.8933	517.09	75.9699	517.09	74.8267	517.09	76.8009	517.09	76.8445	517.09	77.4878	517.09	77.7415	517.09	77.8653
536.133	81.4767	536.133	81.087	536.133	81.5733	536.133	80.5163	536.133	81.3186	536.133	79.9255	536.133	80.6779	536.133	79.437	536.133	79.6209	536.133	79.0146	536.133	78.1777	536.133	78.4763	536.133	76.7338	536.133	77.6499	536.133	76.3939	536.133	76.5351	536.133	77.6134	536.133	75.436	536.133	79.1631	536.133	74.9017	536.133	80.0606	536.133	75.1475	536.133	79.8852	536.133	75.7849	536.133	78.2747	536.133	76.4502	536.133	74.6255	536.133	77.1099	536.133	69.861	536.133	77.8551	536.133	73.2558	536.133	78.6504	536.133	77.0986	536.133	79.2924	536.133	78.9303	536.133	79.4991
555.176	81.9836	555.176	81.3686	555.176	82.3541	555.176	80.621	555.176	82.4289	555.176	79.9231	555.176	82.1704	555.176	79.4322	555.176	81.5197	555.176	79.1296	555.176	80.402	555.176	78.8122	555.176	78.8222	555.176	78.2279	555.176	77.1846	555.176	77.1813	555.176	76.624	555.176	75.6138	555.176	77.5584	555.176	73.8301	555.176	78.7166	555.176	72.8553	555.176	79.0731	555.176	73.5042	555.176	78.1331	555.176	75.0054	555.176	75.468	555.176	76.5334	555.176	71.4653	555.176	77.8476	555.176	72.5999	555.176	78.8664	555.176	76.4102	555.176	79.4712	555.176	78.5974	555.176	79.4749
574.219	82.8661	574.219	82.0868	574.219	83.2897	574.219	81.0384	574.219	83.3354	574.219	79.9753	574.219	82.9867	574.219	79.3254	574.219	82.2149	574.219	79.2884	574.219	80.9922	574.219	79.4943	574.219	79.3563	574.219	79.4072	574.219	77.612	574.219	78.6791	574.219	76.6808	574.219	77.1138	574.219	77.3236	574.219	74.5879	574.219	78.5696	574.219	71.3957	574.219	79.1454	574.219	70.0617	574.219	78.3358	574.219	72.2498	574.219	75.3193	574.219	74.8722	574.219	67.3633	574.219	76.9101	574.219	67.8196	574.219	78.3714	574.219	75.3482	574.219	79.2334	574.219	78.2989	574.219	79.3288
594.727	83.2278	594.727	82.468	594.727	83.5271	594.727	81.2484	594.727	83.4132	594.727	79.7525	594.727	82.9414	594.727	78.6145	594.727	82.1516	594.727	78.6273	594.727	81.0306	594.727	79.4436	594.727	79.4863	594.727	80.0556	594.727	77.5222	594.727	79.9096	594.727	76.1388	594.727	78.8048	594.727	77.1945	594.727	76.5939	594.727	79.2537	594.727	72.9858	594.727	80.383	594.727	68.0477	594.727	79.9751	594.727	68.1064	594.727	77.4803	594.727	72.5317	594.727	70.8211	594.727	75.7593	594.727	60.7427	594.727	77.873	594.727	74.181	594.727	79.0487	594.727	77.9369	594.727	79.1944
615.234	82.9071	615.234	82.215	615.234	83.1021	615.234	80.8416	615.234	82.9706	615.234	78.6213	615.234	82.6448	615.234	75.8292	615.234	82.1471	615.234	74.8605	615.234	81.3435	615.234	76.9658	615.234	79.9887	615.234	79.1002	615.234	77.8301	615.234	80.2223	615.234	75.1296	615.234	80.3167	615.234	74.8769	615.234	79.3682	615.234	77.9573	615.234	77.2169	615.234	80.5718	615.234	73.67	615.234	81.7017	615.234	69.8462	615.234	81.1399	615.234	70.7341	615.234	78.3997	615.234	73.7621	615.234	71.574	615.234	75.8694	615.234	62.487	615.234	76.8364	615.234	73.4062	615.234	76.3699
637.207	83.8682	637.207	83.6136	637.207	83.7516	637.207	82.8619	637.207	83.398	637.207	81.4593	637.207	82.9164	637.207	79.1366	637.207	82.3194	637.207	75.4308	637.207	81.489	637.207	70.8428	637.207	80.188	637.207	72.1947	637.207	77.9956	637.207	75.7344	637.207	73.9454	637.207	77.5759	637.207	67.1101	637.207	77.9488	637.207	73.2083	637.207	76.9948	637.207	78.4926	637.207	74.5682	637.207	80.7958	637.207	70.6084	637.207	81.0019	637.207	69.325	637.207	79.0974	637.207	73.0671	637.207	73.9679	637.207	75.7425	637.207	51.8024	637.207	76.6611	637.207	71.0503	637.207	75.6171
659.18	83.5321	659.18	83.5952	659.18	83.1487	659.18	83.2467	659.18	82.5878	659.18	82.4186	659.18	82.011	659.18	81.0224	659.18	81.5041	659.18	78.9585	659.18	81.0025	659.18	76.4271	659.18	80.319	659.18	74.9118	659.18	79.2155	659.18	75.6035	659.18	77.3427	659.18	76.5522	659.18	73.9331	659.18	76.4839	659.18	68.5284	659.18	75.1736	659.18	71.9086	659.18	72.5565	659.18	76.5275	659.18	68.9366	659.18	78.1454	659.18	67.9939	659.18	77.2453	659.18	71.2372	659.18	73.3554	659.18	73.9065	659.18	65.302	659.18	74.9746	659.18	69.9939	659.18	74.0692
682.617	83.0383	682.617	83.227	682.617	82.6102	682.617	83.0665	682.617	82.0246	682.617	82.4424	682.617	81.3317	682.617	81.2369	682.617	80.6008	682.617	79.3238	682.617	79.9672	682.617	76.7226	682.617	79.5506	682.617	74.4298	682.617	79.2536	682.617	74.4708	682.617	78.6483	682.617	75.8083	682.617	77.0697	682.617	76.6206	682.617	74.1867	682.617	76.3418	682.617	73.9193	682.617	74.5685	682.617	77.5068	682.617	70.5362	682.617	79.4272	682.617	64.3039	682.617	78.906	682.617	68.2926	682.617	75.497	682.617	72.4158	682.617	66.3553	682.617	73.7456	682.617	65.902	682.617	72.4206
707.52	82.8449	707.52	82.8433	707.52	82.6159	707.52	82.6298	707.52	82.2169	707.52	82.1992	707.52	81.7256	707.52	81.3724	707.52	81.1333	707.52	79.7783	707.52	80.3861	707.52	77.0477	707.52	79.4692	707.52	73.7514	707.52	78.3659	707.52	73.2453	707.52	76.9146	707.52	75.0401	707.52	74.7598	707.52	76.1549	707.52	71.856	707.52	76.0587	707.52	71.0922	707.52	74.7332	707.52	74.3346	707.52	72.0833	707.52	76.9601	707.52	68.0626	707.52	77.524	707.52	66.3361	707.52	75.5188	707.52	69.5928	707.52	69.7625	707.52	71.5406	707.52	65.5541	707.52	70.5746
732.422	82.688	732.422	82.7866	732.422	82.3314	732.422	82.6152	732.422	81.7571	732.422	82.1694	732.422	80.9894	732.422	81.373	732.422	80.0585	732.422	80.0485	732.422	79.1281	732.422	78.0258	732.422	78.4939	732.422	75.4893	732.422	78.2169	732.422	73.7815	732.422	77.7746	732.422	74.3595	732.422	76.3234	732.422	75.5829	732.422	73.117	732.422	75.8629	732.422	69.85	732.422	74.8552	732.422	72.3746	732.422	72.5827	732.422	74.8842	732.422	69.1712	732.422	75.5042	732.422	66.9315	732.422	74.4112	732.422	69.3967	732.422	71.5605	732.422	71.4018	732.422	69.4559	732.422	70.9863
757.324	82.1137	757.324	82.0781	757.324	82.0999	757.324	81.9224	757.324	82.0153	757.324	81.5465	757.324	81.7371	757.324	80.8307	757.324	81.1396	757.324	79.6386	757.324	80.1991	757.324	77.8856	757.324	79.0669	757.324	75.6951	757.324	78.0627	757.324	73.6824	757.324	77.4142	757.324	72.9225	757.324	76.7395	757.324	73.6049	757.324	74.8984	757.324	74.6	757.324	71.2252	757.324	74.8396	757.324	72.0703	757.324	73.6336	757.324	75.8681	757.324	70.5772	757.324	77.1376	757.324	68.5755	757.324	76.0796	757.324	71.041	757.324	73.4221	757.324	72.4844	757.324	71.5333	757.324	72.1164
785.156	82.7432	785.156	82.5089	785.156	82.4199	785.156	81.6561	785.156	81.8042	785.156	80.4977	785.156	81.0616	785.156	79.6114	785.156	80.1625	785.156	79.0585	785.156	79.1821	785.156	78.0946	785.156	78.3464	785.156	76.2076	785.156	77.6763	785.156	73.9755	785.156	76.8382	785.156	72.4074	785.156	75.5219	785.156	70.9199	785.156	73.6573	785.156	69.4876	785.156	70.8739	785.156	69.7931	785.156	68.8229	785.156	71.3457	785.156	72.6928	785.156	71.7652	785.156	75.3891	785.156	70.6125	785.156	74.9586	785.156	70.609	785.156	71.1779	785.156	71.473	785.156	66.1643	785.156	69.763
811.523	82.5005	811.523	82.475	811.523	82.3431	811.523	82.2421	811.523	82.0025	811.523	81.7551	811.523	81.4262	811.523	80.8493	811.523	80.6758	811.523	79.3264	811.523	79.9089	811.523	77.2514	811.523	79.0496	811.523	75.1475	811.523	77.8592	811.523	73.6457	811.523	76.2855	811.523	73.0024	811.523	74.4497	811.523	73.0381	811.523	72.8262	811.523	73.1855	811.523	72.3093	811.523	72.8518	811.523	72.4043	811.523	71.6832	811.523	72.3502	811.523	69.953	811.523	71.8923	811.523	69.7622	811.523	70.8506	811.523	71.5756	811.523	70.8184	811.523	72.9856	811.523	72.293	811.523	73.2356
840.82	81.7844	840.82	81.3285	840.82	82.1561	840.82	80.9778	840.82	82.1234	840.82	80.573	840.82	81.4526	840.82	79.6335	840.82	80.0943	840.82	77.6146	840.82	78.3105	840.82	74.1796	840.82	76.8801	840.82	69.8647	840.82	76.7079	840.82	68.6802	840.82	77.5425	840.82	71.4598	840.82	77.5882	840.82	73.4926	840.82	75.0751	840.82	73.4364	840.82	67.6891	840.82	71.5406	840.82	64.246	840.82	69.8584	840.82	72.2055	840.82	70.2267	840.82	75.3056	840.82	71.165	840.82	74.8325	840.82	72.3467	840.82	69.3759	840.82	74.0837	840.82	69.1469	840.82	73.8755
870.117	83.1004	870.117	82.8203	870.117	82.7742	870.117	81.9731	870.117	81.9516	870.117	80.8497	870.117	80.8089	870.117	79.8278	870.117	79.6882	870.117	78.8084	870.117	78.924	870.117	77.2076	870.117	78.253	870.117	74.7675	870.117	77.0749	870.117	71.7941	870.117	75.8155	870.117	69.1647	870.117	75.788	870.117	69.5111	870.117	76.1301	870.117	72.0009	870.117	75.5879	870.117	73.2475	870.117	74.1486	870.117	72.2387	870.117	72.4444	870.117	69.6059	870.117	70.7015	870.117	70.1311	870.117	70.2623	870.117	71.6593	870.117	71.196	870.117	71.4577	870.117	71.3612	870.117	71.028
900.879	82.3959	900.879	81.9633	900.879	82.7541	900.879	81.3597	900.879	82.6642	900.879	80.3565	900.879	81.7169	900.879	78.9176	900.879	80.0191	900.879	77.2502	900.879	78.1092	900.879	75.3913	900.879	76.3871	900.879	72.8559	900.879	74.971	900.879	70.2008	900.879	73.9256	900.879	69.9545	900.879	72.9384	900.879	70.3375	900.879	71.1469	900.879	70.1121	900.879	68.225	900.879	71.3759	900.879	70.6294	900.879	72.401	900.879	74.6374	900.879	70.3872	900.879	75.542	900.879	64.8406	900.879	73.2637	900.879	66.9508	900.879	70.2494	900.879	71.6308	900.879	72.0883	900.879	73.2437
933.105	82.7502	933.105	82.4601	933.105	82.615	933.105	81.6365	933.105	82.0785	933.105	80.2786	933.105	81.1228	933.105	78.6943	933.105	79.8439	933.105	77.2157	933.105	78.4082	933.105	75.5182	933.105	76.8414	933.105	73.3398	933.105	75.1467	933.105	71.0681	933.105	73.9253	933.105	69.0544	933.105	74.2078	933.105	68.6847	933.105	74.866	933.105	70.1726	933.105	74.0966	933.105	71.1115	933.105	71.5235	933.105	70.8003	933.105	69.2587	933.105	70.01	933.105	71.1263	933.105	70.6108	933.105	73.2509	933.105	72.154	933.105	72.7324	933.105	72.2393	933.105	69.4348	933.105	69.8218
965.332	83.1819	965.332	82.3778	965.332	83.1604	965.332	81.2747	965.332	82.3578	965.332	80.2672	965.332	81.223	965.332	79.0082	965.332	79.9057	965.332	77.0572	965.332	78.4686	965.332	74.4479	965.332	77.2937	965.332	71.6	965.332	76.1717	965.332	70.0078	965.332	74.1285	965.332	70.9427	965.332	71.6091	965.332	72.0906	965.332	71.6872	965.332	72.0841	965.332	72.1441	965.332	71.5048	965.332	71.4657	965.332	70.9755	965.332	73.2465	965.332	69.723	965.332	74.0926	965.332	66.4981	965.332	72.2906	965.332	65.4379	965.332	70.8074	965.332	69.5532	965.332	71.4057	965.332	71.6465
1,000.49	82.4517	1,000.49	82.2026	1,000.49	82.5799	1,000.49	81.6128	1,000.49	82.4255	1,000.49	80.4511	1,000.49	81.6318	1,000.49	78.4413	1,000.49	80.4399	1,000.49	75.6025	1,000.49	79.2225	1,000.49	72.8248	1,000.49	77.7049	1,000.49	70.7204	1,000.49	76.0467	1,000.49	69.1762	1,000.49	75.0494	1,000.49	70.0623	1,000.49	74.5561	1,000.49	72.366	1,000.49	73.1516	1,000.49	72.5576	1,000.49	71.3565	1,000.49	71.0631	1,000.49	70.1355	1,000.49	70.0248	1,000.49	66.5491	1,000.49	70.0036	1,000.49	70.4198	1,000.49	70.1259	1,000.49	72.2958	1,000.49	70.2544	1,000.49	69.6657	1,000.49	71.0753	1,000.49	69.385	1,000.49	71.2716
1,035.64	82.1091	1,035.64	81.8201	1,035.64	82.7542	1,035.64	81.5531	1,035.64	82.7172	1,035.64	80.3281	1,035.64	81.5104	1,035.64	77.6286	1,035.64	79.8559	1,035.64	74.0751	1,035.64	78.5434	1,035.64	71.5997	1,035.64	77.6664	1,035.64	71.1242	1,035.64	76.8683	1,035.64	70.2508	1,035.64	75.3475	1,035.64	64.4103	1,035.64	73.4454	1,035.64	60.374	1,035.64	73.2701	1,035.64	65.895	1,035.64	72.7591	1,035.64	65.6344	1,035.64	70.2668	1,035.64	66.8665	1,035.64	71.2863	1,035.64	66.9073	1,035.64	71.6125	1,035.64	66.0595	1,035.64	70.5992	1,035.64	66.2906	1,035.64	71.2982	1,035.64	67.0356	1,035.64	69.6207	1,035.64	67.1058
1,072.27	82.945	1,072.27	81.7268	1,072.27	83.3507	1,072.27	80.3619	1,072.27	82.7736	1,072.27	79.1386	1,072.27	81.9918	1,072.27	77.4411	1,072.27	81.3017	1,072.27	74.7066	1,072.27	79.926	1,072.27	71.8656	1,072.27	78.0254	1,072.27	69.4012	1,072.27	75.9824	1,072.27	66.1061	1,072.27	72.8992	1,072.27	58.5254	1,072.27	68.8876	1,072.27	54.3854	1,072.27	68.0816	1,072.27	60.0151	1,072.27	70.2956	1,072.27	62.3927	1,072.27	72.1179	1,072.27	67.8676	1,072.27	70.067	1,072.27	67.6298	1,072.27	66.3347	1,072.27	65.3436	1,072.27	70.5523	1,072.27	66.0201	1,072.27	71.5191	1,072.27	68.9193	1,072.27	71.7515	1,072.27	71.1831
1,108.89	83.0636	1,108.89	82.3678	1,108.89	83.1997	1,108.89	81.1346	1,108.89	82.9279	1,108.89	79.3571	1,108.89	82.0761	1,108.89	77.0414	1,108.89	80.0913	1,108.89	74.5276	1,108.89	76.9688	1,108.89	72.0877	1,108.89	74.0247	1,108.89	70.6478	1,108.89	72.9275	1,108.89	71.1191	1,108.89	72.5315	1,108.89	70.9417	1,108.89	70.8231	1,108.89	69.6017	1,108.89	68.6822	1,108.89	67.532	1,108.89	67.7644	1,108.89	65.5577	1,108.89	65.6693	1,108.89	64.0524	1,108.89	69.3367	1,108.89	62.9697	1,108.89	68.9731	1,108.89	63.015	1,108.89	66.8825	1,108.89	63.6571	1,108.89	70.361	1,108.89	66.7434	1,108.89	70.8113	1,108.89	69.1334
1,148.44	82.8925	1,148.44	82.24	1,148.44	83.2023	1,148.44	81.1221	1,148.44	82.8569	1,148.44	78.9973	1,148.44	81.4882	1,148.44	75.818	1,148.44	78.9018	1,148.44	73.0955	1,148.44	75.4894	1,148.44	71.4521	1,148.44	72.8384	1,148.44	68.3018	1,148.44	71.638	1,148.44	62.5878	1,148.44	70.1971	1,148.44	61.1126	1,148.44	67.0039	1,148.44	63.2034	1,148.44	59.9489	1,148.44	63.0981	1,148.44	62.6563	1,148.44	60.2781	1,148.44	69.558	1,148.44	65.1265	1,148.44	69.6828	1,148.44	70.2579	1,148.44	63.6776	1,148.44	69.8884	1,148.44	65.1845	1,148.44	67.4695	1,148.44	71.4406	1,148.44	68.8647	1,148.44	72.7811	1,148.44	71.3453
1,189.45	83.5244	1,189.45	82.6379	1,189.45	83.3888	1,189.45	80.8898	1,189.45	82.3419	1,189.45	78.7015	1,189.45	80.8657	1,189.45	76.9715	1,189.45	78.9211	1,189.45	75.5145	1,189.45	75.6294	1,189.45	72.5502	1,189.45	70.6893	1,189.45	65.6691	1,189.45	65.7275	1,189.45	44.1685	1,189.45	65.2561	1,189.45	61.5496	1,189.45	67.3612	1,189.45	65.8499	1,189.45	67.1511	1,189.45	68.043	1,189.45	62.93	1,189.45	68.5618	1,189.45	43.9727	1,189.45	67.4056	1,189.45	64.4099	1,189.45	68.3715	1,189.45	67.0519	1,189.45	68.8115	1,189.45	57.034	1,189.45	69.6651	1,189.45	68.6888	1,189.45	70.8313	1,189.45	72.9056	1,189.45	72.8119
1,230.47	82.9354	1,230.47	82.2755	1,230.47	83.0904	1,230.47	81.214	1,230.47	82.1246	1,230.47	79.2317	1,230.47	79.7745	1,230.47	76.1396	1,230.47	76.4858	1,230.47	73.082	1,230.47	73.0314	1,230.47	71.7918	1,230.47	70.4498	1,230.47	70.2338	1,230.47	68.7827	1,230.47	66.7337	1,230.47	67.2713	1,230.47	60.1849	1,230.47	65.096	1,230.47	46.5147	1,230.47	62.7941	1,230.47	50.8098	1,230.47	59.8328	1,230.47	51.4053	1,230.47	55.379	1,230.47	60.5874	1,230.47	67.1948	1,230.47	68.2689	1,230.47	68.1656	1,230.47	71.5365	1,230.47	62.7742	1,230.47	72.3354	1,230.47	61.1596	1,230.47	72.6657	1,230.47	70.7687	1,230.47	72.9157
1,274.41	82.8383	1,274.41	82.5819	1,274.41	82.3832	1,274.41	81.1071	1,274.41	81.517	1,274.41	78.3138	1,274.41	79.4545	1,274.41	74.8993	1,274.41	75.4277	1,274.41	72.3339	1,274.41	71.1788	1,274.41	70.352	1,274.41	69.905	1,274.41	67.6186	1,274.41	69.2656	1,274.41	63.5429	1,274.41	68.3554	1,274.41	54.8847	1,274.41	66.7236	1,274.41	58.0288	1,274.41	63.9522	1,274.41	59.723	1,274.41	62.0563	1,274.41	57.4269	1,274.41	60.1883	1,274.41	56.4493	1,274.41	43.1567	1,274.41	59.3016	1,274.41	62.0739	1,274.41	63.7637	1,274.41	61.4138	1,274.41	69.209	1,274.41	61.2217	1,274.41	72.0663	1,274.41	68.9015	1,274.41	71.9293
1,319.82	82.4093	1,319.82	81.6672	1,319.82	82.3334	1,319.82	80.5728	1,319.82	80.8805	1,319.82	78.7701	1,319.82	78.1735	1,319.82	75.772	1,319.82	74.3953	1,319.82	71.1753	1,319.82	67.8274	1,319.82	65.3237	1,319.82	60.5886	1,319.82	64.8882	1,319.82	63.2012	1,319.82	63.1612	1,319.82	66.7691	1,319.82	50.6049	1,319.82	67.7601	1,319.82	59.0008	1,319.82	64.6936	1,319.82	59.4862	1,319.82	63.4856	1,319.82	56.9186	1,319.82	62.9444	1,319.82	44.7143	1,319.82	50.8448	1,319.82	55.9762	1,319.82	66.1724	1,319.82	61.5111	1,319.82	65.3278	1,319.82	67.7969	1,319.82	59.9944	1,319.82	71.2863	1,319.82	64.0818	1,319.82	70.4032
1,366.7	82.2539	1,366.7	81.7075	1,366.7	81.9475	1,366.7	80.4971	1,366.7	80.1605	1,366.7	78.5699	1,366.7	76.4259	1,366.7	75.6993	1,366.7	70.8659	1,366.7	70.8552	1,366.7	64.8871	1,366.7	66.9405	1,366.7	60.8745	1,366.7	67.1062	1,366.7	62.706	1,366.7	64.8122	1,366.7	65.9973	1,366.7	59.6105	1,366.7	67.5158	1,366.7	60.9233	1,366.7	67.4872	1,366.7	61.2604	1,366.7	63.4454	1,366.7	61.0383	1,366.7	56.8563	1,366.7	55.8493	1,366.7	64.434	1,366.7	54.5003	1,366.7	53.1738	1,366.7	57.6487	1,366.7	62.7789	1,366.7	57.0391	1,366.7	65.3365	1,366.7	64.1703	1,366.7	67.154	1,366.7	68.2253
1,413.57	82.6858	1,413.57	81.9934	1,413.57	81.8087	1,413.57	79.9282	1,413.57	79.6297	1,413.57	77.7036	1,413.57	75.2656	1,413.57	75.8927	1,413.57	66.1588	1,413.57	72.0836	1,413.57	53.6165	1,413.57	61.5547	1,413.57	66.7453	1,413.57	52.1143	1,413.57	70.146	1,413.57	51.7338	1,413.57	69.4816	1,413.57	55.3098	1,413.57	70.747	1,413.57	64.3128	1,413.57	71.2332	1,413.57	62.1011	1,413.57	67.5488	1,413.57	48.061	1,413.57	65.1524	1,413.57	57.3796	1,413.57	63.7794	1,413.57	55.8022	1,413.57	55.4917	1,413.57	62.0592	1,413.57	61.3885	1,413.57	62.573	1,413.57	60.8229	1,413.57	67.3445	1,413.57	66.0603	1,413.57	67.0195
1,463.38	83.1192	1,463.38	82.2629	1,463.38	82.5485	1,463.38	80.5925	1,463.38	79.4998	1,463.38	77.5868	1,463.38	72.6401	1,463.38	73.0185	1,463.38	55.9713	1,463.38	68.7505	1,463.38	63.3959	1,463.38	64.392	1,463.38	66.6737	1,463.38	64.236	1,463.38	69.0523	1,463.38	63.4411	1,463.38	69.5918	1,463.38	56.8114	1,463.38	70.7058	1,463.38	56.8733	1,463.38	69.2858	1,463.38	62.7066	1,463.38	68.105	1,463.38	60.9481	1,463.38	68.1521	1,463.38	59.9666	1,463.38	58.3475	1,463.38	39.3072	1,463.38	61.0542	1,463.38	63.1835	1,463.38	47.0056	1,463.38	61.821	1,463.38	63.6868	1,463.38	65.847	1,463.38	69.0594	1,463.38	69.678
1,516.11	83.3536	1,516.11	82.2939	1,516.11	82.7611	1,516.11	80.4892	1,516.11	79.2041	1,516.11	77.4842	1,516.11	70.2679	1,516.11	73.4083	1,516.11	61.613	1,516.11	70.305	1,516.11	69.7296	1,516.11	69.7182	1,516.11	70.6017	1,516.11	69.978	1,516.11	71.7637	1,516.11	63.7008	1,516.11	72.3274	1,516.11	53.9145	1,516.11	71.5084	1,516.11	54.7144	1,516.11	70.2891	1,516.11	61.0761	1,516.11	68.9346	1,516.11	61.7337	1,516.11	68.3291	1,516.11	59.7602	1,516.11	65.322	1,516.11	54.9662	1,516.11	64.728	1,516.11	62.0932	1,516.11	59.5622	1,516.11	65.218	1,516.11	56.3998	1,516.11	65.6907	1,516.11	67.6408	1,516.11	68.3827
1,568.85	82.606	1,568.85	82.0867	1,568.85	81.634	1,568.85	80.9386	1,568.85	77.6215	1,568.85	78.7367	1,568.85	68.5591	1,568.85	74.7578	1,568.85	65.9069	1,568.85	68.7865	1,568.85	75.1391	1,568.85	66.5568	1,568.85	75.2329	1,568.85	61.4802	1,568.85	73.3047	1,568.85	57.539	1,568.85	73.9911	1,568.85	59.4555	1,568.85	73.1536	1,568.85	54.8193	1,568.85	72.3423	1,568.85	62.3633	1,568.85	71.2431	1,568.85	59.6483	1,568.85	71.4234	1,568.85	64.0838	1,568.85	69.1924	1,568.85	63.6067	1,568.85	54.6867	1,568.85	62.14	1,568.85	61.7185	1,568.85	65.0981	1,568.85	58.9419	1,568.85	63.6955	1,568.85	70.0237	1,568.85	69.094
1,624.51	82.1028	1,624.51	82.1483	1,624.51	80.7258	1,624.51	81.2573	1,624.51	76.8241	1,624.51	79.3825	1,624.51	62.8668	1,624.51	76.6427	1,624.51	72.7068	1,624.51	74.0698	1,624.51	76.8102	1,624.51	70.3438	1,624.51	75.9924	1,624.51	57.18	1,624.51	72.7987	1,624.51	57.6257	1,624.51	72.8574	1,624.51	62.7316	1,624.51	71.7243	1,624.51	62.1855	1,624.51	73.0348	1,624.51	56.5177	1,624.51	71.4487	1,624.51	62.3839	1,624.51	71.0978	1,624.51	65.8527	1,624.51	70.2502	1,624.51	65.9576	1,624.51	62.4037	1,624.51	56.0888	1,624.51	58.7954	1,624.51	62.1563	1,624.51	55.0804	1,624.51	66.1567	1,624.51	68.2038	1,624.51	71.1102
1,681.64	82.715	1,681.64	82.0786	1,681.64	80.8507	1,681.64	80.0776	1,681.64	76.4836	1,681.64	79.1672	1,681.64	60.4913	1,681.64	76.3703	1,681.64	75.2609	1,681.64	69.116	1,681.64	79.0511	1,681.64	63.8319	1,681.64	78.5061	1,681.64	67.4348	1,681.64	75.3171	1,681.64	60.4315	1,681.64	72.8371	1,681.64	65.981	1,681.64	73.8752	1,681.64	70.1196	1,681.64	74.7565	1,681.64	68.5786	1,681.64	71.2986	1,681.64	54.6082	1,681.64	70.0678	1,681.64	48.5934	1,681.64	72.2747	1,681.64	56.5156	1,681.64	67.1085	1,681.64	57.2019	1,681.64	67.8806	1,681.64	65.4564	1,681.64	56.3757	1,681.64	67.6595	1,681.64	64.1945	1,681.64	69.0267
1,741.7	83.8061	1,741.7	82.8728	1,741.7	82.1864	1,741.7	81.504	1,741.7	75.9569	1,741.7	79.2963	1,741.7	60.9608	1,741.7	75.0153	1,741.7	76.6482	1,741.7	71.7088	1,741.7	79.6932	1,741.7	62.8316	1,741.7	79.4281	1,741.7	70.7513	1,741.7	78.3142	1,741.7	68.2471	1,741.7	76.4223	1,741.7	65.6949	1,741.7	74.5097	1,741.7	63.7749	1,741.7	74.9272	1,741.7	66.3422	1,741.7	70.0941	1,741.7	68.8959	1,741.7	70.0183	1,741.7	61.0229	1,741.7	70.7026	1,741.7	62.9482	1,741.7	70.7164	1,741.7	56.1315	1,741.7	66.4632	1,741.7	65.9124	1,741.7	57.0808	1,741.7	65.4201	1,741.7	67.6695	1,741.7	68.973
1,803.22	83.5715	1,803.22	82.8721	1,803.22	82.2394	1,803.22	81.7707	1,803.22	76.0571	1,803.22	79.0824	1,803.22	66.2729	1,803.22	74.6719	1,803.22	78.7428	1,803.22	69.657	1,803.22	81.6572	1,803.22	62.6071	1,803.22	80.864	1,803.22	71.2511	1,803.22	78.6754	1,803.22	68.9904	1,803.22	75.0717	1,803.22	63.0515	1,803.22	73.3215	1,803.22	68.4527	1,803.22	75.4039	1,803.22	64.2593	1,803.22	74.5796	1,803.22	55.8506	1,803.22	70.3697	1,803.22	68.5634	1,803.22	74.6079	1,803.22	67.6672	1,803.22	64.7766	1,803.22	48.0424	1,803.22	72.8815	1,803.22	69.5652	1,803.22	68.604	1,803.22	62.2317	1,803.22	71.2803	1,803.22	66.7012
1,866.21	82.7861	1,866.21	82.6411	1,866.21	81.3461	1,866.21	82.0362	1,866.21	76.2048	1,866.21	79.604	1,866.21	68.2584	1,866.21	76.1232	1,866.21	78.5035	1,866.21	71.927	1,866.21	81.6698	1,866.21	72.2463	1,866.21	81.9407	1,866.21	70.5786	1,866.21	79.2452	1,866.21	68.0568	1,866.21	74.7737	1,866.21	74.5203	1,866.21	70.898	1,866.21	70.2505	1,866.21	73.8786	1,866.21	69.2936	1,866.21	73.1637	1,866.21	65.8121	1,866.21	70.9104	1,866.21	66.5489	1,866.21	72.6489	1,866.21	64.1007	1,866.21	71.0195	1,866.21	49.1466	1,866.21	69.237	1,866.21	64.0247	1,866.21	63.0153	1,866.21	66.5023	1,866.21	66.4645	1,866.21	65.5835
1,932.13	82.1176	1,932.13	82.2231	1,932.13	80.7164	1,932.13	82.3619	1,932.13	71.7507	1,932.13	78.4766	1,932.13	72.9112	1,932.13	74.3452	1,932.13	79.1994	1,932.13	70.0013	1,932.13	81.8673	1,932.13	67.2535	1,932.13	81.7561	1,932.13	71.1813	1,932.13	79.762	1,932.13	69.456	1,932.13	76.1464	1,932.13	72.5408	1,932.13	71.7819	1,932.13	69.3074	1,932.13	72.8575	1,932.13	67.047	1,932.13	73.2092	1,932.13	68.006	1,932.13	69.6589	1,932.13	59.1889	1,932.13	70.9659	1,932.13	64.4005	1,932.13	70.9243	1,932.13	62.0582	1,932.13	68.3866	1,932.13	62.11	1,932.13	57.1923	1,932.13	64.9839	1,932.13	68.69	1,932.13	68.3048
1,999.51	82.466	1,999.51	83.0289	1,999.51	81.534	1,999.51	81.223	1,999.51	74.2676	1,999.51	78.2516	1,999.51	72.8797	1,999.51	75.4701	1,999.51	80.2132	1,999.51	66.9662	1,999.51	82.4466	1,999.51	67.2807	1,999.51	82.0712	1,999.51	69.5564	1,999.51	79.2558	1,999.51	70.5826	1,999.51	76.7568	1,999.51	63.5275	1,999.51	70.0626	1,999.51	70.427	1,999.51	68.057	1,999.51	66.136	1,999.51	73.6349	1,999.51	69.2314	1,999.51	72.2123	1,999.51	64.0387	1,999.51	72.4527	1,999.51	64.6475	1,999.51	71.6705	1,999.51	61.7039	1,999.51	70.4591	1,999.51	63.448	1,999.51	57.8719	1,999.51	65.3629	1,999.51	69.4204	1,999.51	69.5218
2,069.82	82.6941	2,069.82	83.8097	2,069.82	81.2084	2,069.82	81.8244	2,069.82	75.774	2,069.82	78.8314	2,069.82	72.8826	2,069.82	72.8403	2,069.82	80.9118	2,069.82	69.4086	2,069.82	82.5121	2,069.82	72.3318	2,069.82	81.7316	2,069.82	74.9865	2,069.82	78.7943	2,069.82	74.3654	2,069.82	76.8102	2,069.82	72.7784	2,069.82	73.5497	2,069.82	73.8393	2,069.82	65.3397	2,069.82	71.379	2,069.82	71.6321	2,069.82	64.63	2,069.82	72.1295	2,069.82	67.3627	2,069.82	70.035	2,069.82	61.338	2,069.82	69.8205	2,069.82	66.1282	2,069.82	67.6247	2,069.82	62.2157	2,069.82	59.4519	2,069.82	68.3184	2,069.82	72.1515	2,069.82	70.5884
2,143.07	81.7687	2,143.07	83.0652	2,143.07	79.5748	2,143.07	82.5883	2,143.07	75.6937	2,143.07	79.427	2,143.07	72.0555	2,143.07	71.5363	2,143.07	80.7422	2,143.07	73.5405	2,143.07	82.6019	2,143.07	75.9765	2,143.07	81.9005	2,143.07	72.6421	2,143.07	79.9104	2,143.07	72.8469	2,143.07	75.8493	2,143.07	74.405	2,143.07	74.7657	2,143.07	69.1357	2,143.07	67.9216	2,143.07	72.3774	2,143.07	67.4122	2,143.07	66.7945	2,143.07	71.4367	2,143.07	67.9672	2,143.07	70.5222	2,143.07	61.6584	2,143.07	67.9315	2,143.07	64.8385	2,143.07	65.9732	2,143.07	61.3818	2,143.07	62.5199	2,143.07	69.0602	2,143.07	71.3807	2,143.07	69.2643
2,219.24	80.7019	2,219.24	81.9759	2,219.24	77.7456	2,219.24	82.2805	2,219.24	74.7636	2,219.24	78.3456	2,219.24	72.3413	2,219.24	75.5487	2,219.24	80.0921	2,219.24	74.7891	2,219.24	82.4922	2,219.24	74.3852	2,219.24	81.931	2,219.24	74.0812	2,219.24	79.9907	2,219.24	73.624	2,219.24	73.3976	2,219.24	70.1033	2,219.24	72.8649	2,219.24	69.0575	2,219.24	70.2255	2,219.24	69.7805	2,219.24	70.3035	2,219.24	68.2781	2,219.24	70.6585	2,219.24	66.8508	2,219.24	71.5458	2,219.24	63.069	2,219.24	70.2375	2,219.24	63.0852	2,219.24	66.3915	2,219.24	54.9434	2,219.24	65.6314	2,219.24	67.1091	2,219.24	70.3875	2,219.24	65.6138
2,296.88	81.1678	2,296.88	82.7346	2,296.88	78.2883	2,296.88	81.0536	2,296.88	74.0875	2,296.88	77.4164	2,296.88	76.1288	2,296.88	75.931	2,296.88	79.6095	2,296.88	74.3162	2,296.88	82.4543	2,296.88	75.1501	2,296.88	81.6519	2,296.88	72.7515	2,296.88	79.8149	2,296.88	74.4151	2,296.88	77.2541	2,296.88	71.7324	2,296.88	72.2247	2,296.88	71.0316	2,296.88	68.0959	2,296.88	70.5177	2,296.88	70.235	2,296.88	68.0274	2,296.88	71.3891	2,296.88	65.7907	2,296.88	71.7734	2,296.88	65.5161	2,296.88	70.803	2,296.88	63.8811	2,296.88	65.5461	2,296.88	49.0926	2,296.88	62.8262	2,296.88	67.6181	2,296.88	69.9405	2,296.88	68.0651
2,378.91	79.703	2,378.91	82.6402	2,378.91	77.7575	2,378.91	80.459	2,378.91	74.5237	2,378.91	78.1654	2,378.91	75.0308	2,378.91	74.1462	2,378.91	79.9782	2,378.91	77.7463	2,378.91	81.4844	2,378.91	75.5388	2,378.91	81.7605	2,378.91	76.8387	2,378.91	79.2733	2,378.91	74.6549	2,378.91	78.1112	2,378.91	72.8066	2,378.91	75.3895	2,378.91	71.6511	2,378.91	73.2837	2,378.91	69.2904	2,378.91	60.1171	2,378.91	68.3834	2,378.91	71.0086	2,378.91	65.3786	2,378.91	71.117	2,378.91	67.3134	2,378.91	70.455	2,378.91	65.4027	2,378.91	63.8903	2,378.91	60.4226	2,378.91	63.5854	2,378.91	64.0921	2,378.91	70.1534	2,378.91	67.1147
2,462.4	80.1615	2,462.4	81.7755	2,462.4	75.8746	2,462.4	81.1288	2,462.4	75.5042	2,462.4	77.7996	2,462.4	76.3138	2,462.4	76.4101	2,462.4	79.9711	2,462.4	76.6083	2,462.4	81.1063	2,462.4	76.8997	2,462.4	82.0393	2,462.4	73.7815	2,462.4	79.0866	2,462.4	71.4456	2,462.4	73.9888	2,462.4	74.5647	2,462.4	72.8954	2,462.4	68.9965	2,462.4	72.7252	2,462.4	70.6757	2,462.4	68.1648	2,462.4	66.5441	2,462.4	68.6913	2,462.4	64.4435	2,462.4	69.4066	2,462.4	66.3448	2,462.4	70.8848	2,462.4	65.0606	2,462.4	66.592	2,462.4	62.5672	2,462.4	64.8322	2,462.4	62.2928	2,462.4	67.6118	2,462.4	65.5124
2,548.83	80.707	2,548.83	82.0386	2,548.83	75.2879	2,548.83	80.7296	2,548.83	76.6453	2,548.83	77.8115	2,548.83	76.5667	2,548.83	77.7904	2,548.83	79.4306	2,548.83	73.6127	2,548.83	81.0783	2,548.83	75.8673	2,548.83	81.5598	2,548.83	73.6643	2,548.83	78.4246	2,548.83	73.6103	2,548.83	75.6193	2,548.83	68.9993	2,548.83	75.8582	2,548.83	71.0092	2,548.83	73.0435	2,548.83	71.2492	2,548.83	67.6346	2,548.83	69.1614	2,548.83	68.6303	2,548.83	65.0477	2,548.83	70.0497	2,548.83	66.3943	2,548.83	71.7644	2,548.83	66.0683	2,548.83	66.8586	2,548.83	60.4509	2,548.83	65.0874	2,548.83	61.562	2,548.83	68.4581	2,548.83	66.447
2,639.65	79.7828	2,639.65	81.2535	2,639.65	73.6878	2,639.65	79.824	2,639.65	75.2272	2,639.65	78.641	2,639.65	76.4384	2,639.65	75.9847	2,639.65	78.0256	2,639.65	76.4509	2,639.65	81.4783	2,639.65	75.7007	2,639.65	81.8529	2,639.65	77.824	2,639.65	78.909	2,639.65	76.7215	2,639.65	75.2212	2,639.65	73.5462	2,639.65	74.012	2,639.65	73.9069	2,639.65	70.6565	2,639.65	69.6675	2,639.65	65.0873	2,639.65	70.2569	2,639.65	69.5877	2,639.65	63.2833	2,639.65	69.1681	2,639.65	67.3475	2,639.65	71.4418	2,639.65	64.9356	2,639.65	64.9017	2,639.65	63.6641	2,639.65	63.0046	2,639.65	60.0795	2,639.65	68.683	2,639.65	63.0591
2,731.93	79.2134	2,731.93	79.746	2,731.93	74.6334	2,731.93	79.6962	2,731.93	70.2568	2,731.93	78.7146	2,731.93	75.6168	2,731.93	75.7384	2,731.93	78.6194	2,731.93	76.1167	2,731.93	81.436	2,731.93	76.5821	2,731.93	80.0409	2,731.93	77.6148	2,731.93	79.823	2,731.93	74.7782	2,731.93	77.4269	2,731.93	75.7369	2,731.93	72.2311	2,731.93	70.1241	2,731.93	65.9845	2,731.93	71.8475	2,731.93	65.5235	2,731.93	69.165	2,731.93	66.1476	2,731.93	64.7308	2,731.93	70.5191	2,731.93	66.694	2,731.93	70.186	2,731.93	67.4198	2,731.93	64.6411	2,731.93	62.9358	2,731.93	62.9864	2,731.93	49.3029	2,731.93	69.0347	2,731.93	64.077
2,828.61	81.0486	2,828.61	81.08	2,828.61	77.4918	2,828.61	81.3692	2,828.61	76.3287	2,828.61	78.8153	2,828.61	78.365	2,828.61	76.9623	2,828.61	78.3075	2,828.61	77.2345	2,828.61	80.7808	2,828.61	77.4174	2,828.61	80.5968	2,828.61	76.0876	2,828.61	80.194	2,828.61	75.2417	2,828.61	78.7971	2,828.61	73.1258	2,828.61	71.351	2,828.61	72.0127	2,828.61	60.0464	2,828.61	70.8871	2,828.61	63.6513	2,828.61	70.9988	2,828.61	66.5957	2,828.61	70.243	2,828.61	65.216	2,828.61	63.6427	2,828.61	70.6195	2,828.61	68.7559	2,828.61	67.0753	2,828.61	61.219	2,828.61	61.8594	2,828.61	50.3664	2,828.61	69.086	2,828.61	66.5988
2,928.22	80.4489	2,928.22	81.0757	2,928.22	78.2228	2,928.22	82.0956	2,928.22	78.2521	2,928.22	78.9747	2,928.22	80.2	2,928.22	78.6556	2,928.22	77.472	2,928.22	80.2625	2,928.22	79.8402	2,928.22	79.2275	2,928.22	80.7655	2,928.22	77.6796	2,928.22	79.9435	2,928.22	77.5519	2,928.22	77.6335	2,928.22	75.8396	2,928.22	67.31	2,928.22	72.938	2,928.22	72.8722	2,928.22	71.644	2,928.22	71.4499	2,928.22	70.5885	2,928.22	62.4695	2,928.22	68.8573	2,928.22	68.7527	2,928.22	67.9238	2,928.22	66.617	2,928.22	69.9958	2,928.22	58.7975	2,928.22	63.9523	2,928.22	58.4227	2,928.22	53.0936	2,928.22	68.6149	2,928.22	62.1243
3,030.76	79.474	3,030.76	81.7266	3,030.76	78.6613	3,030.76	81.2862	3,030.76	78.0675	3,030.76	78.0245	3,030.76	80.9793	3,030.76	78.4492	3,030.76	78.8083	3,030.76	80.7856	3,030.76	79.4052	3,030.76	79.8856	3,030.76	81.1931	3,030.76	78.5751	3,030.76	81.4587	3,030.76	76.1283	3,030.76	77.0148	3,030.76	73.0871	3,030.76	73.5772	3,030.76	71.5888	3,030.76	77.2384	3,030.76	68.1897	3,030.76	70.8345	3,030.76	70.308	3,030.76	61.8168	3,030.76	65.8672	3,030.76	68.833	3,030.76	69.2558	3,030.76	67.335	3,030.76	69.2774	3,030.76	56.708	3,030.76	62.4423	3,030.76	58.5406	3,030.76	49.1936	3,030.76	66.3394	3,030.76	66.0245
3,137.7	78.9334	3,137.7	82.4491	3,137.7	79.2203	3,137.7	80.8534	3,137.7	78.7183	3,137.7	79.0009	3,137.7	81.2256	3,137.7	80.201	3,137.7	79.8287	3,137.7	80.6004	3,137.7	78.1085	3,137.7	79.653	3,137.7	81.1102	3,137.7	77.3924	3,137.7	82.3092	3,137.7	75.2095	3,137.7	79.6587	3,137.7	74.8204	3,137.7	77.2403	3,137.7	73.3277	3,137.7	78.1386	3,137.7	70.9973	3,137.7	66.8459	3,137.7	69.384	3,137.7	61.7728	3,137.7	68.1253	3,137.7	68.2559	3,137.7	66.0187	3,137.7	66.9667	3,137.7	69.1536	3,137.7	63.9837	3,137.7	58.0184	3,137.7	57.6231	3,137.7	54.687	3,137.7	68.2369	3,137.7	65.7109
3,249.02	79.0478	3,249.02	81.8941	3,249.02	77.7865	3,249.02	80.6812	3,249.02	80.0058	3,249.02	79.8334	3,249.02	82.3571	3,249.02	80.8057	3,249.02	79.4822	3,249.02	80.3992	3,249.02	77.392	3,249.02	79.9259	3,249.02	80.3561	3,249.02	76.6075	3,249.02	83.089	3,249.02	77.1571	3,249.02	80.2816	3,249.02	72.8702	3,249.02	78.2797	3,249.02	71.3506	3,249.02	78.367	3,249.02	67.826	3,249.02	50.3328	3,249.02	67.8326	3,249.02	64.5016	3,249.02	66.8073	3,249.02	68.7187	3,249.02	64.7072	3,249.02	65.4618	3,249.02	68.9591	3,249.02	67.3528	3,249.02	61.3348	3,249.02	57.4658	3,249.02	50.9142	3,249.02	68.6922	3,249.02	65.9606
3,363.28	80.6233	3,363.28	82.5068	3,363.28	76.8518	3,363.28	80.9249	3,363.28	80.1347	3,363.28	79.9943	3,363.28	82.7466	3,363.28	80.418	3,363.28	78.2236	3,363.28	79.8877	3,363.28	75.5744	3,363.28	77.89	3,363.28	80.6069	3,363.28	76.4306	3,363.28	82.4811	3,363.28	74.4117	3,363.28	78.9842	3,363.28	70.9382	3,363.28	78.8292	3,363.28	71.0294	3,363.28	75.9191	3,363.28	68.3857	3,363.28	68.8856	3,363.28	68.7842	3,363.28	63.6117	3,363.28	65.5199	3,363.28	68.7349	3,363.28	66.6971	3,363.28	61.6899	3,363.28	66.472	3,363.28	65.7213	3,363.28	60.1242	3,363.28	59.5962	3,363.28	40.9934	3,363.28	66.8359	3,363.28	66.4517
3,481.93	80.9831	3,481.93	82.1232	3,481.93	78.2097	3,481.93	80.3962	3,481.93	80.4141	3,481.93	81.003	3,481.93	82.4811	3,481.93	79.6348	3,481.93	79.0113	3,481.93	79.3374	3,481.93	74.3791	3,481.93	78.66	3,481.93	82.062	3,481.93	75.514	3,481.93	80.7747	3,481.93	74.2739	3,481.93	79.2731	3,481.93	73.5603	3,481.93	75.9139	3,481.93	68.6707	3,481.93	70.4978	3,481.93	68.7683	3,481.93	68.5029	3,481.93	65.2493	3,481.93	69.0037	3,481.93	64.5791	3,481.93	64.7609	3,481.93	64.437	3,481.93	65.1175	3,481.93	64.3306	3,481.93	63.5576	3,481.93	56.3631	3,481.93	62.2413	3,481.93	40.8792	3,481.93	66.3834	3,481.93	66.2173
3,604.98	81.3911	3,604.98	81.3188	3,604.98	77.9089	3,604.98	81.0109	3,604.98	80.8438	3,604.98	80.5906	3,604.98	82.8107	3,604.98	79.8418	3,604.98	80.2228	3,604.98	78.8591	3,604.98	73.8265	3,604.98	76.5445	3,604.98	81.9061	3,604.98	74.1685	3,604.98	80.8054	3,604.98	74.5215	3,604.98	77.622	3,604.98	69.3175	3,604.98	70.0422	3,604.98	70.2104	3,604.98	72.4321	3,604.98	67.9187	3,604.98	64.6576	3,604.98	67.3735	3,604.98	66.9078	3,604.98	65.0705	3,604.98	59.8039	3,604.98	65.1978	3,604.98	66.0211	3,604.98	65.4099	3,604.98	62.8339	3,604.98	61.7439	3,604.98	61.3474	3,604.98	48.6952	3,604.98	66.7592	3,604.98	64.0066
3,732.42	81.8338	3,732.42	82.0121	3,732.42	78.1069	3,732.42	82.0187	3,732.42	81.6525	3,732.42	80.9295	3,732.42	82.6908	3,732.42	79.7792	3,732.42	81.1692	3,732.42	78.3119	3,732.42	75.0431	3,732.42	77.3642	3,732.42	81.2619	3,732.42	76.3045	3,732.42	79.7412	3,732.42	72.5684	3,732.42	77.5969	3,732.42	72.7588	3,732.42	64.0964	3,732.42	69.9882	3,732.42	74.9142	3,732.42	68.5726	3,732.42	68.3014	3,732.42	65.9254	3,732.42	62.2109	3,732.42	66.0323	3,732.42	64.4577	3,732.42	66.0497	3,732.42	62.7619	3,732.42	65.5155	3,732.42	62.3517	3,732.42	63.8634	3,732.42	61.3099	3,732.42	44.3646	3,732.42	66.6887	3,732.42	62.8198
3,864.26	81.8553	3,864.26	83.0004	3,864.26	78.3115	3,864.26	82.2872	3,864.26	82.1564	3,864.26	80.0209	3,864.26	82.9333	3,864.26	79.7466	3,864.26	82.1799	3,864.26	78.0723	3,864.26	75.1587	3,864.26	77.354	3,864.26	80.2277	3,864.26	76.538	3,864.26	78.6685	3,864.26	75.7774	3,864.26	75.0385	3,864.26	73.3081	3,864.26	67.2605	3,864.26	69.9601	3,864.26	71.1898	3,864.26	69.5267	3,864.26	69.2532	3,864.26	66.6727	3,864.26	57.4242	3,864.26	65.6788	3,864.26	65.2277	3,864.26	64.7282	3,864.26	59.7485	3,864.26	66.6654	3,864.26	63.0669	3,864.26	58.8699	3,864.26	61.3708	3,864.26	54.6323	3,864.26	67.4999	3,864.26	58.5102
4,000.49	82.3917	4,000.49	81.8055	4,000.49	78.8296	4,000.49	80.9797	4,000.49	82.2756	4,000.49	80.5088	4,000.49	83.141	4,000.49	79.5138	4,000.49	81.2736	4,000.49	79.1466	4,000.49	75.0551	4,000.49	77.6204	4,000.49	79.8867	4,000.49	77.3754	4,000.49	76.9078	4,000.49	71.5788	4,000.49	73.5107	4,000.49	71.7435	4,000.49	70.2924	4,000.49	68.1489	4,000.49	74.8212	4,000.49	66.2356	4,000.49	72.5356	4,000.49	67.2789	4,000.49	63.4734	4,000.49	66.6833	4,000.49	65.3463	4,000.49	64.77	4,000.49	59.2257	4,000.49	65.9066	4,000.49	57.5466	4,000.49	63.0305	4,000.49	60.0703	4,000.49	58.1518	4,000.49	68.447	4,000.49	63.1839
4,141.11	82.258	4,141.11	82.7049	4,141.11	79.0911	4,141.11	82.0025	4,141.11	81.1476	4,141.11	81.0856	4,141.11	82.7285	4,141.11	79.759	4,141.11	80.75	4,141.11	80.0197	4,141.11	72.4296	4,141.11	77.8979	4,141.11	77.8618	4,141.11	74.5606	4,141.11	75.1868	4,141.11	74.8287	4,141.11	75.8541	4,141.11	72.3495	4,141.11	73.0523	4,141.11	67.4775	4,141.11	76.2924	4,141.11	66.418	4,141.11	72.9617	4,141.11	63.2893	4,141.11	63.4191	4,141.11	66.1536	4,141.11	61.7784	4,141.11	65.3686	4,141.11	54.5058	4,141.11	64.8693	4,141.11	58.3345	4,141.11	61.8973	4,141.11	61.7194	4,141.11	58.1419	4,141.11	66.7575	4,141.11	63.9404
4,287.6	81.8129	4,287.6	83.2948	4,287.6	79.8652	4,287.6	81.2553	4,287.6	81.2503	4,287.6	79.3909	4,287.6	82.5366	4,287.6	79.6654	4,287.6	80.4424	4,287.6	80.194	4,287.6	72.57	4,287.6	75.3289	4,287.6	73.8346	4,287.6	75.1702	4,287.6	77.0702	4,287.6	66.833	4,287.6	78.1363	4,287.6	70.3096	4,287.6	74.8142	4,287.6	69.6122	4,287.6	76.2592	4,287.6	64.6762	4,287.6	69.0687	4,287.6	64.2843	4,287.6	60.3753	4,287.6	65.4244	4,287.6	64.4584	4,287.6	64.9121	4,287.6	59.1459	4,287.6	65.1233	4,287.6	63.0825	4,287.6	63.8336	4,287.6	60.4831	4,287.6	59.0419	4,287.6	63.3781	4,287.6	61.7828
4,438.48	82.3129	4,438.48	82.442	4,438.48	79.8797	4,438.48	80.6322	4,438.48	81.8454	4,438.48	80.9181	4,438.48	82.7037	4,438.48	81.1283	4,438.48	80.4898	4,438.48	78.9114	4,438.48	70.8233	4,438.48	75.8475	4,438.48	73.4327	4,438.48	73.5535	4,438.48	80.6252	4,438.48	74.3379	4,438.48	78.4112	4,438.48	70.9728	4,438.48	73.2903	4,438.48	66.1957	4,438.48	71.2095	4,438.48	67.8509	4,438.48	69.3173	4,438.48	64.4748	4,438.48	62.3405	4,438.48	65.8693	4,438.48	68.5181	4,438.48	64.4995	4,438.48	45.471	4,438.48	64.776	4,438.48	65.0047	4,438.48	64.5841	4,438.48	54.1612	4,438.48	59.882	4,438.48	63.6168	4,438.48	59.0367
4,595.21	82.6891	4,595.21	82.9227	4,595.21	79.3334	4,595.21	80.3042	4,595.21	81.5144	4,595.21	80.3473	4,595.21	81.3453	4,595.21	79.9283	4,595.21	79.955	4,595.21	78.8482	4,595.21	73.1039	4,595.21	75.7044	4,595.21	75.9714	4,595.21	76.0413	4,595.21	81.5095	4,595.21	70.4025	4,595.21	78.2219	4,595.21	72.0984	4,595.21	68.6418	4,595.21	69.857	4,595.21	69.6752	4,595.21	65.2097	4,595.21	72.2111	4,595.21	63.4599	4,595.21	63.9001	4,595.21	66.8785	4,595.21	69.4534	4,595.21	64.7004	4,595.21	51.9324	4,595.21	65.9284	4,595.21	64.9759	4,595.21	64.6553	4,595.21	55.6763	4,595.21	63.9715	4,595.21	63.9529	4,595.21	59.4354
4,756.35	82.4471	4,756.35	82.3139	4,756.35	79.3108	4,756.35	79.216	4,756.35	81.3596	4,756.35	82.0687	4,756.35	80.7886	4,756.35	81.2351	4,756.35	79.2755	4,756.35	77.5136	4,756.35	74.5104	4,756.35	77.5714	4,756.35	78.0763	4,756.35	73.8072	4,756.35	81.8814	4,756.35	74.4502	4,756.35	76.7033	4,756.35	68.8824	4,756.35	63.8544	4,756.35	67.5307	4,756.35	73.2487	4,756.35	65.2527	4,756.35	69.95	4,756.35	63.4888	4,756.35	65.4458	4,756.35	66.3553	4,756.35	67.9609	4,756.35	65.1158	4,756.35	59.775	4,756.35	66.3427	4,756.35	65.1409	4,756.35	63.4037	4,756.35	35.6567	4,756.35	64.9182	4,756.35	62.7773	4,756.35	55.8501
4,924.8	81.98	4,924.8	81.5847	4,924.8	80.9408	4,924.8	79.5616	4,924.8	81.487	4,924.8	82.4336	4,924.8	81.0165	4,924.8	78.3458	4,924.8	78.9394	4,924.8	77.8974	4,924.8	74.8757	4,924.8	77.549	4,924.8	78.554	4,924.8	76.2559	4,924.8	79.9154	4,924.8	72.1549	4,924.8	73.6928	4,924.8	72.2309	4,924.8	68.4215	4,924.8	69.0114	4,924.8	71.5571	4,924.8	66.5194	4,924.8	73.9527	4,924.8	64.7078	4,924.8	63.9875	4,924.8	64.6482	4,924.8	62.4994	4,924.8	64.2065	4,924.8	60.7425	4,924.8	66.5249	4,924.8	62.0707	4,924.8	64.439	4,924.8	57.0055	4,924.8	61.8626	4,924.8	54.6075	4,924.8	58.1826
5,097.66	82.3481	5,097.66	81.4962	5,097.66	79.9268	5,097.66	80.0235	5,097.66	81.1368	5,097.66	81.7213	5,097.66	81.8923	5,097.66	78.5627	5,097.66	78.9112	5,097.66	78.5296	5,097.66	77.0986	5,097.66	78.086	5,097.66	76.3638	5,097.66	76.3113	5,097.66	77.0552	5,097.66	73.9656	5,097.66	75.2843	5,097.66	69.1844	5,097.66	70.3354	5,097.66	67.6647	5,097.66	70.9134	5,097.66	65.3835	5,097.66	74.8361	5,097.66	65.19	5,097.66	59.461	5,097.66	65.6986	5,097.66	54.3101	5,097.66	64.8601	5,097.66	51.732	5,097.66	64.7058	5,097.66	59.4398	5,097.66	67.7542	5,097.66	58.0334	5,097.66	64.5163	5,097.66	58.5259	5,097.66	60.5012
5,277.83	81.6381	5,277.83	79.7869	5,277.83	78.8633	5,277.83	80.0113	5,277.83	80.8795	5,277.83	80.733	5,277.83	80.7068	5,277.83	77.7133	5,277.83	80.3741	5,277.83	79.7655	5,277.83	77.6603	5,277.83	77.3247	5,277.83	71.867	5,277.83	75.5145	5,277.83	74.4391	5,277.83	72.1432	5,277.83	76.6564	5,277.83	71.6485	5,277.83	73.526	5,277.83	68.0776	5,277.83	65.2445	5,277.83	63.7716	5,277.83	71.4087	5,277.83	64.2907	5,277.83	59.603	5,277.83	61.612	5,277.83	58.0067	5,277.83	63.6529	5,277.83	60.698	5,277.83	63.9078	5,277.83	56.056	5,277.83	65.7776	5,277.83	59.4329	5,277.83	65.3414	5,277.83	62.728	5,277.83	61.515
5,463.87	81.9803	5,463.87	79.7767	5,463.87	79.2977	5,463.87	80.6428	5,463.87	79.817	5,463.87	79.3467	5,463.87	78.9453	5,463.87	79.436	5,463.87	81.5364	5,463.87	78.7878	5,463.87	80.1503	5,463.87	77.3134	5,463.87	69.238	5,463.87	75.1076	5,463.87	75.9792	5,463.87	70.9553	5,463.87	74.5666	5,463.87	68.6709	5,463.87	69.7581	5,463.87	67.1742	5,463.87	68.8487	5,463.87	63.4692	5,463.87	70.6935	5,463.87	64.0956	5,463.87	64.9229	5,463.87	59.438	5,463.87	58.1951	5,463.87	63.4937	5,463.87	54.0326	5,463.87	63.3083	5,463.87	59.012	5,463.87	64.781	5,463.87	57.9769	5,463.87	64.4874	5,463.87	57.7007	5,463.87	58.8637
5,657.23	81.4545	5,657.23	79.0102	5,657.23	78.7923	5,657.23	79.7034	5,657.23	80.0282	5,657.23	78.8632	5,657.23	77.9948	5,657.23	78.9153	5,657.23	82.0092	5,657.23	79.056	5,657.23	79.6646	5,657.23	76.5248	5,657.23	68.6871	5,657.23	74.5726	5,657.23	76.4608	5,657.23	72.6039	5,657.23	74.8204	5,657.23	68.5793	5,657.23	70.9784	5,657.23	66.2929	5,657.23	60.1948	5,657.23	63.2447	5,657.23	69.313	5,657.23	61.5682	5,657.23	58.1248	5,657.23	65.152	5,657.23	56.022	5,657.23	61.154	5,657.23	60.841	5,657.23	62.4253	5,657.23	59.7743	5,657.23	65.3827	5,657.23	46.3731	5,657.23	64.5984	5,657.23	59.4932	5,657.23	54.992
5,856.45	81.1181	5,856.45	79.1204	5,856.45	78.4899	5,856.45	78.9161	5,856.45	81.0916	5,856.45	79.1968	5,856.45	79.3425	5,856.45	79.0569	5,856.45	81.3591	5,856.45	78.1143	5,856.45	78.8926	5,856.45	75.8729	5,856.45	70.6196	5,856.45	73.9661	5,856.45	75.9927	5,856.45	70.0153	5,856.45	76.2873	5,856.45	68.3849	5,856.45	73.1013	5,856.45	64.7207	5,856.45	62.2558	5,856.45	63.1029	5,856.45	67.6221	5,856.45	61.5462	5,856.45	61.4136	5,856.45	64.1749	5,856.45	55.4512	5,856.45	61.0462	5,856.45	59.3157	5,856.45	60.9412	5,856.45	58.5333	5,856.45	65.7184	5,856.45	59.4779	5,856.45	61.9641	5,856.45	56.8575	5,856.45	52.2239
6,062.99	80.7307	6,062.99	79.2946	6,062.99	78.8082	6,062.99	77.6445	6,062.99	80.1266	6,062.99	79.0856	6,062.99	78.9928	6,062.99	77.8696	6,062.99	79.2494	6,062.99	78.0471	6,062.99	77.8983	6,062.99	75.4346	6,062.99	70.9137	6,062.99	72.9596	6,062.99	75.3683	6,062.99	69.7915	6,062.99	74.4286	6,062.99	68.209	6,062.99	71.8993	6,062.99	65.2006	6,062.99	63.7768	6,062.99	61.9583	6,062.99	65.4513	6,062.99	60.4106	6,062.99	58.2615	6,062.99	63.6505	6,062.99	53.0396	6,062.99	60.4745	6,062.99	58.7005	6,062.99	61.3918	6,062.99	48.9666	6,062.99	66.3645	6,062.99	56.9769	6,062.99	64.2731	6,062.99	49.962	6,062.99	56.4977
6,276.86	80.7833	6,276.86	78.919	6,276.86	78.4332	6,276.86	78.1974	6,276.86	78.354	6,276.86	79.1174	6,276.86	78.2614	6,276.86	78.5383	6,276.86	77.7061	6,276.86	78.0822	6,276.86	78.0699	6,276.86	75.6965	6,276.86	73.4831	6,276.86	73.315	6,276.86	73.5533	6,276.86	70.1569	6,276.86	73.4142	6,276.86	67.6093	6,276.86	69.7626	6,276.86	64.6097	6,276.86	61.7294	6,276.86	57.4436	6,276.86	63.0605	6,276.86	59.4739	6,276.86	57.2503	6,276.86	61.232	6,276.86	51.3495	6,276.86	60.1697	6,276.86	51.6664	6,276.86	61.4385	6,276.86	57.4763	6,276.86	65.1896	6,276.86	49.3731	6,276.86	64.1162	6,276.86	43.636	6,276.86	55.5115
6,498.05	82.4054	6,498.05	78.8203	6,498.05	79.7382	6,498.05	78.6783	6,498.05	80.5441	6,498.05	78.2684	6,498.05	78.0366	6,498.05	78.6022	6,498.05	77.6156	6,498.05	76.6665	6,498.05	78.7891	6,498.05	74.8062	6,498.05	73.8838	6,498.05	71.7962	6,498.05	72.2883	6,498.05	67.5378	6,498.05	67.3643	6,498.05	65.8806	6,498.05	66.8205	6,498.05	63.47	6,498.05	64.52	6,498.05	59.6218	6,498.05	57.5041	6,498.05	58.5454	6,498.05	46.3823	6,498.05	56.1909	6,498.05	51.7856	6,498.05	60.4141	6,498.05	55.4691	6,498.05	59.0819	6,498.05	60.3432	6,498.05	61.6537	6,498.05	46.5388	6,498.05	61.3324	6,498.05	47.1086	6,498.05	57.3739
6,726.56	82.5725	6,726.56	78.9849	6,726.56	78.7293	6,726.56	79.7718	6,726.56	80.2328	6,726.56	78.2903	6,726.56	78.8143	6,726.56	77.9454	6,726.56	77.3968	6,726.56	76.2481	6,726.56	78.5798	6,726.56	73.5608	6,726.56	73.5855	6,726.56	72.1108	6,726.56	69.0692	6,726.56	68.915	6,726.56	68.3257	6,726.56	67.2208	6,726.56	64.9809	6,726.56	64.5205	6,726.56	61.7204	6,726.56	60.8064	6,726.56	63.7719	6,726.56	57.4599	6,726.56	55.9476	6,726.56	61.6223	6,726.56	37.8811	6,726.56	58.7051	6,726.56	54.1184	6,726.56	59.8728	6,726.56	61.0348	6,726.56	60.1058	6,726.56	51.7542	6,726.56	61.8565	6,726.56	47.9549	6,726.56	59.6952
6,963.87	82.3966	6,963.87	79.4533	6,963.87	80.1588	6,963.87	80.268	6,963.87	80.1267	6,963.87	78.6657	6,963.87	79.1892	6,963.87	76.7487	6,963.87	76.4469	6,963.87	75.9963	6,963.87	78.4398	6,963.87	73.5822	6,963.87	73.1819	6,963.87	73.0318	6,963.87	63.7065	6,963.87	69.1266	6,963.87	72.4522	6,963.87	66.9073	6,963.87	70.312	6,963.87	63.0198	6,963.87	52.0483	6,963.87	59.7183	6,963.87	65.1215	6,963.87	56.7519	6,963.87	61.0039	6,963.87	60.2769	6,963.87	45.7427	6,963.87	55.6487	6,963.87	53.9248	6,963.87	57.913	6,963.87	59.9293	6,963.87	59.4451	6,963.87	50.6725	6,963.87	60.2103	6,963.87	48.2598	6,963.87	55.8591
7,209.96	81.8954	7,209.96	80.0223	7,209.96	81.2131	7,209.96	80.4289	7,209.96	81.253	7,209.96	78.6895	7,209.96	78.4992	7,209.96	75.5302	7,209.96	76.6102	7,209.96	75.7029	7,209.96	77.9206	7,209.96	73.7277	7,209.96	71.1548	7,209.96	71.7627	7,209.96	70.9202	7,209.96	67.69	7,209.96	72.8571	7,209.96	64.9587	7,209.96	67.7056	7,209.96	61.0365	7,209.96	51.9574	7,209.96	58.3398	7,209.96	62.1677	7,209.96	56.5369	7,209.96	57.464	7,209.96	57.554	7,209.96	43.1115	7,209.96	52.3472	7,209.96	53.7283	7,209.96	56.8871	7,209.96	59.6217	7,209.96	59.4986	7,209.96	45.19	7,209.96	60.8226	7,209.96	51.3129	7,209.96	53.7003
7,464.84	81.3677	7,464.84	80.7317	7,464.84	80.5981	7,464.84	80.4933	7,464.84	80.93	7,464.84	78.0008	7,464.84	79.4995	7,464.84	75.6692	7,464.84	77.2475	7,464.84	75.7122	7,464.84	77.1949	7,464.84	73.4853	7,464.84	71.0128	7,464.84	70.4754	7,464.84	74.0395	7,464.84	68.4737	7,464.84	69.3711	7,464.84	64.2994	7,464.84	64.3568	7,464.84	62.819	7,464.84	57.4446	7,464.84	57.7386	7,464.84	55.3177	7,464.84	57.8128	7,464.84	56.0104	7,464.84	56.8229	7,464.84	51.3361	7,464.84	55.2631	7,464.84	54.4819	7,464.84	57.0072	7,464.84	56.1508	7,464.84	58.9842	7,464.84	53.5808	7,464.84	57.2476	7,464.84	47.3423	7,464.84	49.7033
7,727.05	80.5894	7,727.05	80.8869	7,727.05	81.0126	7,727.05	80.1143	7,727.05	80.3766	7,727.05	78.2657	7,727.05	79.7879	7,727.05	75.5609	7,727.05	76.3546	7,727.05	75.7302	7,727.05	75.9181	7,727.05	73.5938	7,727.05	71.9222	7,727.05	70.8814	7,727.05	72.5105	7,727.05	68.2024	7,727.05	64.3085	7,727.05	62.9517	7,727.05	64.2689	7,727.05	63.0587	7,727.05	58.2409	7,727.05	56.4588	7,727.05	63.9531	7,727.05	58.3492	7,727.05	47.4311	7,727.05	58.3097	7,727.05	43.8349	7,727.05	56.6165	7,727.05	52.2619	7,727.05	54.9965	7,727.05	47.3122	7,727.05	57.9788	7,727.05	55.5661	7,727.05	55.8825	7,727.05	40.1515	7,727.05	49.7098
7,999.51	80.1365	7,999.51	80.9449	7,999.51	80.6451	7,999.51	80.2517	7,999.51	80.4351	7,999.51	78.5589	7,999.51	78.1651	7,999.51	75.532	7,999.51	74.5166	7,999.51	75.9216	7,999.51	73.3365	7,999.51	73.6174	7,999.51	72.9353	7,999.51	70.8916	7,999.51	66.639	7,999.51	67.7797	7,999.51	66.8182	7,999.51	63.5888	7,999.51	61.967	7,999.51	61.9577	7,999.51	47.7196	7,999.51	56.6726	7,999.51	64.5264	7,999.51	57.2769	7,999.51	50.7091	7,999.51	57.747	7,999.51	40.8191	7,999.51	57.0069	7,999.51	46.6214	7,999.51	51.1889	7,999.51	45.3739	7,999.51	57.5079	7,999.51	52.8425	7,999.51	57.5274	7,999.51	44.2218	7,999.51	52.5147
8,282.23	80.3876	8,282.23	81.0293	8,282.23	80.2575	8,282.23	80.6342	8,282.23	80.1166	8,282.23	78.2624	8,282.23	76.9981	8,282.23	76.2004	8,282.23	74.306	8,282.23	76.0608	8,282.23	70.7032	8,282.23	73.7829	8,282.23	71.4003	8,282.23	71.0876	8,282.23	61.9574	8,282.23	67.6734	8,282.23	69.5519	8,282.23	64.3663	8,282.23	60.6158	8,282.23	61.7047	8,282.23	41.513	8,282.23	57.7708	8,282.23	63.5062	8,282.23	55.9903	8,282.23	50.239	8,282.23	55.8703	8,282.23	44.3446	8,282.23	56.2474	8,282.23	46.0472	8,282.23	54.6288	8,282.23	42.8607	8,282.23	56.9051	8,282.23	52.2378	8,282.23	56.4329	8,282.23	44.1961	8,282.23	51.4707
8,573.73	80.3179	8,573.73	81.2257	8,573.73	79.9375	8,573.73	80.8982	8,573.73	79.6461	8,573.73	78.6645	8,573.73	77.1346	8,573.73	76.5473	8,573.73	73.5453	8,573.73	76.0788	8,573.73	72.1475	8,573.73	74.2142	8,573.73	67.9646	8,573.73	70.8527	8,573.73	64.5985	8,573.73	68.6046	8,573.73	65.6517	8,573.73	64.4852	8,573.73	59.6658	8,573.73	62.3174	8,573.73	49.5562	8,573.73	58.3726	8,573.73	61.3845	8,573.73	55.5697	8,573.73	47.221	8,573.73	57.1175	8,573.73	45.224	8,573.73	57.0422	8,573.73	44.7823	8,573.73	55.8236	8,573.73	42.0069	8,573.73	56.487	8,573.73	48.7609	8,573.73	56.8833	8,573.73	46.3866	8,573.73	52.552
8,876.95	80.2678	8,876.95	81.3662	8,876.95	80.0354	8,876.95	80.9418	8,876.95	78.4515	8,876.95	78.8971	8,876.95	76.73	8,876.95	76.073	8,876.95	72.5127	8,876.95	75.9485	8,876.95	71.7701	8,876.95	73.8713	8,876.95	64.4157	8,876.95	70.6458	8,876.95	62.8754	8,876.95	68.2474	8,876.95	59.5755	8,876.95	63.2868	8,876.95	56.5522	8,876.95	61.6151	8,876.95	49.2813	8,876.95	57.6678	8,876.95	57.4928	8,876.95	55.3206	8,876.95	39.4481	8,876.95	56.3531	8,876.95	45.6958	8,876.95	56.953	8,876.95	45.2	8,876.95	55.0405	8,876.95	38.5585	8,876.95	54.8915	8,876.95	45.9834	8,876.95	56.5409	8,876.95	45.6989	8,876.95	51.5287
9,188.96	80.1064	9,188.96	81.1599	9,188.96	79.8578	9,188.96	80.6251	9,188.96	77.9193	9,188.96	78.3611	9,188.96	75.8764	9,188.96	75.3705	9,188.96	73.4492	9,188.96	75.0793	9,188.96	70.9151	9,188.96	73.0341	9,188.96	66.9458	9,188.96	69.6711	9,188.96	60.4972	9,188.96	67.0783	9,188.96	61.5823	9,188.96	62.3832	9,188.96	57.6781	9,188.96	60.9747	9,188.96	56.3956	9,188.96	55.2698	9,188.96	55.0075	9,188.96	54.7527	9,188.96	39.2229	9,188.96	56.3052	9,188.96	48.1545	9,188.96	56.2759	9,188.96	46.7415	9,188.96	55.4874	9,188.96	44.5612	9,188.96	53.2309	9,188.96	45.7966	9,188.96	56.7565	9,188.96	48.4636	9,188.96	50.006
9,514.16	80.4126	9,514.16	80.5573	9,514.16	79.7316	9,514.16	79.7162	9,514.16	77.9654	9,514.16	77.3404	9,514.16	76.6766	9,514.16	74.731	9,514.16	74.5732	9,514.16	73.6467	9,514.16	68.2039	9,514.16	72.6577	9,514.16	69.7967	9,514.16	69.35	9,514.16	60.4187	9,514.16	66.006	9,514.16	65.4312	9,514.16	62.7475	9,514.16	61.0678	9,514.16	60.382	9,514.16	54.762	9,514.16	55.3075	9,514.16	53.5429	9,514.16	52.7377	9,514.16	50.2346	9,514.16	54.8882	9,514.16	42.4256	9,514.16	55.9192	9,514.16	48.8831	9,514.16	54.6461	9,514.16	46.2015	9,514.16	51.9329	9,514.16	51.8339	9,514.16	54.6616	9,514.16	50.5021	9,514.16	49.0528
9,849.61	80.1876	9,849.61	79.8942	9,849.61	78.842	9,849.61	78.5136	9,849.61	77.6367	9,849.61	76.8515	9,849.61	76.1609	9,849.61	73.5432	9,849.61	73.3641	9,849.61	73.7904	9,849.61	70.6691	9,849.61	72.6368	9,849.61	71.7944	9,849.61	70.061	9,849.61	62.4811	9,849.61	66.9158	9,849.61	68.1219	9,849.61	62.9114	9,849.61	61.9195	9,849.61	59.7537	9,849.61	53.4476	9,849.61	55.8177	9,849.61	55.448	9,849.61	53.5514	9,849.61	55.4815	9,849.61	53.9426	9,849.61	46.5862	9,849.61	55.4146	9,849.61	44.1007	9,849.61	55.255	9,849.61	47.6376	9,849.61	49.975	9,849.61	55.9498	9,849.61	55.6422	9,849.61	53.3121	9,849.61	51.8039
10,196.8	79.6248	10,196.8	78.4819	10,196.8	78.0531	10,196.8	76.8762	10,196.8	77.049	10,196.8	76.9337	10,196.8	74.8922	10,196.8	72.9771	10,196.8	72.8994	10,196.8	73.9314	10,196.8	74.5426	10,196.8	73.8536	10,196.8	71.6623	10,196.8	70.1063	10,196.8	67.3189	10,196.8	67.8554	10,196.8	67.8865	10,196.8	62.6493	10,196.8	64.6124	10,196.8	59.7701	10,196.8	53.2977	10,196.8	54.8873	10,196.8	55.5202	10,196.8	56.2524	10,196.8	50.5453	10,196.8	54.7282	10,196.8	47.0826	10,196.8	55.9961	10,196.8	45.4138	10,196.8	56.0673	10,196.8	49.8717	10,196.8	49.6137	10,196.8	56.7532	10,196.8	56.3564	10,196.8	54.4318	10,196.8	51.4069
10,555.7	79.9532	10,555.7	77.333	10,555.7	79.0802	10,555.7	77.4394	10,555.7	78.3897	10,555.7	77.4295	10,555.7	78.4096	10,555.7	74.3107	10,555.7	76.851	10,555.7	73.889	10,555.7	75.4613	10,555.7	74.1721	10,555.7	72.249	10,555.7	69.7138	10,555.7	69.5828	10,555.7	67.4977	10,555.7	66.739	10,555.7	61.0162	10,555.7	60.8693	10,555.7	58.8146	10,555.7	54.4202	10,555.7	52.57	10,555.7	52.5952	10,555.7	55.8637	10,555.7	42.4644	10,555.7	53.6993	10,555.7	33.1946	10,555.7	54.8233	10,555.7	45.2428	10,555.7	55.878	10,555.7	47.8582	10,555.7	49.2149	10,555.7	54.49	10,555.7	56.0728	10,555.7	51.5503	10,555.7	51.8499
10,927.7	81.5211	10,927.7	80.3777	10,927.7	81.9488	10,927.7	80.2759	10,927.7	80.5587	10,927.7	78.8727	10,927.7	80.4947	10,927.7	75.108	10,927.7	78.9271	10,927.7	73.8673	10,927.7	75.3129	10,927.7	72.6418	10,927.7	73.5296	10,927.7	68.4638	10,927.7	68.4403	10,927.7	64.94	10,927.7	64.2396	10,927.7	60.0546	10,927.7	57.1445	10,927.7	56.7396	10,927.7	43.8987	10,927.7	47.8309	10,927.7	59.3966	10,927.7	49.8987	10,927.7	52.3211	10,927.7	51.6603	10,927.7	43.0494	10,927.7	51.3917	10,927.7	47.203	10,927.7	52.9163	10,927.7	25.25	10,927.7	49.1631	10,927.7	49.7845	10,927.7	53.0943	10,927.7	50.4805	10,927.7	48.0846
11,313	83.3093	11,313	82.9747	11,313	83.5737	11,313	81.7551	11,313	82.3109	11,313	79.6085	11,313	80.966	11,313	75.1233	11,313	78.4045	11,313	72.7657	11,313	75.2655	11,313	70.5801	11,313	73.12	11,313	65.8846	11,313	68.5845	11,313	61.7961	11,313	64.7249	11,313	55.2976	11,313	61.5496	11,313	52.752	11,313	38.1325	11,313	46.5928	11,313	58.5049	11,313	49.0148	11,313	47.2364	11,313	48.8762	11,313	45.3656	11,313	47.8712	11,313	39.6691	11,313	49.7537	11,313	41.8065	11,313	48.233	11,313	46.1517	11,313	50.5215	11,313	48.6108	11,313	45.0456
11,712.9	84.1158	11,712.9	83.8932	11,712.9	84.278	11,712.9	82.0344	11,712.9	82.5375	11,712.9	79.7166	11,712.9	81.1272	11,712.9	74.553	11,712.9	77.213	11,712.9	71.2156	11,712.9	73.9582	11,712.9	68.2984	11,712.9	70.8445	11,712.9	62.7344	11,712.9	65.1925	11,712.9	59.2579	11,712.9	62.0329	11,712.9	51.9825	11,712.9	54.425	11,712.9	51.0967	11,712.9	38.6446	11,712.9	41.7503	11,712.9	55.4029	11,712.9	44.3828	11,712.9	42.5965	11,712.9	47.6243	11,712.9	31.3636	11,712.9	46.7492	11,712.9	40.9464	11,712.9	44.8661	11,712.9	34.6001	11,712.9	45.0743	11,712.9	42.5422	11,712.9	47.1691	11,712.9	45.68	11,712.9	37.1075
12,126	84.4541	12,126	83.9272	12,126	84.326	12,126	82.0194	12,126	82.5779	12,126	79.2167	12,126	80.201	12,126	73.9598	12,126	76.4831	12,126	69.163	12,126	71.5591	12,126	65.9558	12,126	66.2387	12,126	59.4002	12,126	62.2884	12,126	55.9125	12,126	54.9075	12,126	46.6048	12,126	48.6535	12,126	46.4946	12,126	39.1017	12,126	39.0571	12,126	52.9774	12,126	38.3169	12,126	23.9067	12,126	42.5487	12,126	34.4288	12,126	40.9697	12,126	41.4449	12,126	38.954	12,126	36.8124	12,126	34.6934	12,126	41.8609	12,126	41.9021	12,126	42.7125	12,126	27.6787
12,553.7	84.2123	12,553.7	83.4976	12,553.7	83.9698	12,553.7	81.6133	12,553.7	82.0686	12,553.7	78.2478	12,553.7	79.79	12,553.7	72.8681	12,553.7	74.9082	12,553.7	67.5818	12,553.7	69.8508	12,553.7	63.0767	12,553.7	62.0991	12,553.7	57.0559	12,553.7	53.0343	12,553.7	52.6336	12,553.7	44.6758	12,553.7	43.2178	12,553.7	35.4915	12,553.7	45.9596	12,553.7	43.0134	12,553.7	33.4734	12,553.7	49.4073	12,553.7	35.2675	12,553.7	31.6939	12,553.7	41.3649	12,553.7	34.7132	12,553.7	40.3957	12,553.7	39.3678	12,553.7	34.77	12,553.7	39.4296	12,553.7	34.4944	12,553.7	42.8048	12,553.7	36.2432	12,553.7	42.2952	12,553.7	22.2022
12,996.1	83.8356	12,996.1	83.058	12,996.1	83.614	12,996.1	80.9845	12,996.1	81.4387	12,996.1	77.0286	12,996.1	78.8109	12,996.1	71.1747	12,996.1	73.9137	12,996.1	64.3748	12,996.1	67.6624	12,996.1	58.9175	12,996.1	58.8454	12,996.1	56.6726	12,996.1	42.4049	12,996.1	53.1644	12,996.1	44.3574	12,996.1	46.536	12,996.1	40.0915	12,996.1	47.6756	12,996.1	43.4311	12,996.1	28.6936	12,996.1	45.6939	12,996.1	34.8806	12,996.1	33.2184	12,996.1	43.0694	12,996.1	34.5076	12,996.1	43.0247	12,996.1	37.4181	12,996.1	39.3993	12,996.1	37.9291	12,996.1	36.9465	12,996.1	38.515	12,996.1	35.7506	12,996.1	41.2087	12,996.1	29.3703
13,454.6	84.0336	13,454.6	83.0872	13,454.6	83.6879	13,454.6	80.597	13,454.6	81.5912	13,454.6	76.1253	13,454.6	78.6471	13,454.6	69.0641	13,454.6	74.0254	13,454.6	60.42	13,454.6	67.1662	13,454.6	53.7169	13,454.6	59.944	13,454.6	57.5631	13,454.6	52.7151	13,454.6	54.1353	13,454.6	46.6216	13,454.6	47.9254	13,454.6	41.7101	13,454.6	48.5728	13,454.6	42.0671	13,454.6	37.133	13,454.6	43.2363	13,454.6	36.0162	13,454.6	33.9229	13,454.6	44.2727	13,454.6	19.9878	13,454.6	44.9578	13,454.6	32.4983	13,454.6	40.9844	13,454.6	33.0672	13,454.6	37.1094	13,454.6	36.5776	13,454.6	32.6684	13,454.6	38.6597	13,454.6	35.7849
13,929.2	84.8923	13,929.2	83.9072	13,929.2	84.6925	13,929.2	81.1632	13,929.2	82.547	13,929.2	76.1669	13,929.2	79.3573	13,929.2	67.0211	13,929.2	73.4635	13,929.2	54.0268	13,929.2	67.403	13,929.2	59.0676	13,929.2	57.8002	13,929.2	61.6188	13,929.2	47.5475	13,929.2	58.5669	13,929.2	30.3615	13,929.2	52.2244	13,929.2	31.8771	13,929.2	50.8785	13,929.2	40.006	13,929.2	43.4707	13,929.2	43.9805	13,929.2	41.2324	13,929.2	37.5705	13,929.2	46.2523	13,929.2	26.7273	13,929.2	47.9301	13,929.2	32.4835	13,929.2	45.596	13,929.2	34.9369	13,929.2	38.8375	13,929.2	31.805	13,929.2	28.6657	13,929.2	26.7407	13,929.2	37.9277
14,419.9	85.7006	14,419.9	84.6918	14,419.9	85.4576	14,419.9	81.5803	14,419.9	83.2722	14,419.9	75.8754	14,419.9	79.8795	14,419.9	63.6413	14,419.9	73.6085	14,419.9	52.0459	14,419.9	66.7595	14,419.9	63.5578	14,419.9	50.6016	14,419.9	63.7658	14,419.9	45.3155	14,419.9	60.4957	14,419.9	41.1104	14,419.9	54.3758	14,419.9	40.3434	14,419.9	51.9695	14,419.9	40.6687	14,419.9	47.5009	14,419.9	38.3034	14,419.9	42.1212	14,419.9	39.8804	14,419.9	47.8597	14,419.9	28.2962	14,419.9	49.1183	14,419.9	22.4302	14,419.9	46.7845	14,419.9	32.4763	14,419.9	39.6121	14,419.9	42.143	14,419.9	37.0991	14,419.9	40.5739	14,419.9	41.7423
14,928.2	85.8642	14,928.2	84.8155	14,928.2	85.4919	14,928.2	81.3762	14,928.2	82.9195	14,928.2	75.3185	14,928.2	79.4373	14,928.2	65.2111	14,928.2	72.0658	14,928.2	59.9508	14,928.2	63.0906	14,928.2	64.0586	14,928.2	45.5418	14,928.2	63.1516	14,928.2	53.7387	14,928.2	59.8724	14,928.2	42.1558	14,928.2	52.4971	14,928.2	38.5694	14,928.2	51.9436	14,928.2	41.1759	14,928.2	44.9732	14,928.2	44.303	14,928.2	39.2042	14,928.2	43.4437	14,928.2	46.6717	14,928.2	23.179	14,928.2	47.5448	14,928.2	31.8277	14,928.2	44.0568	14,928.2	36.0281	14,928.2	38.6497	14,928.2	46.406	14,928.2	39.8903	14,928.2	43.9534	14,928.2	39.6806
15,455.6	86.1873	15,455.6	84.934	15,455.6	85.6966	15,455.6	81.4119	15,455.6	82.9278	15,455.6	75.4214	15,455.6	79.1716	15,455.6	66.3038	15,455.6	71.5336	15,455.6	58.6811	15,455.6	60.7212	15,455.6	59.8303	15,455.6	58.3761	15,455.6	61.2649	15,455.6	56.3276	15,455.6	57.2976	15,455.6	51.5058	15,455.6	49.9128	15,455.6	35.2963	15,455.6	49.9395	15,455.6	49.5078	15,455.6	39.3437	15,455.6	50.0709	15,455.6	28.0825	15,455.6	44.3572	15,455.6	45.0762	15,455.6	35.3481	15,455.6	44.1564	15,455.6	29.5381	15,455.6	36.9596	15,455.6	41.3517	15,455.6	39.306	15,455.6	47.899	15,455.6	42.4007	15,455.6	44.5594	15,455.6	39.9857
16,000.5	86.1595	16,000.5	84.7185	16,000.5	85.5657	16,000.5	81.3383	16,000.5	82.6125	16,000.5	74.1313	16,000.5	78.1686	16,000.5	64.7438	16,000.5	69.0756	16,000.5	47.418	16,000.5	54.9881	16,000.5	60.5969	16,000.5	62.008	16,000.5	59.3771	16,000.5	59.4677	16,000.5	55.7497	16,000.5	52.9419	16,000.5	49.5974	16,000.5	41.1996	16,000.5	46.5587	16,000.5	48.056	16,000.5	43.633	16,000.5	44.8912	16,000.5	34.9448	16,000.5	42.1659	16,000.5	43.4272	16,000.5	35.433	16,000.5	41.0951	16,000.5	38.55	16,000.5	40.4295	16,000.5	40.4476	16,000.5	35.5342	16,000.5	42.8099	16,000.5	45.2184	16,000.5	37.1515	16,000.5	38.279
16,564.5	85.9306	16,564.5	84.3013	16,564.5	85.1238	16,564.5	80.6765	16,564.5	81.9318	16,564.5	72.3062	16,564.5	77.2574	16,564.5	61.222	16,564.5	66.899	16,564.5	53.9114	16,564.5	50.2974	16,564.5	62.1706	16,564.5	64.3169	16,564.5	58.2513	16,564.5	60.7003	16,564.5	56.5673	16,564.5	50.3408	16,564.5	50.8679	16,564.5	42.9662	16,564.5	46.9603	16,564.5	45.7962	16,564.5	40.7475	16,564.5	39.8318	16,564.5	35.109	16,564.5	33.0851	16,564.5	41.1942	16,564.5	40.995	16,564.5	43.0024	16,564.5	39.0342	16,564.5	44.9002	16,564.5	42.0836	16,564.5	35.2004	16,564.5	45.23	16,564.5	46.0906	16,564.5	40.598	16,564.5	33.7574
17,148.9	85.3512	17,148.9	83.5168	17,148.9	84.5385	17,148.9	79.3288	17,148.9	81.2941	17,148.9	70.0528	17,148.9	76.4597	17,148.9	50.1764	17,148.9	66.2384	17,148.9	57.7607	17,148.9	54.0704	17,148.9	62.1787	17,148.9	62.3814	17,148.9	59.074	17,148.9	58.0355	17,148.9	56.4521	17,148.9	52.2782	17,148.9	50.9267	17,148.9	46.6681	17,148.9	44.197	17,148.9	44.83	17,148.9	43.2484	17,148.9	47.3052	17,148.9	32.6361	17,148.9	39.7585	17,148.9	38.4901	17,148.9	39.6101	17,148.9	41.4269	17,148.9	36.4504	17,148.9	45.2163	17,148.9	38.2389	17,148.9	35.6101	17,148.9	43.1244	17,148.9	43.7776	17,148.9	41.2234	17,148.9	33.783
17,752.4	84.6864	17,752.4	82.7676	17,752.4	84.0057	17,752.4	78.0309	17,752.4	80.8899	17,752.4	69.1272	17,752.4	76.2318	17,752.4	35.9066	17,752.4	66.3	17,752.4	55.5516	17,752.4	42.8453	17,752.4	60.2411	17,752.4	56.0008	17,752.4	58.9902	17,752.4	57.0541	17,752.4	54.3441	17,752.4	54.4275	17,752.4	49.7641	17,752.4	40.9724	17,752.4	39.9593	17,752.4	46.3491	17,752.4	39.8834	17,752.4	51.2926	17,752.4	27.9451	17,752.4	34.0372	17,752.4	37.0846	17,752.4	35.2907	17,752.4	39.5022	17,752.4	37.6843	17,752.4	43.9766	17,752.4	40.2092	17,752.4	30.6296	17,752.4	40.0479	17,752.4	32.9405	17,752.4	43.2438	17,752.4	33.3394
18,379.4	84.1231	18,379.4	82.0618	18,379.4	83.8569	18,379.4	76.8103	18,379.4	80.7316	18,379.4	68.6525	18,379.4	76.0337	18,379.4	52.4837	18,379.4	66.9479	18,379.4	56.1659	18,379.4	53.1721	18,379.4	57.6274	18,379.4	55.0901	18,379.4	56.3888	18,379.4	58.9133	18,379.4	48.5928	18,379.4	54.8949	18,379.4	46.1349	18,379.4	43.1607	18,379.4	33.3874	18,379.4	49.5613	18,379.4	30.4576	18,379.4	53.9284	18,379.4	32.7521	18,379.4	39.8915	18,379.4	32.2275	18,379.4	36.9756	18,379.4	33.2873	18,379.4	37.8957	18,379.4	38.8231	18,379.4	42.5837	18,379.4	29.3591	18,379.4	35.8866	18,379.4	37.863	18,379.4	41.426	18,379.4	30.7019
19,026.9	83.2468	19,026.9	80.9452	19,026.9	83.4645	19,026.9	74.6003	19,026.9	80.2443	19,026.9	67.6425	19,026.9	75.2376	19,026.9	63.4498	19,026.9	66.0087	19,026.9	63.179	19,026.9	60.5523	19,026.9	60.7592	19,026.9	63.0158	19,026.9	55.9589	19,026.9	61.5711	19,026.9	49.044	19,026.9	56.8034	19,026.9	44.5184	19,026.9	46.5185	19,026.9	31.4204	19,026.9	50.0565	19,026.9	35.4068	19,026.9	53.0345	19,026.9	28.0117	19,026.9	27.2949	19,026.9	34.1673	19,026.9	30.6854	19,026.9	36.1735	19,026.9	35.1952	19,026.9	25.0346	19,026.9	41.5758	19,026.9	34.8179	19,026.9	41.8537	19,026.9	41.8061	19,026.9	41.3021	19,026.9	33.4569
19,697.8	82.2407	19,697.8	78.7703	19,697.8	82.4866	19,697.8	69.0613	19,697.8	78.878	19,697.8	67.1099	19,697.8	72.1019	19,697.8	67.3367	19,697.8	66.4595	19,697.8	66.0756	19,697.8	66.4663	19,697.8	63.5344	19,697.8	64.709	19,697.8	57.8868	19,697.8	63.7512	19,697.8	53.5635	19,697.8	59.3854	19,697.8	46.3261	19,697.8	49.1716	19,697.8	32.4082	19,697.8	49.5815	19,697.8	42.8448	19,697.8	50.3884	19,697.8	17.3167	19,697.8	35.5585	19,697.8	38.5496	19,697.8	40.2378	19,697.8	40.6498	19,697.8	35.4851	19,697.8	40.221	19,697.8	34.584	19,697.8	33.2839	19,697.8	41.6305	19,697.8	41.6682	19,697.8	37.8982	19,697.8	27.7907
19,999.5	81.772	19,999.5	77.8025	19,999.5	81.8432	19,999.5	66.7231	19,999.5	77.8646	19,999.5	67.4151	19,999.5	69.7617	19,999.5	67.886	19,999.5	67.4523	19,999.5	65.1649	19,999.5	68.0781	19,999.5	63.8299	19,999.5	67.109	19,999.5	58.2944	19,999.5	67.5418	19,999.5	54.7002	19,999.5	60.985	19,999.5	46.2442	19,999.5	46.767	19,999.5	38.4355	19,999.5	52.2345	19,999.5	46.5695	19,999.5	54.3736	19,999.5	37.9118	19,999.5	43.7939	19,999.5	45.1795	19,999.5	27.8626	19,999.5	48.7538	19,999.5	39.3623	19,999.5	32.7856	19,999.5	37.3678	19,999.5	35.0771	19,999.5	42.5141	19,999.5	38.5172	19,999.5	38.9381	19,999.5	31.5655
