"SPL Horizontal"
"On-Axis"		"10°"		"-10°"		"20°"		"-20°"		"30°"		"-30°"		"40°"		"-40°"		"50°"		"-50°"		"60°"		"-60°"		"70°"		"-70°"		"80°"		"-80°"		"90°"		"-90°"		"100°"		"-100°"		"110°"		"-110°"		"120°"		"-120°"		"130°"		"-130°"		"140°"		"-140°"		"150°"		"-150°"		"160°"		"-160°"		"170°"		"-170°"		"180°"
"Frequency / Hz"	"Sound Pressure Level / dB (re 20 µPa/V)  [2.83  V @ 1. m]"	"Frequency / Hz"	"Sound Pressure Level / dB (re 20 µPa/V)  [2.83  V @ 1. m]"	"Frequency / Hz"	"Sound Pressure Level / dB (re 20 µPa/V)  [2.83  V @ 1. m]"	"Frequency / Hz"	"Sound Pressure Level / dB (re 20 µPa/V)  [2.83  V @ 1. m]"	"Frequency / Hz"	"Sound Pressure Level / dB (re 20 µPa/V)  [2.83  V @ 1. m]"	"Frequency / Hz"	"Sound Pressure Level / dB (re 20 µPa/V)  [2.83  V @ 1. m]"	"Frequency / Hz"	"Sound Pressure Level / dB (re 20 µPa/V)  [2.83  V @ 1. m]"	"Frequency / Hz"	"Sound Pressure Level / dB (re 20 µPa/V)  [2.83  V @ 1. m]"	"Frequency / Hz"	"Sound Pressure Level / dB (re 20 µPa/V)  [2.83  V @ 1. m]"	"Frequency / Hz"	"Sound Pressure Level / dB (re 20 µPa/V)  [2.83  V @ 1. m]"	"Frequency / Hz"	"Sound Pressure Level / dB (re 20 µPa/V)  [2.83  V @ 1. m]"	"Frequency / Hz"	"Sound Pressure Level / dB (re 20 µPa/V)  [2.83  V @ 1. m]"	"Frequency / Hz"	"Sound Pressure Level / dB (re 20 µPa/V)  [2.83  V @ 1. m]"	"Frequency / Hz"	"Sound Pressure Level / dB (re 20 µPa/V)  [2.83  V @ 1. m]"	"Frequency / Hz"	"Sound Pressure Level / dB (re 20 µPa/V)  [2.83  V @ 1. m]"	"Frequency / Hz"	"Sound Pressure Level / dB (re 20 µPa/V)  [2.83  V @ 1. m]"	"Frequency / Hz"	"Sound Pressure Level / dB (re 20 µPa/V)  [2.83  V @ 1. m]"	"Frequency / Hz"	"Sound Pressure Level / dB (re 20 µPa/V)  [2.83  V @ 1. m]"	"Frequency / Hz"	"Sound Pressure Level / dB (re 20 µPa/V)  [2.83  V @ 1. m]"	"Frequency / Hz"	"Sound Pressure Level / dB (re 20 µPa/V)  [2.83  V @ 1. m]"	"Frequency / Hz"	"Sound Pressure Level / dB (re 20 µPa/V)  [2.83  V @ 1. m]"	"Frequency / Hz"	"Sound Pressure Level / dB (re 20 µPa/V)  [2.83  V @ 1. m]"	"Frequency / Hz"	"Sound Pressure Level / dB (re 20 µPa/V)  [2.83  V @ 1. m]"	"Frequency / Hz"	"Sound Pressure Level / dB (re 20 µPa/V)  [2.83  V @ 1. m]"	"Frequency / Hz"	"Sound Pressure Level / dB (re 20 µPa/V)  [2.83  V @ 1. m]"	"Frequency / Hz"	"Sound Pressure Level / dB (re 20 µPa/V)  [2.83  V @ 1. m]"	"Frequency / Hz"	"Sound Pressure Level / dB (re 20 µPa/V)  [2.83  V @ 1. m]"	"Frequency / Hz"	"Sound Pressure Level / dB (re 20 µPa/V)  [2.83  V @ 1. m]"	"Frequency / Hz"	"Sound Pressure Level / dB (re 20 µPa/V)  [2.83  V @ 1. m]"	"Frequency / Hz"	"Sound Pressure Level / dB (re 20 µPa/V)  [2.83  V @ 1. m]"	"Frequency / Hz"	"Sound Pressure Level / dB (re 20 µPa/V)  [2.83  V @ 1. m]"	"Frequency / Hz"	"Sound Pressure Level / dB (re 20 µPa/V)  [2.83  V @ 1. m]"	"Frequency / Hz"	"Sound Pressure Level / dB (re 20 µPa/V)  [2.83  V @ 1. m]"	"Frequency / Hz"	"Sound Pressure Level / dB (re 20 µPa/V)  [2.83  V @ 1. m]"	"Frequency / Hz"	"Sound Pressure Level / dB (re 20 µPa/V)  [2.83  V @ 1. m]"	"Frequency / Hz"	"Sound Pressure Level / dB (re 20 µPa/V)  [2.83  V @ 1. m]"
20.5078	59.9386	20.5078	59.8834	20.5078	59.9313	20.5078	59.7741	20.5078	59.8708	20.5078	59.6391	20.5078	59.7854	20.5078	59.5314	20.5078	59.7241	20.5078	59.5301	20.5078	59.7553	20.5078	59.7271	20.5078	59.9537	20.5078	60.1922	20.5078	60.3739	20.5078	60.9329	20.5078	61.0226	20.5078	61.8868	20.5078	61.856	20.5078	62.9552	20.5078	62.801	20.5078	64.042	20.5078	63.7834	20.5078	65.0726	20.5078	64.742	20.5078	65.9949	20.5078	65.6315	20.5078	66.7733	20.5078	66.4179	20.5078	67.3832	20.5078	67.0751	20.5078	67.8086	20.5078	67.5819	20.5078	68.0404	20.5078	67.9203	20.5078	68.0763
21.9727	63.4262	21.9727	63.3854	21.9727	63.4211	21.9727	63.3009	21.9727	63.3764	21.9727	63.1833	21.9727	63.3074	21.9727	63.053	21.9727	63.24	21.9727	62.9421	21.9727	63.2114	21.9727	62.8953	21.9727	63.267	21.9727	62.965	21.9727	63.4516	21.9727	63.1997	21.9727	63.7954	21.9727	63.6245	21.9727	64.3003	21.9727	64.2282	21.9727	64.9371	21.9727	64.964	21.9727	65.655	21.9727	65.7661	21.9727	66.3954	21.9727	66.5661	21.9727	67.1039	21.9727	67.3044	21.9727	67.7346	21.9727	67.9337	21.9727	68.2515	21.9727	68.4194	21.9727	68.627	21.9727	68.739	21.9727	68.841	21.9727	68.8803
23.4375	61.5107	23.4375	61.3691	23.4375	61.5494	23.4375	61.1224	23.4375	61.4962	23.4375	60.78	23.4375	61.3724	23.4375	60.3692	23.4375	61.2134	23.4375	59.9484	23.4375	61.0724	23.4375	59.6215	23.4375	61.0208	23.4375	59.5343	23.4375	61.1364	23.4375	59.8211	23.4375	61.4756	23.4375	60.5132	23.4375	62.0451	23.4375	61.5099	23.4375	62.7964	23.4375	62.6494	23.4375	63.6495	23.4375	63.7907	23.4375	64.5226	23.4375	64.8402	23.4375	65.3489	23.4375	65.7429	23.4375	66.0788	23.4375	66.4681	23.4375	66.6768	23.4375	66.9992	23.4375	67.1171	23.4375	67.3283	23.4375	67.3808	23.4375	67.4542
24.9023	63.0902	24.9023	62.9996	24.9023	63.1791	24.9023	62.9206	24.9023	63.2687	24.9023	62.8819	24.9023	63.3745	24.9023	62.9272	24.9023	63.524	24.9023	63.1074	24.9023	63.7516	24.9023	63.466	24.9023	64.0911	24.9023	64.02	24.9023	64.5648	24.9023	64.7509	24.9023	65.1742	24.9023	65.61	24.9023	65.8981	24.9023	66.5359	24.9023	66.6984	24.9023	67.4691	24.9023	67.5297	24.9023	68.3601	24.9023	68.3477	24.9023	69.1698	24.9023	69.1127	24.9023	69.8678	24.9023	69.791	24.9023	70.4303	24.9023	70.3544	24.9023	70.8393	24.9023	70.78	24.9023	71.0824	24.9023	71.0501	24.9023	71.1528
26.3672	66.5406	26.3672	66.5286	26.3672	66.556	26.3672	66.5269	26.3672	66.575	26.3672	66.5495	26.3672	66.6056	26.3672	66.6159	26.3672	66.6629	26.3672	66.7491	26.3672	66.7681	26.3672	66.9711	26.3672	66.9455	26.3672	67.2975	26.3672	67.2173	26.3672	67.7324	26.3672	67.5968	26.3672	68.2654	26.3672	68.0829	26.3672	68.8728	26.3672	68.6587	26.3672	69.5218	26.3672	69.2943	26.3672	70.1755	26.3672	69.9521	26.3672	70.7973	26.3672	70.593	26.3672	71.3533	26.3672	71.1792	26.3672	71.8137	26.3672	71.6778	26.3672	72.1542	26.3672	72.0614	26.3672	72.3566	26.3672	72.3095	26.3672	72.4095
27.832	67.2254	27.832	67.2553	27.832	67.1933	27.832	67.2849	27.832	67.1634	27.832	67.3219	27.832	67.1465	27.832	67.3794	27.832	67.1596	27.832	67.4747	27.832	67.2245	27.832	67.6271	27.832	67.3647	27.832	67.8548	27.832	67.6001	27.832	68.1699	27.832	67.9414	27.832	68.5748	27.832	68.385	27.832	69.0589	27.832	68.913	27.832	69.5998	27.832	69.4957	27.832	70.1664	27.832	70.0975	27.832	70.7235	27.832	70.6813	27.832	71.2358	27.832	71.2121	27.832	71.6712	27.832	71.6593	27.832	72.0028	27.832	71.9976	27.832	72.2101	27.832	72.2083	27.832	72.2802
29.2969	69.4465	29.2969	69.4169	29.2969	69.4844	29.2969	69.3979	29.2969	69.5329	29.2969	69.3967	29.2969	69.5988	29.2969	69.4253	29.2969	69.6926	29.2969	69.499	29.2969	69.827	29.2969	69.6351	29.2969	70.0152	29.2969	69.8488	29.2969	70.2679	29.2969	70.15	29.2969	70.5906	29.2969	70.5388	29.2969	70.9813	29.2969	71.004	29.2969	71.4294	29.2969	71.524	29.2969	71.9163	29.2969	72.0697	29.2969	72.4175	29.2969	72.6087	29.2969	72.9046	29.2969	73.1087	29.2969	73.3483	29.2969	73.5395	29.2969	73.7206	29.2969	73.8759	29.2969	73.9972	29.2969	74.0982	29.2969	74.159	29.2969	74.194
30.7617	70.9541	30.7617	70.9482	30.7617	70.9777	30.7617	70.9623	30.7617	71.0201	30.7617	71.0022	30.7617	71.0856	30.7617	71.0763	30.7617	71.1816	30.7617	71.1951	30.7617	71.3175	30.7617	71.3694	30.7617	71.5033	30.7617	71.6082	30.7617	71.7479	30.7617	71.9164	30.7617	72.0562	30.7617	72.2924	30.7617	72.4277	30.7617	72.7271	30.7617	72.8542	30.7617	73.204	30.7617	73.3204	30.7617	73.7003	30.7617	73.8044	30.7617	74.1894	30.7617	74.2798	30.7617	74.6427	30.7617	74.7184	30.7617	75.0327	30.7617	75.0919	30.7617	75.3347	30.7617	75.3756	30.7617	75.5289	30.7617	75.5498	30.7617	75.6022
32.2266	71.6244	32.2266	71.6273	32.2266	71.6389	32.2266	71.6493	32.2266	71.6722	32.2266	71.6941	32.2266	71.7278	32.2266	71.768	32.2266	71.8119	32.2266	71.8787	32.2266	71.9322	32.2266	72.0345	32.2266	72.0968	32.2266	72.2427	32.2266	72.3131	32.2266	72.5078	32.2266	72.5852	32.2266	72.8295	32.2266	72.9125	32.2266	73.2017	32.2266	73.2883	32.2266	73.612	32.2266	73.6994	32.2266	74.0418	32.2266	74.1269	32.2266	74.4684	32.2266	74.5475	32.2266	74.8665	32.2266	74.9361	32.2266	75.2112	32.2266	75.2675	32.2266	75.4794	32.2266	75.5191	32.2266	75.6527	32.2266	75.6733	32.2266	75.719
33.6914	72.5778	33.6914	72.585	33.6914	72.5901	33.6914	72.6125	33.6914	72.6229	33.6914	72.6629	33.6914	72.6791	33.6914	72.7405	33.6914	72.763	33.6914	72.8507	33.6914	72.8802	33.6914	72.9993	33.6914	73.0361	33.6914	73.1913	33.6914	73.2355	33.6914	73.4297	33.6914	73.481	33.6914	73.714	33.6914	73.7715	33.6914	74.0393	33.6914	74.1015	33.6914	74.3956	33.6914	74.4603	33.6914	74.7681	33.6914	74.8328	33.6914	75.138	33.6914	75.1998	33.6914	75.484	33.6914	75.5399	33.6914	75.7846	33.6914	75.8309	33.6914	76.0193	33.6914	76.0526	33.6914	76.1713	33.6914	76.1888	33.6914	76.2294
35.1562	74.1476	35.1562	74.155	35.1562	74.1599	35.1562	74.1826	35.1562	74.1927	35.1562	74.2322	35.1562	74.248	35.1562	74.3065	35.1562	74.3288	35.1562	74.4094	35.1562	74.4387	35.1562	74.545	35.1562	74.5819	35.1562	74.7169	35.1562	74.7617	35.1562	74.9279	35.1562	74.9801	35.1562	75.1781	35.1562	75.2367	35.1562	75.4643	35.1562	75.5279	35.1562	75.7793	35.1562	75.8455	35.1562	76.1111	35.1562	76.1774	35.1562	76.444	35.1562	76.5071	35.1562	76.7586	35.1562	76.8154	35.1562	77.0345	35.1562	77.0814	35.1562	77.2517	35.1562	77.2854	35.1562	77.3934	35.1562	77.4111	35.1562	77.4481
36.6211	74.9521	36.6211	74.9585	36.6211	74.9655	36.6211	74.9851	36.6211	74.9994	36.6211	75.0331	36.6211	75.0553	36.6211	75.1046	36.6211	75.1354	36.6211	75.2025	36.6211	75.2426	36.6211	75.3301	36.6211	75.38	36.6211	75.4905	36.6211	75.5506	36.6211	75.6862	36.6211	75.7559	36.6211	75.9175	36.6211	75.9957	36.6211	76.1824	36.6211	76.267	36.6211	76.4747	36.6211	76.5627	36.6211	76.7843	36.6211	76.872	36.6211	77.0966	36.6211	77.1798	36.6211	77.3937	36.6211	77.468	36.6211	77.6558	36.6211	77.7168	36.6211	77.8637	36.6211	77.9072	36.6211	78.0008	36.6211	78.0235	36.6211	78.0556
38.0859	75.4059	38.0859	75.411	38.0859	75.4207	38.0859	75.4363	38.0859	75.4558	38.0859	75.4825	38.0859	75.5119	38.0859	75.551	38.0859	75.5904	38.0859	75.6436	38.0859	75.6928	38.0859	75.7626	38.0859	75.8211	38.0859	75.9099	38.0859	75.9768	38.0859	76.0869	38.0859	76.1606	38.0859	76.2935	38.0859	76.3719	38.0859	76.5273	38.0859	76.6081	38.0859	76.7833	38.0859	76.8636	38.0859	77.0527	38.0859	77.1294	38.0859	77.3232	38.0859	77.3934	38.0859	77.5799	38.0859	77.6406	38.0859	77.806	38.0859	77.8544	38.0859	77.9848	38.0859	78.0186	38.0859	78.1021	38.0859	78.1195	38.0859	78.1483
39.5508	76.1904	39.5508	76.1966	39.5508	76.2038	39.5508	76.2227	39.5508	76.2368	39.5508	76.2691	39.5508	76.2897	39.5508	76.3366	39.5508	76.3631	39.5508	76.4261	39.5508	76.4576	39.5508	76.5388	39.5508	76.5739	39.5508	76.6756	39.5508	76.7128	39.5508	76.8368	39.5508	76.8746	39.5508	77.0218	39.5508	77.0588	39.5508	77.2281	39.5508	77.2632	39.5508	77.4514	39.5508	77.4836	39.5508	77.6842	39.5508	77.713	39.5508	77.9166	39.5508	77.9416	39.5508	78.136	39.5508	78.1569	39.5508	78.328	39.5508	78.3445	39.5508	78.4788	39.5508	78.4902	39.5508	78.576	39.5508	78.5819	39.5508	78.6114
41.0156	77.0929	41.0156	77.1038	41.0156	77.102	41.0156	77.1349	41.0156	77.1313	41.0156	77.1861	41.0156	77.1807	41.0156	77.2579	41.0156	77.2504	41.0156	77.3506	41.0156	77.3407	41.0156	77.4648	41.0156	77.4517	41.0156	77.6009	41.0156	77.5839	41.0156	77.7591	41.0156	77.7375	41.0156	77.9383	41.0156	77.9121	41.0156	78.1366	41.0156	78.1061	41.0156	78.3497	41.0156	78.3162	41.0156	78.5709	41.0156	78.5361	41.0156	78.7906	41.0156	78.757	41.0156	78.997	41.0156	78.9668	41.0156	79.1763	41.0156	79.1518	41.0156	79.3151	41.0156	79.2979	41.0156	79.4018	41.0156	79.393	41.0156	79.4286
42.4805	77.7092	42.4805	77.7212	42.4805	77.7192	42.4805	77.7549	42.4805	77.7509	42.4805	77.8104	42.4805	77.8043	42.4805	77.8873	42.4805	77.8789	42.4805	77.9853	42.4805	77.9746	42.4805	78.1041	42.4805	78.091	42.4805	78.2431	42.4805	78.2278	42.4805	78.4016	42.4805	78.3843	42.4805	78.578	42.4805	78.5596	42.4805	78.77	42.4805	78.7514	42.4805	78.9738	42.4805	78.956	42.4805	79.1834	42.4805	79.1675	42.4805	79.3907	42.4805	79.3772	42.4805	79.585	42.4805	79.5745	42.4805	79.7542	42.4805	79.7468	42.4805	79.886	42.4805	79.8814	42.4805	79.9697	42.4805	79.9675	42.4805	79.9978
43.9453	77.9964	43.9453	78.0132	43.9453	77.9993	43.9453	78.0495	43.9453	78.022	43.9453	78.1047	43.9453	78.0644	43.9453	78.1782	43.9453	78.126	43.9453	78.2692	43.9453	78.2063	43.9453	78.3769	43.9453	78.3047	43.9453	78.5005	43.9453	78.4205	43.9453	78.639	43.9453	78.5528	43.9453	78.7908	43.9453	78.7007	43.9453	78.9541	43.9453	78.8622	43.9453	79.1254	43.9453	79.0345	43.9453	79.3	43.9453	79.2131	43.9453	79.4709	43.9453	79.3914	43.9453	79.6293	43.9453	79.5607	43.9453	79.7652	43.9453	79.7108	43.9453	79.8685	43.9453	79.8308	43.9453	79.9305	43.9453	79.9112	43.9453	79.9453
45.4102	78.414	45.4102	78.4306	45.4102	78.4149	45.4102	78.4643	45.4102	78.4335	45.4102	78.5145	45.4102	78.4693	45.4102	78.5801	45.4102	78.5217	45.4102	78.6601	45.4102	78.5901	45.4102	78.7534	45.4102	78.6734	45.4102	78.8588	45.4102	78.7707	45.4102	78.9752	45.4102	78.881	45.4102	79.1012	45.4102	79.0033	45.4102	79.235	45.4102	79.1359	45.4102	79.3742	45.4102	79.2768	45.4102	79.5151	45.4102	79.4224	45.4102	79.6522	45.4102	79.5677	45.4102	79.7789	45.4102	79.706	45.4102	79.8872	45.4102	79.8292	45.4102	79.9688	45.4102	79.9286	45.4102	80.0168	45.4102	79.9962	45.4102	80.0264
46.875	79.0245	46.875	79.0389	46.875	79.0284	46.875	79.0713	46.875	79.0504	46.875	79.1208	46.875	79.0899	46.875	79.1865	46.875	79.146	46.875	79.267	46.875	79.2174	46.875	79.3609	46.875	79.3029	46.875	79.4666	46.875	79.401	46.875	79.5825	46.875	79.5105	46.875	79.707	46.875	79.6303	46.875	79.8382	46.875	79.7588	46.875	79.9736	46.875	79.8941	46.875	80.1097	46.875	80.0332	46.875	80.2419	46.875	80.1717	46.875	80.364	46.875	80.3034	46.875	80.4688	46.875	80.4207	46.875	80.5485	46.875	80.5152	46.875	80.5961	46.875	80.5791	46.875	80.6068
48.3398	79.349	48.3398	79.3623	48.3398	79.3566	48.3398	79.3965	48.3398	79.3849	48.3398	79.4507	48.3398	79.4329	48.3398	79.5237	48.3398	79.4992	48.3398	79.614	48.3398	79.5823	48.3398	79.7198	48.3398	79.6802	48.3398	79.8391	48.3398	79.7914	48.3398	79.9698	48.3398	79.9141	48.3398	80.1096	48.3398	80.0469	48.3398	80.2562	48.3398	80.1882	48.3398	80.4065	48.3398	80.3358	48.3398	80.5568	48.3398	80.4865	48.3398	80.702	48.3398	80.6359	48.3398	80.8359	48.3398	80.7776	48.3398	80.9506	48.3398	80.9035	48.3398	81.0378	48.3398	81.0048	48.3398	81.0902	48.3398	81.0731	48.3398	81.1024
51.2695	79.7587	51.2695	79.8057	51.2695	79.735	51.2695	79.8747	51.2695	79.735	51.2695	79.9635	51.2695	79.7582	51.2695	80.0691	51.2695	79.8034	51.2695	80.1878	51.2695	79.8685	51.2695	80.3157	51.2695	79.951	51.2695	80.4487	51.2695	80.0482	51.2695	80.5827	51.2695	80.1572	51.2695	80.7142	51.2695	80.2754	51.2695	80.84	51.2695	80.4001	51.2695	80.9575	51.2695	80.5291	51.2695	81.0637	51.2695	80.6599	51.2695	81.1556	51.2695	80.7899	51.2695	81.2296	51.2695	80.9155	51.2695	81.2816	51.2695	81.0322	51.2695	81.3082	51.2695	81.1348	51.2695	81.3067	51.2695	81.2177	51.2695	81.2761
52.7344	80.5033	52.7344	80.5473	52.7344	80.4741	52.7344	80.6045	52.7344	80.4608	52.7344	80.6724	52.7344	80.4636	52.7344	80.7485	52.7344	80.4818	52.7344	80.8298	52.7344	80.5142	52.7344	80.9135	52.7344	80.5587	52.7344	80.997	52.7344	80.613	52.7344	81.0781	52.7344	80.6743	52.7344	81.1547	52.7344	80.7403	52.7344	81.2247	52.7344	80.8089	52.7344	81.2863	52.7344	80.8786	52.7344	81.3374	52.7344	80.9488	52.7344	81.376	52.7344	81.0192	52.7344	81.4001	52.7344	81.0893	52.7344	81.4082	52.7344	81.1582	52.7344	81.3998	52.7344	81.2242	52.7344	81.3752	52.7344	81.2845	52.7344	81.3359
54.1992	81.0815	54.1992	81.1003	54.1992	81.0666	54.1992	81.122	54.1992	81.056	54.1992	81.1459	54.1992	81.05	54.1992	81.1709	54.1992	81.0484	54.1992	81.1957	54.1992	81.0508	54.1992	81.2194	54.1992	81.0565	54.1992	81.241	54.1992	81.0647	54.1992	81.2598	54.1992	81.0746	54.1992	81.2749	54.1992	81.0857	54.1992	81.2861	54.1992	81.098	54.1992	81.293	54.1992	81.1117	54.1992	81.296	54.1992	81.1275	54.1992	81.2953	54.1992	81.1459	54.1992	81.2918	54.1992	81.1667	54.1992	81.2857	54.1992	81.1892	54.1992	81.2771	54.1992	81.2118	54.1992	81.2658	54.1992	81.2329	54.1992	81.2511
55.6641	80.9174	55.6641	80.9023	55.6641	80.9398	55.6641	80.895	55.6641	80.9686	55.6641	80.8956	55.6641	81.0026	55.6641	80.9039	55.6641	81.0402	55.6641	80.9193	55.6641	81.0801	55.6641	80.9406	55.6641	81.1209	55.6641	80.967	55.6641	81.1614	55.6641	80.9974	55.6641	81.2009	55.6641	81.031	55.6641	81.2388	55.6641	81.0676	55.6641	81.2752	55.6641	81.1075	55.6641	81.3099	55.6641	81.151	55.6641	81.343	55.6641	81.1983	55.6641	81.3737	55.6641	81.2486	55.6641	81.4008	55.6641	81.2997	55.6641	81.4217	55.6641	81.3478	55.6641	81.4333	55.6641	81.3885	55.6641	81.4326	55.6641	81.4175
58.5938	81.2064	58.5938	81.21	58.5938	81.2178	58.5938	81.2279	58.5938	81.2437	58.5938	81.2586	58.5938	81.2829	58.5938	81.2999	58.5938	81.3333	58.5938	81.3489	58.5938	81.392	58.5938	81.4025	58.5938	81.4557	58.5938	81.4574	58.5938	81.5208	58.5938	81.5106	58.5938	81.584	58.5938	81.5599	58.5938	81.6423	58.5938	81.6038	58.5938	81.6937	58.5938	81.6419	58.5938	81.7366	58.5938	81.6746	58.5938	81.7705	58.5938	81.703	58.5938	81.7954	58.5938	81.7286	58.5938	81.8118	58.5938	81.7521	58.5938	81.8205	58.5938	81.7736	58.5938	81.8223	58.5938	81.7925	58.5938	81.8177	58.5938	81.8075
60.0586	81.4882	60.0586	81.4928	60.0586	81.4952	60.0586	81.5087	60.0586	81.5134	60.0586	81.5348	60.0586	81.5414	60.0586	81.5694	60.0586	81.5775	60.0586	81.6103	60.0586	81.6193	60.0586	81.6547	60.0586	81.6641	60.0586	81.6999	60.0586	81.7093	60.0586	81.7433	60.0586	81.7522	60.0586	81.7827	60.0586	81.7905	60.0586	81.8165	60.0586	81.8226	60.0586	81.8441	60.0586	81.8476	60.0586	81.8654	60.0586	81.8656	60.0586	81.8809	60.0586	81.8776	60.0586	81.8914	60.0586	81.8851	60.0586	81.8978	60.0586	81.89	60.0586	81.9008	60.0586	81.8936	60.0586	81.9011	60.0586	81.8968	60.0586	81.8995
62.9883	81.6127	62.9883	81.6175	62.9883	81.6203	62.9883	81.6347	62.9883	81.6399	62.9883	81.6634	62.9883	81.6705	62.9883	81.7022	62.9883	81.7105	62.9883	81.7491	62.9883	81.7575	62.9883	81.8017	62.9883	81.8089	62.9883	81.8572	62.9883	81.8618	62.9883	81.9127	62.9883	81.9131	62.9883	81.9651	62.9883	81.9602	62.9883	82.0121	62.9883	82.0009	62.9883	82.0516	62.9883	82.0339	62.9883	82.0827	62.9883	82.0591	62.9883	82.1052	62.9883	82.0773	62.9883	82.1196	62.9883	82.0904	62.9883	82.1272	62.9883	82.1001	62.9883	82.1293	62.9883	82.1083	62.9883	82.1273	62.9883	82.1158	62.9883	82.1223
64.4531	81.687	64.4531	81.6954	64.4531	81.6917	64.4531	81.7166	64.4531	81.7091	64.4531	81.7495	64.4531	81.738	64.4531	81.7926	64.4531	81.7768	64.4531	81.8433	64.4531	81.8231	64.4531	81.8989	64.4531	81.874	64.4531	81.9562	64.4531	81.9266	64.4531	82.0118	64.4531	81.9777	64.4531	82.0629	64.4531	82.0244	64.4531	82.1069	64.4531	82.0646	64.4531	82.142	64.4531	82.0967	64.4531	82.1675	64.4531	82.1207	64.4531	82.1837	64.4531	82.1373	64.4531	82.1916	64.4531	82.1484	64.4531	82.193	64.4531	82.1562	64.4531	82.1897	64.4531	82.1628	64.4531	82.1838	64.4531	82.1695	64.4531	82.1766
67.3828	82.0292	67.3828	82.0335	67.3828	82.0383	67.3828	82.0508	67.3828	82.0604	67.3828	82.08	67.3828	82.0944	67.3828	82.1191	67.3828	82.1384	67.3828	82.1657	67.3828	82.1897	67.3828	82.2165	67.3828	82.2451	67.3828	82.268	67.3828	82.3009	67.3828	82.3165	67.3828	82.3531	67.3828	82.3588	67.3828	82.3982	67.3828	82.3919	67.3828	82.4329	67.3828	82.4142	67.3828	82.4552	67.3828	82.4253	67.3828	82.4649	67.3828	82.4265	67.3828	82.4629	67.3828	82.4205	67.3828	82.452	67.3828	82.4109	67.3828	82.4361	67.3828	82.4018	67.3828	82.4194	67.3828	82.3967	67.3828	82.4058	67.3828	82.3978
68.8477	82.154	68.8477	82.1565	68.8477	82.1659	68.8477	82.1731	68.8477	82.1919	68.8477	82.2027	68.8477	82.2306	68.8477	82.2432	68.8477	82.2803	68.8477	82.2922	68.8477	82.3381	68.8477	82.3463	68.8477	82.4006	68.8477	82.4018	68.8477	82.464	68.8477	82.4548	68.8477	82.5239	68.8477	82.5017	68.8477	82.5763	68.8477	82.5395	68.8477	82.6176	68.8477	82.5661	68.8477	82.6453	68.8477	82.581	68.8477	82.6584	68.8477	82.5853	68.8477	82.6578	68.8477	82.5819	68.8477	82.6459	68.8477	82.5747	68.8477	82.6268	68.8477	82.5683	68.8477	82.6053	68.8477	82.5667	68.8477	82.586	68.8477	82.5725
71.7773	82.192	71.7773	82.1919	71.7773	82.2051	71.7773	82.2044	71.7773	82.2308	71.7773	82.2285	71.7773	82.2682	71.7773	82.2624	71.7773	82.3155	71.7773	82.3039	71.7773	82.3703	71.7773	82.3499	71.7773	82.4294	71.7773	82.397	71.7773	82.4888	71.7773	82.4415	71.7773	82.5445	71.7773	82.4798	71.7773	82.5921	71.7773	82.5092	71.7773	82.6279	71.7773	82.5278	71.7773	82.6493	71.7773	82.5352	71.7773	82.6551	71.7773	82.5329	71.7773	82.646	71.7773	82.524	71.7773	82.6248	71.7773	82.5133	71.7773	82.5959	71.7773	82.5057	71.7773	82.5646	71.7773	82.5057	71.7773	82.5364	71.7773	82.5159
74.707	82.384	74.707	82.3874	74.707	82.3914	74.707	82.4012	74.707	82.4095	74.707	82.4246	74.707	82.4375	74.707	82.4557	74.707	82.4738	74.707	82.4923	74.707	82.5165	74.707	82.5314	74.707	82.5625	74.707	82.5695	74.707	82.6084	74.707	82.6027	74.707	82.65	74.707	82.6274	74.707	82.6834	74.707	82.6409	74.707	82.7048	74.707	82.6413	74.707	82.7116	74.707	82.6286	74.707	82.7026	74.707	82.6052	74.707	82.679	74.707	82.5754	74.707	82.6442	74.707	82.5451	74.707	82.6035	74.707	82.5211	74.707	82.5637	74.707	82.5089	74.707	82.5314	74.707	82.5122
77.6367	82.5922	77.6367	82.5934	77.6367	82.6019	77.6367	82.6052	77.6367	82.6223	77.6367	82.6266	77.6367	82.6526	77.6367	82.6561	77.6367	82.6913	77.6367	82.6913	77.6367	82.7363	77.6367	82.7292	77.6367	82.7845	77.6367	82.7664	77.6367	82.8322	77.6367	82.7987	77.6367	82.8749	77.6367	82.8223	77.6367	82.9083	77.6367	82.8339	77.6367	82.9284	77.6367	82.8314	77.6367	82.9319	77.6367	82.8148	77.6367	82.9176	77.6367	82.7862	77.6367	82.8865	77.6367	82.7505	77.6367	82.8423	77.6367	82.7146	77.6367	82.7912	77.6367	82.686	77.6367	82.7413	77.6367	82.6719	77.6367	82.7009	77.6367	82.6767
79.1016	82.6194	79.1016	82.6211	79.1016	82.628	79.1016	82.6326	79.1016	82.6465	79.1016	82.6533	79.1016	82.6744	79.1016	82.6815	79.1016	82.7102	79.1016	82.7151	79.1016	82.7518	79.1016	82.7511	79.1016	82.7963	79.1016	82.7861	79.1016	82.8402	79.1016	82.8159	79.1016	82.8791	79.1016	82.8367	79.1016	82.9088	79.1016	82.8451	79.1016	82.9251	79.1016	82.839	79.1016	82.925	79.1016	82.8183	79.1016	82.9072	79.1016	82.7852	79.1016	82.8727	79.1016	82.7448	79.1016	82.8254	79.1016	82.7041	79.1016	82.7718	79.1016	82.6712	79.1016	82.7202	79.1016	82.6536	79.1016	82.6793	79.1016	82.656
82.0312	82.6697	82.0312	82.673	82.0312	82.6727	82.0312	82.6823	82.0312	82.6817	82.0312	82.6968	82.0312	82.6964	82.0312	82.7153	82.0312	82.7156	82.0312	82.7361	82.0312	82.7378	82.0312	82.7564	82.0312	82.7605	82.0312	82.7733	82.0312	82.7808	82.0312	82.7831	82.0312	82.795	82.0312	82.7824	82.0312	82.7994	82.0312	82.7682	82.0312	82.7906	82.0312	82.7391	82.0312	82.7664	82.0312	82.6951	82.0312	82.7263	82.0312	82.6393	82.0312	82.6723	82.0312	82.5772	82.0312	82.6093	82.0312	82.5165	82.0312	82.5446	82.0312	82.4662	82.0312	82.4871	82.0312	82.4345	82.0312	82.4457	82.0312	82.4272
84.9609	82.6691	84.9609	82.668	84.9609	82.6788	84.9609	82.6748	84.9609	82.6973	84.9609	82.6884	84.9609	82.7239	84.9609	82.7068	84.9609	82.7573	84.9609	82.7277	84.9609	82.795	84.9609	82.748	84.9609	82.8333	84.9609	82.7641	84.9609	82.8678	84.9609	82.7724	84.9609	82.8932	84.9609	82.7692	84.9609	82.9042	84.9609	82.7516	84.9609	82.8964	84.9609	82.7183	84.9609	82.867	84.9609	82.6699	84.9609	82.8157	84.9609	82.6096	84.9609	82.7455	84.9609	82.5438	84.9609	82.6628	84.9609	82.4811	84.9609	82.5769	84.9609	82.4317	84.9609	82.4988	84.9609	82.4048	84.9609	82.4394	84.9609	82.4068
87.8906	82.7817	87.8906	82.7912	87.8906	82.7777	87.8906	82.8054	87.8906	82.7798	87.8906	82.8234	87.8906	82.7887	87.8906	82.8439	87.8906	82.8043	87.8906	82.8655	87.8906	82.8257	87.8906	82.8859	87.8906	82.8509	87.8906	82.9022	87.8906	82.8765	87.8906	82.9113	87.8906	82.8979	87.8906	82.9095	87.8906	82.91	87.8906	82.894	87.8906	82.9081	87.8906	82.8629	87.8906	82.8886	87.8906	82.8165	87.8906	82.8505	87.8906	82.7574	87.8906	82.7955	87.8906	82.6912	87.8906	82.7291	87.8906	82.6263	87.8906	82.6595	87.8906	82.5722	87.8906	82.5968	87.8906	82.5382	87.8906	82.5513	87.8906	82.5306
90.8203	82.6701	90.8203	82.7039	90.8203	82.6399	90.8203	82.7403	90.8203	82.6144	90.8203	82.7783	90.8203	82.5945	90.8203	82.8163	90.8203	82.581	90.8203	82.8525	90.8203	82.5743	90.8203	82.8842	90.8203	82.5737	90.8203	82.9083	90.8203	82.5775	90.8203	82.9214	90.8203	82.5827	90.8203	82.9203	90.8203	82.5855	90.8203	82.9023	90.8203	82.582	90.8203	82.8664	90.8203	82.5692	90.8203	82.813	90.8203	82.5459	90.8203	82.7452	90.8203	82.5135	90.8203	82.6681	90.8203	82.4762	90.8203	82.5889	90.8203	82.4406	90.8203	82.516	90.8203	82.4148	90.8203	82.4576	90.8203	82.4063	90.8203	82.4201
95.2148	82.892	95.2148	82.8964	95.2148	82.8847	95.2148	82.8982	95.2148	82.8744	95.2148	82.8976	95.2148	82.861	95.2148	82.8944	95.2148	82.8444	95.2148	82.8883	95.2148	82.8244	95.2148	82.8779	95.2148	82.8007	95.2148	82.8615	95.2148	82.7724	95.2148	82.8367	95.2148	82.7386	95.2148	82.8008	95.2148	82.6977	95.2148	82.7519	95.2148	82.6482	95.2148	82.6889	95.2148	82.5891	95.2148	82.6127	95.2148	82.5208	95.2148	82.5267	95.2148	82.4455	95.2148	82.4364	95.2148	82.3684	95.2148	82.35	95.2148	82.2968	95.2148	82.2764	95.2148	82.2396	95.2148	82.2241	95.2148	82.2053	95.2148	82.1995
98.1445	83.0258	98.1445	83.0266	98.1445	83.0214	98.1445	83.0246	98.1445	83.0125	98.1445	83.0209	98.1445	82.9986	98.1445	83.0162	98.1445	82.9793	98.1445	83.0107	98.1445	82.9543	98.1445	83.0034	98.1445	82.9231	98.1445	82.9922	98.1445	82.8846	98.1445	82.9737	98.1445	82.8379	98.1445	82.9435	98.1445	82.7814	98.1445	82.8975	98.1445	82.7138	98.1445	82.8324	98.1445	82.6346	98.1445	82.7471	98.1445	82.5447	98.1445	82.6439	98.1445	82.448	98.1445	82.5292	98.1445	82.3514	98.1445	82.4128	98.1445	82.2652	98.1445	82.3072	98.1445	82.201	98.1445	82.2252	98.1445	82.1695	98.1445	82.1774
101.074	82.7746	101.074	82.757	101.074	82.7909	101.074	82.7385	101.074	82.8057	101.074	82.7191	101.074	82.8186	101.074	82.6991	101.074	82.8286	101.074	82.6783	101.074	82.8342	101.074	82.6559	101.074	82.8333	101.074	82.6304	101.074	82.8231	101.074	82.5996	101.074	82.8005	101.074	82.5606	101.074	82.7625	101.074	82.5106	101.074	82.7068	101.074	82.448	101.074	82.6326	101.074	82.3728	101.074	82.5407	101.074	82.2882	101.074	82.435	101.074	82.2004	101.074	82.3224	101.074	82.1186	101.074	82.2127	101.074	82.0536	101.074	82.1176	101.074	82.016	101.074	82.0483	101.074	82.0134
105.469	82.7231	105.469	82.7249	105.469	82.7166	105.469	82.7211	105.469	82.7064	105.469	82.7113	105.469	82.6941	105.469	82.6953	105.469	82.6807	105.469	82.6729	105.469	82.6665	105.469	82.6437	105.469	82.6506	105.469	82.6066	105.469	82.6304	105.469	82.5603	105.469	82.6021	105.469	82.5034	105.469	82.5613	105.469	82.4347	105.469	82.5042	105.469	82.3543	105.469	82.4288	105.469	82.2639	105.469	82.336	105.469	82.1673	105.469	82.2307	105.469	82.0708	105.469	82.1211	105.469	81.9826	105.469	82.0182	105.469	81.9117	105.469	81.9334	105.469	81.8667	105.469	81.8767	105.469	81.854
108.398	82.8636	108.398	82.8565	108.398	82.8633	108.398	82.8426	108.398	82.8558	108.398	82.8223	108.398	82.8412	108.398	82.7966	108.398	82.8201	108.398	82.7656	108.398	82.7924	108.398	82.7291	108.398	82.7574	108.398	82.6855	108.398	82.7132	108.398	82.6325	108.398	82.6573	108.398	82.5674	108.398	82.5867	108.398	82.4873	108.398	82.4989	108.398	82.3909	108.398	82.3931	108.398	82.2791	108.398	82.2713	108.398	82.1559	108.398	82.1391	108.398	82.0289	108.398	82.0061	108.398	81.9087	108.398	81.8843	108.398	81.8078	108.398	81.7873	108.398	81.7383	108.398	81.7266	108.398	81.7097
112.793	82.5968	112.793	82.5801	112.793	82.609	112.793	82.5587	112.793	82.6182	112.793	82.5331	112.793	82.6261	112.793	82.5047	112.793	82.6341	112.793	82.475	112.793	82.6433	112.793	82.4455	112.793	82.653	112.793	82.4168	112.793	82.6608	112.793	82.3885	112.793	82.6631	112.793	82.359	112.793	82.655	112.793	82.3262	112.793	82.6319	112.793	82.2882	112.793	82.5903	112.793	82.2441	112.793	82.5293	112.793	82.1953	112.793	82.4511	112.793	82.1456	112.793	82.3615	112.793	82.1011	112.793	82.2691	112.793	82.0696	112.793	82.1842	112.793	82.0586	112.793	82.1167	112.793	82.0738
117.188	82.6529	117.188	82.6425	117.188	82.6485	117.188	82.618	117.188	82.6298	117.188	82.5809	117.188	82.5984	117.188	82.5338	117.188	82.5563	117.188	82.4797	117.188	82.5061	117.188	82.422	117.188	82.4505	117.188	82.3636	117.188	82.3914	117.188	82.3069	117.188	82.33	117.188	82.253	117.188	82.2666	117.188	82.2015	117.188	82.201	117.188	82.1511	117.188	82.1331	117.188	82.0998	117.188	82.0638	117.188	82.0464	117.188	81.9952	117.188	81.9911	117.188	81.9316	117.188	81.9361	117.188	81.8779	117.188	81.8861	117.188	81.8397	117.188	81.8468	117.188	81.821	117.188	81.8238
120.117	82.7869	120.117	82.7786	120.117	82.7802	120.117	82.7554	120.117	82.759	120.117	82.7176	120.117	82.7243	120.117	82.6658	120.117	82.6771	120.117	82.6011	120.117	82.6185	120.117	82.5248	120.117	82.5492	120.117	82.4383	120.117	82.4698	120.117	82.3434	120.117	82.3805	120.117	82.2419	120.117	82.2817	120.117	82.1361	120.117	82.1743	120.117	82.0284	120.117	82.0604	120.117	81.9214	120.117	81.9437	120.117	81.8186	120.117	81.8298	120.117	81.724	120.117	81.7253	120.117	81.6421	120.117	81.6372	120.117	81.5779	120.117	81.5713	120.117	81.5359	120.117	81.5315	120.117	81.5198
124.512	82.755	124.512	82.753	124.512	82.7426	124.512	82.7362	124.512	82.7165	124.512	82.7048	124.512	82.6781	124.512	82.6593	124.512	82.6286	124.512	82.6002	124.512	82.5691	124.512	82.5276	124.512	82.5002	124.512	82.4414	124.512	82.4215	124.512	82.3411	124.512	82.3317	124.512	82.2264	124.512	82.2293	124.512	82.0978	124.512	82.1133	124.512	81.9577	124.512	81.9839	124.512	81.8107	124.512	81.8443	124.512	81.6638	124.512	81.7005	124.512	81.5263	124.512	81.5613	124.512	81.4079	124.512	81.4372	124.512	81.3178	124.512	81.3387	124.512	81.2631	124.512	81.2738	124.512	81.248
128.906	82.5995	128.906	82.5984	128.906	82.5865	128.906	82.5837	128.906	82.5602	128.906	82.5565	128.906	82.5218	128.906	82.5181	128.906	82.4731	128.906	82.4701	128.906	82.416	128.906	82.4135	128.906	82.3518	128.906	82.3484	128.906	82.2807	128.906	82.2739	128.906	82.2017	128.906	82.188	128.906	82.1132	128.906	82.0885	128.906	82.013	128.906	81.9741	128.906	81.9003	128.906	81.8454	128.906	81.7762	128.906	81.7065	128.906	81.6448	128.906	81.5652	128.906	81.5139	128.906	81.4332	128.906	81.3943	128.906	81.3239	128.906	81.2982	128.906	81.25	128.906	81.2373	128.906	81.2202
133.301	82.5586	133.301	82.5597	133.301	82.5397	133.301	82.5435	133.301	82.5034	133.301	82.5116	133.301	82.451	133.301	82.4656	133.301	82.3847	133.301	82.4078	133.301	82.307	133.301	82.3397	133.301	82.2205	133.301	82.2625	133.301	82.1271	133.301	82.1766	133.301	82.028	133.301	82.0817	133.301	81.9237	133.301	81.977	133.301	81.8141	133.301	81.8622	133.301	81.6998	133.301	81.7383	133.301	81.5824	133.301	81.6083	133.301	81.4656	133.301	81.478	133.301	81.3551	133.301	81.3561	133.301	81.2589	133.301	81.253	133.301	81.186	133.301	81.1791	133.301	81.145	133.301	81.142
139.16	82.2177	139.16	82.2023	139.16	82.2182	139.16	82.1737	139.16	82.2033	139.16	82.1349	139.16	82.1739	139.16	82.0894	139.16	82.1318	139.16	82.0405	139.16	82.0792	139.16	81.9901	139.16	82.0178	139.16	81.9388	139.16	81.9485	139.16	81.8852	139.16	81.871	139.16	81.8267	139.16	81.7849	139.16	81.7602	139.16	81.6901	139.16	81.6838	139.16	81.5879	139.16	81.5975	139.16	81.4824	139.16	81.5041	139.16	81.3799	139.16	81.4088	139.16	81.2879	139.16	81.3187	139.16	81.2141	139.16	81.2413	139.16	81.1645	139.16	81.1831	139.16	81.1425	139.16	81.1491
143.555	82.1091	143.555	82.0751	143.555	82.1237	143.555	82.0235	143.555	82.1194	143.555	81.9579	143.555	82.0981	143.555	81.8839	143.555	82.0631	143.555	81.8074	143.555	82.0181	143.555	81.7344	143.555	81.9663	143.555	81.6693	143.555	81.9097	143.555	81.6138	143.555	81.849	143.555	81.5669	143.555	81.7834	143.555	81.5251	143.555	81.7117	143.555	81.4837	143.555	81.6332	143.555	81.4389	143.555	81.549	143.555	81.3894	143.555	81.4626	143.555	81.3369	143.555	81.3796	143.555	81.2859	143.555	81.3069	143.555	81.2428	143.555	81.2508	143.555	81.2137	143.555	81.2158	143.555	81.2036
147.949	82.2977	147.949	82.2734	147.949	82.2923	147.949	82.2195	147.949	82.2591	147.949	82.1384	147.949	82.2018	147.949	82.0346	147.949	82.1259	147.949	81.9139	147.949	82.037	147.949	81.7832	147.949	81.9411	147.949	81.6494	147.949	81.8425	147.949	81.5186	147.949	81.744	147.949	81.3952	147.949	81.6464	147.949	81.282	147.949	81.5484	147.949	81.1795	147.949	81.4481	147.949	81.0875	147.949	81.3443	147.949	81.0056	147.949	81.2376	147.949	80.9349	147.949	81.1315	147.949	80.8785	147.949	81.0317	147.949	80.8408	147.949	80.9454	147.949	80.8265	147.949	80.8796	147.949	80.8392
153.809	82.2354	153.809	82.2292	153.809	82.2087	153.809	82.1907	153.809	82.1503	153.809	82.1225	153.809	82.0638	153.809	82.0286	153.809	81.9542	153.809	81.9139	153.809	81.8282	153.809	81.7839	153.809	81.6925	153.809	81.6441	153.809	81.5535	153.809	81.4995	153.809	81.4161	153.809	81.3548	153.809	81.2833	153.809	81.2142	153.809	81.1567	153.809	81.0813	153.809	81.0368	153.809	80.9595	153.809	80.9243	153.809	80.851	153.809	80.8211	153.809	80.7578	153.809	80.7303	153.809	80.6812	153.809	80.656	153.809	80.6224	153.809	80.6022	153.809	80.5833	153.809	80.5719	153.809	80.5659
159.668	82.2874	159.668	82.275	159.668	82.2695	159.668	82.2334	159.668	82.2217	159.668	82.1651	159.668	82.1465	159.668	82.0734	159.668	82.0476	159.668	81.962	159.668	81.9297	159.668	81.8345	159.668	81.7978	159.668	81.6937	159.668	81.6562	159.668	81.5421	159.668	81.5082	159.668	81.3823	159.668	81.3563	159.668	81.218	159.668	81.2029	159.668	81.0552	159.668	81.0509	159.668	80.9014	159.668	80.9053	159.668	80.7649	159.668	80.7721	159.668	80.6523	159.668	80.6581	159.668	80.5667	159.668	80.5686	159.668	80.5078	159.668	80.5065	159.668	80.4731	159.668	80.4713	159.668	80.4609
165.527	82.086	165.527	82.0651	165.527	82.0739	165.527	82.0132	165.527	82.0291	165.527	81.9345	165.527	81.9544	165.527	81.8347	165.527	81.8548	165.527	81.7203	165.527	81.7366	165.527	81.5973	165.527	81.6071	165.527	81.4706	165.527	81.4726	165.527	81.3426	165.527	81.3381	165.527	81.2143	165.527	81.2061	165.527	81.0855	165.527	81.0777	165.527	80.9571	165.527	80.9531	165.527	80.8321	165.527	80.8335	165.527	80.716	165.527	80.7217	165.527	80.6152	165.527	80.6224	165.527	80.535	165.527	80.5408	165.527	80.4779	165.527	80.4811	165.527	80.4441	165.527	80.4452	165.527	80.4331
171.387	81.9383	171.387	81.9034	171.387	81.9369	171.387	81.8334	171.387	81.9005	171.387	81.7315	171.387	81.8326	171.387	81.6027	171.387	81.7387	171.387	81.4532	171.387	81.6258	171.387	81.2901	171.387	81.5009	171.387	81.1203	171.387	81.3699	171.387	80.95	171.387	81.2368	171.387	80.784	171.387	81.1031	171.387	80.6261	171.387	80.9688	171.387	80.4797	171.387	80.8342	171.387	80.3495	171.387	80.7011	171.387	80.2415	171.387	80.5733	171.387	80.162	171.387	80.4561	171.387	80.1151	171.387	80.3538	171.387	80.1003	171.387	80.2686	171.387	80.1132	171.387	80.2001	171.387	80.1479
177.246	81.7996	177.246	81.7855	177.246	81.7724	177.246	81.731	177.246	81.7055	177.246	81.6392	177.246	81.6028	177.246	81.5146	177.246	81.4706	177.246	81.3634	177.246	81.3174	177.246	81.1928	177.246	81.1529	177.246	81.011	177.246	80.987	177.246	80.8266	177.246	80.8282	177.246	80.6487	177.246	80.683	177.246	80.4857	177.246	80.5548	177.246	80.3455	177.246	80.4456	177.246	80.2345	177.246	80.3564	177.246	80.1568	177.246	80.2877	177.246	80.1132	177.246	80.2393	177.246	80.0998	177.246	80.208	177.246	80.1087	177.246	80.1878	177.246	80.1292	177.246	80.171	177.246	80.1517
183.105	81.7797	183.105	81.7747	183.105	81.7431	183.105	81.7297	183.105	81.6655	183.105	81.6479	183.105	81.5497	183.105	81.5338	183.105	81.4008	183.105	81.392	183.105	81.2255	183.105	81.2269	183.105	81.0322	183.105	81.0426	183.105	80.8298	183.105	80.8434	183.105	80.6269	183.105	80.6349	183.105	80.4317	183.105	80.4259	183.105	80.251	183.105	80.2284	183.105	80.0916	183.105	80.0561	183.105	79.96	183.105	79.9213	183.105	79.8621	183.105	79.8307	183.105	79.8002	183.105	79.7821	183.105	79.7707	183.105	79.7651	183.105	79.7638	183.105	79.7647	183.105	79.7661	183.105	79.7673
188.965	81.7236	188.965	81.7075	188.965	81.6956	188.965	81.6483	188.965	81.6245	188.965	81.5484	188.965	81.5123	188.965	81.412	188.965	81.363	188.965	81.2449	188.965	81.1819	188.965	81.0543	188.965	80.9751	188.965	80.8475	188.965	80.7499	188.965	80.632	188.965	80.5135	188.965	80.4146	188.965	80.2736	188.965	80.2032	188.965	80.039	188.965	80.0075	188.965	79.8204	188.965	79.8382	188.965	79.6304	188.965	79.7043	188.965	79.4822	188.965	79.6083	188.965	79.3854	188.965	79.544	188.965	79.3421	188.965	79.4986	188.965	79.3437	188.965	79.4587	188.965	79.3743	188.965	79.4166
196.289	81.8894	196.289	81.8577	196.289	81.8721	196.289	81.7806	196.289	81.8045	196.289	81.664	196.289	81.6881	196.289	81.5146	196.289	81.5269	196.289	81.3387	196.289	81.3272	196.289	81.1412	196.289	81.0965	196.289	80.9248	196.289	80.8439	196.289	80.6917	196.289	80.5798	196.289	80.4452	196.289	80.3165	196.289	80.1935	196.289	80.0678	196.289	79.9518	196.289	79.8488	196.289	79.7415	196.289	79.6739	196.289	79.5854	196.289	79.554	196.289	79.4969	196.289	79.4921	196.289	79.4721	196.289	79.4801	196.289	79.4892	196.289	79.4988	196.289	79.5176	196.289	79.5233	196.289	79.5322
203.613	81.6833	203.613	81.6236	203.613	81.6922	203.613	81.5148	203.613	81.6509	203.613	81.3612	203.613	81.5626	203.613	81.1698	203.613	81.4321	203.613	80.9495	203.613	81.2648	203.613	80.7109	203.613	81.0657	203.613	80.465	203.613	80.8382	203.613	80.222	203.613	80.5841	203.613	79.9903	203.613	80.3069	203.613	79.7766	203.613	80.0146	203.613	79.5864	203.613	79.7239	203.613	79.425	203.613	79.4595	203.613	79.2976	203.613	79.2484	203.613	79.2069	203.613	79.1085	203.613	79.1503	203.613	79.0409	203.613	79.118	203.613	79.0289	203.613	79.0963	203.613	79.0473	203.613	79.0734
210.938	81.5633	210.938	81.52	210.938	81.5601	210.938	81.4321	210.938	81.51	210.938	81.3031	210.938	81.4151	210.938	81.1368	210.938	81.2797	210.938	80.9376	210.938	81.1103	210.938	80.7103	210.938	80.9144	210.938	80.4597	210.938	80.6983	210.938	80.1912	210.938	80.467	210.938	79.9116	210.938	80.2234	210.938	79.6319	210.938	79.9707	210.938	79.3689	210.938	79.7165	210.938	79.145	210.938	79.4753	210.938	78.982	210.938	79.2674	210.938	78.8913	210.938	79.1123	210.938	78.8663	210.938	79.0179	210.938	78.8842	210.938	78.9741	210.938	78.9167	210.938	78.9574	210.938	78.9427
218.262	81.3298	218.262	81.308	218.262	81.2942	218.262	81.2291	218.262	81.2032	218.262	81.0952	218.262	81.0617	218.262	80.911	218.262	80.8777	218.262	80.6841	218.262	80.663	218.262	80.4257	218.262	80.4325	218.262	80.1514	218.262	80.2023	218.262	79.8791	218.262	79.9873	218.262	79.6274	218.262	79.7979	218.262	79.4121	218.262	79.6393	218.262	79.2455	218.262	79.5124	218.262	79.1352	218.262	79.4165	218.262	79.0835	218.262	79.3508	218.262	79.085	218.262	79.3135	218.262	79.1256	218.262	79.2995	218.262	79.1844	218.262	79.2984	218.262	79.2405	218.262	79.2961	218.262	79.279
225.586	81.6239	225.586	81.6106	225.586	81.5759	225.586	81.5374	225.586	81.4657	225.586	81.4064	225.586	81.2932	225.586	81.2202	225.586	81.0601	225.586	80.9823	225.586	80.7705	225.586	80.6983	225.586	80.4324	225.586	80.3779	225.586	80.0593	225.586	80.0365	225.586	79.672	225.586	79.697	225.586	79.2995	225.586	79.3893	225.586	78.977	225.586	79.1461	225.586	78.7408	225.586	78.994	225.586	78.6176	225.586	78.9419	225.586	78.6122	225.586	78.9742	225.586	78.7029	225.586	79.0549	225.586	78.848	225.586	79.1404	225.586	79.001	225.586	79.1934	225.586	79.1232	225.586	79.1901
232.91	81.437	232.91	81.3918	232.91	81.4209	232.91	81.2881	232.91	81.342	232.91	81.13	232.91	81.1996	232.91	80.9227	232.91	80.994	232.91	80.672	232.91	80.727	232.91	80.384	232.91	80.4034	232.91	80.0661	232.91	80.0321	232.91	79.7285	232.91	79.6285	232.91	79.3878	232.91	79.2162	232.91	79.0688	232.91	78.8275	232.91	78.8039	232.91	78.5015	232.91	78.6242	232.91	78.2773	232.91	78.546	232.91	78.1812	232.91	78.5598	232.91	78.2121	232.91	78.6306	232.91	78.3366	232.91	78.7111	232.91	78.5003	232.91	78.7569	232.91	78.6475	232.91	78.7384
241.699	81.2957	241.699	81.2384	241.699	81.2922	241.699	81.1211	241.699	81.2293	241.699	80.9459	241.699	81.1095	241.699	80.7163	241.699	80.9368	241.699	80.4361	241.699	80.7151	241.699	80.1093	241.699	80.4475	241.699	79.7395	241.699	80.1358	241.699	79.3325	241.699	79.7812	241.699	78.9003	241.699	79.3879	241.699	78.4687	241.699	78.9685	241.699	78.0826	241.699	78.5515	241.699	77.8015	241.699	78.1839	241.699	77.674	241.699	77.9216	241.699	77.7037	241.699	77.8029	241.699	77.8378	241.699	77.8228	241.699	77.9943	241.699	77.9294	241.699	78.1009	241.699	78.0497	241.699	78.1192
250.488	81.7751	250.488	81.7349	250.488	81.7425	250.488	81.6206	250.488	81.638	250.488	81.4318	250.488	81.4629	250.488	81.1695	250.488	81.219	250.488	80.8381	250.488	80.9102	250.488	80.447	250.488	80.5438	250.488	80.0104	250.488	80.1322	250.488	79.5469	250.488	79.6948	250.488	79.0768	250.488	79.2589	250.488	78.6217	250.488	78.8577	250.488	78.2076	250.488	78.523	250.488	77.8692	250.488	78.2756	250.488	77.6451	250.488	78.118	250.488	77.5585	250.488	78.036	250.488	77.596	250.488	78.0049	250.488	77.7076	250.488	77.9956	250.488	77.8326	250.488	77.9782	250.488	77.9275
259.277	81.468	259.277	81.4422	259.277	81.4381	259.277	81.361	259.277	81.3514	259.277	81.2232	259.277	81.2065	259.277	81.0263	259.277	81.0021	259.277	80.7669	259.277	80.7364	259.277	80.4423	259.277	80.408	259.277	80.0533	259.277	80.0164	259.277	79.6087	259.277	79.5648	259.277	79.13	259.277	79.067	259.277	78.6551	259.277	78.5571	259.277	78.2371	259.277	78.0964	259.277	77.933	259.277	77.7625	259.277	77.7808	259.277	77.6128	259.277	77.7784	259.277	77.6444	259.277	77.8806	259.277	77.7933	259.277	78.0192	259.277	77.9724	259.277	78.1293	259.277	78.1102	259.277	78.1658
268.066	81.3227	268.066	81.2217	268.066	81.3536	268.066	81.0535	268.066	81.3125	268.066	80.8241	268.066	81.1981	268.066	80.5426	268.066	81.0099	268.066	80.2206	268.066	80.7489	268.066	79.8673	268.066	80.4173	268.066	79.484	268.066	80.0173	268.066	79.0618	268.066	79.5492	268.066	78.5893	268.066	79.0158	268.066	78.0704	268.066	78.4345	268.066	77.5468	268.066	77.8575	268.066	77.1076	268.066	77.3796	268.066	76.8595	268.066	77.1054	268.066	76.8545	268.066	77.0749	268.066	77.0408	268.066	77.224	268.066	77.2992	268.066	77.43	268.066	77.5152	268.066	77.5828	268.066	77.6177
276.855	81.1698	276.855	81.1455	276.855	81.1488	276.855	81.063	276.855	81.0892	276.855	80.9058	276.855	80.9902	276.855	80.6583	276.855	80.8436	276.855	80.3132	276.855	80.6354	276.855	79.8807	276.855	80.3522	276.855	79.3938	276.855	79.9886	276.855	78.9055	276.855	79.5533	276.855	78.4711	276.855	79.0682	276.855	78.1209	276.855	78.5631	276.855	77.8467	276.855	78.0698	276.855	77.618	276.855	77.6245	276.855	77.418	276.855	77.2738	276.855	77.2627	276.855	77.066	276.855	77.1842	276.855	77.0188	276.855	77.1882	276.855	77.089	276.855	77.2307	276.855	77.1897	276.855	77.2442
287.109	81.1553	287.109	81.165	287.109	81.0944	287.109	81.1242	287.109	80.979	287.109	81.0311	287.109	80.8064	287.109	80.881	287.109	80.5788	287.109	80.6652	287.109	80.307	287.109	80.3703	287.109	80.0054	287.109	79.9811	287.109	79.6804	287.109	79.4907	287.109	79.3204	287.109	78.9186	287.109	78.904	287.109	78.3302	287.109	78.4288	287.109	77.8366	287.109	77.9455	287.109	77.5492	287.109	77.5607	287.109	77.5013	287.109	77.3773	287.109	77.6231	287.109	77.4089	287.109	77.801	287.109	77.5723	287.109	77.9466	287.109	77.7641	287.109	78.018	287.109	77.9181	287.109	78.0066
297.363	81.4287	297.363	81.3552	297.363	81.4421	297.363	81.2344	297.363	81.3846	297.363	81.0806	297.363	81.2451	297.363	80.9045	297.363	81.0081	297.363	80.7049	297.363	80.6567	297.363	80.4629	297.363	80.1818	297.363	80.1431	297.363	79.5964	297.363	79.703	297.363	78.941	297.363	79.1147	297.363	78.2726	297.363	78.3948	297.363	77.6389	297.363	77.6392	297.363	77.0705	297.363	77.0329	297.363	76.6166	297.363	76.7706	297.363	76.3808	297.363	76.8982	297.363	76.4662	297.363	77.2674	297.363	76.8463	297.363	77.6661	297.363	77.3453	297.363	77.9316	297.363	77.7634	297.363	77.973
307.617	80.9339	307.617	80.853	307.617	80.9448	307.617	80.6909	307.617	80.9021	307.617	80.4433	307.617	80.8227	307.617	80.1151	307.617	80.7164	307.617	79.7236	307.617	80.5763	307.617	79.2994	307.617	80.3755	307.617	78.8765	307.617	80.0754	307.617	78.4725	307.617	79.644	307.617	78.075	307.617	79.0791	307.617	77.6565	307.617	78.4261	307.617	77.2181	307.617	77.7778	307.617	76.8253	307.617	77.244	307.617	76.5894	307.617	76.9036	307.617	76.5797	307.617	76.7757	307.617	76.7516	307.617	76.8253	307.617	76.9817	307.617	76.9764	307.617	77.1545	307.617	77.132	307.617	77.2067
319.336	81.0098	319.336	80.956	319.336	81.0037	319.336	80.8452	319.336	80.9305	319.336	80.6738	319.336	80.7837	319.336	80.4325	319.336	80.5618	319.336	80.1103	319.336	80.2687	319.336	79.6984	319.336	79.9086	319.336	79.1936	319.336	79.4783	319.336	78.5981	319.336	78.9647	319.336	77.9217	319.336	78.3576	319.336	77.1934	319.336	77.676	319.336	76.4893	319.336	76.9983	319.336	75.9566	319.336	76.466	319.336	75.7643	319.336	76.2196	319.336	75.9534	319.336	76.288	319.336	76.3708	319.336	76.5607	319.336	76.8003	319.336	76.8781	319.336	77.0957	319.336	77.1158	319.336	77.2005
329.59	80.8498	329.59	80.7996	329.59	80.8426	329.59	80.6943	329.59	80.7757	329.59	80.5339	329.59	80.6484	329.59	80.3149	329.59	80.4629	329.59	80.0304	329.59	80.2248	329.59	79.6713	329.59	79.9395	329.59	79.2287	329.59	79.6027	329.59	78.6947	329.59	79.1915	329.59	78.0674	329.59	78.6667	329.59	77.3619	329.59	77.9965	329.59	76.6356	329.59	77.2004	329.59	76.0187	329.59	76.4019	329.59	75.6987	329.59	75.836	329.59	75.789	329.59	75.7139	329.59	76.1918	329.59	76.0104	329.59	76.6674	329.59	76.4863	329.59	77.0036	329.59	76.8952	329.59	77.0869
341.309	80.8593	341.309	80.8559	341.309	80.7683	341.309	80.7562	341.309	80.59	341.309	80.5664	341.309	80.3341	341.309	80.3007	341.309	80.0114	341.309	79.9756	341.309	79.6327	341.309	79.5973	341.309	79.2083	341.309	79.1502	341.309	78.747	341.309	78.5974	341.309	78.2545	341.309	77.8994	341.309	77.7337	341.309	77.0498	341.309	77.1919	341.309	76.1263	341.309	76.6661	341.309	75.3337	341.309	76.2518	341.309	74.948	341.309	76.08	341.309	75.0879	341.309	76.2034	341.309	75.583	341.309	76.5133	341.309	76.1606	341.309	76.8195	341.309	76.6341	341.309	76.9756	341.309	76.9163
353.027	80.6635	353.027	80.5942	353.027	80.6638	353.027	80.4632	353.027	80.5934	353.027	80.2813	353.027	80.4549	353.027	80.0597	353.027	80.2519	353.027	79.8072	353.027	79.9862	353.027	79.5274	353.027	79.6549	353.027	79.2136	353.027	79.2469	353.027	78.8429	353.027	78.7374	353.027	78.3759	353.027	78.0907	353.027	77.7679	353.027	77.2797	353.027	76.9997	353.027	76.3284	353.027	76.14	353.027	75.3737	353.027	75.4204	353.027	74.7038	353.027	75.1735	353.027	74.6196	353.027	75.492	353.027	75.1094	353.027	76.0729	353.027	75.8276	353.027	76.5396	353.027	76.417	353.027	76.675
366.211	81.3497	366.211	81.2771	366.211	81.3506	366.211	81.1295	366.211	81.2877	366.211	80.9061	366.211	81.1714	366.211	80.6052	366.211	81.008	366.211	80.2215	366.211	80.7938	366.211	79.7456	366.211	80.5126	366.211	79.1638	366.211	80.1372	366.211	78.4572	366.211	79.6304	366.211	77.6047	366.211	78.9474	366.211	76.6015	366.211	78.0474	366.211	75.5077	366.211	76.925	366.211	74.5291	366.211	75.6781	366.211	74.0146	366.211	74.5925	366.211	74.1556	366.211	74.0681	366.211	74.7112	366.211	74.2251	366.211	75.2777	366.211	74.7533	366.211	75.6014	366.211	75.2825	366.211	75.5972
379.395	80.5714	379.395	80.5949	379.395	80.4712	379.395	80.5416	379.395	80.3083	379.395	80.4236	379.395	80.1087	379.395	80.2613	379.395	79.9042	379.395	80.0755	379.395	79.7218	379.395	79.8709	379.395	79.5723	379.395	79.6201	379.395	79.4389	379.395	79.2589	379.395	79.2747	379.395	78.7003	379.395	79.0134	379.395	77.8636	379.395	78.5908	379.395	76.7209	379.395	77.9705	379.395	75.3919	379.395	77.1801	379.395	74.2946	379.395	76.3699	379.395	74.0299	379.395	75.8352	379.395	74.6502	379.395	75.8145	379.395	75.5686	379.395	76.1788	379.395	76.2944	379.395	76.5491	379.395	76.6284
392.578	80.5644	392.578	80.4665	392.578	80.5157	392.578	80.2517	392.578	80.3137	392.578	79.9652	392.578	79.9806	392.578	79.6578	392.578	79.5668	392.578	79.3734	392.578	79.1407	392.578	79.1346	392.578	78.7669	392.578	78.9296	392.578	78.4764	392.578	78.7081	392.578	78.2405	392.578	78.3919	392.578	77.9718	392.578	77.8982	392.578	77.5647	392.578	77.1735	392.578	76.963	392.578	76.2507	392.578	76.2294	392.578	75.3392	392.578	75.5768	392.578	74.8311	392.578	75.2586	392.578	74.9509	392.578	75.3341	392.578	75.4301	392.578	75.6263	392.578	75.854	392.578	75.909	392.578	76.0167
405.762	81.0378	405.762	80.9651	405.762	80.9578	405.762	80.7378	405.762	80.7293	405.762	80.3629	405.762	80.3587	405.762	79.8679	405.762	79.8605	405.762	79.3119	405.762	79.262	405.762	78.7802	405.762	78.6014	405.762	78.3423	405.762	77.9201	405.762	77.99	405.762	77.2549	405.762	77.6282	405.762	76.6343	405.762	77.1379	405.762	76.0724	405.762	76.4503	405.762	75.5757	405.762	75.6047	405.762	75.1813	405.762	74.8027	405.762	74.9918	405.762	74.3858	405.762	75.1061	405.762	74.5602	405.762	75.4726	405.762	75.1313	405.762	75.8857	405.762	75.7251	405.762	76.1334	405.762	76.0891
420.41	81.0721	420.41	80.9794	420.41	81.0311	420.41	80.7694	420.41	80.8722	420.41	80.4782	420.41	80.634	420.41	80.1357	420.41	80.3572	420.41	79.7494	420.41	80.0694	420.41	79.3133	420.41	79.7816	420.41	78.8297	420.41	79.4792	420.41	78.3098	420.41	79.1047	420.41	77.7384	420.41	78.5612	420.41	77.0495	420.41	77.753	420.41	76.178	420.41	76.6472	420.41	75.1989	420.41	75.3527	420.41	74.4664	420.41	74.2112	420.41	74.4252	420.41	73.7215	420.41	75.0093	420.41	74.0627	420.41	75.7035	420.41	74.8585	420.41	76.1134	420.41	75.6298	420.41	76.0885
435.059	81.0971	435.059	81.0342	435.059	80.9906	435.059	80.8218	435.059	80.7036	435.059	80.4835	435.059	80.2474	435.059	80.047	435.059	79.6667	435.059	79.5447	435.059	79.0318	435.059	79.0142	435.059	78.4122	435.059	78.4893	435.059	77.8536	435.059	77.9683	435.059	77.3754	435.059	77.376	435.059	76.9618	435.059	76.5865	435.059	76.5461	435.059	75.5463	435.059	76.0524	435.059	74.4916	435.059	75.5229	435.059	74.0447	435.059	75.2266	435.059	74.5638	435.059	75.4765	435.059	75.5745	435.059	76.1845	435.059	76.5195	435.059	76.9313	435.059	77.1752	435.059	77.3992	435.059	77.4795
451.172	81.9832	451.172	81.8533	451.172	81.9223	451.172	81.5304	451.172	81.6706	451.172	81.0231	451.172	81.2282	451.172	80.3786	451.172	80.61	451.172	79.7032	451.172	79.8644	451.172	79.135	451.172	79.0903	451.172	78.7509	451.172	78.4199	451.172	78.4917	451.172	77.9236	451.172	78.1963	451.172	77.4989	451.172	77.6701	451.172	76.903	451.172	76.7068	451.172	75.9032	451.172	75.1246	451.172	74.4302	451.172	73.0588	451.172	72.8295	451.172	71.8915	451.172	72.1352	451.172	73.0178	451.172	72.9436	451.172	74.7333	451.172	74.3267	451.172	75.7589	451.172	75.4309	451.172	75.9545
465.82	82.4834	465.82	82.3847	465.82	82.3887	465.82	82.0856	465.82	82.0943	465.82	81.5605	465.82	81.5852	465.82	80.7717	465.82	80.8443	465.82	79.7059	465.82	79.8742	465.82	78.453	465.82	78.7431	465.82	77.3084	465.82	77.6364	465.82	76.695	465.82	76.8242	465.82	76.6869	465.82	76.4366	465.82	76.8379	465.82	76.2705	465.82	76.662	465.82	75.9537	465.82	75.8885	465.82	75.2085	465.82	74.4521	465.82	74.012	465.82	72.6706	465.82	72.8017	465.82	71.6598	465.82	72.4049	465.82	72.1911	465.82	72.925	465.82	73.1905	465.82	73.5586	465.82	73.7102
483.398	82.148	483.398	81.9849	483.398	82.1501	483.398	81.6872	483.398	81.976	483.398	81.2694	483.398	81.6259	483.398	80.7052	483.398	81.0971	483.398	79.9164	483.398	80.3534	483.398	78.7901	483.398	79.3041	483.398	77.2215	483.398	77.8263	483.398	75.2094	483.398	75.8758	483.398	73.1384	483.398	73.7952	483.398	72.0973	483.398	72.6017	483.398	72.5747	483.398	72.7579	483.398	73.4546	483.398	73.3023	483.398	73.8973	483.398	73.5182	483.398	73.7678	483.398	73.3118	483.398	73.2374	483.398	72.8522	483.398	72.5898	483.398	72.3699	483.398	72.1017	483.398	72.031	483.398	71.9195
499.512	81.3277	499.512	81.2663	499.512	81.3019	499.512	81.1004	499.512	81.2287	499.512	80.8574	499.512	81.1273	499.512	80.5793	499.512	80.9684	499.512	80.2518	499.512	80.6774	499.512	79.7554	499.512	80.1529	499.512	78.8885	499.512	79.2805	499.512	77.4293	499.512	77.929	499.512	75.2153	499.512	75.9358	499.512	72.4188	499.512	73.1566	499.512	70.493	499.512	70.1411	499.512	71.2305	499.512	69.8102	499.512	73.0896	499.512	72.0619	499.512	74.6687	499.512	73.964	499.512	75.7168	499.512	75.0336	499.512	76.2375	499.512	75.5505	499.512	76.3149	499.512	75.8502	499.512	76.1217
517.09	80.1997	517.09	80.2325	517.09	80.1581	517.09	80.2356	517.09	80.1204	517.09	80.2004	517.09	80.0883	517.09	80.1405	517.09	80.049	517.09	80.0487	517.09	79.9597	517.09	79.8337	517.09	79.7334	517.09	79.318	517.09	79.2381	517.09	78.2789	517.09	78.3067	517.09	76.4577	517.09	76.7505	517.09	73.5616	517.09	74.3947	517.09	69.8648	517.09	71.3992	517.09	69.3096	517.09	69.7924	517.09	72.2585	517.09	71.6063	517.09	74.6115	517.09	74.0922	517.09	76.0761	517.09	75.9244	517.09	77.0114	517.09	77.0952	517.09	77.6065	517.09	77.7174	517.09	77.8653
536.133	81.4767	536.133	81.4116	536.133	81.4361	536.133	81.2653	536.133	81.2835	536.133	81.0594	536.133	81.0466	536.133	80.8209	536.133	80.7904	536.133	80.6105	536.133	80.591	536.133	80.4804	536.133	80.4685	536.133	80.3368	536.133	80.3211	536.133	79.9034	536.133	79.9255	536.133	78.8218	536.133	78.9725	536.133	76.6561	536.133	77.0202	536.133	72.5392	536.133	73.181	536.133	63.2237	536.133	64.305	536.133	66.7379	536.133	66.3751	536.133	73.7699	536.133	73.7427	536.133	77.0129	536.133	76.9896	536.133	78.6308	536.133	78.5742	536.133	79.3338	536.133	79.2828	536.133	79.4991
555.176	81.9836	555.176	81.8604	555.176	81.8798	555.176	81.5581	555.176	81.6008	555.176	81.1985	555.176	81.271	555.176	80.913	555.176	81.0266	555.176	80.792	555.176	80.9617	555.176	80.8553	555.176	81.0977	555.176	80.991	555.176	81.336	555.176	80.9254	555.176	81.4291	555.176	80.2982	555.176	81.0366	555.176	78.7114	555.176	79.7738	555.176	75.5818	555.176	77.1041	555.176	69.2412	555.176	71.6799	555.176	51.411	555.176	50.597	555.176	70.1262	555.176	69.6108	555.176	75.1386	555.176	75.1243	555.176	77.7352	555.176	77.7113	555.176	79.0794	555.176	79.0302	555.176	79.4749
574.219	82.8661	574.219	82.6752	574.219	82.7953	574.219	82.2263	574.219	82.4556	574.219	81.575	574.219	81.8408	574.219	80.8886	574.219	81.0567	574.219	80.4615	574.219	80.4407	574.219	80.5597	574.219	80.3245	574.219	81.0994	574.219	80.5621	574.219	81.6326	574.219	80.7387	574.219	81.6696	574.219	80.5871	574.219	80.8295	574.219	79.9112	574.219	78.7513	574.219	78.3392	574.219	74.7677	574.219	75.0487	574.219	66.575	574.219	67.1193	574.219	66.5821	574.219	63.1597	574.219	73.8617	574.219	73.5575	574.219	77.1799	574.219	77.2509	574.219	78.8008	574.219	78.8835	574.219	79.3288
594.727	83.2278	594.727	82.9683	594.727	83.1959	594.727	82.439	594.727	82.856	594.727	81.6451	594.727	82.2192	594.727	80.6158	594.727	81.3262	594.727	79.5604	594.727	80.2999	594.727	79.0089	594.727	79.5378	594.727	79.3581	594.727	79.6261	594.727	80.1868	594.727	80.4111	594.727	80.7558	594.727	81.035	594.727	80.5489	594.727	80.8788	594.727	79.1539	594.727	79.5875	594.727	75.8967	594.727	76.6675	594.727	68.42	594.727	70.9816	594.727	61.44	594.727	67.4514	594.727	72.9016	594.727	73.6535	594.727	76.8381	594.727	77.0685	594.727	78.6437	594.727	78.7059	594.727	79.1944
615.234	82.9071	615.234	82.9026	615.234	82.7044	615.234	82.5994	615.234	82.364	615.234	81.9436	615.234	81.8878	615.234	80.9653	615.234	81.2178	615.234	79.8306	615.234	80.3365	615.234	78.9172	615.234	79.5039	615.234	78.7443	615.234	79.3356	615.234	79.446	615.234	80.0081	615.234	80.4264	615.234	80.8466	615.234	80.9369	615.234	81.1957	615.234	80.4757	615.234	80.6991	615.234	78.6481	615.234	79.0579	615.234	74.8498	615.234	75.7444	615.234	67.7908	615.234	69.4907	615.234	67.0922	615.234	66.3001	615.234	72.8512	615.234	72.5826	615.234	75.5527	615.234	75.5367	615.234	76.3699
637.207	83.8682	637.207	83.7297	637.207	83.8258	637.207	83.4184	637.207	83.558	637.207	82.8718	637.207	82.9964	637.207	81.9463	637.207	82.0679	637.207	80.5216	637.207	80.7592	637.207	78.8363	637.207	79.2562	637.207	77.931	637.207	78.2031	637.207	78.6326	637.207	78.4796	637.207	80.0877	637.207	79.7398	637.207	81.2151	637.207	80.8119	637.207	81.3817	637.207	81.038	637.207	80.1662	637.207	80.1256	637.207	77.0741	637.207	77.7024	637.207	70.7939	637.207	72.6064	637.207	64.5117	637.207	58.405	637.207	71.9191	637.207	69.4252	637.207	74.9905	637.207	74.234	637.207	75.6171
659.18	83.5321	659.18	83.4256	659.18	83.4766	659.18	83.1523	659.18	83.2777	659.18	82.6944	659.18	82.9261	659.18	81.9544	659.18	82.3408	659.18	80.7696	659.18	81.3702	659.18	79.0706	659.18	79.8934	659.18	77.2989	659.18	78.194	659.18	76.7884	659.18	77.5706	659.18	77.9231	659.18	78.7194	659.18	79.3217	659.18	80.0983	659.18	79.9849	659.18	80.582	659.18	79.3948	659.18	79.8147	659.18	77.0633	659.18	77.5017	659.18	71.9198	659.18	72.7326	659.18	55.9461	659.18	59.5667	659.18	67.4168	659.18	66.6751	659.18	72.7565	659.18	72.6085	659.18	74.0692
682.617	83.0383	682.617	83.0241	682.617	82.9658	682.617	82.8865	682.617	82.8364	682.617	82.5968	682.617	82.614	682.617	82.1026	682.617	82.1621	682.617	81.2766	682.617	81.3189	682.617	79.9189	682.617	79.9941	682.617	77.9954	682.617	78.2199	682.617	76.4264	682.617	76.5404	682.617	76.7844	682.617	76.6175	682.617	78.1432	682.617	78.3266	682.617	79.0433	682.617	79.5552	682.617	78.9157	682.617	79.381	682.617	77.2182	682.617	77.4832	682.617	72.9171	682.617	73.297	682.617	61.8788	682.617	63.9528	682.617	64.7456	682.617	63.334	682.617	70.9581	682.617	70.6852	682.617	72.4206
707.52	82.8449	707.52	82.8223	707.52	82.815	707.52	82.7565	707.52	82.6626	707.52	82.5402	707.52	82.3616	707.52	82.0518	707.52	81.9309	707.52	81.2634	707.52	81.3179	707.52	80.1471	707.52	80.3348	707.52	78.4948	707.52	78.8098	707.52	76.1659	707.52	76.8992	707.52	74.5733	707.52	75.5647	707.52	75.775	707.52	76.1108	707.52	77.4101	707.52	77.4581	707.52	77.8155	707.52	77.8657	707.52	76.5916	707.52	76.7354	707.52	73.0437	707.52	73.8066	707.52	64.4492	707.52	68.2704	707.52	63.7336	707.52	61.6981	707.52	69.8966	707.52	67.663	707.52	70.5746
732.422	82.688	732.422	82.6032	732.422	82.5342	732.422	82.2726	732.422	82.2444	732.422	81.7913	732.422	81.891	732.422	81.2518	732.422	81.413	732.422	80.6238	732.422	80.679	732.422	79.7752	732.422	79.6186	732.422	78.6654	732.422	78.3118	732.422	77.5058	732.422	77.1366	732.422	76.7299	732.422	76.6243	732.422	76.5662	732.422	76.6933	732.422	76.5954	732.422	76.88	732.422	76.2146	732.422	76.7522	732.422	74.9189	732.422	75.6656	732.422	71.929	732.422	72.9277	732.422	65.3596	732.422	67.4703	732.422	63.5535	732.422	63.2416	732.422	69.6112	732.422	68.8762	732.422	70.9863
757.324	82.1137	757.324	81.9171	757.324	82.1172	757.324	81.6782	757.324	81.8403	757.324	81.403	757.324	81.3246	757.324	80.8771	757.324	80.6893	757.324	79.9673	757.324	80.0051	757.324	78.8611	757.324	79.1638	757.324	77.7022	757.324	77.9401	757.324	76.2796	757.324	76.4102	757.324	74.9865	757.324	75.4866	757.324	75.068	757.324	75.7674	757.324	75.7099	757.324	76.1877	757.324	75.4153	757.324	75.8086	757.324	73.7193	757.324	74.2981	757.324	70.4049	757.324	71.6572	757.324	66.4833	757.324	68.9702	757.324	68.1351	757.324	69.0702	757.324	71.1856	757.324	71.0863	757.324	72.1164
785.156	82.7432	785.156	82.6005	785.156	82.4933	785.156	82.0417	785.156	82.0157	785.156	81.2836	785.156	81.4528	785.156	80.6573	785.156	80.7093	785.156	80.2091	785.156	79.6685	785.156	79.6256	785.156	78.5994	785.156	78.5068	785.156	77.6798	785.156	76.9734	785.156	76.607	785.156	76.2667	785.156	75.5283	785.156	76.2419	785.156	74.651	785.156	75.6273	785.156	73.9079	785.156	74.7456	785.156	73.6364	785.156	73.1283	785.156	72.5658	785.156	68.0712	785.156	67.9761	785.156	52.9965	785.156	50.5485	785.156	62.8241	785.156	68.0482	785.156	66.552	785.156	71.0775	785.156	69.763
811.523	82.5005	811.523	82.2537	811.523	82.4064	811.523	81.9224	811.523	81.9606	811.523	81.5947	811.523	81.3711	811.523	81.0418	811.523	80.751	811.523	80.1321	811.523	79.9898	811.523	78.9115	811.523	78.9316	811.523	77.4214	811.523	77.5423	811.523	76.0239	811.523	75.819	811.523	75.2543	811.523	74.3895	811.523	75.3879	811.523	74.7678	811.523	76.0927	811.523	75.6398	811.523	75.823	811.523	75.4725	811.523	73.5097	811.523	74.1697	811.523	69.3751	811.523	71.7735	811.523	64.6556	811.523	67.4246	811.523	67.458	811.523	65.4074	811.523	72.0731	811.523	71.0079	811.523	73.2356
840.82	81.7844	840.82	81.6199	840.82	81.7632	840.82	81.2993	840.82	81.3963	840.82	80.7425	840.82	80.7206	840.82	79.9123	840.82	80.0085	840.82	78.786	840.82	79.3719	840.82	77.488	840.82	78.6218	840.82	75.9315	840.82	77.4548	840.82	73.4766	840.82	75.866	840.82	71.5249	840.82	74.5565	840.82	72.5769	840.82	74.2389	840.82	73.4416	840.82	74.4749	840.82	73.5132	840.82	74.3521	840.82	72.3554	840.82	72.9655	840.82	67.0399	840.82	68.2084	840.82	57.7703	840.82	61.157	840.82	69.7425	840.82	70.1733	840.82	73.0446	840.82	73.1047	840.82	73.8755
870.117	83.1004	870.117	82.9574	870.117	83.0233	870.117	82.5835	870.117	82.695	870.117	82.0115	870.117	82.0148	870.117	81.2753	870.117	81.0853	870.117	80.4089	870.117	80.1889	870.117	79.2564	870.117	79.202	870.117	77.5501	870.117	77.7692	870.117	75.2983	870.117	75.9051	870.117	72.9247	870.117	74.3109	870.117	72.8614	870.117	74.4541	870.117	74.9904	870.117	75.1411	870.117	75.5645	870.117	74.9525	870.117	73.7551	870.117	73.8754	870.117	70.3544	870.117	71.5249	870.117	65.9683	870.117	66.5287	870.117	63.0688	870.117	62.6833	870.117	68.448	870.117	69.2514	870.117	71.028
900.879	82.3959	900.879	81.9827	900.879	82.4155	900.879	81.3365	900.879	82.0753	900.879	80.7067	900.879	81.4813	900.879	80.0927	900.879	80.7053	900.879	79.2695	900.879	79.9235	900.879	78.3399	900.879	79.2114	900.879	77.3951	900.879	78.1986	900.879	75.8721	900.879	76.5417	900.879	73.3088	900.879	74.7541	900.879	71.595	900.879	73.4309	900.879	72.9949	900.879	73.541	900.879	74.2181	900.879	74.6036	900.879	73.1905	900.879	74.1506	900.879	68.7771	900.879	71.3155	900.879	63.1335	900.879	67.3717	900.879	68.745	900.879	69.1692	900.879	72.2647	900.879	72.028	900.879	73.2437
933.105	82.7502	933.105	82.82	933.105	82.4752	933.105	82.5295	933.105	81.9806	933.105	81.7691	933.105	81.3437	933.105	80.8523	933.105	80.666	933.105	80.0756	933.105	79.7222	933.105	79.1848	933.105	78.4144	933.105	78.0262	933.105	77.1996	933.105	76.5303	933.105	75.9125	933.105	74.5481	933.105	74.1675	933.105	72.8598	933.105	73.5712	933.105	72.9762	933.105	74.4412	933.105	73.6327	933.105	74.9274	933.105	72.8298	933.105	74.0215	933.105	69.281	933.105	70.9811	933.105	56.9631	933.105	62.6877	933.105	64.8043	933.105	63.9501	933.105	68.7645	933.105	69.5537	933.105	69.8218
965.332	83.1819	965.332	82.8268	965.332	82.9935	965.332	82.2105	965.332	82.3629	965.332	81.6128	965.332	81.4489	965.332	80.7983	965.332	80.3211	965.332	79.7075	965.332	79.308	965.332	78.7576	965.332	78.5691	965.332	77.8936	965.332	77.4843	965.332	76.3294	965.332	75.6973	965.332	73.2659	965.332	73.2474	965.332	71.2442	965.332	71.8481	965.332	73.0014	965.332	73.094	965.332	73.7562	965.332	73.904	965.332	72.7851	965.332	73.5553	965.332	69.8405	965.332	70.9216	965.332	64.2469	965.332	63.3719	965.332	60.2457	965.332	65.0838	965.332	69.1295	965.332	69.9317	965.332	71.6465
1,000.49	82.4517	1,000.49	82.4061	1,000.49	82.2109	1,000.49	81.8872	1,000.49	81.5809	1,000.49	80.8577	1,000.49	80.6857	1,000.49	79.9144	1,000.49	79.81	1,000.49	78.9998	1,000.49	78.8401	1,000.49	77.5833	1,000.49	77.6276	1,000.49	76.2538	1,000.49	76.4583	1,000.49	75.0443	1,000.49	75.2015	1,000.49	73.6486	1,000.49	73.2525	1,000.49	73.235	1,000.49	71.4798	1,000.49	73.5367	1,000.49	71.9218	1,000.49	73.7239	1,000.49	73.3203	1,000.49	73.8627	1,000.49	72.9628	1,000.49	72.2363	1,000.49	69.2737	1,000.49	64.7637	1,000.49	61.4274	1,000.49	63.5901	1,000.49	60.3943	1,000.49	70.6123	1,000.49	67.8579	1,000.49	71.2716
1,035.64	82.1091	1,035.64	81.8054	1,035.64	82.0569	1,035.64	81.4029	1,035.64	81.4255	1,035.64	80.8077	1,035.64	80.5407	1,035.64	79.795	1,035.64	79.6423	1,035.64	78.4297	1,035.64	78.4837	1,035.64	77.0316	1,035.64	77.586	1,035.64	76.0702	1,035.64	77.0773	1,035.64	75.2007	1,035.64	75.7416	1,035.64	73.3349	1,035.64	72.555	1,035.64	71.3029	1,035.64	70.1552	1,035.64	71.7438	1,035.64	69.7905	1,035.64	73.6074	1,035.64	70.2999	1,035.64	73.6645	1,035.64	72.1763	1,035.64	71.0011	1,035.64	71.1028	1,035.64	66.3853	1,035.64	64.421	1,035.64	52.7985	1,035.64	60.387	1,035.64	63.6405	1,035.64	66.2116	1,035.64	67.1058
1,072.27	82.945	1,072.27	82.5208	1,072.27	83.0112	1,072.27	81.8277	1,072.27	82.6015	1,072.27	80.8616	1,072.27	81.7248	1,072.27	79.681	1,072.27	80.6198	1,072.27	78.6181	1,072.27	79.4808	1,072.27	77.5571	1,072.27	78.3854	1,072.27	76.4164	1,072.27	77.244	1,072.27	76.0971	1,072.27	75.8155	1,072.27	74.5483	1,072.27	74.2569	1,072.27	72.0574	1,072.27	72.0058	1,072.27	73.3164	1,072.27	70.3631	1,072.27	74.7863	1,072.27	72.6813	1,072.27	74.8202	1,072.27	73.2829	1,072.27	72.9081	1,072.27	71.3318	1,072.27	69.927	1,072.27	67.3151	1,072.27	68.8351	1,072.27	66.538	1,072.27	70.762	1,072.27	69.6148	1,072.27	71.1831
1,108.89	83.0636	1,108.89	82.7302	1,108.89	82.9561	1,108.89	81.9392	1,108.89	82.5424	1,108.89	80.9351	1,108.89	81.7788	1,108.89	79.6575	1,108.89	80.6203	1,108.89	78.4173	1,108.89	79.1475	1,108.89	77.8408	1,108.89	77.6744	1,108.89	76.7651	1,108.89	76.4762	1,108.89	74.5264	1,108.89	75.4115	1,108.89	72.3095	1,108.89	73.328	1,108.89	69.4169	1,108.89	71.183	1,108.89	69.6005	1,108.89	70.5393	1,108.89	71.1196	1,108.89	70.5414	1,108.89	70.5057	1,108.89	72.4557	1,108.89	68.0033	1,108.89	70.4641	1,108.89	64.1101	1,108.89	63.969	1,108.89	62.2461	1,108.89	62.83	1,108.89	68.7049	1,108.89	66.6709	1,108.89	69.1334
1,148.44	82.8925	1,148.44	82.6326	1,148.44	82.8767	1,148.44	82.1886	1,148.44	82.3441	1,148.44	81.091	1,148.44	81.3879	1,148.44	79.5128	1,148.44	80.1658	1,148.44	78.0375	1,148.44	78.7845	1,148.44	76.4916	1,148.44	77.6851	1,148.44	75.3722	1,148.44	77.0136	1,148.44	75.0332	1,148.44	75.916	1,148.44	74.1321	1,148.44	74.4639	1,148.44	72.2122	1,148.44	72.8171	1,148.44	70.1188	1,148.44	71.6777	1,148.44	69.381	1,148.44	71.7723	1,148.44	71.6314	1,148.44	71.355	1,148.44	71.3363	1,148.44	69.6064	1,148.44	68.0114	1,148.44	65.5676	1,148.44	69.3699	1,148.44	66.3929	1,148.44	70.0711	1,148.44	70.7749	1,148.44	71.3453
1,189.45	83.5244	1,189.45	83.1524	1,189.45	83.3605	1,189.45	82.4999	1,189.45	82.7794	1,189.45	81.613	1,189.45	81.8766	1,189.45	80.148	1,189.45	80.4908	1,189.45	78.3878	1,189.45	79.0098	1,189.45	77.6296	1,189.45	77.8599	1,189.45	77.0287	1,189.45	76.7374	1,189.45	76.1938	1,189.45	75.8362	1,189.45	74.7473	1,189.45	74.2555	1,189.45	71.5403	1,189.45	71.2323	1,189.45	69.9903	1,189.45	70.1852	1,189.45	71.5531	1,189.45	71.7478	1,189.45	71.7785	1,189.45	72.7679	1,189.45	67.5816	1,189.45	70.6908	1,189.45	61.0862	1,189.45	62.2013	1,189.45	67.2109	1,189.45	67.2904	1,189.45	72.3478	1,189.45	71.3731	1,189.45	72.8119
1,230.47	82.9354	1,230.47	82.9806	1,230.47	82.745	1,230.47	82.5922	1,230.47	82.2083	1,230.47	81.3884	1,230.47	81.232	1,230.47	79.7082	1,230.47	79.9723	1,230.47	78.0956	1,230.47	78.3155	1,230.47	76.3961	1,230.47	76.6213	1,230.47	75.5667	1,230.47	75.7856	1,230.47	75.0224	1,230.47	75.4721	1,230.47	73.7075	1,230.47	74.0281	1,230.47	70.731	1,230.47	72.1774	1,230.47	69.4853	1,230.47	70.7935	1,230.47	70.8988	1,230.47	72.0458	1,230.47	72.1035	1,230.47	72.6901	1,230.47	70.401	1,230.47	69.9207	1,230.47	65.2931	1,230.47	61.6209	1,230.47	65.3889	1,230.47	63.576	1,230.47	71.2042	1,230.47	70.5109	1,230.47	72.9157
1,274.41	82.8383	1,274.41	82.6932	1,274.41	82.6275	1,274.41	82.2651	1,274.41	82.2066	1,274.41	81.5942	1,274.41	81.5115	1,274.41	80.3441	1,274.41	80.341	1,274.41	78.6057	1,274.41	78.7679	1,274.41	76.4122	1,274.41	76.6966	1,274.41	74.5839	1,274.41	74.364	1,274.41	74.8321	1,274.41	73.6772	1,274.41	75.2093	1,274.41	74.0084	1,274.41	73.2734	1,274.41	72.0264	1,274.41	68.7714	1,274.41	68.258	1,274.41	70.2829	1,274.41	71.1778	1,274.41	72.0441	1,274.41	72.9766	1,274.41	70.3513	1,274.41	71.2582	1,274.41	62.2881	1,274.41	65.794	1,274.41	64.3536	1,274.41	60.721	1,274.41	71.1133	1,274.41	70.563	1,274.41	71.9293
1,319.82	82.4093	1,319.82	82.3661	1,319.82	82.1099	1,319.82	81.9245	1,319.82	81.6658	1,319.82	80.8046	1,319.82	80.9652	1,319.82	80.0137	1,319.82	79.6868	1,319.82	79.1331	1,319.82	78.1994	1,319.82	77.3988	1,319.82	76.3373	1,319.82	76.0456	1,319.82	74.773	1,319.82	74.6445	1,319.82	73.1762	1,319.82	74.4539	1,319.82	72.7541	1,319.82	72.7222	1,319.82	70.4924	1,319.82	67.7393	1,319.82	66.4007	1,319.82	68.9995	1,319.82	68.4539	1,319.82	72.5129	1,319.82	72.1134	1,319.82	71.9054	1,319.82	72.1105	1,319.82	65.6913	1,319.82	66.6898	1,319.82	57.2424	1,319.82	50.5949	1,319.82	69.5914	1,319.82	64.2098	1,319.82	70.4032
1,366.7	82.2539	1,366.7	82.2341	1,366.7	82.0549	1,366.7	81.4737	1,366.7	81.6341	1,366.7	80.3912	1,366.7	80.5444	1,366.7	79.511	1,366.7	79.3284	1,366.7	78.1712	1,366.7	78.2413	1,366.7	76.6892	1,366.7	76.7963	1,366.7	75.0165	1,366.7	74.6169	1,366.7	73.3036	1,366.7	72.8405	1,366.7	72.6291	1,366.7	71.68	1,366.7	71.5012	1,366.7	71.7009	1,366.7	67.8598	1,366.7	69.7513	1,366.7	66.5653	1,366.7	67.0191	1,366.7	69.6572	1,366.7	69.7004	1,366.7	70.7679	1,366.7	70.2931	1,366.7	66.4854	1,366.7	68.1054	1,366.7	61.1207	1,366.7	57.9244	1,366.7	66.7534	1,366.7	66.0189	1,366.7	68.2253
1,413.57	82.6858	1,413.57	82.1645	1,413.57	82.3423	1,413.57	81.4784	1,413.57	81.4772	1,413.57	80.7079	1,413.57	80.7042	1,413.57	79.3835	1,413.57	79.5483	1,413.57	78.0264	1,413.57	77.9969	1,413.57	76.8326	1,413.57	76.4148	1,413.57	74.981	1,413.57	75.1268	1,413.57	73.8834	1,413.57	74.4258	1,413.57	72.1135	1,413.57	73.2962	1,413.57	70.683	1,413.57	72.701	1,413.57	68.6382	1,413.57	69.2766	1,413.57	66.9704	1,413.57	67.2704	1,413.57	70.3038	1,413.57	70.0332	1,413.57	70.9977	1,413.57	71.4484	1,413.57	67.7243	1,413.57	69.5865	1,413.57	55.7725	1,413.57	62.5776	1,413.57	66.8713	1,413.57	63.5356	1,413.57	67.0195
1,463.38	83.1192	1,463.38	82.8133	1,463.38	83.107	1,463.38	82.1267	1,463.38	82.5152	1,463.38	81.552	1,463.38	81.4334	1,463.38	80.1231	1,463.38	80.1586	1,463.38	78.4564	1,463.38	78.6269	1,463.38	77.4658	1,463.38	77.1701	1,463.38	75.5694	1,463.38	75.6056	1,463.38	73.8333	1,463.38	74.1934	1,463.38	72.3932	1,463.38	72.6584	1,463.38	71.153	1,463.38	72.4277	1,463.38	69.9356	1,463.38	69.9925	1,463.38	66.6501	1,463.38	68.1791	1,463.38	69.1861	1,463.38	71.0441	1,463.38	70.8993	1,463.38	72.7406	1,463.38	67.5887	1,463.38	70.7801	1,463.38	55.9624	1,463.38	65.8397	1,463.38	67.3606	1,463.38	66.8809	1,463.38	69.678
1,516.11	83.3536	1,516.11	82.8926	1,516.11	83.1695	1,516.11	82.1954	1,516.11	82.6433	1,516.11	81.5354	1,516.11	81.7469	1,516.11	80.4798	1,516.11	80.5927	1,516.11	79.1383	1,516.11	79.3697	1,516.11	77.2404	1,516.11	77.822	1,516.11	75.9008	1,516.11	76.0162	1,516.11	74.5854	1,516.11	74.1871	1,516.11	72.165	1,516.11	71.8992	1,516.11	70.9884	1,516.11	70.6621	1,516.11	70.4288	1,516.11	69.8887	1,516.11	68.2541	1,516.11	66.8185	1,516.11	68.8274	1,516.11	70.1247	1,516.11	70.9518	1,516.11	71.7226	1,516.11	69.8516	1,516.11	68.8175	1,516.11	61.5243	1,516.11	61.4029	1,516.11	64.9671	1,516.11	67.4956	1,516.11	68.3827
1,568.85	82.606	1,568.85	82.6363	1,568.85	82.8116	1,568.85	82.0999	1,568.85	82.0866	1,568.85	80.9746	1,568.85	80.8278	1,568.85	80.1742	1,568.85	79.3583	1,568.85	79.5441	1,568.85	77.865	1,568.85	78.2216	1,568.85	77.4129	1,568.85	76.2963	1,568.85	75.8159	1,568.85	74.6706	1,568.85	73.1071	1,568.85	73.1723	1,568.85	71.9587	1,568.85	70.5476	1,568.85	71.2498	1,568.85	70.5377	1,568.85	70.0055	1,568.85	69.9409	1,568.85	66.9398	1,568.85	69.9632	1,568.85	65.949	1,568.85	70.0416	1,568.85	70.1453	1,568.85	68.8952	1,568.85	68.9587	1,568.85	64.3378	1,568.85	61.7044	1,568.85	64.9088	1,568.85	66.7575	1,568.85	69.094
1,624.51	82.1028	1,624.51	81.9942	1,624.51	82.0971	1,624.51	80.9578	1,624.51	81.2957	1,624.51	79.915	1,624.51	79.9971	1,624.51	79.4845	1,624.51	79.2936	1,624.51	78.1907	1,624.51	78.2184	1,624.51	76.2943	1,624.51	76.4173	1,624.51	74.2615	1,624.51	76.3452	1,624.51	73.0769	1,624.51	74.689	1,624.51	73.3357	1,624.51	72.731	1,624.51	71.1023	1,624.51	70.1261	1,624.51	69.8644	1,624.51	68.3869	1,624.51	69.57	1,624.51	66.8362	1,624.51	69.632	1,624.51	62.8474	1,624.51	70.1047	1,624.51	69.6138	1,624.51	69.4616	1,624.51	68.4957	1,624.51	66.9719	1,624.51	63.1234	1,624.51	65.4835	1,624.51	68.2676	1,624.51	71.1102
1,681.64	82.715	1,681.64	81.8936	1,681.64	82.9112	1,681.64	81.5029	1,681.64	82.266	1,681.64	81.1888	1,681.64	81.4863	1,681.64	79.512	1,681.64	80.7993	1,681.64	78.4936	1,681.64	79.7872	1,681.64	77.7514	1,681.64	78.1796	1,681.64	75.4924	1,681.64	76.1721	1,681.64	73.8176	1,681.64	75.2815	1,681.64	70.8056	1,681.64	75.1104	1,681.64	69.427	1,681.64	73.0835	1,681.64	67.9166	1,681.64	71.9443	1,681.64	66.3801	1,681.64	69.0894	1,681.64	64.5326	1,681.64	68.4538	1,681.64	69.8475	1,681.64	66.8882	1,681.64	69.3892	1,681.64	69.4491	1,681.64	58.3698	1,681.64	64.4785	1,681.64	66.5354	1,681.64	66.2986	1,681.64	69.0267
1,741.7	83.8061	1,741.7	83.837	1,741.7	83.2844	1,741.7	83.239	1,741.7	82.7338	1,741.7	82.1086	1,741.7	82.1182	1,741.7	81.5757	1,741.7	80.5379	1,741.7	79.0966	1,741.7	80.1326	1,741.7	78.8471	1,741.7	78.3701	1,741.7	78.0409	1,741.7	76.84	1,741.7	75.5443	1,741.7	76.7721	1,741.7	74.5408	1,741.7	75.7489	1,741.7	73.9841	1,741.7	74.4445	1,741.7	70.0839	1,741.7	71.3513	1,741.7	66.4372	1,741.7	67.1791	1,741.7	67.3614	1,741.7	69.3629	1,741.7	68.6389	1,741.7	70.7894	1,741.7	70.1135	1,741.7	70.6657	1,741.7	59.9715	1,741.7	65.7596	1,741.7	68.0257	1,741.7	66.1481	1,741.7	68.973
1,803.22	83.5715	1,803.22	83.8801	1,803.22	83.2424	1,803.22	83.2854	1,803.22	82.1661	1,803.22	82.484	1,803.22	82.3264	1,803.22	81.5582	1,803.22	80.989	1,803.22	80.1231	1,803.22	79.2625	1,803.22	79.4255	1,803.22	77.8546	1,803.22	77.9473	1,803.22	77.0196	1,803.22	76.1904	1,803.22	74.7691	1,803.22	73.2966	1,803.22	73.7791	1,803.22	74.0131	1,803.22	71.6781	1,803.22	71.8344	1,803.22	68.6974	1,803.22	70.8309	1,803.22	72.1477	1,803.22	68.1661	1,803.22	68.8261	1,803.22	72.3407	1,803.22	70.873	1,803.22	71.9813	1,803.22	68.3165	1,803.22	68.8379	1,803.22	64.4941	1,803.22	67.1402	1,803.22	65.207	1,803.22	66.7012
1,866.21	82.7861	1,866.21	82.7454	1,866.21	83.194	1,866.21	81.8058	1,866.21	82.6467	1,866.21	81.7675	1,866.21	81.3575	1,866.21	80.5921	1,866.21	80.4045	1,866.21	79.6608	1,866.21	79.3136	1,866.21	79.2963	1,866.21	78.9746	1,866.21	78.0838	1,866.21	77.5873	1,866.21	76.3809	1,866.21	76.1479	1,866.21	74.6837	1,866.21	72.8752	1,866.21	75.4709	1,866.21	74.4387	1,866.21	74.4493	1,866.21	71.8566	1,866.21	71.5265	1,866.21	67.1084	1,866.21	69.2151	1,866.21	67.8171	1,866.21	70.8634	1,866.21	68.4458	1,866.21	69.1309	1,866.21	71.6795	1,866.21	61.2245	1,866.21	66.6466	1,866.21	64.9183	1,866.21	67.5531	1,866.21	65.5835
1,932.13	82.1176	1,932.13	81.6327	1,932.13	81.7317	1,932.13	81.1745	1,932.13	81.6725	1,932.13	80.9322	1,932.13	81.2812	1,932.13	80.6468	1,932.13	80.9652	1,932.13	79.9151	1,932.13	80.2639	1,932.13	78.2552	1,932.13	78.9848	1,932.13	76.7931	1,932.13	78.1118	1,932.13	75.0399	1,932.13	75.8007	1,932.13	73.7086	1,932.13	73.5081	1,932.13	72.2055	1,932.13	73.3257	1,932.13	71.4184	1,932.13	71.4854	1,932.13	70.5009	1,932.13	70.3322	1,932.13	68.972	1,932.13	69.7643	1,932.13	69.953	1,932.13	70.8616	1,932.13	72.2967	1,932.13	71.7997	1,932.13	64.3554	1,932.13	66.8255	1,932.13	68.3052	1,932.13	66.3034	1,932.13	68.3048
1,999.51	82.466	1,999.51	82.5495	1,999.51	82.4912	1,999.51	82.2203	1,999.51	82.3534	1,999.51	81.677	1,999.51	81.9287	1,999.51	81.2235	1,999.51	81.628	1,999.51	80.4729	1,999.51	81.322	1,999.51	79.4431	1,999.51	80.0609	1,999.51	77.6474	1,999.51	79.0895	1,999.51	76.0164	1,999.51	76.9682	1,999.51	73.8246	1,999.51	74.9317	1,999.51	72.2304	1,999.51	73.2304	1,999.51	70.509	1,999.51	72.6917	1,999.51	70.2396	1,999.51	68.6023	1,999.51	70.6113	1,999.51	71.263	1,999.51	69.6803	1,999.51	70.3699	1,999.51	70.0265	1,999.51	71.6281	1,999.51	66.5097	1,999.51	68.4533	1,999.51	67.094	1,999.51	67.3828	1,999.51	69.5218
2,069.82	82.6941	2,069.82	82.6864	2,069.82	82.643	2,069.82	82.5232	2,069.82	82.406	2,069.82	82.4173	2,069.82	82.1975	2,069.82	82.0346	2,069.82	81.7519	2,069.82	81.4798	2,069.82	81.0859	2,069.82	80.1167	2,069.82	80.0028	2,069.82	78.9411	2,069.82	78.5981	2,069.82	77.2696	2,069.82	77.4476	2,069.82	74.9325	2,069.82	74.2458	2,069.82	73.7288	2,069.82	73.2609	2,069.82	72.5941	2,069.82	71.7812	2,069.82	70.3466	2,069.82	70.0188	2,069.82	70.4763	2,069.82	70.4582	2,069.82	70.3712	2,069.82	70.2757	2,069.82	71.3077	2,069.82	71.8518	2,069.82	68.7584	2,069.82	66.9877	2,069.82	64.576	2,069.82	66.7993	2,069.82	70.5884
2,143.07	81.7687	2,143.07	81.7617	2,143.07	81.7894	2,143.07	82.128	2,143.07	81.9634	2,143.07	82.1552	2,143.07	81.7202	2,143.07	82.1504	2,143.07	81.2839	2,143.07	81.2889	2,143.07	80.5366	2,143.07	80.0517	2,143.07	79.4344	2,143.07	78.7964	2,143.07	77.7358	2,143.07	76.8534	2,143.07	76.0932	2,143.07	75.4675	2,143.07	74.7807	2,143.07	72.6982	2,143.07	73.0802	2,143.07	71.827	2,143.07	71.701	2,143.07	70.9849	2,143.07	68.9141	2,143.07	70.2414	2,143.07	68.6358	2,143.07	70.2823	2,143.07	67.1348	2,143.07	72.6868	2,143.07	71.6382	2,143.07	69.0936	2,143.07	67.5134	2,143.07	66.4604	2,143.07	62.8123	2,143.07	69.2643
2,219.24	80.7019	2,219.24	81.381	2,219.24	81.0883	2,219.24	81.6824	2,219.24	81.6497	2,219.24	81.8665	2,219.24	82.0742	2,219.24	81.1467	2,219.24	81.5881	2,219.24	80.5989	2,219.24	80.8899	2,219.24	79.8352	2,219.24	80.3508	2,219.24	78.1913	2,219.24	78.7865	2,219.24	76.8425	2,219.24	76.8087	2,219.24	74.9707	2,219.24	75.6322	2,219.24	72.5704	2,219.24	72.7505	2,219.24	71.5297	2,219.24	73.0063	2,219.24	71.2398	2,219.24	72.0462	2,219.24	70.2801	2,219.24	71.0208	2,219.24	68.8786	2,219.24	70.6014	2,219.24	69.8906	2,219.24	69.9102	2,219.24	67.4024	2,219.24	68.916	2,219.24	61.2496	2,219.24	65.955	2,219.24	65.6138
2,296.88	81.1678	2,296.88	81.4845	2,296.88	81.4702	2,296.88	82.2344	2,296.88	82.2521	2,296.88	82.5372	2,296.88	82.8419	2,296.88	82.3275	2,296.88	82.5947	2,296.88	81.0636	2,296.88	81.6045	2,296.88	79.7647	2,296.88	80.4042	2,296.88	78.199	2,296.88	79.1348	2,296.88	75.9619	2,296.88	77.2042	2,296.88	74.9125	2,296.88	74.468	2,296.88	71.8025	2,296.88	72.8595	2,296.88	70.869	2,296.88	71.0295	2,296.88	70.7743	2,296.88	70.7104	2,296.88	69.873	2,296.88	69.2561	2,296.88	68.4827	2,296.88	69.6158	2,296.88	70.3217	2,296.88	71.3132	2,296.88	68.9906	2,296.88	69.5873	2,296.88	62.1825	2,296.88	64.5131	2,296.88	68.0651
2,378.91	79.703	2,378.91	80.6568	2,378.91	80.4213	2,378.91	81.6267	2,378.91	81.2934	2,378.91	82.4677	2,378.91	81.8424	2,378.91	81.991	2,378.91	82.0464	2,378.91	81.3828	2,378.91	81.0249	2,378.91	80.7967	2,378.91	79.1742	2,378.91	78.8649	2,378.91	78.0293	2,378.91	77.1916	2,378.91	76.1253	2,378.91	75.2224	2,378.91	75.0982	2,378.91	72.798	2,378.91	71.3912	2,378.91	70.5073	2,378.91	71.1392	2,378.91	69.8908	2,378.91	71.3091	2,378.91	71.1622	2,378.91	68.5826	2,378.91	70.5118	2,378.91	68.211	2,378.91	71.8139	2,378.91	69.9182	2,378.91	70.1396	2,378.91	70.3169	2,378.91	67.0023	2,378.91	63.931	2,378.91	67.1147
2,462.4	80.1615	2,462.4	80.5837	2,462.4	80.2398	2,462.4	81.4907	2,462.4	81.3777	2,462.4	82.3022	2,462.4	82.0533	2,462.4	81.9778	2,462.4	82.4741	2,462.4	80.9066	2,462.4	81.6692	2,462.4	79.7226	2,462.4	79.9253	2,462.4	78.684	2,462.4	78.548	2,462.4	76.5412	2,462.4	75.9541	2,462.4	73.9852	2,462.4	74.7003	2,462.4	72.9463	2,462.4	72.3741	2,462.4	70.8473	2,462.4	70.6425	2,462.4	70.3238	2,462.4	69.7858	2,462.4	69.6198	2,462.4	70.2695	2,462.4	68.1493	2,462.4	68.2751	2,462.4	69.9623	2,462.4	69.2856	2,462.4	70.2975	2,462.4	70.1293	2,462.4	64.7627	2,462.4	64.9457	2,462.4	65.5124
2,548.83	80.707	2,548.83	80.7814	2,548.83	81.1452	2,548.83	81.9135	2,548.83	81.7382	2,548.83	82.3657	2,548.83	82.7268	2,548.83	82.6433	2,548.83	82.701	2,548.83	81.164	2,548.83	81.8185	2,548.83	78.1616	2,548.83	80.3263	2,548.83	77.3213	2,548.83	78.2529	2,548.83	74.5281	2,548.83	76.1127	2,548.83	73.8662	2,548.83	74.9518	2,548.83	70.6984	2,548.83	73.757	2,548.83	69.6923	2,548.83	71.3677	2,548.83	71.2424	2,548.83	71.1201	2,548.83	68.0681	2,548.83	70.5497	2,548.83	68.544	2,548.83	69.851	2,548.83	67.1159	2,548.83	68.4172	2,548.83	69.0526	2,548.83	68.4104	2,548.83	64.6203	2,548.83	62.5279	2,548.83	66.447
2,639.65	79.7828	2,639.65	79.738	2,639.65	80.2975	2,639.65	81.5602	2,639.65	80.8177	2,639.65	82.0791	2,639.65	81.9893	2,639.65	82.6057	2,639.65	81.5781	2,639.65	81.6701	2,639.65	81.0468	2,639.65	78.8785	2,639.65	79.2051	2,639.65	76.9335	2,639.65	76.8796	2,639.65	75.4231	2,639.65	75.2094	2,639.65	72.5889	2,639.65	73.1853	2,639.65	71.471	2,639.65	72.7479	2,639.65	69.6797	2,639.65	68.8229	2,639.65	71.4396	2,639.65	70.2476	2,639.65	70.0803	2,639.65	69.0969	2,639.65	70.4574	2,639.65	69.6958	2,639.65	68.1861	2,639.65	66.8867	2,639.65	68.6527	2,639.65	68.5633	2,639.65	55.1506	2,639.65	60.5913	2,639.65	63.0591
2,731.93	79.2134	2,731.93	80.6054	2,731.93	79.4271	2,731.93	81.1371	2,731.93	81.313	2,731.93	82.1184	2,731.93	81.9511	2,731.93	81.9786	2,731.93	82.113	2,731.93	81.6526	2,731.93	81.2593	2,731.93	79.8376	2,731.93	79.475	2,731.93	77.8631	2,731.93	77.6037	2,731.93	76.619	2,731.93	76.595	2,731.93	70.6388	2,731.93	72.8799	2,731.93	72.2076	2,731.93	70.541	2,731.93	68.9706	2,731.93	68.8418	2,731.93	70.2191	2,731.93	71.4169	2,731.93	69.8317	2,731.93	68.7199	2,731.93	71.6611	2,731.93	71.6495	2,731.93	67.5592	2,731.93	66.1806	2,731.93	68.2078	2,731.93	70.4959	2,731.93	61.3426	2,731.93	64.3869	2,731.93	64.077
2,828.61	81.0486	2,828.61	81.4699	2,828.61	80.91	2,828.61	82.0754	2,828.61	82.171	2,828.61	82.7544	2,828.61	82.6531	2,828.61	81.9108	2,828.61	82.6539	2,828.61	80.7027	2,828.61	81.1325	2,828.61	80.0761	2,828.61	79.8293	2,828.61	77.5055	2,828.61	77.9541	2,828.61	75.1938	2,828.61	75.9807	2,828.61	72.2679	2,828.61	72.3524	2,828.61	70.9097	2,828.61	70.993	2,828.61	67.905	2,828.61	68.0789	2,828.61	68.834	2,828.61	70.4419	2,828.61	67.0885	2,828.61	67.7485	2,828.61	72.5176	2,828.61	73.0825	2,828.61	67.4519	2,828.61	67.3917	2,828.61	68.4591	2,828.61	70.0653	2,828.61	59.1363	2,828.61	64.4415	2,828.61	66.5988
2,928.22	80.4489	2,928.22	80.7551	2,928.22	80.3783	2,928.22	81.4847	2,928.22	81.2188	2,928.22	82.0859	2,928.22	81.4648	2,928.22	81.2878	2,928.22	81.355	2,928.22	79.8791	2,928.22	80.564	2,928.22	79.0279	2,928.22	78.6502	2,928.22	77.2669	2,928.22	75.8078	2,928.22	74.499	2,928.22	75.1073	2,928.22	73.6951	2,928.22	73.5688	2,928.22	70.5862	2,928.22	70.1267	2,928.22	68.1274	2,928.22	67.8823	2,928.22	69.4168	2,928.22	68.9082	2,928.22	65.4517	2,928.22	65.7035	2,928.22	70.5252	2,928.22	70.5629	2,928.22	67.7528	2,928.22	68.0663	2,928.22	68.9402	2,928.22	69.3418	2,928.22	64.2034	2,928.22	58.1209	2,928.22	62.1243
3,030.76	79.474	3,030.76	79.786	3,030.76	80.5595	3,030.76	81.3792	3,030.76	80.8237	3,030.76	81.836	3,030.76	82.0186	3,030.76	81.5584	3,030.76	81.4151	3,030.76	79.8346	3,030.76	80.4912	3,030.76	78.2638	3,030.76	79.1947	3,030.76	75.2512	3,030.76	77.619	3,030.76	73.3831	3,030.76	74.7873	3,030.76	72.9324	3,030.76	72.4058	3,030.76	70.0395	3,030.76	71.1483	3,030.76	67.0562	3,030.76	69.1592	3,030.76	68.8181	3,030.76	67.2089	3,030.76	63.6591	3,030.76	66.6572	3,030.76	68.9169	3,030.76	69.226	3,030.76	69.7575	3,030.76	70.0427	3,030.76	70.6641	3,030.76	69.8117	3,030.76	62.1124	3,030.76	63.804	3,030.76	66.0245
3,137.7	78.9334	3,137.7	79.7775	3,137.7	79.5967	3,137.7	81.0568	3,137.7	80.8543	3,137.7	81.693	3,137.7	81.5594	3,137.7	81.7888	3,137.7	81.6227	3,137.7	81.0812	3,137.7	80.4915	3,137.7	78.5637	3,137.7	78.9774	3,137.7	76.4899	3,137.7	77.7426	3,137.7	74.3081	3,137.7	75.248	3,137.7	72.9661	3,137.7	73.2427	3,137.7	71.4545	3,137.7	71.634	3,137.7	68.3706	3,137.7	67.8512	3,137.7	67.9272	3,137.7	69.0124	3,137.7	68.6394	3,137.7	67.1393	3,137.7	69.0576	3,137.7	68.3065	3,137.7	68.3992	3,137.7	69.1847	3,137.7	70.0308	3,137.7	70.0613	3,137.7	60.8385	3,137.7	63.5798	3,137.7	65.7109
3,249.02	79.0478	3,249.02	79.646	3,249.02	79.8031	3,249.02	79.8289	3,249.02	80.6084	3,249.02	80.6237	3,249.02	81.2609	3,249.02	80.4696	3,249.02	81.3627	3,249.02	80.5818	3,249.02	80.5591	3,249.02	79.0083	3,249.02	78.6449	3,249.02	77.2437	3,249.02	77.18	3,249.02	76.1758	3,249.02	75.7642	3,249.02	73.0233	3,249.02	73.0652	3,249.02	71.1175	3,249.02	71.0298	3,249.02	68.3784	3,249.02	69.2074	3,249.02	68.4284	3,249.02	66.5502	3,249.02	67.7386	3,249.02	63.8194	3,249.02	67.4657	3,249.02	68.6276	3,249.02	69.5039	3,249.02	69.7731	3,249.02	68.6078	3,249.02	69.5912	3,249.02	58.407	3,249.02	62.3101	3,249.02	65.9606
3,363.28	80.6233	3,363.28	80.329	3,363.28	79.8188	3,363.28	80.5347	3,363.28	80.7555	3,363.28	80.9986	3,363.28	81.1282	3,363.28	81.3519	3,363.28	80.9081	3,363.28	79.9074	3,363.28	80.231	3,363.28	79.1383	3,363.28	79.703	3,363.28	78.29	3,363.28	77.609	3,363.28	75.9196	3,363.28	75.74	3,363.28	73.3037	3,363.28	74.3623	3,363.28	70.2568	3,363.28	71.5977	3,363.28	68.999	3,363.28	68.9149	3,363.28	68.7665	3,363.28	68.5971	3,363.28	67.2748	3,363.28	66.2938	3,363.28	69.0286	3,363.28	66.822	3,363.28	68.1716	3,363.28	68.022	3,363.28	70.1382	3,363.28	69.247	3,363.28	65.4218	3,363.28	63.1821	3,363.28	66.4517
3,481.93	80.9831	3,481.93	80.2174	3,481.93	80.5957	3,481.93	80.0462	3,481.93	80.1142	3,481.93	80.787	3,481.93	80.5679	3,481.93	80.5781	3,481.93	80.5688	3,481.93	79.6721	3,481.93	80.7768	3,481.93	79.2983	3,481.93	79.9322	3,481.93	78.213	3,481.93	77.7102	3,481.93	76.2538	3,481.93	76.2334	3,481.93	73.7519	3,481.93	73.5109	3,481.93	71.3165	3,481.93	71.2687	3,481.93	69.8227	3,481.93	69.4792	3,481.93	67.1935	3,481.93	68.7405	3,481.93	67.6702	3,481.93	66.9041	3,481.93	66.9148	3,481.93	67.0646	3,481.93	68.3311	3,481.93	69.1855	3,481.93	71.0049	3,481.93	69.3499	3,481.93	63.1885	3,481.93	65.1664	3,481.93	66.2173
3,604.98	81.3911	3,604.98	80.2325	3,604.98	81.2631	3,604.98	79.7762	3,604.98	79.3775	3,604.98	80.1813	3,604.98	79.6933	3,604.98	80.4015	3,604.98	80.2066	3,604.98	80.0366	3,604.98	80.5781	3,604.98	79.2353	3,604.98	79.7124	3,604.98	77.9774	3,604.98	78.2797	3,604.98	75.8207	3,604.98	76.156	3,604.98	73.5677	3,604.98	74.1285	3,604.98	71.638	3,604.98	71.427	3,604.98	70.0269	3,604.98	69.5496	3,604.98	67.4896	3,604.98	66.9084	3,604.98	64.7394	3,604.98	65.3229	3,604.98	66.8727	3,604.98	66.4115	3,604.98	70.1055	3,604.98	69.7257	3,604.98	69.2878	3,604.98	68.6417	3,604.98	61.2707	3,604.98	66.3143	3,604.98	64.0066
3,732.42	81.8338	3,732.42	81.0918	3,732.42	81.0135	3,732.42	79.3319	3,732.42	79.9901	3,732.42	79.4459	3,732.42	79.9794	3,732.42	80.2709	3,732.42	81.0045	3,732.42	81.2662	3,732.42	81.3224	3,732.42	80.0645	3,732.42	80.1425	3,732.42	78.776	3,732.42	78.564	3,732.42	76.2765	3,732.42	76.5059	3,732.42	73.5177	3,732.42	73.8401	3,732.42	72.3583	3,732.42	71.9409	3,732.42	69.0773	3,732.42	69.0945	3,732.42	68.3101	3,732.42	67.6511	3,732.42	64.6438	3,732.42	68.9458	3,732.42	66.6027	3,732.42	66.4239	3,732.42	70.9052	3,732.42	69.7505	3,732.42	68.1285	3,732.42	68.5813	3,732.42	64.6507	3,732.42	65.1049	3,732.42	62.8198
3,864.26	81.8553	3,864.26	81.3029	3,864.26	80.425	3,864.26	79.3232	3,864.26	79.7823	3,864.26	78.9379	3,864.26	79.5527	3,864.26	80.4501	3,864.26	80.6355	3,864.26	81.3736	3,864.26	80.7961	3,864.26	80.2078	3,864.26	79.8608	3,864.26	78.3541	3,864.26	79.2046	3,864.26	75.2348	3,864.26	76.1538	3,864.26	73.9064	3,864.26	73.2919	3,864.26	71.1376	3,864.26	71.2961	3,864.26	68.754	3,864.26	68.9285	3,864.26	68.3887	3,864.26	69.5067	3,864.26	66.9419	3,864.26	66.8262	3,864.26	64.6984	3,864.26	64.1931	3,864.26	69.9116	3,864.26	70.324	3,864.26	66.5353	3,864.26	67.2613	3,864.26	64.6149	3,864.26	66.4322	3,864.26	58.5102
4,000.49	82.3917	4,000.49	81.5203	4,000.49	81.4558	4,000.49	79.5062	4,000.49	78.849	4,000.49	79.7544	4,000.49	78.9694	4,000.49	81.8203	4,000.49	79.8623	4,000.49	80.8628	4,000.49	79.8352	4,000.49	79.9825	4,000.49	79.9706	4,000.49	77.19	4,000.49	77.7551	4,000.49	74.8329	4,000.49	75.2831	4,000.49	72.5777	4,000.49	73.312	4,000.49	68.7207	4,000.49	70.5548	4,000.49	67.1839	4,000.49	68.5237	4,000.49	66.7069	4,000.49	66.6271	4,000.49	64.8678	4,000.49	55.7146	4,000.49	66.4335	4,000.49	65.7025	4,000.49	68.9005	4,000.49	69.3249	4,000.49	66.4806	4,000.49	64.7253	4,000.49	65.7289	4,000.49	65.5191	4,000.49	63.1839
4,141.11	82.258	4,141.11	80.2403	4,141.11	81.9999	4,141.11	79.3352	4,141.11	79.424	4,141.11	79.0135	4,141.11	78.9478	4,141.11	79.3269	4,141.11	79.9664	4,141.11	79.4439	4,141.11	80.2644	4,141.11	79.0097	4,141.11	79.5893	4,141.11	76.8891	4,141.11	77.2554	4,141.11	74.9244	4,141.11	74.4992	4,141.11	72.111	4,141.11	72.0862	4,141.11	71.0655	4,141.11	69.6542	4,141.11	66.5077	4,141.11	66.9198	4,141.11	65.9987	4,141.11	66.1055	4,141.11	62.7126	4,141.11	65.16	4,141.11	66.5258	4,141.11	67.6461	4,141.11	67.9651	4,141.11	64.8938	4,141.11	66.3273	4,141.11	65.8312	4,141.11	64.9457	4,141.11	64.2186	4,141.11	63.9404
4,287.6	81.8129	4,287.6	81.325	4,287.6	80.01	4,287.6	78.7035	4,287.6	79.0573	4,287.6	78.3016	4,287.6	78.1287	4,287.6	79.1645	4,287.6	80.0894	4,287.6	79.2738	4,287.6	80.2822	4,287.6	78.7103	4,287.6	78.0207	4,287.6	76.7677	4,287.6	75.2368	4,287.6	74.0772	4,287.6	73.5214	4,287.6	70.3008	4,287.6	71.1085	4,287.6	66.3992	4,287.6	69.0862	4,287.6	64.4019	4,287.6	66.6503	4,287.6	62.5905	4,287.6	65.0954	4,287.6	64.7046	4,287.6	63.6929	4,287.6	61.983	4,287.6	62.8208	4,287.6	64.7574	4,287.6	66.2557	4,287.6	66.4195	4,287.6	66.3872	4,287.6	61.4158	4,287.6	62.9893	4,287.6	61.7828
4,438.48	82.3129	4,438.48	81.6915	4,438.48	81.7009	4,438.48	79.1925	4,438.48	79.6862	4,438.48	79.1422	4,438.48	80.0056	4,438.48	80.8029	4,438.48	79.2279	4,438.48	79.9688	4,438.48	79.0079	4,438.48	76.8482	4,438.48	77.9235	4,438.48	75.0813	4,438.48	75.7802	4,438.48	71.0861	4,438.48	74.7479	4,438.48	69.1448	4,438.48	70.572	4,438.48	68.3517	4,438.48	68.5233	4,438.48	66.6566	4,438.48	65.7648	4,438.48	60.5396	4,438.48	62.7456	4,438.48	64.4755	4,438.48	61.9846	4,438.48	61.6601	4,438.48	61.8789	4,438.48	66.4161	4,438.48	67.2404	4,438.48	67.25	4,438.48	66.5365	4,438.48	61.5953	4,438.48	63.6282	4,438.48	59.0367
4,595.21	82.6891	4,595.21	81.0961	4,595.21	81.6012	4,595.21	80.8453	4,595.21	79.2484	4,595.21	79.9432	4,595.21	78.4562	4,595.21	80.3639	4,595.21	78.7642	4,595.21	80.5597	4,595.21	78.4412	4,595.21	78.9682	4,595.21	77.5327	4,595.21	76.2076	4,595.21	75.8497	4,595.21	74.4892	4,595.21	73.7388	4,595.21	71.4051	4,595.21	71.7689	4,595.21	69.4537	4,595.21	68.1695	4,595.21	65.1638	4,595.21	66.333	4,595.21	61.4549	4,595.21	63.3427	4,595.21	64.4478	4,595.21	64.2448	4,595.21	64.4623	4,595.21	63.1823	4,595.21	66.1119	4,595.21	64.0401	4,595.21	66.0944	4,595.21	64.8804	4,595.21	62.012	4,595.21	64.0417	4,595.21	59.4354
4,756.35	82.4471	4,756.35	81.823	4,756.35	81.8814	4,756.35	79.1145	4,756.35	81.2871	4,756.35	79.5895	4,756.35	80.0544	4,756.35	79.1662	4,756.35	81.2329	4,756.35	78.8212	4,756.35	81.5606	4,756.35	78.236	4,756.35	79.4393	4,756.35	76.2613	4,756.35	77.2735	4,756.35	74.1524	4,756.35	75.3826	4,756.35	70.8179	4,756.35	71.5634	4,756.35	68.3156	4,756.35	68.6487	4,756.35	67.6079	4,756.35	67.6136	4,756.35	64.5559	4,756.35	64.0911	4,756.35	63.0354	4,756.35	62.8298	4,756.35	61.9282	4,756.35	62.2003	4,756.35	61.9087	4,756.35	63.7752	4,756.35	63.8901	4,756.35	66.2655	4,756.35	62.1193	4,756.35	64.1804	4,756.35	55.8501
4,924.8	81.98	4,924.8	81.0736	4,924.8	82.1762	4,924.8	81.7292	4,924.8	80.9862	4,924.8	80.0791	4,924.8	81.8012	4,924.8	81.2717	4,924.8	81.1188	4,924.8	81.1146	4,924.8	80.5867	4,924.8	80.4252	4,924.8	79.7771	4,924.8	78.447	4,924.8	78.0514	4,924.8	76.2336	4,924.8	74.7996	4,924.8	75.3531	4,924.8	73.1275	4,924.8	70.2023	4,924.8	70.5816	4,924.8	68.872	4,924.8	68.1782	4,924.8	65.0743	4,924.8	67.0169	4,924.8	63.719	4,924.8	63.5404	4,924.8	64.074	4,924.8	64.1157	4,924.8	67.6557	4,924.8	65.0675	4,924.8	66.9416	4,924.8	68.2213	4,924.8	60.2851	4,924.8	66.4581	4,924.8	58.1826
5,097.66	82.3481	5,097.66	82.6982	5,097.66	82.4383	5,097.66	82.2829	5,097.66	82.9068	5,097.66	81.2291	5,097.66	81.0214	5,097.66	81.0209	5,097.66	81.5381	5,097.66	80.642	5,097.66	81.6154	5,097.66	79.075	5,097.66	80.5471	5,097.66	77.2287	5,097.66	78.8311	5,097.66	75.0456	5,097.66	76.5178	5,097.66	72.0969	5,097.66	72.9215	5,097.66	71.0959	5,097.66	71.0684	5,097.66	66.0689	5,097.66	67.6723	5,097.66	61.9944	5,097.66	65.2329	5,097.66	64.2736	5,097.66	61.8838	5,097.66	65.1056	5,097.66	64.1127	5,097.66	63.8886	5,097.66	65.2774	5,097.66	64.9021	5,097.66	66.8035	5,097.66	62.7101	5,097.66	66.864	5,097.66	60.5012
5,277.83	81.6381	5,277.83	82.3765	5,277.83	82.8134	5,277.83	81.6239	5,277.83	82.6781	5,277.83	79.4257	5,277.83	81.2539	5,277.83	78.6959	5,277.83	80.4322	5,277.83	79.7041	5,277.83	81.1164	5,277.83	79.2136	5,277.83	80.3746	5,277.83	78.2104	5,277.83	78.8648	5,277.83	75.9797	5,277.83	76.3087	5,277.83	72.2256	5,277.83	72.3448	5,277.83	69.8941	5,277.83	70.3404	5,277.83	66.487	5,277.83	67.7348	5,277.83	64.7643	5,277.83	66.4078	5,277.83	57.9906	5,277.83	65.6082	5,277.83	65.405	5,277.83	65.8865	5,277.83	63.9815	5,277.83	65.4935	5,277.83	65.9183	5,277.83	67.5079	5,277.83	59.6511	5,277.83	65.6635	5,277.83	61.515
5,463.87	81.9803	5,463.87	82.7273	5,463.87	82.7297	5,463.87	83.0395	5,463.87	82.4048	5,463.87	81.0461	5,463.87	80.3362	5,463.87	80.4926	5,463.87	78.6667	5,463.87	80.093	5,463.87	78.882	5,463.87	79.2008	5,463.87	79.413	5,463.87	77.2781	5,463.87	77.5784	5,463.87	73.666	5,463.87	74.2227	5,463.87	71.2343	5,463.87	72.9863	5,463.87	66.6886	5,463.87	69.2946	5,463.87	63.2393	5,463.87	66.8126	5,463.87	63.4422	5,463.87	65.1593	5,463.87	55.7764	5,463.87	66.5341	5,463.87	62.0573	5,463.87	64.2607	5,463.87	64.0197	5,463.87	64.6439	5,463.87	64.6716	5,463.87	66.4515	5,463.87	61.6264	5,463.87	63.7435	5,463.87	58.8637
5,657.23	81.4545	5,657.23	82.3086	5,657.23	81.7439	5,657.23	82.0479	5,657.23	81.8027	5,657.23	79.7955	5,657.23	78.7367	5,657.23	78.3451	5,657.23	78.6738	5,657.23	78.9064	5,657.23	79.0293	5,657.23	77.5894	5,657.23	77.5536	5,657.23	74.0546	5,657.23	74.728	5,657.23	71.8515	5,657.23	74.6475	5,657.23	67.379	5,657.23	71.0483	5,657.23	68.1385	5,657.23	67.9058	5,657.23	61.9547	5,657.23	64.6372	5,657.23	63.5937	5,657.23	65.3601	5,657.23	61.9973	5,657.23	59.0793	5,657.23	59.9693	5,657.23	62.0179	5,657.23	61.3468	5,657.23	62.279	5,657.23	65.3102	5,657.23	65.4007	5,657.23	59.7638	5,657.23	62.6981	5,657.23	54.992
5,856.45	81.1181	5,856.45	82.1511	5,856.45	82.2763	5,856.45	81.8155	5,856.45	81.5486	5,856.45	77.9661	5,856.45	80.056	5,856.45	77.3791	5,856.45	78.2955	5,856.45	78.4064	5,856.45	78.5217	5,856.45	78.0133	5,856.45	78.2421	5,856.45	76.9971	5,856.45	76.9763	5,856.45	72.8532	5,856.45	73.9795	5,856.45	71.4065	5,856.45	70.3048	5,856.45	67.9069	5,856.45	68.6181	5,856.45	65.6145	5,856.45	65.06	5,856.45	64.7999	5,856.45	62.7709	5,856.45	61.4123	5,856.45	61.4194	5,856.45	64.2455	5,856.45	61.0295	5,856.45	65.1353	5,856.45	63.8771	5,856.45	66.5178	5,856.45	64.6079	5,856.45	59.2537	5,856.45	62.8777	5,856.45	52.2239
6,062.99	80.7307	6,062.99	81.3419	6,062.99	80.8136	6,062.99	81.1177	6,062.99	81.51	6,062.99	78.5526	6,062.99	78.7311	6,062.99	77.8146	6,062.99	78.3085	6,062.99	77.9884	6,062.99	79.165	6,062.99	77.2372	6,062.99	76.9805	6,062.99	74.2326	6,062.99	74.2791	6,062.99	72.7892	6,062.99	72.7746	6,062.99	69.7317	6,062.99	70.2682	6,062.99	67.7278	6,062.99	67.0537	6,062.99	61.9906	6,062.99	62.6228	6,062.99	61.2818	6,062.99	63.7653	6,062.99	62.3546	6,062.99	46.9513	6,062.99	58.7721	6,062.99	58.3911	6,062.99	61.4714	6,062.99	60.1011	6,062.99	65.6308	6,062.99	63.2357	6,062.99	58.6943	6,062.99	61.1349	6,062.99	56.4977
6,276.86	80.7833	6,276.86	81.0792	6,276.86	81.6835	6,276.86	80.9023	6,276.86	80.9461	6,276.86	79.0959	6,276.86	79.4303	6,276.86	77.2863	6,276.86	76.8764	6,276.86	77.5528	6,276.86	77.8569	6,276.86	75.8616	6,276.86	77.3621	6,276.86	73.8454	6,276.86	76.2878	6,276.86	71.8205	6,276.86	73.1052	6,276.86	68.9111	6,276.86	69.4293	6,276.86	66.8275	6,276.86	67.4238	6,276.86	62.695	6,276.86	64.4386	6,276.86	59.8818	6,276.86	58.7424	6,276.86	57.3023	6,276.86	54.5712	6,276.86	60.6001	6,276.86	58.6801	6,276.86	62.1763	6,276.86	62.0762	6,276.86	63.6862	6,276.86	62.6903	6,276.86	57.0817	6,276.86	56.2812	6,276.86	55.5115
6,498.05	82.4054	6,498.05	81.8282	6,498.05	81.971	6,498.05	81.489	6,498.05	81.7691	6,498.05	80.096	6,498.05	80.1616	6,498.05	78.0251	6,498.05	78.9261	6,498.05	77.1258	6,498.05	78.0079	6,498.05	76.5827	6,498.05	77.5629	6,498.05	75.1333	6,498.05	75.039	6,498.05	72.4623	6,498.05	73.0768	6,498.05	68.7541	6,498.05	70.5014	6,498.05	64.8021	6,498.05	68.3418	6,498.05	63.6298	6,498.05	65.1461	6,498.05	56.6851	6,498.05	62.711	6,498.05	52.4991	6,498.05	55.5446	6,498.05	58.7513	6,498.05	60.9445	6,498.05	60.3099	6,498.05	60.0168	6,498.05	61.8511	6,498.05	62.1533	6,498.05	57.058	6,498.05	53.7874	6,498.05	57.3739
6,726.56	82.5725	6,726.56	81.6715	6,726.56	82.1602	6,726.56	81.0007	6,726.56	81.3643	6,726.56	80.1574	6,726.56	80.8548	6,726.56	78.2051	6,726.56	78.3298	6,726.56	77.0336	6,726.56	78.1191	6,726.56	76.5813	6,726.56	77.3392	6,726.56	73.9467	6,726.56	75.3303	6,726.56	71.5696	6,726.56	73.2464	6,726.56	68.3108	6,726.56	69.9164	6,726.56	66.5864	6,726.56	66.7455	6,726.56	62.6376	6,726.56	63.3395	6,726.56	56.1953	6,726.56	64.285	6,726.56	52.9567	6,726.56	58.7139	6,726.56	56.1502	6,726.56	59.2389	6,726.56	58.7583	6,726.56	57.5753	6,726.56	61.2416	6,726.56	61.2469	6,726.56	56.1389	6,726.56	55.2797	6,726.56	59.6952
6,963.87	82.3966	6,963.87	81.1233	6,963.87	81.3862	6,963.87	81.0132	6,963.87	81.298	6,963.87	79.9819	6,963.87	80.7193	6,963.87	78.1557	6,963.87	78.388	6,963.87	77.4904	6,963.87	77.1962	6,963.87	76.3078	6,963.87	77.0095	6,963.87	73.8764	6,963.87	75.2395	6,963.87	71.2329	6,963.87	72.5278	6,963.87	67.2378	6,963.87	68.8614	6,963.87	64.7609	6,963.87	66.0484	6,963.87	60.9971	6,963.87	64.0342	6,963.87	58.3731	6,963.87	61.661	6,963.87	46.7141	6,963.87	55.1123	6,963.87	55.2339	6,963.87	54.97	6,963.87	58.7515	6,963.87	58.225	6,963.87	60.2846	6,963.87	62.6037	6,963.87	53.7865	6,963.87	55.7794	6,963.87	55.8591
7,209.96	81.8954	7,209.96	80.4642	7,209.96	80.8427	7,209.96	80.794	7,209.96	80.7462	7,209.96	79.6995	7,209.96	80.269	7,209.96	77.7656	7,209.96	77.6524	7,209.96	76.8071	7,209.96	77.6465	7,209.96	76.6789	7,209.96	76.6965	7,209.96	74.2245	7,209.96	75.6872	7,209.96	70.7665	7,209.96	72.1548	7,209.96	67.7059	7,209.96	68.0113	7,209.96	63.0449	7,209.96	65.4171	7,209.96	62.1253	7,209.96	61.88	7,209.96	60.1861	7,209.96	59.4107	7,209.96	50.837	7,209.96	57.8146	7,209.96	53.9957	7,209.96	54.3756	7,209.96	58.78	7,209.96	57.1756	7,209.96	60.7598	7,209.96	61.1076	7,209.96	52.3156	7,209.96	56.2977	7,209.96	53.7003
7,464.84	81.3677	7,464.84	79.9827	7,464.84	80.3635	7,464.84	80.3978	7,464.84	80.0678	7,464.84	79.2475	7,464.84	79.8594	7,464.84	77.0496	7,464.84	77.8346	7,464.84	76.8365	7,464.84	76.7177	7,464.84	75.189	7,464.84	76.5183	7,464.84	73.3282	7,464.84	74.6374	7,464.84	69.4417	7,464.84	70.9391	7,464.84	65.6374	7,464.84	67.373	7,464.84	62.4637	7,464.84	64.2126	7,464.84	59.1447	7,464.84	62.5631	7,464.84	60.1732	7,464.84	59.2237	7,464.84	53.6208	7,464.84	51.7723	7,464.84	48.0341	7,464.84	47.5879	7,464.84	59.6537	7,464.84	55.841	7,464.84	60.474	7,464.84	61.8746	7,464.84	48.3048	7,464.84	54.383	7,464.84	49.7033
7,727.05	80.5894	7,727.05	79.3766	7,727.05	79.8003	7,727.05	79.6828	7,727.05	79.45	7,727.05	78.4858	7,727.05	79.2599	7,727.05	76.5208	7,727.05	77.1563	7,727.05	75.6803	7,727.05	76.6815	7,727.05	74.332	7,727.05	75.5515	7,727.05	71.0882	7,727.05	73.028	7,727.05	68.4457	7,727.05	70.1781	7,727.05	65.2833	7,727.05	67.0492	7,727.05	62.4127	7,727.05	63.995	7,727.05	59.8076	7,727.05	60.4713	7,727.05	57.6218	7,727.05	58.0397	7,727.05	55.5358	7,727.05	57.136	7,727.05	42.5116	7,727.05	48.9508	7,727.05	56.1443	7,727.05	53.5252	7,727.05	60.9614	7,727.05	60.0427	7,727.05	47.8861	7,727.05	54.0133	7,727.05	49.7098
7,999.51	80.1365	7,999.51	79.5215	7,999.51	79.6624	7,999.51	79.1703	7,999.51	79.2904	7,999.51	78.208	7,999.51	78.704	7,999.51	76.2233	7,999.51	76.9232	7,999.51	75.28	7,999.51	75.7607	7,999.51	73.5786	7,999.51	74.6149	7,999.51	70.9508	7,999.51	71.305	7,999.51	68.7864	7,999.51	70.0252	7,999.51	65.0241	7,999.51	65.832	7,999.51	63.1527	7,999.51	63.6	7,999.51	59.1327	7,999.51	60.8287	7,999.51	56.2527	7,999.51	58.248	7,999.51	56.0208	7,999.51	54.1838	7,999.51	50.7703	7,999.51	44.0467	7,999.51	53.1474	7,999.51	53.1462	7,999.51	59.9845	7,999.51	60.1566	7,999.51	50.8638	7,999.51	50.3442	7,999.51	52.5147
8,282.23	80.3876	8,282.23	79.9065	8,282.23	80.2922	8,282.23	79.0714	8,282.23	79.2271	8,282.23	77.9918	8,282.23	78.3339	8,282.23	76.1764	8,282.23	76.7158	8,282.23	74.6374	8,282.23	75.123	8,282.23	73.4697	8,282.23	74.0856	8,282.23	71.3999	8,282.23	72.5238	8,282.23	68.4102	8,282.23	69.383	8,282.23	65.5723	8,282.23	65.7423	8,282.23	62.0005	8,282.23	63.1273	8,282.23	59.8199	8,282.23	60.8912	8,282.23	53.2537	8,282.23	55.0689	8,282.23	52.7413	8,282.23	57.7407	8,282.23	51.7983	8,282.23	51.1272	8,282.23	51.9315	8,282.23	54.4866	8,282.23	59.3208	8,282.23	60.0049	8,282.23	49.8368	8,282.23	50.9404	8,282.23	51.4707
8,573.73	80.3179	8,573.73	80.1885	8,573.73	80.503	8,573.73	79.0424	8,573.73	79.062	8,573.73	78.0351	8,573.73	78.4505	8,573.73	75.9472	8,573.73	76.6815	8,573.73	74.3693	8,573.73	74.9356	8,573.73	73.3867	8,573.73	74.0789	8,573.73	72.1211	8,573.73	72.6445	8,573.73	68.3459	8,573.73	69.2453	8,573.73	65.7197	8,573.73	65.8409	8,573.73	61.7792	8,573.73	63.0078	8,573.73	59.5034	8,573.73	60.1729	8,573.73	56.8178	8,573.73	56.1085	8,573.73	53.4008	8,573.73	56.1246	8,573.73	50.2998	8,573.73	50.9004	8,573.73	54.4592	8,573.73	54.0954	8,573.73	58.9871	8,573.73	58.996	8,573.73	49.2281	8,573.73	51.4146	8,573.73	52.552
8,876.95	80.2678	8,876.95	80.2317	8,876.95	80.4305	8,876.95	78.6791	8,876.95	78.8885	8,876.95	78.0282	8,876.95	78.5015	8,876.95	75.3894	8,876.95	76.2383	8,876.95	74.0733	8,876.95	74.6012	8,876.95	72.8693	8,876.95	74.3495	8,876.95	70.685	8,876.95	72.469	8,876.95	67.618	8,876.95	69.3215	8,876.95	64.3796	8,876.95	65.9271	8,876.95	60.9926	8,876.95	62.9663	8,876.95	57.8943	8,876.95	59.5923	8,876.95	56.0767	8,876.95	56.271	8,876.95	56.2416	8,876.95	59.7143	8,876.95	49.78	8,876.95	50.6858	8,876.95	53.997	8,876.95	53.4927	8,876.95	58.1142	8,876.95	58.7503	8,876.95	48.2644	8,876.95	52.0505	8,876.95	51.5287
9,188.96	80.1064	9,188.96	80.0023	9,188.96	80.4636	9,188.96	78.3115	9,188.96	78.5127	9,188.96	77.1638	9,188.96	77.9538	9,188.96	74.1331	9,188.96	75.3959	9,188.96	73.6182	9,188.96	74.4721	9,188.96	72.5695	9,188.96	74.2666	9,188.96	70.1163	9,188.96	72.0132	9,188.96	67.8611	9,188.96	69.6708	9,188.96	63.386	9,188.96	65.5646	9,188.96	61.5426	9,188.96	62.7809	9,188.96	56.41	9,188.96	59.6897	9,188.96	54.1251	9,188.96	55.9967	9,188.96	58.115	9,188.96	59.7103	9,188.96	50.9663	9,188.96	52.0047	9,188.96	55.0748	9,188.96	51.7309	9,188.96	57.8748	9,188.96	56.9731	9,188.96	51.6498	9,188.96	51.6456	9,188.96	50.006
9,514.16	80.4126	9,514.16	79.9629	9,514.16	80.4709	9,514.16	77.8882	9,514.16	78.5118	9,514.16	76.3454	9,514.16	77.2719	9,514.16	73.941	9,514.16	74.834	9,514.16	73.0923	9,514.16	74.3648	9,514.16	72.6229	9,514.16	73.9146	9,514.16	71.2109	9,514.16	72.6111	9,514.16	67.4671	9,514.16	69.6329	9,514.16	65.7331	9,514.16	65.7986	9,514.16	62.0857	9,514.16	62.5756	9,514.16	60.2734	9,514.16	59.9954	9,514.16	56.4614	9,514.16	57.4606	9,514.16	56.8025	9,514.16	59.4442	9,514.16	53.0141	9,514.16	55.0418	9,514.16	50.5766	9,514.16	51.8121	9,514.16	57.9501	9,514.16	59.5009	9,514.16	52.9776	9,514.16	51.2113	9,514.16	49.0528
9,849.61	80.1876	9,849.61	79.7043	9,849.61	79.9471	9,849.61	77.8016	9,849.61	78.6403	9,849.61	75.7753	9,849.61	76.6927	9,849.61	74.257	9,849.61	74.9567	9,849.61	72.4902	9,849.61	73.4676	9,849.61	73.7448	9,849.61	74.067	9,849.61	72.9131	9,849.61	73.3578	9,849.61	68.7485	9,849.61	70.3748	9,849.61	66.514	9,849.61	66.7711	9,849.61	60.2982	9,849.61	63.0629	9,849.61	60.394	9,849.61	60.2309	9,849.61	55.5367	9,849.61	59.4476	9,849.61	55.7901	9,849.61	59.3545	9,849.61	54.1492	9,849.61	54.3928	9,849.61	53.2944	9,849.61	50.9715	9,849.61	58.1337	9,849.61	59.817	9,849.61	54.3255	9,849.61	51.3251	9,849.61	51.8039
10,196.8	79.6248	10,196.8	78.6355	10,196.8	79.2532	10,196.8	77.7334	10,196.8	78.3866	10,196.8	75.4019	10,196.8	76.4479	10,196.8	74.5282	10,196.8	75.6797	10,196.8	73.1149	10,196.8	73.6431	10,196.8	73.9294	10,196.8	74.9002	10,196.8	72.9824	10,196.8	73.8079	10,196.8	69.4533	10,196.8	71.2869	10,196.8	65.7399	10,196.8	66.9636	10,196.8	60.1101	10,196.8	63.1185	10,196.8	58.7994	10,196.8	61.2067	10,196.8	55.1503	10,196.8	59.8519	10,196.8	54.5953	10,196.8	56.9353	10,196.8	54.0126	10,196.8	55.5482	10,196.8	54.8884	10,196.8	52.0712	10,196.8	57.2753	10,196.8	59.8596	10,196.8	55.7136	10,196.8	51.8441	10,196.8	51.4069
10,555.7	79.9532	10,555.7	78.7029	10,555.7	79.4118	10,555.7	78.7144	10,555.7	79.0534	10,555.7	77.5057	10,555.7	77.9335	10,555.7	76.5222	10,555.7	77.1691	10,555.7	74.6311	10,555.7	74.8237	10,555.7	74.651	10,555.7	75.2018	10,555.7	72.1732	10,555.7	73.9744	10,555.7	69.5924	10,555.7	71.484	10,555.7	64.7673	10,555.7	66.5156	10,555.7	61.3054	10,555.7	62.5332	10,555.7	56.9819	10,555.7	60.194	10,555.7	54.5021	10,555.7	58.8862	10,555.7	52.4834	10,555.7	56.8784	10,555.7	53.0316	10,555.7	54.0108	10,555.7	55.4912	10,555.7	53.8293	10,555.7	55.3164	10,555.7	58.3641	10,555.7	53.5433	10,555.7	44.906	10,555.7	51.8499
10,927.7	81.5211	10,927.7	81.1117	10,927.7	81.1451	10,927.7	80.9504	10,927.7	81.0166	10,927.7	80.0631	10,927.7	79.9001	10,927.7	77.8476	10,927.7	78.3316	10,927.7	75.2032	10,927.7	74.9844	10,927.7	73.7335	10,927.7	74.2234	10,927.7	71.3295	10,927.7	72.5278	10,927.7	67.9377	10,927.7	70.0564	10,927.7	63.5127	10,927.7	64.0369	10,927.7	57.635	10,927.7	62.0387	10,927.7	55.6381	10,927.7	57.3402	10,927.7	54.1111	10,927.7	53.0248	10,927.7	53.2731	10,927.7	52.8474	10,927.7	49.4014	10,927.7	50.3937	10,927.7	51.5629	10,927.7	51.8293	10,927.7	52.3683	10,927.7	56.3837	10,927.7	50.3009	10,927.7	44.6278	10,927.7	48.0846
11,313	83.3093	11,313	82.9706	11,313	82.8473	11,313	82.3211	11,313	82.0873	11,313	80.4846	11,313	80.4662	11,313	77.9109	11,313	78.1417	11,313	74.7606	11,313	74.8891	11,313	71.8628	11,313	71.7808	11,313	68.5598	11,313	69.0238	11,313	64.2487	11,313	65.8615	11,313	55.9118	11,313	59.451	11,313	54.2888	11,313	56.3219	11,313	52.3308	11,313	52.8918	11,313	47.9493	11,313	50.6898	11,313	48.3244	11,313	45.6677	11,313	36.015	11,313	47.8235	11,313	46.1195	11,313	44.5861	11,313	49.5422	11,313	51.3248	11,313	40.2839	11,313	46.2092	11,313	45.0456
11,712.9	84.1158	11,712.9	83.6897	11,712.9	83.5949	11,712.9	82.6905	11,712.9	82.3289	11,712.9	80.4449	11,712.9	80.4	11,712.9	77.5084	11,712.9	77.338	11,712.9	73.6964	11,712.9	73.7719	11,712.9	69.6146	11,712.9	69.0271	11,712.9	64.9541	11,712.9	64.0886	11,712.9	59.6174	11,712.9	58.2617	11,712.9	52.7575	11,712.9	47.4703	11,712.9	48.6355	11,712.9	48.9555	11,712.9	45.3388	11,712.9	44.883	11,712.9	45.0389	11,712.9	35.801	11,712.9	41.2217	11,712.9	32.0089	11,712.9	43.4143	11,712.9	38.8285	11,712.9	40.3041	11,712.9	37.3462	11,712.9	45.3253	11,712.9	44.0198	11,712.9	43.7313	11,712.9	39.1879	11,712.9	37.1075
12,126	84.4541	12,126	83.8566	12,126	84.0038	12,126	82.7087	12,126	82.5978	12,126	80.3375	12,126	80.2973	12,126	76.9617	12,126	76.7136	12,126	72.8112	12,126	72.3362	12,126	68.3663	12,126	67.564	12,126	63.2854	12,126	60.9554	12,126	56.3199	12,126	52.4254	12,126	50.7044	12,126	47.6675	12,126	49.0814	12,126	43.0544	12,126	45.819	12,126	40.9213	12,126	45.236	12,126	38.8419	12,126	41.5713	12,126	37.0296	12,126	40.7951	12,126	33.1181	12,126	33.8574	12,126	28.8175	12,126	37.982	12,126	42.1017	12,126	44.3438	12,126	39.9633	12,126	27.6787
12,553.7	84.2123	12,553.7	83.642	12,553.7	83.6883	12,553.7	82.3149	12,553.7	82.2263	12,553.7	79.7293	12,553.7	79.7125	12,553.7	76.0524	12,553.7	75.6942	12,553.7	71.4027	12,553.7	70.4691	12,553.7	67.1671	12,553.7	66.0118	12,553.7	62.3645	12,553.7	60.5947	12,553.7	57.2583	12,553.7	57.4826	12,553.7	53.0655	12,553.7	55.4643	12,553.7	50.6224	12,553.7	50.6667	12,553.7	47.7633	12,553.7	47.7118	12,553.7	44.734	12,553.7	46.5258	12,553.7	39.2999	12,553.7	39.8675	12,553.7	38.4367	12,553.7	33.7669	12,553.7	40.9141	12,553.7	33.3023	12,553.7	38.9161	12,553.7	45.9688	12,553.7	44.041	12,553.7	37.6784	12,553.7	22.2022
12,996.1	83.8356	12,996.1	83.2823	12,996.1	83.32	12,996.1	82.0211	12,996.1	81.9673	12,996.1	79.4655	12,996.1	79.3091	12,996.1	75.869	12,996.1	75.5644	12,996.1	71.8822	12,996.1	70.7312	12,996.1	68.8095	12,996.1	68.2621	12,996.1	65.9458	12,996.1	66.4596	12,996.1	61.7226	12,996.1	62.6685	12,996.1	57.2732	12,996.1	59.7311	12,996.1	53.8059	12,996.1	54.4873	12,996.1	51.1441	12,996.1	52.4281	12,996.1	46.6995	12,996.1	49.9142	12,996.1	40.0362	12,996.1	31.4727	12,996.1	40.185	12,996.1	40.497	12,996.1	43.607	12,996.1	37.6049	12,996.1	42.0952	12,996.1	47.5577	12,996.1	43.0261	12,996.1	34.3175	12,996.1	29.3703
13,454.6	84.0336	13,454.6	83.4721	13,454.6	83.4684	13,454.6	82.2314	13,454.6	82.1728	13,454.6	79.687	13,454.6	79.6898	13,454.6	76.229	13,454.6	76.6629	13,454.6	72.7285	13,454.6	72.8761	13,454.6	69.0253	13,454.6	70.3154	13,454.6	65.9345	13,454.6	68.9027	13,454.6	60.6995	13,454.6	64.6874	13,454.6	54.5315	13,454.6	60.7349	13,454.6	52.1268	13,454.6	55.9204	13,454.6	48.9015	13,454.6	53.0665	13,454.6	43.3363	13,454.6	48.1216	13,454.6	42.1931	13,454.6	42.8968	13,454.6	36.6923	13,454.6	40.2281	13,454.6	42.1904	13,454.6	36.128	13,454.6	39.0921	13,454.6	47.0811	13,454.6	41.0853	13,454.6	23.9329	13,454.6	35.7849
13,929.2	84.8923	13,929.2	84.3273	13,929.2	84.4317	13,929.2	82.9253	13,929.2	82.9549	13,929.2	80.5101	13,929.2	80.8448	13,929.2	77.1108	13,929.2	77.9709	13,929.2	72.9234	13,929.2	74.3366	13,929.2	68.5421	13,929.2	71.2058	13,929.2	63.2451	13,929.2	69.0665	13,929.2	56.2194	13,929.2	64.3009	13,929.2	48.5615	13,929.2	59.3587	13,929.2	47.3513	13,929.2	53.6772	13,929.2	43.7956	13,929.2	51.3526	13,929.2	35.3917	13,929.2	44.3317	13,929.2	36.0609	13,929.2	40.4358	13,929.2	33.3944	13,929.2	36.3108	13,929.2	33.5192	13,929.2	35.1299	13,929.2	37.2369	13,929.2	44.3715	13,929.2	41.388	13,929.2	30.0801	13,929.2	37.9277
14,419.9	85.7006	14,419.9	85.0568	14,419.9	85.2643	14,419.9	83.4499	14,419.9	83.6522	14,419.9	80.7658	14,419.9	81.1955	14,419.9	76.6791	14,419.9	77.8189	14,419.9	72.0471	14,419.9	73.6741	14,419.9	65.9504	14,419.9	69.3174	14,419.9	59.4751	14,419.9	65.5447	14,419.9	50.272	14,419.9	60.9945	14,419.9	40.1192	14,419.9	53.8772	14,419.9	36.966	14,419.9	47.2374	14,419.9	29.8454	14,419.9	45.937	14,419.9	23.3871	14,419.9	38.2247	14,419.9	34.9677	14,419.9	24.3266	14,419.9	32.473	14,419.9	28.7085	14,419.9	35.6405	14,419.9	35.947	14,419.9	32.96	14,419.9	44.4407	14,419.9	40.6225	14,419.9	41.6534	14,419.9	41.7423
14,928.2	85.8642	14,928.2	85.1176	14,928.2	85.3553	14,928.2	83.1178	14,928.2	83.5206	14,928.2	79.872	14,928.2	80.5077	14,928.2	75.0323	14,928.2	76.3692	14,928.2	70.3412	14,928.2	71.5166	14,928.2	64.1385	14,928.2	66.1075	14,928.2	62.1337	14,928.2	62.7876	14,928.2	57.2666	14,928.2	58.6171	14,928.2	53.8698	14,928.2	52.2247	14,928.2	48.6092	14,928.2	44.6515	14,928.2	43.575	14,928.2	42.9262	14,928.2	41.7431	14,928.2	41.4138	14,928.2	36.3714	14,928.2	39.3217	14,928.2	32.9532	14,928.2	35.6191	14,928.2	39.3686	14,928.2	35.8634	14,928.2	20.5341	14,928.2	43.3961	14,928.2	41.5354	14,928.2	43.3212	14,928.2	39.6806
15,455.6	86.1873	15,455.6	85.3004	15,455.6	85.4297	15,455.6	82.9974	15,455.6	83.1557	15,455.6	78.6347	15,455.6	79.1635	15,455.6	72.1508	15,455.6	73.7492	15,455.6	67.3429	15,455.6	67.7955	15,455.6	64.9824	15,455.6	62.3794	15,455.6	66.846	15,455.6	63.5869	15,455.6	63.5494	15,455.6	61.0004	15,455.6	60.0775	15,455.6	56.2401	15,455.6	55.3342	15,455.6	49.5021	15,455.6	50.0152	15,455.6	47.3427	15,455.6	47.0182	15,455.6	43.3929	15,455.6	42.241	15,455.6	45.5404	15,455.6	29.409	15,455.6	37.0006	15,455.6	35.0829	15,455.6	41.6731	15,455.6	34.8155	15,455.6	43.1073	15,455.6	43.9845	15,455.6	42.8645	15,455.6	39.9857
16,000.5	86.1595	16,000.5	85.2858	16,000.5	85.2689	16,000.5	82.4801	16,000.5	82.6273	16,000.5	77.4357	16,000.5	78.1135	16,000.5	68.8942	16,000.5	71.3672	16,000.5	65.4167	16,000.5	65.5815	16,000.5	66.948	16,000.5	62.8883	16,000.5	69.4822	16,000.5	65.6691	16,000.5	66.1922	16,000.5	64.2912	16,000.5	62.7787	16,000.5	59.3919	16,000.5	57.5141	16,000.5	52.1961	16,000.5	53.3048	16,000.5	49.3378	16,000.5	48.7397	16,000.5	47.0508	16,000.5	44.7648	16,000.5	48.3068	16,000.5	37.1656	16,000.5	40.9761	16,000.5	29.3085	16,000.5	43.791	16,000.5	42.2959	16,000.5	41.9337	16,000.5	42.2304	16,000.5	42.2455	16,000.5	38.279
16,564.5	85.9306	16,564.5	84.7503	16,564.5	84.8346	16,564.5	81.6474	16,564.5	81.7346	16,564.5	75.3595	16,564.5	75.8144	16,564.5	63.6448	16,564.5	68.1314	16,564.5	66.6826	16,564.5	66.2503	16,564.5	68.7858	16,564.5	66.2482	16,564.5	71.07	16,564.5	69.1318	16,564.5	67.1283	16,564.5	66.6767	16,564.5	63.1663	16,564.5	61.5512	16,564.5	57.5267	16,564.5	54.0298	16,564.5	53.2287	16,564.5	52.3149	16,564.5	48.2577	16,564.5	48.9613	16,564.5	43.6618	16,564.5	49.4551	16,564.5	40.564	16,564.5	37.8219	16,564.5	34.7229	16,564.5	44.0956	16,564.5	48.1596	16,564.5	42.0469	16,564.5	44.3801	16,564.5	40.9325	16,564.5	33.7574
17,148.9	85.3512	17,148.9	84.1311	17,148.9	83.974	17,148.9	80.4051	17,148.9	80.1747	17,148.9	73.2996	17,148.9	73.0772	17,148.9	58.3451	17,148.9	63.0267	17,148.9	67.4487	17,148.9	67.7001	17,148.9	69.0795	17,148.9	67.9326	17,148.9	71.1744	17,148.9	68.7995	17,148.9	66.6621	17,148.9	67.1037	17,148.9	62.6925	17,148.9	61.2624	17,148.9	57.5183	17,148.9	55.4598	17,148.9	53.7664	17,148.9	52.6193	17,148.9	47.0027	17,148.9	48.7968	17,148.9	34.6125	17,148.9	48.6799	17,148.9	40.3383	17,148.9	38.9824	17,148.9	39.3944	17,148.9	42.4361	17,148.9	48.6072	17,148.9	38.0432	17,148.9	42.9135	17,148.9	41.4185	17,148.9	33.783
17,752.4	84.6864	17,752.4	83.0967	17,752.4	83.1628	17,752.4	78.5319	17,752.4	78.4334	17,752.4	69.4287	17,752.4	69.0941	17,752.4	63.8205	17,752.4	63.0867	17,752.4	70.9632	17,752.4	70.0795	17,752.4	71.285	17,752.4	69.8453	17,752.4	71.9873	17,752.4	70.1404	17,752.4	68.0937	17,752.4	68.0536	17,752.4	63.0995	17,752.4	62.4962	17,752.4	58.0791	17,752.4	56.506	17,752.4	55.09	17,752.4	53.9977	17,752.4	47.0314	17,752.4	49.6142	17,752.4	39.286	17,752.4	48.1284	17,752.4	42.1992	17,752.4	38.7516	17,752.4	43.7891	17,752.4	39.0304	17,752.4	47.5666	17,752.4	38.1223	17,752.4	38.3101	17,752.4	36.1093	17,752.4	33.3394
18,379.4	84.1231	18,379.4	82.1287	18,379.4	82.4773	18,379.4	76.5951	18,379.4	77.4437	18,379.4	57.7932	18,379.4	64.0336	18,379.4	69.1437	18,379.4	67.3457	18,379.4	73.1974	18,379.4	72.2614	18,379.4	72.3746	18,379.4	71.2375	18,379.4	72.7046	18,379.4	71.7032	18,379.4	68.8409	18,379.4	68.7118	18,379.4	62.5491	18,379.4	62.9159	18,379.4	58.627	18,379.4	57.3676	18,379.4	54.8075	18,379.4	54.8234	18,379.4	46.8428	18,379.4	50.5018	18,379.4	26.6031	18,379.4	47.63	18,379.4	43.8744	18,379.4	36.3453	18,379.4	43.1581	18,379.4	41.0094	18,379.4	46.3442	18,379.4	42.6258	18,379.4	41.2679	18,379.4	27.7828	18,379.4	30.7019
19,026.9	83.2468	19,026.9	81.1756	19,026.9	81.6735	19,026.9	75.158	19,026.9	76.4837	19,026.9	64.1259	19,026.9	65.0612	19,026.9	71.4636	19,026.9	70.4076	19,026.9	73.4492	19,026.9	73.0652	19,026.9	72.2908	19,026.9	71.5675	19,026.9	71.6563	19,026.9	71.117	19,026.9	68.2394	19,026.9	68.5381	19,026.9	61.7819	19,026.9	62.336	19,026.9	58.3321	19,026.9	57.7743	19,026.9	53.032	19,026.9	53.7305	19,026.9	44.2228	19,026.9	47.9324	19,026.9	35.169	19,026.9	46.4204	19,026.9	43.4937	19,026.9	30.4132	19,026.9	42.9584	19,026.9	44.0718	19,026.9	39.6479	19,026.9	44.633	19,026.9	42.1466	19,026.9	38.4692	19,026.9	33.4569
19,697.8	82.2407	19,697.8	80.2834	19,697.8	80.8345	19,697.8	75.0993	19,697.8	76.4296	19,697.8	68.2896	19,697.8	68.7904	19,697.8	69.8222	19,697.8	69.6293	19,697.8	71.1286	19,697.8	70.987	19,697.8	69.0848	19,697.8	68.9812	19,697.8	68.335	19,697.8	68.0981	19,697.8	65.0281	19,697.8	66.0956	19,697.8	57.787	19,697.8	59.536	19,697.8	54.7323	19,697.8	53.8485	19,697.8	48.6606	19,697.8	51.0348	19,697.8	41.0389	19,697.8	44.9554	19,697.8	30.3565	19,697.8	42.8688	19,697.8	40.633	19,697.8	16.4014	19,697.8	38.0632	19,697.8	38.9318	19,697.8	27.2379	19,697.8	44.7405	19,697.8	42.8095	19,697.8	37	19,697.8	27.7907
19,999.5	81.772	19,999.5	79.8748	19,999.5	80.6999	19,999.5	74.5879	19,999.5	76.2957	19,999.5	69.0035	19,999.5	69.1684	19,999.5	67.5516	19,999.5	68.3651	19,999.5	68.8237	19,999.5	69.3665	19,999.5	66.9698	19,999.5	67.4676	19,999.5	65.3199	19,999.5	66.666	19,999.5	64.0869	19,999.5	63.5933	19,999.5	56.1844	19,999.5	57.6218	19,999.5	54.0626	19,999.5	51.2826	19,999.5	48.0345	19,999.5	52.5901	19,999.5	38.3388	19,999.5	45.0624	19,999.5	37.8488	19,999.5	47.2405	19,999.5	31.7652	19,999.5	26.2166	19,999.5	41.6375	19,999.5	37.681	19,999.5	33.6761	19,999.5	52.0801	19,999.5	38.9641	19,999.5	36.0313	19,999.5	31.5655
