"SPL Horizontal"
"On-Axis"		"10°"		"-10°"		"20°"		"-20°"		"30°"		"-30°"		"40°"		"-40°"		"50°"		"-50°"		"60°"		"-60°"		"70°"		"-70°"		"80°"		"-80°"		"90°"		"-90°"		"100°"		"-100°"		"110°"		"-110°"		"120°"		"-120°"		"130°"		"-130°"		"140°"		"-140°"		"150°"		"-150°"		"160°"		"-160°"		"170°"		"-170°"		"180°"
"Frequency / Hz"	"Sound Pressure Level / dB (re 20 µPa/V)  [2.83  V @ 1. m]"	"Frequency / Hz"	"Sound Pressure Level / dB (re 20 µPa/V)  [2.83  V @ 1. m]"	"Frequency / Hz"	"Sound Pressure Level / dB (re 20 µPa/V)  [2.83  V @ 1. m]"	"Frequency / Hz"	"Sound Pressure Level / dB (re 20 µPa/V)  [2.83  V @ 1. m]"	"Frequency / Hz"	"Sound Pressure Level / dB (re 20 µPa/V)  [2.83  V @ 1. m]"	"Frequency / Hz"	"Sound Pressure Level / dB (re 20 µPa/V)  [2.83  V @ 1. m]"	"Frequency / Hz"	"Sound Pressure Level / dB (re 20 µPa/V)  [2.83  V @ 1. m]"	"Frequency / Hz"	"Sound Pressure Level / dB (re 20 µPa/V)  [2.83  V @ 1. m]"	"Frequency / Hz"	"Sound Pressure Level / dB (re 20 µPa/V)  [2.83  V @ 1. m]"	"Frequency / Hz"	"Sound Pressure Level / dB (re 20 µPa/V)  [2.83  V @ 1. m]"	"Frequency / Hz"	"Sound Pressure Level / dB (re 20 µPa/V)  [2.83  V @ 1. m]"	"Frequency / Hz"	"Sound Pressure Level / dB (re 20 µPa/V)  [2.83  V @ 1. m]"	"Frequency / Hz"	"Sound Pressure Level / dB (re 20 µPa/V)  [2.83  V @ 1. m]"	"Frequency / Hz"	"Sound Pressure Level / dB (re 20 µPa/V)  [2.83  V @ 1. m]"	"Frequency / Hz"	"Sound Pressure Level / dB (re 20 µPa/V)  [2.83  V @ 1. m]"	"Frequency / Hz"	"Sound Pressure Level / dB (re 20 µPa/V)  [2.83  V @ 1. m]"	"Frequency / Hz"	"Sound Pressure Level / dB (re 20 µPa/V)  [2.83  V @ 1. m]"	"Frequency / Hz"	"Sound Pressure Level / dB (re 20 µPa/V)  [2.83  V @ 1. m]"	"Frequency / Hz"	"Sound Pressure Level / dB (re 20 µPa/V)  [2.83  V @ 1. m]"	"Frequency / Hz"	"Sound Pressure Level / dB (re 20 µPa/V)  [2.83  V @ 1. m]"	"Frequency / Hz"	"Sound Pressure Level / dB (re 20 µPa/V)  [2.83  V @ 1. m]"	"Frequency / Hz"	"Sound Pressure Level / dB (re 20 µPa/V)  [2.83  V @ 1. m]"	"Frequency / Hz"	"Sound Pressure Level / dB (re 20 µPa/V)  [2.83  V @ 1. m]"	"Frequency / Hz"	"Sound Pressure Level / dB (re 20 µPa/V)  [2.83  V @ 1. m]"	"Frequency / Hz"	"Sound Pressure Level / dB (re 20 µPa/V)  [2.83  V @ 1. m]"	"Frequency / Hz"	"Sound Pressure Level / dB (re 20 µPa/V)  [2.83  V @ 1. m]"	"Frequency / Hz"	"Sound Pressure Level / dB (re 20 µPa/V)  [2.83  V @ 1. m]"	"Frequency / Hz"	"Sound Pressure Level / dB (re 20 µPa/V)  [2.83  V @ 1. m]"	"Frequency / Hz"	"Sound Pressure Level / dB (re 20 µPa/V)  [2.83  V @ 1. m]"	"Frequency / Hz"	"Sound Pressure Level / dB (re 20 µPa/V)  [2.83  V @ 1. m]"	"Frequency / Hz"	"Sound Pressure Level / dB (re 20 µPa/V)  [2.83  V @ 1. m]"	"Frequency / Hz"	"Sound Pressure Level / dB (re 20 µPa/V)  [2.83  V @ 1. m]"	"Frequency / Hz"	"Sound Pressure Level / dB (re 20 µPa/V)  [2.83  V @ 1. m]"	"Frequency / Hz"	"Sound Pressure Level / dB (re 20 µPa/V)  [2.83  V @ 1. m]"	"Frequency / Hz"	"Sound Pressure Level / dB (re 20 µPa/V)  [2.83  V @ 1. m]"	"Frequency / Hz"	"Sound Pressure Level / dB (re 20 µPa/V)  [2.83  V @ 1. m]"
20.5078	43.0804	20.5078	43.0861	20.5078	42.7857	20.5078	42.7948	20.5078	42.187	20.5078	42.1755	20.5078	41.2421	20.5078	41.1697	20.5078	39.8704	20.5078	39.6875	20.5078	37.9393	20.5078	37.6371	20.5078	35.3047	20.5078	35.2236	20.5078	32.4587	20.5078	34.1919	20.5078	32.6685	20.5078	36.3605	20.5078	36.1222	20.5078	39.4644	20.5078	39.4434	20.5078	42.1077	20.5078	42.0501	20.5078	44.1865	20.5078	44.0789	20.5078	45.7983	20.5078	45.6653	20.5078	47.029	20.5078	46.8956	20.5078	47.9361	20.5078	47.8212	20.5078	48.5561	20.5078	48.4728	20.5078	48.9109	20.5078	48.8674	20.5078	49.013
21.9727	45.0769	21.9727	45.0513	21.9727	44.8147	21.9727	44.7304	21.9727	44.2463	21.9727	44.0786	21.9727	43.3198	21.9727	43.0212	21.9727	41.9294	21.9727	41.4132	21.9727	39.8605	21.9727	38.9541	21.9727	36.6192	21.9727	34.9088	21.9727	30.7565	21.9727	27.5041	21.9727	24.8789	21.9727	30.5611	21.9727	34.18	21.9727	37.3495	21.9727	39.3098	21.9727	41.3513	21.9727	42.5698	21.9727	44.063	21.9727	44.8841	21.9727	46.0284	21.9727	46.6016	21.9727	47.4829	21.9727	47.8848	21.9727	48.5452	21.9727	48.8189	21.9727	49.2801	21.9727	49.4508	21.9727	49.724	21.9727	49.8061	21.9727	49.8966
23.4375	45.129	23.4375	45.0919	23.4375	44.9312	23.4375	44.8155	23.4375	44.5116	23.4375	44.3063	23.4375	43.906	23.4375	43.602	23.4375	43.2096	23.4375	42.8242	23.4375	42.6387	23.4375	42.2649	23.4375	42.5442	23.4375	42.362	23.4375	43.1951	23.4375	43.325	23.4375	44.4807	23.4375	44.8641	23.4375	46.0464	23.4375	46.5549	23.4375	47.6101	23.4375	48.1472	23.4375	49.0343	23.4375	49.5451	23.4375	50.2686	23.4375	50.7241	23.4375	51.2998	23.4375	51.6846	23.4375	52.1281	23.4375	52.4334	23.4375	52.7568	23.4375	52.9776	23.4375	53.189	23.4375	53.3225	23.4375	53.4271	23.4375	53.4717
24.9023	48.2429	24.9023	48.2263	24.9023	48.0484	24.9023	47.9973	24.9023	47.6439	24.9023	47.5557	24.9023	47.0358	24.9023	46.9101	24.9023	46.2523	24.9023	46.1009	24.9023	45.3819	24.9023	45.2489	24.9023	44.642	24.9023	44.6268	24.9023	44.4001	24.9023	44.623	24.9023	44.9438	24.9023	45.4175	24.9023	46.1493	24.9023	46.758	24.9023	47.6347	24.9023	48.2597	24.9023	49.1046	24.9023	49.6806	24.9023	50.4194	24.9023	50.9189	24.9023	51.5297	24.9023	51.9423	24.9023	52.4235	24.9023	52.7455	24.9023	53.1009	24.9023	53.3313	24.9023	53.5654	24.9023	53.7037	24.9023	53.8199	24.9023	53.866
26.3672	50.3739	26.3672	50.3017	26.3672	50.2636	26.3672	50.0457	26.3672	49.974	26.3672	49.6082	26.3672	49.514	26.3672	49.0026	26.3672	48.9079	26.3672	48.2724	26.3672	48.2176	26.3672	47.5278	26.3672	47.5771	26.3672	46.9886	26.3672	47.2138	26.3672	46.9477	26.3672	47.3678	26.3672	47.5573	26.3672	48.096	26.3672	48.6628	26.3672	49.2104	26.3672	49.9672	26.3672	50.4551	26.3672	51.2458	26.3672	51.6509	26.3672	52.3839	26.3672	52.7059	26.3672	53.3347	26.3672	53.5805	26.3672	54.0822	26.3672	54.2596	26.3672	54.6231	26.3672	54.7381	26.3672	54.9579	26.3672	55.0144	26.3672	55.0879
27.832	50.9967	27.832	50.9462	27.832	50.8903	27.832	50.7397	27.832	50.6355	27.832	50.3887	27.832	50.2543	27.832	49.925	27.832	49.795	27.832	49.4192	27.832	49.3504	27.832	49.003	27.832	49.071	27.832	48.8667	27.832	49.1324	27.832	49.1766	27.832	49.6338	27.832	49.9452	27.832	50.515	27.832	51.0177	27.832	51.6069	27.832	52.1971	27.832	52.743	27.832	53.3385	27.832	53.8118	27.832	54.3609	27.832	54.752	27.832	55.2249	27.832	55.533	27.832	55.9128	27.832	56.1405	27.832	56.4172	27.832	56.5672	27.832	56.7353	27.832	56.8097	27.832	56.8661
29.2969	53.4341	29.2969	53.4018	29.2969	53.3411	29.2969	53.2453	29.2969	53.1289	29.2969	52.9733	29.2969	52.8135	29.2969	52.6081	29.2969	52.4271	29.2969	52.1939	29.2969	52.0288	29.2969	51.809	29.2969	51.7133	29.2969	51.5694	29.2969	51.602	29.2969	51.6014	29.2969	51.7978	29.2969	51.9767	29.2969	52.322	29.2969	52.66	29.2969	53.0962	29.2969	53.533	29.2969	53.9935	29.2969	54.4635	29.2969	54.8983	29.2969	55.3504	29.2969	55.7301	29.2969	56.1306	29.2969	56.4405	29.2969	56.7682	29.2969	57.0021	29.2969	57.244	29.2969	57.4	29.2969	57.548	29.2969	57.626	29.2969	57.6757
30.7617	55.0513	30.7617	55.0405	30.7617	54.9611	30.7617	54.9304	30.7617	54.7769	30.7617	54.7319	30.7617	54.5162	30.7617	54.4681	30.7617	54.2117	30.7617	54.1801	30.7617	53.9176	30.7617	53.9316	30.7617	53.7109	30.7617	53.8063	30.7617	53.6803	30.7617	53.8869	30.7617	53.8933	30.7617	54.2185	30.7617	54.3602	30.7617	54.781	30.7617	55.0256	30.7617	55.4994	30.7617	55.7982	30.7617	56.2801	30.7617	56.5883	30.7617	57.0413	30.7617	57.3266	30.7617	57.7244	30.7617	57.9665	30.7617	58.2912	30.7617	58.4789	30.7617	58.7183	30.7617	58.8456	30.7617	58.9922	30.7617	59.0564	30.7617	59.1057
32.2266	56.7094	32.2266	56.6684	32.2266	56.6647	32.2266	56.5434	32.2266	56.5405	32.2266	56.3448	32.2266	56.3521	32.2266	56.0943	32.2266	56.1266	32.2266	55.8295	32.2266	55.9068	32.2266	55.6061	32.2266	55.7515	32.2266	55.495	32.2266	55.7273	32.2266	55.5647	32.2266	55.8891	32.2266	55.8535	32.2266	56.2542	32.2266	56.3477	32.2266	56.7922	32.2266	56.9875	32.2266	57.4379	32.2266	57.6936	32.2266	58.1174	32.2266	58.3925	32.2266	58.7666	32.2266	59.028	32.2266	59.3379	32.2266	59.5617	32.2266	59.7989	32.2266	59.9689	32.2266	60.1288	32.2266	60.2347	32.2266	60.3151	32.2266	60.351
33.6914	58.3291	33.6914	58.3176	33.6914	58.2679	33.6914	58.2351	33.6914	58.1395	33.6914	58.0909	33.6914	57.9581	33.6914	57.904	33.6914	57.7482	33.6914	57.7047	33.6914	57.5471	33.6914	57.5366	33.6914	57.4044	33.6914	57.4529	33.6914	57.3753	33.6914	57.5056	33.6914	57.5051	33.6914	57.7273	33.6914	57.8106	33.6914	58.1154	33.6914	58.2706	33.6914	58.632	33.6914	58.8343	33.6914	59.2182	33.6914	59.4392	33.6914	59.8129	33.6914	60.0275	33.6914	60.364	33.6914	60.5533	33.6914	60.8328	33.6914	60.9838	33.6914	61.1922	33.6914	61.2967	33.6914	61.4252	33.6914	61.4785	33.6914	61.5219
35.1562	59.4431	35.1562	59.4231	35.1562	59.3902	35.1562	59.3315	35.1562	59.2699	35.1562	59.1767	35.1562	59.0956	35.1562	58.9761	35.1562	58.8904	35.1562	58.7583	35.1562	58.6892	35.1562	58.5647	35.1562	58.5389	35.1562	58.4478	35.1562	58.4921	35.1562	58.4612	35.1562	58.5938	35.1562	58.6417	35.1562	58.8633	35.1562	58.9929	35.1562	59.2843	35.1562	59.4811	35.1562	59.8107	35.1562	60.0489	35.1562	60.3828	35.1562	60.6337	35.1562	60.9436	35.1562	61.1814	35.1562	61.4468	35.1562	61.6512	35.1562	61.8589	35.1562	62.0148	35.1562	62.1568	35.1562	62.2542	35.1562	62.3261	35.1562	62.3592
36.6211	60.7097	36.6211	60.6894	36.6211	60.677	36.6211	60.6184	36.6211	60.596	36.6211	60.5059	36.6211	60.4787	36.6211	60.3694	36.6211	60.3458	36.6211	60.2351	36.6211	60.2268	36.6211	60.1377	36.6211	60.1589	36.6211	60.117	36.6211	60.1811	36.6211	60.2087	36.6211	60.3242	36.6211	60.4333	36.6211	60.5995	36.6211	60.7867	36.6211	60.9931	36.6211	61.2406	36.6211	61.4695	36.6211	61.7508	36.6211	61.9826	36.6211	62.2695	36.6211	62.4863	36.6211	62.7535	36.6211	62.941	36.6211	63.1684	36.6211	63.3166	36.6211	63.4891	36.6211	63.5911	36.6211	63.6985	36.6211	63.7505	36.6211	63.7869
38.0859	62.2204	38.0859	62.2094	38.0859	62.1889	38.0859	62.1576	38.0859	62.1191	38.0859	62.0727	38.0859	62.0216	38.0859	61.969	38.0859	61.9141	38.0859	61.8675	38.0859	61.8207	38.0859	61.7954	38.0859	61.7712	38.0859	61.7831	38.0859	61.796	38.0859	61.8584	38.0859	61.9194	38.0859	62.0387	38.0859	62.151	38.0859	62.3242	38.0859	62.4819	38.0859	62.6964	38.0859	62.8855	38.0859	63.1229	38.0859	63.3253	38.0859	63.5649	38.0859	63.7622	38.0859	63.9848	38.0859	64.1609	38.0859	64.3503	38.0859	64.4925	38.0859	64.6365	38.0859	64.7359	38.0859	64.8257	38.0859	64.8768	38.0859	64.9073
39.5508	63.3786	39.5508	63.3575	39.5508	63.3574	39.5508	63.2958	39.5508	63.2976	39.5508	63.2007	39.5508	63.2082	39.5508	63.0854	39.5508	63.1045	39.5508	62.9695	39.5508	63.0077	39.5508	62.8786	39.5508	62.9443	39.5508	62.8418	39.5508	62.9428	39.5508	62.8868	39.5508	63.0273	39.5508	63.0323	39.5508	63.211	39.5508	63.2812	39.5508	63.4901	39.5508	63.6183	39.5508	63.8441	39.5508	64.0137	39.5508	64.2406	39.5508	64.43	39.5508	64.6426	39.5508	64.8299	39.5508	65.0149	39.5508	65.1808	39.5508	65.3279	39.5508	65.4571	39.5508	65.5591	39.5508	65.6408	39.5508	65.6929	39.5508	65.7208
41.0156	64.4571	41.0156	64.4539	41.0156	64.4241	41.0156	64.4159	41.0156	64.3581	41.0156	64.3499	41.0156	64.2679	41.0156	64.2675	41.0156	64.1679	41.0156	64.1859	41.0156	64.0779	41.0156	64.1266	41.0156	64.0226	41.0156	64.1138	41.0156	64.0276	41.0156	64.1699	41.0156	64.1147	41.0156	64.3101	41.0156	64.295	41.0156	64.537	41.0156	64.5645	41.0156	64.8389	41.0156	64.9042	41.0156	65.1916	41.0156	65.2838	41.0156	65.5638	41.0156	65.669	41.0156	65.9229	41.0156	66.0267	41.0156	66.2391	41.0156	66.3288	41.0156	66.4882	41.0156	66.5537	41.0156	66.6523	41.0156	66.6868	41.0156	66.7201
42.4805	65.6756	42.4805	65.6677	42.4805	65.6548	42.4805	65.6322	42.4805	65.6086	42.4805	65.575	42.4805	65.5452	42.4805	65.5068	42.4805	65.4772	42.4805	65.4429	42.4805	65.4223	42.4805	65.4025	42.4805	65.4008	42.4805	65.407	42.4805	65.4337	42.4805	65.4755	42.4805	65.5374	42.4805	65.6208	42.4805	65.7197	42.4805	65.8441	42.4805	65.9758	42.4805	66.1342	42.4805	66.2892	42.4805	66.469	42.4805	66.6344	42.4805	66.8201	42.4805	66.982	42.4805	67.1581	42.4805	67.3036	42.4805	67.4558	42.4805	67.5742	42.4805	67.6912	42.4805	67.7746	42.4805	67.8481	42.4805	67.8911	42.4805	67.9161
43.9453	66.8335	43.9453	66.8292	43.9453	66.8125	43.9453	66.8009	43.9453	66.7691	43.9453	66.7538	43.9453	66.7103	43.9453	66.6971	43.9453	66.647	43.9453	66.6441	43.9453	66.594	43.9453	66.6109	43.9453	66.5688	43.9453	66.6151	43.9453	66.5891	43.9453	66.6726	43.9453	66.6697	43.9453	66.794	43.9453	66.8181	43.9453	66.9811	43.9453	67.0324	43.9453	67.2257	43.9453	67.2999	43.9453	67.5105	43.9453	67.5998	43.9453	67.8119	43.9453	67.9067	43.9453	68.1046	43.9453	68.1946	43.9453	68.3641	43.9453	68.4403	43.9453	68.5697	43.9453	68.6248	43.9453	68.7058	43.9453	68.7346	43.9453	68.7622
45.4102	67.8628	45.4102	67.858	45.4102	67.8476	45.4102	67.8343	45.4102	67.8147	45.4102	67.7969	45.4102	67.7705	45.4102	67.7542	45.4102	67.7247	45.4102	67.7181	45.4102	67.6907	45.4102	67.7028	45.4102	67.6835	45.4102	67.7233	45.4102	67.7186	45.4102	67.7929	45.4102	67.8083	45.4102	67.9201	45.4102	67.9588	45.4102	68.1061	45.4102	68.1677	45.4102	68.343	45.4102	68.4236	45.4102	68.6154	45.4102	68.7077	45.4102	68.9021	45.4102	68.9972	45.4102	69.1797	45.4102	69.2684	45.4102	69.4256	45.4102	69.4998	45.4102	69.6206	45.4102	69.6737	45.4102	69.7496	45.4102	69.7773	45.4102	69.8032
46.875	68.8768	46.875	68.8752	46.875	68.8618	46.875	68.8577	46.875	68.8328	46.875	68.8283	46.875	68.7958	46.875	68.7943	46.875	68.7599	46.875	68.7662	46.875	68.7366	46.875	68.7567	46.875	68.7394	46.875	68.7792	46.875	68.7814	46.875	68.8461	46.875	68.8729	46.875	68.9652	46.875	69.0191	46.875	69.1381	46.875	69.2176	46.875	69.3584	46.875	69.4584	46.875	69.6123	46.875	69.7245	46.875	69.8808	46.875	69.9952	46.875	70.1423	46.875	70.2486	46.875	70.3756	46.875	70.4643	46.875	70.5621	46.875	70.6256	46.875	70.6872	46.875	70.7203	46.875	70.7413
48.3398	70.0242	48.3398	70.0207	48.3398	70.0133	48.3398	70.0031	48.3398	69.99	48.3398	69.9749	48.3398	69.9593	48.3398	69.9423	48.3398	69.9288	48.3398	69.9141	48.3398	69.9081	48.3398	69.9015	48.3398	69.9086	48.3398	69.9164	48.3398	69.9417	48.3398	69.9697	48.3398	70.0169	48.3398	70.0692	48.3398	70.1396	48.3398	70.2171	48.3398	70.309	48.3398	70.4088	48.3398	70.5172	48.3398	70.6328	48.3398	70.7502	48.3398	70.8724	48.3398	70.9897	48.3398	71.1081	48.3398	71.2158	48.3398	71.3202	48.3398	71.4094	48.3398	71.491	48.3398	71.5547	48.3398	71.6064	48.3398	71.6396	48.3398	71.6573
51.2695	71.8868	51.2695	71.882	51.2695	71.8839	51.2695	71.8707	51.2695	71.8747	51.2695	71.8562	51.2695	71.8628	51.2695	71.8443	51.2695	71.8541	51.2695	71.8421	51.2695	71.8564	51.2695	71.858	51.2695	71.8784	51.2695	71.9005	51.2695	71.9288	51.2695	71.9766	51.2695	72.0145	51.2695	72.0905	51.2695	72.139	51.2695	72.2421	51.2695	72.3009	51.2695	72.4263	51.2695	72.4937	51.2695	72.6332	51.2695	72.7058	51.2695	72.8493	51.2695	72.9221	51.2695	73.0585	51.2695	73.126	51.2695	73.2447	51.2695	73.3013	51.2695	73.3932	51.2695	73.4339	51.2695	73.4919	51.2695	73.5133	51.2695	73.5331
52.7344	72.7765	52.7344	72.7771	52.7344	72.7696	52.7344	72.7722	52.7344	72.7578	52.7344	72.7645	52.7344	72.7447	52.7344	72.7584	52.7344	72.7354	52.7344	72.7601	52.7344	72.7365	52.7344	72.7766	52.7344	72.7558	52.7344	72.8151	52.7344	72.8005	52.7344	72.8818	52.7344	72.8767	52.7344	72.9808	52.7344	72.9878	52.7344	73.1126	52.7344	73.1328	52.7344	73.2734	52.7344	73.3063	52.7344	73.4554	52.7344	73.4983	52.7344	73.6468	52.7344	73.6953	52.7344	73.8334	52.7344	73.882	52.7344	74.0004	52.7344	74.0434	52.7344	74.1341	52.7344	74.1661	52.7344	74.2231	52.7344	74.2401	52.7344	74.2595
54.1992	73.6303	54.1992	73.6373	54.1992	73.6192	54.1992	73.6404	54.1992	73.6053	54.1992	73.6417	54.1992	73.5919	54.1992	73.645	54.1992	73.584	54.1992	73.6551	54.1992	73.5874	54.1992	73.6782	54.1992	73.6091	54.1992	73.7204	54.1992	73.6556	54.1992	73.7871	54.1992	73.7321	54.1992	73.8819	54.1992	73.8413	54.1992	74.0055	54.1992	73.982	54.1992	74.1548	54.1992	74.1489	54.1992	74.3229	54.1992	74.3325	54.1992	74.4992	54.1992	74.5201	54.1992	74.6711	54.1992	74.6978	54.1992	74.8247	54.1992	74.8513	54.1992	74.9473	54.1992	74.9684	54.1992	75.0283	54.1992	75.0399	54.1992	75.0602
55.6641	74.4971	55.6641	74.5	55.6641	74.4918	55.6641	74.5007	55.6641	74.4852	55.6641	74.5008	55.6641	74.4798	55.6641	74.5034	55.6641	74.4794	55.6641	74.5126	55.6641	74.4889	55.6641	74.5334	55.6641	74.5137	55.6641	74.5711	55.6641	74.559	55.6641	74.6304	55.6641	74.6291	55.6641	74.7146	55.6641	74.726	55.6641	74.8243	55.6641	74.8489	55.6641	74.957	55.6641	74.9933	55.6641	75.1066	55.6641	75.1515	55.6641	75.264	55.6641	75.3129	55.6641	75.4177	55.6641	75.4655	55.6641	75.5558	55.6641	75.5971	55.6641	75.6667	55.6641	75.6971	55.6641	75.7409	55.6641	75.757	55.6641	75.772
58.5938	75.8351	58.5938	75.8344	58.5938	75.8365	58.5938	75.8347	58.5938	75.8393	58.5938	75.8374	58.5938	75.8453	58.5938	75.8452	58.5938	75.8574	58.5938	75.8613	58.5938	75.879	58.5938	75.8897	58.5938	75.9139	58.5938	75.9342	58.5938	75.9659	58.5938	75.9981	58.5938	76.0378	58.5938	76.0836	58.5938	76.131	58.5938	76.1906	58.5938	76.2447	58.5938	76.3165	58.5938	76.3754	58.5938	76.4559	58.5938	76.5169	58.5938	76.601	58.5938	76.6605	58.5938	76.7421	58.5938	76.7961	58.5938	76.8684	58.5938	76.9131	58.5938	76.97	58.5938	77.0019	58.5938	77.0383	58.5938	77.0549	58.5938	77.0674
60.0586	76.6053	60.0586	76.6058	60.0586	76.6063	60.0586	76.6083	60.0586	76.6095	60.0586	76.6138	60.0586	76.6164	60.0586	76.6245	60.0586	76.6292	60.0586	76.6429	60.0586	76.6508	60.0586	76.6723	60.0586	76.6843	60.0586	76.7157	60.0586	76.7329	60.0586	76.7759	60.0586	76.799	60.0586	76.8545	60.0586	76.8839	60.0586	76.9514	60.0586	76.987	60.0586	77.0646	60.0586	77.1053	60.0586	77.1895	60.0586	77.2336	60.0586	77.3193	60.0586	77.364	60.0586	77.4455	60.0586	77.4874	60.0586	77.5587	60.0586	77.5943	60.0586	77.6497	60.0586	77.6757	60.0586	77.7109	60.0586	77.7246	60.0586	77.7366
62.9883	77.9895	62.9883	77.9899	62.9883	77.9924	62.9883	77.9936	62.9883	77.9989	62.9883	78.0016	62.9883	78.01	62.9883	78.015	62.9883	78.0272	62.9883	78.0356	62.9883	78.0524	62.9883	78.0654	62.9883	78.0877	62.9883	78.1067	62.9883	78.1352	62.9883	78.1612	62.9883	78.1966	62.9883	78.2302	62.9883	78.2727	62.9883	78.3138	62.9883	78.3628	62.9883	78.4103	62.9883	78.4645	62.9883	78.5165	62.9883	78.5735	62.9883	78.6268	62.9883	78.6834	62.9883	78.7345	62.9883	78.7868	62.9883	78.8317	62.9883	78.8756	62.9883	78.9108	62.9883	78.9424	62.9883	78.9649	62.9883	78.9815	62.9883	78.9892
64.4531	78.4018	64.4531	78.4036	64.4531	78.4044	64.4531	78.41	64.4531	78.412	64.4531	78.4213	64.4531	78.4254	64.4531	78.4385	64.4531	78.4458	64.4531	78.463	64.4531	78.4749	64.4531	78.4964	64.4531	78.5142	64.4531	78.5404	64.4531	78.5653	64.4531	78.5964	64.4531	78.6294	64.4531	78.6655	64.4531	78.7066	64.4531	78.7475	64.4531	78.7961	64.4531	78.841	64.4531	78.8953	64.4531	78.9426	64.4531	79.0001	64.4531	79.0476	64.4531	79.1046	64.4531	79.1495	64.4531	79.2022	64.4531	79.2414	64.4531	79.2855	64.4531	79.3161	64.4531	79.3478	64.4531	79.3673	64.4531	79.3839	64.4531	79.3906
67.3828	79.163	67.3828	79.1627	67.3828	79.1702	67.3828	79.1694	67.3828	79.1846	67.3828	79.1833	67.3828	79.2061	67.3828	79.2046	67.3828	79.2352	67.3828	79.2339	67.3828	79.2721	67.3828	79.2717	67.3828	79.3173	67.3828	79.3187	67.3828	79.371	67.3828	79.3752	67.3828	79.4333	67.3828	79.4413	67.3828	79.5039	67.3828	79.5164	67.3828	79.5818	67.3828	79.5991	67.3828	79.6652	67.3828	79.6868	67.3828	79.7511	67.3828	79.7755	67.3828	79.8355	67.3828	79.8606	67.3828	79.9133	67.3828	79.9367	67.3828	79.9794	67.3828	79.9984	67.3828	80.0285	67.3828	80.0409	67.3828	80.0564	67.3828	80.0608
68.8477	79.4145	68.8477	79.4145	68.8477	79.422	68.8477	79.4219	68.8477	79.4367	68.8477	79.4368	68.8477	79.4588	68.8477	79.4593	68.8477	79.488	68.8477	79.4895	68.8477	79.5245	68.8477	79.5276	68.8477	79.5683	68.8477	79.5737	68.8477	79.6193	68.8477	79.6278	68.8477	79.6776	68.8477	79.6897	68.8477	79.7426	68.8477	79.7588	68.8477	79.8136	68.8477	79.8337	68.8477	79.889	68.8477	79.9122	68.8477	79.9662	68.8477	79.9912	68.8477	80.0418	68.8477	80.0667	68.8477	80.1116	68.8477	80.1341	68.8477	80.1707	68.8477	80.1887	68.8477	80.2147	68.8477	80.2263	68.8477	80.2398	68.8477	80.2438
71.7773	80.2439	71.7773	80.2455	71.7773	80.2504	71.7773	80.2552	71.7773	80.265	71.7773	80.2728	71.7773	80.2873	71.7773	80.2978	71.7773	80.317	71.7773	80.3298	71.7773	80.3535	71.7773	80.3683	71.7773	80.3962	71.7773	80.413	71.7773	80.4446	71.7773	80.4633	71.7773	80.4982	71.7773	80.5187	71.7773	80.5562	71.7773	80.5784	71.7773	80.6179	71.7773	80.6414	71.7773	80.6818	71.7773	80.7061	71.7773	80.7462	71.7773	80.7703	71.7773	80.8085	71.7773	80.831	71.7773	80.8654	71.7773	80.8849	71.7773	80.9134	71.7773	80.9286	71.7773	80.9489	71.7773	80.9586	71.7773	80.9692	71.7773	80.9725
74.707	80.8203	74.707	80.822	74.707	80.8277	74.707	80.8325	74.707	80.8437	74.707	80.8514	74.707	80.8679	74.707	80.8781	74.707	80.8993	74.707	80.9115	74.707	80.9369	74.707	80.9505	74.707	80.9795	74.707	80.9941	74.707	81.0259	74.707	81.0413	74.707	81.0752	74.707	81.091	74.707	81.1263	74.707	81.1423	74.707	81.1783	74.707	81.1944	74.707	81.2302	74.707	81.246	74.707	81.2807	74.707	81.2959	74.707	81.3282	74.707	81.3421	74.707	81.3707	74.707	81.3827	74.707	81.406	74.707	81.4153	74.707	81.4318	74.707	81.4377	74.707	81.4463	74.707	81.4483
77.6367	80.8778	77.6367	80.8796	77.6367	80.8855	77.6367	80.8909	77.6367	80.9025	77.6367	80.911	77.6367	80.9278	77.6367	80.939	77.6367	80.9603	77.6367	80.9733	77.6367	80.9983	77.6367	81.0125	77.6367	81.0403	77.6367	81.0549	77.6367	81.0846	77.6367	81.0992	77.6367	81.1297	77.6367	81.1441	77.6367	81.1745	77.6367	81.1885	77.6367	81.218	77.6367	81.2317	77.6367	81.2595	77.6367	81.2727	77.6367	81.2984	77.6367	81.3109	77.6367	81.3338	77.6367	81.3453	77.6367	81.3649	77.6367	81.3747	77.6367	81.3903	77.6367	81.398	77.6367	81.4088	77.6367	81.4137	77.6367	81.4192	77.6367	81.4209
79.1016	81.0381	79.1016	81.0407	79.1016	81.0454	79.1016	81.0531	79.1016	81.0624	79.1016	81.0745	79.1016	81.088	79.1016	81.1038	79.1016	81.1207	79.1016	81.1392	79.1016	81.159	79.1016	81.1792	79.1016	81.201	79.1016	81.2218	79.1016	81.2447	79.1016	81.2655	79.1016	81.2887	79.1016	81.3088	79.1016	81.3315	79.1016	81.3507	79.1016	81.3723	79.1016	81.3903	79.1016	81.4105	79.1016	81.4271	79.1016	81.4455	79.1016	81.4605	79.1016	81.4768	79.1016	81.4898	79.1016	81.5038	79.1016	81.5145	79.1016	81.5256	79.1016	81.5337	79.1016	81.5415	79.1016	81.5465	79.1016	81.5506	79.1016	81.5523
82.0312	81.6155	82.0312	81.6184	82.0312	81.623	82.0312	81.6314	82.0312	81.6404	82.0312	81.6538	82.0312	81.6666	82.0312	81.684	82.0312	81.6998	82.0312	81.7201	82.0312	81.7381	82.0312	81.7601	82.0312	81.7793	82.0312	81.8016	82.0312	81.8211	82.0312	81.8428	82.0312	81.8617	82.0312	81.8818	82.0312	81.8995	82.0312	81.9175	82.0312	81.9335	82.0312	81.9491	82.0312	81.9632	82.0312	81.9762	82.0312	81.9884	82.0312	81.999	82.0312	82.0093	82.0312	82.0177	82.0312	82.0262	82.0312	82.0324	82.0312	82.0391	82.0312	82.0434	82.0312	82.048	82.0312	82.0506	82.0312	82.053	82.0312	82.0538
84.9609	81.7271	84.9609	81.7313	84.9609	81.7335	84.9609	81.7457	84.9609	81.75	84.9609	81.7693	84.9609	81.7754	84.9609	81.8004	84.9609	81.8078	84.9609	81.8368	84.9609	81.8451	84.9609	81.8761	84.9609	81.8847	84.9609	81.9158	84.9609	81.9242	84.9609	81.9537	84.9609	81.9615	84.9609	81.9881	84.9609	81.9949	84.9609	82.0177	84.9609	82.0233	84.9609	82.0418	84.9609	82.0463	84.9609	82.0607	84.9609	82.0641	84.9609	82.0748	84.9609	82.0774	84.9609	82.0848	84.9609	82.0869	84.9609	82.0918	84.9609	82.0935	84.9609	82.0964	84.9609	82.0976	84.9609	82.0992	84.9609	82.0998	84.9609	82.1003
87.8906	81.5398	87.8906	81.5424	87.8906	81.55	87.8906	81.5574	87.8906	81.5723	87.8906	81.5836	87.8906	81.6054	87.8906	81.6191	87.8906	81.647	87.8906	81.6613	87.8906	81.6943	87.8906	81.7075	87.8906	81.7443	87.8906	81.7547	87.8906	81.794	87.8906	81.8005	87.8906	81.8407	87.8906	81.8425	87.8906	81.8821	87.8906	81.8791	87.8906	81.9169	87.8906	81.9095	87.8906	81.9442	87.8906	81.9334	87.8906	81.9643	87.8906	81.9513	87.8906	81.9778	87.8906	81.9642	87.8906	81.9859	87.8906	81.9731	87.8906	81.9898	87.8906	81.9794	87.8906	81.9907	87.8906	81.9839	87.8906	81.9896	87.8906	81.9873
90.8203	81.9603	90.8203	81.9648	90.8203	81.9684	90.8203	81.9817	90.8203	81.9884	90.8203	82.0095	90.8203	82.0189	90.8203	82.0463	90.8203	82.0574	90.8203	82.0893	90.8203	82.1012	90.8203	82.1354	90.8203	82.1468	90.8203	82.1812	90.8203	82.1911	90.8203	82.2237	90.8203	82.2309	90.8203	82.2602	90.8203	82.264	90.8203	82.2886	90.8203	82.2887	90.8203	82.308	90.8203	82.3045	90.8203	82.3185	90.8203	82.3119	90.8203	82.3211	90.8203	82.3125	90.8203	82.3176	90.8203	82.3083	90.8203	82.3106	90.8203	82.3021	90.8203	82.3026	90.8203	82.2961	90.8203	82.296	90.8203	82.2925	90.8203	82.2923
95.2148	82.1021	95.2148	82.1059	95.2148	82.1069	95.2148	82.1181	95.2148	82.1199	95.2148	82.1374	95.2148	82.1397	95.2148	82.162	95.2148	82.1642	95.2148	82.1894	95.2148	82.1908	95.2148	82.217	95.2148	82.2167	95.2148	82.2419	95.2148	82.2389	95.2148	82.2616	95.2148	82.2551	95.2148	82.274	95.2148	82.2634	95.2148	82.278	95.2148	82.2631	95.2148	82.2731	95.2148	82.2544	95.2148	82.2601	95.2148	82.2387	95.2148	82.2406	95.2148	82.2182	95.2148	82.2174	95.2148	82.196	95.2148	82.1935	95.2148	82.1752	95.2148	82.1722	95.2148	82.1589	95.2148	82.1566	95.2148	82.1495	95.2148	82.1487
98.1445	82.2496	98.1445	82.2583	98.1445	82.2503	98.1445	82.2757	98.1445	82.2599	98.1445	82.3005	98.1445	82.2773	98.1445	82.3303	98.1445	82.3005	98.1445	82.3624	98.1445	82.3268	98.1445	82.3938	98.1445	82.3532	98.1445	82.4213	98.1445	82.3766	98.1445	82.442	98.1445	82.3943	98.1445	82.4536	98.1445	82.4041	98.1445	82.4548	98.1445	82.4049	98.1445	82.4452	98.1445	82.3966	98.1445	82.4259	98.1445	82.3803	98.1445	82.3989	98.1445	82.3582	98.1445	82.3678	98.1445	82.3336	98.1445	82.3365	98.1445	82.31	98.1445	82.3091	98.1445	82.2912	98.1445	82.2892	98.1445	82.2802	98.1445	82.2793
101.074	82.1296	101.074	82.1408	101.074	82.1316	101.074	82.1646	101.074	82.1464	101.074	82.1991	101.074	82.1723	101.074	82.2418	101.074	82.2069	101.074	82.2889	101.074	82.2469	101.074	82.3367	101.074	82.2886	101.074	82.3811	101.074	82.3285	101.074	82.4185	101.074	82.3629	101.074	82.4458	101.074	82.3893	101.074	82.461	101.074	82.4058	101.074	82.4635	101.074	82.4118	101.074	82.454	101.074	82.4081	101.074	82.4351	101.074	82.3966	101.074	82.4102	101.074	82.3802	101.074	82.3838	101.074	82.3624	101.074	82.3604	101.074	82.3469	101.074	82.3436	101.074	82.3372	101.074	82.3357
105.469	82.2803	105.469	82.2871	105.469	82.289	105.469	82.3092	105.469	82.3122	105.469	82.345	105.469	82.3478	105.469	82.3918	105.469	82.3925	105.469	82.4458	105.469	82.4426	105.469	82.503	105.469	82.4936	105.469	82.5585	105.469	82.5414	105.469	82.6079	105.469	82.582	105.469	82.647	105.469	82.6123	105.469	82.6729	105.469	82.6302	105.469	82.6837	105.469	82.6353	105.469	82.6796	105.469	82.6283	105.469	82.6626	105.469	82.6121	105.469	82.6365	105.469	82.5903	105.469	82.6062	105.469	82.568	105.469	82.5771	105.469	82.5498	105.469	82.5543	105.469	82.5401	105.469	82.5414
108.398	82.2651	108.398	82.2747	108.398	82.2683	108.398	82.2962	108.398	82.2836	108.398	82.328	108.398	82.3094	108.398	82.3674	108.398	82.3431	108.398	82.4109	108.398	82.3813	108.398	82.4548	108.398	82.4201	108.398	82.4947	108.398	82.4554	108.398	82.5269	108.398	82.4836	108.398	82.5481	108.398	82.5016	108.398	82.5559	108.398	82.5072	108.398	82.5496	108.398	82.5	108.398	82.5298	108.398	82.481	108.398	82.499	108.398	82.4531	108.398	82.4613	108.398	82.4204	108.398	82.4218	108.398	82.3884	108.398	82.3862	108.398	82.3625	108.398	82.3598	108.398	82.3475	108.398	82.3463
112.793	82.5736	112.793	82.5703	112.793	82.5885	112.793	82.5786	112.793	82.6143	112.793	82.5972	112.793	82.6491	112.793	82.624	112.793	82.6902	112.793	82.6562	112.793	82.7341	112.793	82.6905	112.793	82.7771	112.793	82.7229	112.793	82.815	112.793	82.75	112.793	82.8441	112.793	82.7683	112.793	82.8612	112.793	82.7757	112.793	82.8643	112.793	82.7709	112.793	82.8527	112.793	82.7546	112.793	82.8273	112.793	82.7291	112.793	82.7911	112.793	82.6983	112.793	82.7484	112.793	82.6673	112.793	82.705	112.793	82.6417	112.793	82.6668	112.793	82.6264	112.793	82.6389	112.793	82.6251
117.188	82.5521	117.188	82.5519	117.188	82.5605	117.188	82.5596	117.188	82.5765	117.188	82.5741	117.188	82.5989	117.188	82.5937	117.188	82.6257	117.188	82.6161	117.188	82.6542	117.188	82.6384	117.188	82.6814	117.188	82.6574	117.188	82.7039	117.188	82.6699	117.188	82.7183	117.188	82.6732	117.188	82.7221	117.188	82.6654	117.188	82.7134	117.188	82.646	117.188	82.6916	117.188	82.616	117.188	82.6581	117.188	82.5783	117.188	82.6156	117.188	82.5371	117.188	82.5686	117.188	82.4978	117.188	82.5225	117.188	82.466	117.188	82.4829	117.188	82.4464	117.188	82.455	117.188	82.4424
120.117	82.6837	120.117	82.6839	120.117	82.6905	120.117	82.6908	120.117	82.7039	120.117	82.7031	120.117	82.7221	120.117	82.7189	120.117	82.7428	120.117	82.7353	120.117	82.7629	120.117	82.7493	120.117	82.7791	120.117	82.7575	120.117	82.7877	120.117	82.7569	120.117	82.7857	120.117	82.7447	120.117	82.7707	120.117	82.7194	120.117	82.7414	120.117	82.6806	120.117	82.6982	120.117	82.6298	120.117	82.643	120.117	82.5705	120.117	82.5799	120.117	82.5081	120.117	82.5145	120.117	82.4492	120.117	82.4533	120.117	82.4008	120.117	82.4032	120.117	82.3691	120.117	82.3702	120.117	82.3584
124.512	82.7708	124.512	82.7727	124.512	82.7758	124.512	82.781	124.512	82.7872	124.512	82.7943	124.512	82.8037	124.512	82.8105	124.512	82.823	124.512	82.8269	124.512	82.8419	124.512	82.8402	124.512	82.8568	124.512	82.8472	124.512	82.8641	124.512	82.8448	124.512	82.8602	124.512	82.8303	124.512	82.8423	124.512	82.8019	124.512	82.8089	124.512	82.7593	124.512	82.7603	124.512	82.7039	124.512	82.6987	124.512	82.6391	124.512	82.6288	124.512	82.5702	124.512	82.5568	124.512	82.5043	124.512	82.4904	124.512	82.4487	124.512	82.4373	124.512	82.4105	124.512	82.4041	124.512	82.3949
128.906	82.6841	128.906	82.6978	128.906	82.6809	128.906	82.7208	128.906	82.6881	128.906	82.7509	128.906	82.7042	128.906	82.7848	128.906	82.7268	128.906	82.8188	128.906	82.752	128.906	82.8487	128.906	82.7756	128.906	82.8703	128.906	82.7928	128.906	82.8801	128.906	82.7991	128.906	82.875	128.906	82.7913	128.906	82.8536	128.906	82.7676	128.906	82.8156	128.906	82.7282	128.906	82.763	128.906	82.676	128.906	82.6994	128.906	82.616	128.906	82.6306	128.906	82.5549	128.906	82.5632	128.906	82.5003	128.906	82.5045	128.906	82.4592	128.906	82.4611	128.906	82.4373	128.906	82.4378
133.301	82.6529	133.301	82.6702	133.301	82.646	133.301	82.6974	133.301	82.6488	133.301	82.7327	133.301	82.6593	133.301	82.7733	133.301	82.6749	133.301	82.8151	133.301	82.6922	133.301	82.8537	133.301	82.7071	133.301	82.8839	133.301	82.7157	133.301	82.9014	133.301	82.7144	133.301	82.9021	133.301	82.7004	133.301	82.8836	133.301	82.6727	133.301	82.8453	133.301	82.632	133.301	82.7888	133.301	82.5813	133.301	82.7179	133.301	82.5254	133.301	82.639	133.301	82.4709	133.301	82.5596	133.301	82.4247	133.301	82.4878	133.301	82.3936	133.301	82.4312	133.301	82.3827	133.301	82.3952
139.16	82.6529	139.16	82.6622	139.16	82.6542	139.16	82.682	139.16	82.6656	139.16	82.7109	139.16	82.6852	139.16	82.7468	139.16	82.7101	139.16	82.7867	139.16	82.7367	139.16	82.8268	139.16	82.7604	139.16	82.8626	139.16	82.7766	139.16	82.8896	139.16	82.7813	139.16	82.9033	139.16	82.7714	139.16	82.9002	139.16	82.7458	139.16	82.8783	139.16	82.7055	139.16	82.8375	139.16	82.6542	139.16	82.7805	139.16	82.5974	139.16	82.7122	139.16	82.5424	139.16	82.6396	139.16	82.4967	139.16	82.5708	139.16	82.4675	139.16	82.5139	139.16	82.4596	139.16	82.4754
143.555	82.7153	143.555	82.7214	143.555	82.7178	143.555	82.7358	143.555	82.7284	143.555	82.7569	143.555	82.7454	143.555	82.7821	143.555	82.7659	143.555	82.8083	143.555	82.7859	143.555	82.8313	143.555	82.8009	143.555	82.8469	143.555	82.8063	143.555	82.8507	143.555	82.798	143.555	82.8394	143.555	82.773	143.555	82.8104	143.555	82.7303	143.555	82.7632	143.555	82.6714	143.555	82.6992	143.555	82.5997	143.555	82.6222	143.555	82.5211	143.555	82.5383	143.555	82.4433	143.555	82.4554	143.555	82.3748	143.555	82.3825	143.555	82.3238	143.555	82.3279	143.555	82.2969	143.555	82.2982
147.949	82.6366	147.949	82.6334	147.949	82.6479	147.949	82.6379	147.949	82.6667	147.949	82.6495	147.949	82.6919	147.949	82.6665	147.949	82.7214	147.949	82.6863	147.949	82.7522	147.949	82.7055	147.949	82.7804	147.949	82.7202	147.949	82.8015	147.949	82.7267	147.949	82.8108	147.949	82.7215	147.949	82.8047	147.949	82.7026	147.949	82.7811	147.949	82.6693	147.949	82.7398	147.949	82.6233	147.949	82.6831	147.949	82.5678	147.949	82.6159	147.949	82.5083	147.949	82.5445	147.949	82.4516	147.949	82.4768	147.949	82.4049	147.949	82.4205	147.949	82.375	147.949	82.3824	147.949	82.3668
153.809	82.6136	153.809	82.6217	153.809	82.6122	153.809	82.6361	153.809	82.6172	153.809	82.6557	153.809	82.6278	153.809	82.6786	153.809	82.6424	153.809	82.702	153.809	82.6586	153.809	82.7223	153.809	82.673	153.809	82.7354	153.809	82.6819	153.809	82.7373	153.809	82.6814	153.809	82.7248	153.809	82.6683	153.809	82.696	153.809	82.6404	153.809	82.6509	153.809	82.5973	153.809	82.5915	153.809	82.5408	153.809	82.522	153.809	82.4751	153.809	82.4482	153.809	82.4065	153.809	82.3773	153.809	82.3427	153.809	82.317	153.809	82.2919	153.809	82.2744	153.809	82.2612	153.809	82.255
159.668	82.4862	159.668	82.4862	159.668	82.4953	159.668	82.4953	159.668	82.5125	159.668	82.5126	159.668	82.536	159.668	82.536	159.668	82.5632	159.668	82.5624	159.668	82.5912	159.668	82.5882	159.668	82.6165	159.668	82.609	159.668	82.6355	159.668	82.6208	159.668	82.6448	159.668	82.6199	159.668	82.6416	159.668	82.604	159.668	82.6244	159.668	82.5726	159.668	82.5929	159.668	82.5275	159.668	82.5488	159.668	82.4728	159.668	82.4955	159.668	82.4147	159.668	82.4379	159.668	82.3605	159.668	82.382	159.668	82.3175	159.668	82.3343	159.668	82.2914	159.668	82.3007	159.668	82.2856
165.527	82.3827	165.527	82.3771	165.527	82.3992	165.527	82.3824	165.527	82.4256	165.527	82.3979	165.527	82.4605	165.527	82.4222	165.527	82.5016	165.527	82.4528	165.527	82.5457	165.527	82.4866	165.527	82.589	165.527	82.5196	165.527	82.6268	165.527	82.5474	165.527	82.6547	165.527	82.5657	165.527	82.6684	165.527	82.571	165.527	82.6648	165.527	82.5612	165.527	82.6427	165.527	82.5359	165.527	82.6034	165.527	82.4977	165.527	82.5507	165.527	82.4514	165.527	82.4907	165.527	82.404	165.527	82.4312	165.527	82.3634	165.527	82.3802	165.527	82.337	165.527	82.345	165.527	82.3301
171.387	82.3379	171.387	82.3167	171.387	82.3666	171.387	82.3035	171.387	82.402	171.387	82.2987	171.387	82.443	171.387	82.3026	171.387	82.4878	171.387	82.3143	171.387	82.5339	171.387	82.3325	171.387	82.5777	171.387	82.3541	171.387	82.6146	171.387	82.3755	171.387	82.6405	171.387	82.3926	171.387	82.6513	171.387	82.4014	171.387	82.6445	171.387	82.3992	171.387	82.6193	171.387	82.3851	171.387	82.5772	171.387	82.3605	171.387	82.5218	171.387	82.3295	171.387	82.4587	171.387	82.2981	171.387	82.395	171.387	82.2734	171.387	82.3379	171.387	82.2619	171.387	82.2941	171.387	82.2683
177.246	82.4974	177.246	82.5113	177.246	82.4801	177.246	82.5204	177.246	82.461	177.246	82.5236	177.246	82.4418	177.246	82.52	177.246	82.4235	177.246	82.5086	177.246	82.4062	177.246	82.4879	177.246	82.3885	177.246	82.4564	177.246	82.3677	177.246	82.4124	177.246	82.3404	177.246	82.3547	177.246	82.3031	177.246	82.2834	177.246	82.2533	177.246	82.2002	177.246	82.1902	177.246	82.1089	177.246	82.1157	177.246	82.0149	177.246	82.0337	177.246	81.9253	177.246	81.9506	177.246	81.8476	177.246	81.8735	177.246	81.7887	177.246	81.8097	177.246	81.754	177.246	81.7657	177.246	81.7463
183.105	82.1899	183.105	82.2186	183.105	82.1644	183.105	82.2487	183.105	82.1434	183.105	82.2785	183.105	82.1275	183.105	82.3057	183.105	82.1162	183.105	82.3276	183.105	82.1079	183.105	82.3412	183.105	82.0999	183.105	82.3434	183.105	82.0883	183.105	82.3308	183.105	82.069	183.105	82.301	183.105	82.0385	183.105	82.2525	183.105	81.9943	183.105	82.1853	183.105	81.9361	183.105	82.1016	183.105	81.8663	183.105	82.0056	183.105	81.7903	183.105	81.9038	183.105	81.7161	183.105	81.8043	183.105	81.6527	183.105	81.716	183.105	81.6089	183.105	81.6471	183.105	81.5916	183.105	81.6044
188.965	82.0088	188.965	82.0287	188.965	81.993	188.965	82.0525	188.965	81.9813	188.965	82.0794	188.965	81.9735	188.965	82.1079	188.965	81.9691	188.965	82.1356	188.965	81.9671	188.965	82.1588	188.965	81.9653	188.965	82.1737	188.965	81.961	188.965	82.1759	188.965	81.9504	188.965	82.1624	188.965	81.9301	188.965	82.1312	188.965	81.8974	188.965	82.0822	188.965	81.8517	188.965	82.0172	188.965	81.7951	188.965	81.9399	188.965	81.7326	188.965	81.8559	188.965	81.6714	188.965	81.7717	188.965	81.6201	188.965	81.695	188.965	81.5865	188.965	81.6331	188.965	81.5763	188.965	81.5922
196.289	81.8832	196.289	81.8907	196.289	81.8754	196.289	81.8985	196.289	81.8671	196.289	81.9075	196.289	81.8582	196.289	81.9184	196.289	81.8491	196.289	81.9302	196.289	81.8391	196.289	81.9408	196.289	81.8272	196.289	81.9465	196.289	81.8112	196.289	81.9431	196.289	81.7886	196.289	81.9265	196.289	81.7565	196.289	81.8938	196.289	81.713	196.289	81.844	196.289	81.6575	196.289	81.7781	196.289	81.5917	196.289	81.6993	196.289	81.5201	196.289	81.6129	196.289	81.4498	196.289	81.5259	196.289	81.3894	196.289	81.4466	196.289	81.3477	196.289	81.3834	196.289	81.3312	196.289	81.3434
203.613	81.763	203.613	81.7619	203.613	81.7555	203.613	81.7536	203.613	81.74	203.613	81.7406	203.613	81.718	203.613	81.7261	203.613	81.6917	203.613	81.7127	203.613	81.6627	203.613	81.7013	203.613	81.6318	203.613	81.6899	203.613	81.5985	203.613	81.6748	203.613	81.5618	203.613	81.6509	203.613	81.52	203.613	81.614	203.613	81.472	203.613	81.5619	203.613	81.4173	203.613	81.4957	203.613	81.357	203.613	81.4192	203.613	81.2939	203.613	81.3389	203.613	81.2326	203.613	81.2622	203.613	81.1791	203.613	81.1966	203.613	81.1395	203.613	81.1484	203.613	81.1193	203.613	81.122
210.938	81.5705	210.938	81.557	210.938	81.5834	210.938	81.5429	210.938	81.5957	210.938	81.5283	210.938	81.6071	210.938	81.5136	210.938	81.6164	210.938	81.4985	210.938	81.6218	210.938	81.4818	210.938	81.6208	210.938	81.4613	210.938	81.6104	210.938	81.4343	210.938	81.5877	210.938	81.3982	210.938	81.55	210.938	81.3516	210.938	81.4957	210.938	81.2944	210.938	81.4247	210.938	81.2283	210.938	81.3396	210.938	81.1567	210.938	81.2452	210.938	81.0843	210.938	81.1491	210.938	81.0173	210.938	81.0604	210.938	80.9629	210.938	80.988	210.938	80.9283	210.938	80.9396	210.938	80.9195
218.262	81.1986	218.262	81.1994	218.262	81.1983	218.262	81.2001	218.262	81.1995	218.262	81.2009	218.262	81.2024	218.262	81.2028	218.262	81.2064	218.262	81.2069	218.262	81.2096	218.262	81.2132	218.262	81.2092	218.262	81.2198	218.262	81.2025	218.262	81.2232	218.262	81.1874	218.262	81.219	218.262	81.1633	218.262	81.2038	218.262	81.1305	218.262	81.1761	218.262	81.0905	218.262	81.137	218.262	81.0456	218.262	81.0893	218.262	80.9986	218.262	81.0372	218.262	80.9532	218.262	80.9853	218.262	80.9142	218.262	80.9384	218.262	80.8863	218.262	80.9016	218.262	80.8739	218.262	80.8791
225.586	81.0453	225.586	81.0554	225.586	81.0261	225.586	81.0564	225.586	80.9999	225.586	81.0508	225.586	80.9708	225.586	81.0422	225.586	80.9428	225.586	81.0345	225.586	80.9185	225.586	81.0303	225.586	80.898	225.586	81.0293	225.586	80.879	225.586	81.0288	225.586	80.8577	225.586	81.0236	225.586	80.8312	225.586	81.0083	225.586	80.7989	225.586	80.9795	225.586	80.7622	225.586	80.9369	225.586	80.7249	225.586	80.884	225.586	80.6908	225.586	80.8265	225.586	80.6634	225.586	80.7705	225.586	80.6448	225.586	80.7212	225.586	80.6366	225.586	80.682	225.586	80.6397	225.586	80.6547
232.91	80.9758	232.91	80.9744	232.91	80.9646	232.91	80.9617	232.91	80.9409	232.91	80.9405	232.91	80.9064	232.91	80.9147	232.91	80.8641	232.91	80.8886	232.91	80.8167	232.91	80.8665	232.91	80.7655	232.91	80.8509	232.91	80.7101	232.91	80.8404	232.91	80.6486	232.91	80.8296	232.91	80.5792	232.91	80.81	232.91	80.5028	232.91	80.7734	232.91	80.4239	232.91	80.7161	232.91	80.3504	232.91	80.641	232.91	80.2914	232.91	80.5569	232.91	80.2534	232.91	80.4744	232.91	80.2384	232.91	80.4022	232.91	80.2438	232.91	80.3438	232.91	80.2651	232.91	80.2985
241.699	80.7644	241.699	80.756	241.699	80.7602	241.699	80.7337	241.699	80.7462	241.699	80.6976	241.699	80.7252	241.699	80.6498	241.699	80.6997	241.699	80.594	241.699	80.6708	241.699	80.5348	241.699	80.6381	241.699	80.4772	241.699	80.5994	241.699	80.4246	241.699	80.5515	241.699	80.3771	241.699	80.4907	241.699	80.331	241.699	80.4148	241.699	80.2805	241.699	80.3245	241.699	80.2203	241.699	80.2242	241.699	80.1487	241.699	80.122	241.699	80.0699	241.699	80.0272	241.699	79.9921	241.699	79.9486	241.699	79.9256	241.699	79.8922	241.699	79.8787	241.699	79.861	241.699	79.8565
250.488	80.4811	250.488	80.4913	250.488	80.4546	250.488	80.4832	250.488	80.4152	250.488	80.4562	250.488	80.3675	250.488	80.4111	250.488	80.3163	250.488	80.3498	250.488	80.2661	250.488	80.2766	250.488	80.2194	250.488	80.1974	250.488	80.1764	250.488	80.1186	250.488	80.1348	250.488	80.0448	250.488	80.09	250.488	79.9764	250.488	80.0378	250.488	79.9099	250.488	79.9754	250.488	79.8408	250.488	79.9033	250.488	79.7671	250.488	79.825	250.488	79.6925	250.488	79.7465	250.488	79.6252	250.488	79.6741	250.488	79.5746	250.488	79.6135	250.488	79.5476	250.488	79.5695	250.488	79.5464
259.277	80.3894	259.277	80.3952	259.277	80.3647	259.277	80.3832	259.277	80.3219	259.277	80.3553	259.277	80.2644	259.277	80.3131	259.277	80.1977	259.277	80.2569	259.277	80.1285	259.277	80.1862	259.277	80.0632	259.277	80.1022	259.277	80.006	259.277	80.0089	259.277	79.9563	259.277	79.9135	259.277	79.9086	259.277	79.8241	259.277	79.8546	259.277	79.7462	259.277	79.7874	259.277	79.6801	259.277	79.7061	259.277	79.622	259.277	79.6173	259.277	79.5676	259.277	79.5327	259.277	79.5153	259.277	79.4642	259.277	79.4674	259.277	79.4195	259.277	79.4288	259.277	79.4004	259.277	79.4048
268.066	80.2383	268.066	80.2174	268.066	80.2265	268.066	80.1711	268.066	80.1805	268.066	80.1103	268.066	80.1056	268.066	80.045	268.066	80.0108	268.066	79.9802	268.066	79.9069	268.066	79.915	268.066	79.8039	268.066	79.8444	268.066	79.7101	268.066	79.7637	268.066	79.6306	268.066	79.6724	268.066	79.5654	268.066	79.5763	268.066	79.5076	268.066	79.4848	268.066	79.4461	268.066	79.4061	268.066	79.3711	268.066	79.3422	268.066	79.2812	268.066	79.288	268.066	79.1861	268.066	79.2355	268.066	79.1039	268.066	79.1787	268.066	79.0529	268.066	79.1198	268.066	79.0426	268.066	79.0693
276.855	80.0643	276.855	80.0432	276.855	80.0786	276.855	80.0121	276.855	80.0865	276.855	79.9691	276.855	80.0832	276.855	79.9158	276.855	80.0588	276.855	79.8566	276.855	80.0015	276.855	79.7951	276.855	79.9017	276.855	79.731	276.855	79.7573	276.855	79.6597	276.855	79.5769	276.855	79.576	276.855	79.3799	276.855	79.4776	276.855	79.1918	276.855	79.3685	276.855	79.0352	276.855	79.2576	276.855	78.9211	276.855	79.155	276.855	78.8468	276.855	79.0659	276.855	78.8023	276.855	78.9896	276.855	78.7781	276.855	78.9221	276.855	78.7713	276.855	78.8624	276.855	78.7829	276.855	78.8143
287.109	79.5571	287.109	79.5686	287.109	79.54	287.109	79.5693	287.109	79.5243	287.109	79.5562	287.109	79.5164	287.109	79.5281	287.109	79.5196	287.109	79.4852	287.109	79.5321	287.109	79.4293	287.109	79.5475	287.109	79.364	287.109	79.5562	287.109	79.2937	287.109	79.5489	287.109	79.2217	287.109	79.5192	287.109	79.1492	287.109	79.4655	287.109	79.0756	287.109	79.3918	287.109	79.0022	287.109	79.3062	287.109	78.9338	287.109	79.218	287.109	78.8789	287.109	79.1346	287.109	78.8455	287.109	79.0596	287.109	78.8376	287.109	78.9937	287.109	78.8537	287.109	78.9364	287.109	78.8885
297.363	79.6304	297.363	79.6532	297.363	79.5665	297.363	79.6448	297.363	79.4591	297.363	79.6185	297.363	79.3163	297.363	79.5865	297.363	79.1569	297.363	79.5575	297.363	79.0061	297.363	79.5346	297.363	78.8878	297.363	79.5152	297.363	78.8167	297.363	79.492	297.363	78.7926	297.363	79.4553	297.363	78.8021	297.363	79.3973	297.363	78.8248	297.363	79.3144	297.363	78.8409	297.363	79.209	297.363	78.837	297.363	79.0885	297.363	78.8092	297.363	78.9636	297.363	78.7622	297.363	78.8459	297.363	78.7075	297.363	78.7466	297.363	78.6596	297.363	78.6746	297.363	78.6324	297.363	78.636
307.617	79.4376	307.617	79.4039	307.617	79.4475	307.617	79.3479	307.617	79.4335	307.617	79.2732	307.617	79.3965	307.617	79.184	307.617	79.337	307.617	79.0837	307.617	79.2551	307.617	78.9753	307.617	79.1518	307.617	78.8637	307.617	79.0296	307.617	78.7555	307.617	78.8933	307.617	78.6581	307.617	78.7503	307.617	78.5762	307.617	78.6107	307.617	78.5105	307.617	78.4877	307.617	78.459	307.617	78.3952	307.617	78.4203	307.617	78.3421	307.617	78.3946	307.617	78.3278	307.617	78.3826	307.617	78.3409	307.617	78.3823	307.617	78.3645	307.617	78.388	307.617	78.3836	307.617	78.391
319.336	79.3578	319.336	79.3385	319.336	79.3083	319.336	79.2511	319.336	79.1998	319.336	79.1063	319.336	79.052	319.336	78.9217	319.336	78.8901	319.336	78.7169	319.336	78.7401	319.336	78.5107	319.336	78.622	319.336	78.3192	319.336	78.5427	319.336	78.1553	319.336	78.4933	319.336	78.0275	319.336	78.4524	319.336	77.9369	319.336	78.3967	319.336	77.8772	319.336	78.3131	319.336	77.8373	319.336	78.2062	319.336	77.8079	319.336	78.0957	319.336	77.7873	319.336	78.0041	319.336	77.7802	319.336	77.9427	319.336	77.791	319.336	77.9061	319.336	77.8172	319.336	77.8789	319.336	77.8494
329.59	78.6572	329.59	78.6605	329.59	78.638	329.59	78.6519	329.59	78.597	329.59	78.6311	329.59	78.5301	329.59	78.5955	329.59	78.438	329.59	78.5416	329.59	78.328	329.59	78.4678	329.59	78.2125	329.59	78.3746	329.59	78.1052	329.59	78.2653	329.59	78.0152	329.59	78.1458	329.59	77.9421	329.59	78.0232	329.59	77.8731	329.59	77.9043	329.59	77.7892	329.59	77.7938	329.59	77.6767	329.59	77.6934	329.59	77.5382	329.59	77.603	329.59	77.3968	329.59	77.5204	329.59	77.2866	329.59	77.442	329.59	77.2339	329.59	77.3654	329.59	77.2423	329.59	77.2939
341.309	78.7288	341.309	78.7173	341.309	78.6995	341.309	78.6765	341.309	78.6224	341.309	78.6187	341.309	78.4975	341.309	78.5531	341.309	78.3331	341.309	78.4826	341.309	78.1457	341.309	78.4039	341.309	77.9574	341.309	78.3097	341.309	77.7908	341.309	78.1919	341.309	77.6616	341.309	78.0463	341.309	77.5749	341.309	77.8755	341.309	77.5263	341.309	77.6902	341.309	77.5064	341.309	77.5077	341.309	77.5031	341.309	77.3472	341.309	77.5022	341.309	77.2245	341.309	77.4882	341.309	77.149	341.309	77.4491	341.309	77.1242	341.309	77.3819	341.309	77.1479	341.309	77.2961	341.309	77.2109
353.027	78.3981	353.027	78.4275	353.027	78.3617	353.027	78.4406	353.027	78.3278	353.027	78.4337	353.027	78.2987	353.027	78.4091	353.027	78.2653	353.027	78.3691	353.027	78.2093	353.027	78.3108	353.027	78.1115	353.027	78.2241	353.027	77.9615	353.027	78.0975	353.027	77.7619	353.027	77.9256	353.027	77.5252	353.027	77.714	353.027	77.2658	353.027	77.4789	353.027	76.9951	353.027	77.2413	353.027	76.7253	353.027	77.0212	353.027	76.4791	353.027	76.8333	353.027	76.2918	353.027	76.6842	353.027	76.1966	353.027	76.569	353.027	76.2	353.027	76.471	353.027	76.2731	353.027	76.3726
366.211	77.5665	366.211	77.4339	366.211	77.6418	366.211	77.2517	366.211	77.6738	366.211	77.0574	366.211	77.6877	366.211	76.9113	366.211	77.7089	366.211	76.8707	366.211	77.7543	366.211	76.9555	366.211	77.8229	366.211	77.1333	366.211	77.8938	366.211	77.3369	366.211	77.933	366.211	77.496	366.211	77.9084	366.211	77.5618	366.211	77.8022	366.211	77.5146	366.211	77.6158	366.211	77.3616	366.211	77.3662	366.211	77.1293	366.211	77.0787	366.211	76.8543	366.211	76.7802	366.211	76.5753	366.211	76.499	366.211	76.3303	366.211	76.2675	366.211	76.1552	366.211	76.1194	366.211	76.0799
379.395	76.6929	379.395	76.675	379.395	76.6812	379.395	76.6144	379.395	76.6606	379.395	76.5049	379.395	76.662	379.395	76.356	379.395	76.7224	379.395	76.2037	379.395	76.8709	379.395	76.1102	379.395	77.1119	379.395	76.1357	379.395	77.4185	379.395	76.2957	379.395	77.7391	379.395	76.5452	379.395	78.0154	379.395	76.8092	379.395	78.1986	379.395	77.0218	379.395	78.2598	379.395	77.1456	379.395	78.1926	379.395	77.172	379.395	78.0117	379.395	77.1159	379.395	77.75	379.395	77.0107	379.395	77.4538	379.395	76.9007	379.395	77.1753	379.395	76.8329	379.395	76.9625	379.395	76.8466
392.578	78.2059	392.578	78.2128	392.578	77.9756	392.578	78.0052	392.578	77.532	392.578	77.6121	392.578	76.9125	392.578	77.0874	392.578	76.2034	392.578	76.5184	392.578	75.5715	392.578	76.0333	392.578	75.2525	392.578	75.7877	392.578	75.4192	392.578	75.8969	392.578	76.0236	392.578	76.3474	392.578	76.8503	392.578	76.997	392.578	77.6904	392.578	77.6716	392.578	78.4183	392.578	78.2491	392.578	78.9784	392.578	78.6787	392.578	79.3589	392.578	78.9656	392.578	79.5753	392.578	79.1476	392.578	79.6584	392.578	79.2719	392.578	79.6461	392.578	79.3763	392.578	79.5757	392.578	79.4788
405.762	80.6674	405.762	80.6254	405.762	80.5347	405.762	80.4116	405.762	80.2229	405.762	80.0321	405.762	79.726	405.762	79.5011	405.762	79.0414	405.762	78.8455	405.762	78.1863	405.762	78.1136	405.762	77.2252	405.762	77.3867	405.762	76.31	405.762	76.7878	405.762	75.6936	405.762	76.4605	405.762	75.6179	405.762	76.4993	405.762	76.0952	405.762	76.8783	405.762	76.8935	405.762	77.4663	405.762	77.7523	405.762	78.1102	405.762	78.5133	405.762	78.6994	405.762	79.1118	405.762	79.1787	405.762	79.5353	405.762	79.5341	405.762	79.7946	405.762	79.7712	405.762	79.9088	405.762	79.8968
420.41	80.1788	420.41	80.1779	420.41	80.0659	420.41	80.0589	420.41	79.8416	420.41	79.8166	420.41	79.506	420.41	79.444	420.41	79.0571	420.41	78.9357	420.41	78.4972	420.41	78.3008	420.41	77.8443	420.41	77.5832	420.41	77.1461	420.41	76.8828	420.41	76.4917	420.41	76.3526	420.41	76.0022	420.41	76.1402	420.41	75.78	420.41	76.2882	420.41	75.8446	420.41	76.7009	420.41	76.1279	420.41	77.2216	420.41	76.5347	420.41	77.7203	420.41	76.9915	420.41	78.1187	420.41	77.4493	420.41	78.3767	420.41	77.8665	420.41	78.4761	420.41	78.201	420.41	78.4135
435.059	79.4187	435.059	79.3588	435.059	79.4216	435.059	79.2489	435.059	79.3451	435.059	79.0747	435.059	79.1626	435.059	78.806	435.059	78.8535	435.059	78.41	435.059	78.4101	435.059	77.8693	435.059	77.8422	435.059	77.1995	435.059	77.1851	435.059	76.4636	435.059	76.5147	435.059	75.781	435.059	75.959	435.059	75.3103	435.059	75.6685	435.059	75.1817	435.059	75.7261	435.059	75.4095	435.059	76.0749	435.059	75.8841	435.059	76.5638	435.059	76.4527	435.059	77.048	435.059	76.9904	435.059	77.44	435.059	77.4204	435.059	77.7064	435.059	77.7073	435.059	77.842	435.059	77.8451
451.172	79.9562	451.172	79.8833	451.172	79.907	451.172	79.7021	451.172	79.7275	451.172	79.4271	451.172	79.4165	451.172	79.0671	451.172	78.9784	451.172	78.6227	451.172	78.4244	451.172	78.0915	451.172	77.7798	451.172	77.4816	451.172	77.095	451.172	76.8308	451.172	76.4511	451.172	76.2211	451.172	75.9476	451.172	75.7647	451.172	75.6688	451.172	75.549	451.172	75.6458	451.172	75.5783	451.172	75.8414	451.172	75.7814	451.172	76.1665	451.172	76.0671	451.172	76.5153	451.172	76.3642	451.172	76.8006	451.172	76.6286	451.172	76.9748	451.172	76.8373	451.172	77.0286	451.172	76.976
465.82	79.6711	465.82	79.6338	465.82	79.5799	465.82	79.4637	465.82	79.3878	465.82	79.184	465.82	79.1253	465.82	78.833	465.82	78.8041	465.82	78.4383	465.82	78.4111	465.82	77.9949	465.82	77.9231	465.82	77.471	465.82	77.3336	465.82	76.8497	465.82	76.6796	465.82	76.1854	465.82	76.06	465.82	75.6256	465.82	75.619	465.82	75.3372	465.82	75.4658	465.82	75.3715	465.82	75.5875	465.82	75.636	465.82	75.8713	465.82	75.9994	465.82	76.2044	465.82	76.368	465.82	76.521	465.82	76.6846	465.82	76.7832	465.82	76.9066	465.82	76.9547	465.82	77.001
483.398	79.3721	483.398	79.4166	483.398	79.2951	483.398	79.4059	483.398	79.1734	483.398	79.2992	483.398	78.9697	483.398	79.0638	483.398	78.6469	483.398	78.6943	483.398	78.1907	483.398	78.2143	483.398	77.6177	483.398	77.6585	483.398	76.9692	483.398	77.0504	483.398	76.3036	483.398	76.4057	483.398	75.6996	483.398	75.7762	483.398	75.2653	483.398	75.2993	483.398	75.116	483.398	75.1574	483.398	75.2934	483.398	75.4077	483.398	75.7061	483.398	75.8914	483.398	76.1867	483.398	76.3827	483.398	76.5968	483.398	76.7478	483.398	76.8736	483.398	76.9598	483.398	77.0153	483.398	77.0421
499.512	79.2898	499.512	79.2756	499.512	79.2298	499.512	79.1936	499.512	79.0803	499.512	79.027	499.512	78.8301	499.512	78.7373	499.512	78.4726	499.512	78.2886	499.512	78.0074	499.512	77.6843	499.512	77.4486	499.512	76.9956	499.512	76.8392	499.512	76.3551	499.512	76.2545	499.512	75.8935	499.512	75.7831	499.512	75.6574	499.512	75.4901	499.512	75.6014	499.512	75.3965	499.512	75.6647	499.512	75.4972	499.512	75.8304	499.512	75.7752	499.512	76.1055	499.512	76.1841	499.512	76.4654	499.512	76.6356	499.512	76.8397	499.512	77.0227	499.512	77.1414	499.512	77.2576	499.512	77.2959
517.09	79.513	517.09	79.4068	517.09	79.5255	517.09	79.2368	517.09	79.4113	517.09	79.017	517.09	79.1544	517.09	78.7409	517.09	78.7712	517.09	78.3775	517.09	78.3001	517.09	77.8778	517.09	77.7643	517.09	77.2002	517.09	77.142	517.09	76.3538	517.09	76.4006	517.09	75.4453	517.09	75.6018	517.09	74.6916	517.09	74.9708	517.09	74.3226	517.09	74.754	517.09	74.4176	517.09	74.9376	517.09	74.8741	517.09	75.2886	517.09	75.5142	517.09	75.6385	517.09	76.1596	517.09	75.9755	517.09	76.6598	517.09	76.3342	517.09	76.9172	517.09	76.6792	517.09	76.9073
536.133	79.8835	536.133	79.8785	536.133	79.7857	536.133	79.756	536.133	79.5961	536.133	79.5112	536.133	79.3029	536.133	79.1523	536.133	78.8714	536.133	78.6991	536.133	78.2736	536.133	78.1758	536.133	77.5242	536.133	77.5903	536.133	76.6819	536.133	76.9157	536.133	75.8132	536.133	76.1096	536.133	74.9791	536.133	75.1889	536.133	74.2977	536.133	74.3349	536.133	73.9904	536.133	73.8805	536.133	74.2047	536.133	73.9911	536.133	74.7803	536.133	74.4433	536.133	75.3954	536.133	74.9345	536.133	75.8344	536.133	75.3367	536.133	76.0363	536.133	75.6484	536.133	76.0328	536.133	75.8861
555.176	79.5718	555.176	79.5975	555.176	79.5659	555.176	79.6101	555.176	79.5576	555.176	79.5473	555.176	79.4785	555.176	79.352	555.176	79.2539	555.176	78.9876	555.176	78.8424	555.176	78.4412	555.176	78.2567	555.176	77.7337	555.176	77.553	555.176	76.9389	555.176	76.7943	555.176	76.1825	555.176	76.0183	555.176	75.5874	555.176	75.2717	555.176	75.1981	555.176	74.7039	555.176	74.9959	555.176	74.536	555.176	74.9847	555.176	74.8014	555.176	75.194	555.176	75.2738	555.176	75.5819	555.176	75.7274	555.176	76.0031	555.176	76.0755	555.176	76.2998	555.176	76.3061	555.176	76.3962
574.219	79.8706	574.219	79.7991	574.219	79.8521	574.219	79.6668	574.219	79.6945	574.219	79.4714	574.219	79.3939	574.219	79.2174	574.219	79.0112	574.219	78.9154	574.219	78.5998	574.219	78.5266	574.219	78.1263	574.219	77.9534	574.219	77.5059	574.219	77.1311	574.219	76.7313	574.219	76.1436	574.219	75.9527	574.219	75.241	574.219	75.3848	574.219	74.6816	574.219	75.1096	574.219	74.5534	574.219	75.0862	574.219	74.7981	574.219	75.3151	574.219	75.2888	574.219	75.8008	574.219	75.867	574.219	76.4121	574.219	76.4114	574.219	76.9269	574.219	76.8554	574.219	77.1814	574.219	77.1386
594.727	79.5124	594.727	79.6071	594.727	79.3788	594.727	79.6305	594.727	79.2247	594.727	79.5399	594.727	79.0353	594.727	79.2906	594.727	78.754	594.727	78.8717	594.727	78.3182	594.727	78.329	594.727	77.7149	594.727	77.715	594.727	76.9829	594.727	77.003	594.727	76.1492	594.727	76.1218	594.727	75.2194	594.727	75.1407	594.727	74.3113	594.727	74.3943	594.727	73.7535	594.727	74.2357	594.727	73.8161	594.727	74.6505	594.727	74.3844	594.727	75.3784	594.727	75.1517	594.727	76.1297	594.727	75.8556	594.727	76.6424	594.727	76.3414	594.727	76.8198	594.727	76.6119	594.727	76.7663
615.234	79.4313	615.234	79.5051	615.234	79.3364	615.234	79.5568	615.234	79.2235	615.234	79.5548	615.234	79.0978	615.234	79.4527	615.234	78.9152	615.234	79.2299	615.234	78.5834	615.234	78.8795	615.234	78.0475	615.234	78.3643	615.234	77.3314	615.234	77.6326	615.234	76.4663	615.234	76.698	615.234	75.4421	615.234	75.6871	615.234	74.3629	615.234	74.7883	615.234	73.6964	615.234	74.1861	615.234	73.9505	615.234	74.0336	615.234	74.8171	615.234	74.3353	615.234	75.6252	615.234	74.9191	615.234	76.1285	615.234	75.5882	615.234	76.4087	615.234	76.162	615.234	76.5493	615.234	76.494
637.207	79.6868	637.207	79.4877	637.207	79.8525	637.207	79.3669	637.207	79.857	637.207	79.3343	637.207	79.6611	637.207	79.3118	637.207	79.3235	637.207	79.2117	637.207	78.9137	637.207	78.9963	637.207	78.4405	637.207	78.6595	637.207	77.8725	637.207	78.1692	637.207	77.1708	637.207	77.4652	637.207	76.2941	637.207	76.5459	637.207	75.2841	637.207	75.5692	637.207	74.3852	637.207	74.8631	637.207	73.931	637.207	74.7351	637.207	74.138	637.207	75.1779	637.207	75.0173	637.207	75.8774	637.207	76.1863	637.207	76.5265	637.207	77.0935	637.207	77.0188	637.207	77.4593	637.207	77.3618
659.18	79.5281	659.18	79.3377	659.18	79.6077	659.18	79.0675	659.18	79.5542	659.18	78.7997	659.18	79.367	659.18	78.6224	659.18	79.0848	659.18	78.4737	659.18	78.7199	659.18	78.144	659.18	78.226	659.18	77.4874	659.18	77.5745	659.18	76.5814	659.18	76.7896	659.18	75.676	659.18	75.8852	659.18	74.9273	659.18	74.8885	659.18	74.3648	659.18	74.0455	659.18	74.2283	659.18	73.8291	659.18	74.7538	659.18	74.3148	659.18	75.6542	659.18	75.0462	659.18	76.5122	659.18	75.7368	659.18	77.1269	659.18	76.3737	659.18	77.4055	659.18	76.9365	659.18	77.3209
682.617	79.2507	682.617	79.4	682.617	79.0743	682.617	79.4471	682.617	78.9217	682.617	79.3126	682.617	78.7759	682.617	78.9843	682.617	78.5681	682.617	78.5737	682.617	78.2828	682.617	78.1927	682.617	77.9318	682.617	77.7447	682.617	77.4053	682.617	76.9981	682.617	76.515	682.617	75.9016	682.617	75.2473	682.617	74.7277	682.617	73.9226	682.617	73.8362	682.617	73.0054	682.617	73.4502	682.617	72.7615	682.617	73.6715	682.617	73.2816	682.617	74.2515	682.617	74.3082	682.617	74.8964	682.617	75.2872	682.617	75.57	682.617	75.9444	682.617	76.1588	682.617	76.323	682.617	76.4276
707.52	79.4954	707.52	79.5463	707.52	79.3632	707.52	79.4967	707.52	79.2174	707.52	79.3929	707.52	79.0957	707.52	79.287	707.52	78.9423	707.52	79.1635	707.52	78.6434	707.52	78.9254	707.52	78.1409	707.52	78.4708	707.52	77.4861	707.52	77.7925	707.52	76.6981	707.52	76.9508	707.52	75.6095	707.52	75.9015	707.52	74.0701	707.52	74.5069	707.52	72.4622	707.52	72.9864	707.52	71.6977	707.52	72.3574	707.52	71.9895	707.52	73.0961	707.52	72.9506	707.52	74.181	707.52	74.2543	707.52	74.9783	707.52	75.404	707.52	75.5524	707.52	75.9887	707.52	75.9571
732.422	79.0559	732.422	78.9953	732.422	79.1142	732.422	78.8991	732.422	79.1148	732.422	78.7797	732.422	78.9413	732.422	78.6755	732.422	78.5922	732.422	78.4885	732.422	78.2172	732.422	78.112	732.422	77.8702	732.422	77.6249	732.422	77.3816	732.422	77.0494	732.422	76.6337	732.422	76.0854	732.422	75.7299	732.422	74.5417	732.422	74.6992	732.422	73.0162	732.422	73.3481	732.422	72.3617	732.422	72.0323	732.422	72.2786	732.422	71.7995	732.422	72.6599	732.422	72.4565	732.422	73.7356	732.422	73.2891	732.422	74.8379	732.422	74.1898	732.422	75.3972	732.422	74.964	732.422	75.3982
757.324	79.1324	757.324	78.9038	757.324	79.1582	757.324	78.5989	757.324	78.9846	757.324	78.3447	757.324	78.7265	757.324	78.1813	757.324	78.455	757.324	78.0614	757.324	78.1891	757.324	77.8716	757.324	77.9766	757.324	77.5115	757.324	77.7395	757.324	76.98	757.324	77.1602	757.324	76.3094	757.324	76.001	757.324	75.3826	757.324	74.48	757.324	74.0023	757.324	73.119	757.324	72.4893	757.324	72.1937	757.324	72.0782	757.324	72.1735	757.324	72.9687	757.324	73.2762	757.324	74.1011	757.324	74.435	757.324	75.0531	757.324	75.1105	757.324	75.6652	757.324	75.5351	757.324	75.7939
785.156	78.912	785.156	79.0867	785.156	78.6632	785.156	79.1	785.156	78.5283	785.156	79.0677	785.156	78.5014	785.156	78.9864	785.156	78.4255	785.156	78.6716	785.156	78.1843	785.156	78.1102	785.156	77.7713	785.156	77.4608	785.156	77.225	785.156	76.6938	785.156	76.4893	785.156	75.6498	785.156	75.4052	785.156	74.2837	785.156	73.9703	785.156	72.6883	785.156	72.736	785.156	71.6209	785.156	72.2341	785.156	72.0942	785.156	72.2076	785.156	73.1257	785.156	72.6702	785.156	73.7999	785.156	73.6679	785.156	74.3133	785.156	74.5906	785.156	74.7726	785.156	75.0258	785.156	75.0379
811.523	78.8411	811.523	78.9897	811.523	78.6967	811.523	78.9412	811.523	78.6093	811.523	78.6311	811.523	78.5079	811.523	78.3304	811.523	78.3223	811.523	78.2079	811.523	78.0873	811.523	78.0177	811.523	77.8628	811.523	77.6013	811.523	77.5274	811.523	77.0551	811.523	76.8441	811.523	76.2653	811.523	75.7281	811.523	74.9649	811.523	74.3191	811.523	73.4729	811.523	72.9151	811.523	72.7282	811.523	72.0741	811.523	72.6477	811.523	72.3584	811.523	73.0128	811.523	73.4507	811.523	74.1441	811.523	74.7412	811.523	75.2582	811.523	75.8689	811.523	75.9193	811.523	76.4534	811.523	76.3621
840.82	79.3938	840.82	79.3269	840.82	79.4883	840.82	79.2484	840.82	79.5416	840.82	79.075	840.82	79.3521	840.82	78.7681	840.82	78.9062	840.82	78.4705	840.82	78.5728	840.82	78.2864	840.82	78.4653	840.82	77.8808	840.82	78.0791	840.82	76.771	840.82	77.1379	840.82	75.108	840.82	75.8417	840.82	73.6659	840.82	74.2866	840.82	72.1922	840.82	72.6206	840.82	70.3137	840.82	71.9788	840.82	70.9931	840.82	72.8085	840.82	73.2442	840.82	73.8628	840.82	74.4784	840.82	74.5442	840.82	75.2089	840.82	74.9715	840.82	75.7794	840.82	75.4507	840.82	75.8588
870.117	79.5314	870.117	79.2601	870.117	79.5088	870.117	78.8759	870.117	79.3396	870.117	78.725	870.117	79.3279	870.117	78.8709	870.117	79.3813	870.117	79.0225	870.117	79.1088	870.117	79.0182	870.117	78.5736	870.117	78.918	870.117	78.0902	870.117	78.4999	870.117	77.3698	870.117	77.1934	870.117	75.83	870.117	74.7473	870.117	73.4049	870.117	71.9849	870.117	71.2579	870.117	70.5107	870.117	71.4368	870.117	71.2582	870.117	73.3104	870.117	73.4254	870.117	75.4893	870.117	75.4329	870.117	77.2002	870.117	77.0209	870.117	78.0947	870.117	78.1141	870.117	78.4388	870.117	78.5213
900.879	80.2896	900.879	80.313	900.879	80.0356	900.879	80.0333	900.879	79.7409	900.879	79.6787	900.879	79.4726	900.879	79.4797	900.879	79.4252	900.879	79.5361	900.879	79.7061	900.879	79.7081	900.879	80.0613	900.879	79.5758	900.879	80.1681	900.879	78.9443	900.879	79.6941	900.879	78.0061	900.879	78.2844	900.879	76.6355	900.879	75.6207	900.879	73.7627	900.879	71.3705	900.879	67.7903	900.879	67.4475	900.879	67.6751	900.879	70.3698	900.879	72.5128	900.879	74.1154	900.879	75.3742	900.879	76.6841	900.879	77.2641	900.879	78.1302	900.879	78.2422	900.879	78.6213	900.879	78.5807
933.105	80.8875	933.105	80.6028	933.105	80.7709	933.105	80.1629	933.105	80.08	933.105	79.4995	933.105	79.2441	933.105	78.8829	933.105	78.8669	933.105	78.7378	933.105	79.0399	933.105	79.1704	933.105	79.3972	933.105	80.0947	933.105	79.5832	933.105	80.6804	933.105	79.4853	933.105	80.1309	933.105	78.9331	933.105	78.3463	933.105	77.4093	933.105	75.526	933.105	74.117	933.105	70.7346	933.105	67.7178	933.105	59.7227	933.105	69.4832	933.105	70.7999	933.105	75.3353	933.105	75.6887	933.105	78.1909	933.105	77.8093	933.105	79.6187	933.105	79.0728	933.105	80.1822	933.105	79.9418
965.332	82.4719	965.332	82.215	965.332	82.1383	965.332	81.6103	965.332	81.4441	965.332	80.861	965.332	80.6556	965.332	79.8394	965.332	79.7734	965.332	79.0307	965.332	79.0364	965.332	78.959	965.332	79.2825	965.332	79.2837	965.332	80.2905	965.332	79.7214	965.332	80.7727	965.332	79.9053	965.332	80.2747	965.332	79.5622	965.332	78.8357	965.332	78.1407	965.332	75.7524	965.332	74.441	965.332	68.5185	965.332	66.035	965.332	61.0857	965.332	66.9908	965.332	72.5339	965.332	74.194	965.332	76.5695	965.332	77.816	965.332	78.7206	965.332	79.5778	965.332	79.9343	965.332	80.2189
1,000.49	80.7835	1,000.49	80.5457	1,000.49	80.5816	1,000.49	79.7063	1,000.49	79.719	1,000.49	78.0059	1,000.49	78.2801	1,000.49	75.8102	1,000.49	76.4009	1,000.49	73.5336	1,000.49	73.5408	1,000.49	72.0264	1,000.49	70.6818	1,000.49	72.7655	1,000.49	71.0901	1,000.49	75.2313	1,000.49	72.2753	1,000.49	77.5907	1,000.49	73.2449	1,000.49	78.1037	1,000.49	73.9165	1,000.49	76.624	1,000.49	73.3485	1,000.49	73.9504	1,000.49	71.829	1,000.49	69.0385	1,000.49	71.1459	1,000.49	65.1166	1,000.49	72.7324	1,000.49	73.7858	1,000.49	75.8627	1,000.49	76.9694	1,000.49	78.2637	1,000.49	78.2832	1,000.49	79.2531	1,000.49	79.0934
1,035.64	81.7883	1,035.64	81.7079	1,035.64	81.5294	1,035.64	81.8059	1,035.64	80.9886	1,035.64	81.8769	1,035.64	80.5754	1,035.64	81.4892	1,035.64	80.4127	1,035.64	80.707	1,035.64	80.4428	1,035.64	79.9309	1,035.64	80.9476	1,035.64	80.2799	1,035.64	82.0318	1,035.64	81.3171	1,035.64	83.0878	1,035.64	81.9072	1,035.64	83.6457	1,035.64	82.1065	1,035.64	83.3581	1,035.64	81.6733	1,035.64	81.8865	1,035.64	79.7211	1,035.64	78.6904	1,035.64	75.4386	1,035.64	73.2049	1,035.64	68.9832	1,035.64	73.0249	1,035.64	72.7326	1,035.64	77.0922	1,035.64	77.901	1,035.64	79.208	1,035.64	80.2889	1,035.64	80.4406	1,035.64	80.9649
1,072.27	83.0914	1,072.27	83.5769	1,072.27	82.1182	1,072.27	83.2864	1,072.27	80.8586	1,072.27	82.5429	1,072.27	79.3794	1,072.27	81.8226	1,072.27	77.4398	1,072.27	80.8046	1,072.27	73.7981	1,072.27	79.2082	1,072.27	64.8965	1,072.27	77.955	1,072.27	63.2314	1,072.27	78.1233	1,072.27	69.855	1,072.27	79.3789	1,072.27	71.7509	1,072.27	79.8571	1,072.27	73.2703	1,072.27	78.4108	1,072.27	73.9675	1,072.27	74.9669	1,072.27	72.9948	1,072.27	67.1101	1,072.27	70.6596	1,072.27	64.182	1,072.27	71.4981	1,072.27	74.8606	1,072.27	75.8312	1,072.27	79.0447	1,072.27	79.4138	1,072.27	80.8202	1,072.27	81.1581	1,072.27	81.3723
1,108.89	81.8766	1,108.89	81.6257	1,108.89	81.778	1,108.89	81.5208	1,108.89	81.2971	1,108.89	81.4643	1,108.89	80.7487	1,108.89	81.2024	1,108.89	79.542	1,108.89	80.4341	1,108.89	77.0729	1,108.89	78.7703	1,108.89	74.2057	1,108.89	76.798	1,108.89	74.3168	1,108.89	77.0179	1,108.89	76.8759	1,108.89	78.7664	1,108.89	79.1751	1,108.89	79.5136	1,108.89	79.9632	1,108.89	78.851	1,108.89	78.8036	1,108.89	75.9019	1,108.89	75.9044	1,108.89	68.2805	1,108.89	69.4166	1,108.89	66.3903	1,108.89	65.4753	1,108.89	75.173	1,108.89	73.6466	1,108.89	78.7537	1,108.89	76.8735	1,108.89	79.8838	1,108.89	79.2022	1,108.89	80.1441
1,148.44	82.0124	1,148.44	82.0914	1,148.44	81.8502	1,148.44	82.5757	1,148.44	81.5346	1,148.44	83.2575	1,148.44	81.5275	1,148.44	83.3236	1,148.44	81.5928	1,148.44	82.7556	1,148.44	80.9294	1,148.44	81.4924	1,148.44	79.4055	1,148.44	79.6453	1,148.44	76.3886	1,148.44	78.7154	1,148.44	71.2539	1,148.44	78.2085	1,148.44	65.0311	1,148.44	78.6093	1,148.44	65.4705	1,148.44	78.647	1,148.44	71.0663	1,148.44	77.1687	1,148.44	73.7932	1,148.44	73.0988	1,148.44	74.5273	1,148.44	66.6625	1,148.44	74.2516	1,148.44	72.6929	1,148.44	73.4655	1,148.44	76.7351	1,148.44	74.4393	1,148.44	77.9701	1,148.44	76.3922	1,148.44	77.4807
1,189.45	83.3536	1,189.45	83.5272	1,189.45	83.0068	1,189.45	83.5173	1,189.45	82.5868	1,189.45	83.5063	1,189.45	82.4252	1,189.45	83.3313	1,189.45	82.5673	1,189.45	82.4736	1,189.45	82.1205	1,189.45	81.0143	1,189.45	81.2223	1,189.45	79.3713	1,189.45	79.8969	1,189.45	77.2343	1,189.45	77.5386	1,189.45	76.9419	1,189.45	75.1104	1,189.45	78.026	1,189.45	74.5141	1,189.45	77.821	1,189.45	76.14	1,189.45	76.889	1,189.45	76.9259	1,189.45	76.5232	1,189.45	76.6178	1,189.45	76.9281	1,189.45	75.5023	1,189.45	77.4026	1,189.45	74.18	1,189.45	77.4155	1,189.45	73.5776	1,189.45	77.2299	1,189.45	74.6759	1,189.45	76.5117
1,230.47	82.201	1,230.47	82.3003	1,230.47	81.9923	1,230.47	82.169	1,230.47	81.5951	1,230.47	82.0214	1,230.47	81.1294	1,230.47	82.077	1,230.47	80.7786	1,230.47	81.5804	1,230.47	80.3669	1,230.47	80.3425	1,230.47	79.9468	1,230.47	78.9239	1,230.47	79.231	1,230.47	77.8442	1,230.47	78.1784	1,230.47	76.9435	1,230.47	76.8619	1,230.47	75.9574	1,230.47	75.0945	1,230.47	75.7139	1,230.47	74.5345	1,230.47	74.7936	1,230.47	74.4736	1,230.47	72.3952	1,230.47	73.1045	1,230.47	70.1389	1,230.47	71.054	1,230.47	67.4997	1,230.47	68.8629	1,230.47	62.3938	1,230.47	65.2108	1,230.47	38.0073	1,230.47	55.2075	1,230.47	56.7825
1,274.41	84.2144	1,274.41	83.8321	1,274.41	84.4466	1,274.41	83.3678	1,274.41	84.4195	1,274.41	82.9518	1,274.41	83.8714	1,274.41	82.3701	1,274.41	83.0267	1,274.41	80.9233	1,274.41	82.117	1,274.41	78.5075	1,274.41	80.7799	1,274.41	76.3736	1,274.41	79.2254	1,274.41	75.633	1,274.41	77.4762	1,274.41	74.2453	1,274.41	75.9408	1,274.41	72.9103	1,274.41	74.3849	1,274.41	74.3272	1,274.41	73.9738	1,274.41	75.1558	1,274.41	74.2037	1,274.41	74.3845	1,274.41	72.7321	1,274.41	74.1266	1,274.41	70.5346	1,274.41	74.3636	1,274.41	68.3627	1,274.41	73.0067	1,274.41	68.79	1,274.41	72.6847	1,274.41	71.2172	1,274.41	73.0009
1,319.82	81.7089	1,319.82	81.9305	1,319.82	81.3883	1,319.82	81.7301	1,319.82	81.4254	1,319.82	81.1412	1,319.82	80.9233	1,319.82	80.057	1,319.82	79.7022	1,319.82	78.6932	1,319.82	78.5032	1,319.82	77.6295	1,319.82	77.3116	1,319.82	76.302	1,319.82	76.0861	1,319.82	74.3776	1,319.82	74.4688	1,319.82	73.0447	1,319.82	73.8904	1,319.82	73.8784	1,319.82	74.0567	1,319.82	74.6715	1,319.82	74.6501	1,319.82	74.2979	1,319.82	74.0984	1,319.82	73.6334	1,319.82	72.7398	1,319.82	71.1839	1,319.82	71.199	1,319.82	68.0773	1,319.82	71.8982	1,319.82	68.6562	1,319.82	74.1815	1,319.82	71.8535	1,319.82	74.0225	1,319.82	73.5509
1,366.7	82.1682	1,366.7	82.1237	1,366.7	82.0459	1,366.7	81.7699	1,366.7	81.6346	1,366.7	80.5566	1,366.7	81.5231	1,366.7	79.8412	1,366.7	80.743	1,366.7	78.8782	1,366.7	79.5957	1,366.7	77.7882	1,366.7	78.4593	1,366.7	76.6161	1,366.7	76.9611	1,366.7	75.8042	1,366.7	75.6164	1,366.7	77.0071	1,366.7	73.8617	1,366.7	77.9828	1,366.7	72.9746	1,366.7	78.2516	1,366.7	71.8341	1,366.7	78.2697	1,366.7	71.2195	1,366.7	77.8751	1,366.7	69.6281	1,366.7	75.798	1,366.7	67.8526	1,366.7	73.4154	1,366.7	68.2775	1,366.7	72.5301	1,366.7	70.9673	1,366.7	73.8741	1,366.7	73.6143	1,366.7	74.017
1,413.57	82.5947	1,413.57	82.2082	1,413.57	82.4017	1,413.57	81.8111	1,413.57	81.7113	1,413.57	81.4468	1,413.57	80.5828	1,413.57	80.2818	1,413.57	79.8339	1,413.57	79.39	1,413.57	79.3972	1,413.57	78.4419	1,413.57	78.5451	1,413.57	76.1409	1,413.57	77.7001	1,413.57	72.7419	1,413.57	75.9707	1,413.57	70.0776	1,413.57	75.4155	1,413.57	69.1913	1,413.57	75.14	1,413.57	70.1001	1,413.57	74.663	1,413.57	71.3176	1,413.57	72.9335	1,413.57	68.6953	1,413.57	69.3804	1,413.57	66.3967	1,413.57	65.957	1,413.57	67.9423	1,413.57	70.5013	1,413.57	70.8582	1,413.57	73.5958	1,413.57	73.4354	1,413.57	75.0434	1,413.57	75.2352
1,463.38	82.8608	1,463.38	83.064	1,463.38	82.7382	1,463.38	82.7567	1,463.38	82.2561	1,463.38	82.2645	1,463.38	81.5043	1,463.38	81.6896	1,463.38	81.1573	1,463.38	80.488	1,463.38	80.3179	1,463.38	79.1674	1,463.38	78.4973	1,463.38	77.6357	1,463.38	76.6793	1,463.38	75.2021	1,463.38	75.7945	1,463.38	73.2031	1,463.38	74.5268	1,463.38	72.671	1,463.38	74.7368	1,463.38	74.6867	1,463.38	75.449	1,463.38	74.6917	1,463.38	74.7092	1,463.38	72.5524	1,463.38	72.4733	1,463.38	70.4951	1,463.38	67.6655	1,463.38	70.6586	1,463.38	66.8862	1,463.38	72.9993	1,463.38	71.5229	1,463.38	74.4904	1,463.38	74.6797	1,463.38	75.3788
1,516.11	81.9851	1,516.11	82.2803	1,516.11	81.4904	1,516.11	81.7894	1,516.11	81.2725	1,516.11	81.1524	1,516.11	80.5249	1,516.11	80.4535	1,516.11	79.6477	1,516.11	79.4407	1,516.11	78.661	1,516.11	78.3998	1,516.11	76.8868	1,516.11	77.0239	1,516.11	74.4766	1,516.11	75.4744	1,516.11	73.1525	1,516.11	73.9079	1,516.11	72.9921	1,516.11	73.3938	1,516.11	75.1051	1,516.11	74.5843	1,516.11	76.5172	1,516.11	73.8291	1,516.11	75.8465	1,516.11	72.2541	1,516.11	73.9522	1,516.11	67.5483	1,516.11	67.3757	1,516.11	55.0033	1,516.11	58.4639	1,516.11	65.3013	1,516.11	65.9977	1,516.11	68.3429	1,516.11	69.9781	1,516.11	70.7593
1,568.85	79.1882	1,568.85	79.5808	1,568.85	78.1642	1,568.85	79.6957	1,568.85	77.4409	1,568.85	79.1048	1,568.85	77.9878	1,568.85	78.4045	1,568.85	77.6608	1,568.85	78.1972	1,568.85	77.0791	1,568.85	77.174	1,568.85	76.3488	1,568.85	75.9395	1,568.85	75.0919	1,568.85	74.2103	1,568.85	74.3033	1,568.85	72.2486	1,568.85	72.8745	1,568.85	73.5084	1,568.85	71.4362	1,568.85	74.1143	1,568.85	71.0826	1,568.85	73.6104	1,568.85	70.2506	1,568.85	72.8546	1,568.85	67.8184	1,568.85	69.1185	1,568.85	63.3802	1,568.85	59.9776	1,568.85	58.46	1,568.85	54.5304	1,568.85	54.5273	1,568.85	61.7011	1,568.85	57.4053	1,568.85	61.7059
1,624.51	79.8856	1,624.51	79.783	1,624.51	79.9878	1,624.51	79.341	1,624.51	79.3239	1,624.51	78.632	1,624.51	78.6498	1,624.51	77.7931	1,624.51	78.5411	1,624.51	77.295	1,624.51	77.8034	1,624.51	75.7113	1,624.51	76.8857	1,624.51	73.8022	1,624.51	76.0015	1,624.51	70.5385	1,624.51	73.8607	1,624.51	68.1144	1,624.51	71.4398	1,624.51	69.0315	1,624.51	70.4691	1,624.51	71.1703	1,624.51	69.9559	1,624.51	71.9706	1,624.51	70.4582	1,624.51	71.8285	1,624.51	70.6975	1,624.51	68.2538	1,624.51	68.441	1,624.51	63.1252	1,624.51	65.3067	1,624.51	61.3984	1,624.51	66.5776	1,624.51	65.7389	1,624.51	68.8409	1,624.51	69.1326
1,681.64	81.7596	1,681.64	81.2395	1,681.64	81.7984	1,681.64	80.5015	1,681.64	81.1421	1,681.64	79.8441	1,681.64	79.861	1,681.64	78.5158	1,681.64	78.6132	1,681.64	77.9611	1,681.64	77.1789	1,681.64	77.1625	1,681.64	76.4273	1,681.64	76.0097	1,681.64	76.5117	1,681.64	74.8619	1,681.64	74.6589	1,681.64	73.7661	1,681.64	71.8104	1,681.64	69.839	1,681.64	70.6409	1,681.64	70.9043	1,681.64	71.6098	1,681.64	72.8408	1,681.64	70.3114	1,681.64	73.023	1,681.64	68.3248	1,681.64	71.1347	1,681.64	66.3052	1,681.64	69.6398	1,681.64	65.7965	1,681.64	69.1909	1,681.64	68.3812	1,681.64	71.0337	1,681.64	72.6635	1,681.64	73.2276
1,741.7	82.0781	1,741.7	81.8144	1,741.7	81.4973	1,741.7	81.0838	1,741.7	80.869	1,741.7	79.9285	1,741.7	80.0272	1,741.7	78.835	1,741.7	78.8226	1,741.7	78.0608	1,741.7	77.4219	1,741.7	77.0932	1,741.7	76.5466	1,741.7	75.7889	1,741.7	75.655	1,741.7	74.0378	1,741.7	74.3699	1,741.7	71.155	1,741.7	73.2911	1,741.7	66.3507	1,741.7	72.721	1,741.7	69.9493	1,741.7	72.9439	1,741.7	72.4668	1,741.7	73.5752	1,741.7	72.5331	1,741.7	72.5467	1,741.7	70.035	1,741.7	68.5892	1,741.7	66.0312	1,741.7	65.7147	1,741.7	59.3594	1,741.7	69.058	1,741.7	69.5803	1,741.7	71.1227	1,741.7	71.4838
1,803.22	82.0451	1,803.22	82.0862	1,803.22	81.3638	1,803.22	81.8596	1,803.22	80.607	1,803.22	80.795	1,803.22	79.3597	1,803.22	80.1301	1,803.22	77.9241	1,803.22	78.6243	1,803.22	76.9485	1,803.22	77.703	1,803.22	76.165	1,803.22	76.7731	1,803.22	75.6414	1,803.22	76.015	1,803.22	73.9303	1,803.22	73.8843	1,803.22	70.0954	1,803.22	71.5811	1,803.22	69.0635	1,803.22	71.1839	1,803.22	70.3642	1,803.22	72.1496	1,803.22	71.3571	1,803.22	73.106	1,803.22	71.3879	1,803.22	72.6444	1,803.22	68.6082	1,803.22	68.7549	1,803.22	58.3152	1,803.22	61.5538	1,803.22	63.3998	1,803.22	66.3227	1,803.22	68.9346	1,803.22	69.5884
1,866.21	81.245	1,866.21	81.0991	1,866.21	80.4727	1,866.21	80.6256	1,866.21	80.2349	1,866.21	80.083	1,866.21	79.0106	1,866.21	79.1621	1,866.21	77.274	1,866.21	77.7457	1,866.21	76.0255	1,866.21	76.5084	1,866.21	74.9394	1,866.21	75.8973	1,866.21	73.6669	1,866.21	74.7129	1,866.21	72.2969	1,866.21	72.7437	1,866.21	70.1829	1,866.21	71.0891	1,866.21	68.3052	1,866.21	71.0054	1,866.21	67.8122	1,866.21	71.7318	1,866.21	70.1256	1,866.21	72.0855	1,866.21	70.5657	1,866.21	70.6646	1,866.21	68.6624	1,866.21	65.2938	1,866.21	61.8595	1,866.21	63.9256	1,866.21	62.5911	1,866.21	68.3224	1,866.21	69.2767	1,866.21	69.895
1,932.13	80.0583	1,932.13	80.6024	1,932.13	79.9576	1,932.13	80.0445	1,932.13	78.988	1,932.13	79.6724	1,932.13	78.2709	1,932.13	78.5304	1,932.13	76.3868	1,932.13	77.05	1,932.13	74.743	1,932.13	75.7885	1,932.13	74.0809	1,932.13	74.6752	1,932.13	73.3871	1,932.13	74.2734	1,932.13	72.0378	1,932.13	72.2755	1,932.13	70.432	1,932.13	69.4599	1,932.13	67.2702	1,932.13	69.9429	1,932.13	67.4692	1,932.13	69.7881	1,932.13	69.2731	1,932.13	69.444	1,932.13	68.7853	1,932.13	68.3422	1,932.13	67.4757	1,932.13	64.9371	1,932.13	63.4913	1,932.13	66.6383	1,932.13	62.9714	1,932.13	70.8771	1,932.13	69.3903	1,932.13	71.5042
1,999.51	80.7327	1,999.51	80.4931	1,999.51	80.4641	1,999.51	79.9802	1,999.51	79.9534	1,999.51	79.0269	1,999.51	79.0144	1,999.51	77.763	1,999.51	77.8247	1,999.51	76.4919	1,999.51	76.6622	1,999.51	75.2053	1,999.51	75.5224	1,999.51	74.4168	1,999.51	74.6514	1,999.51	72.9577	1,999.51	73.6049	1,999.51	71.3701	1,999.51	71.6649	1,999.51	69.0974	1,999.51	69.5374	1,999.51	67.7073	1,999.51	69.3287	1,999.51	69.904	1,999.51	70.8787	1,999.51	70.5943	1,999.51	71.5144	1,999.51	68.8454	1,999.51	69.8438	1,999.51	64.2322	1,999.51	64.6095	1,999.51	61.1467	1,999.51	62.4094	1,999.51	65.9818	1,999.51	66.5405	1,999.51	68.1573
2,069.82	81.4328	2,069.82	81.2242	2,069.82	81.2443	2,069.82	80.6914	2,069.82	80.4535	2,069.82	79.5981	2,069.82	79.4628	2,069.82	78.122	2,069.82	77.7911	2,069.82	76.2489	2,069.82	76.3497	2,069.82	74.5349	2,069.82	75.3043	2,069.82	74.0312	2,069.82	74.665	2,069.82	73.3062	2,069.82	73.8176	2,069.82	71.6012	2,069.82	71.8205	2,069.82	68.494	2,069.82	69.2134	2,069.82	66.4253	2,069.82	68.5526	2,069.82	68.8531	2,069.82	70.9335	2,069.82	70.5844	2,069.82	71.8677	2,069.82	69.9132	2,069.82	70.1324	2,069.82	65.4234	2,069.82	64.9957	2,069.82	61.3016	2,069.82	64.0055	2,069.82	66.6948	2,069.82	68.1667	2,069.82	69.2152
2,143.07	81.4712	2,143.07	81.2576	2,143.07	81.2469	2,143.07	80.6317	2,143.07	80.6079	2,143.07	80.0465	2,143.07	79.599	2,143.07	78.7537	2,143.07	77.9171	2,143.07	77.1991	2,143.07	76.1822	2,143.07	75.1196	2,143.07	74.6491	2,143.07	73.9078	2,143.07	73.629	2,143.07	72.6107	2,143.07	73.1055	2,143.07	72.0427	2,143.07	71.7344	2,143.07	69.8107	2,143.07	69.1992	2,143.07	65.7976	2,143.07	67.5768	2,143.07	66.9314	2,143.07	68.7577	2,143.07	69.9275	2,143.07	70.6292	2,143.07	69.8618	2,143.07	69.4885	2,143.07	66.5625	2,143.07	65.4131	2,143.07	61.5616	2,143.07	63.565	2,143.07	66.1817	2,143.07	68.5556	2,143.07	68.7514
2,219.24	80.6523	2,219.24	80.5761	2,219.24	80.5207	2,219.24	80.1619	2,219.24	79.6704	2,219.24	79.4487	2,219.24	78.7514	2,219.24	78.373	2,219.24	76.9412	2,219.24	76.871	2,219.24	75.2506	2,219.24	75.5125	2,219.24	73.3821	2,219.24	73.6494	2,219.24	72.0582	2,219.24	73.4222	2,219.24	71.6635	2,219.24	72.2188	2,219.24	69.4769	2,219.24	70.9629	2,219.24	68.487	2,219.24	68.21	2,219.24	65.8219	2,219.24	66.5274	2,219.24	66.7445	2,219.24	68.8875	2,219.24	68.8314	2,219.24	69.1384	2,219.24	68.2231	2,219.24	66.8881	2,219.24	63.8398	2,219.24	60.8675	2,219.24	61.2874	2,219.24	65.8379	2,219.24	67.2614	2,219.24	67.9578
2,296.88	80.2224	2,296.88	80.0995	2,296.88	79.9117	2,296.88	79.5772	2,296.88	79.2973	2,296.88	78.8527	2,296.88	78.2625	2,296.88	77.8671	2,296.88	77.1704	2,296.88	76.149	2,296.88	75.0192	2,296.88	74.8859	2,296.88	73.1476	2,296.88	73.2709	2,296.88	71.2293	2,296.88	71.5902	2,296.88	70.7825	2,296.88	70.8085	2,296.88	69.4358	2,296.88	69.0865	2,296.88	68.1065	2,296.88	67.9312	2,296.88	66.1456	2,296.88	65.8515	2,296.88	65.5503	2,296.88	67.3952	2,296.88	67.3708	2,296.88	68.6463	2,296.88	67.1949	2,296.88	66.8107	2,296.88	63.4736	2,296.88	62.8611	2,296.88	58.1923	2,296.88	66.863	2,296.88	65.1569	2,296.88	67.185
2,378.91	80.3229	2,378.91	80.2138	2,378.91	80.4187	2,378.91	79.4853	2,378.91	79.6754	2,378.91	78.5844	2,378.91	78.9433	2,378.91	77.4527	2,378.91	77.8201	2,378.91	76.2066	2,378.91	76.4095	2,378.91	74.2258	2,378.91	75.2369	2,378.91	71.9832	2,378.91	73.3	2,378.91	70.7777	2,378.91	71.6461	2,378.91	69.0548	2,378.91	69.7609	2,378.91	68.6928	2,378.91	69.6894	2,378.91	65.6922	2,378.91	67.6141	2,378.91	65.9142	2,378.91	67.0482	2,378.91	66.2994	2,378.91	68.0409	2,378.91	67.5289	2,378.91	68.2565	2,378.91	64.2797	2,378.91	66.1096	2,378.91	60.0314	2,378.91	62.0977	2,378.91	65.4243	2,378.91	65.289	2,378.91	66.5347
2,462.4	82.2376	2,462.4	82.0381	2,462.4	81.8926	2,462.4	81.2905	2,462.4	81.312	2,462.4	80.4891	2,462.4	80.2986	2,462.4	79.2214	2,462.4	79.4084	2,462.4	77.9377	2,462.4	77.9811	2,462.4	75.7087	2,462.4	76.5734	2,462.4	74.3924	2,462.4	74.862	2,462.4	72.4387	2,462.4	73.3791	2,462.4	71.3799	2,462.4	72.6357	2,462.4	70.0182	2,462.4	71.1327	2,462.4	68.3744	2,462.4	69.335	2,462.4	63.9385	2,462.4	68.1963	2,462.4	65.4346	2,462.4	70.3271	2,462.4	68.1459	2,462.4	69.7288	2,462.4	66.3817	2,462.4	67.042	2,462.4	59.4771	2,462.4	64.7156	2,462.4	65.0648	2,462.4	67.5503	2,462.4	68.8047
2,548.83	83.1858	2,548.83	83.0631	2,548.83	82.7423	2,548.83	82.3432	2,548.83	81.9803	2,548.83	81.6662	2,548.83	80.9097	2,548.83	80.5523	2,548.83	79.756	2,548.83	79.1072	2,548.83	78.1239	2,548.83	77.7629	2,548.83	76.9073	2,548.83	75.4678	2,548.83	74.8956	2,548.83	74.5803	2,548.83	73.6235	2,548.83	72.8255	2,548.83	72.053	2,548.83	72.6532	2,548.83	70.9429	2,548.83	70.4566	2,548.83	68.3437	2,548.83	67.8908	2,548.83	67.6458	2,548.83	66.4398	2,548.83	69.7895	2,548.83	70.1967	2,548.83	69.9521	2,548.83	68.2808	2,548.83	65.4111	2,548.83	64.6086	2,548.83	63.7151	2,548.83	66.9606	2,548.83	67.9263	2,548.83	70.5064
2,639.65	82.593	2,639.65	82.6099	2,639.65	82.5596	2,639.65	82.1033	2,639.65	81.3634	2,639.65	81.0567	2,639.65	80.4782	2,639.65	80.1409	2,639.65	78.9556	2,639.65	78.7173	2,639.65	77.4627	2,639.65	77.5725	2,639.65	75.7289	2,639.65	75.1348	2,639.65	73.9862	2,639.65	74.705	2,639.65	73.112	2,639.65	72.8647	2,639.65	71.6295	2,639.65	72.7372	2,639.65	70.0869	2,639.65	70.5633	2,639.65	67.4305	2,639.65	68.559	2,639.65	67.0556	2,639.65	67.4268	2,639.65	66.9375	2,639.65	68.5953	2,639.65	68.8602	2,639.65	68.9486	2,639.65	66.2872	2,639.65	64.6451	2,639.65	62.2051	2,639.65	63.6796	2,639.65	67.7029	2,639.65	69.6701
2,731.93	82.2829	2,731.93	82.3116	2,731.93	82.024	2,731.93	81.5395	2,731.93	81.3275	2,731.93	80.5879	2,731.93	79.9765	2,731.93	79.0696	2,731.93	78.8235	2,731.93	77.971	2,731.93	77.1033	2,731.93	76.3614	2,731.93	75.1055	2,731.93	74.1792	2,731.93	73.2357	2,731.93	73.6475	2,731.93	72.4627	2,731.93	72.0189	2,731.93	72.1505	2,731.93	71.5076	2,731.93	70.037	2,731.93	69.7991	2,731.93	68.4087	2,731.93	66.7881	2,731.93	67.1617	2,731.93	65.4541	2,731.93	66.126	2,731.93	68.1191	2,731.93	68.5114	2,731.93	68.2107	2,731.93	64.814	2,731.93	60.0768	2,731.93	61.719	2,731.93	65.5713	2,731.93	66.3488	2,731.93	68.9172
2,828.61	83.0389	2,828.61	82.8313	2,828.61	82.8088	2,828.61	82.3037	2,828.61	81.9598	2,828.61	81.1115	2,828.61	80.8719	2,828.61	79.8735	2,828.61	79.7686	2,828.61	78.6609	2,828.61	78.3764	2,828.61	77.1511	2,828.61	76.1697	2,828.61	74.5121	2,828.61	74.5019	2,828.61	73.0663	2,828.61	72.6298	2,828.61	71.5099	2,828.61	72.3582	2,828.61	71.0575	2,828.61	70.5681	2,828.61	69.3976	2,828.61	70.0511	2,828.61	69.1679	2,828.61	66.7614	2,828.61	65.7778	2,828.61	67.1538	2,828.61	67.2571	2,828.61	67.9339	2,828.61	68.2213	2,828.61	66.9313	2,828.61	61.0241	2,828.61	62.5616	2,828.61	64.9838	2,828.61	67.1899	2,828.61	69.4511
2,928.22	83.8446	2,928.22	83.6898	2,928.22	83.4394	2,928.22	82.8717	2,928.22	82.8921	2,928.22	82.0271	2,928.22	81.703	2,928.22	80.8026	2,928.22	80.2882	2,928.22	79.795	2,928.22	79.7498	2,928.22	78.4771	2,928.22	78.0096	2,928.22	76.738	2,928.22	75.6147	2,928.22	73.5918	2,928.22	74.0812	2,928.22	72.5233	2,928.22	72.0234	2,928.22	71.3659	2,928.22	70.2977	2,928.22	69.9611	2,928.22	70.9451	2,928.22	69.3447	2,928.22	67.5355	2,928.22	67.1094	2,928.22	66.7421	2,928.22	69.4699	2,928.22	69.0256	2,928.22	68.5653	2,928.22	68.7414	2,928.22	62.1734	2,928.22	61.3156	2,928.22	63.3444	2,928.22	67.4457	2,928.22	69.1694
3,030.76	84.1545	3,030.76	83.8433	3,030.76	83.7135	3,030.76	83.3235	3,030.76	83.1355	3,030.76	82.3623	3,030.76	81.8738	3,030.76	81.1853	3,030.76	80.2796	3,030.76	79.6859	3,030.76	79.6111	3,030.76	78.9894	3,030.76	78.2633	3,030.76	77.7117	3,030.76	76.7823	3,030.76	74.7905	3,030.76	74.5504	3,030.76	73.9305	3,030.76	73.1814	3,030.76	71.7962	3,030.76	71.1815	3,030.76	70.1834	3,030.76	69.4505	3,030.76	70.4341	3,030.76	68.872	3,030.76	67.7647	3,030.76	67.479	3,030.76	68.2719	3,030.76	69.1053	3,030.76	68.99	3,030.76	69.6669	3,030.76	65.0678	3,030.76	59.6418	3,030.76	67.2799	3,030.76	66.9342	3,030.76	70.5026
3,137.7	83.8898	3,137.7	83.7983	3,137.7	83.7671	3,137.7	83.4506	3,137.7	82.7703	3,137.7	82.4652	3,137.7	81.6178	3,137.7	80.9685	3,137.7	80.5729	3,137.7	80.2851	3,137.7	79.3938	3,137.7	78.915	3,137.7	78.1624	3,137.7	78.0705	3,137.7	76.766	3,137.7	75.0496	3,137.7	74.618	3,137.7	73.5912	3,137.7	73.7062	3,137.7	72.2499	3,137.7	71.9109	3,137.7	71.371	3,137.7	69.0657	3,137.7	69.8315	3,137.7	69.1481	3,137.7	69.7534	3,137.7	67.2975	3,137.7	67.8432	3,137.7	70.8035	3,137.7	69.9272	3,137.7	70.1048	3,137.7	64.433	3,137.7	61.9052	3,137.7	65.073	3,137.7	67.6848	3,137.7	69.2312
3,249.02	83.7721	3,249.02	83.4282	3,249.02	83.2604	3,249.02	82.9815	3,249.02	82.7675	3,249.02	81.8786	3,249.02	81.637	3,249.02	80.8791	3,249.02	80.4179	3,249.02	79.8701	3,249.02	79.1676	3,249.02	78.8705	3,249.02	78.3727	3,249.02	78.3604	3,249.02	77.1516	3,249.02	74.8337	3,249.02	74.5305	3,249.02	73.3852	3,249.02	73.2872	3,249.02	72.6051	3,249.02	72.7409	3,249.02	71.5062	3,249.02	70.4261	3,249.02	70.7459	3,249.02	67.7602	3,249.02	69.231	3,249.02	67.4962	3,249.02	68.5423	3,249.02	70.642	3,249.02	69.1202	3,249.02	70.3545	3,249.02	64.3629	3,249.02	63.3193	3,249.02	64.9355	3,249.02	67.3418	3,249.02	68.9238
3,363.28	84.1312	3,363.28	83.8247	3,363.28	83.8694	3,363.28	83.0926	3,363.28	83.2528	3,363.28	82.0653	3,363.28	82.182	3,363.28	80.9561	3,363.28	81.0385	3,363.28	79.1837	3,363.28	79.2365	3,363.28	77.821	3,363.28	77.9908	3,363.28	77.5242	3,363.28	77.2179	3,363.28	75.4606	3,363.28	75.3032	3,363.28	72.1265	3,363.28	73.4349	3,363.28	72.4511	3,363.28	72.8891	3,363.28	71.0668	3,363.28	70.4105	3,363.28	70.404	3,363.28	67.9571	3,363.28	68.0454	3,363.28	67.2241	3,363.28	67.1115	3,363.28	67.4022	3,363.28	69.1049	3,363.28	69.1572	3,363.28	65.0938	3,363.28	60.6016	3,363.28	61.9862	3,363.28	66.8881	3,363.28	69.8101
3,481.93	84.7883	3,481.93	84.4463	3,481.93	84.0802	3,481.93	84.0136	3,481.93	83.8607	3,481.93	82.9587	3,481.93	82.6172	3,481.93	82.1389	3,481.93	81.8042	3,481.93	80.48	3,481.93	79.9075	3,481.93	78.0373	3,481.93	78.2311	3,481.93	78.0258	3,481.93	76.6104	3,481.93	76.6014	3,481.93	74.8929	3,481.93	74.2076	3,481.93	72.5879	3,481.93	72.5013	3,481.93	72.2139	3,481.93	70.9607	3,481.93	68.6896	3,481.93	70.0203	3,481.93	69.1077	3,481.93	69.04	3,481.93	66.8041	3,481.93	66.4551	3,481.93	63.3833	3,481.93	68.8071	3,481.93	69.2225	3,481.93	62.7451	3,481.93	55.2333	3,481.93	64.2953	3,481.93	66.3385	3,481.93	70.6905
3,604.98	84.7339	3,604.98	84.6148	3,604.98	84.2519	3,604.98	84.3352	3,604.98	83.9409	3,604.98	83.2374	3,604.98	83.0275	3,604.98	82.7682	3,604.98	81.9874	3,604.98	80.6482	3,604.98	80.6586	3,604.98	78.3821	3,604.98	79.2284	3,604.98	76.7183	3,604.98	77.7847	3,604.98	76.5295	3,604.98	76.5306	3,604.98	74.9032	3,604.98	73.6846	3,604.98	72.1042	3,604.98	73.3837	3,604.98	72.2844	3,604.98	70.6717	3,604.98	67.7896	3,604.98	69.5989	3,604.98	69.2321	3,604.98	67.8567	3,604.98	68.3214	3,604.98	67.3802	3,604.98	69.1476	3,604.98	70.707	3,604.98	63.0826	3,604.98	62.8295	3,604.98	64.305	3,604.98	66.6503	3,604.98	71.2768
3,732.42	84.51	3,732.42	84.3315	3,732.42	84.2444	3,732.42	83.8323	3,732.42	83.2981	3,732.42	83.1154	3,732.42	82.4763	3,732.42	81.9431	3,732.42	81.542	3,732.42	80.3028	3,732.42	80.3348	3,732.42	78.9451	3,732.42	79.2335	3,732.42	75.9975	3,732.42	77.9944	3,732.42	76.5473	3,732.42	76.1934	3,732.42	73.9348	3,732.42	73.8531	3,732.42	71.3608	3,732.42	73.1224	3,732.42	71.8122	3,732.42	71.8418	3,732.42	67.2335	3,732.42	68.4376	3,732.42	68.8341	3,732.42	68.5654	3,732.42	63.7784	3,732.42	68.1978	3,732.42	69.616	3,732.42	69.7086	3,732.42	63.3443	3,732.42	63.8203	3,732.42	62.6241	3,732.42	66.4698	3,732.42	71.1934
3,864.26	82.5065	3,864.26	82.5189	3,864.26	82.7249	3,864.26	82.375	3,864.26	81.4682	3,864.26	81.8886	3,864.26	81.2995	3,864.26	81.3324	3,864.26	80.4029	3,864.26	80.1369	3,864.26	79.2065	3,864.26	78.7291	3,864.26	77.3211	3,864.26	76.4431	3,864.26	75.6394	3,864.26	76.1783	3,864.26	74.5742	3,864.26	74.1812	3,864.26	72.3457	3,864.26	71.7112	3,864.26	70.044	3,864.26	69.8079	3,864.26	70.0877	3,864.26	69.5114	3,864.26	67.2484	3,864.26	68.319	3,864.26	68.6721	3,864.26	62.6694	3,864.26	66.5012	3,864.26	66.6217	3,864.26	66.8183	3,864.26	63.6954	3,864.26	60.6195	3,864.26	58.9986	3,864.26	65.1804	3,864.26	69.3686
4,000.49	81.1301	4,000.49	81.1925	4,000.49	81.8584	4,000.49	81.6896	4,000.49	81.1482	4,000.49	81.0423	4,000.49	81.1799	4,000.49	79.7566	4,000.49	80.7416	4,000.49	79.5588	4,000.49	79.6942	4,000.49	77.3997	4,000.49	77.7009	4,000.49	75.2601	4,000.49	74.9542	4,000.49	74.7602	4,000.49	73.8046	4,000.49	72.3781	4,000.49	71.9926	4,000.49	71.3762	4,000.49	69.7822	4,000.49	68.8859	4,000.49	71.245	4,000.49	68.8457	4,000.49	66.7411	4,000.49	66.7442	4,000.49	67.5808	4,000.49	62.206	4,000.49	65.4117	4,000.49	66.0975	4,000.49	66.0499	4,000.49	63.542	4,000.49	61.7962	4,000.49	55.1766	4,000.49	63.33	4,000.49	67.0123
4,141.11	81.9132	4,141.11	82.0631	4,141.11	82.2855	4,141.11	82.007	4,141.11	82.0065	4,141.11	81.8621	4,141.11	82.0772	4,141.11	81.0162	4,141.11	81.4818	4,141.11	80.4025	4,141.11	80.4485	4,141.11	78.6274	4,141.11	77.8457	4,141.11	76.9183	4,141.11	76.0242	4,141.11	73.9571	4,141.11	73.3585	4,141.11	72.2304	4,141.11	72.6887	4,141.11	69.7286	4,141.11	69.6736	4,141.11	66.1289	4,141.11	69.591	4,141.11	67.6328	4,141.11	67.9879	4,141.11	67.182	4,141.11	67.1628	4,141.11	65.357	4,141.11	64.3307	4,141.11	65.019	4,141.11	64.621	4,141.11	65.6025	4,141.11	61.4501	4,141.11	53.9084	4,141.11	61.228	4,141.11	65.7884
4,287.6	81.1331	4,287.6	80.6462	4,287.6	81.6845	4,287.6	81.5288	4,287.6	82.3894	4,287.6	81.8953	4,287.6	81.8624	4,287.6	80.5012	4,287.6	80.8799	4,287.6	80.2288	4,287.6	79.3242	4,287.6	78.5377	4,287.6	77.0215	4,287.6	77.9154	4,287.6	75.2652	4,287.6	74.0908	4,287.6	73.3937	4,287.6	72.6391	4,287.6	71.5544	4,287.6	71.317	4,287.6	71.1291	4,287.6	68.8709	4,287.6	68.2558	4,287.6	68.3979	4,287.6	68.3583	4,287.6	67.544	4,287.6	66.6693	4,287.6	65.2867	4,287.6	63.4085	4,287.6	63.6052	4,287.6	63.4105	4,287.6	64.2033	4,287.6	62.6054	4,287.6	54.4881	4,287.6	57.5261	4,287.6	63.0209
4,438.48	80.751	4,438.48	80.3987	4,438.48	80.7734	4,438.48	81.542	4,438.48	82.5906	4,438.48	82.2962	4,438.48	82.4904	4,438.48	81.7767	4,438.48	81.4373	4,438.48	80.2849	4,438.48	78.6864	4,438.48	77.1671	4,438.48	77.2388	4,438.48	76.7237	4,438.48	73.9065	4,438.48	71.1185	4,438.48	73.6177	4,438.48	71.3372	4,438.48	71.8169	4,438.48	68.9779	4,438.48	70.3621	4,438.48	68.8775	4,438.48	68.4517	4,438.48	67.8871	4,438.48	68.9163	4,438.48	68.2255	4,438.48	67.3231	4,438.48	66.8879	4,438.48	65.5421	4,438.48	65.2484	4,438.48	65.7512	4,438.48	64.7325	4,438.48	63.8755	4,438.48	56.6049	4,438.48	53.8303	4,438.48	59.7689
4,595.21	79.6329	4,595.21	80.4978	4,595.21	78.9965	4,595.21	80.3292	4,595.21	81.703	4,595.21	81.3027	4,595.21	81.1328	4,595.21	82.3224	4,595.21	81.2417	4,595.21	80.2669	4,595.21	79.3757	4,595.21	77.7087	4,595.21	76.2648	4,595.21	74.9277	4,595.21	74.5243	4,595.21	72.6331	4,595.21	71.7995	4,595.21	72.9648	4,595.21	70.2702	4,595.21	68.9596	4,595.21	65.6539	4,595.21	68.7936	4,595.21	67.9854	4,595.21	64.9176	4,595.21	67.4427	4,595.21	66.571	4,595.21	69.1505	4,595.21	68.2503	4,595.21	64.1935	4,595.21	66.1932	4,595.21	67.9312	4,595.21	67.2055	4,595.21	65.1799	4,595.21	57.8826	4,595.21	47.8771	4,595.21	56.387
4,756.35	79.1851	4,756.35	80.7401	4,756.35	80.6143	4,756.35	80.3657	4,756.35	81.5267	4,756.35	81.5808	4,756.35	82.1394	4,756.35	82.3854	4,756.35	80.9938	4,756.35	80.0745	4,756.35	79.6932	4,756.35	77.0636	4,756.35	77.4031	4,756.35	73.6442	4,756.35	74.9603	4,756.35	72.717	4,756.35	73.0824	4,756.35	70.6304	4,756.35	70.0688	4,756.35	70.9326	4,756.35	68.7416	4,756.35	67.2874	4,756.35	67.0494	4,756.35	66.2226	4,756.35	63.8392	4,756.35	63.3537	4,756.35	65.8583	4,756.35	67.8307	4,756.35	67.7515	4,756.35	62.2912	4,756.35	67.3066	4,756.35	66.2693	4,756.35	64.7658	4,756.35	56.1688	4,756.35	48.3864	4,756.35	59.4782
4,924.8	79.9933	4,924.8	80.5499	4,924.8	82.1087	4,924.8	82.0389	4,924.8	81.7662	4,924.8	82.8189	4,924.8	82.5709	4,924.8	82.8421	4,924.8	80.991	4,924.8	80.9501	4,924.8	79.1608	4,924.8	78.8125	4,924.8	78.2479	4,924.8	74.7567	4,924.8	75.3089	4,924.8	74.8377	4,924.8	72.9898	4,924.8	69.7516	4,924.8	70.0368	4,924.8	70.4888	4,924.8	70.1046	4,924.8	64.5988	4,924.8	67.0142	4,924.8	61.4039	4,924.8	66.7368	4,924.8	63.96	4,924.8	65.0142	4,924.8	67.3559	4,924.8	68.3761	4,924.8	64.9959	4,924.8	64.505	4,924.8	67.46	4,924.8	62.1411	4,924.8	59.4649	4,924.8	53.5575	4,924.8	55.3023
5,097.66	80.056	5,097.66	79.4193	5,097.66	81.4279	5,097.66	82.6298	5,097.66	81.4747	5,097.66	82.2115	5,097.66	82.3439	5,097.66	81.0318	5,097.66	81.1041	5,097.66	79.4262	5,097.66	79.333	5,097.66	77.6224	5,097.66	76.8862	5,097.66	75.3612	5,097.66	75.178	5,097.66	75.238	5,097.66	72.6879	5,097.66	70.9481	5,097.66	69.7624	5,097.66	66.7978	5,097.66	69.7401	5,097.66	68.9633	5,097.66	66.7505	5,097.66	67.0593	5,097.66	65.7578	5,097.66	65.9568	5,097.66	62.3959	5,097.66	67.7045	5,097.66	67.2625	5,097.66	65.6784	5,097.66	64.544	5,097.66	68.4645	5,097.66	64.5471	5,097.66	57.3694	5,097.66	49.3947	5,097.66	60.8854
5,277.83	80.0796	5,277.83	80.1819	5,277.83	80.1085	5,277.83	81.894	5,277.83	81.5461	5,277.83	82.3312	5,277.83	81.1995	5,277.83	80.1977	5,277.83	80.9986	5,277.83	78.6337	5,277.83	79.6606	5,277.83	77.4163	5,277.83	76.614	5,277.83	74.5403	5,277.83	73.7892	5,277.83	71.4832	5,277.83	69.8633	5,277.83	67.8243	5,277.83	69.9869	5,277.83	61.1642	5,277.83	67.1023	5,277.83	67.3334	5,277.83	66.9689	5,277.83	67.2152	5,277.83	65.547	5,277.83	61.1492	5,277.83	64.7278	5,277.83	66.6295	5,277.83	67.4185	5,277.83	61.9703	5,277.83	60.8882	5,277.83	65.541	5,277.83	63.7489	5,277.83	52.7986	5,277.83	53.6249	5,277.83	61.1966
5,463.87	80.1782	5,463.87	80.5201	5,463.87	78.9174	5,463.87	80.358	5,463.87	81.6702	5,463.87	81.5546	5,463.87	80.1497	5,463.87	80.6826	5,463.87	80.9568	5,463.87	78.8549	5,463.87	79.5473	5,463.87	78.2194	5,463.87	77.2743	5,463.87	75.9678	5,463.87	73.9123	5,463.87	71.6318	5,463.87	72.0685	5,463.87	70.5452	5,463.87	69.7867	5,463.87	70.3351	5,463.87	66.4348	5,463.87	69.3458	5,463.87	65.9934	5,463.87	66.6995	5,463.87	66.3651	5,463.87	64.2488	5,463.87	64.2821	5,463.87	65.0458	5,463.87	65.482	5,463.87	55.686	5,463.87	63.8092	5,463.87	65.0992	5,463.87	65.7879	5,463.87	59.7543	5,463.87	51.917	5,463.87	58.908
5,657.23	80.471	5,657.23	81.0349	5,657.23	80.7476	5,657.23	78.6399	5,657.23	80.9425	5,657.23	79.6081	5,657.23	81.1754	5,657.23	78.847	5,657.23	79.7675	5,657.23	77.4754	5,657.23	77.738	5,657.23	75.6823	5,657.23	77.194	5,657.23	74.0135	5,657.23	74.1654	5,657.23	69.8245	5,657.23	71.4972	5,657.23	70.9051	5,657.23	69.5621	5,657.23	71.8346	5,657.23	68.3437	5,657.23	65.1263	5,657.23	67.249	5,657.23	64.5051	5,657.23	63.7428	5,657.23	58.4958	5,657.23	62.7448	5,657.23	60.7217	5,657.23	63.8525	5,657.23	63.8604	5,657.23	62.9614	5,657.23	62.8157	5,657.23	65.219	5,657.23	62.9792	5,657.23	53.0533	5,657.23	59.0031
5,856.45	80.0967	5,856.45	80.3141	5,856.45	81.4179	5,856.45	79.6279	5,856.45	79.4386	5,856.45	79.4963	5,856.45	80.7553	5,856.45	78.8577	5,856.45	79.1765	5,856.45	78.2368	5,856.45	76.6613	5,856.45	74.9475	5,856.45	75.4871	5,856.45	74.3482	5,856.45	73.727	5,856.45	71.5363	5,856.45	72.4507	5,856.45	68.046	5,856.45	67.5663	5,856.45	71.9375	5,856.45	68.4886	5,856.45	63.4084	5,856.45	63.7517	5,856.45	58.46	5,856.45	64.7213	5,856.45	64.3545	5,856.45	55.4911	5,856.45	56.9972	5,856.45	63.5136	5,856.45	65.0434	5,856.45	62.1487	5,856.45	63.4232	5,856.45	63.3656	5,856.45	61.4137	5,856.45	56.7651	5,856.45	62.718
6,062.99	81.6246	6,062.99	81.3611	6,062.99	82.3428	6,062.99	81.5027	6,062.99	80.4349	6,062.99	79.649	6,062.99	80.2769	6,062.99	79.4749	6,062.99	79.2664	6,062.99	78.6612	6,062.99	77.1697	6,062.99	74.4806	6,062.99	75.6415	6,062.99	71.7786	6,062.99	73.1136	6,062.99	71.5846	6,062.99	72.9849	6,062.99	66.8656	6,062.99	65.2802	6,062.99	69.0542	6,062.99	67.4422	6,062.99	64.2606	6,062.99	63.891	6,062.99	61.1066	6,062.99	64.506	6,062.99	58.3848	6,062.99	61.6489	6,062.99	59.1476	6,062.99	62.9626	6,062.99	64.2296	6,062.99	54.7594	6,062.99	61.317	6,062.99	60.3705	6,062.99	54.7077	6,062.99	56.9697	6,062.99	60.5371
6,276.86	81.7347	6,276.86	80.7577	6,276.86	80.3074	6,276.86	80.9108	6,276.86	80.845	6,276.86	79.4138	6,276.86	77.2816	6,276.86	79.4241	6,276.86	78.6139	6,276.86	77.5615	6,276.86	77.7759	6,276.86	76.4701	6,276.86	76.0632	6,276.86	73.2542	6,276.86	74.3979	6,276.86	73.7298	6,276.86	72.7264	6,276.86	70.2245	6,276.86	68.4799	6,276.86	64.9288	6,276.86	65.4632	6,276.86	67.1581	6,276.86	63.8965	6,276.86	65.3146	6,276.86	67.613	6,276.86	66.3601	6,276.86	61.7502	6,276.86	58.3658	6,276.86	60.8297	6,276.86	62.4885	6,276.86	58.866	6,276.86	57.485	6,276.86	59.8441	6,276.86	58.1863	6,276.86	59.97	6,276.86	56.5869
6,498.05	82.4587	6,498.05	81.3761	6,498.05	79.824	6,498.05	80.4822	6,498.05	80.6695	6,498.05	78.1412	6,498.05	78.564	6,498.05	78.2221	6,498.05	78.5472	6,498.05	76.7551	6,498.05	78.6016	6,498.05	78.1104	6,498.05	76.5527	6,498.05	74.8934	6,498.05	75.9642	6,498.05	71.271	6,498.05	67.3712	6,498.05	69.6472	6,498.05	69.9289	6,498.05	57.9659	6,498.05	65.382	6,498.05	60.6399	6,498.05	66.346	6,498.05	66.9418	6,498.05	61.3765	6,498.05	65.0606	6,498.05	62.1285	6,498.05	60.0378	6,498.05	58.3693	6,498.05	62.5296	6,498.05	61.8631	6,498.05	58.5896	6,498.05	62.9541	6,498.05	58.9477	6,498.05	57.4767	6,498.05	54.4652
6,726.56	82.2804	6,726.56	81.6329	6,726.56	81.2751	6,726.56	79.8552	6,726.56	80.0542	6,726.56	78.6012	6,726.56	80.7955	6,726.56	76.8197	6,726.56	78.0683	6,726.56	77.4942	6,726.56	77.8119	6,726.56	77.2444	6,726.56	76.1681	6,726.56	76.0577	6,726.56	75.1399	6,726.56	71.95	6,726.56	71.2005	6,726.56	70.7126	6,726.56	68.6631	6,726.56	67.5955	6,726.56	64.4388	6,726.56	65.0626	6,726.56	64.7981	6,726.56	64.2665	6,726.56	64.6357	6,726.56	60.2555	6,726.56	64.6767	6,726.56	63.035	6,726.56	61.2333	6,726.56	64.1544	6,726.56	63.0355	6,726.56	56.3575	6,726.56	63.0943	6,726.56	59.6311	6,726.56	55.0763	6,726.56	56.691
6,963.87	81.5485	6,963.87	81.7401	6,963.87	82.0741	6,963.87	79.2135	6,963.87	79.2394	6,963.87	79.5928	6,963.87	80.951	6,963.87	77.1291	6,963.87	78.1443	6,963.87	77.5081	6,963.87	77.4187	6,963.87	74.0024	6,963.87	75.1457	6,963.87	74.3809	6,963.87	71.0514	6,963.87	69.5384	6,963.87	70.5363	6,963.87	66.1285	6,963.87	68.0111	6,963.87	68.2876	6,963.87	65.9699	6,963.87	64.8638	6,963.87	63.2584	6,963.87	60.0967	6,963.87	61.0237	6,963.87	58.6195	6,963.87	64.6568	6,963.87	60.0023	6,963.87	62.2579	6,963.87	59.461	6,963.87	63.2659	6,963.87	55.0511	6,963.87	61.5752	6,963.87	57.7797	6,963.87	53.9651	6,963.87	53.2208
7,209.96	82.1952	7,209.96	82.1081	7,209.96	82.1082	7,209.96	80.3994	7,209.96	80.4441	7,209.96	80.7147	7,209.96	79.5911	7,209.96	79.542	7,209.96	80.1558	7,209.96	78.2448	7,209.96	78.098	7,209.96	74.2314	7,209.96	75.8273	7,209.96	72.9698	7,209.96	71.7057	7,209.96	69.928	7,209.96	71.4906	7,209.96	64.4707	7,209.96	66.2059	7,209.96	67.6285	7,209.96	65.3662	7,209.96	63.7009	7,209.96	61.0775	7,209.96	60.0018	7,209.96	62.9713	7,209.96	64.2887	7,209.96	56.1128	7,209.96	53.2329	7,209.96	58.9657	7,209.96	61.0012	7,209.96	60.2143	7,209.96	51.618	7,209.96	59.8634	7,209.96	58.4565	7,209.96	51.6353	7,209.96	50.4585
7,464.84	82.559	7,464.84	82.338	7,464.84	81.0274	7,464.84	80.7597	7,464.84	81.3347	7,464.84	79.2273	7,464.84	78.0035	7,464.84	79.8465	7,464.84	79.6641	7,464.84	76.1703	7,464.84	77.259	7,464.84	75.2221	7,464.84	74.8835	7,464.84	71.8183	7,464.84	71.8738	7,464.84	69.7779	7,464.84	71.2241	7,464.84	67.518	7,464.84	65.0272	7,464.84	65.6043	7,464.84	62.0568	7,464.84	63.5854	7,464.84	61.9222	7,464.84	62.3552	7,464.84	58.2924	7,464.84	63.7322	7,464.84	55.1462	7,464.84	52.4307	7,464.84	52.226	7,464.84	62.0889	7,464.84	58.2539	7,464.84	51.2582	7,464.84	57.1519	7,464.84	54.4201	7,464.84	53.6281	7,464.84	49.9104
7,727.05	82.8334	7,727.05	82.1756	7,727.05	81.5374	7,727.05	80.464	7,727.05	81.6683	7,727.05	78.2471	7,727.05	79.4862	7,727.05	78.6696	7,727.05	78.946	7,727.05	75.9601	7,727.05	76.6176	7,727.05	76.1249	7,727.05	75.4117	7,727.05	71.1665	7,727.05	74.2668	7,727.05	70.306	7,727.05	69.1988	7,727.05	68.1698	7,727.05	67.7099	7,727.05	59.7054	7,727.05	65.3833	7,727.05	63.9569	7,727.05	62.794	7,727.05	62.6635	7,727.05	62.4414	7,727.05	59.8166	7,727.05	63.3686	7,727.05	55.9899	7,727.05	58.6626	7,727.05	58.9233	7,727.05	57.5852	7,727.05	50.339	7,727.05	56.9192	7,727.05	58.8241	7,727.05	57.76	7,727.05	50.9692
7,999.51	82.4608	7,999.51	81.8488	7,999.51	82.3154	7,999.51	79.3718	7,999.51	79.9388	7,999.51	79.1147	7,999.51	80.4078	7,999.51	77.7172	7,999.51	77.7218	7,999.51	77.4015	7,999.51	75.7213	7,999.51	75.0615	7,999.51	73.5544	7,999.51	71.8362	7,999.51	72.4824	7,999.51	71.2673	7,999.51	69.5648	7,999.51	67.3873	7,999.51	67.089	7,999.51	65.2824	7,999.51	64.5196	7,999.51	60.2266	7,999.51	61.448	7,999.51	56.3731	7,999.51	60.5241	7,999.51	59.7753	7,999.51	64.377	7,999.51	61.1334	7,999.51	56.2275	7,999.51	53.7916	7,999.51	54.5733	7,999.51	51.3709	7,999.51	58.082	7,999.51	61.6498	7,999.51	58.2482	7,999.51	50.4003
8,282.23	81.9391	8,282.23	81.0105	8,282.23	81.7834	8,282.23	79.4728	8,282.23	79.3674	8,282.23	79.0541	8,282.23	80.6883	8,282.23	77.0675	8,282.23	78.399	8,282.23	77.125	8,282.23	76.7609	8,282.23	72.6449	8,282.23	74.1649	8,282.23	71.507	8,282.23	70.0823	8,282.23	68.3685	8,282.23	69.2868	8,282.23	64.4364	8,282.23	65.7696	8,282.23	64.8846	8,282.23	65.2875	8,282.23	53.9231	8,282.23	59.9643	8,282.23	57.4203	8,282.23	62.1941	8,282.23	57.7376	8,282.23	57.9988	8,282.23	60.109	8,282.23	48.9611	8,282.23	49.2277	8,282.23	57.0501	8,282.23	52.8285	8,282.23	55.2857	8,282.23	59.0274	8,282.23	57.2309	8,282.23	51.2092
8,573.73	81.7944	8,573.73	80.5847	8,573.73	79.4363	8,573.73	79.8969	8,573.73	79.9174	8,573.73	77.8665	8,573.73	79.2721	8,573.73	77.7408	8,573.73	78.6723	8,573.73	75.6313	8,573.73	77.7572	8,573.73	72.4569	8,573.73	74.194	8,573.73	72.488	8,573.73	72.0222	8,573.73	66.6874	8,573.73	67.8974	8,573.73	65.3427	8,573.73	65.6694	8,573.73	63.8574	8,573.73	64.6541	8,573.73	60.9993	8,573.73	62.9745	8,573.73	62.1569	8,573.73	59.8882	8,573.73	58.0914	8,573.73	57.0918	8,573.73	50.7817	8,573.73	50.5904	8,573.73	51.1732	8,573.73	58.3242	8,573.73	58.0729	8,573.73	57.7974	8,573.73	59.8304	8,573.73	56.8562	8,573.73	52.9229
8,876.95	81.39	8,876.95	80.5676	8,876.95	80.4348	8,876.95	78.3703	8,876.95	79.1147	8,876.95	78.1621	8,876.95	77.984	8,876.95	77.6089	8,876.95	77.7762	8,876.95	72.824	8,876.95	76.3325	8,876.95	73.0486	8,876.95	73.1527	8,876.95	72.8962	8,876.95	71.8943	8,876.95	67.0428	8,876.95	69.017	8,876.95	64.9792	8,876.95	65.7128	8,876.95	62.2571	8,876.95	61.8183	8,876.95	61.2895	8,876.95	62.1154	8,876.95	60.5047	8,876.95	57.8109	8,876.95	60.1744	8,876.95	58.7742	8,876.95	52.3775	8,876.95	58.5303	8,876.95	53.3434	8,876.95	54.1561	8,876.95	56.2343	8,876.95	54.083	8,876.95	55.3471	8,876.95	55.3618	8,876.95	52.0818
9,188.96	80.6832	9,188.96	80.4762	9,188.96	80.9373	9,188.96	79.0482	9,188.96	79.6736	9,188.96	78.872	9,188.96	78.7114	9,188.96	76.3136	9,188.96	76.6239	9,188.96	74.976	9,188.96	74.1536	9,188.96	74.5219	9,188.96	73.2695	9,188.96	71.7721	9,188.96	71.2299	9,188.96	67.702	9,188.96	69.293	9,188.96	65.1756	9,188.96	65.0895	9,188.96	61.9217	9,188.96	61.8511	9,188.96	58.1021	9,188.96	56.0992	9,188.96	56.109	9,188.96	60.0033	9,188.96	59.0433	9,188.96	59.0022	9,188.96	57.8705	9,188.96	58.4078	9,188.96	54.3596	9,188.96	57.3308	9,188.96	58.5551	9,188.96	51.7128	9,188.96	53.3641	9,188.96	54.96	9,188.96	49.798
9,514.16	81.1057	9,514.16	80.4355	9,514.16	80.3262	9,514.16	80.1226	9,514.16	80.0117	9,514.16	76.7277	9,514.16	77.8859	9,514.16	75.5817	9,514.16	76.7888	9,514.16	75.9335	9,514.16	75.1283	9,514.16	72.6862	9,514.16	73.7773	9,514.16	69.3384	9,514.16	69.9127	9,514.16	68.5994	9,514.16	67.3253	9,514.16	62.7538	9,514.16	62.7611	9,514.16	61.0644	9,514.16	61.5174	9,514.16	57.9095	9,514.16	58.3186	9,514.16	57.3024	9,514.16	56.6785	9,514.16	55.7059	9,514.16	59.3528	9,514.16	56.3898	9,514.16	51.6702	9,514.16	50.8605	9,514.16	56.4979	9,514.16	55.6044	9,514.16	49.8545	9,514.16	52.7262	9,514.16	50.2128	9,514.16	48.4947
9,849.61	80.9864	9,849.61	80.8607	9,849.61	81.4997	9,849.61	78.827	9,849.61	78.4237	9,849.61	76.9757	9,849.61	76.3079	9,849.61	75.7012	9,849.61	76.6081	9,849.61	74.4643	9,849.61	76.003	9,849.61	71.7354	9,849.61	73.1506	9,849.61	68.9367	9,849.61	70.7989	9,849.61	66.6931	9,849.61	63.8121	9,849.61	63.56	9,849.61	62.4889	9,849.61	63.3394	9,849.61	60.8859	9,849.61	57.4134	9,849.61	57.342	9,849.61	55.7257	9,849.61	52.4499	9,849.61	59.4221	9,849.61	53.5756	9,849.61	49.0844	9,849.61	52.0709	9,849.61	39.2818	9,849.61	52.895	9,849.61	52.7913	9,849.61	50.9598	9,849.61	47.8542	9,849.61	51.8124	9,849.61	51.2642
10,196.8	80.7692	10,196.8	81.4291	10,196.8	81.4474	10,196.8	79.6789	10,196.8	79.9867	10,196.8	77.7303	10,196.8	76.8971	10,196.8	75.9397	10,196.8	75.6365	10,196.8	74.8585	10,196.8	75.4147	10,196.8	73.2738	10,196.8	71.6454	10,196.8	69.8385	10,196.8	68.798	10,196.8	64.4436	10,196.8	64.6049	10,196.8	63.4226	10,196.8	62.9472	10,196.8	60.4632	10,196.8	58.6978	10,196.8	55.3058	10,196.8	52.928	10,196.8	56.2478	10,196.8	53.6828	10,196.8	58.1491	10,196.8	57.0588	10,196.8	55.6128	10,196.8	54.7267	10,196.8	52.5402	10,196.8	51.5417	10,196.8	46.5993	10,196.8	48.8878	10,196.8	52.3613	10,196.8	49.3584	10,196.8	47.2412
10,555.7	81.529	10,555.7	81.4263	10,555.7	81.0504	10,555.7	80.5878	10,555.7	80.7404	10,555.7	77.4357	10,555.7	78.1277	10,555.7	75.8762	10,555.7	76.0953	10,555.7	75.6289	10,555.7	74.4419	10,555.7	72.7606	10,555.7	72.2016	10,555.7	68.5612	10,555.7	67.9396	10,555.7	65.0682	10,555.7	66.4285	10,555.7	58.5615	10,555.7	61.3125	10,555.7	58.017	10,555.7	60.1603	10,555.7	56.3747	10,555.7	56.7435	10,555.7	52.0099	10,555.7	55.121	10,555.7	54.5231	10,555.7	54.1115	10,555.7	55.6734	10,555.7	53.6163	10,555.7	51.1277	10,555.7	50.2773	10,555.7	52.2374	10,555.7	51.6632	10,555.7	50.5279	10,555.7	36.9535	10,555.7	45.3555
10,927.7	81.6833	10,927.7	81.4558	10,927.7	81.6164	10,927.7	80.613	10,927.7	79.4899	10,927.7	77.6397	10,927.7	77.6548	10,927.7	76.6447	10,927.7	77.1132	10,927.7	74.7679	10,927.7	74.324	10,927.7	71.1755	10,927.7	71.8139	10,927.7	67.8188	10,927.7	68.9599	10,927.7	63.5686	10,927.7	62.3007	10,927.7	60.0826	10,927.7	59.8533	10,927.7	58.7918	10,927.7	56.5909	10,927.7	57.574	10,927.7	56.2686	10,927.7	51.3031	10,927.7	53.9734	10,927.7	55.887	10,927.7	50.4639	10,927.7	55.8239	10,927.7	50.6018	10,927.7	48.0782	10,927.7	43.564	10,927.7	49.5025	10,927.7	51.0549	10,927.7	54.658	10,927.7	41.5488	10,927.7	42.1447
11,313	80.7409	11,313	80.4093	11,313	80.8985	11,313	79.7845	11,313	79.2067	11,313	78.3646	11,313	77.3811	11,313	75.689	11,313	75.4359	11,313	73.3033	11,313	74.5059	11,313	70.7034	11,313	69.8247	11,313	66.1438	11,313	67.2447	11,313	62.4699	11,313	61.4463	11,313	60.2398	11,313	59.678	11,313	57.594	11,313	54.3595	11,313	54.7902	11,313	54.3938	11,313	52.5239	11,313	52.7545	11,313	45.2195	11,313	47.6472	11,313	48.2913	11,313	52.045	11,313	49.7337	11,313	40.3835	11,313	54.1828	11,313	49.3931	11,313	52.3902	11,313	45.2535	11,313	44.9298
11,712.9	80.3985	11,712.9	80.9004	11,712.9	80.2597	11,712.9	79.6358	11,712.9	79.8305	11,712.9	77.7532	11,712.9	78.2392	11,712.9	75.3475	11,712.9	75.727	11,712.9	72.1855	11,712.9	73.0955	11,712.9	70.4366	11,712.9	69.436	11,712.9	65.795	11,712.9	65.7009	11,712.9	63.8867	11,712.9	61.8522	11,712.9	60.1526	11,712.9	58.4706	11,712.9	59.1253	11,712.9	56.1218	11,712.9	57.5275	11,712.9	54.496	11,712.9	54.13	11,712.9	51.9499	11,712.9	53.279	11,712.9	52.6761	11,712.9	47.0458	11,712.9	49.3051	11,712.9	45.5367	11,712.9	45.4628	11,712.9	49.7776	11,712.9	49.1256	11,712.9	47.8311	11,712.9	37.2133	11,712.9	47.7016
12,126	80.5622	12,126	80.8987	12,126	80.2179	12,126	79.6879	12,126	79.2742	12,126	77.9854	12,126	77.7802	12,126	75.6952	12,126	75.064	12,126	71.92	12,126	71.7817	12,126	70.2564	12,126	68.8917	12,126	66.693	12,126	65.4743	12,126	63.2013	12,126	59.306	12,126	57.5925	12,126	55.9613	12,126	58.3476	12,126	52.5467	12,126	52.4288	12,126	53.4672	12,126	52.8076	12,126	47.31	12,126	50.8347	12,126	52.7904	12,126	53.6426	12,126	45.9296	12,126	49.8531	12,126	43.5739	12,126	45.0924	12,126	50.2923	12,126	47.8135	12,126	43.7531	12,126	43.9046
12,553.7	80.2314	12,553.7	80.0599	12,553.7	79.6393	12,553.7	79.0821	12,553.7	78.5681	12,553.7	77.7587	12,553.7	76.5755	12,553.7	73.9592	12,553.7	73.6406	12,553.7	73.1608	12,553.7	71.111	12,553.7	69.7409	12,553.7	65.8191	12,553.7	66.7491	12,553.7	62.2311	12,553.7	62.152	12,553.7	57.9508	12,553.7	61.2643	12,553.7	56.2781	12,553.7	57.5604	12,553.7	52.0384	12,553.7	56.751	12,553.7	49.536	12,553.7	53.4192	12,553.7	51.9894	12,553.7	51.8853	12,553.7	49.3999	12,553.7	46.2445	12,553.7	47.4663	12,553.7	50.5406	12,553.7	42.0702	12,553.7	44.7606	12,553.7	47.1705	12,553.7	47.6862	12,553.7	45.6457	12,553.7	47.9883
12,996.1	80.5452	12,996.1	80.1542	12,996.1	79.7354	12,996.1	79.8597	12,996.1	79.2554	12,996.1	78.9867	12,996.1	76.8366	12,996.1	76.8134	12,996.1	74.1296	12,996.1	72.9867	12,996.1	69.3896	12,996.1	70.6696	12,996.1	65.1911	12,996.1	66.7498	12,996.1	63.555	12,996.1	65.8151	12,996.1	61.3568	12,996.1	60.1457	12,996.1	58.6994	12,996.1	59.1586	12,996.1	55.1879	12,996.1	59.6511	12,996.1	54.655	12,996.1	54.3229	12,996.1	51.7634	12,996.1	55.9361	12,996.1	37.6836	12,996.1	47.6801	12,996.1	47.3174	12,996.1	48.7201	12,996.1	46.6714	12,996.1	49.5124	12,996.1	49.4582	12,996.1	50.3899	12,996.1	48.9483	12,996.1	49.4347
13,454.6	81.5095	13,454.6	81.2799	13,454.6	80.7686	13,454.6	80.6309	13,454.6	79.8185	13,454.6	79.6784	13,454.6	77.6268	13,454.6	76.5506	13,454.6	74.1686	13,454.6	72.9757	13,454.6	70.8246	13,454.6	71.1833	13,454.6	67.107	13,454.6	68.1477	13,454.6	65.9235	13,454.6	67.0975	13,454.6	64.0293	13,454.6	62.7084	13,454.6	61.1606	13,454.6	61.8109	13,454.6	59.061	13,454.6	59.888	13,454.6	57.2114	13,454.6	56.2946	13,454.6	52.3514	13,454.6	57.4266	13,454.6	50.1414	13,454.6	51.7205	13,454.6	48.3677	13,454.6	49.8096	13,454.6	44.5645	13,454.6	52.8937	13,454.6	51.3025	13,454.6	49.0479	13,454.6	43.6872	13,454.6	45.2802
13,929.2	82.1497	13,929.2	81.9179	13,929.2	81.1995	13,929.2	81.3363	13,929.2	80.4948	13,929.2	79.3399	13,929.2	78.2501	13,929.2	75.8659	13,929.2	74.3589	13,929.2	73.7325	13,929.2	71.1856	13,929.2	71.5222	13,929.2	69.5838	13,929.2	69.5433	13,929.2	68.787	13,929.2	67.4254	13,929.2	65.8522	13,929.2	64.5952	13,929.2	62.5222	13,929.2	61.2391	13,929.2	58.3842	13,929.2	57.5904	13,929.2	56.9278	13,929.2	57.6533	13,929.2	52.7148	13,929.2	56.7299	13,929.2	53.9908	13,929.2	53.7904	13,929.2	50.6548	13,929.2	49.6602	13,929.2	45.7023	13,929.2	53.1611	13,929.2	51.2349	13,929.2	50.54	13,929.2	50.8834	13,929.2	50.2151
14,419.9	82.6935	14,419.9	82.081	14,419.9	81.7998	14,419.9	81.4943	14,419.9	81.5547	14,419.9	79.5485	14,419.9	77.8586	14,419.9	76.9215	14,419.9	74.9262	14,419.9	72.279	14,419.9	72.6961	14,419.9	71.4153	14,419.9	71.9134	14,419.9	70.9388	14,419.9	70.1428	14,419.9	68.6207	14,419.9	66.7403	14,419.9	64.5167	14,419.9	64.3354	14,419.9	62.3705	14,419.9	60.2629	14,419.9	60.5639	14,419.9	57.7812	14,419.9	57.495	14,419.9	55.0696	14,419.9	55.8228	14,419.9	54.276	14,419.9	50.0539	14,419.9	53.5051	14,419.9	51.9555	14,419.9	49.1236	14,419.9	54.5179	14,419.9	53.1907	14,419.9	54.7962	14,419.9	53.0962	14,419.9	49.895
14,928.2	82.3867	14,928.2	82.5392	14,928.2	82.2065	14,928.2	81.5138	14,928.2	81.3931	14,928.2	79.6106	14,928.2	78.892	14,928.2	74.8622	14,928.2	75.0242	14,928.2	72.64	14,928.2	73.3663	14,928.2	72.9822	14,928.2	73.5824	14,928.2	71.8026	14,928.2	71.1167	14,928.2	69.1519	14,928.2	69.1028	14,928.2	64.4725	14,928.2	64.6736	14,928.2	62.8058	14,928.2	61.2501	14,928.2	58.5073	14,928.2	59.3764	14,928.2	56.5199	14,928.2	56.593	14,928.2	55.2422	14,928.2	54.9145	14,928.2	53.8679	14,928.2	55.6018	14,928.2	53.8613	14,928.2	49.0354	14,928.2	56.756	14,928.2	54.21	14,928.2	54.9588	14,928.2	53.3362	14,928.2	50.2992
15,455.6	82.3807	15,455.6	81.7302	15,455.6	82.1078	15,455.6	81.4436	15,455.6	81.6015	15,455.6	78.5441	15,455.6	78.3792	15,455.6	75.5842	15,455.6	75.4233	15,455.6	73.1274	15,455.6	75.1515	15,455.6	74.4752	15,455.6	74.4826	15,455.6	71.6683	15,455.6	72.6265	15,455.6	70.041	15,455.6	67.5531	15,455.6	65.3493	15,455.6	65.2782	15,455.6	62.6215	15,455.6	62.2291	15,455.6	59.4645	15,455.6	59.0735	15,455.6	56.8043	15,455.6	55.7244	15,455.6	55.4426	15,455.6	54.637	15,455.6	54.6361	15,455.6	54.797	15,455.6	51.4955	15,455.6	48.5592	15,455.6	58.4712	15,455.6	49.0673	15,455.6	58.0515	15,455.6	55.6089	15,455.6	52.7443
16,000.5	81.9271	16,000.5	82.3153	16,000.5	82.3461	16,000.5	81.3477	16,000.5	81.4963	16,000.5	79.518	16,000.5	79.6516	16,000.5	75.5175	16,000.5	76.0738	16,000.5	73.926	16,000.5	76.8175	16,000.5	74.9279	16,000.5	74.9226	16,000.5	72.3269	16,000.5	72.7677	16,000.5	70.3727	16,000.5	69.7911	16,000.5	66.0373	16,000.5	66.0673	16,000.5	64.6499	16,000.5	61.9895	16,000.5	62.4536	16,000.5	60.2885	16,000.5	60.4028	16,000.5	58.9972	16,000.5	53.7556	16,000.5	53.1232	16,000.5	42.2735	16,000.5	53.4775	16,000.5	54.1687	16,000.5	50.4341	16,000.5	56.7233	16,000.5	50.2043	16,000.5	58.3501	16,000.5	55.623	16,000.5	53.8197
16,564.5	82.6468	16,564.5	82.1874	16,564.5	82.7691	16,564.5	81.0887	16,564.5	81.9688	16,564.5	79.1784	16,564.5	79.9841	16,564.5	76.2434	16,564.5	77.503	16,564.5	75.5948	16,564.5	77.0086	16,564.5	76.1172	16,564.5	76.0279	16,564.5	73.5459	16,564.5	73.8874	16,564.5	70.5343	16,564.5	70.0499	16,564.5	66.4272	16,564.5	67.5254	16,564.5	64.9245	16,564.5	62.2019	16,564.5	62.2207	16,564.5	60.2071	16,564.5	59.621	16,564.5	60.8926	16,564.5	53.9858	16,564.5	55.6555	16,564.5	48.8323	16,564.5	54.4733	16,564.5	55.7321	16,564.5	53.2713	16,564.5	56.5733	16,564.5	56.4421	16,564.5	60.0684	16,564.5	57.6398	16,564.5	54.9945
17,148.9	81.8716	17,148.9	82.755	17,148.9	82.7839	17,148.9	80.9829	17,148.9	81.9339	17,148.9	79.3429	17,148.9	81.0418	17,148.9	76.3032	17,148.9	78.8844	17,148.9	76.7902	17,148.9	79.2987	17,148.9	75.8719	17,148.9	77.8232	17,148.9	73.9016	17,148.9	75.6784	17,148.9	70.3703	17,148.9	70.7301	17,148.9	65.8777	17,148.9	67.6932	17,148.9	64.3537	17,148.9	63.996	17,148.9	60.8451	17,148.9	62.5383	17,148.9	58.0029	17,148.9	61.2947	17,148.9	55.4354	17,148.9	56.7896	17,148.9	48.0723	17,148.9	56.962	17,148.9	55.3001	17,148.9	53.0961	17,148.9	56.4249	17,148.9	58.5085	17,148.9	59.599	17,148.9	59.1392	17,148.9	53.8357
17,752.4	80.5951	17,752.4	80.7902	17,752.4	82.1954	17,752.4	79.1959	17,752.4	81.39	17,752.4	77.4771	17,752.4	80.4888	17,752.4	75.5533	17,752.4	79.042	17,752.4	76.202	17,752.4	78.1324	17,752.4	76.0751	17,752.4	77.0859	17,752.4	73.1092	17,752.4	74.8083	17,752.4	69.1053	17,752.4	70.7869	17,752.4	64.4793	17,752.4	67.6487	17,752.4	62.9359	17,752.4	63.21	17,752.4	58.716	17,752.4	61.6709	17,752.4	57.6306	17,752.4	60.6462	17,752.4	54.2936	17,752.4	45.7217	17,752.4	46.5006	17,752.4	54.9453	17,752.4	52.2579	17,752.4	53.0658	17,752.4	53.1868	17,752.4	57.8713	17,752.4	57.421	17,752.4	56.1606	17,752.4	52.5636
18,379.4	75.7027	18,379.4	75.9783	18,379.4	77.1534	18,379.4	74.4056	18,379.4	77.6003	18,379.4	72.6864	18,379.4	77.8405	18,379.4	74.116	18,379.4	77.6841	18,379.4	73.2763	18,379.4	76.8888	18,379.4	73.0999	18,379.4	75.247	18,379.4	68.988	18,379.4	71.8488	18,379.4	65.3494	18,379.4	68.2069	18,379.4	60.9877	18,379.4	64.375	18,379.4	59.8965	18,379.4	59.885	18,379.4	56.769	18,379.4	58.7014	18,379.4	50.397	18,379.4	57.317	18,379.4	50.2154	18,379.4	43.4092	18,379.4	45.9518	18,379.4	51.1578	18,379.4	50.1599	18,379.4	51.9465	18,379.4	47.6052	18,379.4	55.9296	18,379.4	50.2176	18,379.4	52.1224	18,379.4	47.3847
19,026.9	68.8002	19,026.9	68.0018	19,026.9	71.8334	19,026.9	66.3474	19,026.9	72.564	19,026.9	66.9951	19,026.9	73.7697	19,026.9	69.9018	19,026.9	73.4536	19,026.9	68.7972	19,026.9	71.9299	19,026.9	67.6406	19,026.9	70.0745	19,026.9	63.3968	19,026.9	66.7894	19,026.9	61.4588	19,026.9	62.4555	19,026.9	57.322	19,026.9	59.9171	19,026.9	54.1266	19,026.9	55.7055	19,026.9	49.7193	19,026.9	53.1951	19,026.9	47.4077	19,026.9	51.1333	19,026.9	31.7448	19,026.9	12.2113	19,026.9	35.1398	19,026.9	45.4766	19,026.9	37.4675	19,026.9	47.0303	19,026.9	37.5683	19,026.9	51.0223	19,026.9	44.1093	19,026.9	47.2482	19,026.9	44.0005
19,697.8	61.5361	19,697.8	59.8249	19,697.8	64.4687	19,697.8	61.31	19,697.8	67.9199	19,697.8	64.5003	19,697.8	70.1806	19,697.8	65.8314	19,697.8	68.9619	19,697.8	63.3283	19,697.8	67.8627	19,697.8	60.7773	19,697.8	65.0663	19,697.8	55.8665	19,697.8	61.7068	19,697.8	52.4895	19,697.8	57.3435	19,697.8	46.4333	19,697.8	53.5194	19,697.8	44.2022	19,697.8	48.0133	19,697.8	39.8542	19,697.8	48.6567	19,697.8	38.5056	19,697.8	45.1096	19,697.8	41.0009	19,697.8	35.8229	19,697.8	31.7009	19,697.8	37.4153	19,697.8	32.0232	19,697.8	36.3004	19,697.8	33.5023	19,697.8	42.8344	19,697.8	29.866	19,697.8	36.963	19,697.8	31.9698
19,999.5	61.9643	19,999.5	60.2083	19,999.5	63.439	19,999.5	61.5842	19,999.5	66.1851	19,999.5	64.0269	19,999.5	67.8517	19,999.5	64.1775	19,999.5	67.214	19,999.5	61.7471	19,999.5	65.1055	19,999.5	58.3064	19,999.5	62.7479	19,999.5	52.2289	19,999.5	60.3341	19,999.5	44.7531	19,999.5	54.6052	19,999.5	37.2748	19,999.5	50.8277	19,999.5	38.4552	19,999.5	47.6041	19,999.5	36.2875	19,999.5	45.7663	19,999.5	34.2682	19,999.5	39.7052	19,999.5	34.5736	19,999.5	43.2706	19,999.5	34.7598	19,999.5	37.1884	19,999.5	27.6411	19,999.5	40.0248	19,999.5	32.0117	19,999.5	38.4701	19,999.5	35.0064	19,999.5	34.1422	19,999.5	27.8691
