"SPL Vertical"
"On-Axis"		"10°"		"-10°"		"20°"		"-20°"		"30°"		"-30°"		"40°"		"-40°"		"50°"		"-50°"		"60°"		"-60°"		"70°"		"-70°"		"80°"		"-80°"		"90°"		"-90°"		"100°"		"-100°"		"110°"		"-110°"		"120°"		"-120°"		"130°"		"-130°"		"140°"		"-140°"		"150°"		"-150°"		"160°"		"-160°"		"170°"		"-170°"		"180°"
"Frequency / Hz"	"Sound Pressure Level / dB (re 20 µPa/V)  [2.83  V @ 1. m]"	"Frequency / Hz"	"Sound Pressure Level / dB (re 20 µPa/V)  [2.83  V @ 1. m]"	"Frequency / Hz"	"Sound Pressure Level / dB (re 20 µPa/V)  [2.83  V @ 1. m]"	"Frequency / Hz"	"Sound Pressure Level / dB (re 20 µPa/V)  [2.83  V @ 1. m]"	"Frequency / Hz"	"Sound Pressure Level / dB (re 20 µPa/V)  [2.83  V @ 1. m]"	"Frequency / Hz"	"Sound Pressure Level / dB (re 20 µPa/V)  [2.83  V @ 1. m]"	"Frequency / Hz"	"Sound Pressure Level / dB (re 20 µPa/V)  [2.83  V @ 1. m]"	"Frequency / Hz"	"Sound Pressure Level / dB (re 20 µPa/V)  [2.83  V @ 1. m]"	"Frequency / Hz"	"Sound Pressure Level / dB (re 20 µPa/V)  [2.83  V @ 1. m]"	"Frequency / Hz"	"Sound Pressure Level / dB (re 20 µPa/V)  [2.83  V @ 1. m]"	"Frequency / Hz"	"Sound Pressure Level / dB (re 20 µPa/V)  [2.83  V @ 1. m]"	"Frequency / Hz"	"Sound Pressure Level / dB (re 20 µPa/V)  [2.83  V @ 1. m]"	"Frequency / Hz"	"Sound Pressure Level / dB (re 20 µPa/V)  [2.83  V @ 1. m]"	"Frequency / Hz"	"Sound Pressure Level / dB (re 20 µPa/V)  [2.83  V @ 1. m]"	"Frequency / Hz"	"Sound Pressure Level / dB (re 20 µPa/V)  [2.83  V @ 1. m]"	"Frequency / Hz"	"Sound Pressure Level / dB (re 20 µPa/V)  [2.83  V @ 1. m]"	"Frequency / Hz"	"Sound Pressure Level / dB (re 20 µPa/V)  [2.83  V @ 1. m]"	"Frequency / Hz"	"Sound Pressure Level / dB (re 20 µPa/V)  [2.83  V @ 1. m]"	"Frequency / Hz"	"Sound Pressure Level / dB (re 20 µPa/V)  [2.83  V @ 1. m]"	"Frequency / Hz"	"Sound Pressure Level / dB (re 20 µPa/V)  [2.83  V @ 1. m]"	"Frequency / Hz"	"Sound Pressure Level / dB (re 20 µPa/V)  [2.83  V @ 1. m]"	"Frequency / Hz"	"Sound Pressure Level / dB (re 20 µPa/V)  [2.83  V @ 1. m]"	"Frequency / Hz"	"Sound Pressure Level / dB (re 20 µPa/V)  [2.83  V @ 1. m]"	"Frequency / Hz"	"Sound Pressure Level / dB (re 20 µPa/V)  [2.83  V @ 1. m]"	"Frequency / Hz"	"Sound Pressure Level / dB (re 20 µPa/V)  [2.83  V @ 1. m]"	"Frequency / Hz"	"Sound Pressure Level / dB (re 20 µPa/V)  [2.83  V @ 1. m]"	"Frequency / Hz"	"Sound Pressure Level / dB (re 20 µPa/V)  [2.83  V @ 1. m]"	"Frequency / Hz"	"Sound Pressure Level / dB (re 20 µPa/V)  [2.83  V @ 1. m]"	"Frequency / Hz"	"Sound Pressure Level / dB (re 20 µPa/V)  [2.83  V @ 1. m]"	"Frequency / Hz"	"Sound Pressure Level / dB (re 20 µPa/V)  [2.83  V @ 1. m]"	"Frequency / Hz"	"Sound Pressure Level / dB (re 20 µPa/V)  [2.83  V @ 1. m]"	"Frequency / Hz"	"Sound Pressure Level / dB (re 20 µPa/V)  [2.83  V @ 1. m]"	"Frequency / Hz"	"Sound Pressure Level / dB (re 20 µPa/V)  [2.83  V @ 1. m]"	"Frequency / Hz"	"Sound Pressure Level / dB (re 20 µPa/V)  [2.83  V @ 1. m]"	"Frequency / Hz"	"Sound Pressure Level / dB (re 20 µPa/V)  [2.83  V @ 1. m]"	"Frequency / Hz"	"Sound Pressure Level / dB (re 20 µPa/V)  [2.83  V @ 1. m]"
20.5078	43.0804	20.5078	43.5274	20.5078	42.3263	20.5078	43.6859	20.5078	41.2193	20.5078	43.552	20.5078	39.6797	20.5078	43.098	20.5078	37.5992	20.5078	42.2675	20.5078	34.9908	20.5078	40.9636	20.5078	32.9707	20.5078	39.0387	20.5078	34.2326	20.5078	36.3852	20.5078	37.3823	20.5078	33.9284	20.5078	40.26	20.5078	35.1476	20.5078	42.5661	20.5078	38.6789	20.5078	44.3975	20.5078	41.7493	20.5078	45.8541	20.5078	44.0857	20.5078	47.0029	20.5078	45.8398	20.5078	47.8841	20.5078	47.1394	20.5078	48.5204	20.5078	48.0684	20.5078	48.9216	20.5078	48.681	20.5078	49.0882	20.5078	49.013
21.9727	45.0769	21.9727	45.5111	21.9727	44.3287	21.9727	45.6513	21.9727	43.2115	21.9727	45.4909	21.9727	41.6112	21.9727	44.9958	21.9727	39.2903	21.9727	44.0944	21.9727	35.6808	21.9727	42.6494	21.9727	29.0364	21.9727	40.3782	21.9727	25.8814	21.9727	36.5799	21.9727	34.6267	21.9727	28.8062	21.9727	39.3404	21.9727	29.039	21.9727	42.4169	21.9727	37.4038	21.9727	44.6454	21.9727	41.765	21.9727	46.3346	21.9727	44.5797	21.9727	47.631	21.9727	46.5481	21.9727	48.6108	21.9727	47.9521	21.9727	49.3144	21.9727	48.9315	21.9727	49.7613	21.9727	49.5642	21.9727	49.9571	21.9727	49.8966
23.4375	45.129	23.4375	45.4361	23.4375	44.6101	23.4375	45.5098	23.4375	43.9228	23.4375	45.3354	23.4375	43.1676	23.4375	44.9031	23.4375	42.5564	23.4375	44.2243	23.4375	42.4149	23.4375	43.3819	23.4375	42.9834	23.4375	42.6438	23.4375	44.1635	23.4375	42.5367	23.4375	45.6358	23.4375	43.4532	23.4375	47.1371	23.4375	45.1065	23.4375	48.5329	23.4375	46.94	23.4375	49.7709	23.4375	48.631	23.4375	50.8351	23.4375	50.0704	23.4375	51.7227	23.4375	51.2393	23.4375	52.434	23.4375	52.1475	23.4375	52.9684	23.4375	52.8119	23.4375	53.3232	23.4375	53.2485	23.4375	53.4934	23.4375	53.4717
24.9023	48.2429	24.9023	48.5481	24.9023	47.7339	24.9023	48.6419	24.9023	47.0335	24.9023	48.5159	24.9023	46.1752	24.9023	48.1599	24.9023	45.2505	24.9023	47.5688	24.9023	44.4688	24.9023	46.7629	24.9023	44.1711	24.9023	45.8415	24.9023	44.6244	24.9023	45.0842	24.9023	45.7292	24.9023	44.9698	24.9023	47.1399	24.9023	45.7835	24.9023	48.574	24.9023	47.229	24.9023	49.8905	24.9023	48.8217	24.9023	51.0353	24.9023	50.2785	24.9023	51.9921	24.9023	51.4972	24.9023	52.7574	24.9023	52.4563	24.9023	53.3305	24.9023	53.1618	24.9023	53.7096	24.9023	53.6271	24.9023	53.8903	24.9023	53.866
26.3672	50.3739	26.3672	50.6408	26.3672	49.9298	26.3672	50.722	26.3672	49.3229	26.3672	50.61	26.3672	48.5844	26.3672	50.2989	26.3672	47.7864	26.3672	49.7905	26.3672	47.0769	26.3672	49.111	26.3672	46.6935	26.3672	48.3483	26.3672	46.8648	26.3672	47.7111	26.3672	47.6153	26.3672	47.5327	26.3672	48.7394	26.3672	48.0538	26.3672	49.9886	26.3672	49.1507	26.3672	51.1971	26.3672	50.4786	26.3672	52.282	26.3672	51.7658	26.3672	53.2071	26.3672	52.8796	26.3672	53.9575	26.3672	53.7724	26.3672	54.5263	26.3672	54.4343	26.3672	54.9084	26.3672	54.8699	26.3672	55.0979	26.3672	55.0879
27.832	50.9967	27.832	51.2512	27.832	50.5971	27.832	51.3441	27.832	50.0833	27.832	51.2669	27.832	49.5133	27.832	51.0203	27.832	48.9908	27.832	50.6223	27.832	48.6724	27.832	50.1279	27.832	48.7253	27.832	49.6602	27.832	49.2258	27.832	49.4287	27.832	50.0963	27.832	49.6576	27.832	51.1701	27.832	50.4072	27.832	52.2929	27.832	51.5103	27.832	53.3639	27.832	52.7251	27.832	54.3276	27.832	53.8761	27.832	55.1556	27.832	54.8718	27.832	55.8328	27.832	55.6745	27.832	56.3498	27.832	56.2731	27.832	56.6992	27.832	56.6683	27.832	56.8737	27.832	56.8661
29.2969	53.4341	29.2969	53.6423	29.2969	53.111	29.2969	53.7221	29.2969	52.6962	29.2969	53.6665	29.2969	52.2284	29.2969	53.4756	29.2969	51.7718	29.2969	53.1618	29.2969	51.421	29.2969	52.7605	29.2969	51.2892	29.2969	52.3472	29.2969	51.4651	29.2969	52.0501	29.2969	51.9604	29.2969	52.0281	29.2969	52.701	29.2969	52.3874	29.2969	53.5727	29.2969	53.0953	29.2969	54.4708	29.2969	54.0047	29.2969	55.3204	29.2969	54.953	29.2969	56.0743	29.2969	55.8245	29.2969	56.7036	29.2969	56.5542	29.2969	57.1899	29.2969	57.1118	29.2969	57.5203	29.2969	57.486	29.2969	57.685	29.2969	57.6757
30.7617	55.0513	30.7617	55.2188	30.7617	54.7928	30.7617	55.282	30.7617	54.4665	30.7617	55.235	30.7617	54.1088	30.7617	55.0809	30.7617	53.774	30.7617	54.8361	30.7617	53.5348	30.7617	54.5382	30.7617	53.4708	30.7617	54.2561	30.7617	53.6417	30.7617	54.0913	30.7617	54.0574	30.7617	54.1543	30.7617	54.6721	30.7617	54.5087	30.7617	55.4071	30.7617	55.1259	30.7617	56.1817	30.7617	55.9019	30.7617	56.9311	30.7617	56.7161	30.7617	57.6088	30.7617	57.4742	30.7617	58.1835	30.7617	58.1163	30.7617	58.6339	30.7617	58.6103	30.7617	58.9449	30.7617	58.9415	30.7617	59.105	30.7617	59.1057
32.2266	56.7094	32.2266	56.8595	32.2266	56.4838	32.2266	56.9218	32.2266	56.2035	32.2266	56.8915	32.2266	55.8999	32.2266	56.7722	32.2266	55.6183	32.2266	56.5796	32.2266	55.4165	32.2266	56.3471	32.2266	55.3565	32.2266	56.1317	32.2266	55.4865	32.2266	56.0132	32.2266	55.8205	32.2266	56.0755	32.2266	56.3303	32.2266	56.3693	32.2266	56.9583	32.2266	56.8799	32.2266	57.6381	32.2266	57.5332	32.2266	58.3106	32.2266	58.2337	32.2266	58.9301	32.2266	58.8984	32.2266	59.4635	32.2266	59.4692	32.2266	59.8871	32.2266	59.9116	32.2266	60.1838	32.2266	60.2078	32.2266	60.3413	32.2266	60.351
33.6914	58.3291	33.6914	58.4653	33.6914	58.1294	33.6914	58.527	33.6914	57.8848	33.6914	58.5098	33.6914	57.6225	33.6914	58.4171	33.6914	57.38	33.6914	58.2627	33.6914	57.2038	33.6914	58.0748	33.6914	57.1434	33.6914	57.8997	33.6914	57.2383	33.6914	57.8004	33.6914	57.5037	33.6914	57.8434	33.6914	57.9234	33.6914	58.0726	33.6914	58.4554	33.6914	58.4851	33.6914	59.046	33.6914	59.0295	33.6914	59.643	33.6914	59.6301	33.6914	60.2026	33.6914	60.2134	33.6914	60.6911	33.6914	60.7234	33.6914	61.0832	33.6914	61.1234	33.6914	61.3606	33.6914	61.3927	33.6914	61.5097	33.6914	61.5219
35.1562	59.4431	35.1562	59.5834	35.1562	59.2361	35.1562	59.6468	35.1562	58.9795	35.1562	59.6299	35.1562	58.6993	35.1562	59.5363	35.1562	58.4314	35.1562	59.3795	35.1562	58.2222	35.1562	59.1868	35.1562	58.1223	35.1562	59.0024	35.1562	58.1751	35.1562	58.8867	35.1562	58.4011	35.1562	58.9042	35.1562	58.7887	35.1562	59.0998	35.1562	59.2979	35.1562	59.4743	35.1562	59.8743	35.1562	59.9819	35.1562	60.464	35.1562	60.5502	35.1562	61.021	35.1562	61.1075	35.1562	61.5098	35.1562	61.5972	35.1562	61.9044	35.1562	61.9816	35.1562	62.1856	35.1562	62.239	35.1562	62.3401	35.1562	62.3592
36.6211	60.7097	36.6211	60.8273	36.6211	60.5465	36.6211	60.8895	36.6211	60.3546	36.6211	60.8927	36.6211	60.1577	36.6211	60.8407	36.6211	59.9865	36.6211	60.7468	36.6211	59.8769	36.6211	60.6358	36.6211	59.8644	36.6211	60.5452	36.6211	59.9762	36.6211	60.5221	36.6211	60.2219	36.6211	60.612	36.6211	60.5896	36.6211	60.8427	36.6211	61.0491	36.6211	61.2094	36.6211	61.5603	36.6211	61.6749	36.6211	62.0817	36.6211	62.1834	36.6211	62.5762	36.6211	62.6783	36.6211	63.0131	36.6211	63.1128	36.6211	63.3684	36.6211	63.4541	36.6211	63.6239	36.6211	63.6821	36.6211	63.7663	36.6211	63.7869
38.0859	62.2204	38.0859	62.3273	38.0859	62.0779	38.0859	62.3898	38.0859	61.914	38.0859	62.4049	38.0859	61.7482	38.0859	62.3758	38.0859	61.6053	38.0859	62.3134	38.0859	61.5136	38.0859	62.2376	38.0859	61.5008	38.0859	62.1777	38.0859	61.5887	38.0859	62.1697	38.0859	61.7868	38.0859	62.2487	38.0859	62.0886	38.0859	62.4372	38.0859	62.4729	38.0859	62.7347	38.0859	62.9088	38.0859	63.1162	38.0859	63.3615	38.0859	63.5395	38.0859	63.798	38.0859	63.9578	38.0859	64.1894	38.0859	64.3298	38.0859	64.512	38.0859	64.6241	38.0859	64.7473	38.0859	64.8203	38.0859	64.8819	38.0859	64.9073
39.5508	63.3786	39.5508	63.4839	39.5508	63.2367	39.5508	63.5443	39.5508	63.0715	39.5508	63.5566	39.5508	62.9013	39.5508	63.5233	39.5508	62.7489	39.5508	63.4542	39.5508	62.6409	39.5508	63.3674	39.5508	62.6037	39.5508	63.2901	39.5508	62.6593	39.5508	63.2565	39.5508	62.8189	39.5508	63.3012	39.5508	63.0795	39.5508	63.4486	39.5508	63.4235	39.5508	63.7025	39.5508	63.8229	39.5508	64.0425	39.5508	64.2448	39.5508	64.4299	39.5508	64.6566	39.5508	64.8199	39.5508	65.0293	39.5508	65.1708	39.5508	65.3385	39.5508	65.4507	39.5508	65.5653	39.5508	65.638	39.5508	65.6956	39.5508	65.7208
41.0156	64.4571	41.0156	64.5466	41.0156	64.3368	41.0156	64.5976	41.0156	64.1975	41.0156	64.6076	41.0156	64.0557	41.0156	64.5793	41.0156	63.9317	41.0156	64.522	41.0156	63.8482	41.0156	64.4528	41.0156	63.8277	41.0156	64.3962	41.0156	63.8887	41.0156	64.3822	41.0156	64.0407	41.0156	64.4402	41.0156	64.2813	41.0156	64.5903	41.0156	64.5962	41.0156	64.8346	41.0156	64.9615	41.0156	65.1546	41.0156	65.3488	41.0156	65.5163	41.0156	65.7287	41.0156	65.8796	41.0156	66.0741	41.0156	66.2067	41.0156	66.362	41.0156	66.4679	41.0156	66.574	41.0156	66.6428	41.0156	66.6962	41.0156	66.7201
42.4805	65.6756	42.4805	65.7537	42.4805	65.5736	42.4805	65.8013	42.4805	65.4584	42.4805	65.8164	42.4805	65.3443	42.4805	65.8019	42.4805	65.2489	42.4805	65.767	42.4805	65.1914	42.4805	65.7271	42.4805	65.1906	42.4805	65.7034	42.4805	65.2612	42.4805	65.7212	42.4805	65.411	42.4805	65.8035	42.4805	65.6378	42.4805	65.9649	42.4805	65.9295	42.4805	66.2047	42.4805	66.2662	42.4805	66.5059	42.4805	66.6233	42.4805	66.8389	42.4805	66.9747	42.4805	67.1692	42.4805	67.2962	42.4805	67.4643	42.4805	67.5664	42.4805	67.698	42.4805	67.7676	42.4805	67.8521	42.4805	67.887	42.4805	67.9161
43.9453	66.8335	43.9453	66.9093	43.9453	66.7365	43.9453	66.9583	43.9453	66.6274	43.9453	66.9784	43.9453	66.5187	43.9453	66.9723	43.9453	66.4252	43.9453	66.9472	43.9453	66.3636	43.9453	66.9159	43.9453	66.3502	43.9453	66.8961	43.9453	66.3988	43.9453	66.9085	43.9453	66.5172	43.9453	66.973	43.9453	66.7054	43.9453	67.1027	43.9453	66.9547	43.9453	67.2992	43.9453	67.2487	43.9453	67.5502	43.9453	67.5661	43.9453	67.8324	43.9453	67.8833	43.9453	68.1161	43.9453	68.1772	43.9453	68.3723	43.9453	68.427	43.9453	68.5761	43.9453	68.6156	43.9453	68.7096	43.9453	68.73	43.9453	68.7622
45.4102	67.8628	45.4102	67.934	45.4102	67.7752	45.4102	67.9835	45.4102	67.6796	45.4102	68.0094	45.4102	67.5874	45.4102	68.0141	45.4102	67.5121	45.4102	68.0042	45.4102	67.4682	45.4102	67.9914	45.4102	67.4698	45.4102	67.9914	45.4102	67.5284	45.4102	68.0222	45.4102	67.6503	45.4102	68.1005	45.4102	67.835	45.4102	68.2369	45.4102	68.0746	45.4102	68.4318	45.4102	68.3545	45.4102	68.6738	45.4102	68.6555	45.4102	68.9413	45.4102	68.9564	45.4102	69.208	45.4102	69.2359	45.4102	69.447	45.4102	69.4746	45.4102	69.6359	45.4102	69.6563	45.4102	69.7579	45.4102	69.7684	45.4102	69.8032
46.875	68.8768	46.875	68.9465	46.875	68.7935	46.875	68.9977	46.875	68.7042	46.875	69.0289	46.875	68.6193	46.875	69.0421	46.875	68.5508	46.875	69.0434	46.875	68.5121	46.875	69.0432	46.875	68.5156	46.875	69.0552	46.875	68.5717	46.875	69.0951	46.875	68.6862	46.875	69.1771	46.875	68.8589	46.875	69.3103	46.875	69.083	46.875	69.4945	46.875	69.3456	46.875	69.7194	46.875	69.6293	46.875	69.966	46.875	69.9145	46.875	70.2104	46.875	70.1813	46.875	70.4283	46.875	70.4113	46.875	70.5987	46.875	70.5886	46.875	70.7061	46.875	70.7012	46.875	70.7413
48.3398	70.0242	48.3398	70.0883	48.3398	69.9482	48.3398	70.1361	48.3398	69.8667	48.3398	70.1663	48.3398	69.7884	48.3398	70.1804	48.3398	69.7238	48.3398	70.1837	48.3398	69.6839	48.3398	70.1849	48.3398	69.6799	48.3398	70.1956	48.3398	69.7211	48.3398	70.2295	48.3398	69.8134	48.3398	70.2991	48.3398	69.9579	48.3398	70.4127	48.3398	70.1498	48.3398	70.5709	48.3398	70.3789	48.3398	70.7658	48.3398	70.6305	48.3398	70.981	48.3398	70.8871	48.3398	71.1956	48.3398	71.1302	48.3398	71.3876	48.3398	71.3423	48.3398	71.5373	48.3398	71.5082	48.3398	71.6302	48.3398	71.6157	48.3398	71.6573
51.2695	71.8868	51.2695	71.9469	51.2695	71.8212	51.2695	71.9982	51.2695	71.7556	51.2695	72.0397	51.2695	71.697	51.2695	72.0731	51.2695	71.6538	51.2695	72.1023	51.2695	71.6349	51.2695	72.1341	51.2695	71.6488	51.2695	72.177	51.2695	71.7024	51.2695	72.2401	51.2695	71.7997	51.2695	72.3313	51.2695	71.9409	51.2695	72.4552	51.2695	72.1217	51.2695	72.6107	51.2695	72.3337	51.2695	72.7905	51.2695	72.5645	51.2695	72.9812	51.2695	72.7997	51.2695	73.1661	51.2695	73.0235	51.2695	73.3277	51.2695	73.2208	51.2695	73.4499	51.2695	73.3781	51.2695	73.5208	51.2695	73.4846	51.2695	73.5331
52.7344	72.7765	52.7344	72.8338	52.7344	72.7148	52.7344	72.8839	52.7344	72.6536	52.7344	72.9257	52.7344	72.5991	52.7344	72.9604	52.7344	72.5585	52.7344	72.9915	52.7344	72.5395	52.7344	73.0244	52.7344	72.5495	52.7344	73.0663	52.7344	72.5945	52.7344	73.1251	52.7344	72.6785	52.7344	73.2076	52.7344	72.802	52.7344	73.3178	52.7344	72.9619	52.7344	73.4552	52.7344	73.151	52.7344	73.6137	52.7344	73.3589	52.7344	73.7818	52.7344	73.5727	52.7344	73.9448	52.7344	73.7782	52.7344	74.0868	52.7344	73.9611	52.7344	74.1933	52.7344	74.1086	52.7344	74.2532	52.7344	74.2104	52.7344	74.2595
54.1992	73.6303	54.1992	73.6866	54.1992	73.572	54.1992	73.738	54.1992	73.5159	54.1992	73.7834	54.1992	73.4674	54.1992	73.8238	54.1992	73.4328	54.1992	73.8617	54.1992	73.4188	54.1992	73.9018	54.1992	73.4317	54.1992	73.9501	54.1992	73.4768	54.1992	74.013	54.1992	73.5574	54.1992	74.0964	54.1992	73.6741	54.1992	74.2035	54.1992	73.8242	54.1992	74.3335	54.1992	74.0016	54.1992	74.481	54.1992	74.1969	54.1992	74.6357	54.1992	74.3985	54.1992	74.7846	54.1992	74.5931	54.1992	74.9131	54.1992	74.7675	54.1992	75.008	54.1992	74.9096	54.1992	75.0592	54.1992	75.0094	54.1992	75.0602
55.6641	74.4971	55.6641	74.5535	55.6641	74.4401	55.6641	74.6066	55.6641	74.386	55.6641	74.6554	55.6641	74.3394	55.6641	74.7001	55.6641	74.3055	55.6641	74.7423	55.6641	74.2898	55.6641	74.7856	55.6641	74.2977	55.6641	74.8344	55.6641	74.334	55.6641	74.894	55.6641	74.4017	55.6641	74.9691	55.6641	74.5019	55.6641	75.0627	55.6641	74.6329	55.6641	75.1745	55.6641	74.7896	55.6641	75.3001	55.6641	74.9644	55.6641	75.4313	55.6641	75.1468	55.6641	75.5567	55.6641	75.3251	55.6641	75.6639	55.6641	75.4872	55.6641	75.7411	55.6641	75.6215	55.6641	75.779	55.6641	75.7186	55.6641	75.772
58.5938	75.8351	58.5938	75.8878	58.5938	75.7844	58.5938	75.9405	58.5938	75.7385	58.5938	75.9923	58.5938	75.7009	58.5938	76.0434	58.5938	75.6758	58.5938	76.095	58.5938	75.6676	58.5938	76.1496	58.5938	75.6805	58.5938	76.2101	58.5938	75.7183	58.5938	76.28	58.5938	75.7835	58.5938	76.3622	58.5938	75.877	58.5938	76.4579	58.5938	75.9974	58.5938	76.566	58.5938	76.1408	58.5938	76.6823	58.5938	76.3007	58.5938	76.7994	58.5938	76.4683	58.5938	76.9081	58.5938	76.6335	58.5938	76.9977	58.5938	76.7855	58.5938	77.0587	58.5938	76.9139	58.5938	77.0834	58.5938	77.0099	58.5938	77.0674
60.0586	76.6053	60.0586	76.6572	60.0586	76.5561	60.0586	76.7101	60.0586	76.512	60.0586	76.7633	60.0586	76.476	60.0586	76.8167	60.0586	76.4516	60.0586	76.871	60.0586	76.4425	60.0586	76.9278	60.0586	76.4524	60.0586	76.9894	60.0586	76.4846	60.0586	77.0583	60.0586	76.5418	60.0586	77.1364	60.0586	76.6248	60.0586	77.2247	60.0586	76.7328	60.0586	77.322	60.0586	76.8625	60.0586	77.4247	60.0586	77.0085	60.0586	77.5267	60.0586	77.1631	60.0586	77.6198	60.0586	77.3169	60.0586	77.6948	60.0586	77.4601	60.0586	77.7433	60.0586	77.5829	60.0586	77.7585	60.0586	77.6771	60.0586	77.7366
62.9883	77.9895	62.9883	78.0429	62.9883	77.9401	62.9883	78.0987	62.9883	77.8966	62.9883	78.1559	62.9883	77.8615	62.9883	78.2141	62.9883	77.8374	62.9883	78.2733	62.9883	77.8273	62.9883	78.3341	62.9883	77.8341	62.9883	78.3978	62.9883	77.8605	62.9883	78.4655	62.9883	77.9085	62.9883	78.5384	62.9883	77.979	62.9883	78.6168	62.9883	78.0717	62.9883	78.6995	62.9883	78.184	62.9883	78.7837	62.9883	78.3118	62.9883	78.8645	62.9883	78.4488	62.9883	78.9354	62.9883	78.5872	62.9883	78.9893	62.9883	78.7185	62.9883	79.0194	62.9883	78.8339	62.9883	79.0203	62.9883	78.9261	62.9883	78.9892
64.4531	78.4018	64.4531	78.4533	64.4531	78.3553	64.4531	78.5086	64.4531	78.3156	64.4531	78.5666	64.4531	78.2848	64.4531	78.6268	64.4531	78.2651	64.4531	78.6892	64.4531	78.259	64.4531	78.7541	64.4531	78.2691	64.4531	78.8221	64.4531	78.2974	64.4531	78.8938	64.4531	78.3458	64.4531	78.9697	64.4531	78.4151	64.4531	79.0494	64.4531	78.5046	64.4531	79.1316	64.4531	78.6125	64.4531	79.2131	64.4531	78.7346	64.4531	79.2895	64.4531	78.8656	64.4531	79.3549	64.4531	78.9981	64.4531	79.403	64.4531	79.1244	64.4531	79.4276	64.4531	79.2364	64.4531	79.4243	64.4531	79.327	64.4531	79.3906
67.3828	79.163	67.3828	79.2123	67.3828	79.1211	67.3828	79.268	67.3828	79.0877	67.3828	79.3292	67.3828	79.064	67.3828	79.3947	67.3828	79.0512	67.3828	79.4638	67.3828	79.0505	67.3828	79.5354	67.3828	79.0635	67.3828	79.6088	67.3828	79.0914	67.3828	79.6834	67.3828	79.1352	67.3828	79.7582	67.3828	79.1957	67.3828	79.8322	67.3828	79.2726	67.3828	79.9039	67.3828	79.3646	67.3828	79.9708	67.3828	79.469	67.3828	80.0296	67.3828	79.5817	67.3828	80.0762	67.3828	79.6973	67.3828	80.1062	67.3828	79.8093	67.3828	80.1154	67.3828	79.9111	67.3828	80.1007	67.3828	79.9966	67.3828	80.0608
68.8477	79.4145	68.8477	79.4641	68.8477	79.3727	68.8477	79.5204	68.8477	79.3396	68.8477	79.5824	68.8477	79.316	68.8477	79.649	68.8477	79.3029	68.8477	79.7189	68.8477	79.3012	68.8477	79.791	68.8477	79.3122	68.8477	79.8639	68.8477	79.3369	68.8477	79.9366	68.8477	79.3762	68.8477	80.0079	68.8477	79.4306	68.8477	80.0766	68.8477	79.5003	68.8477	80.1412	68.8477	79.5841	68.8477	80.1995	68.8477	79.6799	68.8477	80.2488	68.8477	79.784	68.8477	80.2857	68.8477	79.8919	68.8477	80.3064	68.8477	79.9976	68.8477	80.3077	68.8477	80.0952	68.8477	80.2871	68.8477	80.1788	68.8477	80.2438
71.7773	80.2439	71.7773	80.2935	71.7773	80.2027	71.7773	80.3507	71.7773	80.1705	71.7773	80.4145	71.7773	80.1478	71.7773	80.4835	71.7773	80.135	71.7773	80.556	71.7773	80.1326	71.7773	80.6302	71.7773	80.141	71.7773	80.7043	71.7773	80.161	71.7773	80.7763	71.7773	80.1932	71.7773	80.8445	71.7773	80.2381	71.7773	80.907	71.7773	80.296	71.7773	80.9622	71.7773	80.3665	71.7773	81.0082	71.7773	80.4481	71.7773	81.0428	71.7773	80.5385	71.7773	81.0637	71.7773	80.634	71.7773	81.0687	71.7773	80.7303	71.7773	81.0557	71.7773	80.822	71.7773	81.0236	71.7773	80.9043	71.7773	80.9725
74.707	80.8203	74.707	80.8702	74.707	80.7797	74.707	80.9288	74.707	80.7487	74.707	80.9949	74.707	80.7271	74.707	81.0669	74.707	80.715	74.707	81.1426	74.707	80.7121	74.707	81.2196	74.707	80.7183	74.707	81.295	74.707	80.734	74.707	81.3663	74.707	80.7595	74.707	81.431	74.707	80.7953	74.707	81.4868	74.707	80.8417	74.707	81.5318	74.707	80.899	74.707	81.5646	74.707	80.9665	74.707	81.5838	74.707	81.043	74.707	81.5883	74.707	81.126	74.707	81.5772	74.707	81.2122	74.707	81.5499	74.707	81.2975	74.707	81.5065	74.707	81.3775	74.707	81.4483
77.6367	80.8778	77.6367	80.9272	77.6367	80.8381	77.6367	80.9859	77.6367	80.8082	77.6367	81.0525	77.6367	80.7876	77.6367	81.1254	77.6367	80.7759	77.6367	81.2021	77.6367	80.7725	77.6367	81.2796	77.6367	80.7769	77.6367	81.3547	77.6367	80.7891	77.6367	81.4243	77.6367	80.8092	77.6367	81.4853	77.6367	80.8375	77.6367	81.5353	77.6367	80.8748	77.6367	81.5724	77.6367	80.9214	77.6367	81.5952	77.6367	80.9774	77.6367	81.603	77.6367	81.0424	77.6367	81.5954	77.6367	81.1148	77.6367	81.5725	77.6367	81.1923	77.6367	81.5349	77.6367	81.2716	77.6367	81.4838	77.6367	81.3491	77.6367	81.4209
79.1016	81.0381	79.1016	81.0874	79.1016	80.9988	79.1016	81.1462	79.1016	80.9695	79.1016	81.2135	79.1016	80.9496	79.1016	81.2872	79.1016	80.9384	79.1016	81.3647	79.1016	80.9352	79.1016	81.4431	79.1016	80.9393	79.1016	81.5188	79.1016	80.9506	79.1016	81.5885	79.1016	80.969	79.1016	81.6488	79.1016	80.9949	79.1016	81.6973	79.1016	81.0288	79.1016	81.7317	79.1016	81.0715	79.1016	81.7509	79.1016	81.1231	79.1016	81.7543	79.1016	81.1836	79.1016	81.7419	79.1016	81.2519	79.1016	81.7141	79.1016	81.326	79.1016	81.6721	79.1016	81.403	79.1016	81.6174	79.1016	81.4797	79.1016	81.5523
82.0312	81.6155	82.0312	81.6646	82.0312	81.5768	82.0312	81.7235	82.0312	81.5482	82.0312	81.7913	82.0312	81.5289	82.0312	81.8658	82.0312	81.518	82.0312	81.9443	82.0312	81.5144	82.0312	82.0233	82.0312	81.517	82.0312	82.0991	82.0312	81.5253	82.0312	82.1676	82.0312	81.5391	82.0312	82.2253	82.0312	81.5587	82.0312	82.2691	82.0312	81.5846	82.0312	82.2969	82.0312	81.6178	82.0312	82.3074	82.0312	81.6592	82.0312	82.3004	82.0312	81.7092	82.0312	82.2768	82.0312	81.7678	82.0312	82.238	82.0312	81.8339	82.0312	82.1861	82.0312	81.9055	82.0312	82.1236	82.0312	81.9799	82.0312	82.0538
84.9609	81.7271	84.9609	81.7759	84.9609	81.6888	84.9609	81.8348	84.9609	81.6605	84.9609	81.9029	84.9609	81.6412	84.9609	81.9779	84.9609	81.6296	84.9609	82.057	84.9609	81.6244	84.9609	82.1365	84.9609	81.6244	84.9609	82.2121	84.9609	81.6289	84.9609	82.2795	84.9609	81.6376	84.9609	82.3349	84.9609	81.6509	84.9609	82.3747	84.9609	81.6696	84.9609	82.3969	84.9609	81.6948	84.9609	82.4003	84.9609	81.728	84.9609	82.385	84.9609	81.7701	84.9609	82.3523	84.9609	81.8216	84.9609	82.3043	84.9609	81.8823	84.9609	82.244	84.9609	81.9507	84.9609	82.1748	84.9609	82.0244	84.9609	82.1003
87.8906	81.5398	87.8906	81.5897	87.8906	81.5024	87.8906	81.6518	87.8906	81.4769	87.8906	81.7251	87.8906	81.462	87.8906	81.8073	87.8906	81.456	87.8906	81.8952	87.8906	81.4574	87.8906	81.9846	87.8906	81.4646	87.8906	82.0708	87.8906	81.4764	87.8906	82.1489	87.8906	81.4921	87.8906	82.2142	87.8906	81.5117	87.8906	82.2627	87.8906	81.5357	87.8906	82.2916	87.8906	81.5651	87.8906	82.2994	87.8906	81.6014	87.8906	82.2861	87.8906	81.6457	87.8906	82.253	87.8906	81.699	87.8906	82.2028	87.8906	81.7612	87.8906	82.139	87.8906	81.8316	87.8906	82.0657	87.8906	81.9079	87.8906	81.9873
90.8203	81.9603	90.8203	82.0094	90.8203	81.9241	90.8203	82.071	90.8203	81.8998	90.8203	82.144	90.8203	81.886	90.8203	82.2256	90.8203	81.8805	90.8203	82.3123	90.8203	81.8812	90.8203	82.3995	90.8203	81.886	90.8203	82.482	90.8203	81.8933	90.8203	82.5545	90.8203	81.9023	90.8203	82.6123	90.8203	81.9127	90.8203	82.6514	90.8203	81.9253	90.8203	82.669	90.8203	81.9416	90.8203	82.664	90.8203	81.9634	90.8203	82.6372	90.8203	81.993	90.8203	82.5907	90.8203	82.0322	90.8203	82.5281	90.8203	82.0823	90.8203	82.4542	90.8203	82.1434	90.8203	82.3739	90.8203	82.2143	90.8203	82.2923
95.2148	82.1021	95.2148	82.1539	95.2148	82.0584	95.2148	82.2132	95.2148	82.0225	95.2148	82.2787	95.2148	81.9938	95.2148	82.3481	95.2148	81.9709	95.2148	82.4184	95.2148	81.9524	95.2148	82.4859	95.2148	81.9369	95.2148	82.5464	95.2148	81.9232	95.2148	82.5955	95.2148	81.9108	95.2148	82.6291	95.2148	81.8999	95.2148	82.6437	95.2148	81.8912	95.2148	82.6371	95.2148	81.8865	95.2148	82.6087	95.2148	81.888	95.2148	82.5595	95.2148	81.8985	95.2148	82.4926	95.2148	81.9206	95.2148	82.4123	95.2148	81.9564	95.2148	82.3243	95.2148	82.0068	95.2148	82.2346	95.2148	82.0716	95.2148	82.1487
98.1445	82.2496	98.1445	82.2979	98.1445	82.2102	98.1445	82.3548	98.1445	82.179	98.1445	82.419	98.1445	82.155	98.1445	82.4886	98.1445	82.1366	98.1445	82.5604	98.1445	82.1219	98.1445	82.6305	98.1445	82.1092	98.1445	82.6943	98.1445	82.0971	98.1445	82.7468	98.1445	82.0847	98.1445	82.7833	98.1445	82.072	98.1445	82.7996	98.1445	82.0599	98.1445	82.7932	98.1445	82.0502	98.1445	82.7632	98.1445	82.0456	98.1445	82.7107	98.1445	82.0493	98.1445	82.6392	98.1445	82.0645	98.1445	82.5538	98.1445	82.0942	98.1445	82.4609	98.1445	82.1401	98.1445	82.3672	98.1445	82.2023	98.1445	82.2793
101.074	82.1296	101.074	82.178	101.074	82.0929	101.074	82.2384	101.074	82.0672	101.074	82.3097	101.074	82.0509	101.074	82.3901	101.074	82.0421	101.074	82.4761	101.074	82.0387	101.074	82.5634	101.074	82.0383	101.074	82.6464	101.074	82.0394	101.074	82.7192	101.074	82.0407	101.074	82.7757	101.074	82.0417	101.074	82.8109	101.074	82.0429	101.074	82.8209	101.074	82.0459	101.074	82.8044	101.074	82.0531	101.074	82.7621	101.074	82.0677	101.074	82.6973	101.074	82.0927	101.074	82.6153	101.074	82.1311	101.074	82.5229	101.074	82.1847	101.074	82.4274	101.074	82.2535	101.074	82.3357
105.469	82.2803	105.469	82.3426	105.469	82.2333	105.469	82.4199	105.469	82.2008	105.469	82.5106	105.469	82.181	105.469	82.6115	105.469	82.1712	105.469	82.718	105.469	82.1688	105.469	82.8243	105.469	82.1709	105.469	82.9237	105.469	82.1752	105.469	83.0091	105.469	82.1799	105.469	83.0741	105.469	82.1843	105.469	83.1129	105.469	82.1888	105.469	83.1219	105.469	82.1951	105.469	83.0996	105.469	82.2058	105.469	83.0475	105.469	82.2245	105.469	82.9694	105.469	82.255	105.469	82.8717	105.469	82.3007	105.469	82.7622	105.469	82.3638	105.469	82.6494	105.469	82.4447	105.469	82.5414
108.398	82.2651	108.398	82.3233	108.398	82.2197	108.398	82.3939	108.398	82.1863	108.398	82.4754	108.398	82.1629	108.398	82.5649	108.398	82.1474	108.398	82.6582	108.398	82.137	108.398	82.7498	108.398	82.129	108.398	82.8338	108.398	82.1213	108.398	82.9037	108.398	82.1124	108.398	82.9534	108.398	82.102	108.398	82.9777	108.398	82.0906	108.398	82.9732	108.398	82.0806	108.398	82.9387	108.398	82.075	108.398	82.8757	108.398	82.0779	108.398	82.7884	108.398	82.0939	108.398	82.6834	108.398	82.1269	108.398	82.5688	108.398	82.1799	108.398	82.4537	108.398	82.2536	108.398	82.3463
112.793	82.5736	112.793	82.6341	112.793	82.5255	112.793	82.7065	112.793	82.4893	112.793	82.7891	112.793	82.4634	112.793	82.879	112.793	82.4455	112.793	82.9718	112.793	82.4331	112.793	83.0623	112.793	82.4235	112.793	83.1445	112.793	82.4145	112.793	83.2122	112.793	82.4046	112.793	83.2593	112.793	82.3931	112.793	83.2807	112.793	82.3807	112.793	83.273	112.793	82.3693	112.793	83.2351	112.793	82.362	112.793	83.1684	112.793	82.363	112.793	83.0774	112.793	82.3768	112.793	82.9688	112.793	82.4079	112.793	82.8511	112.793	82.4593	112.793	82.7337	112.793	82.5322	112.793	82.6251
117.188	82.5521	117.188	82.6095	117.188	82.5036	117.188	82.6751	117.188	82.4637	117.188	82.7474	117.188	82.4314	117.188	82.8238	117.188	82.4048	117.188	82.901	117.188	82.3821	117.188	82.9747	117.188	82.3609	117.188	83.0399	117.188	82.3394	117.188	83.0914	117.188	82.3164	117.188	83.1238	117.188	82.2916	117.188	83.1326	117.188	82.2659	117.188	83.1146	117.188	82.2415	117.188	83.0684	117.188	82.2219	117.188	82.9955	117.188	82.2116	117.188	82.8997	117.188	82.2156	117.188	82.7879	117.188	82.2385	117.188	82.6683	117.188	82.2835	117.188	82.5502	117.188	82.352	117.188	82.4424
120.117	82.6837	120.117	82.7444	120.117	82.6304	120.117	82.8118	120.117	82.5845	120.117	82.8838	120.117	82.5451	120.117	82.9575	120.117	82.5102	120.117	83.0292	120.117	82.4779	120.117	83.0942	120.117	82.4458	120.117	83.1475	120.117	82.4118	120.117	83.1839	120.117	82.3747	120.117	83.1984	120.117	82.3341	120.117	83.1869	120.117	82.2912	120.117	83.1468	120.117	82.2483	120.117	83.0777	120.117	82.2097	120.117	82.9819	120.117	82.1805	120.117	82.8647	120.117	82.1668	120.117	82.7338	120.117	82.1742	120.117	82.5991	120.117	82.2076	120.117	82.4708	120.117	82.2692	120.117	82.3584
124.512	82.7708	124.512	82.8288	124.512	82.7192	124.512	82.8923	124.512	82.674	124.512	82.9594	124.512	82.6345	124.512	83.0274	124.512	82.5992	124.512	83.0928	124.512	82.566	124.512	83.1514	124.512	82.5327	124.512	83.1985	124.512	82.4975	124.512	83.2291	124.512	82.459	124.512	83.2384	124.512	82.4167	124.512	83.2222	124.512	82.3715	124.512	83.1782	124.512	82.3258	124.512	83.1059	124.512	82.2835	124.512	83.0078	124.512	82.2496	124.512	82.8896	124.512	82.2302	124.512	82.7591	124.512	82.2311	124.512	82.6265	124.512	82.2575	124.512	82.5019	124.512	82.3122	124.512	82.3949
128.906	82.6841	128.906	82.7409	128.906	82.6346	128.906	82.8042	128.906	82.5922	128.906	82.8729	128.906	82.5562	128.906	82.9448	128.906	82.5251	128.906	83.0168	128.906	82.4971	128.906	83.0848	128.906	82.4702	128.906	83.1441	128.906	82.4424	128.906	83.1889	128.906	82.4124	128.906	83.2135	128.906	82.3796	128.906	83.2128	128.906	82.3446	128.906	83.1832	128.906	82.3097	128.906	83.1237	128.906	82.2782	128.906	83.0362	128.906	82.255	128.906	82.926	128.906	82.2457	128.906	82.801	128.906	82.2559	128.906	82.6712	128.906	82.2901	128.906	82.547	128.906	82.3509	128.906	82.4378
133.301	82.6529	133.301	82.7119	133.301	82.6017	133.301	82.7781	133.301	82.5584	133.301	82.85	133.301	82.5221	133.301	82.9253	133.301	82.4915	133.301	83.0008	133.301	82.4644	133.301	83.0724	133.301	82.4386	133.301	83.1346	133.301	82.4117	133.301	83.1816	133.301	82.382	133.301	83.2072	133.301	82.3487	133.301	83.2061	133.301	82.3123	133.301	83.1745	133.301	82.275	133.301	83.1115	133.301	82.2406	133.301	83.0193	133.301	82.2143	133.301	82.9035	133.301	82.2023	133.301	82.7727	133.301	82.2106	133.301	82.6373	133.301	82.2442	133.301	82.5081	133.301	82.3059	133.301	82.3952
139.16	82.6529	139.16	82.706	139.16	82.6106	139.16	82.7695	139.16	82.5785	139.16	82.8419	139.16	82.5549	139.16	82.9207	139.16	82.5374	139.16	83.002	139.16	82.5229	139.16	83.0813	139.16	82.5084	139.16	83.1526	139.16	82.491	139.16	83.2094	139.16	82.4686	139.16	83.2453	139.16	82.4403	139.16	83.2542	139.16	82.4068	139.16	83.2318	139.16	82.3705	139.16	83.1766	139.16	82.3354	139.16	83.0904	139.16	82.3071	139.16	82.9787	139.16	82.2923	139.16	82.8502	139.16	82.2975	139.16	82.716	139.16	82.3282	139.16	82.5875	139.16	82.3876	139.16	82.4754
143.555	82.7153	143.555	82.766	143.555	82.671	143.555	82.8224	143.555	82.6329	143.555	82.883	143.555	82.5999	143.555	82.9454	143.555	82.5703	143.555	83.0065	143.555	82.5414	143.555	83.0626	143.555	82.5108	143.555	83.1089	143.555	82.476	143.555	83.1403	143.555	82.4352	143.555	83.1514	143.555	82.388	143.555	83.1377	143.555	82.3355	143.555	83.0957	143.555	82.2803	143.555	83.0244	143.555	82.2271	143.555	82.9258	143.555	82.1821	143.555	82.8055	143.555	82.1522	143.555	82.6717	143.555	82.1445	143.555	82.5352	143.555	82.1647	143.555	82.4072	143.555	82.216	143.555	82.2982
147.949	82.6366	147.949	82.6933	147.949	82.5864	147.949	82.7554	147.949	82.5429	147.949	82.8215	147.949	82.506	147.949	82.8899	147.949	82.4747	147.949	82.9579	147.949	82.4474	147.949	83.0222	147.949	82.4221	147.949	83.0785	147.949	82.3965	147.949	83.1214	147.949	82.3687	147.949	83.1453	147.949	82.3375	147.949	83.1448	147.949	82.303	147.949	83.1158	147.949	82.2671	147.949	83.0566	147.949	82.2329	147.949	82.9689	147.949	82.2057	147.949	82.8577	147.949	82.1913	147.949	82.7313	147.949	82.196	147.949	82.6001	147.949	82.2253	147.949	82.4753	147.949	82.2822	147.949	82.3668
153.809	82.6136	153.809	82.6709	153.809	82.5603	153.809	82.7304	153.809	82.5123	153.809	82.7903	153.809	82.4703	153.809	82.8487	153.809	82.4339	153.809	82.9034	153.809	82.4022	153.809	82.9521	153.809	82.3733	153.809	82.9913	153.809	82.3448	153.809	83.0172	153.809	82.3148	153.809	83.0252	153.809	82.2818	153.809	83.0111	153.809	82.2457	153.809	82.9718	153.809	82.2076	153.809	82.9063	153.809	82.1706	153.809	82.8164	153.809	82.1394	153.809	82.7073	153.809	82.1194	153.809	82.5869	153.809	82.1167	153.809	82.4648	153.809	82.1366	153.809	82.3512	153.809	82.1825	153.809	82.255
159.668	82.4862	159.668	82.5446	159.668	82.4351	159.668	82.609	159.668	82.3919	159.668	82.6783	159.668	82.3565	159.668	82.7508	159.668	82.3284	159.668	82.8242	159.668	82.3056	159.668	82.8951	159.668	82.2859	159.668	82.9587	159.668	82.2665	159.668	83.0091	159.668	82.245	159.668	83.0397	159.668	82.2201	159.668	83.0445	159.668	82.1916	159.668	83.0191	159.668	82.1614	159.668	82.9623	159.668	82.1329	159.668	82.8762	159.668	82.1111	159.668	82.7668	159.668	82.1018	159.668	82.6426	159.668	82.1109	159.668	82.5141	159.668	82.1432	159.668	82.3921	159.668	82.2015	159.668	82.2856
165.527	82.3827	165.527	82.4379	165.527	82.3382	165.527	82.5028	165.527	82.3048	165.527	82.5761	165.527	82.2826	165.527	82.6567	165.527	82.2703	165.527	82.7423	165.527	82.2655	165.527	82.8296	165.527	82.2649	165.527	82.9133	165.527	82.2645	165.527	82.9865	165.527	82.2605	165.527	83.0409	165.527	82.2505	165.527	83.0682	165.527	82.2333	165.527	83.062	165.527	82.2102	165.527	83.019	165.527	82.1848	165.527	82.9406	165.527	82.1625	165.527	82.8326	165.527	82.1505	165.527	82.7051	165.527	82.156	165.527	82.5705	165.527	82.1857	165.527	82.4417	165.527	82.2435	165.527	82.3301
171.387	82.3379	171.387	82.3901	171.387	82.2946	171.387	82.4501	171.387	82.2606	171.387	82.5169	171.387	82.2356	171.387	82.5892	171.387	82.2185	171.387	82.6654	171.387	82.2071	171.387	82.7429	171.387	82.1983	171.387	82.8178	171.387	82.189	171.387	82.8844	171.387	82.1763	171.387	82.9355	171.387	82.1586	171.387	82.9637	171.387	82.1359	171.387	82.9623	171.387	82.1101	171.387	82.9272	171.387	82.0851	171.387	82.8582	171.387	82.0663	171.387	82.7595	171.387	82.0604	171.387	82.6396	171.387	82.0736	171.387	82.5097	171.387	82.1114	171.387	82.3821	171.387	82.1765	171.387	82.2683
177.246	82.4974	177.246	82.551	177.246	82.439	177.246	82.5984	177.246	82.3771	177.246	82.6389	177.246	82.3125	177.246	82.6719	177.246	82.2457	177.246	82.6969	177.246	82.1765	177.246	82.7134	177.246	82.1045	177.246	82.7203	177.246	82.0291	177.246	82.7152	177.246	81.9503	177.246	82.6952	177.246	81.8691	177.246	82.6566	177.246	81.7879	177.246	82.5962	177.246	81.7107	177.246	82.5123	177.246	81.6429	177.246	82.4055	177.246	81.5909	177.246	82.2797	177.246	81.5613	177.246	82.1414	177.246	81.5597	177.246	81.9996	177.246	81.5899	177.246	81.8647	177.246	81.6529	177.246	81.7463
183.105	82.1899	183.105	82.2604	183.105	82.1193	183.105	82.3282	183.105	82.0515	183.105	82.3912	183.105	81.9893	183.105	82.4477	183.105	81.9342	183.105	82.4964	183.105	81.8865	183.105	82.5356	183.105	81.8448	183.105	82.5624	183.105	81.8064	183.105	82.5732	183.105	81.7682	183.105	82.563	183.105	81.7273	183.105	82.5275	183.105	81.6821	183.105	82.4634	183.105	81.6331	183.105	82.3705	183.105	81.583	183.105	82.2522	183.105	81.537	183.105	82.1158	183.105	81.502	183.105	81.9715	183.105	81.4855	183.105	81.831	183.105	81.4943	183.105	81.7056	183.105	81.5333	183.105	81.6044
188.965	82.0088	188.965	82.088	188.965	81.9285	188.965	82.1625	188.965	81.8514	188.965	82.2296	188.965	81.7814	188.965	82.288	188.965	81.7215	188.965	82.3372	188.965	81.6731	188.965	82.3766	188.965	81.6356	188.965	82.4052	188.965	81.6067	188.965	82.4206	188.965	81.5833	188.965	82.4189	188.965	81.5621	188.965	82.3958	188.965	81.5404	188.965	82.3476	188.965	81.5172	188.965	82.2729	188.965	81.4936	188.965	82.1737	188.965	81.4727	188.965	82.0557	188.965	81.4593	188.965	81.9281	188.965	81.4595	188.965	81.8016	188.965	81.479	188.965	81.6869	188.965	81.5225	188.965	81.5922
196.289	81.8832	196.289	81.9553	196.289	81.8092	196.289	82.0228	196.289	81.7365	196.289	82.0841	196.289	81.6682	196.289	82.1383	196.289	81.6067	196.289	82.1852	196.289	81.5527	196.289	82.2242	196.289	81.5056	196.289	82.2532	196.289	81.4634	196.289	82.2686	196.289	81.4233	196.289	82.2655	196.289	81.3831	196.289	82.2384	196.289	81.3416	196.289	82.183	196.289	81.2994	196.289	82.098	196.289	81.2591	196.289	81.9862	196.289	81.2253	196.289	81.8543	196.289	81.2034	196.289	81.7128	196.289	81.1996	196.289	81.5734	196.289	81.2195	196.289	81.4473	196.289	81.2669	196.289	81.3434
203.613	81.763	203.613	81.8303	203.613	81.6865	203.613	81.8865	203.613	81.6046	203.613	81.9312	203.613	81.5213	203.613	81.9659	203.613	81.4406	203.613	81.9928	203.613	81.3651	203.613	82.0141	203.613	81.296	203.613	82.0299	203.613	81.233	203.613	82.0378	203.613	81.1751	203.613	82.0326	203.613	81.1208	203.613	82.0078	203.613	81.0697	203.613	81.9575	203.613	81.0228	203.613	81.8784	203.613	80.9826	203.613	81.772	203.613	80.9531	203.613	81.6439	203.613	80.9393	203.613	81.5039	203.613	80.946	203.613	81.3633	203.613	80.9774	203.613	81.233	203.613	81.036	203.613	81.122
210.938	81.5705	210.938	81.6459	210.938	81.4856	210.938	81.7088	210.938	81.3955	210.938	81.7579	210.938	81.3052	210.938	81.7938	210.938	81.2193	210.938	81.8182	210.938	81.141	210.938	81.8334	210.938	81.072	210.938	81.8403	210.938	81.0119	210.938	81.8381	210.938	80.9591	210.938	81.8234	210.938	80.9118	210.938	81.7913	210.938	80.8683	210.938	81.7366	210.938	80.8285	210.938	81.6561	210.938	80.7938	210.938	81.5504	210.938	80.7675	210.938	81.4246	210.938	80.7541	210.938	81.2877	210.938	80.7587	210.938	81.1508	210.938	80.7859	210.938	81.0252	210.938	80.8391	210.938	80.9195
218.262	81.1986	218.262	81.2753	218.262	81.1162	218.262	81.3439	218.262	81.0321	218.262	81.4037	218.262	80.9506	218.262	81.4555	218.262	80.8761	218.262	81.5007	218.262	80.8117	218.262	81.5402	218.262	80.759	218.262	81.5735	218.262	80.7176	218.262	81.5976	218.262	80.6864	218.262	81.6078	218.262	80.6634	218.262	81.5984	218.262	80.6473	218.262	81.5647	218.262	80.6375	218.262	81.5048	218.262	80.6348	218.262	81.4203	218.262	80.6409	218.262	81.3167	218.262	80.6581	218.262	81.2021	218.262	80.6888	218.262	81.0858	218.262	80.735	218.262	80.9761	218.262	80.7983	218.262	80.8791
225.586	81.0453	225.586	81.1284	225.586	80.9504	225.586	81.1972	225.586	80.8486	225.586	81.2515	225.586	80.7459	225.586	81.2935	225.586	80.6481	225.586	81.3266	225.586	80.5602	225.586	81.354	225.586	80.485	225.586	81.3769	225.586	80.4237	225.586	81.3931	225.586	80.3758	225.586	81.3979	225.586	80.3404	225.586	81.385	225.586	80.3171	225.586	81.3493	225.586	80.3062	225.586	81.2883	225.586	80.3089	225.586	81.2038	225.586	80.327	225.586	81.1012	225.586	80.3615	225.586	80.9879	225.586	80.4126	225.586	80.8718	225.586	80.4795	225.586	80.7593	225.586	80.5608	225.586	80.6547
232.91	80.9758	232.91	81.062	232.91	80.8734	232.91	81.1286	232.91	80.7605	232.91	81.1754	232.91	80.6442	232.91	81.2054	232.91	80.5313	232.91	81.2233	232.91	80.4271	232.91	81.2341	232.91	80.3343	232.91	81.2406	232.91	80.2533	232.91	81.2415	232.91	80.1825	232.91	81.2316	232.91	80.1202	232.91	81.2035	232.91	80.0661	232.91	81.1503	232.91	80.0219	232.91	81.0689	232.91	79.9918	232.91	80.9613	232.91	79.9812	232.91	80.834	232.91	79.9946	232.91	80.696	232.91	80.0347	232.91	80.5562	232.91	80.1008	232.91	80.422	232.91	80.1901	232.91	80.2985
241.699	80.7644	241.699	80.8634	241.699	80.6428	241.699	80.9353	241.699	80.5059	241.699	80.9792	241.699	80.363	241.699	80.9975	241.699	80.2232	241.699	80.9959	241.699	80.0946	241.699	80.9813	241.699	79.9822	241.699	80.9595	241.699	79.8878	241.699	80.9333	241.699	79.8099	241.699	80.9005	241.699	79.7454	241.699	80.8549	241.699	79.6913	241.699	80.7888	241.699	79.6465	241.699	80.6964	241.699	79.6124	241.699	80.5772	241.699	79.593	241.699	80.4363	241.699	79.5935	241.699	80.2832	241.699	79.6185	241.699	80.1292	241.699	79.6709	241.699	79.9844	241.699	79.7508	241.699	79.8565
250.488	80.4811	250.488	80.5547	250.488	80.378	250.488	80.5968	250.488	80.2509	250.488	80.6089	250.488	80.1076	250.488	80.5966	250.488	79.9573	250.488	80.5683	250.488	79.8092	250.488	80.5332	250.488	79.6708	250.488	80.4991	250.488	79.5476	250.488	80.4696	250.488	79.4425	250.488	80.4426	250.488	79.3561	250.488	80.411	250.488	79.2886	250.488	80.3655	250.488	79.2402	250.488	80.2982	250.488	79.212	250.488	80.2053	250.488	79.2062	250.488	80.0888	250.488	79.2248	250.488	79.9555	250.488	79.2693	250.488	79.8147	250.488	79.3392	250.488	79.6757	250.488	79.4327	250.488	79.5464
259.277	80.3894	259.277	80.445	259.277	80.3043	259.277	80.4691	259.277	80.1952	259.277	80.4647	259.277	80.0709	259.277	80.439	259.277	79.9409	259.277	80.4024	259.277	79.814	259.277	80.3654	259.277	79.6965	259.277	80.3358	259.277	79.5916	259.277	80.3152	259.277	79.4994	259.277	80.2982	259.277	79.4177	259.277	80.274	259.277	79.3448	259.277	80.2307	259.277	79.2806	259.277	80.16	259.277	79.2277	259.277	80.0599	259.277	79.1912	259.277	79.9358	259.277	79.1773	259.277	79.7977	259.277	79.191	259.277	79.6569	259.277	79.2346	259.277	79.5234	259.277	79.307	259.277	79.4048
268.066	80.2383	268.066	80.3031	268.066	80.1405	268.066	80.3309	268.066	80.0166	268.066	80.3215	268.066	79.8757	268.066	80.2784	268.066	79.7281	268.066	80.2088	268.066	79.5836	268.066	80.1228	268.066	79.4504	268.066	80.0314	268.066	79.3338	268.066	79.9442	268.066	79.236	268.066	79.8661	268.066	79.156	268.066	79.7959	268.066	79.0914	268.066	79.7272	268.066	79.0395	268.066	79.6516	268.066	78.9985	268.066	79.5634	268.066	78.9685	268.066	79.4624	268.066	78.9516	268.066	79.3542	268.066	78.9508	268.066	79.2472	268.066	78.9691	268.066	79.1501	268.066	79.0084	268.066	79.0693
276.855	80.0643	276.855	80.1152	276.855	79.987	276.855	80.1369	276.855	79.8881	276.855	80.1297	276.855	79.7737	276.855	80.0967	276.855	79.6496	276.855	80.0433	276.855	79.5205	276.855	79.9752	276.855	79.3898	276.855	79.8966	276.855	79.2595	276.855	79.8094	276.855	79.1318	276.855	79.7132	276.855	79.01	276.855	79.6071	276.855	78.8991	276.855	79.492	276.855	78.8057	276.855	79.371	276.855	78.7361	276.855	79.2501	276.855	78.6945	276.855	79.1359	276.855	78.6812	276.855	79.0339	276.855	78.6922	276.855	78.947	276.855	78.7215	276.855	78.8747	276.855	78.7633	276.855	78.8143
287.109	79.5571	287.109	79.661	287.109	79.4275	287.109	79.7334	287.109	79.2828	287.109	79.773	287.109	79.1361	287.109	79.7836	287.109	79.0015	287.109	79.7721	287.109	78.8911	287.109	79.7464	287.109	78.8126	287.109	79.7129	287.109	78.7677	287.109	79.6739	287.109	78.7524	287.109	79.6272	287.109	78.7581	287.109	79.5671	287.109	78.7752	287.109	79.4881	287.109	78.795	287.109	79.3894	287.109	78.8123	287.109	79.2769	287.109	78.8254	287.109	79.1626	287.109	78.8352	287.109	79.0602	287.109	78.8438	287.109	78.9798	287.109	78.8536	287.109	78.9238	287.109	78.8671	287.109	78.8885
297.363	79.6304	297.363	79.733	297.363	79.4925	297.363	79.7963	297.363	79.3272	297.363	79.8209	297.363	79.1444	297.363	79.8124	297.363	78.9547	297.363	79.7804	297.363	78.7684	297.363	79.7366	297.363	78.5949	297.363	79.6907	297.363	78.442	297.363	79.6473	297.363	78.3167	297.363	79.604	297.363	78.2247	297.363	79.5517	297.363	78.1701	297.363	79.4794	297.363	78.1544	297.363	79.3794	297.363	78.1758	297.363	79.2527	297.363	78.2281	297.363	79.1092	297.363	78.3019	297.363	78.9652	297.363	78.3861	297.363	78.8354	297.363	78.4715	297.363	78.7268	297.363	78.5538	297.363	78.636
307.617	79.4376	307.617	79.5348	307.617	79.2962	307.617	79.5824	307.617	79.1218	307.617	79.5819	307.617	78.9309	307.617	79.5411	307.617	78.7416	307.617	79.4729	307.617	78.5702	307.617	79.3922	307.617	78.4268	307.617	79.3115	307.617	78.3137	307.617	79.2374	307.617	78.2266	307.617	79.1689	307.617	78.1583	307.617	79.0996	307.617	78.1037	307.617	79.0227	307.617	78.0627	307.617	78.935	307.617	78.0406	307.617	78.8389	307.617	78.0443	307.617	78.7404	307.617	78.0777	307.617	78.6459	307.617	78.1384	307.617	78.5579	307.617	78.2176	307.617	78.4744	307.617	78.3046	307.617	78.391
319.336	79.3578	319.336	79.4626	319.336	79.1962	319.336	79.5039	319.336	78.9893	319.336	79.4815	319.336	78.7526	319.336	79.4028	319.336	78.5035	319.336	79.2837	319.336	78.2605	319.336	79.147	319.336	78.0396	319.336	79.0166	319.336	77.853	319.336	78.9103	319.336	77.7065	319.336	78.8316	319.336	77.5999	319.336	78.7693	319.336	77.5293	319.336	78.7033	319.336	77.4895	319.336	78.6157	319.336	77.477	319.336	78.4994	319.336	77.4904	319.336	78.3608	319.336	77.5286	319.336	78.2152	319.336	77.5888	319.336	78.0778	319.336	77.6656	319.336	77.9561	319.336	77.7533	319.336	77.8494
329.59	78.6572	329.59	78.7566	329.59	78.5086	329.59	78.8039	329.59	78.3195	329.59	78.8017	329.59	78.1029	329.59	78.7578	329.59	77.8746	329.59	78.6839	329.59	77.6507	329.59	78.5932	329.59	77.4458	329.59	78.4981	329.59	77.2704	329.59	78.4071	329.59	77.1305	329.59	78.3229	329.59	77.0275	329.59	78.2412	329.59	76.9595	329.59	78.1529	329.59	76.9229	329.59	78.049	329.59	76.9143	329.59	77.9258	329.59	76.9312	329.59	77.7885	329.59	76.9716	329.59	77.6485	329.59	77.0327	329.59	77.5169	329.59	77.1097	329.59	77.3991	329.59	77.1978	329.59	77.2939
341.309	78.7288	341.309	78.812	341.309	78.5956	341.309	78.8377	341.309	78.4257	341.309	78.8064	341.309	78.2351	341.309	78.7279	341.309	78.0395	341.309	78.6196	341.309	77.8511	341.309	78.5032	341.309	77.6767	341.309	78.3966	341.309	77.5179	341.309	78.3081	341.309	77.3733	341.309	78.2327	341.309	77.2421	341.309	78.1563	341.309	77.1266	341.309	78.0632	341.309	77.0332	341.309	77.9443	341.309	76.9703	341.309	77.802	341.309	76.9451	341.309	77.65	341.309	76.9584	341.309	77.5066	341.309	77.0033	341.309	77.3857	341.309	77.0674	341.309	77.2898	341.309	77.1383	341.309	77.2109
353.027	78.3981	353.027	78.4708	353.027	78.2663	353.027	78.4844	353.027	78.0821	353.027	78.4453	353.027	77.8594	353.027	78.3645	353.027	77.6177	353.027	78.2564	353.027	77.3783	353.027	78.1357	353.027	77.1597	353.027	78.014	353.027	76.9729	353.027	77.8961	353.027	76.8195	353.027	77.7784	353.027	76.6936	353.027	77.6512	353.027	76.5863	353.027	77.5039	353.027	76.4903	353.027	77.331	353.027	76.4034	353.027	77.137	353.027	76.33	353.027	76.9364	353.027	76.2782	353.027	76.7488	353.027	76.2559	353.027	76.59	353.027	76.266	353.027	76.4657	353.027	76.3061	353.027	76.3726
366.211	77.5665	366.211	77.7222	366.211	77.362	366.211	77.8148	366.211	77.1354	366.211	77.8452	366.211	76.9198	366.211	77.8302	366.211	76.7473	366.211	77.7983	366.211	76.6387	366.211	77.7807	366.211	76.5963	366.211	77.7972	366.211	76.6038	366.211	77.8448	366.211	76.6336	366.211	77.8964	366.211	76.6565	366.211	77.9114	366.211	76.6505	366.211	77.852	366.211	76.6051	366.211	77.6958	366.211	76.521	366.211	77.4435	366.211	76.4086	366.211	77.1204	366.211	76.2844	366.211	76.7725	366.211	76.1674	366.211	76.4555	366.211	76.0785	366.211	76.2168	366.211	76.0408	366.211	76.0799
379.395	76.6929	379.395	76.8037	379.395	76.5212	379.395	76.8434	379.395	76.3195	379.395	76.8251	379.395	76.1327	379.395	76.7826	379.395	76.006	379.395	76.7639	379.395	75.9686	379.395	76.8162	379.395	76.0207	379.395	76.9664	379.395	76.135	379.395	77.2071	379.395	76.2709	379.395	77.497	379.395	76.3909	379.395	77.7771	379.395	76.4718	379.395	77.9906	379.395	76.507	379.395	78.096	379.395	76.5041	379.395	78.0745	379.395	76.4812	379.395	77.9312	379.395	76.4614	379.395	77.6927	379.395	76.4692	379.395	77.4016	379.395	76.5269	379.395	77.1057	379.395	76.6507	379.395	76.8466
392.578	78.2059	392.578	78.3896	392.578	77.8015	392.578	78.3412	392.578	77.2058	392.578	78.0648	392.578	76.4809	392.578	77.5867	392.578	75.7448	392.578	76.9748	392.578	75.1774	392.578	76.3631	392.578	74.9596	392.578	75.9534	392.578	75.1479	392.578	75.9329	392.578	75.6319	392.578	76.3326	392.578	76.2391	392.578	77.0037	392.578	76.8419	392.578	77.7481	392.578	77.3791	392.578	78.4237	392.578	77.8359	392.578	78.9589	392.578	78.2206	392.578	79.3312	392.578	78.5486	392.578	79.5463	392.578	78.8346	392.578	79.6248	392.578	79.0866	392.578	79.5934	392.578	79.3043	392.578	79.4788
405.762	80.6674	405.762	80.8123	405.762	80.3336	405.762	80.7687	405.762	79.8116	405.762	80.5367	405.762	79.1087	405.762	80.1195	405.762	78.2509	405.762	79.5281	405.762	77.3017	405.762	78.7917	405.762	76.3838	405.762	77.9739	405.762	75.68	405.762	77.1944	405.762	75.3697	405.762	76.6328	405.762	75.5102	405.762	76.4657	405.762	75.9991	405.762	76.738	405.762	76.6682	405.762	77.321	405.762	77.3816	405.762	78.0204	405.762	78.059	405.762	78.6848	405.762	78.6593	405.762	79.2301	405.762	79.1595	405.762	79.6195	405.762	79.5427	405.762	79.8414	405.762	79.7933	405.762	79.8968
420.41	80.1788	420.41	80.279	420.41	79.9298	420.41	80.233	420.41	79.5316	420.41	80.0445	420.41	78.9903	420.41	79.7187	420.41	78.323	420.41	79.265	420.41	77.5651	420.41	78.7024	420.41	76.779	420.41	78.0659	420.41	76.0603	420.41	77.4143	420.41	75.5286	420.41	76.8322	420.41	75.2863	420.41	76.4209	420.41	75.3609	420.41	76.2653	420.41	75.69	420.41	76.391	420.41	76.1685	420.41	76.744	420.41	76.702	420.41	77.217	420.41	77.2249	420.41	77.6954	420.41	77.6926	420.41	78.0878	420.41	78.0684	420.41	78.3361	420.41	78.3184	420.41	78.4135
435.059	79.4187	435.059	79.5716	435.059	79.1364	435.059	79.5936	435.059	78.7292	435.059	79.4825	435.059	78.209	435.059	79.2349	435.059	77.5999	435.059	78.8501	435.059	76.9422	435.059	78.3384	435.059	76.2954	435.059	77.734	435.059	75.737	435.059	77.1048	435.059	75.351	435.059	76.5488	435.059	75.2033	435.059	76.1652	435.059	75.3121	435.059	76.0105	435.059	75.6372	435.059	76.0766	435.059	76.0985	435.059	76.3104	435.059	76.6071	435.059	76.6471	435.059	77.0865	435.059	77.0248	435.059	77.4801	435.059	77.3849	435.059	77.7499	435.059	77.673	435.059	77.8739	435.059	77.8451
451.172	79.9562	451.172	80.0248	451.172	79.7294	451.172	79.9356	451.172	79.3469	451.172	79.6912	451.172	78.8172	451.172	79.298	451.172	78.1608	451.172	78.7707	451.172	77.4166	451.172	78.1363	451.172	76.6461	451.172	77.437	451.172	75.9298	451.172	76.7314	451.172	75.3492	451.172	76.0957	451.172	74.9615	451.172	75.6209	451.172	74.7859	451.172	75.3897	451.172	74.8123	451.172	75.4294	451.172	75.0169	451.172	75.6845	451.172	75.3633	451.172	76.0493	451.172	75.7952	451.172	76.4212	451.172	76.2381	451.172	76.7278	451.172	76.6164	451.172	76.9227	451.172	76.8725	451.172	76.976
465.82	79.6711	465.82	79.7419	465.82	79.4599	465.82	79.6729	465.82	79.1068	465.82	79.4652	465.82	78.6106	465.82	79.1225	465.82	77.9771	465.82	78.654	465.82	77.2282	465.82	78.0765	465.82	76.4149	465.82	77.4167	465.82	75.6245	465.82	76.7175	465.82	74.9729	465.82	76.0482	465.82	74.569	465.82	75.5084	465.82	74.4641	465.82	75.2046	465.82	74.6289	465.82	75.1953	465.82	74.9812	465.82	75.4476	465.82	75.4299	465.82	75.8558	465.82	75.8995	465.82	76.2976	465.82	76.3328	465.82	76.6734	465.82	76.6847	465.82	76.9184	465.82	76.9174	465.82	77.001
483.398	79.3721	483.398	79.4678	483.398	79.1538	483.398	79.4392	483.398	78.8093	483.398	79.2826	483.398	78.3342	483.398	78.9993	483.398	77.7323	483.398	78.6012	483.398	77.0274	483.398	78.1098	483.398	76.2732	483.398	77.5487	483.398	75.5563	483.398	76.9375	483.398	74.9828	483.398	76.3006	483.398	74.6443	483.398	75.6924	483.398	74.5767	483.398	75.2175	483.398	74.7486	483.398	75.004	483.398	75.0903	483.398	75.1174	483.398	75.5285	483.398	75.4995	483.398	75.9998	483.398	76.0086	483.398	76.4445	483.398	76.499	483.398	76.8023	483.398	76.8637	483.398	77.0159	483.398	77.0421
499.512	79.2898	499.512	79.3711	499.512	79.0748	499.512	79.3257	499.512	78.7177	499.512	79.1601	499.512	78.2135	499.512	78.8837	499.512	77.5678	499.512	78.5128	499.512	76.8072	499.512	78.0716	499.512	75.9881	499.512	77.5873	499.512	75.2017	499.512	77.0822	499.512	74.5649	499.512	76.5706	499.512	74.1892	499.512	76.0695	499.512	74.1374	499.512	75.6231	499.512	74.3974	499.512	75.3198	499.512	74.8945	499.512	75.2665	499.512	75.5238	499.512	75.5102	499.512	76.1753	499.512	75.9812	499.512	76.7482	499.512	76.5294	499.512	77.1597	499.512	77.0034	499.512	77.3513	499.512	77.2959
517.09	79.513	517.09	79.5906	517.09	79.2852	517.09	79.5031	517.09	78.9292	517.09	79.2506	517.09	78.4664	517.09	78.8563	517.09	77.9152	517.09	78.3688	517.09	77.2908	517.09	77.852	517.09	76.613	517.09	77.3597	517.09	75.9151	517.09	76.9086	517.09	75.2533	517.09	76.4748	517.09	74.708	517.09	76.0226	517.09	74.3715	517.09	75.5515	517.09	74.3181	517.09	75.1341	517.09	74.5657	517.09	74.9119	517.09	75.057	517.09	75.0152	517.09	75.6743	517.09	75.4404	517.09	76.2778	517.09	76.0277	517.09	76.74	517.09	76.5689	517.09	76.9664	517.09	76.9073
536.133	79.8835	536.133	79.8858	536.133	79.6148	536.133	79.6479	536.133	79.0655	536.133	79.2041	536.133	78.249	536.133	78.6005	536.133	77.2289	536.133	77.9024	536.133	76.1399	536.133	77.1929	536.133	75.1809	536.133	76.5561	536.133	74.5419	536.133	76.0549	536.133	74.287	536.133	75.7197	536.133	74.3221	536.133	75.5518	536.133	74.4945	536.133	75.525	536.133	74.6991	536.133	75.5829	536.133	74.9071	536.133	75.656	536.133	75.1344	536.133	75.698	536.133	75.3898	536.133	75.7122	536.133	75.6424	536.133	75.7387	536.133	75.8325	536.133	75.8055	536.133	75.9132	536.133	75.8861
555.176	79.5718	555.176	79.4572	555.176	79.5076	555.176	79.1909	555.176	79.2353	555.176	78.7991	555.176	78.7319	555.176	78.3169	555.176	77.992	555.176	77.7925	555.176	77.0368	555.176	77.2704	555.176	75.9279	555.176	76.7643	555.176	74.7902	555.176	76.2479	555.176	73.8298	555.176	75.6879	555.176	73.2774	555.176	75.1071	555.176	73.2299	555.176	74.6306	555.176	73.5673	555.176	74.4434	555.176	74.0797	555.176	74.6368	555.176	74.6155	555.176	75.1087	555.176	75.1113	555.176	75.655	555.176	75.5556	555.176	76.1036	555.176	75.9415	555.176	76.3593	555.176	76.2393	555.176	76.3962
574.219	79.8706	574.219	79.7673	574.219	79.8485	574.219	79.5436	574.219	79.6787	574.219	79.1992	574.219	79.326	574.219	78.7473	574.219	78.7555	574.219	78.2258	574.219	77.9482	574.219	77.689	574.219	76.9165	574.219	77.1813	574.219	75.7242	574.219	76.7122	574.219	74.513	574.219	76.2475	574.219	73.5162	574.219	75.7327	574.219	72.9987	574.219	75.15	574.219	73.092	574.219	74.5976	574.219	73.6847	574.219	74.3293	574.219	74.5326	574.219	74.591	574.219	75.4195	574.219	75.3109	574.219	76.2044	574.219	76.1476	574.219	76.7963	574.219	76.8034	574.219	77.1262	574.219	77.1386
594.727	79.5124	594.727	79.5225	594.727	79.3528	594.727	79.3806	594.727	79.0439	594.727	79.0808	594.727	78.5871	594.727	78.6198	594.727	77.9894	594.727	78.0144	594.727	77.2726	594.727	77.3227	594.727	76.4855	594.727	76.6494	594.727	75.7078	594.727	76.1109	594.727	75.0286	594.727	75.7695	594.727	74.5044	594.727	75.5891	594.727	74.1499	594.727	75.4742	594.727	73.9934	594.727	75.3607	594.727	74.1241	594.727	75.2641	594.727	74.6081	594.727	75.2674	594.727	75.3459	594.727	75.4664	594.727	76.1012	594.727	75.8771	594.727	76.6546	594.727	76.3766	594.727	76.8836	594.727	76.7663
615.234	79.4313	615.234	79.3035	615.234	79.3824	615.234	79.0252	615.234	79.1279	615.234	78.6235	615.234	78.6439	615.234	78.1383	615.234	77.9255	615.234	77.6253	615.234	76.9996	615.234	77.1311	615.234	75.9382	615.234	76.6604	615.234	74.8739	615.234	76.1869	615.234	74.0033	615.234	75.6968	615.234	73.5228	615.234	75.202	615.234	73.4955	615.234	74.7464	615.234	73.8084	615.234	74.4505	615.234	74.2894	615.234	74.4815	615.234	74.813	615.234	74.8775	615.234	75.3144	615.234	75.4646	615.234	75.7636	615.234	76.0113	615.234	76.1374	615.234	76.3707	615.234	76.3989	615.234	76.494
637.207	79.6868	637.207	79.5865	637.207	79.6179	637.207	79.3269	637.207	79.3757	637.207	78.9394	637.207	78.9491	637.207	78.4822	637.207	78.3187	637.207	78.0158	637.207	77.4677	637.207	77.5584	637.207	76.4082	637.207	77.0757	637.207	75.2294	637.207	76.5401	637.207	74.1513	637.207	75.9918	637.207	73.4837	637.207	75.5037	637.207	73.3964	637.207	75.0858	637.207	73.782	637.207	74.6942	637.207	74.4456	637.207	74.385	637.207	75.2587	637.207	74.4047	637.207	76.1172	637.207	74.9506	637.207	76.8854	637.207	75.852	637.207	77.415	637.207	76.7432	637.207	77.5917	637.207	77.3618
659.18	79.5281	659.18	79.4564	659.18	79.504	659.18	79.2724	659.18	79.3659	659.18	78.9653	659.18	79.0585	659.18	78.5602	659.18	78.5228	659.18	78.0952	659.18	77.7251	659.18	77.573	659.18	76.6606	659.18	76.9713	659.18	75.3605	659.18	76.3086	659.18	73.9496	659.18	75.6757	659.18	72.722	659.18	75.1693	659.18	72.052	659.18	74.7917	659.18	72.0865	659.18	74.4768	659.18	72.6737	659.18	74.2718	659.18	73.6027	659.18	74.4241	659.18	74.7001	659.18	75.1027	659.18	75.7898	659.18	76.0703	659.18	76.6889	659.18	76.9026	659.18	77.2371	659.18	77.3209
682.617	79.2507	682.617	79.2539	682.617	79.0607	682.617	79.0745	682.617	78.7059	682.617	78.7563	682.617	78.2224	682.617	78.3673	682.617	77.6512	682.617	77.9446	682.617	77.022	682.617	77.463	682.617	76.3329	682.617	76.8955	682.617	75.5543	682.617	76.2818	682.617	74.6648	682.617	75.7041	682.617	73.7269	682.617	75.2053	682.617	72.9835	682.617	74.7458	682.617	72.7942	682.617	74.242	682.617	73.2685	682.617	73.6929	682.617	74.1189	682.617	73.3685	682.617	75.0089	682.617	73.7228	682.617	75.7667	682.617	74.7227	682.617	76.3195	682.617	75.7735	682.617	76.5813	682.617	76.4276
707.52	79.4954	707.52	79.2793	707.52	79.4834	707.52	78.872	707.52	79.2556	707.52	78.3787	707.52	78.8577	707.52	77.9647	707.52	78.3353	707.52	77.7349	707.52	77.6908	707.52	77.5912	707.52	76.8784	707.52	77.3089	707.52	75.8513	707.52	76.7461	707.52	74.6421	707.52	75.9512	707.52	73.4527	707.52	75.1461	707.52	72.6825	707.52	74.609	707.52	72.6659	707.52	74.4265	707.52	73.2743	707.52	74.3595	707.52	74.141	707.52	74.1457	707.52	75.049	707.52	73.9116	707.52	75.8657	707.52	74.1617	707.52	76.4033	707.52	75.0257	707.52	76.4639	707.52	75.9571
732.422	79.0559	732.422	79.0908	732.422	78.8499	732.422	78.9371	732.422	78.524	732.422	78.6408	732.422	78.1414	732.422	78.3092	732.422	77.7434	732.422	77.9997	732.422	77.304	732.422	77.6078	732.422	76.7224	732.422	76.9573	732.422	75.9045	732.422	75.9828	732.422	74.9065	732.422	74.8624	732.422	74.0325	732.422	74.0394	732.422	73.6844	732.422	73.8976	732.422	73.8807	732.422	74.3037	732.422	74.2305	732.422	74.7957	732.422	74.5223	732.422	75.0635	732.422	74.8726	732.422	75.0649	732.422	75.3351	732.422	74.9736	732.422	75.6873	732.422	75.0641	732.422	75.7003	732.422	75.3982
757.324	79.1324	757.324	79.0545	757.324	79.0212	757.324	78.8566	757.324	78.6899	757.324	78.6443	757.324	78.1223	757.324	78.4633	757.324	77.3211	757.324	78.1767	757.324	76.3389	757.324	77.5443	757.324	75.288	757.324	76.4523	757.324	74.2703	757.324	75.055	757.324	73.3057	757.324	73.7317	757.324	72.4725	757.324	72.8951	757.324	72.1499	757.324	72.6947	757.324	72.6519	757.324	72.814	757.324	73.638	757.324	72.9168	757.324	74.6067	757.324	73.0437	757.324	75.3485	757.324	73.4449	757.324	75.8479	757.324	74.2098	757.324	76.121	757.324	75.1011	757.324	76.1288	757.324	75.7939
785.156	78.912	785.156	78.5631	785.156	79.2259	785.156	78.3296	785.156	79.3534	785.156	78.2985	785.156	79.1624	785.156	78.402	785.156	78.542	785.156	78.428	785.156	77.4269	785.156	78.187	785.156	75.867	785.156	77.6457	785.156	74.0982	785.156	76.8794	785.156	72.5008	785.156	75.8995	785.156	71.3587	785.156	74.6179	785.156	70.7535	785.156	73.2389	785.156	70.8842	785.156	72.7221	785.156	71.8584	785.156	73.4112	785.156	73.2266	785.156	74.2119	785.156	74.4582	785.156	74.5261	785.156	75.2965	785.156	74.5231	785.156	75.6445	785.156	74.6283	785.156	75.4993	785.156	75.0379
811.523	78.8411	811.523	78.9543	811.523	78.7925	811.523	79.0408	811.523	78.8191	811.523	79.0421	811.523	78.7887	811.523	78.9279	811.523	78.519	811.523	78.6419	811.523	77.8587	811.523	78.1028	811.523	76.7134	811.523	77.2635	811.523	75.1043	811.523	76.1971	811.523	73.2907	811.523	75.1093	811.523	71.9426	811.523	74.1739	811.523	71.8333	811.523	73.3451	811.523	72.6818	811.523	72.6401	811.523	73.5511	811.523	72.6641	811.523	74.0654	811.523	73.6904	811.523	74.4185	811.523	74.9364	811.523	74.9005	811.523	75.84	811.523	75.5176	811.523	76.3054	811.523	76.0653	811.523	76.3621
840.82	79.3938	840.82	79.5101	840.82	79.2261	840.82	79.5192	840.82	79.1293	840.82	79.4411	840.82	79.123	840.82	79.2469	840.82	79.0365	840.82	78.8097	840.82	78.6388	840.82	78.0382	840.82	77.8006	840.82	77.0358	840.82	76.5266	840.82	76.0065	840.82	74.8754	840.82	74.9083	840.82	72.948	840.82	73.5588	840.82	71.3847	840.82	72.4421	840.82	71.7268	840.82	72.6038	840.82	73.6313	840.82	73.8018	840.82	75.3643	840.82	74.9595	840.82	76.3638	840.82	75.5213	840.82	76.7334	840.82	75.5341	840.82	76.6914	840.82	75.5124	840.82	76.3601	840.82	75.8588
870.117	79.5314	870.117	79.4762	870.117	79.3297	870.117	79.1068	870.117	79.0368	870.117	78.5004	870.117	78.7906	870.117	77.8272	870.117	78.5353	870.117	77.288	870.117	78.0587	870.117	77.0403	870.117	77.1841	870.117	77.0378	870.117	75.8583	870.117	76.9416	870.117	74.1852	870.117	76.3025	870.117	72.4681	870.117	74.7897	870.117	71.1553	870.117	72.2246	870.117	70.8609	870.117	68.9768	870.117	71.7577	870.117	69.1401	870.117	73.1286	870.117	73.0509	870.117	74.475	870.117	76.1257	870.117	75.7454	870.117	77.8765	870.117	76.9286	870.117	78.584	870.117	77.9088	870.117	78.5213
900.879	80.2896	900.879	80.3743	900.879	79.5373	900.879	79.7499	900.879	78.464	900.879	78.6055	900.879	77.7737	900.879	77.3396	900.879	77.9448	900.879	76.3452	900.879	78.5003	900.879	75.7228	900.879	78.6622	900.879	75.3795	900.879	78.0813	900.879	75.2506	900.879	76.831	900.879	74.9996	900.879	75.2064	900.879	73.8574	900.879	73.8178	900.879	71.0506	900.879	73.7397	900.879	67.1993	900.879	75.1205	900.879	69.1722	900.879	76.7966	900.879	73.0854	900.879	78.0151	900.879	75.5944	900.879	78.6653	900.879	77.1342	900.879	78.8897	900.879	78.0595	900.879	78.8408	900.879	78.5807
933.105	80.8875	933.105	81.0295	933.105	80.1303	933.105	80.5832	933.105	78.9907	933.105	79.6452	933.105	78.0268	933.105	78.3121	933.105	77.6979	933.105	76.9339	933.105	77.7651	933.105	76.32	933.105	77.6538	933.105	76.9186	933.105	77.0195	933.105	78.0676	933.105	75.5792	933.105	78.7662	933.105	72.8561	933.105	78.4831	933.105	68.9099	933.105	77.0807	933.105	67.7394	933.105	74.1593	933.105	70.759	933.105	68.5869	933.105	73.7604	933.105	68.475	933.105	76.0879	933.105	74.6409	933.105	77.7995	933.105	77.9472	933.105	78.9795	933.105	79.4867	933.105	79.7038	933.105	79.9418
965.332	82.4719	965.332	82.101	965.332	82.1205	965.332	81.3021	965.332	81.0055	965.332	80.6048	965.332	79.1993	965.332	80.0582	965.332	77.0263	965.332	79.1831	965.332	75.3774	965.332	78.0543	965.332	74.9806	965.332	77.4348	965.332	75.1355	965.332	77.683	965.332	74.7191	965.332	78.2943	965.332	72.9045	965.332	78.5543	965.332	68.9128	965.332	77.8417	965.332	64.0001	965.332	75.4844	965.332	68.5755	965.332	70.343	965.332	72.8858	965.332	64.6315	965.332	75.3786	965.332	72.4192	965.332	77.1725	965.332	77.1526	965.332	78.6971	965.332	79.4857	965.332	79.8236	965.332	80.2189
1,000.49	80.7835	1,000.49	82.8267	1,000.49	79.9399	1,000.49	84.5008	1,000.49	80.8201	1,000.49	84.924	1,000.49	82.1415	1,000.49	83.5773	1,000.49	83.0862	1,000.49	80.4129	1,000.49	83.5038	1,000.49	78.6696	1,000.49	83.7858	1,000.49	80.1992	1,000.49	84.4954	1,000.49	80.6415	1,000.49	85.3181	1,000.49	79.6579	1,000.49	85.5171	1,000.49	78.0464	1,000.49	84.7569	1,000.49	76.5924	1,000.49	82.9747	1,000.49	76.7442	1,000.49	79.8589	1,000.49	77.6404	1,000.49	75.3096	1,000.49	77.2392	1,000.49	75.7929	1,000.49	74.4904	1,000.49	79.2677	1,000.49	70.1642	1,000.49	80.8893	1,000.49	74.8241	1,000.49	80.863	1,000.49	79.0934
1,035.64	81.7883	1,035.64	83.1674	1,035.64	80.9291	1,035.64	83.8923	1,035.64	81.2962	1,035.64	83.4651	1,035.64	81.8223	1,035.64	81.8713	1,035.64	81.3436	1,035.64	80.0072	1,035.64	79.254	1,035.64	79.4667	1,035.64	75.9245	1,035.64	79.9846	1,035.64	76.8278	1,035.64	81.3287	1,035.64	80.7837	1,035.64	83.0054	1,035.64	82.651	1,035.64	84.0413	1,035.64	82.3388	1,035.64	84.1889	1,035.64	80.7288	1,035.64	83.4149	1,035.64	79.427	1,035.64	81.2982	1,035.64	78.0507	1,035.64	76.7335	1,035.64	74.6547	1,035.64	72.7885	1,035.64	70.2045	1,035.64	78.1311	1,035.64	74.3118	1,035.64	80.8939	1,035.64	78.7947	1,035.64	80.9649
1,072.27	83.0914	1,072.27	85.3237	1,072.27	79.9593	1,072.27	86.3105	1,072.27	78.2806	1,072.27	85.4372	1,072.27	81.1086	1,072.27	81.3935	1,072.27	84.2576	1,072.27	77.1831	1,072.27	86.3877	1,072.27	83.318	1,072.27	88.0002	1,072.27	86.3779	1,072.27	89.3111	1,072.27	87.2139	1,072.27	90.0001	1,072.27	86.529	1,072.27	89.714	1,072.27	84.3887	1,072.27	88.4107	1,072.27	81.2247	1,072.27	86.4441	1,072.27	79.4034	1,072.27	83.8944	1,072.27	80.1747	1,072.27	79.6804	1,072.27	80.104	1,072.27	72.2093	1,072.27	76.8644	1,072.27	75.318	1,072.27	72.88	1,072.27	79.9378	1,072.27	78.4554	1,072.27	81.6963	1,072.27	81.3723
1,108.89	81.8766	1,108.89	83.6136	1,108.89	80.2739	1,108.89	84.1646	1,108.89	80.5982	1,108.89	82.9151	1,108.89	82.1991	1,108.89	79.1315	1,108.89	83.2975	1,108.89	73.5892	1,108.89	83.2536	1,108.89	76.362	1,108.89	82.2733	1,108.89	78.1395	1,108.89	80.7163	1,108.89	76.41	1,108.89	78.8767	1,108.89	70.9005	1,108.89	77.1846	1,108.89	57.2038	1,108.89	76.8049	1,108.89	71.039	1,108.89	77.9983	1,108.89	76.8708	1,108.89	78.4701	1,108.89	79.736	1,108.89	76.5234	1,108.89	80.4583	1,108.89	71.5369	1,108.89	78.6683	1,108.89	73.898	1,108.89	74.2525	1,108.89	78.8688	1,108.89	76.4524	1,108.89	80.8237	1,108.89	80.1441
1,148.44	82.0124	1,148.44	82.9642	1,148.44	80.6821	1,148.44	82.6672	1,148.44	80.2607	1,148.44	80.0695	1,148.44	81.1641	1,148.44	70.2413	1,148.44	82.7399	1,148.44	77.1507	1,148.44	84.4238	1,148.44	84.072	1,148.44	85.9341	1,148.44	86.4894	1,148.44	86.9455	1,148.44	86.7578	1,148.44	87.2147	1,148.44	85.6369	1,148.44	86.752	1,148.44	83.3557	1,148.44	85.7843	1,148.44	79.5127	1,148.44	84.9224	1,148.44	75.0355	1,148.44	84.3527	1,148.44	79.2789	1,148.44	82.6345	1,148.44	82.4772	1,148.44	78.6088	1,148.44	82.1504	1,148.44	75.9404	1,148.44	78.4872	1,148.44	77.8822	1,148.44	74.7119	1,148.44	78.8763	1,148.44	77.4807
1,189.45	83.3536	1,189.45	84.4394	1,189.45	79.4164	1,189.45	82.7635	1,189.45	73.6951	1,189.45	75.9015	1,189.45	80.0485	1,189.45	73.6794	1,189.45	84.5811	1,189.45	83.7488	1,189.45	86.9903	1,189.45	87.4855	1,189.45	88.5904	1,189.45	89.0784	1,189.45	89.6371	1,189.45	89.5101	1,189.45	90.1158	1,189.45	89.1654	1,189.45	90.1348	1,189.45	88.2887	1,189.45	89.7876	1,189.45	86.7487	1,189.45	89.111	1,189.45	84.1419	1,189.45	87.9677	1,189.45	80.9055	1,189.45	86.0928	1,189.45	81.2917	1,189.45	83.6779	1,189.45	83.2553	1,189.45	81.4941	1,189.45	82.4911	1,189.45	80.1645	1,189.45	78.7902	1,189.45	78.8132	1,189.45	76.5117
1,230.47	82.201	1,230.47	81.9396	1,230.47	81.4817	1,230.47	80.4755	1,230.47	79.9586	1,230.47	78.4869	1,230.47	78.4206	1,230.47	79.672	1,230.47	79.1795	1,230.47	82.4007	1,230.47	81.8623	1,230.47	84.0599	1,230.47	84.1898	1,230.47	84.8092	1,230.47	85.379	1,230.47	84.8951	1,230.47	85.439	1,230.47	84.0326	1,230.47	84.6903	1,230.47	82.0303	1,230.47	83.1124	1,230.47	79.2563	1,230.47	81.1421	1,230.47	74.7512	1,230.47	80.3549	1,230.47	62.2334	1,230.47	79.8518	1,230.47	76.6639	1,230.47	78.146	1,230.47	80.2934	1,230.47	77.5312	1,230.47	79.134	1,230.47	77.0287	1,230.47	73.1515	1,230.47	73.2569	1,230.47	56.7825
1,274.41	84.2144	1,274.41	82.6198	1,274.41	83.1393	1,274.41	77.2986	1,274.41	79.2333	1,274.41	79.0928	1,274.41	70.9856	1,274.41	84.5499	1,274.41	77.7278	1,274.41	86.7044	1,274.41	83.7162	1,274.41	86.9498	1,274.41	86.8236	1,274.41	86.3672	1,274.41	88.1466	1,274.41	85.7701	1,274.41	88.2917	1,274.41	85.1307	1,274.41	87.5433	1,274.41	84.5773	1,274.41	86.1518	1,274.41	84.002	1,274.41	84.8191	1,274.41	82.7454	1,274.41	83.8104	1,274.41	79.4383	1,274.41	82.0522	1,274.41	69.5499	1,274.41	80.1019	1,274.41	73.9508	1,274.41	78.5172	1,274.41	78.8632	1,274.41	74.4552	1,274.41	78.4206	1,274.41	56.7561	1,274.41	73.0009
1,319.82	81.7089	1,319.82	82.0871	1,319.82	82.1746	1,319.82	83.211	1,319.82	82.2529	1,319.82	83.61	1,319.82	80.8151	1,319.82	82.3416	1,319.82	76.1614	1,319.82	78.9059	1,319.82	55.1182	1,319.82	72.6688	1,319.82	75.738	1,319.82	70.4813	1,319.82	81.1737	1,319.82	74.468	1,319.82	83.1284	1,319.82	75.5111	1,319.82	83.4937	1,319.82	76.3906	1,319.82	83.1461	1,319.82	77.7632	1,319.82	82.0949	1,319.82	79.4879	1,319.82	80.6026	1,319.82	79.051	1,319.82	78.8165	1,319.82	73.44	1,319.82	76.4251	1,319.82	64.5725	1,319.82	73.538	1,319.82	73.8244	1,319.82	70.0818	1,319.82	75.3587	1,319.82	69.8427	1,319.82	73.5509
1,366.7	82.1682	1,366.7	82.4455	1,366.7	82.2088	1,366.7	83.1892	1,366.7	81.7145	1,366.7	83.1333	1,366.7	80.1384	1,366.7	81.8126	1,366.7	76.3473	1,366.7	78.6827	1,366.7	65.2344	1,366.7	69.7215	1,366.7	72.7911	1,366.7	70.2444	1,366.7	78.7472	1,366.7	73.3355	1,366.7	80.4928	1,366.7	70.5672	1,366.7	80.3202	1,366.7	60.1989	1,366.7	79.3609	1,366.7	68.6445	1,366.7	78.6918	1,366.7	75.9014	1,366.7	78.5203	1,366.7	76.9221	1,366.7	77.4592	1,366.7	73.0018	1,366.7	75.1368	1,366.7	61.9807	1,366.7	73.0689	1,366.7	74.1609	1,366.7	68.9225	1,366.7	76.4665	1,366.7	67.0931	1,366.7	74.017
1,413.57	82.5947	1,413.57	84.1289	1,413.57	80.5055	1,413.57	83.7134	1,413.57	80.3841	1,413.57	80.9264	1,413.57	81.311	1,413.57	76.522	1,413.57	80.8494	1,413.57	74.5086	1,413.57	77.5918	1,413.57	77.8543	1,413.57	72.7688	1,413.57	81.5371	1,413.57	79.1249	1,413.57	83.1245	1,413.57	82.3456	1,413.57	82.6054	1,413.57	83.1848	1,413.57	81.18	1,413.57	83.0098	1,413.57	78.7672	1,413.57	81.688	1,413.57	74.4254	1,413.57	78.75	1,413.57	75.5843	1,413.57	75.4824	1,413.57	78.0439	1,413.57	70.9251	1,413.57	76.4464	1,413.57	58.5044	1,413.57	68.9168	1,413.57	71.1717	1,413.57	71.9641	1,413.57	74.4436	1,413.57	75.2352
1,463.38	82.8608	1,463.38	83.7719	1,463.38	80.3542	1,463.38	82.1047	1,463.38	78.3308	1,463.38	78.6604	1,463.38	79.6347	1,463.38	80.9281	1,463.38	81.1196	1,463.38	83.3193	1,463.38	81.2025	1,463.38	84.0086	1,463.38	80.3368	1,463.38	83.8045	1,463.38	80.0621	1,463.38	82.4136	1,463.38	79.2408	1,463.38	80.0416	1,463.38	75.3146	1,463.38	77.8197	1,463.38	66.9073	1,463.38	74.7698	1,463.38	64.4722	1,463.38	67.4129	1,463.38	71.0895	1,463.38	67.832	1,463.38	71.9136	1,463.38	74.9584	1,463.38	69.7396	1,463.38	74.7757	1,463.38	61.9425	1,463.38	67.4478	1,463.38	66.3364	1,463.38	71.5118	1,463.38	73.9577	1,463.38	75.3788
1,516.11	81.9851	1,516.11	81.4102	1,516.11	81.5092	1,516.11	81.2632	1,516.11	79.3441	1,516.11	82.9422	1,516.11	75.0498	1,516.11	83.4907	1,516.11	74.8921	1,516.11	81.1961	1,516.11	77.5423	1,516.11	76.6484	1,516.11	77.5779	1,516.11	73.4107	1,516.11	74.4963	1,516.11	72.6625	1,516.11	69.3989	1,516.11	71.1326	1,516.11	62.703	1,516.11	72.6863	1,516.11	63.8064	1,516.11	76.1848	1,516.11	67.1167	1,516.11	76.4313	1,516.11	68.6337	1,516.11	70.3832	1,516.11	67.7133	1,516.11	64.9894	1,516.11	66.1333	1,516.11	74.6305	1,516.11	68.2719	1,516.11	74.199	1,516.11	73.6698	1,516.11	65.706	1,516.11	74.614	1,516.11	70.7593
1,568.85	79.1882	1,568.85	78.1152	1,568.85	82.1863	1,568.85	83.2931	1,568.85	81.7012	1,568.85	85.1689	1,568.85	77.388	1,568.85	82.177	1,568.85	70.9026	1,568.85	71.0175	1,568.85	77.5298	1,568.85	76.0727	1,568.85	81.4287	1,568.85	79.9505	1,568.85	82.7624	1,568.85	80.0512	1,568.85	82.8782	1,568.85	78.6616	1,568.85	81.0859	1,568.85	75.1361	1,568.85	77.9718	1,568.85	64.6738	1,568.85	70.1711	1,568.85	67.9587	1,568.85	68.2912	1,568.85	68.4924	1,568.85	70.605	1,568.85	63.8005	1,568.85	71.9425	1,568.85	74.9066	1,568.85	68.8364	1,568.85	76.7532	1,568.85	73.1768	1,568.85	71.8969	1,568.85	71.8651	1,568.85	61.7059
1,624.51	79.8856	1,624.51	79.8373	1,624.51	79.8034	1,624.51	80.6813	1,624.51	77.7305	1,624.51	80.2468	1,624.51	73.6794	1,624.51	76.8907	1,624.51	68.6027	1,624.51	73.5417	1,624.51	54.6361	1,624.51	75.1561	1,624.51	66.5026	1,624.51	75.3432	1,624.51	71.3501	1,624.51	72.5312	1,624.51	72.0092	1,624.51	68.0193	1,624.51	70.3404	1,624.51	64.2669	1,624.51	67.4968	1,624.51	64.0539	1,624.51	66.5717	1,624.51	66.142	1,624.51	57.7646	1,624.51	63.0271	1,624.51	63.3866	1,624.51	62.564	1,624.51	63.6121	1,624.51	65.5791	1,624.51	64.0142	1,624.51	70.9769	1,624.51	66.1896	1,624.51	71.829	1,624.51	65.2322	1,624.51	69.1326
1,681.64	81.7596	1,681.64	81.3059	1,681.64	80.0151	1,681.64	78.879	1,681.64	76.5653	1,681.64	77.4622	1,681.64	74.4825	1,681.64	78.823	1,681.64	75.4357	1,681.64	78.9316	1,681.64	75.2019	1,681.64	75.9579	1,681.64	74.9383	1,681.64	70.0293	1,681.64	74.033	1,681.64	68.2219	1,681.64	72.5194	1,681.64	71.1512	1,681.64	73.2322	1,681.64	73.6487	1,681.64	75.486	1,681.64	75.8757	1,681.64	77.2617	1,681.64	77.8114	1,681.64	78.9495	1,681.64	78.3338	1,681.64	77.226	1,681.64	76.1875	1,681.64	75.9124	1,681.64	68.3548	1,681.64	71.6209	1,681.64	73.0309	1,681.64	58.1939	1,681.64	75.5468	1,681.64	62.9096	1,681.64	73.2276
1,741.7	82.0781	1,741.7	81.7548	1,741.7	80.9382	1,741.7	80.6342	1,741.7	78.5031	1,741.7	79.0875	1,741.7	74.6116	1,741.7	76.5013	1,741.7	70.4639	1,741.7	71.822	1,741.7	71.807	1,741.7	69.7235	1,741.7	75.4296	1,741.7	75.5261	1,741.7	78.2386	1,741.7	78.5872	1,741.7	79.3886	1,741.7	78.6687	1,741.7	79.3739	1,741.7	77.4986	1,741.7	77.7023	1,741.7	75.2129	1,741.7	72.935	1,741.7	71.3604	1,741.7	68.0954	1,741.7	67.2199	1,741.7	66.4392	1,741.7	64.6696	1,741.7	65.314	1,741.7	62.4	1,741.7	58.5302	1,741.7	62.7251	1,741.7	63.4669	1,741.7	69.1918	1,741.7	69.5726	1,741.7	71.4838
1,803.22	82.0451	1,803.22	82.091	1,803.22	81.0978	1,803.22	80.9543	1,803.22	79.3301	1,803.22	77.358	1,803.22	76.8303	1,803.22	73.6196	1,803.22	73.2842	1,803.22	75.6972	1,803.22	70.9833	1,803.22	76.4749	1,803.22	71.7766	1,803.22	77.7653	1,803.22	76.6897	1,803.22	78.0482	1,803.22	80.0864	1,803.22	78.566	1,803.22	81.1907	1,803.22	78.0222	1,803.22	80.758	1,803.22	75.9305	1,803.22	79.12	1,803.22	74.2348	1,803.22	75.828	1,803.22	71.9054	1,803.22	70.6264	1,803.22	67.7025	1,803.22	64.2402	1,803.22	66.8502	1,803.22	64.432	1,803.22	69.1408	1,803.22	69.6006	1,803.22	68.4167	1,803.22	70.3007	1,803.22	69.5884
1,866.21	81.245	1,866.21	81.3744	1,866.21	80.5965	1,866.21	80.7778	1,866.21	79.2581	1,866.21	77.943	1,866.21	76.8711	1,866.21	71.2994	1,866.21	73.003	1,866.21	65.3123	1,866.21	65.9389	1,866.21	65.8443	1,866.21	59.914	1,866.21	62.6613	1,866.21	64.5402	1,866.21	57.4091	1,866.21	61.691	1,866.21	48.105	1,866.21	46.7828	1,866.21	58.6445	1,866.21	54.8475	1,866.21	56.716	1,866.21	57.3692	1,866.21	54.7119	1,866.21	65.0074	1,866.21	58.9243	1,866.21	59.1248	1,866.21	60.8376	1,866.21	53.9096	1,866.21	62.8993	1,866.21	56.0126	1,866.21	63.0746	1,866.21	66.1361	1,866.21	65.2907	1,866.21	70.3358	1,866.21	69.895
1,932.13	80.0583	1,932.13	79.9514	1,932.13	80.0017	1,932.13	79.7333	1,932.13	78.6036	1,932.13	78.3943	1,932.13	75.615	1,932.13	74.5044	1,932.13	73.3174	1,932.13	70.2949	1,932.13	74.7318	1,932.13	74.5019	1,932.13	76.2922	1,932.13	75.6816	1,932.13	77.3621	1,932.13	74.6925	1,932.13	77.3864	1,932.13	73.6633	1,932.13	76.1226	1,932.13	72.8604	1,932.13	75.7044	1,932.13	74.2446	1,932.13	76.0358	1,932.13	75.3095	1,932.13	74.9529	1,932.13	74.5324	1,932.13	72.5878	1,932.13	71.1587	1,932.13	68.8853	1,932.13	67.5753	1,932.13	64.19	1,932.13	57.6149	1,932.13	62.7262	1,932.13	67.4509	1,932.13	70.7372	1,932.13	71.5042
1,999.51	80.7327	1,999.51	80.3396	1,999.51	80.1746	1,999.51	78.8784	1,999.51	78.8751	1,999.51	76.4555	1,999.51	76.6702	1,999.51	72.424	1,999.51	73.2318	1,999.51	61.8321	1,999.51	69.8229	1,999.51	55.0794	1,999.51	65.9538	1,999.51	59.1902	1,999.51	61.5711	1,999.51	63.1789	1,999.51	60.5176	1,999.51	63.1613	1,999.51	59.2788	1,999.51	60.299	1,999.51	61.3821	1,999.51	61.244	1,999.51	57.8306	1,999.51	64.073	1,999.51	55.2512	1,999.51	61.9354	1,999.51	56.1532	1,999.51	57.0373	1,999.51	56.4648	1,999.51	54.9828	1,999.51	58.2227	1,999.51	57.1805	1,999.51	65.2006	1,999.51	63.5998	1,999.51	68.7067	1,999.51	68.1573
2,069.82	81.4328	2,069.82	81.0427	2,069.82	80.5046	2,069.82	78.328	2,069.82	78.841	2,069.82	74.6228	2,069.82	75.979	2,069.82	71.931	2,069.82	72.1148	2,069.82	65.6875	2,069.82	69.1642	2,069.82	59.4013	2,069.82	64.6639	2,069.82	64.4617	2,069.82	61.3378	2,069.82	67.097	2,069.82	62.3397	2,069.82	65.8208	2,069.82	66.2409	2,069.82	64.5507	2,069.82	65.7757	2,069.82	60.3981	2,069.82	58.6308	2,069.82	62.6208	2,069.82	47.224	2,069.82	65.3222	2,069.82	46.0677	2,069.82	57.4947	2,069.82	57.2333	2,069.82	54.6493	2,069.82	60.5948	2,069.82	56.6403	2,069.82	66.6892	2,069.82	64.2859	2,069.82	70.1137	2,069.82	69.2152
2,143.07	81.4712	2,143.07	81.0356	2,143.07	80.5707	2,143.07	78.2145	2,143.07	78.7353	2,143.07	73.7038	2,143.07	75.6449	2,143.07	72.0416	2,143.07	71.6999	2,143.07	69.7498	2,143.07	68.8613	2,143.07	66.7792	2,143.07	65.2092	2,143.07	66.2917	2,143.07	64.7257	2,143.07	64.277	2,143.07	66.0681	2,143.07	64.4603	2,143.07	67.3157	2,143.07	64.2929	2,143.07	67.0165	2,143.07	64.0973	2,143.07	60.74	2,143.07	59.531	2,143.07	50.881	2,143.07	65.569	2,143.07	47.9803	2,143.07	62.9539	2,143.07	53.6638	2,143.07	53.9925	2,143.07	60.1939	2,143.07	56.7336	2,143.07	66.4881	2,143.07	64.2354	2,143.07	69.8583	2,143.07	68.7514
2,219.24	80.6523	2,219.24	80.1442	2,219.24	80.1382	2,219.24	77.7	2,219.24	78.499	2,219.24	73.3153	2,219.24	75.2707	2,219.24	71.3697	2,219.24	71.6316	2,219.24	71.6619	2,219.24	67.4674	2,219.24	69.627	2,219.24	62.1677	2,219.24	71.1225	2,219.24	62.5342	2,219.24	69.3936	2,219.24	61.3031	2,219.24	66.3022	2,219.24	63.3274	2,219.24	67.6169	2,219.24	67.0978	2,219.24	67.5168	2,219.24	65.2218	2,219.24	62.8052	2,219.24	57.6702	2,219.24	65.8517	2,219.24	54.7137	2,219.24	65.8754	2,219.24	57.3498	2,219.24	59.6753	2,219.24	59.1837	2,219.24	53.6859	2,219.24	66.4113	2,219.24	61.2344	2,219.24	69.5319	2,219.24	67.9578
2,296.88	80.2224	2,296.88	79.3864	2,296.88	79.5049	2,296.88	77.13	2,296.88	77.9348	2,296.88	73.8403	2,296.88	75.6086	2,296.88	72.0671	2,296.88	72.47	2,296.88	72.8544	2,296.88	69.542	2,296.88	71.8798	2,296.88	66.2447	2,296.88	71.5784	2,296.88	60.188	2,296.88	68.2881	2,296.88	59.3708	2,296.88	66.7095	2,296.88	64.2477	2,296.88	67.2572	2,296.88	63.1097	2,296.88	69.7714	2,296.88	63.3142	2,296.88	65.6648	2,296.88	61.8936	2,296.88	65.6246	2,296.88	56.2106	2,296.88	67.3635	2,296.88	61.1026	2,296.88	61.9102	2,296.88	57.6426	2,296.88	51.0336	2,296.88	63.5918	2,296.88	55.989	2,296.88	68.6054	2,296.88	67.185
2,378.91	80.3229	2,378.91	78.6694	2,378.91	79.5504	2,378.91	75.647	2,378.91	76.9814	2,378.91	72.5855	2,378.91	74.0366	2,378.91	71.5071	2,378.91	72.3095	2,378.91	72.8899	2,378.91	71.2764	2,378.91	72.4203	2,378.91	67.7227	2,378.91	71.1924	2,378.91	66.8392	2,378.91	72.5022	2,378.91	66.9226	2,378.91	71.6299	2,378.91	66.4758	2,378.91	67.89	2,378.91	63.0963	2,378.91	67.2387	2,378.91	57.1338	2,378.91	69.2141	2,378.91	58.7771	2,378.91	65.2706	2,378.91	55.1049	2,378.91	68.046	2,378.91	61.7152	2,378.91	61.7539	2,378.91	58.4958	2,378.91	50.8386	2,378.91	63.4869	2,378.91	55.6485	2,378.91	67.6616	2,378.91	66.5347
2,462.4	82.2376	2,462.4	80.4573	2,462.4	81.2855	2,462.4	75.3645	2,462.4	77.9277	2,462.4	69.4233	2,462.4	73.2114	2,462.4	70.4335	2,462.4	71.2348	2,462.4	72.2318	2,462.4	69.7512	2,462.4	74.3713	2,462.4	68.3456	2,462.4	73.5472	2,462.4	67.7523	2,462.4	71.1182	2,462.4	63.0686	2,462.4	68.7923	2,462.4	58.3217	2,462.4	66.5554	2,462.4	54.8172	2,462.4	67.3361	2,462.4	52.7469	2,462.4	69.0495	2,462.4	54.8807	2,462.4	67.4558	2,462.4	40.494	2,462.4	67.8255	2,462.4	58.6776	2,462.4	64.435	2,462.4	61.7447	2,462.4	49.4065	2,462.4	62.9878	2,462.4	59.5052	2,462.4	68.7383	2,462.4	68.8047
2,548.83	83.1858	2,548.83	81.7243	2,548.83	82.7132	2,548.83	76.207	2,548.83	80.0037	2,548.83	66.0766	2,548.83	75.0589	2,548.83	70.4825	2,548.83	70.1476	2,548.83	74.1202	2,548.83	66.8531	2,548.83	75.7696	2,548.83	67.3194	2,548.83	74.5579	2,548.83	65.0935	2,548.83	73.0447	2,548.83	67.5019	2,548.83	71.4446	2,548.83	68.6226	2,548.83	67.4556	2,548.83	66.3221	2,548.83	66.2154	2,548.83	61.7227	2,548.83	69.0951	2,548.83	62.8831	2,548.83	69.0308	2,548.83	55.4708	2,548.83	67.6781	2,548.83	56.333	2,548.83	66.273	2,548.83	59.9335	2,548.83	51.1831	2,548.83	62.9298	2,548.83	55.9026	2,548.83	70.2536	2,548.83	70.5064
2,639.65	82.593	2,639.65	80.8366	2,639.65	82.8722	2,639.65	76.3968	2,639.65	80.995	2,639.65	67.8666	2,639.65	76.7781	2,639.65	74.3086	2,639.65	72.0177	2,639.65	77.0776	2,639.65	65.4537	2,639.65	76.4417	2,639.65	53.3458	2,639.65	75.5311	2,639.65	63.1141	2,639.65	72.4678	2,639.65	65.8076	2,639.65	68.3117	2,639.65	64.2859	2,639.65	69.3436	2,639.65	68.2114	2,639.65	69.4793	2,639.65	66.0287	2,639.65	67.6036	2,639.65	60.8355	2,639.65	70.0151	2,639.65	59.1848	2,639.65	68.2381	2,639.65	59.5697	2,639.65	66.151	2,639.65	63.5731	2,639.65	50.5587	2,639.65	63.5555	2,639.65	60.0482	2,639.65	69.3807	2,639.65	69.6701
2,731.93	82.2829	2,731.93	80.3845	2,731.93	81.7967	2,731.93	76.7815	2,731.93	79.8132	2,731.93	71.5967	2,731.93	76.3427	2,731.93	74.5525	2,731.93	72.4226	2,731.93	77.5298	2,731.93	66.7031	2,731.93	76.658	2,731.93	64.7552	2,731.93	74.172	2,731.93	61.5335	2,731.93	73.2879	2,731.93	56.6476	2,731.93	72.0441	2,731.93	57.5779	2,731.93	68.6445	2,731.93	65.6351	2,731.93	68.9786	2,731.93	63.9539	2,731.93	69.2338	2,731.93	63.481	2,731.93	69.3953	2,731.93	62.0315	2,731.93	69.4009	2,731.93	60.754	2,731.93	65.1364	2,731.93	65.0381	2,731.93	50.3775	2,731.93	63.771	2,731.93	56.5265	2,731.93	68.6101	2,731.93	68.9172
2,828.61	83.0389	2,828.61	81.2507	2,828.61	81.7557	2,828.61	76.5167	2,828.61	78.523	2,828.61	72.9554	2,828.61	74.0172	2,828.61	75.7418	2,828.61	70.2423	2,828.61	78.031	2,828.61	67.7817	2,828.61	77.097	2,828.61	68.3126	2,828.61	75.6766	2,828.61	67.8522	2,828.61	73.0314	2,828.61	67.7552	2,828.61	71.5198	2,828.61	63.5721	2,828.61	68.9394	2,828.61	66.1297	2,828.61	68.4932	2,828.61	62.7347	2,828.61	67.382	2,828.61	64.123	2,828.61	69.678	2,828.61	62.3904	2,828.61	69.1334	2,828.61	60.2116	2,828.61	66.5933	2,828.61	64.6187	2,828.61	49.2222	2,828.61	64.4862	2,828.61	54.3218	2,828.61	68.4362	2,828.61	69.4511
2,928.22	83.8446	2,928.22	83.1365	2,928.22	82.4848	2,928.22	78.6477	2,928.22	78.4704	2,928.22	73.956	2,928.22	73.1965	2,928.22	77.4789	2,928.22	69.4192	2,928.22	79.0648	2,928.22	68.1392	2,928.22	78.1119	2,928.22	70.307	2,928.22	76.9557	2,928.22	70.2863	2,928.22	74.624	2,928.22	69.8712	2,928.22	70.9792	2,928.22	71.6196	2,928.22	67.9131	2,928.22	69.3544	2,928.22	65.1737	2,928.22	66.7871	2,928.22	69.7107	2,928.22	61.4375	2,928.22	68.6376	2,928.22	56.1776	2,928.22	69.7855	2,928.22	51.3767	2,928.22	66.4761	2,928.22	62.3072	2,928.22	46.0735	2,928.22	62.8499	2,928.22	57.0791	2,928.22	65.4037	2,928.22	69.1694
3,030.76	84.1545	3,030.76	83.1573	3,030.76	82.9938	3,030.76	79.0909	3,030.76	79.1125	3,030.76	74.4405	3,030.76	74.3515	3,030.76	79.4636	3,030.76	69.2542	3,030.76	79.081	3,030.76	68.582	3,030.76	78.0097	3,030.76	70.0667	3,030.76	76.5136	3,030.76	70.4235	3,030.76	72.1607	3,030.76	70.5886	3,030.76	67.7118	3,030.76	74.1835	3,030.76	67.6937	3,030.76	70.9403	3,030.76	64.6875	3,030.76	63.575	3,030.76	70.1007	3,030.76	61.4908	3,030.76	68.8835	3,030.76	58.6654	3,030.76	69.7593	3,030.76	57.9933	3,030.76	67.4685	3,030.76	59.525	3,030.76	54.3093	3,030.76	65.8542	3,030.76	54.2711	3,030.76	67.8807	3,030.76	70.5026
3,137.7	83.8898	3,137.7	82.6235	3,137.7	82.8317	3,137.7	79.9002	3,137.7	79.6431	3,137.7	77.0865	3,137.7	75.3066	3,137.7	79.7812	3,137.7	72.8547	3,137.7	79.5161	3,137.7	70.7672	3,137.7	78.8102	3,137.7	72.1088	3,137.7	75.3972	3,137.7	70.2712	3,137.7	69.3898	3,137.7	71.9866	3,137.7	68.0674	3,137.7	75.0837	3,137.7	69.2637	3,137.7	68.8374	3,137.7	64.1077	3,137.7	66.946	3,137.7	68.4971	3,137.7	65.5404	3,137.7	71.7676	3,137.7	63.0259	3,137.7	68.6322	3,137.7	56.6108	3,137.7	69.4109	3,137.7	65.3268	3,137.7	49.5385	3,137.7	68.4226	3,137.7	50.6124	3,137.7	68.8463	3,137.7	69.2312
3,249.02	83.7721	3,249.02	83.1037	3,249.02	82.3601	3,249.02	79.5288	3,249.02	79.0861	3,249.02	77.6259	3,249.02	75.1313	3,249.02	79.4083	3,249.02	73.8968	3,249.02	79.7604	3,249.02	72.6905	3,249.02	77.3239	3,249.02	73.8245	3,249.02	73.5818	3,249.02	74.5018	3,249.02	72.5696	3,249.02	74.3784	3,249.02	70.2336	3,249.02	75.3585	3,249.02	64.4054	3,249.02	70.1645	3,249.02	67.2399	3,249.02	69.2057	3,249.02	61.278	3,249.02	68.435	3,249.02	71.5064	3,249.02	63.6838	3,249.02	67.5667	3,249.02	64.9378	3,249.02	69.57	3,249.02	64.9765	3,249.02	47.7801	3,249.02	70.5748	3,249.02	52.9378	3,249.02	70.3319	3,249.02	68.9238
3,363.28	84.1312	3,363.28	83.5459	3,363.28	82.1967	3,363.28	78.1845	3,363.28	78.6869	3,363.28	76.5489	3,363.28	73.9317	3,363.28	79.436	3,363.28	72.875	3,363.28	79.0945	3,363.28	72.0429	3,363.28	76.4887	3,363.28	75.512	3,363.28	74.5866	3,363.28	76.2368	3,363.28	73.0743	3,363.28	75.2232	3,363.28	66.3934	3,363.28	73.275	3,363.28	66.4813	3,363.28	67.142	3,363.28	65.0729	3,363.28	65.9919	3,363.28	65.9058	3,363.28	67.4992	3,363.28	69.1887	3,363.28	62.3717	3,363.28	69.0291	3,363.28	66.7508	3,363.28	68.3337	3,363.28	64.3398	3,363.28	56.5005	3,363.28	69.7305	3,363.28	60.5129	3,363.28	70.7081	3,363.28	69.8101
3,481.93	84.7883	3,481.93	84.8228	3,481.93	82.3272	3,481.93	79.1972	3,481.93	79.1054	3,481.93	75.1551	3,481.93	75.7278	3,481.93	78.8316	3,481.93	73.8478	3,481.93	79.4669	3,481.93	73.6181	3,481.93	77.9929	3,481.93	76.1634	3,481.93	76.8687	3,481.93	75.3466	3,481.93	71.8489	3,481.93	74.4221	3,481.93	64.6994	3,481.93	70.9074	3,481.93	65.4296	3,481.93	66.159	3,481.93	64.3822	3,481.93	68.1858	3,481.93	66.5911	3,481.93	66.1991	3,481.93	69.6083	3,481.93	62.6424	3,481.93	70.3983	3,481.93	68.1294	3,481.93	68.6695	3,481.93	62.6003	3,481.93	57.1771	3,481.93	67.4711	3,481.93	61.8718	3,481.93	69.0625	3,481.93	70.6905
3,604.98	84.7339	3,604.98	85.2785	3,604.98	81.2045	3,604.98	80.068	3,604.98	77.2782	3,604.98	69.1496	3,604.98	77.2642	3,604.98	77.3954	3,604.98	75.7567	3,604.98	78.0066	3,604.98	78.3328	3,604.98	78.0793	3,604.98	78.1712	3,604.98	76.3442	3,604.98	75.3357	3,604.98	71.9533	3,604.98	71.1515	3,604.98	70.59	3,604.98	59.8807	3,604.98	62.582	3,604.98	64.3342	3,604.98	62.6828	3,604.98	65.5895	3,604.98	65.9052	3,604.98	66.71	3,604.98	70.9332	3,604.98	60.7882	3,604.98	69.7216	3,604.98	69.7855	3,604.98	68.9375	3,604.98	49.7987	3,604.98	54.5539	3,604.98	65.9935	3,604.98	61.3463	3,604.98	68.4703	3,604.98	71.2768
3,732.42	84.51	3,732.42	84.4727	3,732.42	81.5417	3,732.42	79.8792	3,732.42	78.5248	3,732.42	74.8059	3,732.42	78.0205	3,732.42	74.8625	3,732.42	75.8851	3,732.42	77.4204	3,732.42	78.9409	3,732.42	77.3623	3,732.42	77.3615	3,732.42	73.5699	3,732.42	74.1922	3,732.42	73.0103	3,732.42	61.2041	3,732.42	69.3809	3,732.42	66.2749	3,732.42	64.4849	3,732.42	55.7191	3,732.42	67.8584	3,732.42	60.8475	3,732.42	66.4661	3,732.42	58.8577	3,732.42	68.7001	3,732.42	63.0107	3,732.42	69.9896	3,732.42	65.283	3,732.42	67.535	3,732.42	61.4722	3,732.42	53.305	3,732.42	67.4734	3,732.42	60.6632	3,732.42	68.1419	3,732.42	71.1934
3,864.26	82.5065	3,864.26	82.2	3,864.26	82.6085	3,864.26	79.2798	3,864.26	81.8356	3,864.26	75.1325	3,864.26	79.4825	3,864.26	74.9966	3,864.26	77.2275	3,864.26	78.3647	3,864.26	76.9935	3,864.26	78.5258	3,864.26	74.8324	3,864.26	77.2642	3,864.26	72.4848	3,864.26	74.93	3,864.26	69.0684	3,864.26	70.1132	3,864.26	69.7259	3,864.26	66.4103	3,864.26	71.3759	3,864.26	66.0516	3,864.26	65.5872	3,864.26	65.5322	3,864.26	61.8225	3,864.26	68.0154	3,864.26	62.3891	3,864.26	70.5536	3,864.26	60.8306	3,864.26	66.7975	3,864.26	64.6726	3,864.26	57.4413	3,864.26	67.3631	3,864.26	61.5314	3,864.26	65.9173	3,864.26	69.3686
4,000.49	81.1301	4,000.49	80.5376	4,000.49	81.712	4,000.49	78.6945	4,000.49	81.2528	4,000.49	74.0082	4,000.49	79.3281	4,000.49	76.3557	4,000.49	77.6528	4,000.49	77.1548	4,000.49	76.9581	4,000.49	78.4215	4,000.49	73.6763	4,000.49	77.8107	4,000.49	68.757	4,000.49	74.5192	4,000.49	64.6399	4,000.49	69.4784	4,000.49	66.9178	4,000.49	65.5684	4,000.49	71.6204	4,000.49	62.0375	4,000.49	66.5083	4,000.49	66.5726	4,000.49	60.8174	4,000.49	68.9308	4,000.49	46.0509	4,000.49	68.9502	4,000.49	58.0805	4,000.49	64.7899	4,000.49	64.4081	4,000.49	56.7028	4,000.49	65.0179	4,000.49	61.3951	4,000.49	65.4502	4,000.49	67.0123
4,141.11	81.9132	4,141.11	79.4915	4,141.11	82.5656	4,141.11	78.7421	4,141.11	80.5795	4,141.11	77.0355	4,141.11	78.3654	4,141.11	76.0993	4,141.11	78.3976	4,141.11	79.0319	4,141.11	77.7801	4,141.11	79.5834	4,141.11	74.1135	4,141.11	77.7605	4,141.11	66.8646	4,141.11	69.6016	4,141.11	70.1649	4,141.11	71.8593	4,141.11	67.9419	4,141.11	64.3384	4,141.11	65.496	4,141.11	64.514	4,141.11	62.9322	4,141.11	68.0723	4,141.11	62.5599	4,141.11	68.0584	4,141.11	64.776	4,141.11	69.4925	4,141.11	58.6827	4,141.11	64.9386	4,141.11	63.6784	4,141.11	56.6396	4,141.11	65.1787	4,141.11	58.8847	4,141.11	66.7531	4,141.11	65.7884
4,287.6	81.1331	4,287.6	78.8806	4,287.6	82.6797	4,287.6	79.5828	4,287.6	81.1585	4,287.6	77.8353	4,287.6	77.6811	4,287.6	77.1794	4,287.6	80.4754	4,287.6	79.2282	4,287.6	79.2823	4,287.6	80.4884	4,287.6	73.2082	4,287.6	76.2427	4,287.6	71.1449	4,287.6	76.1656	4,287.6	74.3454	4,287.6	70.2785	4,287.6	65.2014	4,287.6	69.4937	4,287.6	59.7848	4,287.6	67.4261	4,287.6	65.8401	4,287.6	67.7505	4,287.6	50.5291	4,287.6	67.9523	4,287.6	67.9069	4,287.6	70.5193	4,287.6	51.7759	4,287.6	64.8152	4,287.6	63.2815	4,287.6	58.422	4,287.6	65.3394	4,287.6	60.5939	4,287.6	65.6854	4,287.6	63.0209
4,438.48	80.751	4,438.48	77.7428	4,438.48	82.2608	4,438.48	79.4292	4,438.48	79.784	4,438.48	78.9768	4,438.48	77.9651	4,438.48	78.1743	4,438.48	80.4972	4,438.48	79.2565	4,438.48	78.8303	4,438.48	79.1094	4,438.48	69.9209	4,438.48	78.2332	4,438.48	76.0273	4,438.48	75.9157	4,438.48	72.7375	4,438.48	67.2607	4,438.48	62.1604	4,438.48	67.2403	4,438.48	66.9376	4,438.48	63.7838	4,438.48	64.2462	4,438.48	65.4718	4,438.48	62.9432	4,438.48	69.9798	4,438.48	65.6271	4,438.48	70.5384	4,438.48	47.7325	4,438.48	62.8227	4,438.48	67.4336	4,438.48	65.0872	4,438.48	63.3965	4,438.48	64.657	4,438.48	64.5728	4,438.48	59.7689
4,595.21	79.6329	4,595.21	78.4995	4,595.21	82.7563	4,595.21	77.3344	4,595.21	80.2863	4,595.21	78.1442	4,595.21	78.8935	4,595.21	77.5189	4,595.21	81.1039	4,595.21	79.2586	4,595.21	76.8362	4,595.21	77.9244	4,595.21	75.59	4,595.21	78.6777	4,595.21	77.7624	4,595.21	72.8854	4,595.21	68.6548	4,595.21	71.3557	4,595.21	70.0708	4,595.21	63.2073	4,595.21	70.2593	4,595.21	66.1866	4,595.21	59.8646	4,595.21	62.3055	4,595.21	68.5851	4,595.21	70.5902	4,595.21	67.497	4,595.21	67.7313	4,595.21	66.2027	4,595.21	53.9625	4,595.21	65.9713	4,595.21	66.9081	4,595.21	66.4699	4,595.21	65.3957	4,595.21	69.1039	4,595.21	56.387
4,756.35	79.1851	4,756.35	75.6771	4,756.35	80.5353	4,756.35	78.6395	4,756.35	80.7763	4,756.35	80.3971	4,756.35	79.9135	4,756.35	79.0165	4,756.35	80.4887	4,756.35	77.8656	4,756.35	73.7182	4,756.35	79.7223	4,756.35	78.211	4,756.35	75.3473	4,756.35	75.1595	4,756.35	73.243	4,756.35	69.673	4,756.35	69.9403	4,756.35	70.6427	4,756.35	65.4941	4,756.35	68.0646	4,756.35	64.1265	4,756.35	66.1928	4,756.35	66.1815	4,756.35	64.5582	4,756.35	68.6032	4,756.35	66.1528	4,756.35	66.9106	4,756.35	68.5374	4,756.35	60.0543	4,756.35	60.5061	4,756.35	66.8278	4,756.35	65.8809	4,756.35	65.3618	4,756.35	69.8367	4,756.35	59.4782
4,924.8	79.9933	4,924.8	75.1778	4,924.8	80.4265	4,924.8	78.1912	4,924.8	80.9051	4,924.8	82.0595	4,924.8	79.5722	4,924.8	78.4421	4,924.8	79.6626	4,924.8	77.2768	4,924.8	72.4623	4,924.8	77.9094	4,924.8	77.9751	4,924.8	75.5321	4,924.8	71.7279	4,924.8	73.2523	4,924.8	72.1584	4,924.8	68.0004	4,924.8	68.6634	4,924.8	66.4934	4,924.8	63.5806	4,924.8	60.9366	4,924.8	65.1488	4,924.8	64.4434	4,924.8	60.824	4,924.8	68.2957	4,924.8	66.4739	4,924.8	66.6923	4,924.8	63.8044	4,924.8	60.024	4,924.8	56.6606	4,924.8	63.0381	4,924.8	65.0348	4,924.8	61.3939	4,924.8	67.1677	4,924.8	55.3023
5,097.66	80.056	5,097.66	78.5752	5,097.66	80.6972	5,097.66	79.6677	5,097.66	80.414	5,097.66	81.3064	5,097.66	80.5009	5,097.66	76.7377	5,097.66	78.5442	5,097.66	78.2953	5,097.66	76.6931	5,097.66	77.2897	5,097.66	77.2414	5,097.66	77.1388	5,097.66	67.0254	5,097.66	72.314	5,097.66	71.9216	5,097.66	68.6495	5,097.66	66.4583	5,097.66	65.399	5,097.66	69.5986	5,097.66	66.5898	5,097.66	68.6833	5,097.66	65.2518	5,097.66	68.2666	5,097.66	68.5392	5,097.66	64.2705	5,097.66	64.975	5,097.66	60.4567	5,097.66	58.4692	5,097.66	56.1027	5,097.66	60.9862	5,097.66	65.8417	5,097.66	61.9196	5,097.66	66.1616	5,097.66	60.8854
5,277.83	80.0796	5,277.83	80.4425	5,277.83	79.7597	5,277.83	80.0708	5,277.83	80.0832	5,277.83	79.7257	5,277.83	81.2159	5,277.83	77.6405	5,277.83	77.2804	5,277.83	75.8789	5,277.83	79.6758	5,277.83	77.842	5,277.83	75.8055	5,277.83	74.6537	5,277.83	71.0843	5,277.83	71.0114	5,277.83	68.9277	5,277.83	67.2066	5,277.83	66.4106	5,277.83	62.2111	5,277.83	68.6021	5,277.83	56.9461	5,277.83	71.209	5,277.83	65.267	5,277.83	67.384	5,277.83	67.8702	5,277.83	62.3432	5,277.83	65.5209	5,277.83	61.6974	5,277.83	52.3537	5,277.83	55.7339	5,277.83	60.6259	5,277.83	64.0752	5,277.83	56.8379	5,277.83	64.5525	5,277.83	61.1966
5,463.87	80.1782	5,463.87	80.5177	5,463.87	80.3589	5,463.87	79.1565	5,463.87	79.3838	5,463.87	81.453	5,463.87	81.1224	5,463.87	76.5566	5,463.87	76.0758	5,463.87	75.8279	5,463.87	80.0886	5,463.87	77.4013	5,463.87	73.3085	5,463.87	75.9248	5,463.87	73.3669	5,463.87	73.4304	5,463.87	64.8857	5,463.87	67.5914	5,463.87	70.3169	5,463.87	63.291	5,463.87	68.8719	5,463.87	63.7647	5,463.87	69.2171	5,463.87	68.2392	5,463.87	65.1214	5,463.87	67.3826	5,463.87	61.3665	5,463.87	64.1167	5,463.87	63.2837	5,463.87	53.1323	5,463.87	61.0748	5,463.87	61.7756	5,463.87	64.0962	5,463.87	61.2636	5,463.87	63.537	5,463.87	58.908
5,657.23	80.471	5,657.23	79.4114	5,657.23	79.8676	5,657.23	78.5192	5,657.23	78.7742	5,657.23	82.0582	5,657.23	81.2506	5,657.23	77.8699	5,657.23	75.512	5,657.23	73.3727	5,657.23	78.3567	5,657.23	76.6064	5,657.23	70.4796	5,657.23	76.6635	5,657.23	72.8275	5,657.23	70.1018	5,657.23	66.4808	5,657.23	65.3564	5,657.23	69.8509	5,657.23	64.1396	5,657.23	64.7642	5,657.23	59.9961	5,657.23	65.7464	5,657.23	66.502	5,657.23	65.5037	5,657.23	66.1147	5,657.23	55.3123	5,657.23	62.9415	5,657.23	62.8364	5,657.23	55.8159	5,657.23	61.5527	5,657.23	63.1157	5,657.23	62.7439	5,657.23	63.5569	5,657.23	63.8357	5,657.23	59.0031
5,856.45	80.0967	5,856.45	80.5129	5,856.45	78.9122	5,856.45	78.184	5,856.45	79.7741	5,856.45	80.9646	5,856.45	80.0231	5,856.45	77.0063	5,856.45	77.2133	5,856.45	73.7056	5,856.45	76.9436	5,856.45	77.2238	5,856.45	72.4656	5,856.45	74.9198	5,856.45	67.0169	5,856.45	72.8253	5,856.45	68.2183	5,856.45	67.5222	5,856.45	66.6917	5,856.45	63.7439	5,856.45	62.3657	5,856.45	56.9942	5,856.45	68.8213	5,856.45	66.0175	5,856.45	62.8034	5,856.45	66.5588	5,856.45	63.9929	5,856.45	62.2204	5,856.45	53.7652	5,856.45	52.9491	5,856.45	57.9395	5,856.45	62.0997	5,856.45	63.1461	5,856.45	58.2739	5,856.45	64.0773	5,856.45	62.718
6,062.99	81.6246	6,062.99	81.6931	6,062.99	80.0421	6,062.99	79.4236	6,062.99	80.0288	6,062.99	79.4438	6,062.99	77.6312	6,062.99	78.3758	6,062.99	79.3091	6,062.99	73.9989	6,062.99	75.9078	6,062.99	75.6396	6,062.99	74.4931	6,062.99	75.1912	6,062.99	69.4809	6,062.99	72.1443	6,062.99	70.3976	6,062.99	66.5198	6,062.99	62.0782	6,062.99	60.7937	6,062.99	63.5203	6,062.99	57.9991	6,062.99	69.1626	6,062.99	63.8075	6,062.99	65.1266	6,062.99	66.0233	6,062.99	64.7887	6,062.99	60.5651	6,062.99	48.2471	6,062.99	49.9748	6,062.99	59.1313	6,062.99	61.7927	6,062.99	63.1747	6,062.99	60.2107	6,062.99	63.0276	6,062.99	60.5371
6,276.86	81.7347	6,276.86	81.9625	6,276.86	80.8368	6,276.86	78.6051	6,276.86	79.6389	6,276.86	80.5983	6,276.86	77.4541	6,276.86	79.3551	6,276.86	80.801	6,276.86	70.2213	6,276.86	75.6637	6,276.86	76.4378	6,276.86	75.4175	6,276.86	74.9028	6,276.86	74.3673	6,276.86	70.1337	6,276.86	72.4085	6,276.86	66.7016	6,276.86	64.9134	6,276.86	56.3363	6,276.86	68.4788	6,276.86	61.7845	6,276.86	69.3654	6,276.86	63.1121	6,276.86	68.0228	6,276.86	66.838	6,276.86	60.525	6,276.86	62.201	6,276.86	49.9685	6,276.86	54.3935	6,276.86	59.2304	6,276.86	62.723	6,276.86	62.8635	6,276.86	60.52	6,276.86	62.6596	6,276.86	56.5869
6,498.05	82.4587	6,498.05	81.1127	6,498.05	81.042	6,498.05	79.3213	6,498.05	77.9198	6,498.05	79.817	6,498.05	78.0919	6,498.05	78.6401	6,498.05	80.7867	6,498.05	71.9393	6,498.05	75.9486	6,498.05	74.7393	6,498.05	74.8653	6,498.05	73.9499	6,498.05	75.5129	6,498.05	71.3761	6,498.05	67.5836	6,498.05	67.0249	6,498.05	67.8851	6,498.05	60.8107	6,498.05	69.2583	6,498.05	60.7712	6,498.05	67.8779	6,498.05	63.6107	6,498.05	67.9487	6,498.05	64.368	6,498.05	59.6394	6,498.05	62.945	6,498.05	56.5623	6,498.05	55.9327	6,498.05	52.8716	6,498.05	62.3523	6,498.05	59.773	6,498.05	57.9371	6,498.05	61.3288	6,498.05	54.4652
6,726.56	82.2804	6,726.56	80.3061	6,726.56	81.1913	6,726.56	80.3964	6,726.56	75.1326	6,726.56	79.6849	6,726.56	79.4387	6,726.56	77.7052	6,726.56	79.8878	6,726.56	72.4558	6,726.56	74.9373	6,726.56	73.6834	6,726.56	74.4327	6,726.56	74.6917	6,726.56	70.3466	6,726.56	68.949	6,726.56	60.1584	6,726.56	64.2797	6,726.56	67.007	6,726.56	59.9452	6,726.56	66.0092	6,726.56	56.825	6,726.56	67.1396	6,726.56	63.2454	6,726.56	66.7229	6,726.56	63.8346	6,726.56	61.9568	6,726.56	61.3599	6,726.56	55.2865	6,726.56	59.2674	6,726.56	59.9331	6,726.56	62.5719	6,726.56	57.6025	6,726.56	60.0107	6,726.56	63.2643	6,726.56	56.691
6,963.87	81.5485	6,963.87	80.3535	6,963.87	80.7652	6,963.87	81.3476	6,963.87	79.1028	6,963.87	79.2175	6,963.87	80.5439	6,963.87	79.6961	6,963.87	79.1118	6,963.87	70.2054	6,963.87	73.9717	6,963.87	73.0893	6,963.87	74.8209	6,963.87	72.123	6,963.87	62.2338	6,963.87	70.8065	6,963.87	66.4947	6,963.87	63.569	6,963.87	58.8518	6,963.87	61.064	6,963.87	50.8828	6,963.87	57.0013	6,963.87	65.2249	6,963.87	61.8248	6,963.87	63.1501	6,963.87	63.0382	6,963.87	55.9762	6,963.87	61.5843	6,963.87	55.2103	6,963.87	53.6138	6,963.87	58.8195	6,963.87	57.9482	6,963.87	61.6421	6,963.87	60.3744	6,963.87	62.555	6,963.87	53.2208
7,209.96	82.1952	7,209.96	81.1128	7,209.96	81.3086	7,209.96	81.2739	7,209.96	80.9238	7,209.96	78.4751	7,209.96	79.4521	7,209.96	78.822	7,209.96	77.5932	7,209.96	72.0462	7,209.96	76.5067	7,209.96	71.111	7,209.96	72.4478	7,209.96	72.7929	7,209.96	70.6446	7,209.96	68.6511	7,209.96	68.7753	7,209.96	63.3674	7,209.96	65.0379	7,209.96	61.2766	7,209.96	66.7805	7,209.96	54.3432	7,209.96	65.4232	7,209.96	55.448	7,209.96	65.6389	7,209.96	63.4595	7,209.96	57.7133	7,209.96	60.3844	7,209.96	51.0263	7,209.96	50.3764	7,209.96	52.7262	7,209.96	58.6814	7,209.96	61.2275	7,209.96	59.3627	7,209.96	62.235	7,209.96	50.4585
7,464.84	82.559	7,464.84	81.494	7,464.84	82.3565	7,464.84	80.89	7,464.84	81.6286	7,464.84	79.327	7,464.84	78.8045	7,464.84	78.4563	7,464.84	76.1494	7,464.84	70.929	7,464.84	77.4086	7,464.84	70.1893	7,464.84	68.3818	7,464.84	71.8738	7,464.84	74.7062	7,464.84	69.5855	7,464.84	69.8343	7,464.84	64.3314	7,464.84	69.1312	7,464.84	62.6959	7,464.84	64.2241	7,464.84	55.2799	7,464.84	64.1287	7,464.84	58.9263	7,464.84	63.4716	7,464.84	63.4812	7,464.84	40.2781	7,464.84	58.9705	7,464.84	49.6952	7,464.84	40.9661	7,464.84	51.941	7,464.84	59.6144	7,464.84	58.112	7,464.84	55.6863	7,464.84	59.7298	7,464.84	49.9104
7,727.05	82.8334	7,727.05	81.0041	7,727.05	82.2901	7,727.05	81.2815	7,727.05	80.5711	7,727.05	79.186	7,727.05	77.4769	7,727.05	78.1632	7,727.05	75.8633	7,727.05	73.4292	7,727.05	76.8672	7,727.05	68.2245	7,727.05	71.4679	7,727.05	71.8156	7,727.05	73.8262	7,727.05	68.3595	7,727.05	66.4631	7,727.05	60.7575	7,727.05	66.8956	7,727.05	64.0535	7,727.05	63.2604	7,727.05	55.955	7,727.05	66.5617	7,727.05	57.4539	7,727.05	66.2649	7,727.05	61.7978	7,727.05	56.9473	7,727.05	59.2441	7,727.05	52.5999	7,727.05	41.4464	7,727.05	52.115	7,727.05	59.0394	7,727.05	58.6624	7,727.05	59.1137	7,727.05	60.3686	7,727.05	50.9692
7,999.51	82.4608	7,999.51	80.6247	7,999.51	81.5069	7,999.51	81.4154	7,999.51	79.5817	7,999.51	78.9527	7,999.51	77.134	7,999.51	76.9628	7,999.51	76.519	7,999.51	72.5738	7,999.51	75.27	7,999.51	66.987	7,999.51	74.5573	7,999.51	72.234	7,999.51	66.0463	7,999.51	69.0888	7,999.51	62.3601	7,999.51	66.5079	7,999.51	59.4671	7,999.51	62.5435	7,999.51	64.3479	7,999.51	52.9471	7,999.51	66.1479	7,999.51	53.4342	7,999.51	67.8474	7,999.51	61.1539	7,999.51	59.1848	7,999.51	60.6508	7,999.51	50.1681	7,999.51	45.1234	7,999.51	52.8675	7,999.51	58.8301	7,999.51	56.125	7,999.51	60.1839	7,999.51	59.7315	7,999.51	50.4003
8,282.23	81.9391	8,282.23	81.3596	8,282.23	79.8671	8,282.23	81.1352	8,282.23	80.4514	8,282.23	79.6851	8,282.23	78.1955	8,282.23	77.1305	8,282.23	77.1099	8,282.23	74.3821	8,282.23	75.1587	8,282.23	66.7072	8,282.23	73.6146	8,282.23	73.5509	8,282.23	65.388	8,282.23	68.7089	8,282.23	67.3017	8,282.23	67.0006	8,282.23	59.7953	8,282.23	61.3573	8,282.23	65.6807	8,282.23	53.4222	8,282.23	65.2102	8,282.23	37.5983	8,282.23	67.0025	8,282.23	57.2283	8,282.23	58.5556	8,282.23	58.4898	8,282.23	54.9543	8,282.23	46.0922	8,282.23	53.4916	8,282.23	58.0517	8,282.23	56.756	8,282.23	56.1393	8,282.23	59.9852	8,282.23	51.2092
8,573.73	81.7944	8,573.73	81.6657	8,573.73	79.5653	8,573.73	81.208	8,573.73	81.256	8,573.73	78.2128	8,573.73	79.1246	8,573.73	76.8062	8,573.73	76.8716	8,573.73	74.2311	8,573.73	76.264	8,573.73	67.1729	8,573.73	71.9818	8,573.73	72.4455	8,573.73	71.0485	8,573.73	68.6539	8,573.73	67.1257	8,573.73	67.8295	8,573.73	58.8859	8,573.73	57.0486	8,573.73	61.548	8,573.73	57.0231	8,573.73	62.4464	8,573.73	49.6748	8,573.73	62.4638	8,573.73	58.9486	8,573.73	54.219	8,573.73	58.0472	8,573.73	49.1135	8,573.73	48.9218	8,573.73	55.2783	8,573.73	56.6464	8,573.73	59.5251	8,573.73	47.5301	8,573.73	60.0332	8,573.73	52.9229
8,876.95	81.39	8,876.95	80.3368	8,876.95	80.0279	8,876.95	80.7424	8,876.95	81.6228	8,876.95	78.4768	8,876.95	79.3098	8,876.95	76.9464	8,876.95	77.1651	8,876.95	74.79	8,876.95	75.4581	8,876.95	67.1371	8,876.95	70.5066	8,876.95	71.9547	8,876.95	69.9353	8,876.95	68.0489	8,876.95	64.0503	8,876.95	64.1254	8,876.95	57.2601	8,876.95	54.0689	8,876.95	60.8068	8,876.95	53.8432	8,876.95	63.7565	8,876.95	51.3709	8,876.95	63.7131	8,876.95	60.3561	8,876.95	58.1314	8,876.95	57.5348	8,876.95	46.2638	8,876.95	36.7692	8,876.95	47.0664	8,876.95	53.914	8,876.95	57.7054	8,876.95	59.1975	8,876.95	59.7122	8,876.95	52.0818
9,188.96	80.6832	9,188.96	81.2906	9,188.96	81.7301	9,188.96	79.8108	9,188.96	80.4837	9,188.96	78.4317	9,188.96	79.4352	9,188.96	76.5388	9,188.96	76.0726	9,188.96	74.5548	9,188.96	74.7962	9,188.96	67.6403	9,188.96	72.4918	9,188.96	70.105	9,188.96	67.5555	9,188.96	67.5858	9,188.96	60.793	9,188.96	63.794	9,188.96	55.4861	9,188.96	58.2253	9,188.96	58.6019	9,188.96	53.8763	9,188.96	61.7829	9,188.96	53.0042	9,188.96	63.1832	9,188.96	59.7844	9,188.96	55.0379	9,188.96	57.5042	9,188.96	50.6681	9,188.96	43.256	9,188.96	49.0122	9,188.96	51.7873	9,188.96	52.5062	9,188.96	56.0491	9,188.96	57.5993	9,188.96	49.798
9,514.16	81.1057	9,514.16	81.2015	9,514.16	81.7607	9,514.16	79.7091	9,514.16	79.0879	9,514.16	78.4636	9,514.16	79.4092	9,514.16	76.6193	9,514.16	75.1868	9,514.16	75.1193	9,514.16	73.0042	9,514.16	67.3846	9,514.16	71.703	9,514.16	69.1164	9,514.16	67.173	9,514.16	65.9765	9,514.16	61.9852	9,514.16	61.9833	9,514.16	59.815	9,514.16	37.3338	9,514.16	60.0351	9,514.16	58.7122	9,514.16	61.3746	9,514.16	46.7962	9,514.16	62.9325	9,514.16	58.5508	9,514.16	50.8548	9,514.16	56.368	9,514.16	48.257	9,514.16	51.5417	9,514.16	45.679	9,514.16	56.2486	9,514.16	53.5128	9,514.16	54.761	9,514.16	57.6651	9,514.16	48.4947
9,849.61	80.9864	9,849.61	80.8161	9,849.61	79.617	9,849.61	79.1603	9,849.61	78.9029	9,849.61	78.8228	9,849.61	78.3577	9,849.61	76.1664	9,849.61	75.408	9,849.61	74.8857	9,849.61	73.9894	9,849.61	67.6451	9,849.61	71.5193	9,849.61	68.1758	9,849.61	66.3394	9,849.61	64.838	9,849.61	62.3901	9,849.61	60.941	9,849.61	52.9246	9,849.61	43.4454	9,849.61	58.4098	9,849.61	55.6773	9,849.61	61.7917	9,849.61	49.3842	9,849.61	65.4354	9,849.61	58.8202	9,849.61	58.4456	9,849.61	54.5105	9,849.61	45.9442	9,849.61	51.6095	9,849.61	43.0806	9,849.61	48.4001	9,849.61	51.6398	9,849.61	54.7469	9,849.61	57.586	9,849.61	51.2642
10,196.8	80.7692	10,196.8	81.1747	10,196.8	79.0232	10,196.8	79.9287	10,196.8	78.8118	10,196.8	78.4801	10,196.8	77.4154	10,196.8	75.3928	10,196.8	76.7341	10,196.8	75.642	10,196.8	72.926	10,196.8	67.7238	10,196.8	68.9446	10,196.8	67.1772	10,196.8	61.8095	10,196.8	66.4989	10,196.8	61.2633	10,196.8	59.7886	10,196.8	38.5981	10,196.8	55.1847	10,196.8	52.3114	10,196.8	58.1668	10,196.8	61.5741	10,196.8	50.0638	10,196.8	62.923	10,196.8	58.8103	10,196.8	57.8655	10,196.8	53.3811	10,196.8	48.156	10,196.8	51.0161	10,196.8	41.7315	10,196.8	48.9141	10,196.8	54.2169	10,196.8	56.6739	10,196.8	57.4497	10,196.8	47.2412
10,555.7	81.529	10,555.7	80.6298	10,555.7	80.0442	10,555.7	79.6778	10,555.7	78.0592	10,555.7	78.4753	10,555.7	77.2845	10,555.7	74.8972	10,555.7	77.1333	10,555.7	75.7721	10,555.7	72.1743	10,555.7	68.9647	10,555.7	68.5835	10,555.7	64.7307	10,555.7	66.5095	10,555.7	65.8979	10,555.7	61.1126	10,555.7	56.6341	10,555.7	37.0753	10,555.7	47.4777	10,555.7	55.2494	10,555.7	56.3618	10,555.7	63.3984	10,555.7	48.3708	10,555.7	63.5989	10,555.7	56.6948	10,555.7	59.9364	10,555.7	49.9292	10,555.7	40.2595	10,555.7	53.3124	10,555.7	45.5584	10,555.7	45.2484	10,555.7	49.9417	10,555.7	55.5971	10,555.7	54.1239	10,555.7	45.3555
10,927.7	81.6833	10,927.7	80.8317	10,927.7	81.0095	10,927.7	80.0114	10,927.7	77.8381	10,927.7	78.7795	10,927.7	77.9523	10,927.7	74.7776	10,927.7	75.3727	10,927.7	74.8954	10,927.7	73.2047	10,927.7	69.3027	10,927.7	69.1016	10,927.7	62.4667	10,927.7	65.62	10,927.7	65.2152	10,927.7	54.7719	10,927.7	54.7913	10,927.7	50.8011	10,927.7	54.564	10,927.7	54.7232	10,927.7	56.1823	10,927.7	63.1567	10,927.7	48.9323	10,927.7	63.2402	10,927.7	53.9465	10,927.7	57.3732	10,927.7	47.9351	10,927.7	47.8857	10,927.7	50.8645	10,927.7	46.6686	10,927.7	43.6753	10,927.7	40.2463	10,927.7	55.1706	10,927.7	53.7211	10,927.7	42.1447
11,313	80.7409	11,313	80.9156	11,313	81.1824	11,313	79.2904	11,313	78.014	11,313	78.7131	11,313	78.1122	11,313	74.844	11,313	74.9009	11,313	74.3725	11,313	71.8894	11,313	69.7019	11,313	67.9982	11,313	61.5251	11,313	60.6312	11,313	64.7862	11,313	60.2037	11,313	56.6579	11,313	52.5663	11,313	52.4781	11,313	56.6746	11,313	57.1772	11,313	64.589	11,313	46.0268	11,313	65.5107	11,313	52.4249	11,313	60.2012	11,313	48.0833	11,313	37.3204	11,313	54.7765	11,313	39.2672	11,313	39.7232	11,313	43.9912	11,313	48.9649	11,313	49.9563	11,313	44.9298
11,712.9	80.3985	11,712.9	80.7119	11,712.9	80.2396	11,712.9	78.7323	11,712.9	78.3257	11,712.9	78.441	11,712.9	76.856	11,712.9	75.5915	11,712.9	75.074	11,712.9	74.1108	11,712.9	70.9627	11,712.9	69.0868	11,712.9	67.7448	11,712.9	60.6251	11,712.9	62.3009	11,712.9	63.8904	11,712.9	59.1174	11,712.9	54.3355	11,712.9	45.5184	11,712.9	52.6341	11,712.9	58.8729	11,712.9	58.3952	11,712.9	64.2875	11,712.9	48.2039	11,712.9	65.3628	11,712.9	45.1176	11,712.9	59.9293	11,712.9	49.8044	11,712.9	46.5483	11,712.9	55.4252	11,712.9	39.3937	11,712.9	44.1977	11,712.9	44.1106	11,712.9	46.2359	11,712.9	42.041	11,712.9	47.7016
12,126	80.5622	12,126	80.2268	12,126	79.8627	12,126	78.4235	12,126	77.7262	12,126	78.2685	12,126	76.7454	12,126	75.9735	12,126	74.3196	12,126	72.9783	12,126	70.9601	12,126	68.9226	12,126	66.9344	12,126	58.368	12,126	63.3072	12,126	62.416	12,126	52.8593	12,126	55.8009	12,126	49.0798	12,126	54.2784	12,126	59.3445	12,126	56.7591	12,126	64.791	12,126	49.5523	12,126	64.7392	12,126	40.8021	12,126	59.164	12,126	48.3714	12,126	38.4891	12,126	53.8225	12,126	40.1659	12,126	43.1312	12,126	29.0177	12,126	34.5636	12,126	49.3874	12,126	43.9046
12,553.7	80.2314	12,553.7	80.0844	12,553.7	80.7488	12,553.7	78.3337	12,553.7	78.1684	12,553.7	78.1054	12,553.7	76.0399	12,553.7	75.3138	12,553.7	73.804	12,553.7	72.1259	12,553.7	70.1781	12,553.7	68.135	12,553.7	65.1542	12,553.7	58.2906	12,553.7	58.7376	12,553.7	60.2236	12,553.7	58.9114	12,553.7	54.3726	12,553.7	53.4305	12,553.7	49.5108	12,553.7	59.6691	12,553.7	53.6141	12,553.7	64.8581	12,553.7	46.9766	12,553.7	65.2989	12,553.7	40.8448	12,553.7	59.211	12,553.7	44.616	12,553.7	45.2092	12,553.7	47.5069	12,553.7	30.9324	12,553.7	45.4082	12,553.7	37.6878	12,553.7	43.1794	12,553.7	50.5789	12,553.7	47.9883
12,996.1	80.5452	12,996.1	80.8119	12,996.1	81.0227	12,996.1	79.5025	12,996.1	78.8221	12,996.1	78.1886	12,996.1	76.5613	12,996.1	75.2532	12,996.1	73.9291	12,996.1	70.9405	12,996.1	69.1491	12,996.1	66.1063	12,996.1	67.0885	12,996.1	58.2194	12,996.1	59.843	12,996.1	58.8843	12,996.1	59.1902	12,996.1	51.9641	12,996.1	54.6828	12,996.1	48.384	12,996.1	59.9808	12,996.1	51.1002	12,996.1	64.7713	12,996.1	41.9839	12,996.1	65.933	12,996.1	41.8492	12,996.1	59.5067	12,996.1	38.9141	12,996.1	49.7131	12,996.1	44.1088	12,996.1	38.4327	12,996.1	46.9613	12,996.1	42.6643	12,996.1	22.9624	12,996.1	49.732	12,996.1	49.4347
13,454.6	81.5095	13,454.6	81.4041	13,454.6	80.6463	13,454.6	80.4673	13,454.6	79.1369	13,454.6	78.4484	13,454.6	77.143	13,454.6	74.6281	13,454.6	73.5219	13,454.6	69.5519	13,454.6	69.6169	13,454.6	63.9404	13,454.6	64.5785	13,454.6	53.5761	13,454.6	61.3688	13,454.6	57.0258	13,454.6	56.0611	13,454.6	52.9477	13,454.6	55.0999	13,454.6	50.0561	13,454.6	60.8882	13,454.6	49.5949	13,454.6	65.0646	13,454.6	39.8742	13,454.6	65.8924	13,454.6	42.7237	13,454.6	59.9399	13,454.6	36.0031	13,454.6	47.9131	13,454.6	46.8365	13,454.6	43.4365	13,454.6	49.5997	13,454.6	37.1223	13,454.6	50.0771	13,454.6	52.2579	13,454.6	45.2802
13,929.2	82.1497	13,929.2	81.6299	13,929.2	81.4368	13,929.2	81.1047	13,929.2	79.4205	13,929.2	78.6812	13,929.2	76.6608	13,929.2	74.3245	13,929.2	73.427	13,929.2	68.7308	13,929.2	68.4116	13,929.2	62.4664	13,929.2	60.82	13,929.2	45.8667	13,929.2	60.4024	13,929.2	55.5595	13,929.2	56.3914	13,929.2	53.9842	13,929.2	56.4429	13,929.2	45.7339	13,929.2	62.584	13,929.2	46.911	13,929.2	66.2982	13,929.2	45.6593	13,929.2	66.8709	13,929.2	45.8833	13,929.2	61.2946	13,929.2	37.2916	13,929.2	47.488	13,929.2	50.0081	13,929.2	41.4369	13,929.2	49.7834	13,929.2	37.4266	13,929.2	51.1324	13,929.2	51.9578	13,929.2	50.2151
14,419.9	82.6935	14,419.9	82.3361	14,419.9	82.475	14,419.9	81.5794	14,419.9	79.8127	14,419.9	78.7545	14,419.9	77.0803	14,419.9	73.7486	14,419.9	73.6101	14,419.9	67.8187	14,419.9	67.8383	14,419.9	61.6668	14,419.9	63.3545	14,419.9	49.8519	14,419.9	61.2472	14,419.9	52.5311	14,419.9	59.5169	14,419.9	51.9632	14,419.9	60.7445	14,419.9	45.3831	14,419.9	64.0788	14,419.9	42.5776	14,419.9	68.301	14,419.9	42.3496	14,419.9	68.4025	14,419.9	45.5644	14,419.9	62.5947	14,419.9	38.5661	14,419.9	41.0683	14,419.9	52.5961	14,419.9	36.3603	14,419.9	50.5749	14,419.9	31.5805	14,419.9	52.6452	14,419.9	52.2137	14,419.9	49.895
14,928.2	82.3867	14,928.2	82.3361	14,928.2	83.0103	14,928.2	81.7868	14,928.2	80.2469	14,928.2	78.6572	14,928.2	77.298	14,928.2	73.6842	14,928.2	73.1806	14,928.2	65.4299	14,928.2	68.2188	14,928.2	61.6337	14,928.2	63.0146	14,928.2	58.2233	14,928.2	63.8142	14,928.2	52.423	14,928.2	61.3493	14,928.2	54.7564	14,928.2	60.8892	14,928.2	48.7773	14,928.2	65.1714	14,928.2	44.1619	14,928.2	69.4232	14,928.2	42.4213	14,928.2	69.6294	14,928.2	41.8826	14,928.2	63.8196	14,928.2	29.8246	14,928.2	44.735	14,928.2	53.3675	14,928.2	37.4774	14,928.2	51.1783	14,928.2	42.0925	14,928.2	47.5751	14,928.2	48.2827	14,928.2	50.2992
15,455.6	82.3807	15,455.6	82.6953	15,455.6	83.0485	15,455.6	81.4774	15,455.6	80.5309	15,455.6	78.3141	15,455.6	77.485	15,455.6	74.0156	15,455.6	73.4769	15,455.6	62.6684	15,455.6	67.3639	15,455.6	62.9672	15,455.6	64.7836	15,455.6	60.5404	15,455.6	61.7271	15,455.6	49.9584	15,455.6	59.6898	15,455.6	54.4664	15,455.6	62.0277	15,455.6	45.6224	15,455.6	67.3017	15,455.6	22.631	15,455.6	70.208	15,455.6	47.4489	15,455.6	70.2539	15,455.6	46.7051	15,455.6	64.2332	15,455.6	41.6393	15,455.6	38.8521	15,455.6	54.8323	15,455.6	41.2712	15,455.6	50.3586	15,455.6	36.1898	15,455.6	46.6816	15,455.6	50.1115	15,455.6	52.7443
16,000.5	81.9271	16,000.5	82.4221	16,000.5	82.8211	16,000.5	81.5916	16,000.5	79.2782	16,000.5	78.4692	16,000.5	78.3691	16,000.5	74.1694	16,000.5	71.155	16,000.5	64.5129	16,000.5	68.9131	16,000.5	65.6938	16,000.5	64.9792	16,000.5	61.7982	16,000.5	60.2303	16,000.5	48.4079	16,000.5	61.337	16,000.5	55.4095	16,000.5	64.3686	16,000.5	46.2366	16,000.5	68.6862	16,000.5	42.2314	16,000.5	71.6444	16,000.5	46.0093	16,000.5	71.4308	16,000.5	43.9826	16,000.5	65.4463	16,000.5	41.1837	16,000.5	46.2645	16,000.5	55.6063	16,000.5	44.2775	16,000.5	45.0193	16,000.5	36.5569	16,000.5	50.2621	16,000.5	49.8494	16,000.5	53.8197
16,564.5	82.6468	16,564.5	82.4617	16,564.5	83.1168	16,564.5	81.9109	16,564.5	79.7183	16,564.5	78.5053	16,564.5	78.2145	16,564.5	73.9583	16,564.5	72.0184	16,564.5	68.0693	16,564.5	69.0163	16,564.5	67.3595	16,564.5	66.1851	16,564.5	61.6955	16,564.5	56.4914	16,564.5	45.1766	16,564.5	61.4626	16,564.5	54.0816	16,564.5	65.757	16,564.5	44.784	16,564.5	70.7158	16,564.5	43.6023	16,564.5	72.7309	16,564.5	45.2754	16,564.5	72.6952	16,564.5	43.1413	16,564.5	66.393	16,564.5	40.3879	16,564.5	48.0432	16,564.5	50.5568	16,564.5	47.0893	16,564.5	33.1148	16,564.5	33.8931	16,564.5	52.4809	16,564.5	48.9557	16,564.5	54.9945
17,148.9	81.8716	17,148.9	82.5768	17,148.9	82.8657	17,148.9	81.853	17,148.9	80.7705	17,148.9	78.6837	17,148.9	76.54	17,148.9	72.6447	17,148.9	73.4366	17,148.9	72.0162	17,148.9	71.3626	17,148.9	68.9175	17,148.9	64.9997	17,148.9	62.4576	17,148.9	62.9624	17,148.9	42.3483	17,148.9	64.2846	17,148.9	52.2091	17,148.9	67.811	17,148.9	44.416	17,148.9	72.0392	17,148.9	48.6054	17,148.9	73.8872	17,148.9	49.4195	17,148.9	74.013	17,148.9	48.1611	17,148.9	68.195	17,148.9	46.4192	17,148.9	51.3662	17,148.9	36.2801	17,148.9	43.7858	17,148.9	48.3406	17,148.9	28.5594	17,148.9	48.4784	17,148.9	42.2492	17,148.9	53.8357
17,752.4	80.5951	17,752.4	81.0383	17,752.4	80.3751	17,752.4	80.7351	17,752.4	79.1642	17,752.4	78.0133	17,752.4	75.7698	17,752.4	72.9224	17,752.4	73.6404	17,752.4	72.2619	17,752.4	71.4409	17,752.4	69.5075	17,752.4	65.7734	17,752.4	61.2065	17,752.4	62.8245	17,752.4	44.2778	17,752.4	64.2154	17,752.4	49.3663	17,752.4	67.8714	17,752.4	38.3137	17,752.4	72.1305	17,752.4	51.7149	17,752.4	73.8311	17,752.4	46.8139	17,752.4	74.0702	17,752.4	50.5882	17,752.4	68.533	17,752.4	44.9003	17,752.4	51.919	17,752.4	43.2961	17,752.4	38.1691	17,752.4	45.0015	17,752.4	42.7243	17,752.4	45.6323	17,752.4	37.8872	17,752.4	52.5636
18,379.4	75.7027	18,379.4	76.8612	18,379.4	77.5238	18,379.4	76.8389	18,379.4	76.8236	18,379.4	75.1619	18,379.4	73.2068	18,379.4	72.1022	18,379.4	71.551	18,379.4	70.6107	18,379.4	68.1974	18,379.4	66.9425	18,379.4	62.9681	18,379.4	59.029	18,379.4	59.5372	18,379.4	41.3242	18,379.4	59.5554	18,379.4	43.4483	18,379.4	63.9123	18,379.4	26.997	18,379.4	69.5291	18,379.4	49.0596	18,379.4	71.1403	18,379.4	43.103	18,379.4	71.4325	18,379.4	49.1572	18,379.4	66.4005	18,379.4	40.3315	18,379.4	47.3503	18,379.4	46.3646	18,379.4	39.8693	18,379.4	45.0972	18,379.4	36.1397	18,379.4	44.1401	18,379.4	29.0757	18,379.4	47.3847
19,026.9	68.8002	19,026.9	70.5101	19,026.9	69.801	19,026.9	71.4208	19,026.9	70.143	19,026.9	71.5042	19,026.9	68.3456	19,026.9	69.4754	19,026.9	68.559	19,026.9	66.3794	19,026.9	63.6529	19,026.9	60.9356	19,026.9	56.9607	19,026.9	50.1843	19,026.9	49.3101	19,026.9	40.7734	19,026.9	53.4829	19,026.9	35.4709	19,026.9	59.5515	19,026.9	29.4923	19,026.9	64.5613	19,026.9	41.5228	19,026.9	66.8155	19,026.9	27.9817	19,026.9	66.8471	19,026.9	42.0225	19,026.9	62.3166	19,026.9	37.2878	19,026.9	45.5558	19,026.9	40.5337	19,026.9	25.2736	19,026.9	41.0727	19,026.9	36.7346	19,026.9	36.4563	19,026.9	34.9767	19,026.9	44.0005
19,697.8	61.5361	19,697.8	64.3951	19,697.8	63.8591	19,697.8	66.5684	19,697.8	64.6651	19,697.8	67.9697	19,697.8	65.2894	19,697.8	66.2058	19,697.8	63.1606	19,697.8	61.3644	19,697.8	57.87	19,697.8	53.6488	19,697.8	48.7349	19,697.8	37.6468	19,697.8	37.6598	19,697.8	43.542	19,697.8	43.465	19,697.8	27.4849	19,697.8	51.6459	19,697.8	18.5999	19,697.8	58.2852	19,697.8	36.6444	19,697.8	60.4137	19,697.8	29.2586	19,697.8	60.9399	19,697.8	36.4901	19,697.8	56.7074	19,697.8	28.3866	19,697.8	40.4926	19,697.8	18.064	19,697.8	27.5067	19,697.8	31.0814	19,697.8	14.0522	19,697.8	27.403	19,697.8	7.77719	19,697.8	31.9698
19,999.5	61.9643	19,999.5	62.4712	19,999.5	61.0866	19,999.5	65.0898	19,999.5	61.8368	19,999.5	66.2837	19,999.5	63.8402	19,999.5	64.7025	19,999.5	60.6029	19,999.5	58.8903	19,999.5	56.1556	19,999.5	50.2817	19,999.5	45.5848	19,999.5	43.0776	19,999.5	34.3773	19,999.5	45.8944	19,999.5	41.5318	19,999.5	32.2819	19,999.5	48.0991	19,999.5	32.1139	19,999.5	55.2841	19,999.5	31.635	19,999.5	58.138	19,999.5	33.8083	19,999.5	58.3201	19,999.5	37.2019	19,999.5	54.7239	19,999.5	36.9377	19,999.5	37.2538	19,999.5	36.0408	19,999.5	30.5436	19,999.5	37.2724	19,999.5	38.5745	19,999.5	34.1772	19,999.5	33.3474	19,999.5	27.8691
