"SPL Horizontal"
"On-Axis"		"10°"		"-10°"		"20°"		"-20°"		"30°"		"-30°"		"40°"		"-40°"		"50°"		"-50°"		"60°"		"-60°"		"70°"		"-70°"		"80°"		"-80°"		"90°"		"-90°"		"100°"		"-100°"		"110°"		"-110°"		"120°"		"-120°"		"130°"		"-130°"		"140°"		"-140°"		"150°"		"-150°"		"160°"		"-160°"		"170°"		"-170°"		"180°"
"Frequency / Hz"	"Sound Pressure Level / dB (re 20 µPa/V)  [2.83  V @ 1. m]"	"Frequency / Hz"	"Sound Pressure Level / dB (re 20 µPa/V)  [2.83  V @ 1. m]"	"Frequency / Hz"	"Sound Pressure Level / dB (re 20 µPa/V)  [2.83  V @ 1. m]"	"Frequency / Hz"	"Sound Pressure Level / dB (re 20 µPa/V)  [2.83  V @ 1. m]"	"Frequency / Hz"	"Sound Pressure Level / dB (re 20 µPa/V)  [2.83  V @ 1. m]"	"Frequency / Hz"	"Sound Pressure Level / dB (re 20 µPa/V)  [2.83  V @ 1. m]"	"Frequency / Hz"	"Sound Pressure Level / dB (re 20 µPa/V)  [2.83  V @ 1. m]"	"Frequency / Hz"	"Sound Pressure Level / dB (re 20 µPa/V)  [2.83  V @ 1. m]"	"Frequency / Hz"	"Sound Pressure Level / dB (re 20 µPa/V)  [2.83  V @ 1. m]"	"Frequency / Hz"	"Sound Pressure Level / dB (re 20 µPa/V)  [2.83  V @ 1. m]"	"Frequency / Hz"	"Sound Pressure Level / dB (re 20 µPa/V)  [2.83  V @ 1. m]"	"Frequency / Hz"	"Sound Pressure Level / dB (re 20 µPa/V)  [2.83  V @ 1. m]"	"Frequency / Hz"	"Sound Pressure Level / dB (re 20 µPa/V)  [2.83  V @ 1. m]"	"Frequency / Hz"	"Sound Pressure Level / dB (re 20 µPa/V)  [2.83  V @ 1. m]"	"Frequency / Hz"	"Sound Pressure Level / dB (re 20 µPa/V)  [2.83  V @ 1. m]"	"Frequency / Hz"	"Sound Pressure Level / dB (re 20 µPa/V)  [2.83  V @ 1. m]"	"Frequency / Hz"	"Sound Pressure Level / dB (re 20 µPa/V)  [2.83  V @ 1. m]"	"Frequency / Hz"	"Sound Pressure Level / dB (re 20 µPa/V)  [2.83  V @ 1. m]"	"Frequency / Hz"	"Sound Pressure Level / dB (re 20 µPa/V)  [2.83  V @ 1. m]"	"Frequency / Hz"	"Sound Pressure Level / dB (re 20 µPa/V)  [2.83  V @ 1. m]"	"Frequency / Hz"	"Sound Pressure Level / dB (re 20 µPa/V)  [2.83  V @ 1. m]"	"Frequency / Hz"	"Sound Pressure Level / dB (re 20 µPa/V)  [2.83  V @ 1. m]"	"Frequency / Hz"	"Sound Pressure Level / dB (re 20 µPa/V)  [2.83  V @ 1. m]"	"Frequency / Hz"	"Sound Pressure Level / dB (re 20 µPa/V)  [2.83  V @ 1. m]"	"Frequency / Hz"	"Sound Pressure Level / dB (re 20 µPa/V)  [2.83  V @ 1. m]"	"Frequency / Hz"	"Sound Pressure Level / dB (re 20 µPa/V)  [2.83  V @ 1. m]"	"Frequency / Hz"	"Sound Pressure Level / dB (re 20 µPa/V)  [2.83  V @ 1. m]"	"Frequency / Hz"	"Sound Pressure Level / dB (re 20 µPa/V)  [2.83  V @ 1. m]"	"Frequency / Hz"	"Sound Pressure Level / dB (re 20 µPa/V)  [2.83  V @ 1. m]"	"Frequency / Hz"	"Sound Pressure Level / dB (re 20 µPa/V)  [2.83  V @ 1. m]"	"Frequency / Hz"	"Sound Pressure Level / dB (re 20 µPa/V)  [2.83  V @ 1. m]"	"Frequency / Hz"	"Sound Pressure Level / dB (re 20 µPa/V)  [2.83  V @ 1. m]"	"Frequency / Hz"	"Sound Pressure Level / dB (re 20 µPa/V)  [2.83  V @ 1. m]"	"Frequency / Hz"	"Sound Pressure Level / dB (re 20 µPa/V)  [2.83  V @ 1. m]"	"Frequency / Hz"	"Sound Pressure Level / dB (re 20 µPa/V)  [2.83  V @ 1. m]"	"Frequency / Hz"	"Sound Pressure Level / dB (re 20 µPa/V)  [2.83  V @ 1. m]"
20.5078	59.397	20.5078	59.3669	20.5078	59.1914	20.5078	59.0958	20.5078	58.7431	20.5078	58.5641	20.5078	58.0334	20.5078	57.7379	20.5078	57.0397	20.5078	56.5724	20.5078	55.7655	20.5078	55.0461	20.5078	54.3565	20.5078	53.3225	20.5078	53.3904	20.5078	52.2395	20.5078	53.8332	20.5078	53.1181	20.5078	55.6754	20.5078	55.4713	20.5078	57.9394	20.5078	57.978	20.5078	60.0406	20.5078	60.1571	20.5078	61.8253	20.5078	61.9527	20.5078	63.2824	20.5078	63.3959	20.5078	64.429	20.5078	64.5199	20.5078	65.2813	20.5078	65.3468	20.5078	65.8496	20.5078	65.889	20.5078	66.1392	20.5078	66.1524
21.9727	59.5617	21.9727	59.4128	21.9727	59.5326	21.9727	59.0866	21.9727	59.3334	21.9727	58.598	21.9727	58.9844	21.9727	57.9962	21.9727	58.5349	21.9727	57.4069	21.9727	58.0923	21.9727	57.08	21.9727	57.8534	21.9727	57.3336	21.9727	58.069	21.9727	58.294	21.9727	58.8747	21.9727	59.7494	21.9727	60.1532	21.9727	61.3772	21.9727	61.6487	21.9727	62.9581	21.9727	63.1476	21.9727	64.3873	21.9727	64.528	21.9727	65.6222	21.9727	65.7313	21.9727	66.646	21.9727	66.7313	21.9727	67.4514	21.9727	67.5152	21.9727	68.0335	21.9727	68.0763	21.9727	68.3887	21.9727	68.4102	21.9727	68.5146
23.4375	60.4786	23.4375	60.4045	23.4375	60.3702	23.4375	60.1478	23.4375	60.087	23.4375	59.7195	23.4375	59.6514	23.4375	59.158	23.4375	59.1212	23.4375	58.565	23.4375	58.6277	23.4375	58.1552	23.4375	58.4098	23.4375	58.241	23.4375	58.7442	23.4375	59.0211	23.4375	59.7192	23.4375	60.3635	23.4375	61.1349	23.4375	61.9531	23.4375	62.7031	23.4375	63.541	23.4375	64.2234	23.4375	64.9985	23.4375	65.5952	23.4375	66.2708	23.4375	66.7748	23.4375	67.336	23.4375	67.7437	23.4375	68.1842	23.4375	68.4928	23.4375	68.8095	23.4375	69.0168	23.4375	69.2077	23.4375	69.3118	23.4375	69.3756
24.9023	62.7831	24.9023	62.7066	24.9023	62.7431	24.9023	62.5185	24.9023	62.5947	24.9023	62.2404	24.9023	62.363	24.9023	61.9203	24.9023	62.0991	24.9023	61.6463	24.9023	61.8928	24.9023	61.5529	24.9023	61.8742	24.9023	61.7875	24.9023	62.1766	24.9023	62.4268	24.9023	62.8588	24.9023	63.4158	24.9023	63.8578	24.9023	64.6082	24.9023	65.0333	24.9023	65.8545	24.9023	66.2459	24.9023	67.0478	24.9023	67.396	24.9023	68.1231	24.9023	68.4224	24.9023	69.0431	24.9023	69.2889	24.9023	69.7851	24.9023	69.9735	24.9023	70.3344	24.9023	70.4623	24.9023	70.6813	24.9023	70.7459	24.9023	70.8193
26.3672	64.874	26.3672	64.8185	26.3672	64.8597	26.3672	64.7009	26.3672	64.7792	26.3672	64.5421	26.3672	64.6486	26.3672	64.38	26.3672	64.4998	26.3672	64.2719	26.3672	64.3854	26.3672	64.2924	26.3672	64.3786	26.3672	64.515	26.3672	64.5607	26.3672	64.9827	26.3672	64.9904	26.3672	65.6826	26.3672	65.67	26.3672	66.5516	26.3672	66.5407	26.3672	67.5041	26.3672	67.5105	26.3672	68.46	26.3672	68.4883	26.3672	69.3557	26.3672	69.4016	26.3672	70.1444	26.3672	70.1989	26.3672	70.7928	26.3672	70.8453	26.3672	71.2765	26.3672	71.3175	26.3672	71.5787	26.3672	71.601	26.3672	71.6885
27.832	65.6138	27.832	65.5869	27.832	65.5519	27.832	65.4771	27.832	65.4082	27.832	65.3038	27.832	65.2051	27.832	65.1054	27.832	64.9869	27.832	64.945	27.832	64.8274	27.832	64.9113	27.832	64.8276	27.832	65.1006	27.832	65.0886	27.832	65.576	27.832	65.66	27.832	66.3282	27.832	66.505	27.832	67.2788	27.832	67.5221	27.832	68.3216	27.832	68.597	27.832	69.3607	27.832	69.6376	27.832	70.3253	27.832	70.5809	27.832	71.1677	27.832	71.3861	27.832	71.8563	27.832	72.0273	27.832	72.3703	27.832	72.4874	27.832	72.6961	27.832	72.7554	27.832	72.8255
29.2969	67.0814	29.2969	67.0459	29.2969	67.0599	29.2969	66.9583	29.2969	66.9891	29.2969	66.8371	29.2969	66.8911	29.2969	66.7168	29.2969	66.8045	29.2969	66.6505	29.2969	66.7858	29.2969	66.7058	29.2969	66.9022	29.2969	66.9497	29.2969	67.2135	29.2969	67.4216	29.2969	67.7451	29.2969	68.1112	29.2969	68.4734	29.2969	68.961	29.2969	69.3353	29.2969	69.8913	29.2969	70.2533	29.2969	70.8252	29.2969	71.1563	29.2969	71.7007	29.2969	71.9887	29.2969	72.4726	29.2969	72.7096	29.2969	73.1086	29.2969	73.2898	29.2969	73.5865	29.2969	73.7088	29.2969	73.8915	29.2969	73.9531	29.2969	74.0147
30.7617	68.3492	30.7617	68.3396	30.7617	68.3211	30.7617	68.2978	30.7617	68.2614	30.7617	68.2409	30.7617	68.1882	30.7617	68.1991	30.7617	68.1332	30.7617	68.2152	30.7617	68.1411	30.7617	68.3396	30.7617	68.2647	30.7617	68.6181	30.7617	68.5519	30.7617	69.0746	30.7617	69.0266	30.7617	69.6991	30.7617	69.6754	30.7617	70.4496	30.7617	70.4514	30.7617	71.2666	30.7617	71.2903	30.7617	72.0892	30.7617	72.1281	30.7617	72.8648	30.7617	72.911	30.7617	73.5516	30.7617	73.5978	30.7617	74.1181	30.7617	74.1581	30.7617	74.5412	30.7617	74.5704	30.7617	74.8047	30.7617	74.82	30.7617	74.8988
32.2266	70.3911	32.2266	70.3948	32.2266	70.3647	32.2266	70.3791	32.2266	70.3222	32.2266	70.3575	32.2266	70.2801	32.2266	70.3531	32.2266	70.2657	32.2266	70.3985	32.2266	70.315	32.2266	70.5309	32.2266	70.4675	32.2266	70.785	32.2266	70.7566	32.2266	71.1814	32.2266	71.1973	32.2266	71.7175	32.2266	71.7787	32.2266	72.3664	32.2266	72.4661	32.2266	73.0845	32.2266	73.2105	32.2266	73.8218	32.2266	73.9599	32.2266	74.5307	32.2266	74.6672	32.2266	75.17	32.2266	75.2931	32.2266	75.7062	32.2266	75.8066	32.2266	76.1134	32.2266	76.1841	32.2266	76.373	32.2266	76.4095	32.2266	76.4732
33.6914	71.6221	33.6914	71.6246	33.6914	71.6092	33.6914	71.6194	33.6914	71.5916	33.6914	71.618	33.6914	71.5838	33.6914	71.6398	33.6914	71.6083	33.6914	71.711	33.6914	71.6943	33.6914	71.8614	33.6914	71.8724	33.6914	72.1176	33.6914	72.1677	33.6914	72.4951	33.6914	72.5906	33.6914	72.9918	33.6914	73.1315	33.6914	73.5869	33.6914	73.7621	33.6914	74.2452	33.6914	74.442	33.6914	74.9244	33.6914	75.1271	33.6914	75.5824	33.6914	75.7753	33.6914	76.1805	33.6914	76.3506	33.6914	76.6863	33.6914	76.8229	33.6914	77.0741	33.6914	77.1694	33.6914	77.3246	33.6914	77.3736	33.6914	77.4261
35.1562	72.7811	35.1562	72.7703	35.1562	72.7885	35.1562	72.7591	35.1562	72.7973	35.1562	72.7577	35.1562	72.8192	35.1562	72.7835	35.1562	72.8729	35.1562	72.8599	35.1562	72.9815	35.1562	73.0124	35.1562	73.1695	35.1562	73.2637	35.1562	73.4569	35.1562	73.627	35.1562	73.8526	35.1562	74.1001	35.1562	74.3501	35.1562	74.6641	35.1562	74.9277	35.1562	75.2876	35.1562	75.5522	35.1562	75.9321	35.1562	76.1851	35.1562	76.5582	35.1562	76.7882	35.1562	77.1294	35.1562	77.3263	35.1562	77.6144	35.1562	77.7699	35.1562	77.988	35.1562	78.0954	35.1562	78.2312	35.1562	78.2861	35.1562	78.3322
36.6211	74.0145	36.6211	74.0119	36.6211	74.0233	36.6211	74.0177	36.6211	74.0418	36.6211	74.0402	36.6211	74.0795	36.6211	74.0925	36.6211	74.1507	36.6211	74.1921	36.6211	74.273	36.6211	74.3575	36.6211	74.4648	36.6211	74.6049	36.6211	74.7407	36.6211	74.9435	36.6211	75.1068	36.6211	75.3714	36.6211	75.5582	36.6211	75.8748	36.6211	76.0776	36.6211	76.4294	36.6211	76.6384	36.6211	77.0042	36.6211	77.2086	36.6211	77.5654	36.6211	77.7546	36.6211	78.0806	36.6211	78.2447	36.6211	78.5204	36.6211	78.6512	36.6211	78.8603	36.6211	78.9512	36.6211	79.0817	36.6211	79.1283	36.6211	79.1727
38.0859	75.3193	38.0859	75.3142	38.0859	75.3356	38.0859	75.3224	38.0859	75.3657	38.0859	75.3505	38.0859	75.4163	38.0859	75.4093	38.0859	75.4983	38.0859	75.5124	38.0859	75.6249	38.0859	75.6742	38.0859	75.8101	38.0859	75.9072	38.0859	76.0649	38.0859	76.2187	38.0859	76.395	38.0859	76.6075	38.0859	76.7974	38.0859	77.063	38.0859	77.2597	38.0859	77.5654	38.0859	77.7612	38.0859	78.0884	38.0859	78.2751	38.0859	78.6021	38.0859	78.7719	38.0859	79.0765	38.0859	79.2222	38.0859	79.4834	38.0859	79.5988	38.0859	79.7991	38.0859	79.879	38.0859	80.0048	38.0859	80.0457	38.0859	80.0885
39.5508	76.4403	39.5508	76.4407	39.5508	76.454	39.5508	76.4569	39.5508	76.4838	39.5508	76.494	39.5508	76.5351	39.5508	76.5602	39.5508	76.616	39.5508	76.6659	39.5508	76.7369	39.5508	76.822	39.5508	76.9087	39.5508	77.0381	39.5508	77.1403	39.5508	77.32	39.5508	77.4368	39.5508	77.6674	39.5508	77.7965	39.5508	78.0725	39.5508	78.2105	39.5508	78.52	39.5508	78.6621	39.5508	78.9884	39.5508	79.1287	39.5508	79.4519	39.5508	79.5838	39.5508	79.8832	39.5508	79.9999	39.5508	80.2559	39.5508	80.3507	39.5508	80.5465	39.5508	80.6134	39.5508	80.7362	39.5508	80.7709	39.5508	80.8127
41.0156	77.2806	41.0156	77.2846	41.0156	77.2922	41.0156	77.3053	41.0156	77.3211	41.0156	77.347	41.0156	77.3719	41.0156	77.416	41.0156	77.4513	41.0156	77.5206	41.0156	77.5678	41.0156	77.6698	41.0156	77.7305	41.0156	77.8714	41.0156	77.9469	41.0156	78.1305	41.0156	78.2216	41.0156	78.4474	41.0156	78.5536	41.0156	78.8161	41.0156	78.9356	41.0156	79.2243	41.0156	79.3534	41.0156	79.6535	41.0156	79.7868	41.0156	80.0808	41.0156	80.2112	41.0156	80.4814	41.0156	80.6006	41.0156	80.8301	41.0156	80.9294	41.0156	81.1042	41.0156	81.1756	41.0156	81.2849	41.0156	81.3223	41.0156	81.3595
42.4805	78.2765	42.4805	78.2771	42.4805	78.2939	42.4805	78.2966	42.4805	78.3306	42.4805	78.3382	42.4805	78.3898	42.4805	78.4068	42.4805	78.4766	42.4805	78.5086	42.4805	78.5972	42.4805	78.6504	42.4805	78.7582	42.4805	78.838	42.4805	78.9652	42.4805	79.0755	42.4805	79.2211	42.4805	79.3629	42.4805	79.525	42.4805	79.6958	42.4805	79.8708	42.4805	80.0641	42.4805	80.2468	42.4805	80.4526	42.4805	80.6358	42.4805	80.8417	42.4805	81.0167	42.4805	81.2091	42.4805	81.3662	42.4805	81.532	42.4805	81.661	42.4805	81.7886	42.4805	81.8806	42.4805	81.9609	42.4805	82.0088	42.4805	82.0362
43.9453	79.0885	43.9453	79.0927	43.9453	79.1026	43.9453	79.1159	43.9453	79.1362	43.9453	79.1605	43.9453	79.1917	43.9453	79.2301	43.9453	79.2732	43.9453	79.3295	43.9453	79.3856	43.9453	79.4639	43.9453	79.534	43.9453	79.6379	43.9453	79.7232	43.9453	79.8548	43.9453	79.9559	43.9453	80.115	43.9453	80.2316	43.9453	80.4151	43.9453	80.5457	43.9453	80.7468	43.9453	80.8881	43.9453	81.0975	43.9453	81.2441	43.9453	81.4503	43.9453	81.5943	43.9453	81.785	43.9453	81.9174	43.9453	82.0805	43.9453	82.1912	43.9453	82.3162	43.9453	82.3961	43.9453	82.4746	43.9453	82.5165	43.9453	82.5433
45.4102	79.8851	45.4102	79.8917	45.4102	79.8972	45.4102	79.9174	45.4102	79.9288	45.4102	79.9638	45.4102	79.9819	45.4102	80.0335	45.4102	80.0595	45.4102	80.1302	45.4102	80.1656	45.4102	80.2576	45.4102	80.3043	45.4102	80.4194	45.4102	80.4791	45.4102	80.6182	45.4102	80.6922	45.4102	80.8544	45.4102	80.9433	45.4102	81.1255	45.4102	81.2282	45.4102	81.4248	45.4102	81.5385	45.4102	81.7416	45.4102	81.8613	45.4102	82.061	45.4102	82.1798	45.4102	82.365	45.4102	82.4746	45.4102	82.6339	45.4102	82.7258	45.4102	82.8485	45.4102	82.9148	45.4102	82.9922	45.4102	83.0269	45.4102	83.0534
46.875	80.4769	46.875	80.4852	46.875	80.4891	46.875	80.5142	46.875	80.5224	46.875	80.5649	46.875	80.5785	46.875	80.6391	46.875	80.6595	46.875	80.7391	46.875	80.768	46.875	80.8673	46.875	80.9065	46.875	81.0262	46.875	81.0775	46.875	81.2172	46.875	81.2818	46.875	81.4402	46.875	81.5185	46.875	81.6927	46.875	81.7839	46.875	81.9694	46.875	82.0706	46.875	82.2609	46.875	82.3677	46.875	82.5544	46.875	82.6605	46.875	82.8337	46.875	82.9318	46.875	83.0811	46.875	83.1633	46.875	83.2786	46.875	83.338	46.875	83.4109	46.875	83.442	46.875	83.467
48.3398	81.0602	48.3398	81.067	48.3398	81.075	48.3398	81.0954	48.3398	81.1119	48.3398	81.1461	48.3398	81.1717	48.3398	81.22	48.3398	81.2556	48.3398	81.3183	48.3398	81.3648	48.3398	81.4426	48.3398	81.5009	48.3398	81.5941	48.3398	81.6648	48.3398	81.7736	48.3398	81.8569	48.3398	81.9808	48.3398	82.0758	48.3398	82.2135	48.3398	82.3184	48.3398	82.4671	48.3398	82.5787	48.3398	82.7335	48.3398	82.8472	48.3398	83.0015	48.3398	83.1116	48.3398	83.2567	48.3398	83.3566	48.3398	83.4831	48.3398	83.5659	48.3398	83.6644	48.3398	83.7237	48.3398	83.7864	48.3398	83.8174	48.3398	83.8389
51.2695	82.1513	51.2695	82.1597	51.2695	82.1651	51.2695	82.1902	51.2695	82.2011	51.2695	82.2425	51.2695	82.2593	51.2695	82.3164	51.2695	82.3395	51.2695	82.4116	51.2695	82.4417	51.2695	82.528	51.2695	82.5658	51.2695	82.6652	51.2695	82.7116	51.2695	82.8229	51.2695	82.8783	51.2695	83.0002	51.2695	83.0648	51.2695	83.1953	51.2695	83.2687	51.2695	83.405	51.2695	83.4856	51.2695	83.6236	51.2695	83.7088	51.2695	83.8433	51.2695	83.9289	51.2695	84.0534	51.2695	84.1337	51.2695	84.2409	51.2695	84.3096	51.2695	84.3924	51.2695	84.4428	51.2695	84.4952	51.2695	84.5219	51.2695	84.5399
52.7344	82.5729	52.7344	82.5822	52.7344	82.5856	52.7344	82.6134	52.7344	82.6206	52.7344	82.6659	52.7344	82.6774	52.7344	82.7389	52.7344	82.7556	52.7344	82.8317	52.7344	82.8546	52.7344	82.9432	52.7344	82.9735	52.7344	83.0726	52.7344	83.1114	52.7344	83.2189	52.7344	83.2673	52.7344	83.381	52.7344	83.4395	52.7344	83.5572	52.7344	83.6258	52.7344	83.7448	52.7344	83.8224	52.7344	83.9395	52.7344	84.0236	52.7344	84.1349	52.7344	84.2212	52.7344	84.3222	52.7344	84.4047	52.7344	84.4905	52.7344	84.5619	52.7344	84.6276	52.7344	84.6805	52.7344	84.7218	52.7344	84.75	52.7344	84.7641
54.1992	82.9311	54.1992	82.9385	54.1992	82.9453	54.1992	82.9672	54.1992	82.981	54.1992	83.0166	54.1992	83.0377	54.1992	83.0854	54.1992	83.1145	54.1992	83.1726	54.1992	83.2101	54.1992	83.2768	54.1992	83.3235	54.1992	83.3967	54.1992	83.4532	54.1992	83.5312	54.1992	83.5979	54.1992	83.6789	54.1992	83.7561	54.1992	83.8385	54.1992	83.9258	54.1992	84.0079	54.1992	84.1039	54.1992	84.1839	54.1992	84.2856	54.1992	84.3612	54.1992	84.4638	54.1992	84.5324	54.1992	84.6292	54.1992	84.6877	54.1992	84.7705	54.1992	84.8157	54.1992	84.8765	54.1992	84.9051	54.1992	84.9374	54.1992	84.9472
55.6641	83.2288	55.6641	83.2363	55.6641	83.2434	55.6641	83.2657	55.6641	83.2802	55.6641	83.316	55.6641	83.3382	55.6641	83.3857	55.6641	83.4162	55.6641	83.473	55.6641	83.5126	55.6641	83.5762	55.6641	83.6256	55.6641	83.6934	55.6641	83.7533	55.6641	83.8229	55.6641	83.8936	55.6641	83.9632	55.6641	84.0447	55.6641	84.1128	55.6641	84.2042	55.6641	84.2696	55.6641	84.3692	55.6641	84.431	55.6641	84.5352	55.6641	84.5925	55.6641	84.6964	55.6641	84.7477	55.6641	84.8445	55.6641	84.8882	55.6641	84.9703	55.6641	85.0041	55.6641	85.0639	55.6641	85.0854	55.6641	85.1169	55.6641	85.1243
58.5938	83.9119	58.5938	83.9204	58.5938	83.9262	58.5938	83.9509	58.5938	83.9629	58.5938	84.0021	58.5938	84.0209	58.5938	84.072	58.5938	84.0984	58.5938	84.1581	58.5938	84.193	58.5938	84.2578	58.5938	84.3018	58.5938	84.3685	58.5938	84.4219	58.5938	84.4877	58.5938	84.5505	58.5938	84.6131	58.5938	84.6848	58.5938	84.743	58.5938	84.8224	58.5938	84.8754	58.5938	84.9605	58.5938	85.0082	58.5938	85.096	58.5938	85.1384	58.5938	85.2246	58.5938	85.2617	58.5938	85.3411	58.5938	85.3722	58.5938	85.4389	58.5938	85.4628	58.5938	85.5111	58.5938	85.5263	58.5938	85.5517	58.5938	85.557
60.0586	84.1979	60.0586	84.206	60.0586	84.2123	60.0586	84.2362	60.0586	84.2488	60.0586	84.2872	60.0586	84.3059	60.0586	84.357	60.0586	84.3814	60.0586	84.4427	60.0586	84.4727	60.0586	84.5413	60.0586	84.5765	60.0586	84.6497	60.0586	84.6898	60.0586	84.7647	60.0586	84.8094	60.0586	84.8837	60.0586	84.9327	60.0586	85.0043	60.0586	85.057	60.0586	85.1246	60.0586	85.1801	60.0586	85.2428	60.0586	85.2995	60.0586	85.3564	60.0586	85.412	60.0586	85.4623	60.0586	85.5135	60.0586	85.5558	60.0586	85.5991	60.0586	85.6315	60.0586	85.663	60.0586	85.6835	60.0586	85.7001	60.0586	85.7072
62.9883	84.5537	62.9883	84.5567	62.9883	84.5724	62.9883	84.5812	62.9883	84.6122	62.9883	84.6256	62.9883	84.6713	62.9883	84.6878	62.9883	84.747	62.9883	84.7645	62.9883	84.836	62.9883	84.8523	62.9883	84.9346	62.9883	84.9475	62.9883	85.039	62.9883	85.0468	62.9883	85.1455	62.9883	85.147	62.9883	85.251	62.9883	85.2458	62.9883	85.3528	62.9883	85.3416	62.9883	85.4488	62.9883	85.4331	62.9883	85.5376	62.9883	85.5194	62.9883	85.6174	62.9883	85.5991	62.9883	85.6863	62.9883	85.67	62.9883	85.7416	62.9883	85.729	62.9883	85.7801	62.9883	85.7722	62.9883	85.7989	62.9883	85.7962
64.4531	84.7104	64.4531	84.7119	64.4531	84.7304	64.4531	84.7347	64.4531	84.7713	64.4531	84.7774	64.4531	84.8312	64.4531	84.8375	64.4531	84.9071	64.4531	84.9119	64.4531	84.9956	64.4531	84.997	64.4531	85.0928	64.4531	85.089	64.4531	85.1945	64.4531	85.1841	64.4531	85.297	64.4531	85.2791	64.4531	85.397	64.4531	85.3717	64.4531	85.4917	64.4531	85.4602	64.4531	85.5794	64.4531	85.5436	64.4531	85.6587	64.4531	85.6213	64.4531	85.7285	64.4531	85.6926	64.4531	85.7874	64.4531	85.756	64.4531	85.8334	64.4531	85.8091	64.4531	85.8641	64.4531	85.8489	64.4531	85.8775	64.4531	85.8723
67.3828	85.0647	67.3828	85.0592	67.3828	85.0911	67.3828	85.0747	67.3828	85.1375	67.3828	85.1097	67.3828	85.2015	67.3828	85.1619	67.3828	85.2799	67.3828	85.2281	67.3828	85.369	67.3828	85.3044	67.3828	85.4641	67.3828	85.3867	67.3828	85.5609	67.3828	85.4709	67.3828	85.655	67.3828	85.5534	67.3828	85.7426	67.3828	85.6315	67.3828	85.8208	67.3828	85.7035	67.3828	85.8879	67.3828	85.7687	67.3828	85.9429	67.3828	85.8271	67.3828	85.9856	67.3828	85.8794	67.3828	86.0163	67.3828	85.9259	67.3828	86.0354	67.3828	85.9663	67.3828	86.043	67.3828	85.9996	67.3828	86.0392	67.3828	86.0244
68.8477	85.2122	68.8477	85.2068	68.8477	85.2389	68.8477	85.2226	68.8477	85.286	68.8477	85.2582	68.8477	85.3513	68.8477	85.3109	68.8477	85.4313	68.8477	85.3774	68.8477	85.522	68.8477	85.4534	68.8477	85.6186	68.8477	85.5347	68.8477	85.7162	68.8477	85.6168	68.8477	85.81	68.8477	85.696	68.8477	85.896	68.8477	85.7693	68.8477	85.9709	68.8477	85.835	68.8477	86.0326	68.8477	85.8926	68.8477	86.0804	68.8477	85.9428	68.8477	86.1145	68.8477	85.9867	68.8477	86.1359	68.8477	86.0258	68.8477	86.1457	68.8477	86.0608	68.8477	86.145	68.8477	86.0914	68.8477	86.135	68.8477	86.1166
71.7773	85.5149	71.7773	85.5101	71.7773	85.5402	71.7773	85.5254	71.7773	85.5851	71.7773	85.5591	71.7773	85.6476	71.7773	85.6086	71.7773	85.7244	71.7773	85.6701	71.7773	85.8113	71.7773	85.7394	71.7773	85.9034	71.7773	85.8119	71.7773	85.9954	71.7773	85.8832	71.7773	86.0822	71.7773	85.9495	71.7773	86.1593	71.7773	86.0078	71.7773	86.223	71.7773	86.0566	71.7773	86.2711	71.7773	86.0962	71.7773	86.3029	71.7773	86.1281	71.7773	86.3193	71.7773	86.1548	71.7773	86.3221	71.7773	86.1791	71.7773	86.3141	71.7773	86.2032	71.7773	86.2982	71.7773	86.2279	71.7773	86.277	71.7773	86.253
74.707	85.79	74.707	85.7898	74.707	85.8108	74.707	85.8097	74.707	85.851	74.707	85.8483	74.707	85.9083	74.707	85.9028	74.707	85.9792	74.707	85.9693	74.707	86.0594	74.707	86.0432	74.707	86.1437	74.707	86.1194	74.707	86.2267	74.707	86.1926	74.707	86.3031	74.707	86.2583	74.707	86.3683	74.707	86.3127	74.707	86.4185	74.707	86.3535	74.707	86.4519	74.707	86.3804	74.707	86.4683	74.707	86.3946	74.707	86.4697	74.707	86.3993	74.707	86.4598	74.707	86.3982	74.707	86.4434	74.707	86.3956	74.707	86.4254	74.707	86.3952	74.707	86.41	74.707	86.3997
77.6367	86.0329	77.6367	86.0328	77.6367	86.0536	77.6367	86.053	77.6367	86.0939	77.6367	86.0919	77.6367	86.1514	77.6367	86.1467	77.6367	86.2227	77.6367	86.2134	77.6367	86.3031	77.6367	86.2872	77.6367	86.3872	77.6367	86.3627	77.6367	86.4691	77.6367	86.4344	77.6367	86.543	77.6367	86.497	77.6367	86.6037	77.6367	86.5466	77.6367	86.6471	77.6367	86.5805	77.6367	86.6711	77.6367	86.5978	77.6367	86.6757	77.6367	86.6002	77.6367	86.6634	77.6367	86.591	77.6367	86.6392	77.6367	86.5754	77.6367	86.6092	77.6367	86.5594	77.6367	86.5805	77.6367	86.5488	77.6367	86.5588	77.6367	86.5479
79.1016	86.1352	79.1016	86.1359	79.1016	86.1544	79.1016	86.1561	79.1016	86.1925	79.1016	86.194	79.1016	86.2473	79.1016	86.2468	79.1016	86.3155	79.1016	86.3107	79.1016	86.3926	79.1016	86.3808	79.1016	86.4732	79.1016	86.4518	79.1016	86.5513	79.1016	86.5183	79.1016	86.6211	79.1016	86.5753	79.1016	86.6771	79.1016	86.6186	79.1016	86.7151	79.1016	86.6456	79.1016	86.733	79.1016	86.6558	79.1016	86.7308	79.1016	86.6507	79.1016	86.7114	79.1016	86.634	79.1016	86.6799	79.1016	86.6114	79.1016	86.6433	79.1016	86.5895	79.1016	86.6092	79.1016	86.5748	79.1016	86.5841	79.1016	86.5723
82.0312	86.399	82.0312	86.3973	82.0312	86.4176	82.0312	86.4123	82.0312	86.4522	82.0312	86.4425	82.0312	86.5007	82.0312	86.4853	82.0312	86.5598	82.0312	86.5371	82.0312	86.6253	82.0312	86.5933	82.0312	86.692	82.0312	86.649	82.0312	86.7543	82.0312	86.6987	82.0312	86.8063	82.0312	86.7374	82.0312	86.8429	82.0312	86.7612	82.0312	86.8601	82.0312	86.7674	82.0312	86.8559	82.0312	86.7557	82.0312	86.8309	82.0312	86.7283	82.0312	86.7884	82.0312	86.6899	82.0312	86.7348	82.0312	86.6476	82.0312	86.6786	82.0312	86.6099	82.0312	86.6288	82.0312	86.5848	82.0312	86.5937	82.0312	86.5785
84.9609	86.5015	84.9609	86.4889	84.9609	86.532	84.9609	86.4943	84.9609	86.5788	84.9609	86.5167	84.9609	86.6392	84.9609	86.5539	84.9609	86.7095	84.9609	86.6022	84.9609	86.7847	84.9609	86.6572	84.9609	86.8593	84.9609	86.7135	84.9609	86.9272	84.9609	86.7654	84.9609	86.9822	84.9609	86.8076	84.9609	87.0192	84.9609	86.8353	84.9609	87.034	84.9609	86.8457	84.9609	87.0249	84.9609	86.8381	84.9609	86.9926	84.9609	86.8143	84.9609	86.9412	84.9609	86.7793	84.9609	86.8777	84.9609	86.7404	84.9609	86.8112	84.9609	86.7064	84.9609	86.7517	84.9609	86.686	84.9609	86.7079	84.9609	86.6855
87.8906	86.8153	87.8906	86.8298	87.8906	86.8167	87.8906	86.8596	87.8906	86.8339	87.8906	86.9025	87.8906	86.8654	87.8906	86.9558	87.8906	86.9084	87.8906	87.0154	87.8906	86.9589	87.8906	87.0766	87.8906	87.0119	87.8906	87.1339	87.8906	87.0613	87.8906	87.1816	87.8906	87.1012	87.8906	87.214	87.8906	87.1257	87.8906	87.2265	87.8906	87.1308	87.8906	87.2162	87.8906	87.1142	87.8906	87.1823	87.8906	87.077	87.8906	87.1275	87.8906	87.0234	87.8906	87.0576	87.8906	86.961	87.8906	86.9818	87.8906	86.9	87.8906	86.9109	87.8906	86.8513	87.8906	86.856	87.8906	86.8246	87.8906	86.8258
90.8203	87.136	90.8203	87.1502	90.8203	87.1349	90.8203	87.1768	90.8203	87.1465	90.8203	87.2138	90.8203	87.1691	90.8203	87.2579	90.8203	87.2001	90.8203	87.305	90.8203	87.2353	90.8203	87.35	90.8203	87.2697	90.8203	87.3872	90.8203	87.2977	90.8203	87.4109	90.8203	87.3137	90.8203	87.4159	90.8203	87.3124	90.8203	87.3986	90.8203	87.2904	90.8203	87.3573	90.8203	87.2463	90.8203	87.2931	90.8203	87.1823	90.8203	87.2103	90.8203	87.1037	90.8203	87.1165	90.8203	87.0193	90.8203	87.0217	90.8203	86.9403	90.8203	86.9374	90.8203	86.8782	90.8203	86.8745	90.8203	86.8433	90.8203	86.8417
95.2148	87.0833	95.2148	87.0927	95.2148	87.0887	95.2148	87.1168	95.2148	87.108	95.2148	87.1544	95.2148	87.1398	95.2148	87.2032	95.2148	87.1815	95.2148	87.2598	95.2148	87.2296	95.2148	87.3192	95.2148	87.2796	95.2148	87.3759	95.2148	87.3265	95.2148	87.4235	95.2148	87.3647	95.2148	87.4559	95.2148	87.3888	95.2148	87.4679	95.2148	87.3945	95.2148	87.4563	95.2148	87.3792	95.2148	87.4205	95.2148	87.3428	95.2148	87.3632	95.2148	87.2888	95.2148	87.2909	95.2148	87.2239	95.2148	87.2134	95.2148	87.1579	95.2148	87.1423	95.2148	87.1024	95.2148	87.0893	95.2148	87.0684	95.2148	87.0633
98.1445	87.2577	98.1445	87.2689	98.1445	87.2609	98.1445	87.294	98.1445	87.2781	98.1445	87.3317	98.1445	87.3078	98.1445	87.3793	98.1445	87.3477	98.1445	87.4332	98.1445	87.3942	98.1445	87.4885	98.1445	87.4427	98.1445	87.5394	98.1445	87.4877	98.1445	87.5797	98.1445	87.5232	98.1445	87.6034	98.1445	87.5436	98.1445	87.6053	98.1445	87.5441	98.1445	87.5825	98.1445	87.5218	98.1445	87.5348	98.1445	87.4768	98.1445	87.4656	98.1445	87.4124	98.1445	87.3824	98.1445	87.3362	98.1445	87.2959	98.1445	87.2588	98.1445	87.2189	98.1445	87.1928	98.1445	87.1638	98.1445	87.1503	98.1445	87.1396
101.074	87.2186	101.074	87.2237	101.074	87.2299	101.074	87.2453	101.074	87.257	101.074	87.2825	101.074	87.2985	101.074	87.3336	101.074	87.3516	101.074	87.3954	101.074	87.4126	101.074	87.4637	101.074	87.4763	101.074	87.5326	101.074	87.5366	101.074	87.5951	101.074	87.5869	101.074	87.6441	101.074	87.6212	101.074	87.6728	101.074	87.6344	101.074	87.6764	101.074	87.6237	101.074	87.6531	101.074	87.5897	101.074	87.6052	101.074	87.5362	101.074	87.5391	101.074	87.471	101.074	87.4648	101.074	87.4049	101.074	87.3948	101.074	87.35	101.074	87.3413	101.074	87.3173	101.074	87.3139
105.469	87.7144	105.469	87.7032	105.469	87.7279	105.469	87.6944	105.469	87.7437	105.469	87.6879	105.469	87.7614	105.469	87.6833	105.469	87.7802	105.469	87.6798	105.469	87.7981	105.469	87.6756	105.469	87.812	105.469	87.668	105.469	87.8175	105.469	87.6533	105.469	87.8092	105.469	87.6275	105.469	87.7813	105.469	87.5863	105.469	87.7287	105.469	87.5264	105.469	87.6487	105.469	87.4463	105.469	87.5417	105.469	87.3476	105.469	87.4132	105.469	87.2363	105.469	87.2739	105.469	87.1231	105.469	87.1391	105.469	87.0232	105.469	87.0264	105.469	86.9532	105.469	86.9522	105.469	86.9271
108.398	87.9881	108.398	87.9878	108.398	87.9934	108.398	87.9923	108.398	88.0035	108.398	88.0009	108.398	88.0177	108.398	88.0119	108.398	88.0343	108.398	88.0227	108.398	88.051	108.398	88.0298	108.398	88.0639	108.398	88.0283	108.398	88.0683	108.398	88.0129	108.398	88.0584	108.398	87.9783	108.398	88.0285	108.398	87.9202	108.398	87.9737	108.398	87.8364	108.398	87.8916	108.398	87.7281	108.398	87.7828	108.398	87.6005	108.398	87.6527	108.398	87.4639	108.398	87.5111	108.398	87.3327	108.398	87.3722	108.398	87.2241	108.398	87.253	108.398	87.1544	108.398	87.1697	108.398	87.1351
112.793	88.0653	112.793	88.0682	112.793	88.0654	112.793	88.0742	112.793	88.0682	112.793	88.0836	112.793	88.0734	112.793	88.096	112.793	88.0804	112.793	88.11	112.793	88.0878	112.793	88.1229	112.793	88.093	112.793	88.1307	112.793	88.0922	112.793	88.128	112.793	88.0805	112.793	88.1088	112.793	88.0524	112.793	88.0677	112.793	88.0032	112.793	88.0008	112.793	87.9301	112.793	87.9075	112.793	87.8334	112.793	87.7917	112.793	87.7181	112.793	87.662	112.793	87.5938	112.793	87.5321	112.793	87.4746	112.793	87.4184	112.793	87.3766	112.793	87.3372	112.793	87.3152	112.793	87.301
117.188	88.2043	117.188	88.2091	117.188	88.2004	117.188	88.2152	117.188	88.197	117.188	88.2226	117.188	88.1935	117.188	88.2305	117.188	88.1889	117.188	88.2375	117.188	88.1814	117.188	88.2406	117.188	88.1682	117.188	88.2356	117.188	88.1453	117.188	88.2172	117.188	88.1079	117.188	88.1796	117.188	88.051	117.188	88.1174	117.188	87.9706	117.188	88.0271	117.188	87.8649	117.188	87.9081	117.188	87.7359	117.188	87.7645	117.188	87.5906	117.188	87.6055	117.188	87.4413	117.188	87.4456	117.188	87.3045	117.188	87.3026	117.188	87.1985	117.188	87.195	117.188	87.1395	117.188	87.138
120.117	88.283	120.117	88.2932	120.117	88.2722	120.117	88.3027	120.117	88.261	120.117	88.3113	120.117	88.2491	120.117	88.3179	120.117	88.2361	120.117	88.321	120.117	88.2203	120.117	88.3176	120.117	88.1993	120.117	88.3037	120.117	88.169	120.117	88.2741	120.117	88.1248	120.117	88.2236	120.117	88.0615	120.117	88.1472	120.117	87.975	120.117	88.0421	120.117	87.8636	120.117	87.9087	120.117	87.7293	120.117	87.7518	120.117	87.5789	120.117	87.5816	120.117	87.4246	120.117	87.4134	120.117	87.2827	120.117	87.2655	120.117	87.1714	120.117	87.1567	120.117	87.1074	120.117	87.1017
124.512	88.2913	124.512	88.3029	124.512	88.281	124.512	88.3154	124.512	88.2721	124.512	88.3282	124.512	88.2644	124.512	88.3398	124.512	88.257	124.512	88.3481	124.512	88.2479	124.512	88.3497	124.512	88.2341	124.512	88.34	124.512	88.2109	124.512	88.3137	124.512	88.1728	124.512	88.2653	124.512	88.1143	124.512	88.1904	124.512	88.0307	124.512	88.0863	124.512	87.9204	124.512	87.954	124.512	87.7858	124.512	87.7987	124.512	87.6345	124.512	87.6308	124.512	87.4792	124.512	87.4652	124.512	87.3371	124.512	87.3199	124.512	87.2265	124.512	87.2129	124.512	87.1635	124.512	87.1583
128.906	88.2618	128.906	88.268	128.906	88.2585	128.906	88.2775	128.906	88.2573	128.906	88.2909	128.906	88.258	128.906	88.3079	128.906	88.26	128.906	88.3268	128.906	88.2617	128.906	88.3443	128.906	88.2604	128.906	88.3551	128.906	88.2519	128.906	88.3527	128.906	88.231	128.906	88.3302	128.906	88.1919	128.906	88.2816	128.906	88.1301	128.906	88.2033	128.906	88.0433	128.906	88.0953	128.906	87.9333	128.906	87.9628	128.906	87.8065	128.906	87.8157	128.906	87.6743	128.906	87.6687	128.906	87.5517	128.906	87.5391	128.906	87.4553	128.906	87.4436	128.906	87.3999	128.906	87.3953
133.301	88.3739	133.301	88.3819	133.301	88.3641	133.301	88.3892	133.301	88.3525	133.301	88.3972	133.301	88.3394	133.301	88.4069	133.301	88.3255	133.301	88.4183	133.301	88.3108	133.301	88.4294	133.301	88.2941	133.301	88.4359	133.301	88.2728	133.301	88.4316	133.301	88.2426	133.301	88.4095	133.301	88.1984	133.301	88.3627	133.301	88.1356	133.301	88.287	133.301	88.0517	133.301	88.1817	133.301	87.9476	133.301	88.0508	133.301	87.8286	133.301	87.904	133.301	87.7053	133.301	87.7553	133.301	87.5922	133.301	87.6217	133.301	87.5054	133.301	87.5202	133.301	87.4596	133.301	87.4639
139.16	88.3918	139.16	88.3813	139.16	88.3943	139.16	88.3651	139.16	88.3882	139.16	88.3462	139.16	88.3736	139.16	88.3279	139.16	88.3513	139.16	88.3127	139.16	88.3219	139.16	88.3011	139.16	88.2849	139.16	88.2907	139.16	88.2384	139.16	88.2764	139.16	88.1793	139.16	88.2509	139.16	88.1037	139.16	88.2064	139.16	88.0085	139.16	88.1367	139.16	87.8929	139.16	88.0386	139.16	87.76	139.16	87.9137	139.16	87.6182	139.16	87.7692	139.16	87.4805	139.16	87.617	139.16	87.3633	139.16	87.473	139.16	87.2832	139.16	87.3547	139.16	87.2529	139.16	87.2777
143.555	88.3898	143.555	88.36	143.555	88.4105	143.555	88.323	143.555	88.4216	143.555	88.2816	143.555	88.4236	143.555	88.2391	143.555	88.4173	143.555	88.1985	143.555	88.4028	143.555	88.1613	143.555	88.3794	143.555	88.1262	143.555	88.3444	143.555	88.0897	143.555	88.2941	143.555	88.0461	143.555	88.2243	143.555	87.9891	143.555	88.1314	143.555	87.9137	143.555	88.0143	143.555	87.8181	143.555	87.8758	143.555	87.7047	143.555	87.7233	143.555	87.5808	143.555	87.5691	143.555	87.4578	143.555	87.4289	143.555	87.3502	143.555	87.3191	143.555	87.2725	143.555	87.2529	143.555	87.2376
147.949	88.398	147.949	88.3717	147.949	88.4113	147.949	88.3334	147.949	88.412	147.949	88.2858	147.949	88.4017	147.949	88.2323	147.949	88.3821	147.949	88.1763	147.949	88.3544	147.949	88.1201	147.949	88.3184	147.949	88.064	147.949	88.2717	147.949	88.0056	147.949	88.2102	147.949	87.9405	147.949	88.129	147.949	87.8633	147.949	88.0242	147.949	87.7697	147.949	87.8943	147.949	87.6581	147.949	87.742	147.949	87.5314	147.949	87.5754	147.949	87.3969	147.949	87.4077	147.949	87.2664	147.949	87.2553	147.949	87.1541	147.949	87.1353	147.949	87.0751	147.949	87.0617	147.949	87.0418
153.809	88.4067	153.809	88.3883	153.809	88.4124	153.809	88.3585	153.809	88.4048	153.809	88.3192	153.809	88.3845	153.809	88.2726	153.809	88.3521	153.809	88.2202	153.809	88.3082	153.809	88.1625	153.809	88.2527	153.809	88.0987	153.809	88.1839	153.809	88.0263	153.809	88.099	153.809	87.9417	153.809	87.9948	153.809	87.8413	153.809	87.8691	153.809	87.7226	153.809	87.7221	153.809	87.5857	153.809	87.5579	153.809	87.4348	153.809	87.3849	153.809	87.2786	153.809	87.2159	153.809	87.1296	153.809	87.0663	153.809	87.0027	153.809	86.9513	153.809	86.9125	153.809	86.8838	153.809	86.8707
159.668	88.3267	159.668	88.3109	159.668	88.3329	159.668	88.2871	159.668	88.3295	159.668	88.2582	159.668	88.3177	159.668	88.227	159.668	88.2997	159.668	88.1953	159.668	88.2771	159.668	88.163	159.668	88.2503	159.668	88.1271	159.668	88.2174	159.668	88.0828	159.668	88.174	159.668	88.0245	159.668	88.1145	159.668	87.9475	159.668	88.0332	159.668	87.8501	159.668	87.9273	159.668	87.7345	159.668	87.7987	159.668	87.6075	159.668	87.6549	159.668	87.4793	159.668	87.5088	159.668	87.3618	159.668	87.3759	159.668	87.2669	159.668	87.2709	159.668	87.2047	159.668	87.2047	159.668	87.1826
165.527	88.2405	165.527	88.1841	165.527	88.2749	165.527	88.1093	165.527	88.288	165.527	88.0235	165.527	88.2839	165.527	87.9371	165.527	88.2684	165.527	87.8611	165.527	88.248	165.527	87.8037	165.527	88.2271	165.527	87.7685	165.527	88.2073	165.527	87.7523	165.527	88.186	165.527	87.7465	165.527	88.1577	165.527	87.7402	165.527	88.1158	165.527	87.7236	165.527	88.0552	165.527	87.6917	165.527	87.9745	165.527	87.6454	165.527	87.8779	165.527	87.5918	165.527	87.7741	165.527	87.5407	165.527	87.6746	165.527	87.5025	165.527	87.59	165.527	87.4849	165.527	87.528	165.527	87.4928
171.387	88.493	171.387	88.4578	171.387	88.497	171.387	88.39	171.387	88.4737	171.387	88.2914	171.387	88.4288	171.387	88.1671	171.387	88.3691	171.387	88.025	171.387	88.3006	171.387	87.875	171.387	88.2275	171.387	87.7268	171.387	88.1507	171.387	87.5883	171.387	88.0678	171.387	87.4633	171.387	87.974	171.387	87.3517	171.387	87.8637	171.387	87.2505	171.387	87.7341	171.387	87.1569	171.387	87.5866	171.387	87.0701	171.387	87.4283	171.387	86.9925	171.387	87.2709	171.387	86.929	171.387	87.1281	171.387	86.8857	171.387	87.0116	171.387	86.8681	171.387	86.9285	171.387	86.8812
177.246	87.8417	177.246	87.8148	177.246	87.8537	177.246	87.7736	177.246	87.8519	177.246	87.7201	177.246	87.8386	177.246	87.657	177.246	87.8161	177.246	87.5865	177.246	87.7858	177.246	87.5097	177.246	87.7468	177.246	87.4263	177.246	87.6954	177.246	87.3347	177.246	87.6258	177.246	87.2325	177.246	87.5315	177.246	87.1175	177.246	87.4076	177.246	86.9893	177.246	87.2534	177.246	86.8502	177.246	87.0748	177.246	86.7065	177.246	86.8841	177.246	86.5679	177.246	86.6985	177.246	86.4465	177.246	86.5354	177.246	86.3541	177.246	86.4085	177.246	86.2999	177.246	86.3256	177.246	86.2895
183.105	87.6403	183.105	87.6393	183.105	87.6055	183.105	87.603	183.105	87.5401	183.105	87.5372	183.105	87.4553	183.105	87.4515	183.105	87.3671	183.105	87.3575	183.105	87.2932	183.105	87.266	183.105	87.2486	183.105	87.185	183.105	87.24	183.105	87.1171	183.105	87.2631	183.105	87.061	183.105	87.3033	183.105	87.0125	183.105	87.341	183.105	86.969	183.105	87.3581	183.105	86.9304	183.105	87.3436	183.105	86.8997	183.105	87.2965	183.105	86.881	183.105	87.225	183.105	86.8768	183.105	87.1431	183.105	86.887	183.105	87.0645	183.105	86.9107	183.105	86.9983	183.105	86.9473
188.965	88.0517	188.965	88.0416	188.965	88.0118	188.965	87.9839	188.965	87.9231	188.965	87.8846	188.965	87.7904	188.965	87.7536	188.965	87.6223	188.965	87.6043	188.965	87.4304	188.965	87.4517	188.965	87.2296	188.965	87.3103	188.965	87.036	188.965	87.1906	188.965	86.8648	188.965	87.0955	188.965	86.7272	188.965	87.02	188.965	86.6269	188.965	86.954	188.965	86.5604	188.965	86.8874	188.965	86.519	188.965	86.8148	188.965	86.4931	188.965	86.7376	188.965	86.4765	188.965	86.6617	188.965	86.4671	188.965	86.5942	188.965	86.4665	188.965	86.54	188.965	86.477	188.965	86.501
196.289	88.1051	196.289	88.0789	196.289	88.0793	196.289	88.0022	196.289	88.0034	196.289	87.8795	196.289	87.8824	196.289	87.7179	196.289	87.7243	196.289	87.5262	196.289	87.5392	196.289	87.3144	196.289	87.3383	196.289	87.0937	196.289	87.1329	196.289	86.8769	196.289	86.9331	196.289	86.6787	196.289	86.748	196.289	86.5144	196.289	86.5857	196.289	86.3952	196.289	86.4531	196.289	86.3247	196.289	86.3552	196.289	86.2962	196.289	86.2928	196.289	86.2953	196.289	86.2623	196.289	86.3055	196.289	86.2564	196.289	86.3135	196.289	86.2662	196.289	86.3122	196.289	86.2835	196.289	86.3008
203.613	88.1849	203.613	88.138	203.613	88.1767	203.613	88.0365	203.613	88.1157	203.613	87.8841	203.613	88.0066	203.613	87.6882	203.613	87.856	203.613	87.4596	203.613	87.6724	203.613	87.2115	203.613	87.4651	203.613	86.9573	203.613	87.2435	203.613	86.7088	203.613	87.0162	203.613	86.4747	203.613	86.7909	203.613	86.2618	203.613	86.5754	203.613	86.0775	203.613	86.3785	203.613	85.9306	203.613	86.2107	203.613	85.8296	203.613	86.0815	203.613	85.7787	203.613	85.9952	203.613	85.7734	203.613	85.9466	203.613	85.7999	203.613	85.9216	203.613	85.8397	203.613	85.9028	203.613	85.8767
210.938	87.9551	210.938	87.9297	210.938	87.9387	210.938	87.8617	210.938	87.8826	210.938	87.7517	210.938	87.7905	210.938	87.6013	210.938	87.6674	210.938	87.4131	210.938	87.5191	210.938	87.1907	210.938	87.3517	210.938	86.9388	210.938	87.1703	210.938	86.6644	210.938	86.9793	210.938	86.378	210.938	86.782	210.938	86.0951	210.938	86.5814	210.938	85.8366	210.938	86.382	210.938	85.625	210.938	86.1907	210.938	85.4777	210.938	86.0166	210.938	85.4	210.938	85.8681	210.938	85.3832	210.938	85.7489	210.938	85.4091	210.938	85.6563	210.938	85.4582	210.938	85.582	210.938	85.5173
218.262	87.7225	218.262	87.7371	218.262	87.6501	218.262	87.6928	218.262	87.5249	218.262	87.5924	218.262	87.356	218.262	87.4424	218.262	87.1563	218.262	87.2528	218.262	86.9413	218.262	87.036	218.262	86.7271	218.262	86.8059	218.262	86.5277	218.262	86.5754	218.262	86.3535	218.262	86.3558	218.262	86.2102	218.262	86.1566	218.262	86.1002	218.262	85.9877	218.262	86.024	218.262	85.8604	218.262	85.9808	218.262	85.7847	218.262	85.9674	218.262	85.7644	218.262	85.9763	218.262	85.7926	218.262	85.9954	218.262	85.8519	218.262	86.0097	218.262	85.9194	218.262	86.0053	218.262	85.9746
225.586	87.8973	225.586	87.9105	225.586	87.8211	225.586	87.8649	225.586	87.6796	225.586	87.7655	225.586	87.4742	225.586	87.618	225.586	87.2108	225.586	87.4286	225.586	86.9015	225.586	87.2042	225.586	86.5656	225.586	86.9538	225.586	86.229	225.586	86.6885	225.586	85.9224	225.586	86.4234	225.586	85.6761	225.586	86.1771	225.586	85.513	225.586	85.972	225.586	85.4427	225.586	85.8302	225.586	85.4602	225.586	85.766	225.586	85.5473	225.586	85.7783	225.586	85.678	225.586	85.8473	225.586	85.8214	225.586	85.9393	225.586	85.947	225.586	86.0177	225.586	86.0292	225.586	86.0528
232.91	87.9404	232.91	87.8804	232.91	87.931	232.91	87.7573	232.91	87.8488	232.91	87.5799	232.91	87.6929	232.91	87.359	232.91	87.4648	232.91	87.107	232.91	87.1686	232.91	86.8364	232.91	86.812	232.91	86.559	232.91	86.4076	232.91	86.2856	232.91	85.9755	232.91	86.027	232.91	85.5458	232.91	85.7958	232.91	85.1606	232.91	85.6082	232.91	84.8698	232.91	85.4822	232.91	84.7174	232.91	85.4307	232.91	84.7215	232.91	85.4511	232.91	84.861	232.91	85.5204	232.91	85.0811	232.91	85.5993	232.91	85.315	232.91	85.6434	232.91	85.5054	232.91	85.6177
241.699	87.7897	241.699	87.7382	241.699	87.7734	241.699	87.6192	241.699	87.6919	241.699	87.4361	241.699	87.5506	241.699	87.1944	241.699	87.3557	241.699	86.9011	241.699	87.1131	241.699	86.5643	241.699	86.8269	241.699	86.1943	241.699	86.4993	241.699	85.806	241.699	86.1325	241.699	85.4214	241.699	85.7343	241.699	85.0713	241.699	85.3241	241.699	84.7916	241.699	84.9384	241.699	84.6142	241.699	84.6283	241.699	84.5536	241.699	84.4433	241.699	84.5962	241.699	84.4053	241.699	84.7016	241.699	84.4914	241.699	84.8148	241.699	84.6422	241.699	84.8846	241.699	84.7888	241.699	84.8779
250.488	88.1381	250.488	88.1058	250.488	88.0821	250.488	87.9856	250.488	87.9409	250.488	87.7812	250.488	87.7204	250.488	87.5005	250.488	87.4302	250.488	87.1553	250.488	87.0837	250.488	86.7597	250.488	86.6982	250.488	86.3279	250.488	86.2939	250.488	85.8715	250.488	85.8929	250.488	85.4028	250.488	85.5161	250.488	84.9418	250.488	85.1817	250.488	84.5248	250.488	84.9037	250.488	84.2033	250.488	84.6927	250.488	84.0245	250.488	84.556	250.488	84.0014	250.488	84.4934	250.488	84.0993	250.488	84.4902	250.488	84.2533	250.488	84.5154	250.488	84.3991	250.488	84.5285	250.488	84.4949
259.277	87.8776	259.277	87.8707	259.277	87.8105	259.277	87.787	259.277	87.6723	259.277	87.6239	259.277	87.467	259.277	87.3798	259.277	87.1994	259.277	87.0568	259.277	86.8745	259.277	86.6631	259.277	86.4963	259.277	86.2158	259.277	86.0682	259.277	85.7399	259.277	85.5961	259.277	85.2653	259.277	85.0952	259.277	84.8231	259.277	84.5987	259.277	84.4456	259.277	84.1609	259.277	84.1661	259.277	83.8476	259.277	84.0126	259.277	83.7073	259.277	83.9916	259.277	83.7413	259.277	84.0741	259.277	83.8971	259.277	84.2004	259.277	84.0934	259.277	84.3024	259.277	84.2534	259.277	84.3276
268.066	87.5434	268.066	87.4737	268.066	87.5472	268.066	87.3421	268.066	87.4813	268.066	87.1503	268.066	87.3427	268.066	86.8969	268.066	87.1306	268.066	86.5769	268.066	86.8473	268.066	86.1831	268.066	86.4987	268.066	85.7123	268.066	86.096	268.066	85.1738	268.066	85.6566	268.066	84.601	268.066	85.2044	268.066	84.0579	268.066	84.7662	268.066	83.63	268.066	84.3675	268.066	83.3904	268.066	84.0303	268.066	83.3584	268.066	83.7764	268.066	83.4843	268.066	83.6284	268.066	83.6775	268.066	83.6002	268.066	83.8471	268.066	83.6763	268.066	83.9308	268.066	83.8031	268.066	83.9081
276.855	87.5463	276.855	87.5532	276.855	87.4706	276.855	87.4864	276.855	87.3335	276.855	87.3447	276.855	87.1436	276.855	87.1305	276.855	86.9077	276.855	86.8481	276.855	86.6276	276.855	86.5001	276.855	86.2963	276.855	86.0843	276.855	85.8976	276.855	85.5948	276.855	85.4152	276.855	85.0297	276.855	84.8534	276.855	84.4071	276.855	84.2632	276.855	83.7842	276.855	83.752	276.855	83.2628	276.855	83.4413	276.855	82.9573	276.855	83.3775	276.855	82.9203	276.855	83.4915	276.855	83.0957	276.855	83.6617	276.855	83.3616	276.855	83.7921	276.855	83.6082	276.855	83.8347	276.855	83.7733
287.109	86.9178	287.109	86.9247	287.109	86.8538	287.109	86.8778	287.109	86.7306	287.109	86.7779	287.109	86.5519	287.109	86.6208	287.109	86.3272	287.109	86.3977	287.109	86.0701	287.109	86.1003	287.109	85.7932	287.109	85.7249	287.109	85.5009	287.109	85.2764	287.109	85.1858	287.109	84.77	287.109	84.8326	287.109	84.2353	287.109	84.4359	287.109	83.7248	287.109	84.0231	287.109	83.3201	287.109	83.6662	287.109	83.1126	287.109	83.4568	287.109	83.1465	287.109	83.4433	287.109	83.3699	287.109	83.5879	287.109	83.6594	287.109	83.7914	287.109	83.8924	287.109	83.9512	287.109	83.9953
297.363	87.6102	297.363	87.5889	297.363	87.544	297.363	87.4987	297.363	87.3728	297.363	87.357	297.363	87.0817	297.363	87.1748	297.363	86.6613	297.363	86.9509	297.363	86.1133	297.363	86.6667	297.363	85.4581	297.363	86.2898	297.363	84.7429	297.363	85.7902	297.363	84.037	297.363	85.1648	297.363	83.4083	297.363	84.464	297.363	82.8934	297.363	83.8016	297.363	82.502	297.363	83.3196	297.363	82.2604	297.363	83.1033	297.363	82.2263	297.363	83.1245	297.363	82.427	297.363	83.28	297.363	82.79	297.363	83.4621	297.363	83.1753	297.363	83.5886	297.363	83.4641	297.363	83.6013
307.617	87.0823	307.617	86.9913	307.617	87.0948	307.617	86.8129	307.617	87.0455	307.617	86.5503	307.617	86.9505	307.617	86.22	307.617	86.8163	307.617	85.8495	307.617	86.6312	307.617	85.4668	307.617	86.365	307.617	85.0827	307.617	85.9771	307.617	84.6781	307.617	85.4339	307.617	84.2109	307.617	84.7291	307.617	83.6485	307.617	83.908	307.617	83.014	307.617	83.0856	307.617	82.4244	307.617	82.435	307.617	82.0698	307.617	82.1119	307.617	82.0795	307.617	82.1506	307.617	82.3865	307.617	82.4415	307.617	82.7871	307.617	82.8095	307.617	83.0948	307.617	83.0984	307.617	83.2068
319.336	86.7146	319.336	86.6565	319.336	86.6817	319.336	86.5102	319.336	86.5528	319.336	86.2735	319.336	86.3265	319.336	85.9404	319.336	86.0106	319.336	85.5075	319.336	85.6245	319.336	84.9831	319.336	85.1948	319.336	84.3908	319.336	84.7456	319.336	83.7642	319.336	84.2877	319.336	83.1337	319.336	83.8178	319.336	82.525	319.336	83.3333	319.336	81.9837	319.336	82.857	319.336	81.6017	319.336	82.4563	319.336	81.484	319.336	82.2262	319.336	81.6529	319.336	82.2241	319.336	82.006	319.336	82.406	319.336	82.3914	319.336	82.6463	319.336	82.6907	319.336	82.8167	319.336	82.8393
329.59	86.299	329.59	86.2781	329.59	86.2711	329.59	86.2112	329.59	86.1915	329.59	86.0997	329.59	86.0563	329.59	85.9385	329.59	85.859	329.59	85.7109	329.59	85.5894	329.59	85.3891	329.59	85.2348	329.59	84.943	329.59	84.7812	329.59	84.3555	329.59	84.2175	329.59	83.6365	329.59	83.545	329.59	82.8372	329.59	82.7966	329.59	82.0659	329.59	82.0611	329.59	81.4945	329.59	81.4895	329.59	81.3027	329.59	81.2405	329.59	81.5341	329.59	81.3693	329.59	82.024	329.59	81.7752	329.59	82.5232	329.59	82.2729	329.59	82.8439	329.59	82.6885	329.59	82.8998
341.309	86.167	341.309	86.1967	341.309	86.0524	341.309	86.1444	341.309	85.852	341.309	86.0128	341.309	85.5691	341.309	85.8075	341.309	85.2114	341.309	85.5373	341.309	84.7862	341.309	85.2081	341.309	84.2948	341.309	84.8102	341.309	83.7341	341.309	84.3099	341.309	83.1107	341.309	83.6575	341.309	82.4602	341.309	82.8169	341.309	81.862	341.309	81.8204	341.309	81.4295	341.309	80.8456	341.309	81.2635	341.309	80.2366	341.309	81.3864	341.309	80.2668	341.309	81.7167	341.309	80.8142	341.309	82.1113	341.309	81.5175	341.309	82.4292	341.309	82.1074	341.309	82.5674	341.309	82.4667
353.027	86.1615	353.027	86.1588	353.027	86.1036	353.027	86.0921	353.027	85.9907	353.027	85.9605	353.027	85.83	353.027	85.7678	353.027	85.6299	353.027	85.5213	353.027	85.394	353.027	85.2256	353.027	85.1078	353.027	84.8723	353.027	84.7229	353.027	84.434	353.027	84.1554	353.027	83.8707	353.027	83.3092	353.027	83.1511	353.027	82.1285	353.027	82.2896	353.027	80.703	353.027	81.4037	353.027	79.4425	353.027	80.7552	353.027	79.013	353.027	80.6293	353.027	79.5621	353.027	81.027	353.027	80.5226	353.027	81.6266	353.027	81.4028	353.027	82.0902	353.027	81.9975	353.027	82.2326
366.211	86.6865	366.211	86.5645	366.211	86.7041	366.211	86.3405	366.211	86.6267	366.211	86.0277	366.211	86.4691	366.211	85.6433	366.211	86.2401	366.211	85.2015	366.211	85.9394	366.211	84.7084	366.211	85.5618	366.211	84.1599	366.211	85.1027	366.211	83.5462	366.211	84.5507	366.211	82.8675	366.211	83.8717	366.211	82.1577	366.211	83.0077	366.211	81.493	366.211	81.9202	366.211	80.9676	366.211	80.7023	366.211	80.6521	366.211	79.7311	366.211	80.5774	366.211	79.5237	366.211	80.732	366.211	80.0639	366.211	81.0371	366.211	80.7983	366.211	81.342	366.211	81.3102	366.211	81.4764
379.395	87.0878	379.395	87.1038	379.395	87.0109	379.395	87.0511	379.395	86.8794	379.395	86.9173	379.395	86.703	379.395	86.6851	379.395	86.4944	379.395	86.3387	379.395	86.2625	379.395	85.8677	379.395	86.001	379.395	85.2655	379.395	85.6806	379.395	84.517	379.395	85.253	379.395	83.5873	379.395	84.6666	379.395	82.4398	379.395	83.8916	379.395	81.1207	379.395	82.9527	379.395	79.9352	379.395	81.9704	379.395	79.4836	379.395	81.184	379.395	79.9989	379.395	80.8555	379.395	80.9408	379.395	81.039	379.395	81.747	379.395	81.5138	379.395	82.1932	379.395	81.9883	379.395	82.2545
392.578	86.907	392.578	86.837	392.578	86.8812	392.578	86.7055	392.578	86.7443	392.578	86.5517	392.578	86.5046	392.578	86.3986	392.578	86.19	392.578	86.2358	392.578	85.8371	392.578	86.0221	392.578	85.4767	392.578	85.7061	392.578	85.1196	392.578	85.2454	392.578	84.7421	392.578	84.6067	392.578	84.2815	392.578	83.7524	392.578	83.6613	392.578	82.6488	392.578	82.8561	392.578	81.3516	392.578	81.9888	392.578	80.2167	392.578	81.3828	392.578	79.9272	392.578	81.3471	392.578	80.6404	392.578	81.796	392.578	81.6669	392.578	82.3589	392.578	82.4414	392.578	82.7417	392.578	82.7948
405.762	86.8027	405.762	86.7243	405.762	86.7279	405.762	86.5031	405.762	86.5061	405.762	86.1725	405.762	86.1569	405.762	85.7945	405.762	85.7061	405.762	85.4498	405.762	85.1731	405.762	85.1916	405.762	84.5604	405.762	84.9903	405.762	83.863	405.762	84.7346	405.762	83.1027	405.762	84.2958	405.762	82.3562	405.762	83.5925	405.762	81.7279	405.762	82.6173	405.762	81.2794	405.762	81.4548	405.762	81.0308	405.762	80.3334	405.762	81.0347	405.762	79.6647	405.762	81.3258	405.762	79.7779	405.762	81.7763	405.762	80.4863	405.762	82.1393	405.762	81.3142	405.762	82.2189	405.762	81.9365
420.41	86.391	420.41	86.3361	420.41	86.3568	420.41	86.1993	420.41	86.2385	420.41	85.9893	420.41	86.0604	420.41	85.7088	420.41	85.8636	420.41	85.3602	420.41	85.6833	420.41	84.9575	420.41	85.5059	420.41	84.5196	420.41	85.2401	420.41	84.0305	420.41	84.7403	420.41	83.4101	420.41	83.8618	420.41	82.5609	420.41	82.5081	420.41	81.4985	420.41	80.68	420.41	80.5176	420.41	78.6298	420.41	80.1384	420.41	77.2431	420.41	80.5189	420.41	77.6274	420.41	81.2509	420.41	79.2146	420.41	81.9248	420.41	80.7872	420.41	82.3316	420.41	81.853	420.41	82.3444
435.059	86.6484	435.059	86.6515	435.059	86.5105	435.059	86.5159	435.059	86.2608	435.059	86.2578	435.059	85.9316	435.059	85.902	435.059	85.5561	435.059	85.466	435.059	85.1668	435.059	84.9535	435.059	84.7958	435.059	84.3611	435.059	84.4535	435.059	83.6755	435.059	84.0893	435.059	82.8531	435.059	83.5864	435.059	81.8098	435.059	82.8266	435.059	80.4724	435.059	81.8046	435.059	78.9492	435.059	80.7625	435.059	77.8649	435.059	80.1766	435.059	78.1598	435.059	80.3063	435.059	79.5627	435.059	80.887	435.059	80.9962	435.059	81.5483	435.059	81.9183	435.059	82.0599	435.059	82.2401
451.172	87.3178	451.172	87.1225	451.172	87.3547	451.172	86.7954	451.172	87.2334	451.172	86.3929	451.172	86.9773	451.172	85.9974	451.172	86.6258	451.172	85.6848	451.172	86.2251	451.172	85.4675	451.172	85.8161	451.172	85.2687	451.172	85.4077	451.172	84.9678	451.172	84.9383	451.172	84.4548	451.172	84.2637	451.172	83.6304	451.172	83.1962	451.172	82.3756	451.172	81.5842	451.172	80.5975	451.172	79.4949	451.172	78.6007	451.172	77.7479	451.172	77.8138	451.172	77.8269	451.172	78.9845	451.172	79.2692	451.172	80.5188	451.172	80.6598	451.172	81.4918	451.172	81.5239	451.172	81.8085
465.82	86.962	465.82	87.0058	465.82	86.8135	465.82	86.9174	465.82	86.5864	465.82	86.6701	465.82	86.3116	465.82	86.2608	465.82	86.0237	465.82	85.7416	465.82	85.7486	465.82	85.2224	465.82	85.4902	465.82	84.7933	465.82	85.2285	465.82	84.4179	465.82	84.9157	465.82	83.9485	465.82	84.4566	465.82	83.2482	465.82	83.7011	465.82	82.2755	465.82	82.4911	465.82	81.108	465.82	80.8209	465.82	79.9787	465.82	79.263	465.82	79.3165	465.82	79.0299	465.82	79.4872	465.82	80.0344	465.82	80.2759	465.82	81.0719	465.82	81.1114	465.82	81.6148	465.82	81.6089
483.398	86.4711	483.398	86.3172	483.398	86.4399	483.398	86.0199	483.398	86.221	483.398	85.6486	483.398	85.8573	483.398	85.2795	483.398	85.4368	483.398	84.9655	483.398	85.0685	483.398	84.7093	483.398	84.8226	483.398	84.4576	483.398	84.6652	483.398	84.1084	483.398	84.4614	483.398	83.5161	483.398	84.0399	483.398	82.5014	483.398	83.245	483.398	80.888	483.398	81.9567	483.398	78.6888	483.398	80.1639	483.398	76.8829	483.398	78.3166	483.398	77.3968	483.398	77.7973	483.398	79.278	483.398	79.0505	483.398	80.8439	483.398	80.6128	483.398	81.752	483.398	81.6473	483.398	82.0198
499.512	87.144	499.512	87.0306	499.512	87.0782	499.512	86.7657	499.512	86.8132	499.512	86.3724	499.512	86.3462	499.512	85.8575	499.512	85.7035	499.512	85.2211	499.512	84.9452	499.512	84.4962	499.512	84.1574	499.512	83.7779	499.512	83.4325	499.512	83.1635	499.512	82.8318	499.512	82.6085	499.512	82.3154	499.512	81.8803	499.512	81.7033	499.512	80.6865	499.512	80.7677	499.512	78.8607	499.512	79.4523	499.512	76.7792	499.512	78.2089	499.512	76.1841	499.512	78.0461	499.512	77.8548	499.512	79.1381	499.512	79.8521	499.512	80.4935	499.512	81.1714	499.512	81.4211	499.512	81.6789
517.09	87.0692	517.09	86.9718	517.09	86.9201	517.09	86.6291	517.09	86.5683	517.09	86.1109	517.09	86.0828	517.09	85.5639	517.09	85.5389	517.09	85.1459	517.09	85.0061	517.09	84.8889	517.09	84.5425	517.09	84.6738	517.09	84.1683	517.09	84.3704	517.09	83.8108	517.09	83.926	517.09	83.2963	517.09	83.2915	517.09	82.4133	517.09	82.3035	517.09	80.9806	517.09	80.6874	517.09	78.9421	517.09	78.2696	517.09	76.8112	517.09	76.0295	517.09	76.4131	517.09	76.9205	517.09	78.1721	517.09	79.4486	517.09	80.1396	517.09	81.1848	517.09	81.4189	517.09	81.807
536.133	87.7499	536.133	87.6513	536.133	87.6399	536.133	87.3297	536.133	87.3333	536.133	86.7727	536.133	86.8551	536.133	86.0149	536.133	86.262	536.133	85.2172	536.133	85.6518	536.133	84.6703	536.133	85.1377	536.133	84.5293	536.133	84.7607	536.133	84.5421	536.133	84.3979	536.133	84.2706	536.133	83.7923	536.133	83.3876	536.133	82.6765	536.133	81.7166	536.133	80.8669	536.133	79.311	536.133	78.4177	536.133	77.0785	536.133	76.39	536.133	76.9424	536.133	76.9865	536.133	78.4598	536.133	79.1402	536.133	80.0516	536.133	80.8684	536.133	81.2192	536.133	81.743	536.133	81.8199
555.176	88.3117	555.176	88.2708	555.176	88.1596	555.176	88.0501	555.176	87.8295	555.176	87.669	555.176	87.3403	555.176	87.1028	555.176	86.7023	555.176	86.2953	555.176	85.9711	555.176	85.2769	555.176	85.3233	555.176	84.2943	555.176	84.9925	555.176	83.7109	555.176	84.9932	555.176	83.5629	555.176	85.004	555.176	83.4272	555.176	84.5914	555.176	82.807	555.176	83.3884	555.176	81.3425	555.176	81.1456	555.176	78.8804	555.176	78.0695	555.176	76.2963	555.176	76.3077	555.176	76.6676	555.176	77.6998	555.176	79.0015	555.176	79.6378	555.176	80.6612	555.176	80.8766	555.176	81.2517
574.219	89.2207	574.219	89.1481	574.219	89.0242	574.219	88.7896	574.219	88.5894	574.219	88.1828	574.219	87.9716	574.219	87.4691	574.219	87.279	574.219	86.8584	574.219	86.6472	574.219	86.4669	574.219	86.161	574.219	86.1857	574.219	85.8251	574.219	85.7883	574.219	85.6034	574.219	85.1376	574.219	85.3995	574.219	84.2419	574.219	84.9757	574.219	83.0829	574.219	83.9669	574.219	81.389	574.219	81.9735	574.219	78.8378	574.219	78.6985	574.219	76.5307	574.219	75.4304	574.219	77.5831	574.219	76.9544	574.219	79.9445	574.219	79.9438	574.219	81.5136	574.219	81.6538	574.219	82.1082
594.727	89.4732	594.727	89.3867	594.727	89.3979	594.727	89.1457	594.727	89.1178	594.727	88.7096	594.727	88.5786	594.727	88.0145	594.727	87.7398	594.727	87.0453	594.727	86.6255	594.727	85.9679	594.727	85.4222	594.727	85.2231	594.727	84.5406	594.727	85.128	594.727	84.3056	594.727	85.2896	594.727	84.4494	594.727	85.0541	594.727	84.3561	594.727	84.0567	594.727	83.5231	594.727	82.1897	594.727	81.6073	594.727	79.5172	594.727	78.7006	594.727	77.0836	594.727	77.4312	594.727	78.1392	594.727	79.7427	594.727	80.9949	594.727	82.0057	594.727	82.8603	594.727	83.2255	594.727	83.5247
615.234	88.7547	615.234	88.6697	615.234	88.6335	615.234	88.3814	615.234	88.3044	615.234	87.8815	615.234	87.7763	615.234	87.177	615.234	87.0713	615.234	86.3462	615.234	86.2651	615.234	85.5541	615.234	85.5237	615.234	84.9533	615.234	84.9573	615.234	84.5408	615.234	84.4392	615.234	84.1959	615.234	83.7886	615.234	83.8083	615.234	83.0272	615.234	83.2256	615.234	82.2626	615.234	82.1262	615.234	81.3582	615.234	80.0794	615.234	79.9611	615.234	77.1938	615.234	78.1164	615.234	76.3417	615.234	77.5822	615.234	78.5292	615.234	79.3992	615.234	80.4872	615.234	81.0385	615.234	81.3868
637.207	89.5503	637.207	89.4406	637.207	89.3646	637.207	89.0441	637.207	88.863	637.207	88.3803	637.207	88.0109	637.207	87.4875	637.207	86.8209	637.207	86.4324	637.207	85.433	637.207	85.3244	637.207	84.162	637.207	84.3744	637.207	83.439	637.207	83.9273	637.207	83.4416	637.207	84.0185	637.207	83.795	637.207	84.0598	637.207	83.9231	637.207	83.4204	637.207	83.3225	637.207	81.7361	637.207	81.5065	637.207	78.8875	637.207	78.1654	637.207	76.1805	637.207	75.7684	637.207	77.7685	637.207	78.1719	637.207	80.8896	637.207	80.6649	637.207	82.6546	637.207	82.1911	637.207	82.9541
659.18	88.9651	659.18	88.9358	659.18	88.7864	659.18	88.648	659.18	88.441	659.18	88.0841	659.18	87.9335	659.18	87.2859	659.18	87.1995	659.18	86.3046	659.18	86.1277	659.18	85.1656	659.18	84.7257	659.18	83.9447	659.18	83.4168	659.18	82.901	659.18	82.8388	659.18	82.4062	659.18	82.7888	659.18	82.3386	659.18	82.4744	659.18	81.9609	659.18	81.4405	659.18	80.6329	659.18	79.6002	659.18	78.2156	659.18	77.0753	659.18	75.9829	659.18	74.9838	659.18	76.5623	659.18	76.6153	659.18	78.4675	659.18	79.5297	659.18	79.974	659.18	80.9431	659.18	80.8999
682.617	88.5236	682.617	88.4818	682.617	88.3389	682.617	88.2342	682.617	87.9557	682.617	87.7709	682.617	87.4354	682.617	87.0328	682.617	86.779	682.617	86.0079	682.617	85.9094	682.617	84.8438	682.617	84.7951	682.617	83.8645	682.617	83.6098	682.617	83.2604	682.617	82.7608	682.617	82.8034	682.617	82.5166	682.617	82.3083	682.617	82.493	682.617	81.7898	682.617	81.9852	682.617	80.9103	682.617	80.4436	682.617	79.0269	682.617	77.4839	682.617	75.759	682.617	73.882	682.617	74.2213	682.617	74.4625	682.617	77.7997	682.617	77.6071	682.617	80.4683	682.617	80.0144	682.617	81.1081
707.52	89.0406	707.52	88.8318	707.52	88.9995	707.52	88.3792	707.52	88.6688	707.52	87.7365	707.52	87.9552	707.52	86.9148	707.52	86.8324	707.52	85.7572	707.52	85.4094	707.52	84.104	707.52	83.8206	707.52	82.1838	707.52	82.1959	707.52	81.0285	707.52	81.1132	707.52	81.3103	707.52	81.3572	707.52	81.8337	707.52	82.0505	707.52	81.5149	707.52	81.8145	707.52	79.8917	707.52	80.0442	707.52	76.786	707.52	76.4207	707.52	74.3492	707.52	72.3144	707.52	77.0915	707.52	75.4063	707.52	80.5207	707.52	79.4366	707.52	82.4589	707.52	81.7773	707.52	82.8052
732.422	88.4918	732.422	88.3456	732.422	88.3509	732.422	87.9538	732.422	87.9532	732.422	87.3693	732.422	87.3462	732.422	86.6201	732.422	86.4807	732.422	85.6983	732.422	85.2839	732.422	84.5961	732.422	83.8448	732.422	83.4654	732.422	82.4305	732.422	82.5221	732.422	81.4337	732.422	81.7535	732.422	81.0448	732.422	81.1466	732.422	80.9098	732.422	80.4882	732.422	80.5529	732.422	78.9531	732.422	79.3201	732.422	75.383	732.422	75.9364	732.422	68.3811	732.422	68.5029	732.422	71.856	732.422	72.5111	732.422	76.8274	732.422	77.4295	732.422	78.8665	732.422	79.2098	732.422	79.4885
757.324	87.6463	757.324	87.687	757.324	87.5342	757.324	87.5334	757.324	87.3609	757.324	87.0263	757.324	87.078	757.324	86.1244	757.324	86.561	757.324	84.9624	757.324	85.5816	757.324	83.6749	757.324	84.0724	757.324	82.3048	757.324	82.5549	757.324	81.4452	757.324	81.8798	757.324	81.8092	757.324	81.7892	757.324	82.2886	757.324	81.5028	757.324	81.8411	757.324	80.9907	757.324	80.4299	757.324	80.108	757.324	77.8672	757.324	77.6739	757.324	73.2807	757.324	72.7986	757.324	71.1031	757.324	72.7151	757.324	76.0704	757.324	77.4808	757.324	79.4472	757.324	80.1522	757.324	80.7841
785.156	88.3799	785.156	88.4207	785.156	88.1071	785.156	88.1741	785.156	87.6578	785.156	87.7475	785.156	86.9609	785.156	87.1851	785.156	86.0151	785.156	86.2296	785.156	84.9672	785.156	84.7009	785.156	83.7568	785.156	82.8436	785.156	82.2449	785.156	81.1235	785.156	81.0369	785.156	80.3471	785.156	80.8675	785.156	80.8119	785.156	81.202	785.156	81.0303	785.156	81.0191	785.156	79.7964	785.156	79.5234	785.156	77.0306	785.156	76.0173	785.156	74.137	785.156	67.5271	785.156	73.1109	785.156	66.5524	785.156	75.665	785.156	75.5769	785.156	78.8737	785.156	78.8815	785.156	79.97
811.523	87.9268	811.523	87.7008	811.523	87.8356	811.523	87.3146	811.523	87.5247	811.523	86.8345	811.523	87.1664	811.523	86.1782	811.523	86.5758	811.523	85.3429	811.523	85.5059	811.523	84.1832	811.523	84.2424	811.523	82.6965	811.523	82.9251	811.523	81.6115	811.523	81.2209	811.523	81.3185	811.523	80.6828	811.523	81.186	811.523	82.0078	811.523	80.9011	811.523	82.7327	811.523	80.2314	811.523	81.9362	811.523	77.6836	811.523	79.3575	811.523	69.8708	811.523	74.1724	811.523	70.4604	811.523	61.2979	811.523	76.2935	811.523	70.6462	811.523	77.6744	811.523	76.1049	811.523	77.626
840.82	88.0311	840.82	87.7862	840.82	88.0475	840.82	87.1795	840.82	87.8773	840.82	86.1917	840.82	87.4733	840.82	85.145	840.82	86.6727	840.82	84.3196	840.82	85.2874	840.82	83.2478	840.82	83.5515	840.82	81.4804	840.82	81.9585	840.82	79.5379	840.82	80.314	840.82	78.5998	840.82	78.6017	840.82	79.3706	840.82	78.5215	840.82	80.0592	840.82	79.4961	840.82	79.5012	840.82	79.4713	840.82	77.7706	840.82	77.7477	840.82	74.1337	840.82	73.8864	840.82	68.1382	840.82	68.7789	840.82	66.5321	840.82	70.0087	840.82	73.436	840.82	74.8966	840.82	76.4886
870.117	87.9458	870.117	88.0063	870.117	87.6201	870.117	87.8289	870.117	87.0677	870.117	87.2978	870.117	86.5447	870.117	86.4562	870.117	86.201	870.117	85.6527	870.117	85.6509	870.117	84.8281	870.117	84.3285	870.117	83.534	870.117	82.3225	870.117	82.1878	870.117	81.1775	870.117	81.4658	870.117	81.5992	870.117	80.6194	870.117	81.593	870.117	80.7663	870.117	81.157	870.117	81.8882	870.117	81.5704	870.117	81.4347	870.117	81.1468	870.117	78.59	870.117	78.2969	870.117	73.6281	870.117	72.917	870.117	73.6465	870.117	71.4966	870.117	76.04	870.117	74.3098	870.117	75.732
900.879	88.1657	900.879	87.8299	900.879	88.1278	900.879	87.3022	900.879	87.6602	900.879	86.6338	900.879	86.8771	900.879	85.4607	900.879	85.9144	900.879	83.6221	900.879	84.8008	900.879	81.9594	900.879	83.5456	900.879	80.7125	900.879	81.8749	900.879	78.6718	900.879	79.7937	900.879	77.648	900.879	80.1636	900.879	78.9574	900.879	81.8969	900.879	79.6462	900.879	82.1845	900.879	79.4945	900.879	81.4731	900.879	78.7319	900.879	80.1777	900.879	77.495	900.879	77.961	900.879	74.8206	900.879	75.6546	900.879	72.5608	900.879	74.7176	900.879	76.8061	900.879	77.0767	900.879	78.6279
933.105	87.4476	933.105	88.2154	933.105	86.4718	933.105	88.2903	933.105	85.7815	933.105	87.6587	933.105	85.3281	933.105	86.7572	933.105	84.558	933.105	85.8174	933.105	83.142	933.105	84.4036	933.105	81.3861	933.105	81.9715	933.105	79.1148	933.105	78.6927	933.105	75.6235	933.105	76.8641	933.105	71.0879	933.105	76.3099	933.105	71.7987	933.105	75.6048	933.105	76.4114	933.105	76.6278	933.105	77.7207	933.105	75.5846	933.105	76.2815	933.105	69.2573	933.105	72.4589	933.105	74.9596	933.105	67.8524	933.105	78.0958	933.105	74.8338	933.105	79.1986	933.105	78.7853	933.105	79.8221
965.332	88.0157	965.332	87.8556	965.332	87.7467	965.332	87.4812	965.332	87.3194	965.332	87.0241	965.332	86.8569	965.332	86.1164	965.332	86.023	965.332	84.8275	965.332	84.8545	965.332	83.8339	965.332	83.8661	965.332	82.8152	965.332	82.8062	965.332	80.6203	965.332	81.0472	965.332	77.8086	965.332	79.4127	965.332	77.8031	965.332	78.8189	965.332	78.1203	965.332	79.3581	965.332	77.3025	965.332	80.3026	965.332	76.0902	965.332	79.5792	965.332	74.7748	965.332	76.8531	965.332	73.1666	965.332	75.1384	965.332	69.8447	965.332	75.5684	965.332	75.82	965.332	76.7167	965.332	77.6848
1,000.49	87.9992	1,000.49	87.5667	1,000.49	88.1491	1,000.49	87.1916	1,000.49	87.6174	1,000.49	86.6008	1,000.49	86.8187	1,000.49	85.6834	1,000.49	86.1259	1,000.49	84.6866	1,000.49	85.1166	1,000.49	83.4657	1,000.49	83.8494	1,000.49	82.1804	1,000.49	82.5564	1,000.49	80.6425	1,000.49	79.9884	1,000.49	79.0539	1,000.49	75.7234	1,000.49	79.2529	1,000.49	75.7811	1,000.49	78.1273	1,000.49	75.7364	1,000.49	77.4598	1,000.49	75.9171	1,000.49	76.9543	1,000.49	78.0283	1,000.49	73.0956	1,000.49	75.7933	1,000.49	73.319	1,000.49	70.6366	1,000.49	74.2976	1,000.49	74.3368	1,000.49	76.5834	1,000.49	77.2332	1,000.49	78.0262
1,035.64	87.3388	1,035.64	86.7235	1,035.64	87.3244	1,035.64	86.1428	1,035.64	86.4194	1,035.64	85.7342	1,035.64	85.1174	1,035.64	84.909	1,035.64	84.0442	1,035.64	83.5843	1,035.64	83.1723	1,035.64	82.3312	1,035.64	81.8586	1,035.64	80.7292	1,035.64	79.7485	1,035.64	78.6171	1,035.64	77.413	1,035.64	75.4908	1,035.64	74.2615	1,035.64	74.1183	1,035.64	73.1557	1,035.64	76.2815	1,035.64	76.0154	1,035.64	75.9235	1,035.64	75.3669	1,035.64	74.4882	1,035.64	72.8153	1,035.64	72.4489	1,035.64	72.4786	1,035.64	69.2945	1,035.64	70.4554	1,035.64	70.0464	1,035.64	75.1665	1,035.64	75.1685	1,035.64	77.35	1,035.64	77.0221
1,072.27	87.793	1,072.27	87.7604	1,072.27	87.1702	1,072.27	87.0927	1,072.27	86.1287	1,072.27	86.1271	1,072.27	84.8102	1,072.27	85.059	1,072.27	83.6693	1,072.27	84.0398	1,072.27	82.661	1,072.27	82.9433	1,072.27	81.4539	1,072.27	81.8627	1,072.27	79.9209	1,072.27	80.016	1,072.27	77.411	1,072.27	77.094	1,072.27	73.6876	1,072.27	75.7199	1,072.27	70.0417	1,072.27	74.2803	1,072.27	73.3981	1,072.27	74.2335	1,072.27	76.0694	1,072.27	74.4389	1,072.27	75.1039	1,072.27	68.1476	1,072.27	72.2617	1,072.27	70.37	1,072.27	72.1541	1,072.27	72.7559	1,072.27	73.1148	1,072.27	75.8975	1,072.27	77.2474	1,072.27	78.6251
1,108.89	87.3632	1,108.89	87.1571	1,108.89	87.2538	1,108.89	86.5949	1,108.89	86.6072	1,108.89	85.5987	1,108.89	85.2833	1,108.89	84.2576	1,108.89	83.5486	1,108.89	82.844	1,108.89	82.3953	1,108.89	81.331	1,108.89	81.5553	1,108.89	79.4607	1,108.89	80.1433	1,108.89	78.1909	1,108.89	79.1009	1,108.89	75.9968	1,108.89	77.3121	1,108.89	74.6326	1,108.89	74.2843	1,108.89	75.4449	1,108.89	70.9713	1,108.89	75.6298	1,108.89	70.697	1,108.89	75.2148	1,108.89	73.8005	1,108.89	71.7996	1,108.89	69.7157	1,108.89	67.6605	1,108.89	69.0043	1,108.89	69.4656	1,108.89	72.1801	1,108.89	74.6215	1,108.89	74.038	1,108.89	75.3803
1,148.44	87.4319	1,148.44	86.9309	1,148.44	87.0913	1,148.44	85.5868	1,148.44	86.1912	1,148.44	83.9371	1,148.44	84.7828	1,148.44	81.9721	1,148.44	83.3443	1,148.44	79.6187	1,148.44	82.15	1,148.44	78.2813	1,148.44	80.9438	1,148.44	77.1667	1,148.44	79.7268	1,148.44	75.625	1,148.44	77.6388	1,148.44	74.1839	1,148.44	74.1528	1,148.44	74.9999	1,148.44	70.0179	1,148.44	75.3144	1,148.44	70.0891	1,148.44	73.1052	1,148.44	64.4031	1,148.44	74.512	1,148.44	66.1089	1,148.44	71.8824	1,148.44	68.5896	1,148.44	67.6675	1,148.44	70.9496	1,148.44	70.6673	1,148.44	74.9773	1,148.44	72.3799	1,148.44	76.1231	1,148.44	75.1228
1,189.45	86.1202	1,189.45	86.0789	1,189.45	86.2602	1,189.45	85.8014	1,189.45	85.9585	1,189.45	84.4649	1,189.45	85.2686	1,189.45	82.7835	1,189.45	84.105	1,189.45	80.6976	1,189.45	82.165	1,189.45	78.0784	1,189.45	80.9144	1,189.45	76.7144	1,189.45	80.174	1,189.45	74.2586	1,189.45	78.721	1,189.45	72.4194	1,189.45	78.0122	1,189.45	74.0461	1,189.45	75.5371	1,189.45	77.2032	1,189.45	71.5081	1,189.45	77.5151	1,189.45	74.1	1,189.45	76.4645	1,189.45	71.2481	1,189.45	73.3822	1,189.45	70.9545	1,189.45	70.3567	1,189.45	62.7048	1,189.45	71.5198	1,189.45	68.5504	1,189.45	73.8636	1,189.45	71.2769	1,189.45	73.6292
1,230.47	86.8066	1,230.47	86.4797	1,230.47	86.5498	1,230.47	86.0226	1,230.47	86.2083	1,230.47	85.2171	1,230.47	85.4361	1,230.47	83.5238	1,230.47	83.9165	1,230.47	81.9766	1,230.47	81.9783	1,230.47	80.0018	1,230.47	80.5009	1,230.47	78.6687	1,230.47	80.1488	1,230.47	77.6307	1,230.47	78.5782	1,230.47	75.2968	1,230.47	76.2695	1,230.47	73.2952	1,230.47	77.1819	1,230.47	73.5805	1,230.47	75.95	1,230.47	71.1036	1,230.47	73.3616	1,230.47	71.0359	1,230.47	72.7391	1,230.47	67.3794	1,230.47	65.414	1,230.47	64.2128	1,230.47	61.0166	1,230.47	71.6387	1,230.47	70.488	1,230.47	73.3553	1,230.47	73.4603	1,230.47	72.8414
1,274.41	86.3794	1,274.41	86.7287	1,274.41	86.1991	1,274.41	86.2676	1,274.41	86.0385	1,274.41	85.0084	1,274.41	85.1876	1,274.41	83.8359	1,274.41	83.6185	1,274.41	82.1755	1,274.41	81.5619	1,274.41	80.7875	1,274.41	79.4204	1,274.41	79.8053	1,274.41	78.0027	1,274.41	78.2819	1,274.41	77.9777	1,274.41	76.1127	1,274.41	76.7665	1,274.41	69.8338	1,274.41	71.0876	1,274.41	70.2163	1,274.41	71.4445	1,274.41	73.5632	1,274.41	72.5753	1,274.41	71.4387	1,274.41	69.6277	1,274.41	66.6291	1,274.41	68.7616	1,274.41	64.9577	1,274.41	65.4549	1,274.41	69.9881	1,274.41	69.1323	1,274.41	74.7985	1,274.41	74.4242	1,274.41	74.7068
1,319.82	87.3012	1,319.82	87.1599	1,319.82	86.9466	1,319.82	86.5557	1,319.82	86.3947	1,319.82	86.0444	1,319.82	85.4186	1,319.82	84.933	1,319.82	83.6604	1,319.82	83.396	1,319.82	81.7093	1,319.82	81.5299	1,319.82	79.68	1,319.82	79.729	1,319.82	78.2757	1,319.82	79.1063	1,319.82	78.5818	1,319.82	76.6229	1,319.82	77.3138	1,319.82	72.9785	1,319.82	76.9626	1,319.82	70.7779	1,319.82	75.3822	1,319.82	71.1631	1,319.82	76.3918	1,319.82	74.316	1,319.82	75.5055	1,319.82	72.8331	1,319.82	72.5733	1,319.82	64.1652	1,319.82	64.7954	1,319.82	62.5439	1,319.82	69.3767	1,319.82	73.5057	1,319.82	73.1022	1,319.82	75.2484
1,366.7	87.3343	1,366.7	87.1991	1,366.7	87.218	1,366.7	86.7892	1,366.7	86.6199	1,366.7	86.2502	1,366.7	85.6243	1,366.7	85.1883	1,366.7	84.1446	1,366.7	83.4479	1,366.7	82.4867	1,366.7	81.1209	1,366.7	80.77	1,366.7	79.0895	1,366.7	78.8531	1,366.7	78.5623	1,366.7	77.0322	1,366.7	77.1863	1,366.7	77.1507	1,366.7	75.5075	1,366.7	74.1783	1,366.7	72.3504	1,366.7	75.6855	1,366.7	70.8649	1,366.7	72.6957	1,366.7	74.5942	1,366.7	72.7126	1,366.7	74.6309	1,366.7	69.781	1,366.7	69.5508	1,366.7	59.5028	1,366.7	60.1554	1,366.7	65.3322	1,366.7	69.7693	1,366.7	72.6992	1,366.7	73.8651
1,413.57	87.4981	1,413.57	87.4289	1,413.57	87.4589	1,413.57	87.2071	1,413.57	86.6759	1,413.57	86.6024	1,413.57	85.5979	1,413.57	85.2021	1,413.57	84.8745	1,413.57	83.323	1,413.57	83.3478	1,413.57	81.7617	1,413.57	80.7935	1,413.57	79.986	1,413.57	78.3406	1,413.57	78.4714	1,413.57	77.8611	1,413.57	77.7679	1,413.57	76.6082	1,413.57	74.4684	1,413.57	73.3841	1,413.57	73.9753	1,413.57	70.9745	1,413.57	73.5891	1,413.57	73.9955	1,413.57	75.4979	1,413.57	72.2566	1,413.57	74.7226	1,413.57	73.7157	1,413.57	71.6552	1,413.57	69.8739	1,413.57	68.5257	1,413.57	67.595	1,413.57	73.3061	1,413.57	73.5692	1,413.57	75.351
1,463.38	87.069	1,463.38	87.1789	1,463.38	86.6578	1,463.38	86.5699	1,463.38	86.077	1,463.38	85.833	1,463.38	85.1456	1,463.38	85.0237	1,463.38	83.9814	1,463.38	83.1527	1,463.38	82.1659	1,463.38	81.8126	1,463.38	79.646	1,463.38	79.6687	1,463.38	78.1967	1,463.38	79.0301	1,463.38	76.2309	1,463.38	78.0392	1,463.38	73.4907	1,463.38	76.6104	1,463.38	73.6445	1,463.38	74.4115	1,463.38	74.2985	1,463.38	73.7303	1,463.38	70.5314	1,463.38	71.654	1,463.38	72.7003	1,463.38	72.0463	1,463.38	71.8557	1,463.38	69.5799	1,463.38	66.1576	1,463.38	69.0898	1,463.38	64.8014	1,463.38	73.4239	1,463.38	72.5429	1,463.38	74.0184
1,516.11	87.3715	1,516.11	87.0125	1,516.11	87.0569	1,516.11	86.893	1,516.11	86.0159	1,516.11	85.8773	1,516.11	84.9011	1,516.11	84.7671	1,516.11	83.5315	1,516.11	83.611	1,516.11	81.9733	1,516.11	81.3601	1,516.11	80.4967	1,516.11	79.2324	1,516.11	77.9546	1,516.11	78.0813	1,516.11	77.2242	1,516.11	77.7628	1,516.11	78.1854	1,516.11	73.8739	1,516.11	76.0011	1,516.11	73.6254	1,516.11	71.7058	1,516.11	75.9695	1,516.11	74.9168	1,516.11	73.8517	1,516.11	74.0057	1,516.11	70.4824	1,516.11	71.367	1,516.11	67.7573	1,516.11	64.5122	1,516.11	70.4017	1,516.11	51.2784	1,516.11	72.7426	1,516.11	71.1298	1,516.11	74.7781
1,568.85	87.3858	1,568.85	87.1106	1,568.85	87.2587	1,568.85	86.0348	1,568.85	86.1282	1,568.85	85.0948	1,568.85	84.6799	1,568.85	83.7589	1,568.85	83.4714	1,568.85	81.6174	1,568.85	82.3222	1,568.85	80.6105	1,568.85	80.2531	1,568.85	78.6592	1,568.85	79.1276	1,568.85	77.8906	1,568.85	77.5977	1,568.85	77.9555	1,568.85	75.5898	1,568.85	74.3541	1,568.85	75.7604	1,568.85	69.7631	1,568.85	75.1994	1,568.85	73.9761	1,568.85	73.1361	1,568.85	74.5546	1,568.85	75.1594	1,568.85	72.7162	1,568.85	72.2804	1,568.85	63.8644	1,568.85	69.6983	1,568.85	69.9753	1,568.85	66.5725	1,568.85	72.5694	1,568.85	72.0275	1,568.85	73.5055
1,624.51	87.9541	1,624.51	87.4409	1,624.51	87.3301	1,624.51	86.8666	1,624.51	86.9567	1,624.51	85.3534	1,624.51	85.3609	1,624.51	83.6359	1,624.51	83.8978	1,624.51	82.733	1,624.51	82.5415	1,624.51	80.1373	1,624.51	81.8561	1,624.51	77.9963	1,624.51	78.9758	1,624.51	75.1167	1,624.51	78.3362	1,624.51	75.9957	1,624.51	79.1919	1,624.51	74.9731	1,624.51	74.391	1,624.51	71.2342	1,624.51	69.2594	1,624.51	73.5424	1,624.51	75.0523	1,624.51	72.3924	1,624.51	74.9187	1,624.51	69.8477	1,624.51	73.2115	1,624.51	66.2106	1,624.51	72.3477	1,624.51	63.181	1,624.51	71.36	1,624.51	68.7239	1,624.51	75.0865	1,624.51	73.4127
1,681.64	88.6881	1,681.64	88.4567	1,681.64	88.4434	1,681.64	87.8234	1,681.64	87.7353	1,681.64	86.3639	1,681.64	87.0146	1,681.64	85	1,681.64	85.4778	1,681.64	83.3345	1,681.64	83.5972	1,681.64	82.7111	1,681.64	80.5223	1,681.64	78.3456	1,681.64	79.0098	1,681.64	77.5429	1,681.64	77.6052	1,681.64	76.6561	1,681.64	76.955	1,681.64	74.5694	1,681.64	75.1627	1,681.64	69.1438	1,681.64	72.8084	1,681.64	69.2774	1,681.64	72.0288	1,681.64	72.7708	1,681.64	72.2589	1,681.64	71.1731	1,681.64	68.0044	1,681.64	64.1599	1,681.64	64.3694	1,681.64	63.2955	1,681.64	68.8497	1,681.64	71.9071	1,681.64	71.6822	1,681.64	73.6325
1,741.7	88.5445	1,741.7	88.4854	1,741.7	87.6938	1,741.7	87.7928	1,741.7	87.2122	1,741.7	86.8103	1,741.7	86.2174	1,741.7	86.0051	1,741.7	84.8102	1,741.7	84.3984	1,741.7	83.5568	1,741.7	81.9029	1,741.7	81.7549	1,741.7	81.0804	1,741.7	79.0512	1,741.7	77.5695	1,741.7	77.7676	1,741.7	78.3694	1,741.7	79.9355	1,741.7	77.1871	1,741.7	78.9561	1,741.7	72.5628	1,741.7	54.9543	1,741.7	65.5046	1,741.7	69.9026	1,741.7	71.5648	1,741.7	70.3334	1,741.7	71.7631	1,741.7	71.4856	1,741.7	73.7878	1,741.7	70.3635	1,741.7	67.2513	1,741.7	69.4543	1,741.7	73.8423	1,741.7	69.4464	1,741.7	74.0668
1,803.22	88.3947	1,803.22	88.1822	1,803.22	87.7551	1,803.22	87.2245	1,803.22	87.2244	1,803.22	86.2958	1,803.22	85.5106	1,803.22	84.8424	1,803.22	84.1601	1,803.22	83.425	1,803.22	81.4621	1,803.22	82.0151	1,803.22	80.5292	1,803.22	81.5532	1,803.22	78.2882	1,803.22	79.0514	1,803.22	74.8256	1,803.22	79.1433	1,803.22	75.4076	1,803.22	76.3786	1,803.22	71.4491	1,803.22	73.7581	1,803.22	73.5011	1,803.22	72.3937	1,803.22	70.0524	1,803.22	70.8348	1,803.22	74.2934	1,803.22	72.2039	1,803.22	64.8042	1,803.22	71.8926	1,803.22	68.6644	1,803.22	72.8208	1,803.22	68.6455	1,803.22	70.9271	1,803.22	73.3276	1,803.22	70.4438
1,866.21	87.4711	1,866.21	87.0173	1,866.21	86.7832	1,866.21	87.2482	1,866.21	86.1025	1,866.21	86.2982	1,866.21	84.9766	1,866.21	84.9703	1,866.21	83.7265	1,866.21	84.0065	1,866.21	81.9815	1,866.21	81.8884	1,866.21	80.4348	1,866.21	81.1255	1,866.21	78.2227	1,866.21	78.3324	1,866.21	76.3598	1,866.21	74.8244	1,866.21	71.6552	1,866.21	75.2604	1,866.21	77.8274	1,866.21	72.0453	1,866.21	70.0271	1,866.21	72.4397	1,866.21	72.5983	1,866.21	72.6388	1,866.21	71.7744	1,866.21	68.6843	1,866.21	66.1975	1,866.21	69.8733	1,866.21	67.4574	1,866.21	72.7085	1,866.21	70.2679	1,866.21	73.1416	1,866.21	67.5191	1,866.21	71.97
1,932.13	86.3319	1,932.13	86.4304	1,932.13	86.02	1,932.13	86.0453	1,932.13	85.4617	1,932.13	85.1426	1,932.13	84.1227	1,932.13	84.2605	1,932.13	82.9125	1,932.13	83.1042	1,932.13	81.3441	1,932.13	80.9005	1,932.13	79.5125	1,932.13	79.8018	1,932.13	78.0026	1,932.13	76.9672	1,932.13	74.4744	1,932.13	75.8676	1,932.13	74.2926	1,932.13	75.8687	1,932.13	73.1368	1,932.13	74.2458	1,932.13	72.7707	1,932.13	73.355	1,932.13	69.9414	1,932.13	72.5172	1,932.13	73.693	1,932.13	69.491	1,932.13	69.8908	1,932.13	64.5839	1,932.13	64.4674	1,932.13	70.3704	1,932.13	70.5338	1,932.13	75.5382	1,932.13	73.375	1,932.13	74.1232
1,999.51	86.604	1,999.51	86.667	1,999.51	86.414	1,999.51	86.2181	1,999.51	85.8566	1,999.51	85.2376	1,999.51	84.8229	1,999.51	83.6302	1,999.51	83.2145	1,999.51	81.6322	1,999.51	81.623	1,999.51	80.5561	1,999.51	80.6348	1,999.51	78.6755	1,999.51	79.2011	1,999.51	75.7131	1,999.51	75.55	1,999.51	73.1151	1,999.51	70.2629	1,999.51	74.2108	1,999.51	73.7555	1,999.51	71.0091	1,999.51	71.5938	1,999.51	71.3715	1,999.51	70.4781	1,999.51	73.92	1,999.51	71.7792	1,999.51	68.366	1,999.51	70.0557	1,999.51	67.1305	1,999.51	68.4183	1,999.51	69.1373	1,999.51	70.9213	1,999.51	71.8662	1,999.51	72.7215	1,999.51	73.2508
2,069.82	87.2967	2,069.82	87.1341	2,069.82	86.9964	2,069.82	86.713	2,069.82	86.5021	2,069.82	85.8446	2,069.82	85.5403	2,069.82	84.6513	2,069.82	83.8307	2,069.82	82.4968	2,069.82	80.9884	2,069.82	79.759	2,069.82	79.0538	2,069.82	79.1049	2,069.82	78.7126	2,069.82	77.1121	2,069.82	76.4004	2,069.82	70.9072	2,069.82	71.4426	2,069.82	70.0448	2,069.82	70.8571	2,069.82	70.0975	2,069.82	69.4059	2,069.82	67.2795	2,069.82	70.6522	2,069.82	72.8657	2,069.82	70.437	2,069.82	70.1586	2,069.82	69.6656	2,069.82	66.0124	2,069.82	72.2313	2,069.82	69.8624	2,069.82	72.1418	2,069.82	69.8727	2,069.82	72.41	2,069.82	72.4298
2,143.07	87.7048	2,143.07	88.0016	2,143.07	87.0184	2,143.07	87.6624	2,143.07	85.7334	2,143.07	86.5442	2,143.07	84.18	2,143.07	85.0991	2,143.07	82.5986	2,143.07	82.9976	2,143.07	80.2348	2,143.07	80.3459	2,143.07	76.6919	2,143.07	78.0355	2,143.07	74.4708	2,143.07	76.7991	2,143.07	73.9646	2,143.07	74.8673	2,143.07	70.2103	2,143.07	70.8823	2,143.07	66.9899	2,143.07	70.1985	2,143.07	68.0775	2,143.07	66.9205	2,143.07	62.069	2,143.07	67.3482	2,143.07	64.0621	2,143.07	69.4341	2,143.07	63.4032	2,143.07	67.5733	2,143.07	69.1249	2,143.07	70.8411	2,143.07	70.1176	2,143.07	71.6526	2,143.07	69.7224	2,143.07	69.4818
2,219.24	87.6938	2,219.24	87.8568	2,219.24	87.0514	2,219.24	87.314	2,219.24	85.6411	2,219.24	86.0878	2,219.24	83.702	2,219.24	84.2389	2,219.24	81.297	2,219.24	82.0183	2,219.24	78.4214	2,219.24	80.1013	2,219.24	75.3046	2,219.24	77.7702	2,219.24	73.1099	2,219.24	75.3541	2,219.24	70.7495	2,219.24	73.3522	2,219.24	67.3459	2,219.24	71.1918	2,219.24	63.3028	2,219.24	67.8153	2,219.24	62.8562	2,219.24	66.967	2,219.24	64.323	2,219.24	64.7426	2,219.24	58.0857	2,219.24	65.9111	2,219.24	41.287	2,219.24	66.1352	2,219.24	62.7955	2,219.24	68.4523	2,219.24	65.8043	2,219.24	68.4993	2,219.24	65.9427	2,219.24	68.1644
2,296.88	88.0983	2,296.88	87.6051	2,296.88	87.9273	2,296.88	86.4311	2,296.88	86.7398	2,296.88	84.4933	2,296.88	85.1751	2,296.88	82.1814	2,296.88	83.2398	2,296.88	79.3601	2,296.88	80.8215	2,296.88	75.9103	2,296.88	76.3632	2,296.88	73.7843	2,296.88	73.4687	2,296.88	73.2295	2,296.88	71.9183	2,296.88	70.1849	2,296.88	68.7934	2,296.88	67.7052	2,296.88	66.0326	2,296.88	67.5418	2,296.88	58.5851	2,296.88	69.6323	2,296.88	67.2165	2,296.88	63.9544	2,296.88	64.0827	2,296.88	55.1748	2,296.88	54.8569	2,296.88	63.5613	2,296.88	57.5266	2,296.88	65.6795	2,296.88	64.3973	2,296.88	69.0753	2,296.88	65.9169	2,296.88	67.4329
2,378.91	89.7622	2,378.91	88.8857	2,378.91	89.5495	2,378.91	87.0647	2,378.91	88.8009	2,378.91	84.8464	2,378.91	87.4943	2,378.91	82.2175	2,378.91	85.9565	2,378.91	80.1856	2,378.91	84.3955	2,378.91	76.5907	2,378.91	82.0141	2,378.91	71.4982	2,378.91	78.9911	2,378.91	71.5057	2,378.91	76.8379	2,378.91	68.2236	2,378.91	74.5911	2,378.91	65.6267	2,378.91	71.7388	2,378.91	62.4032	2,378.91	66.7657	2,378.91	66.4774	2,378.91	68.6111	2,378.91	69.871	2,378.91	70.5835	2,378.91	60.947	2,378.91	66.3594	2,378.91	63.1185	2,378.91	67.8948	2,378.91	68.4176	2,378.91	70.0986	2,378.91	67.8553	2,378.91	70.4452	2,378.91	70.4946
2,462.4	90.7477	2,462.4	90.0406	2,462.4	90.6673	2,462.4	88.7131	2,462.4	90.3077	2,462.4	87.2385	2,462.4	89.5236	2,462.4	85.4955	2,462.4	88.3769	2,462.4	83.9379	2,462.4	87.4711	2,462.4	82.0703	2,462.4	85.6204	2,462.4	79.2035	2,462.4	82.7975	2,462.4	75.9512	2,462.4	80.7234	2,462.4	73.2928	2,462.4	78.5742	2,462.4	71.3672	2,462.4	75.6368	2,462.4	67.753	2,462.4	72.4109	2,462.4	68.5558	2,462.4	72.0837	2,462.4	71.1722	2,462.4	74.6476	2,462.4	68.7952	2,462.4	72.0081	2,462.4	69.5773	2,462.4	73.0554	2,462.4	70.69	2,462.4	74.5488	2,462.4	71.5087	2,462.4	74.6327	2,462.4	73.8321
2,548.83	88.9877	2,548.83	88.3603	2,548.83	89.2548	2,548.83	88.0718	2,548.83	89.3998	2,548.83	87.6108	2,548.83	89.4643	2,548.83	87.2079	2,548.83	88.3967	2,548.83	85.9059	2,548.83	87.3197	2,548.83	84.0366	2,548.83	85.6238	2,548.83	81.8764	2,548.83	82.9131	2,548.83	79.4622	2,548.83	80.744	2,548.83	77.5419	2,548.83	78.2312	2,548.83	74.406	2,548.83	77.707	2,548.83	71.1937	2,548.83	72.6973	2,548.83	68.1308	2,548.83	72.2178	2,548.83	72.1255	2,548.83	72.4807	2,548.83	72.6165	2,548.83	73.1811	2,548.83	71.9742	2,548.83	73.3297	2,548.83	73.2822	2,548.83	73.3462	2,548.83	70.7296	2,548.83	73.2191	2,548.83	73.611
2,639.65	85.7112	2,639.65	85.6343	2,639.65	86.7679	2,639.65	86.4386	2,639.65	87.414	2,639.65	86.5547	2,639.65	87.6873	2,639.65	86.468	2,639.65	87.4355	2,639.65	85.8006	2,639.65	85.9895	2,639.65	84.3073	2,639.65	84.0369	2,639.65	82.0005	2,639.65	81.8287	2,639.65	80.4982	2,639.65	79.7293	2,639.65	76.3549	2,639.65	77.631	2,639.65	76.0913	2,639.65	76.2052	2,639.65	73.903	2,639.65	72.9334	2,639.65	70.5933	2,639.65	72.9807	2,639.65	68.1666	2,639.65	70.3632	2,639.65	71.4447	2,639.65	72.6285	2,639.65	70.8955	2,639.65	72.6205	2,639.65	71.8268	2,639.65	71.4199	2,639.65	66.6374	2,639.65	65.9156	2,639.65	67.5682
2,731.93	84.9413	2,731.93	85.3084	2,731.93	85.2049	2,731.93	85.6119	2,731.93	86.5908	2,731.93	86.2945	2,731.93	86.9278	2,731.93	85.3964	2,731.93	86.9621	2,731.93	84.3518	2,731.93	85.6918	2,731.93	83.1749	2,731.93	83.897	2,731.93	81.9896	2,731.93	81.7289	2,731.93	78.8656	2,731.93	78.9987	2,731.93	75.2372	2,731.93	76.49	2,731.93	74.1668	2,731.93	74.5613	2,731.93	73.2291	2,731.93	73.5512	2,731.93	71.1131	2,731.93	72.8538	2,731.93	71.4241	2,731.93	72.0973	2,731.93	72.0845	2,731.93	73.1101	2,731.93	73.213	2,731.93	72.8137	2,731.93	70.7484	2,731.93	72.4992	2,731.93	68.0378	2,731.93	61.7505	2,731.93	66.9303
2,828.61	85.2199	2,828.61	85.4622	2,828.61	85.8988	2,828.61	85.9802	2,828.61	86.7654	2,828.61	86.5455	2,828.61	87.1923	2,828.61	85.8682	2,828.61	86.6899	2,828.61	84.2602	2,828.61	85.6339	2,828.61	82.5863	2,828.61	83.9767	2,828.61	80.4456	2,828.61	81.5559	2,828.61	77.3303	2,828.61	79.8347	2,828.61	76.4764	2,828.61	76.5095	2,828.61	74.82	2,828.61	75.6345	2,828.61	72.8398	2,828.61	73.8017	2,828.61	72.166	2,828.61	72.3489	2,828.61	70.0023	2,828.61	72.4717	2,828.61	70.8711	2,828.61	74.1573	2,828.61	71.3298	2,828.61	73.7714	2,828.61	73.1861	2,828.61	73.9853	2,828.61	64.683	2,828.61	62.4771	2,828.61	59.0027
2,928.22	85.5239	2,928.22	85.4532	2,928.22	86.7285	2,928.22	86.6085	2,928.22	87.1627	2,928.22	86.7421	2,928.22	87.6956	2,928.22	86.6547	2,928.22	86.7333	2,928.22	85.2093	2,928.22	85.4789	2,928.22	83.1805	2,928.22	83.867	2,928.22	80.4949	2,928.22	81.6985	2,928.22	78.6872	2,928.22	78.9387	2,928.22	76.9359	2,928.22	75.6878	2,928.22	73.6229	2,928.22	74.4107	2,928.22	72.3387	2,928.22	71.5652	2,928.22	70.501	2,928.22	71.6138	2,928.22	70.3368	2,928.22	69.6633	2,928.22	74.2334	2,928.22	73.5432	2,928.22	73.0745	2,928.22	73.4918	2,928.22	73.7692	2,928.22	73.4166	2,928.22	67.6061	2,928.22	62.2936	2,928.22	64.1759
3,030.76	86.1134	3,030.76	86.634	3,030.76	86.956	3,030.76	86.7432	3,030.76	87.5483	3,030.76	86.4928	3,030.76	87.502	3,030.76	86.6084	3,030.76	86.8903	3,030.76	86.0793	3,030.76	84.9764	3,030.76	83.4387	3,030.76	82.9453	3,030.76	81.1136	3,030.76	80.4588	3,030.76	79.8041	3,030.76	79.0293	3,030.76	76.3926	3,030.76	76.5882	3,030.76	75.017	3,030.76	74.0692	3,030.76	72.6027	3,030.76	71.0304	3,030.76	72.1865	3,030.76	72.2994	3,030.76	70.3904	3,030.76	66.7064	3,030.76	72.6595	3,030.76	73.5773	3,030.76	71.3973	3,030.76	72.0297	3,030.76	73.5446	3,030.76	73.0939	3,030.76	66.6313	3,030.76	64.6118	3,030.76	62.284
3,137.7	86.7363	3,137.7	86.8092	3,137.7	86.5349	3,137.7	86.8412	3,137.7	87.0485	3,137.7	87.1332	3,137.7	86.8859	3,137.7	86.622	3,137.7	86.1153	3,137.7	85.093	3,137.7	84.9544	3,137.7	84.0962	3,137.7	83.3842	3,137.7	82.2728	3,137.7	80.5327	3,137.7	80.3564	3,137.7	79.3155	3,137.7	76.8278	3,137.7	77.3903	3,137.7	74.6162	3,137.7	74.6391	3,137.7	72.07	3,137.7	72.8202	3,137.7	71.574	3,137.7	72.0322	3,137.7	69.7474	3,137.7	66.7053	3,137.7	73.39	3,137.7	73.0157	3,137.7	72.1305	3,137.7	71.7274	3,137.7	73.6046	3,137.7	74.422	3,137.7	68.4406	3,137.7	67.2183	3,137.7	65.6551
3,249.02	86.998	3,249.02	86.7602	3,249.02	86.5887	3,249.02	86.4123	3,249.02	86.9878	3,249.02	86.3414	3,249.02	86.7916	3,249.02	85.551	3,249.02	86.2498	3,249.02	84.1386	3,249.02	84.9874	3,249.02	82.9776	3,249.02	83.752	3,249.02	82.0096	3,249.02	80.9864	3,249.02	79.4957	3,249.02	79.6861	3,249.02	76.305	3,249.02	77.8664	3,249.02	75.0338	3,249.02	74.7198	3,249.02	72.1779	3,249.02	73.1614	3,249.02	71.5734	3,249.02	71.6829	3,249.02	67.3087	3,249.02	70.0804	3,249.02	72.3083	3,249.02	73.1799	3,249.02	68.8019	3,249.02	71.2492	3,249.02	71.0157	3,249.02	74.6065	3,249.02	68.4627	3,249.02	62.6833	3,249.02	64.6717
3,363.28	87.4238	3,363.28	86.755	3,363.28	87.4324	3,363.28	86.7452	3,363.28	86.807	3,363.28	86.5572	3,363.28	86.7734	3,363.28	85.47	3,363.28	85.6173	3,363.28	82.945	3,363.28	84.7737	3,363.28	83.0661	3,363.28	83.5053	3,363.28	81.3501	3,363.28	81.3474	3,363.28	78.8807	3,363.28	79.0519	3,363.28	76.8828	3,363.28	75.9091	3,363.28	75.2495	3,363.28	75.0273	3,363.28	71.6177	3,363.28	72.9221	3,363.28	70.3246	3,363.28	71.5476	3,363.28	69.1543	3,363.28	68.2184	3,363.28	71.9251	3,363.28	72.5345	3,363.28	73.2062	3,363.28	73.3919	3,363.28	73.4699	3,363.28	74.4021	3,363.28	67.7875	3,363.28	65.85	3,363.28	66.3639
3,481.93	87.5146	3,481.93	87.4546	3,481.93	87.5757	3,481.93	87.0718	3,481.93	86.8784	3,481.93	86.6088	3,481.93	86.4837	3,481.93	85.9709	3,481.93	86.2638	3,481.93	85.7541	3,481.93	85.3252	3,481.93	83.4708	3,481.93	82.9813	3,481.93	81.4668	3,481.93	81.6849	3,481.93	80.0454	3,481.93	79.3291	3,481.93	77.1534	3,481.93	76.3244	3,481.93	75.0298	3,481.93	74.8795	3,481.93	72.5176	3,481.93	72.4115	3,481.93	72.6873	3,481.93	71.8456	3,481.93	71.2788	3,481.93	69.6682	3,481.93	67.4815	3,481.93	67.6425	3,481.93	73.4265	3,481.93	72.791	3,481.93	73.8456	3,481.93	74.0205	3,481.93	68.9175	3,481.93	64.1238	3,481.93	60.314
3,604.98	87.9751	3,604.98	87.6506	3,604.98	87.7002	3,604.98	86.6135	3,604.98	87.4185	3,604.98	86.0848	3,604.98	87.0246	3,604.98	85.1818	3,604.98	86.7953	3,604.98	85.7877	3,604.98	86.0307	3,604.98	84.1993	3,604.98	84.6143	3,604.98	82.1395	3,604.98	83.1666	3,604.98	80.2401	3,604.98	80.5837	3,604.98	78.0946	3,604.98	78.424	3,604.98	75.9026	3,604.98	76.2901	3,604.98	73.0153	3,604.98	73.2246	3,604.98	71.3846	3,604.98	72.5353	3,604.98	69.555	3,604.98	74.0884	3,604.98	71.447	3,604.98	71.7966	3,604.98	72.7625	3,604.98	74.8597	3,604.98	73.1953	3,604.98	74.8134	3,604.98	69.1084	3,604.98	66.8216	3,604.98	62.7215
3,732.42	88.3982	3,732.42	88.3071	3,732.42	87.4618	3,732.42	87.2873	3,732.42	87.263	3,732.42	86.4074	3,732.42	86.76	3,732.42	87.1023	3,732.42	86.3319	3,732.42	86.2588	3,732.42	85.449	3,732.42	84.9442	3,732.42	84.5586	3,732.42	82.7843	3,732.42	82.9617	3,732.42	80.2243	3,732.42	79.7582	3,732.42	78.9077	3,732.42	77.3167	3,732.42	75.8596	3,732.42	75.2365	3,732.42	73.0645	3,732.42	72.3215	3,732.42	71.8995	3,732.42	73.5212	3,732.42	69.9314	3,732.42	71.42	3,732.42	71.026	3,732.42	71.2364	3,732.42	72.8192	3,732.42	74.1561	3,732.42	72.6044	3,732.42	73.7282	3,732.42	70.2734	3,732.42	65.5585	3,732.42	63.0003
3,864.26	88.0593	3,864.26	87.4169	3,864.26	86.948	3,864.26	86.0856	3,864.26	85.2845	3,864.26	85.6416	3,864.26	85.0375	3,864.26	86.0082	3,864.26	84.9151	3,864.26	85.0576	3,864.26	84.7887	3,864.26	84.4638	3,864.26	83.9687	3,864.26	82.7172	3,864.26	81.5692	3,864.26	80.3323	3,864.26	78.8182	3,864.26	78.211	3,864.26	77.2299	3,864.26	75.0992	3,864.26	74.0021	3,864.26	74.4014	3,864.26	72.9717	3,864.26	71.4272	3,864.26	67.7372	3,864.26	71.6508	3,864.26	68.9398	3,864.26	70.2222	3,864.26	69.3595	3,864.26	73.14	3,864.26	72.8657	3,864.26	71.9758	3,864.26	69.7451	3,864.26	70.0308	3,864.26	65.4789	3,864.26	64.7664
4,000.49	88.2134	4,000.49	86.9788	4,000.49	87.7848	4,000.49	85.4041	4,000.49	85.6844	4,000.49	84.9955	4,000.49	85.2994	4,000.49	83.982	4,000.49	85.8584	4,000.49	83.9162	4,000.49	85.7487	4,000.49	83.2707	4,000.49	83.8763	4,000.49	81.4555	4,000.49	81.2765	4,000.49	79.252	4,000.49	79.9444	4,000.49	75.926	4,000.49	77.8423	4,000.49	74.4209	4,000.49	75.3109	4,000.49	71.8362	4,000.49	72.6597	4,000.49	70.1508	4,000.49	72.5297	4,000.49	68.7206	4,000.49	72.5221	4,000.49	70.643	4,000.49	72.6314	4,000.49	71.7217	4,000.49	71.5967	4,000.49	71.1534	4,000.49	72.2264	4,000.49	67.3628	4,000.49	67.6729	4,000.49	64.8149
4,141.11	89.5503	4,141.11	89.2226	4,141.11	88.092	4,141.11	86.8618	4,141.11	87.1241	4,141.11	85.7034	4,141.11	86.4088	4,141.11	85.9672	4,141.11	86.2394	4,141.11	85.1922	4,141.11	85.2107	4,141.11	83.3611	4,141.11	82.8606	4,141.11	81.2566	4,141.11	80.2987	4,141.11	78.9112	4,141.11	78.1482	4,141.11	75.7299	4,141.11	76.0835	4,141.11	71.5485	4,141.11	72.3678	4,141.11	71.0842	4,141.11	72.0902	4,141.11	69.8431	4,141.11	71.3053	4,141.11	69.5611	4,141.11	68.3345	4,141.11	64.2292	4,141.11	68.6953	4,141.11	69.978	4,141.11	72.2396	4,141.11	70.6258	4,141.11	73.9412	4,141.11	66.2586	4,141.11	65.8817	4,141.11	61.6659
4,287.6	90.1609	4,287.6	89.3619	4,287.6	89.2077	4,287.6	87.3532	4,287.6	87.255	4,287.6	86.2867	4,287.6	86.7305	4,287.6	86.4865	4,287.6	85.7733	4,287.6	85.7257	4,287.6	84.732	4,287.6	83.8522	4,287.6	83.6358	4,287.6	81.5748	4,287.6	81.4543	4,287.6	78.999	4,287.6	79.4519	4,287.6	76.377	4,287.6	75.8872	4,287.6	74.6448	4,287.6	73.0184	4,287.6	72.2622	4,287.6	72.0288	4,287.6	71.4971	4,287.6	70.8007	4,287.6	72.5519	4,287.6	68.1942	4,287.6	66.0629	4,287.6	68.8745	4,287.6	71.7431	4,287.6	71.7389	4,287.6	69.3622	4,287.6	69.2966	4,287.6	69.9869	4,287.6	64.3298	4,287.6	60.6949
4,438.48	89.3228	4,438.48	88.2734	4,438.48	88.3466	4,438.48	87.1225	4,438.48	86.1012	4,438.48	86.2066	4,438.48	85.3099	4,438.48	85.7459	4,438.48	86.3336	4,438.48	85.4865	4,438.48	86.0591	4,438.48	83.9701	4,438.48	84.4852	4,438.48	81.7868	4,438.48	82.6211	4,438.48	79.7126	4,438.48	79.7821	4,438.48	77.613	4,438.48	78.0356	4,438.48	76.4718	4,438.48	74.9236	4,438.48	71.9916	4,438.48	72.5135	4,438.48	67.5845	4,438.48	69.9962	4,438.48	67.3963	4,438.48	70.9451	4,438.48	71.0361	4,438.48	71.1144	4,438.48	71.274	4,438.48	70.755	4,438.48	71.3283	4,438.48	69.8408	4,438.48	67.827	4,438.48	66.4974	4,438.48	64.8885
4,595.21	88.0438	4,595.21	87.5286	4,595.21	87.0228	4,595.21	85.206	4,595.21	85.9095	4,595.21	85.3418	4,595.21	85.5174	4,595.21	85.6913	4,595.21	86.2648	4,595.21	85.2226	4,595.21	86.1322	4,595.21	84.565	4,595.21	84.5304	4,595.21	83.1968	4,595.21	82.3424	4,595.21	80.0415	4,595.21	80.4322	4,595.21	76.211	4,595.21	77.5834	4,595.21	72.0182	4,595.21	74.7499	4,595.21	71.5883	4,595.21	71.5423	4,595.21	70.175	4,595.21	69.8618	4,595.21	69.046	4,595.21	68.7898	4,595.21	68.1112	4,595.21	67.2974	4,595.21	70.9301	4,595.21	72.5983	4,595.21	72.281	4,595.21	72.5664	4,595.21	65.9031	4,595.21	63.6996	4,595.21	63.0903
4,756.35	88.5183	4,756.35	87.5344	4,756.35	87.9035	4,756.35	86.8356	4,756.35	86.2252	4,756.35	85.2258	4,756.35	86.3901	4,756.35	85.9157	4,756.35	85.9723	4,756.35	85.5794	4,756.35	85.5638	4,756.35	83.8235	4,756.35	84.677	4,756.35	81.8635	4,756.35	83.0503	4,756.35	78.7347	4,756.35	80.1491	4,756.35	78.2354	4,756.35	78.6257	4,756.35	75.9725	4,756.35	75.9983	4,756.35	73.6963	4,756.35	73.0327	4,756.35	71.1917	4,756.35	70.733	4,756.35	72.5599	4,756.35	70.6509	4,756.35	69.5882	4,756.35	71.3118	4,756.35	73.0799	4,756.35	73.5692	4,756.35	72.5846	4,756.35	72.5931	4,756.35	68.5986	4,756.35	66.1813	4,756.35	63.2683
4,924.8	87.9884	4,924.8	87.7668	4,924.8	86.8335	4,924.8	86.2361	4,924.8	86.0914	4,924.8	85.838	4,924.8	84.3365	4,924.8	85.6764	4,924.8	84.9185	4,924.8	85.5233	4,924.8	85.3692	4,924.8	84.7072	4,924.8	84.193	4,924.8	82.7823	4,924.8	82.6912	4,924.8	80.7798	4,924.8	81.014	4,924.8	76.5802	4,924.8	77.1707	4,924.8	75.7636	4,924.8	74.8322	4,924.8	71.3971	4,924.8	70.545	4,924.8	67.8078	4,924.8	70.5711	4,924.8	68.8055	4,924.8	68.5363	4,924.8	70.7846	4,924.8	70.3054	4,924.8	70.2294	4,924.8	71.9351	4,924.8	71.0075	4,924.8	71.2786	4,924.8	70.3886	4,924.8	68.2153	4,924.8	64.3607
5,097.66	87.3474	5,097.66	87.1315	5,097.66	87.5043	5,097.66	85.7214	5,097.66	86.367	5,097.66	83.6006	5,097.66	85.0899	5,097.66	83.2355	5,097.66	84.9294	5,097.66	84.1777	5,097.66	85.126	5,097.66	84.113	5,097.66	84.2581	5,097.66	83.7189	5,097.66	82.4087	5,097.66	81.6653	5,097.66	79.3557	5,097.66	78.9132	5,097.66	77.1325	5,097.66	76.0931	5,097.66	74.5701	5,097.66	73.3623	5,097.66	72.1258	5,097.66	71.9713	5,097.66	69.5311	5,097.66	71.4794	5,097.66	69.7977	5,097.66	70.8971	5,097.66	69.7041	5,097.66	71.194	5,097.66	72.904	5,097.66	72.3729	5,097.66	70.7836	5,097.66	68.0255	5,097.66	67.1626	5,097.66	66.1251
5,277.83	87.4344	5,277.83	87.5644	5,277.83	87.5206	5,277.83	87.3186	5,277.83	86.3543	5,277.83	84.8967	5,277.83	83.9817	5,277.83	83.7962	5,277.83	83.7426	5,277.83	84.077	5,277.83	84.5931	5,277.83	83.9108	5,277.83	83.9181	5,277.83	81.6838	5,277.83	82.3945	5,277.83	79.0984	5,277.83	79.9246	5,277.83	77.2098	5,277.83	76.9346	5,277.83	71.6775	5,277.83	74.3148	5,277.83	71.4536	5,277.83	70.8747	5,277.83	70.1228	5,277.83	67.6288	5,277.83	70.1765	5,277.83	70.9586	5,277.83	67.8029	5,277.83	69.4859	5,277.83	70.2493	5,277.83	72.7216	5,277.83	67.8231	5,277.83	71.3734	5,277.83	67.8816	5,277.83	66.5463	5,277.83	63.314
5,463.87	86.6138	5,463.87	86.984	5,463.87	87.0874	5,463.87	86.3135	5,463.87	86.1827	5,463.87	83.7511	5,463.87	83.8523	5,463.87	83.0206	5,463.87	84.0661	5,463.87	84.9413	5,463.87	85.54	5,463.87	84.827	5,463.87	84.6882	5,463.87	83.3988	5,463.87	83.2025	5,463.87	81.6606	5,463.87	81.2035	5,463.87	78.6208	5,463.87	76.8562	5,463.87	75.2657	5,463.87	74.6377	5,463.87	71.3081	5,463.87	71.822	5,463.87	69.3619	5,463.87	69.0193	5,463.87	69.1627	5,463.87	63.9918	5,463.87	70.0311	5,463.87	69.3936	5,463.87	70.5464	5,463.87	71.0985	5,463.87	71.7865	5,463.87	69.8663	5,463.87	69.1173	5,463.87	65.1563	5,463.87	66.1876
5,657.23	86.9855	5,657.23	87.6783	5,657.23	87.8638	5,657.23	87.1186	5,657.23	86.8056	5,657.23	84.2515	5,657.23	84.5561	5,657.23	83.4052	5,657.23	83.4052	5,657.23	84.1375	5,657.23	84.6692	5,657.23	83.4039	5,657.23	84.9991	5,657.23	82.6207	5,657.23	82.6881	5,657.23	78.1198	5,657.23	79.6467	5,657.23	76.95	5,657.23	77.9804	5,657.23	71.083	5,657.23	74.0168	5,657.23	69.5527	5,657.23	71.7318	5,657.23	69.9349	5,657.23	68.3436	5,657.23	67.2541	5,657.23	69.4941	5,657.23	71.2331	5,657.23	69.0318	5,657.23	69.2718	5,657.23	71.8621	5,657.23	71.4004	5,657.23	71.6951	5,657.23	64.3568	5,657.23	62.7334	5,657.23	65.9835
5,856.45	86.854	5,856.45	86.9856	5,856.45	87.4692	5,856.45	86.3937	5,856.45	86.9965	5,856.45	84.3154	5,856.45	83.9413	5,856.45	84.0961	5,856.45	84.1994	5,856.45	85.1871	5,856.45	85.5415	5,856.45	84.4079	5,856.45	84.2987	5,856.45	81.3151	5,856.45	82.0556	5,856.45	80.4426	5,856.45	80.8685	5,856.45	76.423	5,856.45	77.9357	5,856.45	74.6881	5,856.45	74.5707	5,856.45	69.3505	5,856.45	70.2067	5,856.45	65.1292	5,856.45	69.5649	5,856.45	67.3818	5,856.45	65.0653	5,856.45	66.8982	5,856.45	69.2274	5,856.45	67.9673	5,856.45	71.0842	5,856.45	72.2709	5,856.45	69.6361	5,856.45	67.6652	5,856.45	62.0393	5,856.45	64.5747
6,062.99	88.0685	6,062.99	88.355	6,062.99	88.5183	6,062.99	87.9348	6,062.99	87.0091	6,062.99	84.9051	6,062.99	84.9901	6,062.99	83.331	6,062.99	83.7298	6,062.99	83.6631	6,062.99	83.4584	6,062.99	83.3975	6,062.99	83.6106	6,062.99	82.5063	6,062.99	82.1268	6,062.99	79.1897	6,062.99	79.6758	6,062.99	76.3053	6,062.99	76.7026	6,062.99	75.3452	6,062.99	74.328	6,062.99	71.461	6,062.99	69.8729	6,062.99	69.7497	6,062.99	66.7707	6,062.99	66.3695	6,062.99	69.3076	6,062.99	70.1688	6,062.99	70.2218	6,062.99	70.4307	6,062.99	70.9497	6,062.99	71.6377	6,062.99	70.6051	6,062.99	67.1517	6,062.99	62.5882	6,062.99	65.2034
6,276.86	87.4824	6,276.86	87.6977	6,276.86	87.8251	6,276.86	87.4126	6,276.86	87.1235	6,276.86	85.2333	6,276.86	85.3438	6,276.86	83.5435	6,276.86	83.9762	6,276.86	83.1725	6,276.86	84.4689	6,276.86	83.1085	6,276.86	82.6153	6,276.86	82.1408	6,276.86	80.5375	6,276.86	78.8871	6,276.86	78.4517	6,276.86	76.97	6,276.86	74.7979	6,276.86	71.6765	6,276.86	71.9416	6,276.86	70.2003	6,276.86	68.2353	6,276.86	66.7015	6,276.86	67.3378	6,276.86	64.0982	6,276.86	60.9624	6,276.86	66.6504	6,276.86	66.4603	6,276.86	69.1817	6,276.86	68.3906	6,276.86	71.0424	6,276.86	68.2432	6,276.86	65.5815	6,276.86	61.7071	6,276.86	65.831
6,498.05	87.3637	6,498.05	87.5116	6,498.05	87.7521	6,498.05	87.5533	6,498.05	87.5198	6,498.05	86.2748	6,498.05	86.5106	6,498.05	84.0473	6,498.05	84.1303	6,498.05	83.8033	6,498.05	83.967	6,498.05	83.4145	6,498.05	84.3797	6,498.05	81.7608	6,498.05	82.9129	6,498.05	79.1238	6,498.05	79.3417	6,498.05	76.2216	6,498.05	75.4824	6,498.05	74.5303	6,498.05	73.1728	6,498.05	69.9343	6,498.05	71.8759	6,498.05	67.0065	6,498.05	63.5157	6,498.05	68.1075	6,498.05	61.759	6,498.05	67.5137	6,498.05	63.2817	6,498.05	68.226	6,498.05	70.6664	6,498.05	70.2766	6,498.05	70.0663	6,498.05	65.349	6,498.05	59.335	6,498.05	66.2138
6,726.56	87.8995	6,726.56	87.6449	6,726.56	87.5771	6,726.56	87.4972	6,726.56	87.7696	6,726.56	86.7584	6,726.56	86.1665	6,726.56	84.4048	6,726.56	84.3502	6,726.56	83.7684	6,726.56	84.1461	6,726.56	83.5506	6,726.56	83.1408	6,726.56	81.8833	6,726.56	81.2449	6,726.56	80.0145	6,726.56	78.8289	6,726.56	76.0547	6,726.56	75.3464	6,726.56	72.2779	6,726.56	73.1853	6,726.56	69.4593	6,726.56	69.8397	6,726.56	65.894	6,726.56	64.1409	6,726.56	61.3269	6,726.56	54.6075	6,726.56	64.9379	6,726.56	65.2149	6,726.56	69.2702	6,726.56	68.8673	6,726.56	69.6519	6,726.56	68.9228	6,726.56	65.1449	6,726.56	61.1078	6,726.56	65.2195
6,963.87	88.2775	6,963.87	87.9143	6,963.87	88.1139	6,963.87	87.5095	6,963.87	87.8075	6,963.87	86.7253	6,963.87	86.9984	6,963.87	84.0719	6,963.87	84.1242	6,963.87	82.9209	6,963.87	83.2987	6,963.87	82.5672	6,963.87	83.6285	6,963.87	80.6931	6,963.87	81.9995	6,963.87	78.1691	6,963.87	78.365	6,963.87	75.4418	6,963.87	74.7605	6,963.87	71.9963	6,963.87	71.0184	6,963.87	67.7702	6,963.87	66.8614	6,963.87	66.6104	6,963.87	65.7672	6,963.87	58.2912	6,963.87	62.8688	6,963.87	62.5964	6,963.87	64.826	6,963.87	67.1187	6,963.87	68.7203	6,963.87	67.8748	6,963.87	66.9663	6,963.87	63.2778	6,963.87	58.8694	6,963.87	62.3695
7,209.96	88.1833	7,209.96	87.7209	7,209.96	87.5441	7,209.96	87.6321	7,209.96	88.0376	7,209.96	86.9722	7,209.96	86.8637	7,209.96	84.8314	7,209.96	84.8463	7,209.96	84.2831	7,209.96	84.2043	7,209.96	83.4526	7,209.96	83.0407	7,209.96	82.6535	7,209.96	81.483	7,209.96	79.1571	7,209.96	79.4528	7,209.96	76.1441	7,209.96	75.3889	7,209.96	71.2217	7,209.96	71.5349	7,209.96	67.237	7,209.96	68.8061	7,209.96	66.7236	7,209.96	64.41	7,209.96	61.9425	7,209.96	58.2592	7,209.96	57.4275	7,209.96	60.1178	7,209.96	67.6337	7,209.96	66.0238	7,209.96	69.0552	7,209.96	69.6843	7,209.96	64.1431	7,209.96	55.8044	7,209.96	62.0209
7,464.84	87.6455	7,464.84	87.2943	7,464.84	87.3116	7,464.84	87.6954	7,464.84	87.3436	7,464.84	87.46	7,464.84	86.9459	7,464.84	85.2857	7,464.84	84.4762	7,464.84	83.9586	7,464.84	83.629	7,464.84	82.7512	7,464.84	82.2983	7,464.84	80.9947	7,464.84	80.2959	7,464.84	77.9833	7,464.84	77.0057	7,464.84	75.133	7,464.84	72.9211	7,464.84	68.9014	7,464.84	70.8556	7,464.84	67.3067	7,464.84	67.8685	7,464.84	60.0129	7,464.84	64.809	7,464.84	62.435	7,464.84	62.2603	7,464.84	60.8456	7,464.84	58.3563	7,464.84	62.8308	7,464.84	65.9601	7,464.84	69.7269	7,464.84	66.0147	7,464.84	58.7225	7,464.84	55.5657	7,464.84	63.2058
7,727.05	87.8308	7,727.05	87.2621	7,727.05	87.6054	7,727.05	87.7316	7,727.05	88.0268	7,727.05	86.8135	7,727.05	87.1842	7,727.05	84.6738	7,727.05	85.6302	7,727.05	83.4075	7,727.05	84.3781	7,727.05	82.4707	7,727.05	83.3997	7,727.05	80.4395	7,727.05	81.1013	7,727.05	78.2113	7,727.05	77.4915	7,727.05	75.0602	7,727.05	73.8011	7,727.05	71.8925	7,727.05	69.7475	7,727.05	68.6125	7,727.05	66.9333	7,727.05	65.505	7,727.05	59.6667	7,727.05	55.0316	7,727.05	52.9607	7,727.05	60.821	7,727.05	55.7178	7,727.05	66.6233	7,727.05	64.4018	7,727.05	69.9607	7,727.05	69.3075	7,727.05	56.2033	7,727.05	58.2721	7,727.05	61.8475
7,999.51	86.5175	7,999.51	86.6941	7,999.51	86.7351	7,999.51	87.6806	7,999.51	87.8115	7,999.51	87.4131	7,999.51	87.4207	7,999.51	86.004	7,999.51	84.984	7,999.51	83.6638	7,999.51	83.449	7,999.51	83.115	7,999.51	82.7075	7,999.51	80.7736	7,999.51	81.1093	7,999.51	78.094	7,999.51	77.6557	7,999.51	74.3212	7,999.51	74.0211	7,999.51	70.1339	7,999.51	70.6863	7,999.51	68.1371	7,999.51	67.4544	7,999.51	61.7716	7,999.51	65.6723	7,999.51	52.9553	7,999.51	59.8859	7,999.51	60.4345	7,999.51	59.598	7,999.51	65.124	7,999.51	63.87	7,999.51	68.7729	7,999.51	66.1251	7,999.51	49.4849	7,999.51	56.7848	7,999.51	59.8782
8,282.23	86.1264	8,282.23	86.7537	8,282.23	86.7528	8,282.23	86.7897	8,282.23	87.2156	8,282.23	87.3221	8,282.23	87.3757	8,282.23	85.5798	8,282.23	85.4199	8,282.23	83.3481	8,282.23	83.6944	8,282.23	82.3517	8,282.23	83.1008	8,282.23	81.4883	8,282.23	81.234	8,282.23	76.9744	8,282.23	78.387	8,282.23	74.5698	8,282.23	74.0371	8,282.23	69.7384	8,282.23	70.2016	8,282.23	67.9266	8,282.23	67.9999	8,282.23	64.4471	8,282.23	63.7132	8,282.23	54.4114	8,282.23	62.9037	8,282.23	52.0783	8,282.23	59.4826	8,282.23	65.704	8,282.23	63.1656	8,282.23	66.2653	8,282.23	65.1566	8,282.23	60.0925	8,282.23	42.384	8,282.23	60.4167
8,573.73	86.102	8,573.73	86.5418	8,573.73	86.9258	8,573.73	86.7445	8,573.73	86.5525	8,573.73	87.0941	8,573.73	86.8794	8,573.73	85.1028	8,573.73	84.8324	8,573.73	83.2894	8,573.73	83.7825	8,573.73	82.7849	8,573.73	82.5949	8,573.73	81.509	8,573.73	80.6836	8,573.73	77.8699	8,573.73	77.6403	8,573.73	74.5752	8,573.73	73.3045	8,573.73	69.4386	8,573.73	69.7486	8,573.73	67.23	8,573.73	67.0876	8,573.73	63.9585	8,573.73	61.9054	8,573.73	62.6213	8,573.73	61.1384	8,573.73	57.7833	8,573.73	57.7826	8,573.73	63.0939	8,573.73	66.1453	8,573.73	62.8842	8,573.73	63.6911	8,573.73	53.505	8,573.73	44.4949	8,573.73	60.8642
8,876.95	86.7574	8,876.95	86.9507	8,876.95	87.156	8,876.95	86.0583	8,876.95	86.5619	8,876.95	86.4971	8,876.95	86.4846	8,876.95	84.9847	8,876.95	84.9783	8,876.95	83.1721	8,876.95	83.4027	8,876.95	82.2225	8,876.95	82.7286	8,876.95	81.0096	8,876.95	81.3529	8,876.95	77.4736	8,876.95	76.9858	8,876.95	74.2517	8,876.95	74.0289	8,876.95	69.6615	8,876.95	69.8881	8,876.95	65.5342	8,876.95	66.0103	8,876.95	55.7444	8,876.95	64.1505	8,876.95	64.2516	8,876.95	65.3271	8,876.95	58.9263	8,876.95	55.3176	8,876.95	62.932	8,876.95	65.6779	8,876.95	59.6312	8,876.95	66.0803	8,876.95	56.2475	8,876.95	46.346	8,876.95	58.1381
9,188.96	86.3613	9,188.96	86.9368	9,188.96	86.7254	9,188.96	86.0466	9,188.96	86.2349	9,188.96	86.1672	9,188.96	86.0945	9,188.96	84.6021	9,188.96	84.2759	9,188.96	83.138	9,188.96	82.5799	9,188.96	82.0291	9,188.96	81.9137	9,188.96	80.6521	9,188.96	79.9997	9,188.96	77.3493	9,188.96	76.8765	9,188.96	74.7773	9,188.96	72.8378	9,188.96	69.241	9,188.96	68.3922	9,188.96	66.2865	9,188.96	66.0419	9,188.96	59.2405	9,188.96	64.0825	9,188.96	57.4131	9,188.96	64.7538	9,188.96	57.2143	9,188.96	59.3988	9,188.96	63.8874	9,188.96	64.3922	9,188.96	63.4761	9,188.96	66.558	9,188.96	54.6457	9,188.96	37.464	9,188.96	58.296
9,514.16	87.2907	9,514.16	87.3141	9,514.16	87.314	9,514.16	86.3378	9,514.16	86.3031	9,514.16	85.8972	9,514.16	85.6872	9,514.16	84.3931	9,514.16	84.3027	9,514.16	82.7144	9,514.16	82.7623	9,514.16	81.6671	9,514.16	81.1938	9,514.16	80.2402	9,514.16	78.6445	9,514.16	76.285	9,514.16	76.8578	9,514.16	74.4736	9,514.16	71.5998	9,514.16	68.8616	9,514.16	68.0899	9,514.16	65.496	9,514.16	66.5492	9,514.16	61.1754	9,514.16	63.842	9,514.16	59.2551	9,514.16	62.4677	9,514.16	56.8461	9,514.16	57.0019	9,514.16	62.1789	9,514.16	63.9249	9,514.16	63.4723	9,514.16	64.1884	9,514.16	55.4851	9,514.16	50.8782	9,514.16	59.131
9,849.61	87.6795	9,849.61	87.4465	9,849.61	87.4928	9,849.61	86.5038	9,849.61	86.3724	9,849.61	85.3755	9,849.61	85.2144	9,849.61	84.15	9,849.61	84.0111	9,849.61	82.4883	9,849.61	82.1364	9,849.61	81.1085	9,849.61	80.9608	9,849.61	79.646	9,849.61	78.9316	9,849.61	76.4654	9,849.61	75.1024	9,849.61	73.0722	9,849.61	70.7966	9,849.61	68.3904	9,849.61	67.8241	9,849.61	62.5302	9,849.61	64.9982	9,849.61	60.0307	9,849.61	62.5963	9,849.61	62.6884	9,849.61	59.8711	9,849.61	52.0227	9,849.61	55.3144	9,849.61	61.6165	9,849.61	62.6884	9,849.61	62.727	9,849.61	61.2716	9,849.61	53.4607	9,849.61	47.2929	9,849.61	57.7697
10,196.8	87.8383	10,196.8	87.6129	10,196.8	87.7281	10,196.8	86.6491	10,196.8	86.7728	10,196.8	85.2771	10,196.8	85.3879	10,196.8	84.1971	10,196.8	84.1296	10,196.8	81.9464	10,196.8	81.4411	10,196.8	80.7708	10,196.8	80.7924	10,196.8	78.674	10,196.8	78.5757	10,196.8	75.4309	10,196.8	74.7474	10,196.8	72.2858	10,196.8	69.9347	10,196.8	67.293	10,196.8	66.5817	10,196.8	62.8139	10,196.8	64.1758	10,196.8	62.2779	10,196.8	62.6772	10,196.8	60.2034	10,196.8	55.7556	10,196.8	54.7072	10,196.8	53.2445	10,196.8	60.3322	10,196.8	60.0361	10,196.8	61.6038	10,196.8	60.889	10,196.8	54.7158	10,196.8	51.5824	10,196.8	56.4025
10,555.7	88.0031	10,555.7	87.6805	10,555.7	87.7943	10,555.7	86.8879	10,555.7	86.6363	10,555.7	85.7729	10,555.7	85.5027	10,555.7	84.3055	10,555.7	84.3105	10,555.7	81.5326	10,555.7	81.5963	10,555.7	80.5795	10,555.7	79.6607	10,555.7	77.7348	10,555.7	76.8771	10,555.7	74.7383	10,555.7	73.1484	10,555.7	70.9384	10,555.7	68.2633	10,555.7	66.6656	10,555.7	64.574	10,555.7	63.8903	10,555.7	63.5585	10,555.7	61.5442	10,555.7	61.6409	10,555.7	59.195	10,555.7	52.3506	10,555.7	51.8241	10,555.7	50.3171	10,555.7	60.2294	10,555.7	58.7237	10,555.7	60.2937	10,555.7	58.755	10,555.7	51.9514	10,555.7	49.3234	10,555.7	58.361
10,927.7	88.2127	10,927.7	87.6973	10,927.7	87.9995	10,927.7	87.1878	10,927.7	86.7863	10,927.7	86.019	10,927.7	85.6473	10,927.7	84.5996	10,927.7	84.2331	10,927.7	81.7551	10,927.7	81.6918	10,927.7	79.6838	10,927.7	79.1697	10,927.7	77.028	10,927.7	76.5587	10,927.7	73.9281	10,927.7	71.9825	10,927.7	70.635	10,927.7	67.4009	10,927.7	65.2165	10,927.7	64.3823	10,927.7	61.5926	10,927.7	61.741	10,927.7	59.9938	10,927.7	60.6228	10,927.7	59.5014	10,927.7	47.6449	10,927.7	46.9375	10,927.7	51.6817	10,927.7	60.1769	10,927.7	58.3685	10,927.7	58.5159	10,927.7	57.6522	10,927.7	50.9009	10,927.7	52.1311	10,927.7	56.8054
11,313	88.3535	11,313	87.8781	11,313	87.934	11,313	87.0572	11,313	86.8004	11,313	86.108	11,313	85.8421	11,313	84.5181	11,313	84.2335	11,313	81.9059	11,313	81.2014	11,313	79.5992	11,313	79.0404	11,313	77.2284	11,313	76.2463	11,313	73.2156	11,313	72.0144	11,313	70.4441	11,313	67.5752	11,313	64.2899	11,313	64.4184	11,313	63.7025	11,313	61.987	11,313	61.4619	11,313	58.7005	11,313	57.117	11,313	45.0063	11,313	46.7756	11,313	53.1835	11,313	59.0895	11,313	57.7983	11,313	54.2047	11,313	56.1828	11,313	48.3341	11,313	49.1566	11,313	56.6726
11,712.9	88.1483	11,712.9	87.8027	11,712.9	87.7356	11,712.9	87.031	11,712.9	86.6659	11,712.9	86.2338	11,712.9	85.7413	11,712.9	84.7756	11,712.9	83.9312	11,712.9	81.7435	11,712.9	80.5989	11,712.9	79.6308	11,712.9	78.2725	11,712.9	77.5543	11,712.9	75.4878	11,712.9	73.1471	11,712.9	71.4681	11,712.9	70.3378	11,712.9	67.0098	11,712.9	63.9756	11,712.9	64.3405	11,712.9	62.9673	11,712.9	61.7153	11,712.9	61.5752	11,712.9	58.7042	11,712.9	57.0427	11,712.9	50.3738	11,712.9	44.5063	11,712.9	53.8756	11,712.9	58.4985	11,712.9	55.8	11,712.9	54.7947	11,712.9	57.8114	11,712.9	48.7138	11,712.9	50.4521	11,712.9	56.2355
12,126	88.1741	12,126	87.7809	12,126	87.7677	12,126	87.1065	12,126	86.707	12,126	85.9977	12,126	85.5309	12,126	84.4023	12,126	83.588	12,126	81.2272	12,126	79.8895	12,126	78.776	12,126	77.7141	12,126	76.7454	12,126	75.2695	12,126	72.4861	12,126	71.1446	12,126	69.6297	12,126	67.1108	12,126	63.3888	12,126	63.3055	12,126	63.1071	12,126	61.4163	12,126	60.9346	12,126	57.6876	12,126	57.3139	12,126	53.9227	12,126	40.5855	12,126	53.5074	12,126	56.7198	12,126	54.4545	12,126	53.7106	12,126	55.6344	12,126	45.1598	12,126	48.7035	12,126	54.5819
12,553.7	88.0937	12,553.7	87.8447	12,553.7	87.7409	12,553.7	86.8923	12,553.7	86.8139	12,553.7	85.5633	12,553.7	85.2968	12,553.7	83.6289	12,553.7	82.8373	12,553.7	80.0564	12,553.7	78.5497	12,553.7	77.9981	12,553.7	76.1952	12,553.7	76.4822	12,553.7	74.1071	12,553.7	72.9054	12,553.7	71.6717	12,553.7	70.0974	12,553.7	67.4653	12,553.7	64.3724	12,553.7	64.0935	12,553.7	63.3609	12,553.7	61.3628	12,553.7	60.6444	12,553.7	54.8139	12,553.7	57.0586	12,553.7	55.7075	12,553.7	44.1346	12,553.7	51.489	12,553.7	57.8318	12,553.7	54.0812	12,553.7	50.0669	12,553.7	47.835	12,553.7	52.1935	12,553.7	45.7287	12,553.7	54.2218
12,996.1	88.0783	12,996.1	87.6472	12,996.1	87.6715	12,996.1	86.5456	12,996.1	86.5866	12,996.1	85.0749	12,996.1	84.5789	12,996.1	82.6146	12,996.1	81.4351	12,996.1	78.5452	12,996.1	76.6509	12,996.1	76.7594	12,996.1	74.7243	12,996.1	76.0686	12,996.1	74.3874	12,996.1	72.768	12,996.1	72.198	12,996.1	69.6307	12,996.1	67.9779	12,996.1	64.3411	12,996.1	64.8195	12,996.1	63.7105	12,996.1	62.6538	12,996.1	59.0643	12,996.1	50.1235	12,996.1	55.597	12,996.1	55.5422	12,996.1	46.3869	12,996.1	50.7226	12,996.1	56.374	12,996.1	53.2561	12,996.1	42.7211	12,996.1	42.127	12,996.1	50.3111	12,996.1	47.3502	12,996.1	51.3768
13,454.6	87.6491	13,454.6	87.1124	13,454.6	87.2305	13,454.6	86.0273	13,454.6	86.1338	13,454.6	84.0673	13,454.6	83.527	13,454.6	80.7016	13,454.6	79.8889	13,454.6	76.2704	13,454.6	75.2235	13,454.6	74.3179	13,454.6	74.6432	13,454.6	75.1296	13,454.6	75.1561	13,454.6	71.9398	13,454.6	72.942	13,454.6	69.2227	13,454.6	68.5468	13,454.6	63.2617	13,454.6	64.9346	13,454.6	62.8768	13,454.6	62.1228	13,454.6	57.7256	13,454.6	53.5928	13,454.6	54.2677	13,454.6	56.466	13,454.6	46.9724	13,454.6	51.6756	13,454.6	54.4145	13,454.6	52.8188	13,454.6	42.4575	13,454.6	40.1934	13,454.6	51.2113	13,454.6	50.5225	13,454.6	50.3218
13,929.2	87.2971	13,929.2	86.8829	13,929.2	87.0401	13,929.2	85.5741	13,929.2	85.7094	13,929.2	83.1244	13,929.2	82.5244	13,929.2	78.8881	13,929.2	78.7943	13,929.2	74.3898	13,929.2	75.3051	13,929.2	73.0007	13,929.2	75.1401	13,929.2	74.8043	13,929.2	75.1664	13,929.2	72.2156	13,929.2	73.1399	13,929.2	68.6047	13,929.2	68.2584	13,929.2	63.1124	13,929.2	64.9441	13,929.2	62.516	13,929.2	61.544	13,929.2	56.2172	13,929.2	54.7655	13,929.2	55.3837	13,929.2	57.442	13,929.2	41.8285	13,929.2	51.9234	13,929.2	51.7112	13,929.2	52.5992	13,929.2	43.8912	13,929.2	47.8761	13,929.2	46.071	13,929.2	39.668	13,929.2	46.3747
14,419.9	87.1117	14,419.9	86.714	14,419.9	86.9635	14,419.9	85.4417	14,419.9	85.4381	14,419.9	82.4741	14,419.9	81.7259	14,419.9	78.301	14,419.9	78.5017	14,419.9	75.6461	14,419.9	76.0702	14,419.9	74.0372	14,419.9	75.147	14,419.9	74.7447	14,419.9	74.9716	14,419.9	72.5295	14,419.9	72.2265	14,419.9	68.4197	14,419.9	67.2573	14,419.9	63.6437	14,419.9	64.331	14,419.9	61.6436	14,419.9	60.1463	14,419.9	55.9509	14,419.9	51.8549	14,419.9	54.2183	14,419.9	56.5213	14,419.9	48.5807	14,419.9	49.3207	14,419.9	46.7247	14,419.9	50.6646	14,419.9	30.3335	14,419.9	51.0557	14,419.9	47.9223	14,419.9	42.9466	14,419.9	44.7431
14,928.2	86.7326	14,928.2	86.4983	14,928.2	86.8015	14,928.2	85.1176	14,928.2	84.9164	14,928.2	82.137	14,928.2	81.0093	14,928.2	78.7813	14,928.2	78.4499	14,928.2	76.6228	14,928.2	76.0365	14,928.2	74.4316	14,928.2	74.8716	14,928.2	74.403	14,928.2	74.71	14,928.2	71.9664	14,928.2	71.5135	14,928.2	67.5704	14,928.2	65.6862	14,928.2	63.1146	14,928.2	63.0821	14,928.2	61.563	14,928.2	58.0467	14,928.2	53.5015	14,928.2	48.2432	14,928.2	51.246	14,928.2	53.1006	14,928.2	50.608	14,928.2	45.6214	14,928.2	45.0877	14,928.2	48.4092	14,928.2	37.8299	14,928.2	51.2746	14,928.2	50.3845	14,928.2	44.2512	14,928.2	42.7025
15,455.6	86.5061	15,455.6	86.2953	15,455.6	86.4657	15,455.6	84.8116	15,455.6	84.3461	15,455.6	81.6307	15,455.6	80.4805	15,455.6	78.4728	15,455.6	77.9417	15,455.6	76.6176	15,455.6	75.456	15,455.6	74.2784	15,455.6	74.2551	15,455.6	73.6998	15,455.6	74.1815	15,455.6	69.8853	15,455.6	70.2835	15,455.6	66.4716	15,455.6	64.6563	15,455.6	61.4196	15,455.6	61.923	15,455.6	58.3217	15,455.6	56.224	15,455.6	52.5021	15,455.6	47.9527	15,455.6	44.3302	15,455.6	48.2501	15,455.6	49.006	15,455.6	44.9153	15,455.6	38.4321	15,455.6	46.7217	15,455.6	44.2458	15,455.6	50.6436	15,455.6	50.7878	15,455.6	47.4342	15,455.6	42.9908
16,000.5	86.3384	16,000.5	86.0101	16,000.5	86.0763	16,000.5	84.173	16,000.5	83.6202	16,000.5	80.6603	16,000.5	79.9273	16,000.5	78.0432	16,000.5	77.4875	16,000.5	76.4077	16,000.5	75.5764	16,000.5	73.9864	16,000.5	74.2078	16,000.5	73.3123	16,000.5	73.7968	16,000.5	69.1816	16,000.5	70.0962	16,000.5	66.2606	16,000.5	64.4876	16,000.5	60.4316	16,000.5	60.7258	16,000.5	57.5885	16,000.5	54.916	16,000.5	52.4862	16,000.5	45.007	16,000.5	45.0596	16,000.5	49.5454	16,000.5	52.152	16,000.5	40.5846	16,000.5	38.1955	16,000.5	46.0621	16,000.5	46.5371	16,000.5	54.0751	16,000.5	48.4423	16,000.5	46.3203	16,000.5	40.8675
16,564.5	86.1463	16,564.5	85.8639	16,564.5	85.5987	16,564.5	83.916	16,564.5	83.0277	16,564.5	80.4737	16,564.5	79.7792	16,564.5	77.8447	16,564.5	77.4399	16,564.5	76.0062	16,564.5	75.8398	16,564.5	73.3458	16,564.5	73.6255	16,564.5	73.5425	16,564.5	72.7819	16,564.5	68.6617	16,564.5	69.9017	16,564.5	65.8304	16,564.5	63.9442	16,564.5	59.248	16,564.5	59.1764	16,564.5	58.0906	16,564.5	52.9308	16,564.5	51.9283	16,564.5	48.0271	16,564.5	38.4606	16,564.5	50.1803	16,564.5	50.6629	16,564.5	42.3614	16,564.5	44.398	16,564.5	36.8069	16,564.5	47.3342	16,564.5	50.7833	16,564.5	47.6911	16,564.5	43.657	16,564.5	40.3686
17,148.9	86.1907	17,148.9	85.6739	17,148.9	85.3765	17,148.9	83.4801	17,148.9	82.8418	17,148.9	80.3784	17,148.9	79.5264	17,148.9	77.6078	17,148.9	77.4131	17,148.9	75.9065	17,148.9	75.8495	17,148.9	73.0261	17,148.9	73.0347	17,148.9	72.9829	17,148.9	71.8668	17,148.9	68.5801	17,148.9	68.9918	17,148.9	65.4085	17,148.9	63.4267	17,148.9	59.6442	17,148.9	57.915	17,148.9	58.263	17,148.9	51.9318	17,148.9	52.6506	17,148.9	48.6933	17,148.9	38.7906	17,148.9	51.2192	17,148.9	49.1535	17,148.9	38.5377	17,148.9	43.0184	17,148.9	34.5757	17,148.9	51.4812	17,148.9	47.2096	17,148.9	48.2496	17,148.9	42.6771	17,148.9	44.159
17,752.4	86.1599	17,752.4	85.5029	17,752.4	85.0129	17,752.4	82.9836	17,752.4	82.3503	17,752.4	79.9847	17,752.4	79.1286	17,752.4	77.0434	17,752.4	77.2331	17,752.4	75.5572	17,752.4	75.3759	17,752.4	72.409	17,752.4	72.0504	17,752.4	72.3417	17,752.4	70.6238	17,752.4	68.9508	17,752.4	68.49	17,752.4	64.8013	17,752.4	62.9701	17,752.4	59.3109	17,752.4	57.5281	17,752.4	58.0412	17,752.4	52.5529	17,752.4	51.3523	17,752.4	48.8326	17,752.4	30.1179	17,752.4	49.5105	17,752.4	47.9895	17,752.4	36.7259	17,752.4	44.7389	17,752.4	40.0113	17,752.4	51.1009	17,752.4	43.6127	17,752.4	46.124	17,752.4	37.958	17,752.4	43.2473
18,379.4	86.0009	18,379.4	84.8977	18,379.4	84.4659	18,379.4	82.4086	18,379.4	81.8587	18,379.4	79.4087	18,379.4	78.2805	18,379.4	76.3565	18,379.4	76.193	18,379.4	74.7435	18,379.4	73.8805	18,379.4	71.6453	18,379.4	70.9416	18,379.4	71.2337	18,379.4	70.1196	18,379.4	69.1695	18,379.4	67.147	18,379.4	64.6419	18,379.4	62.5894	18,379.4	58.4824	18,379.4	56.3414	18,379.4	57.2031	18,379.4	51.7536	18,379.4	49.4556	18,379.4	46.6885	18,379.4	40.363	18,379.4	45.5514	18,379.4	47.0845	18,379.4	42.8116	18,379.4	43.1646	18,379.4	47.5238	18,379.4	47.7422	18,379.4	38.3416	18,379.4	44.4279	18,379.4	37.9956	18,379.4	38.3085
19,026.9	85.6831	19,026.9	84.6662	19,026.9	83.8145	19,026.9	81.7738	19,026.9	80.9734	19,026.9	78.4314	19,026.9	77.4145	19,026.9	75.319	19,026.9	75.02	19,026.9	73.7169	19,026.9	72.3739	19,026.9	70.9483	19,026.9	70.7399	19,026.9	70.5833	19,026.9	70.0257	19,026.9	68.1361	19,026.9	66.1256	19,026.9	64.118	19,026.9	61.7442	19,026.9	57.5893	19,026.9	56.0841	19,026.9	55.2286	19,026.9	50.6477	19,026.9	48.2305	19,026.9	46.6795	19,026.9	40.7957	19,026.9	47.1406	19,026.9	43.1413	19,026.9	45.2183	19,026.9	47.1259	19,026.9	48.8609	19,026.9	43.1659	19,026.9	44.9185	19,026.9	43.9189	19,026.9	39.3743	19,026.9	32.4908
19,697.8	85.1975	19,697.8	84.0064	19,697.8	83.2686	19,697.8	80.9963	19,697.8	79.9791	19,697.8	77.5809	19,697.8	76.2054	19,697.8	74.3814	19,697.8	73.7587	19,697.8	72.8453	19,697.8	72.2173	19,697.8	70.905	19,697.8	70.8993	19,697.8	69.4973	19,697.8	69.817	19,697.8	67.6229	19,697.8	66.233	19,697.8	62.7604	19,697.8	60.6738	19,697.8	55.4801	19,697.8	55.5028	19,697.8	53.7595	19,697.8	49.1454	19,697.8	45.8061	19,697.8	45.6922	19,697.8	43.0448	19,697.8	47.4925	19,697.8	30.0883	19,697.8	46.2806	19,697.8	44.4266	19,697.8	48.5205	19,697.8	31.8411	19,697.8	48.0647	19,697.8	41.849	19,697.8	42.3285	19,697.8	35.5274
19,999.5	85.0083	19,999.5	83.4805	19,999.5	82.9346	19,999.5	80.7436	19,999.5	79.4925	19,999.5	76.9134	19,999.5	75.9302	19,999.5	73.7131	19,999.5	72.8946	19,999.5	72.945	19,999.5	72.6417	19,999.5	70.8073	19,999.5	70.4869	19,999.5	68.5411	19,999.5	69.4517	19,999.5	66.7209	19,999.5	64.8658	19,999.5	62.0087	19,999.5	60.1133	19,999.5	54.1521	19,999.5	51.5574	19,999.5	53.5177	19,999.5	47.7219	19,999.5	39.3958	19,999.5	52.0261	19,999.5	41.7787	19,999.5	56.1029	19,999.5	36.1339	19,999.5	44.6691	19,999.5	36.4659	19,999.5	47.4961	19,999.5	30.0267	19,999.5	48.9818	19,999.5	41.4317	19,999.5	46.077	19,999.5	43.7839
