"SPL Vertical"
"On-Axis"		"10°"		"-10°"		"20°"		"-20°"		"30°"		"-30°"		"40°"		"-40°"		"50°"		"-50°"		"60°"		"-60°"		"70°"		"-70°"		"80°"		"-80°"		"90°"		"-90°"		"100°"		"-100°"		"110°"		"-110°"		"120°"		"-120°"		"130°"		"-130°"		"140°"		"-140°"		"150°"		"-150°"		"160°"		"-160°"		"170°"		"-170°"		"180°"
"Frequency / Hz"	"Sound Pressure Level / dB (re 20 µPa/V)  [2.83  V @ 1. m]"	"Frequency / Hz"	"Sound Pressure Level / dB (re 20 µPa/V)  [2.83  V @ 1. m]"	"Frequency / Hz"	"Sound Pressure Level / dB (re 20 µPa/V)  [2.83  V @ 1. m]"	"Frequency / Hz"	"Sound Pressure Level / dB (re 20 µPa/V)  [2.83  V @ 1. m]"	"Frequency / Hz"	"Sound Pressure Level / dB (re 20 µPa/V)  [2.83  V @ 1. m]"	"Frequency / Hz"	"Sound Pressure Level / dB (re 20 µPa/V)  [2.83  V @ 1. m]"	"Frequency / Hz"	"Sound Pressure Level / dB (re 20 µPa/V)  [2.83  V @ 1. m]"	"Frequency / Hz"	"Sound Pressure Level / dB (re 20 µPa/V)  [2.83  V @ 1. m]"	"Frequency / Hz"	"Sound Pressure Level / dB (re 20 µPa/V)  [2.83  V @ 1. m]"	"Frequency / Hz"	"Sound Pressure Level / dB (re 20 µPa/V)  [2.83  V @ 1. m]"	"Frequency / Hz"	"Sound Pressure Level / dB (re 20 µPa/V)  [2.83  V @ 1. m]"	"Frequency / Hz"	"Sound Pressure Level / dB (re 20 µPa/V)  [2.83  V @ 1. m]"	"Frequency / Hz"	"Sound Pressure Level / dB (re 20 µPa/V)  [2.83  V @ 1. m]"	"Frequency / Hz"	"Sound Pressure Level / dB (re 20 µPa/V)  [2.83  V @ 1. m]"	"Frequency / Hz"	"Sound Pressure Level / dB (re 20 µPa/V)  [2.83  V @ 1. m]"	"Frequency / Hz"	"Sound Pressure Level / dB (re 20 µPa/V)  [2.83  V @ 1. m]"	"Frequency / Hz"	"Sound Pressure Level / dB (re 20 µPa/V)  [2.83  V @ 1. m]"	"Frequency / Hz"	"Sound Pressure Level / dB (re 20 µPa/V)  [2.83  V @ 1. m]"	"Frequency / Hz"	"Sound Pressure Level / dB (re 20 µPa/V)  [2.83  V @ 1. m]"	"Frequency / Hz"	"Sound Pressure Level / dB (re 20 µPa/V)  [2.83  V @ 1. m]"	"Frequency / Hz"	"Sound Pressure Level / dB (re 20 µPa/V)  [2.83  V @ 1. m]"	"Frequency / Hz"	"Sound Pressure Level / dB (re 20 µPa/V)  [2.83  V @ 1. m]"	"Frequency / Hz"	"Sound Pressure Level / dB (re 20 µPa/V)  [2.83  V @ 1. m]"	"Frequency / Hz"	"Sound Pressure Level / dB (re 20 µPa/V)  [2.83  V @ 1. m]"	"Frequency / Hz"	"Sound Pressure Level / dB (re 20 µPa/V)  [2.83  V @ 1. m]"	"Frequency / Hz"	"Sound Pressure Level / dB (re 20 µPa/V)  [2.83  V @ 1. m]"	"Frequency / Hz"	"Sound Pressure Level / dB (re 20 µPa/V)  [2.83  V @ 1. m]"	"Frequency / Hz"	"Sound Pressure Level / dB (re 20 µPa/V)  [2.83  V @ 1. m]"	"Frequency / Hz"	"Sound Pressure Level / dB (re 20 µPa/V)  [2.83  V @ 1. m]"	"Frequency / Hz"	"Sound Pressure Level / dB (re 20 µPa/V)  [2.83  V @ 1. m]"	"Frequency / Hz"	"Sound Pressure Level / dB (re 20 µPa/V)  [2.83  V @ 1. m]"	"Frequency / Hz"	"Sound Pressure Level / dB (re 20 µPa/V)  [2.83  V @ 1. m]"	"Frequency / Hz"	"Sound Pressure Level / dB (re 20 µPa/V)  [2.83  V @ 1. m]"	"Frequency / Hz"	"Sound Pressure Level / dB (re 20 µPa/V)  [2.83  V @ 1. m]"	"Frequency / Hz"	"Sound Pressure Level / dB (re 20 µPa/V)  [2.83  V @ 1. m]"	"Frequency / Hz"	"Sound Pressure Level / dB (re 20 µPa/V)  [2.83  V @ 1. m]"
20.5078	59.397	20.5078	58.7962	20.5078	59.7537	20.5078	57.935	20.5078	59.8687	20.5078	56.7852	20.5078	59.729	20.5078	55.3238	20.5078	59.3039	20.5078	53.6084	20.5078	58.5435	20.5078	52.0497	20.5078	57.3811	20.5078	51.7485	20.5078	55.7778	20.5078	53.2842	20.5078	53.9748	20.5078	55.6187	20.5078	53.2294	20.5078	57.8902	20.5078	54.8872	20.5078	59.8667	20.5078	57.624	20.5078	61.536	20.5078	60.1359	20.5078	62.9261	20.5078	62.1516	20.5078	64.0607	20.5078	63.6944	20.5078	64.9527	20.5078	64.8227	20.5078	65.6039	20.5078	65.5852	20.5078	66.0081	20.5078	66.019	20.5078	66.1524
21.9727	59.5617	21.9727	59.0643	21.9727	59.8963	21.9727	58.4477	21.9727	60.0435	21.9727	57.7984	21.9727	59.9852	21.9727	57.2775	21.9727	59.7082	21.9727	57.1192	21.9727	59.2133	21.9727	57.5202	21.9727	58.5517	21.9727	58.4711	21.9727	57.9089	21.9727	59.7692	21.9727	57.7027	21.9727	61.1908	21.9727	58.389	21.9727	62.5895	21.9727	59.9081	21.9727	63.8908	21.9727	61.757	21.9727	65.0603	21.9727	63.5377	21.9727	66.0808	21.9727	65.0786	21.9727	66.9406	21.9727	66.3298	21.9727	67.6282	21.9727	67.2865	21.9727	68.1301	21.9727	67.9593	21.9727	68.4312	21.9727	68.3631	21.9727	68.5146
23.4375	60.4786	23.4375	60.0051	23.4375	60.7847	23.4375	59.4026	23.4375	60.9001	23.4375	58.7471	23.4375	60.8072	23.4375	58.1847	23.4375	60.4923	23.4375	57.9426	23.4375	59.9586	23.4375	58.2413	23.4375	59.2659	23.4375	59.1163	23.4375	58.625	23.4375	60.385	23.4375	58.4883	23.4375	61.8122	23.4375	59.2927	23.4375	63.234	23.4375	60.8976	23.4375	64.5648	23.4375	62.7739	23.4375	65.7648	23.4375	64.5472	23.4375	66.8146	23.4375	66.0669	23.4375	67.702	23.4375	67.2924	23.4375	68.4157	23.4375	68.2229	23.4375	68.9426	23.4375	68.8698	23.4375	69.2679	23.4375	69.2485	23.4375	69.3756
24.9023	62.7831	24.9023	62.4652	24.9023	63.0044	24.9023	62.0933	24.9023	63.1028	24.9023	61.735	24.9023	63.0632	24.9023	61.4878	24.9023	62.8834	24.9023	61.4682	24.9023	62.5843	24.9023	61.7697	24.9023	62.234	24.9023	62.4092	24.9023	61.9826	24.9023	63.3171	24.9023	62.0646	24.9023	64.3811	24.9023	62.6772	24.9023	65.4971	24.9023	63.7926	24.9023	66.5895	24.9023	65.1767	24.9023	67.6094	24.9023	66.584	24.9023	68.5247	24.9023	67.8595	24.9023	69.3124	24.9023	68.9281	24.9023	69.9535	24.9023	69.7604	24.9023	70.43	24.9023	70.3493	24.9023	70.7243	24.9023	70.6989	24.9023	70.8193
26.3672	64.874	26.3672	64.6953	26.3672	64.9987	26.3672	64.4914	26.3672	65.0499	26.3672	64.3026	26.3672	65.017	26.3672	64.1815	26.3672	64.9007	26.3672	64.1877	26.3672	64.7202	26.3672	64.375	26.3672	64.5271	26.3672	64.772	26.3672	64.4194	26.3672	65.3695	26.3672	64.5357	26.3672	66.1237	26.3672	64.9968	26.3672	66.9736	26.3672	65.8153	26.3672	67.8579	26.3672	66.8761	26.3672	68.7245	26.3672	68.0138	26.3672	69.5322	26.3672	69.0912	26.3672	70.2478	26.3672	70.0217	26.3672	70.844	26.3672	70.7594	26.3672	71.2968	26.3672	71.2843	26.3672	71.5846	26.3672	71.5923	26.3672	71.6885
27.832	65.6138	27.832	65.3697	27.832	65.7833	27.832	65.0849	27.832	65.8576	27.832	64.8109	27.832	65.8276	27.832	64.619	27.832	65.6976	27.832	64.5926	27.832	65.494	27.832	64.8041	27.832	65.2802	27.832	65.2828	27.832	65.1721	27.832	65.9989	27.832	65.326	27.832	66.8802	27.832	65.8627	27.832	67.844	27.832	66.7705	27.832	68.819	27.832	67.9062	27.832	69.7523	27.832	69.0939	27.832	70.6059	27.832	70.1999	27.832	71.3512	27.832	71.1453	27.832	71.9653	27.832	71.8904	27.832	72.4279	27.832	72.419	27.832	72.7203	27.832	72.7288	27.832	72.8255
29.2969	67.0814	29.2969	66.901	29.2969	67.2186	29.2969	66.7087	29.2969	67.2927	29.2969	66.548	29.2969	67.2959	29.2969	66.4726	29.2969	67.2343	29.2969	66.5387	29.2969	67.1344	29.2969	66.7897	29.2969	67.0522	29.2969	67.2403	29.2969	67.0777	29.2969	67.8702	29.2969	67.3182	29.2969	68.6323	29.2969	67.8482	29.2969	69.4696	29.2969	68.6553	29.2969	70.328	29.2969	69.6414	29.2969	71.1624	29.2969	70.6781	29.2969	71.9368	29.2969	71.6564	29.2969	72.6221	29.2969	72.5032	29.2969	73.1934	29.2969	73.1763	29.2969	73.6288	29.2969	73.6551	29.2969	73.9084	29.2969	73.9336	29.2969	74.0147
30.7617	68.3492	30.7617	68.2209	30.7617	68.451	30.7617	68.0918	30.7617	68.5099	30.7617	67.9963	30.7617	68.5201	30.7617	67.9753	30.7617	68.4888	30.7617	68.0703	30.7617	68.4405	30.7617	68.3135	30.7617	68.4235	30.7617	68.7178	30.7617	68.5097	30.7617	69.2716	30.7617	68.7789	30.7617	69.9429	30.7617	69.2836	30.7617	70.6884	30.7617	70.0133	30.7617	71.4633	30.7617	70.8943	30.7617	72.2267	30.7617	71.8252	30.7617	72.9435	30.7617	72.7133	30.7617	73.5837	30.7617	73.4907	30.7617	74.121	30.7617	74.1146	30.7617	74.5325	30.7617	74.5617	30.7617	74.7975	30.7617	74.8229	30.7617	74.8988
32.2266	70.3911	32.2266	70.2862	32.2266	70.4796	32.2266	70.185	32.2266	70.5397	32.2266	70.1149	32.2266	70.5687	32.2266	70.1079	32.2266	70.5758	32.2266	70.1968	32.2266	70.584	32.2266	70.408	32.2266	70.6331	32.2266	70.7546	32.2266	70.7766	32.2266	71.2318	32.2266	71.0689	32.2266	71.818	32.2266	71.5429	32.2266	72.4803	32.2266	72.1896	32.2266	73.1814	32.2266	72.9568	32.2266	73.8843	32.2266	73.769	32.2266	74.5553	32.2266	74.5509	32.2266	75.164	32.2266	75.2418	32.2266	75.6832	32.2266	75.7989	32.2266	76.0883	32.2266	76.1964	32.2266	76.3577	32.2266	76.4217	32.2266	76.4732
33.6914	71.6221	33.6914	71.5269	33.6914	71.7144	33.6914	71.4459	33.6914	71.7939	33.6914	71.4015	33.6914	71.8587	33.6914	71.4197	33.6914	71.916	33.6914	71.5262	33.6914	71.9844	33.6914	71.741	33.6914	72.0936	33.6914	72.0735	33.6914	72.2822	33.6914	72.5194	33.6914	72.588	33.6914	73.0612	33.6914	73.034	33.6914	73.672	33.6914	73.6142	33.6914	74.3202	33.6914	74.2916	33.6914	74.9733	33.6914	75.009	33.6914	75.6005	33.6914	75.7046	33.6914	76.1728	33.6914	76.3241	33.6914	76.6641	33.6914	76.8267	33.6914	77.0501	33.6914	77.1855	33.6914	77.3099	33.6914	77.3864	33.6914	77.4261
35.1562	72.7811	35.1562	72.6973	35.1562	72.8686	35.1562	72.6328	35.1562	72.95	35.1562	72.6074	35.1562	73.0221	35.1562	72.6429	35.1562	73.0907	35.1562	72.7601	35.1562	73.1711	35.1562	72.9746	35.1562	73.2893	35.1562	73.2935	35.1562	73.4792	35.1562	73.7127	35.1562	73.7745	35.1562	74.2177	35.1562	74.1961	35.1562	74.7859	35.1562	74.74	35.1562	75.3902	35.1562	75.3744	35.1562	76.0016	35.1562	76.0481	35.1562	76.5918	35.1562	76.7038	35.1562	77.1333	35.1562	77.2898	35.1562	77.6004	35.1562	77.7664	35.1562	77.9694	35.1562	78.1067	35.1562	78.2191	35.1562	78.2965	35.1562	78.3322
36.6211	74.0145	36.6211	73.9518	36.6211	74.0887	36.6211	73.9121	36.6211	74.1672	36.6211	73.9102	36.6211	74.2482	36.6211	73.9623	36.6211	74.3369	36.6211	74.0836	36.6211	74.4454	36.6211	74.2861	36.6211	74.5933	36.6211	74.5753	36.6211	74.8047	36.6211	74.9492	36.6211	75.1026	36.6211	75.3978	36.6211	75.5004	36.6211	75.9041	36.6211	75.994	36.6211	76.4463	36.6211	76.559	36.6211	76.9999	36.6211	77.1553	36.6211	77.5393	36.6211	77.7362	36.6211	78.0389	36.6211	78.257	36.6211	78.4739	36.6211	78.6814	36.6211	78.821	36.6211	78.9836	36.6211	79.0596	36.6211	79.1488	36.6211	79.1727
38.0859	75.3193	38.0859	75.2666	38.0859	75.3879	38.0859	75.2386	38.0859	75.4668	38.0859	75.2467	38.0859	75.5547	38.0859	75.3029	38.0859	75.6555	38.0859	75.4191	38.0859	75.7786	38.0859	75.6045	38.0859	75.9386	38.0859	75.8641	38.0859	76.1533	38.0859	76.1971	38.0859	76.4396	38.0859	76.5968	38.0859	76.8071	38.0859	77.0502	38.0859	77.2527	38.0859	77.5398	38.0859	77.7574	38.0859	78.0446	38.0859	78.2892	38.0859	78.5414	38.0859	78.8088	38.0859	79.0063	38.0859	79.2766	38.0859	79.415	38.0859	79.6586	38.0859	79.7448	38.0859	79.9297	38.0859	79.9748	38.0859	80.0748	38.0859	80.0885
39.5508	76.4403	39.5508	76.3911	39.5508	76.5068	39.5508	76.3662	39.5508	76.5863	39.5508	76.3742	39.5508	76.678	39.5508	76.4249	39.5508	76.7848	39.5508	76.5278	39.5508	76.914	39.5508	76.6906	39.5508	77.0765	39.5508	76.9182	39.5508	77.2858	39.5508	77.2114	39.5508	77.5546	39.5508	77.5658	39.5508	77.8902	39.5508	77.9716	39.5508	78.2905	39.5508	78.4147	39.5508	78.7409	39.5508	78.8767	39.5508	79.2151	39.5508	79.3366	39.5508	79.6797	39.5508	79.7714	39.5508	80.0993	39.5508	80.1579	39.5508	80.4423	39.5508	80.4733	39.5508	80.6841	39.5508	80.697	39.5508	80.8095	39.5508	80.8127
41.0156	77.2806	41.0156	77.2339	41.0156	77.3462	41.0156	77.2117	41.0156	77.4275	41.0156	77.2208	41.0156	77.5238	41.0156	77.2691	41.0156	77.6374	41.0156	77.3641	41.0156	77.7738	41.0156	77.5127	41.0156	77.9413	41.0156	77.7194	41.0156	78.1499	41.0156	77.9852	41.0156	78.4091	41.0156	78.3074	41.0156	78.7242	41.0156	78.6783	41.0156	79.0929	41.0156	79.086	41.0156	79.5032	41.0156	79.5144	41.0156	79.933	41.0156	79.9442	41.0156	80.3533	41.0156	80.354	41.0156	80.7327	41.0156	80.7212	41.0156	81.042	41.0156	81.024	41.0156	81.2579	41.0156	81.2421	41.0156	81.3657	41.0156	81.3595
42.4805	78.2765	42.4805	78.2266	42.4805	78.3471	42.4805	78.2018	42.4805	78.4357	42.4805	78.2073	42.4805	78.5413	42.4805	78.2495	42.4805	78.6654	42.4805	78.3343	42.4805	78.8113	42.4805	78.4672	42.4805	78.9846	42.4805	78.6522	42.4805	79.1921	42.4805	78.8906	42.4805	79.4401	42.4805	79.1806	42.4805	79.732	42.4805	79.5162	42.4805	80.0658	42.4805	79.8877	42.4805	80.4318	42.4805	80.2812	42.4805	80.8121	42.4805	80.6795	42.4805	81.1825	42.4805	81.063	42.4805	81.5157	42.4805	81.4105	42.4805	81.7854	42.4805	81.7008	42.4805	81.9701	42.4805	81.9146	42.4805	82.0556	42.4805	82.0362
43.9453	79.0885	43.9453	79.0351	43.9453	79.1622	43.9453	79.0058	43.9453	79.2541	43.9453	79.005	43.9453	79.3631	43.9453	79.0379	43.9453	79.4901	43.9453	79.1098	43.9453	79.6374	43.9453	79.2255	43.9453	79.8091	43.9453	79.3886	43.9453	80.0099	43.9453	79.6008	43.9453	80.2443	43.9453	79.861	43.9453	80.5144	43.9453	80.1647	43.9453	80.8183	43.9453	80.5039	43.9453	81.1477	43.9453	80.8666	43.9453	81.4876	43.9453	81.2374	43.9453	81.8171	43.9453	81.5979	43.9453	82.1122	43.9453	81.9282	43.9453	82.3489	43.9453	82.2078	43.9453	82.5073	43.9453	82.418	43.9453	82.574	43.9453	82.5433
45.4102	79.8851	45.4102	79.8327	45.4102	79.958	45.4102	79.8036	45.4102	80.0493	45.4102	79.8014	45.4102	80.1583	45.4102	79.8302	45.4102	80.2853	45.4102	79.8943	45.4102	80.4315	45.4102	79.9976	45.4102	80.5996	45.4102	80.1435	45.4102	80.7926	45.4102	80.3335	45.4102	81.0131	45.4102	80.5673	45.4102	81.2624	45.4102	80.8414	45.4102	81.5385	45.4102	81.1493	45.4102	81.8344	45.4102	81.4808	45.4102	82.1376	45.4102	81.822	45.4102	82.4304	45.4102	82.1563	45.4102	82.6917	45.4102	82.4651	45.4102	82.9	45.4102	82.729	45.4102	83.037	45.4102	82.93	45.4102	83.0899	45.4102	83.0534
46.875	80.4769	46.875	80.4268	46.875	80.5488	46.875	80.4008	46.875	80.6409	46.875	80.4016	46.875	80.7524	46.875	80.4324	46.875	80.8832	46.875	80.4962	46.875	81.0338	46.875	80.5962	46.875	81.2053	46.875	80.7348	46.875	81.399	46.875	80.9131	46.875	81.6161	46.875	81.1308	46.875	81.8562	46.875	81.3851	46.875	82.1166	46.875	81.6704	46.875	82.3909	46.875	81.9779	46.875	82.6682	46.875	82.2956	46.875	82.9331	46.875	82.6085	46.875	83.1672	46.875	82.8994	46.875	83.3515	46.875	83.1503	46.875	83.4695	46.875	83.3442	46.875	83.5096	46.875	83.467
48.3398	81.0602	48.3398	81.0089	48.3398	81.1343	48.3398	80.9821	48.3398	81.2299	48.3398	80.9817	48.3398	81.346	48.3398	81.0099	48.3398	81.4818	48.3398	81.0689	48.3398	81.6369	48.3398	81.161	48.3398	81.8109	48.3398	81.2879	48.3398	82.0036	48.3398	81.4507	48.3398	82.2144	48.3398	81.6491	48.3398	82.4418	48.3398	81.881	48.3398	82.6828	48.3398	82.1421	48.3398	82.9315	48.3398	82.4249	48.3398	83.1788	48.3398	82.7191	48.3398	83.4118	48.3398	83.0112	48.3398	83.6148	48.3398	83.2855	48.3398	83.7713	48.3398	83.5252	48.3398	83.8667	48.3398	83.7142	48.3398	83.8906	48.3398	83.8389
51.2695	82.1513	51.2695	82.0946	51.2695	82.2317	51.2695	82.0624	51.2695	82.3342	51.2695	82.0558	51.2695	82.4574	51.2695	82.0758	51.2695	82.5993	51.2695	82.1232	51.2695	82.7579	51.2695	82.199	51.2695	82.9308	51.2695	82.304	51.2695	83.1157	51.2695	82.4387	51.2695	83.3098	51.2695	82.6031	51.2695	83.5107	51.2695	82.7962	51.2695	83.715	51.2695	83.0152	51.2695	83.9181	51.2695	83.2553	51.2695	84.1135	51.2695	83.5086	51.2695	84.2922	51.2695	83.7648	51.2695	84.4428	51.2695	84.0105	51.2695	84.5526	51.2695	84.2311	51.2695	84.6101	51.2695	84.4118	51.2695	84.6069	51.2695	84.5399
52.7344	82.5729	52.7344	82.5159	52.7344	82.653	52.7344	82.4829	52.7344	82.7551	52.7344	82.4746	52.7344	82.8776	52.7344	82.4912	52.7344	83.0183	52.7344	82.5334	52.7344	83.1746	52.7344	82.6014	52.7344	83.3435	52.7344	82.6958	52.7344	83.522	52.7344	82.8171	52.7344	83.7069	52.7344	82.9651	52.7344	83.8948	52.7344	83.1393	52.7344	84.0824	52.7344	83.3376	52.7344	84.2653	52.7344	83.5561	52.7344	84.438	52.7344	83.7883	52.7344	84.5929	52.7344	84.025	52.7344	84.7203	52.7344	84.2545	52.7344	84.8095	52.7344	84.4631	52.7344	84.8506	52.7344	84.6369	52.7344	84.8363	52.7344	84.7641
54.1992	82.9311	54.1992	82.8762	54.1992	83.0087	54.1992	82.8444	54.1992	83.108	54.1992	82.8358	54.1992	83.2275	54.1992	82.8505	54.1992	83.3649	54.1992	82.8885	54.1992	83.5175	54.1992	82.9498	54.1992	83.6819	54.1992	83.0346	54.1992	83.8544	54.1992	83.1433	54.1992	84.0313	54.1992	83.2761	54.1992	84.2088	54.1992	83.4326	54.1992	84.383	54.1992	83.6115	54.1992	84.5499	54.1992	83.8099	54.1992	84.7044	54.1992	84.0225	54.1992	84.84	54.1992	84.2413	54.1992	84.9484	54.1992	84.4558	54.1992	85.0205	54.1992	84.6533	54.1992	85.0477	54.1992	84.821	54.1992	85.0239	54.1992	84.9472
55.6641	83.2288	55.6641	83.1743	55.6641	83.3066	55.6641	83.1434	55.6641	83.4069	55.6641	83.1359	55.6641	83.5279	55.6641	83.1512	55.6641	83.6672	55.6641	83.1888	55.6641	83.8215	55.6641	83.2481	55.6641	83.9868	55.6641	83.329	55.6641	84.1587	55.6641	83.4313	55.6641	84.3327	55.6641	83.5551	55.6641	84.5044	55.6641	83.7001	55.6641	84.6696	55.6641	83.8653	55.6641	84.8239	55.6641	84.0484	55.6641	84.9628	55.6641	84.2451	55.6641	85.0807	55.6641	84.4486	55.6641	85.1709	55.6641	84.6497	55.6641	85.2261	55.6641	84.8371	55.6641	85.2392	55.6641	84.9989	55.6641	85.2056	55.6641	85.1243
58.5938	83.9119	58.5938	83.8519	58.5938	83.9959	58.5938	83.8157	58.5938	84.1028	58.5938	83.8028	58.5938	84.2307	58.5938	83.8121	58.5938	84.3766	58.5938	83.8424	58.5938	84.5363	58.5938	83.8924	58.5938	84.7047	58.5938	83.9612	58.5938	84.8759	58.5938	84.0481	58.5938	85.0441	58.5938	84.1529	58.5938	85.2036	58.5938	84.2754	58.5938	85.3493	58.5938	84.415	58.5938	85.477	58.5938	84.5706	58.5938	85.5828	58.5938	84.7396	58.5938	85.663	58.5938	84.9175	58.5938	85.7139	58.5938	85.0974	58.5938	85.7314	58.5938	85.2704	58.5938	85.7119	58.5938	85.4268	58.5938	85.6534	58.5938	85.557
60.0586	84.1979	60.0586	84.1397	60.0586	84.2798	60.0586	84.1051	60.0586	84.3845	60.0586	84.0932	60.0586	84.5101	60.0586	84.1025	60.0586	84.6534	60.0586	84.1316	60.0586	84.8097	60.0586	84.1787	60.0586	84.9737	60.0586	84.2425	60.0586	85.1394	60.0586	84.3222	60.0586	85.3005	60.0586	84.4171	60.0586	85.451	60.0586	84.5273	60.0586	85.5859	60.0586	84.6524	60.0586	85.7007	60.0586	84.7919	60.0586	85.7922	60.0586	84.9442	60.0586	85.8575	60.0586	85.1058	60.0586	85.8939	60.0586	85.271	60.0586	85.8985	60.0586	85.4322	60.0586	85.8692	60.0586	85.5805	60.0586	85.8049	60.0586	85.7072
62.9883	84.5537	62.9883	84.4903	62.9883	84.6398	62.9883	84.4495	62.9883	84.7478	62.9883	84.4302	62.9883	84.8754	62.9883	84.4307	62.9883	85.019	62.9883	84.449	62.9883	85.1737	62.9883	84.4831	62.9883	85.3337	62.9883	84.5314	62.9883	85.4923	62.9883	84.5927	62.9883	85.6426	62.9883	84.6664	62.9883	85.778	62.9883	84.7525	62.9883	85.8931	62.9883	84.8516	62.9883	85.9833	62.9883	84.9641	62.9883	86.0456	62.9883	85.0897	62.9883	86.0785	62.9883	85.2271	62.9883	86.081	62.9883	85.3727	62.9883	86.053	62.9883	85.521	62.9883	85.9948	62.9883	85.6648	62.9883	85.9081	62.9883	85.7962
64.4531	84.7104	64.4531	84.6444	64.4531	84.799	64.4531	84.601	64.4531	84.9093	64.4531	84.579	64.4531	85.039	64.4531	84.5768	64.4531	85.1841	64.4531	84.5921	64.4531	85.3397	64.4531	84.6229	64.4531	85.4996	64.4531	84.6672	64.4531	85.657	64.4531	84.7237	64.4531	85.8048	64.4531	84.7916	64.4531	85.9362	64.4531	84.8711	64.4531	86.0453	64.4531	84.9625	64.4531	86.1277	64.4531	85.0668	64.4531	86.1805	64.4531	85.1841	64.4531	86.2024	64.4531	85.3136	64.4531	86.193	64.4531	85.4527	64.4531	86.1532	64.4531	85.5967	64.4531	86.0845	64.4531	85.7391	64.4531	85.9894	64.4531	85.8723
67.3828	85.0647	67.3828	84.9967	67.3828	85.1543	67.3828	84.9502	67.3828	85.2644	67.3828	84.9241	67.3828	85.3926	67.3828	84.9166	67.3828	85.5352	67.3828	84.9253	67.3828	85.6871	67.3828	84.948	67.3828	85.842	67.3828	84.9823	67.3828	85.9929	67.3828	85.0267	67.3828	86.1323	67.3828	85.0803	67.3828	86.253	67.3828	85.1429	67.3828	86.3485	67.3828	85.2154	67.3828	86.4141	67.3828	85.299	67.3828	86.4467	67.3828	85.395	67.3828	86.4457	67.3828	85.5039	67.3828	86.4121	67.3828	85.625	67.3828	86.3488	67.3828	85.7556	67.3828	86.2597	67.3828	85.8908	67.3828	86.1496	67.3828	86.0244
68.8477	85.2122	68.8477	85.1449	68.8477	85.3011	68.8477	85.0991	68.8477	85.4108	68.8477	85.0737	68.8477	85.5389	68.8477	85.0666	68.8477	85.6815	68.8477	85.0755	68.8477	85.8335	68.8477	85.0976	68.8477	85.9886	68.8477	85.1308	68.8477	86.1395	68.8477	85.1729	68.8477	86.2783	68.8477	85.2231	68.8477	86.3976	68.8477	85.281	68.8477	86.4904	68.8477	85.3475	68.8477	86.5517	68.8477	85.424	68.8477	86.5783	68.8477	85.512	68.8477	86.5699	68.8477	85.613	68.8477	86.528	68.8477	85.7268	68.8477	86.4564	68.8477	85.8516	68.8477	86.3598	68.8477	85.9835	68.8477	86.2444	68.8477	86.1166
71.7773	85.5149	71.7773	85.4501	71.7773	85.6007	71.7773	85.4062	71.7773	85.7067	71.7773	85.3817	71.7773	85.8305	71.7773	85.3743	71.7773	85.9682	71.7773	85.3814	71.7773	86.1146	71.7773	85.4	71.7773	86.2633	71.7773	85.4274	71.7773	86.4067	71.7773	85.4614	71.7773	86.537	71.7773	85.5007	71.7773	86.6461	71.7773	85.545	71.7773	86.7271	71.7773	85.5951	71.7773	86.7745	71.7773	85.6529	71.7773	86.7855	71.7773	85.7208	71.7773	86.7601	71.7773	85.8013	71.7773	86.7011	71.7773	85.8959	71.7773	86.6137	71.7773	86.0046	71.7773	86.5048	71.7773	86.1251	71.7773	86.382	71.7773	86.253
74.707	85.79	74.707	85.7259	74.707	85.8756	74.707	85.6829	74.707	85.9815	74.707	85.6597	74.707	86.1051	74.707	85.6536	74.707	86.2422	74.707	85.6615	74.707	86.3873	74.707	85.68	74.707	86.5338	74.707	85.7057	74.707	86.6738	74.707	85.736	74.707	86.799	74.707	85.7688	74.707	86.9011	74.707	85.8035	74.707	86.9727	74.707	85.841	74.707	87.0084	74.707	85.8832	74.707	87.0053	74.707	85.9334	74.707	86.964	74.707	85.9952	74.707	86.8882	74.707	86.072	74.707	86.7849	74.707	86.1656	74.707	86.6627	74.707	86.2759	74.707	86.5312	74.707	86.3997
77.6367	86.0329	77.6367	85.9671	77.6367	86.1204	77.6367	85.9229	77.6367	86.2282	77.6367	85.8988	77.6367	86.3534	77.6367	85.8923	77.6367	86.4918	77.6367	85.8998	77.6367	86.6376	77.6367	85.9176	77.6367	86.7839	77.6367	85.9417	77.6367	86.9227	77.6367	85.969	77.6367	87.0457	77.6367	85.997	77.6367	87.144	77.6367	86.0249	77.6367	87.21	77.6367	86.0531	77.6367	87.2377	77.6367	86.0839	77.6367	87.2243	77.6367	86.1213	77.6367	87.1703	77.6367	86.1699	77.6367	87.0803	77.6367	86.2345	77.6367	86.9623	77.6367	86.3187	77.6367	86.8268	77.6367	86.4239	77.6367	86.6851	77.6367	86.5479
79.1016	86.1352	79.1016	86.068	79.1016	86.2235	79.1016	86.0219	79.1016	86.3313	79.1016	85.9955	79.1016	86.4558	79.1016	85.9862	79.1016	86.5925	79.1016	85.9907	79.1016	86.7359	79.1016	86.0049	79.1016	86.8791	79.1016	86.0251	79.1016	87.0142	79.1016	86.0478	79.1016	87.1327	79.1016	86.0706	79.1016	87.2261	79.1016	86.0924	79.1016	87.2864	79.1016	86.1139	79.1016	87.3077	79.1016	86.1375	79.1016	87.2871	79.1016	86.1673	79.1016	87.2252	79.1016	86.2085	79.1016	87.1271	79.1016	86.2666	79.1016	87.0013	79.1016	86.3459	79.1016	86.8589	79.1016	86.4483	79.1016	86.7121	79.1016	86.5723
82.0312	86.399	82.0312	86.3282	82.0312	86.4881	82.0312	86.2758	82.0312	86.594	82.0312	86.2407	82.0312	86.7141	82.0312	86.2203	82.0312	86.8441	82.0312	86.2116	82.0312	86.9788	82.0312	86.2108	82.0312	87.1115	82.0312	86.2141	82.0312	87.2344	82.0312	86.2182	82.0312	87.3391	82.0312	86.2208	82.0312	87.4168	82.0312	86.2212	82.0312	87.4593	82.0312	86.2202	82.0312	87.4603	82.0312	86.2209	82.0312	87.417	82.0312	86.2282	82.0312	87.3305	82.0312	86.2486	82.0312	87.2068	82.0312	86.2891	82.0312	87.0561	82.0312	86.356	82.0312	86.8918	82.0312	86.4526	82.0312	86.7282	82.0312	86.5785
84.9609	86.5015	84.9609	86.4388	84.9609	86.5823	84.9609	86.3935	84.9609	86.6806	84.9609	86.3638	84.9609	86.7948	84.9609	86.3473	84.9609	86.9216	84.9609	86.3404	84.9609	87.0564	84.9609	86.3398	84.9609	87.1929	84.9609	86.3418	84.9609	87.3231	84.9609	86.3432	84.9609	87.4376	84.9609	86.3422	84.9609	87.5265	84.9609	86.338	84.9609	87.5802	84.9609	86.3319	84.9609	87.5909	84.9609	86.3273	84.9609	87.5543	84.9609	86.3296	84.9609	87.4706	84.9609	86.3462	84.9609	87.3455	84.9609	86.3848	84.9609	87.1895	84.9609	86.4524	84.9609	87.017	84.9609	86.5528	84.9609	86.844	84.9609	86.6855
87.8906	86.8153	87.8906	86.7374	87.8906	86.9107	87.8906	86.6773	87.8906	87.0219	87.8906	86.6339	87.8906	87.1462	87.8906	86.6048	87.8906	87.2791	87.8906	86.5869	87.8906	87.4154	87.8906	86.576	87.8906	87.5484	87.8906	86.5684	87.8906	87.6701	87.8906	86.5603	87.8906	87.7718	87.8906	86.5494	87.8906	87.8441	87.8906	86.5347	87.8906	87.8784	87.8906	86.5175	87.8906	87.8677	87.8906	86.5012	87.8906	87.8082	87.8906	86.4918	87.8906	87.701	87.8906	86.4976	87.8906	87.5525	87.8906	86.5273	87.8906	87.3745	87.8906	86.5893	87.8906	87.1827	87.8906	86.6888	87.8906	86.9944	87.8906	86.8258
90.8203	87.136	90.8203	87.0594	90.8203	87.2252	90.8203	86.9961	90.8203	87.3255	90.8203	86.9455	90.8203	87.4344	90.8203	86.906	90.8203	87.5488	90.8203	86.8748	90.8203	87.6645	90.8203	86.8483	90.8203	87.7758	90.8203	86.8228	90.8203	87.8761	90.8203	86.7947	90.8203	87.9569	90.8203	86.7616	90.8203	88.009	90.8203	86.7228	90.8203	88.0233	90.8203	86.6795	90.8203	87.9924	90.8203	86.6358	90.8203	87.9122	90.8203	86.5988	90.8203	87.7838	90.8203	86.5775	90.8203	87.6144	90.8203	86.5829	90.8203	87.4173	90.8203	86.6249	90.8203	87.2101	90.8203	86.7107	90.8203	87.0124	90.8203	86.8417
95.2148	87.0833	95.2148	87.0111	95.2148	87.173	95.2148	86.957	95.2148	87.2783	95.2148	86.9203	95.2148	87.3959	95.2148	86.899	95.2148	87.5219	95.2148	86.8897	95.2148	87.6513	95.2148	86.8881	95.2148	87.778	95.2148	86.8895	95.2148	87.8946	95.2148	86.8895	95.2148	87.9926	95.2148	86.8848	95.2148	88.0627	95.2148	86.8732	95.2148	88.0956	95.2148	86.8553	95.2148	88.0838	95.2148	86.8339	95.2148	88.0232	95.2148	86.8149	95.2148	87.9147	95.2148	86.8065	95.2148	87.7654	95.2148	86.8189	95.2148	87.5882	95.2148	86.8618	95.2148	87.4	95.2148	86.9425	95.2148	87.2196	95.2148	87.0633
98.1445	87.2577	98.1445	87.1813	98.1445	87.3507	98.1445	87.1226	98.1445	87.4582	98.1445	87.0811	98.1445	87.577	98.1445	87.0548	98.1445	87.703	98.1445	87.0405	98.1445	87.8311	98.1445	87.034	98.1445	87.9555	98.1445	87.0305	98.1445	88.0686	98.1445	87.0254	98.1445	88.1619	98.1445	87.0153	98.1445	88.2258	98.1445	86.9978	98.1445	88.2508	98.1445	86.9734	98.1445	88.2293	98.1445	86.9447	98.1445	88.1572	98.1445	86.9179	98.1445	88.0362	98.1445	86.9015	98.1445	87.8739	98.1445	86.9063	98.1445	87.6845	98.1445	86.9429	98.1445	87.4863	98.1445	87.0197	98.1445	87.299	98.1445	87.1396
101.074	87.2186	101.074	87.143	101.074	87.3105	101.074	87.0854	101.074	87.4161	101.074	87.0464	101.074	87.5324	101.074	87.0249	101.074	87.6561	101.074	87.0183	101.074	87.7833	101.074	87.0226	101.074	87.9095	101.074	87.0331	101.074	88.0287	101.074	87.0449	101.074	88.1332	101.074	87.0537	101.074	88.2137	101.074	87.0568	101.074	88.2603	101.074	87.0536	101.074	88.2642	101.074	87.0463	101.074	88.2197	101.074	87.0398	101.074	88.1263	101.074	87.042	101.074	87.99	101.074	87.0623	101.074	87.8231	101.074	87.1104	101.074	87.6427	101.074	87.1935	101.074	87.4674	101.074	87.3139
105.469	87.7144	105.469	87.6305	105.469	87.802	105.469	87.5524	105.469	87.8907	105.469	87.4814	105.469	87.9777	105.469	87.4174	105.469	88.0601	105.469	87.3592	105.469	88.1348	105.469	87.3046	105.469	88.1986	105.469	87.2505	105.469	88.2474	105.469	87.1937	105.469	88.2759	105.469	87.1316	105.469	88.2776	105.469	87.0629	105.469	88.2455	105.469	86.9886	105.469	88.1733	105.469	86.9122	105.469	88.0575	105.469	86.8406	105.469	87.8995	105.469	86.7836	105.469	87.7072	105.469	86.7531	105.469	87.4944	105.469	86.7613	105.469	87.2803	105.469	86.818	105.469	87.0852	105.469	86.9271
108.398	87.9881	108.398	87.9119	108.398	88.0708	108.398	87.8439	108.398	88.1574	108.398	87.7847	108.398	88.2448	108.398	87.7333	108.398	88.3298	108.398	87.6873	108.398	88.4089	108.398	87.6433	108.398	88.4782	108.398	87.5969	108.398	88.5324	108.398	87.5441	108.398	88.565	108.398	87.4814	108.398	88.5682	108.398	87.4072	108.398	88.5335	108.398	87.3223	108.398	88.454	108.398	87.2309	108.398	88.3263	108.398	87.1403	108.398	88.1529	108.398	87.0619	108.398	87.9437	108.398	87.0092	108.398	87.7154	108.398	86.9968	108.398	87.4899	108.398	87.0366	108.398	87.2901	108.398	87.1351
112.793	88.0653	112.793	87.977	112.793	88.1589	112.793	87.8965	112.793	88.2548	112.793	87.8255	112.793	88.3498	112.793	87.7637	112.793	88.441	112.793	87.7095	112.793	88.5257	112.793	87.6597	112.793	88.601	112.793	87.6103	112.793	88.6626	112.793	87.5571	112.793	88.7047	112.793	87.4968	112.793	88.7195	112.793	87.4279	112.793	88.6984	112.793	87.3514	112.793	88.633	112.793	87.2715	112.793	88.5183	112.793	87.1962	112.793	88.3548	112.793	87.1364	112.793	88.1507	112.793	87.1053	112.793	87.9215	112.793	87.1164	112.793	87.6885	112.793	87.1801	112.793	87.4749	112.793	87.301
117.188	88.2043	117.188	88.1088	117.188	88.3021	117.188	88.0193	117.188	88.3981	117.188	87.9379	117.188	88.4884	117.188	87.8652	117.188	88.5693	117.188	87.7996	117.188	88.6378	117.188	87.7382	117.188	88.691	117.188	87.6765	117.188	88.7254	117.188	87.6103	117.188	88.7362	117.188	87.5357	117.188	88.7171	117.188	87.4507	117.188	88.6608	117.188	87.3559	117.188	88.5607	117.188	87.2552	117.188	88.4134	117.188	87.1564	117.188	88.2213	117.188	87.0709	117.188	87.9942	117.188	87.0128	117.188	87.7497	117.188	86.997	117.188	87.5103	117.188	87.0364	117.188	87.2998	117.188	87.138
120.117	88.283	120.117	88.1863	120.117	88.3798	120.117	88.0938	120.117	88.4726	120.117	88.008	120.117	88.5574	120.117	87.9302	120.117	88.631	120.117	87.8595	120.117	88.6907	120.117	87.7931	120.117	88.7336	120.117	87.7271	120.117	88.7566	120.117	87.6571	120.117	88.755	120.117	87.5792	120.117	88.7226	120.117	87.491	120.117	88.6524	120.117	87.3927	120.117	88.5383	120.117	87.2875	120.117	88.3778	120.117	87.1825	120.117	88.1745	120.117	87.0885	120.117	87.9395	120.117	87.0193	120.117	87.6916	120.117	86.9901	120.117	87.4544	120.117	87.0146	120.117	87.2515	120.117	87.1017
124.512	88.2913	124.512	88.1897	124.512	88.3951	124.512	88.0942	124.512	88.4971	124.512	88.0071	124.512	88.5934	124.512	87.9295	124.512	88.6807	124.512	87.86	124.512	88.7562	124.512	87.7955	124.512	88.8167	124.512	87.7316	124.512	88.8584	124.512	87.6634	124.512	88.8753	124.512	87.5866	124.512	88.8597	124.512	87.4989	124.512	88.8029	124.512	87.4004	124.512	88.6971	124.512	87.2951	124.512	88.5383	124.512	87.1907	124.512	88.3293	124.512	87.099	124.512	88.0817	124.512	87.035	124.512	87.8154	124.512	87.0149	124.512	87.556	124.512	87.0531	124.512	87.3299	124.512	87.1583
128.906	88.2618	128.906	88.1483	128.906	88.3804	128.906	88.0445	128.906	88.4988	128.906	87.9542	128.906	88.6122	128.906	87.8789	128.906	88.7169	128.906	87.8174	128.906	88.8097	128.906	87.7667	128.906	88.888	128.906	87.7214	128.906	88.948	128.906	87.6759	128.906	88.9842	128.906	87.6249	128.906	88.9887	128.906	87.5648	128.906	88.9522	128.906	87.4947	128.906	88.8664	128.906	87.4176	128.906	88.7264	128.906	87.3402	128.906	88.5344	128.906	87.2736	128.906	88.3011	128.906	87.2317	128.906	88.0457	128.906	87.2299	128.906	87.7933	128.906	87.2818	128.906	87.5696	128.906	87.3953
133.301	88.3739	133.301	88.2479	133.301	88.5009	133.301	88.1293	133.301	88.6231	133.301	88.0231	133.301	88.7354	133.301	87.9324	133.301	88.8347	133.301	87.8576	133.301	88.9193	133.301	87.7961	133.301	88.9881	133.301	87.7435	133.301	89.0392	133.301	87.694	133.301	89.0685	133.301	87.6421	133.301	89.069	133.301	87.5839	133.301	89.0315	133.301	87.518	133.301	88.9466	133.301	87.4467	133.301	88.8086	133.301	87.3761	133.301	88.6181	133.301	87.3165	133.301	88.3849	133.301	87.2817	133.301	88.1279	133.301	87.2865	133.301	87.8721	133.301	87.3446	133.301	87.6437	133.301	87.4639
139.16	88.3918	139.16	88.2542	139.16	88.5239	139.16	88.1184	139.16	88.6444	139.16	87.9908	139.16	88.749	139.16	87.8762	139.16	88.8357	139.16	87.7765	139.16	88.9042	139.16	87.6907	139.16	88.9553	139.16	87.6149	139.16	88.9882	139.16	87.544	139.16	88.9999	139.16	87.473	139.16	88.9837	139.16	87.3981	139.16	88.9306	139.16	87.3186	139.16	88.8312	139.16	87.2374	139.16	88.6795	139.16	87.1614	139.16	88.4766	139.16	87.1012	139.16	88.2326	139.16	87.0703	139.16	87.9662	139.16	87.0823	139.16	87.7022	139.16	87.1493	139.16	87.4659	139.16	87.2777
143.555	88.3898	143.555	88.2455	143.555	88.5268	143.555	88.1013	143.555	88.6502	143.555	87.9644	143.555	88.756	143.555	87.8405	143.555	88.8424	143.555	87.7324	143.555	88.9096	143.555	87.6397	143.555	88.9588	143.555	87.559	143.555	88.9899	143.555	87.4851	143.555	89	143.555	87.4127	143.555	88.9824	143.555	87.3376	143.555	88.9277	143.555	87.2588	143.555	88.8262	143.555	87.1787	143.555	88.6714	143.555	87.1044	143.555	88.4642	143.555	87.0464	143.555	88.2148	143.555	87.0182	143.555	87.9425	143.555	87.0337	143.555	87.6726	143.555	87.1046	143.555	87.4308	143.555	87.2376
147.949	88.398	147.949	88.239	147.949	88.5433	147.949	88.0744	147.949	88.6683	147.949	87.9127	147.949	88.7691	147.949	87.761	147.949	88.8449	147.949	87.6239	147.949	88.8975	147.949	87.5029	147.949	88.9297	147.949	87.3962	147.949	88.9435	147.949	87.3	147.949	88.9374	147.949	87.2096	147.949	88.9058	147.949	87.1211	147.949	88.8389	147.949	87.0333	147.949	88.726	147.949	86.9487	147.949	88.5596	147.949	86.8736	147.949	88.3397	147.949	86.8181	147.949	88.0761	147.949	86.7951	147.949	87.7886	147.949	86.8179	147.949	87.5036	147.949	86.898	147.949	87.2475	147.949	87.0418
153.809	88.4067	153.809	88.25	153.809	88.5473	153.809	88.0852	153.809	88.6656	153.809	87.92	153.809	88.7582	153.809	87.7611	153.809	88.8245	153.809	87.6124	153.809	88.8667	153.809	87.4752	153.809	88.888	153.809	87.3478	153.809	88.8906	153.809	87.2271	153.809	88.8733	153.809	87.1099	153.809	88.8305	153.809	86.9942	153.809	88.7526	153.809	86.8809	153.809	88.6288	153.809	86.7748	153.809	88.4517	153.809	86.6842	153.809	88.2213	153.809	86.6204	153.809	87.9477	153.809	86.5966	153.809	87.6504	153.809	86.625	153.809	87.3552	153.809	86.7151	153.809	87.0883	153.809	86.8707
159.668	88.3267	159.668	88.1729	159.668	88.4656	159.668	88.0126	159.668	88.5841	159.668	87.8544	159.668	88.6797	159.668	87.706	159.668	88.7542	159.668	87.5723	159.668	88.8117	159.668	87.4545	159.668	88.8576	159.668	87.3505	159.668	88.8952	159.668	87.2557	159.668	88.9231	159.668	87.1655	159.668	88.9334	159.668	87.0767	159.668	88.9127	159.668	86.9897	159.668	88.8456	159.668	86.9093	159.668	88.7198	159.668	86.8447	159.668	88.5309	159.668	86.8083	159.668	88.2859	159.668	86.8141	159.668	88.0024	159.668	86.8741	159.668	87.706	159.668	86.9966	159.668	87.4246	159.668	87.1826
165.527	88.2405	165.527	88.0824	165.527	88.3836	165.527	87.9205	165.527	88.5029	165.527	87.7663	165.527	88.5932	165.527	87.6301	165.527	88.6539	165.527	87.519	165.527	88.6884	165.527	87.4353	165.527	88.7035	165.527	87.3769	165.527	88.7065	165.527	87.3378	165.527	88.7019	165.527	87.3105	165.527	88.689	165.527	87.288	165.527	88.6608	165.527	87.266	165.527	88.6066	165.527	87.2444	165.527	88.5166	165.527	87.2271	165.527	88.3865	165.527	87.2221	165.527	88.2206	165.527	87.2387	165.527	88.0312	165.527	87.2859	165.527	87.8354	165.527	87.3699	165.527	87.651	165.527	87.4928
171.387	88.493	171.387	88.3299	171.387	88.6289	171.387	88.1505	171.387	88.7291	171.387	87.9661	171.387	88.7889	171.387	87.7866	171.387	88.808	171.387	87.619	171.387	88.79	171.387	87.4665	171.387	88.7413	171.387	87.3292	171.387	88.6688	171.387	87.2049	171.387	88.5772	171.387	87.0914	171.387	88.4672	171.387	86.9874	171.387	88.3357	171.387	86.8939	171.387	88.1783	171.387	86.8145	171.387	87.9936	171.387	86.7542	171.387	87.7866	171.387	86.7181	171.387	87.5693	171.387	86.7107	171.387	87.3576	171.387	86.7345	171.387	87.1666	171.387	86.7909	171.387	87.0065	171.387	86.8812
177.246	87.8417	177.246	87.6921	177.246	87.9781	177.246	87.5376	177.246	88.0946	177.246	87.3864	177.246	88.1878	177.246	87.2447	177.246	88.2577	177.246	87.1147	177.246	88.3077	177.246	86.9949	177.246	88.3422	177.246	86.8798	177.246	88.363	177.246	86.7632	177.246	88.3661	177.246	86.6401	177.246	88.3396	177.246	86.5095	177.246	88.267	177.246	86.3761	177.246	88.1323	177.246	86.2495	177.246	87.928	177.246	86.1435	177.246	87.6605	177.246	86.0718	177.246	87.3514	177.246	86.0458	177.246	87.0324	177.246	86.0717	177.246	86.7356	177.246	86.1524	177.246	86.4845	177.246	86.2895
183.105	87.6403	183.105	87.4112	183.105	87.8306	183.105	87.1631	183.105	87.9688	183.105	86.9194	183.105	88.0503	183.105	86.7033	183.105	88.0801	183.105	86.5334	183.105	88.073	183.105	86.4195	183.105	88.0509	183.105	86.3603	183.105	88.0368	183.105	86.3452	183.105	88.0464	183.105	86.3582	183.105	88.0798	183.105	86.3834	183.105	88.12	183.105	86.4097	183.105	88.1385	183.105	86.4335	183.105	88.1074	183.105	86.4585	183.105	88.0098	183.105	86.494	183.105	87.8458	183.105	86.5518	183.105	87.6317	183.105	86.6427	183.105	87.3934	183.105	86.7739	183.105	87.1581	183.105	86.9473
188.965	88.0517	188.965	87.8479	188.965	88.2038	188.965	87.6063	188.965	88.2948	188.965	87.3435	188.965	88.3209	188.965	87.0775	188.965	88.2857	188.965	86.8252	188.965	88.1998	188.965	86.6006	188.965	88.0804	188.965	86.413	188.965	87.948	188.965	86.2662	188.965	87.8208	188.965	86.1592	188.965	87.7088	188.965	86.0884	188.965	87.6104	188.965	86.0496	188.965	87.5141	188.965	86.0396	188.965	87.4057	188.965	86.057	188.965	87.2761	188.965	86.1009	188.965	87.1258	188.965	86.1701	188.965	86.963	188.965	86.2619	188.965	86.7993	188.965	86.3732	188.965	86.6437	188.965	86.501
196.289	88.1051	196.289	87.8908	196.289	88.2648	196.289	87.6374	196.289	88.3589	196.289	87.3633	196.289	88.3826	196.289	87.0868	196.289	88.3385	196.289	86.8245	196.289	88.2375	196.289	86.5885	196.289	88.0975	196.289	86.3858	196.289	87.9405	196.289	86.2181	196.289	87.7866	196.289	86.0844	196.289	87.6472	196.289	85.9827	196.289	87.5215	196.289	85.912	196.289	87.3983	196.289	85.8736	196.289	87.2641	196.289	85.8694	196.289	87.1115	196.289	85.9004	196.289	86.9432	196.289	85.9648	196.289	86.7692	196.289	86.0573	196.289	86.6006	196.289	86.1712	196.289	86.444	196.289	86.3008
203.613	88.1849	203.613	87.9555	203.613	88.3439	203.613	87.6706	203.613	88.4226	203.613	87.3488	203.613	88.4174	203.613	87.0108	203.613	88.3319	203.613	86.6772	203.613	88.1778	203.613	86.3664	203.613	87.9738	203.613	86.0924	203.613	87.7437	203.613	85.8633	203.613	87.5112	203.613	85.6827	203.613	87.2936	203.613	85.5504	203.613	87.0971	203.613	85.4653	203.613	86.9165	203.613	85.4264	203.613	86.7424	203.613	85.4317	203.613	86.5697	203.613	85.4775	203.613	86.4018	203.613	85.5559	203.613	86.2468	203.613	85.6558	203.613	86.1103	203.613	85.7653	203.613	85.9895	203.613	85.8767
210.938	87.9551	210.938	87.7478	210.938	88.1036	210.938	87.4948	210.938	88.1845	210.938	87.2113	210.938	88.1942	210.938	86.9133	210.938	88.1354	210.938	86.6155	210.938	88.0174	210.938	86.3301	210.938	87.8556	210.938	86.0659	210.938	87.6684	210.938	85.828	210.938	87.4734	210.938	85.62	210.938	87.2811	210.938	85.445	210.938	87.0919	210.938	85.3073	210.938	86.8972	210.938	85.2127	210.938	86.6877	210.938	85.166	210.938	86.4618	210.938	85.1684	210.938	86.2299	210.938	85.2148	210.938	86.0098	210.938	85.2951	210.938	85.8165	210.938	85.3981	210.938	85.6542	210.938	85.5173
218.262	87.7225	218.262	87.4826	218.262	87.8982	218.262	87.1963	218.262	87.9978	218.262	86.8854	218.262	88.0167	218.262	86.573	218.262	87.9581	218.262	86.2805	218.262	87.8341	218.262	86.0241	218.262	87.6646	218.262	85.8128	218.262	87.4753	218.262	85.6488	218.262	87.2914	218.262	85.5294	218.262	87.1305	218.262	85.4503	218.262	86.9964	218.262	85.4086	218.262	86.8795	218.262	85.4036	218.262	86.7644	218.262	85.4355	218.262	86.6402	218.262	85.5029	218.262	86.5058	218.262	85.6003	218.262	86.3676	218.262	85.7182	218.262	86.2327	218.262	85.8457	218.262	86.1027	218.262	85.9746
225.586	87.8973	225.586	87.6509	225.586	88.0626	225.586	87.3403	225.586	88.1349	225.586	86.9868	225.586	88.1092	225.586	86.6144	225.586	87.9883	225.586	86.248	225.586	87.7847	225.586	85.9107	225.586	87.5208	225.586	85.6211	225.586	87.2279	225.586	85.3919	225.586	86.9418	225.586	85.2298	225.586	86.6943	225.586	85.1372	225.586	86.5047	225.586	85.1139	225.586	86.3749	225.586	85.157	225.586	86.2942	225.586	85.2598	225.586	86.2478	225.586	85.4095	225.586	86.2221	225.586	85.5865	225.586	86.2047	225.586	85.7671	225.586	86.1813	225.586	85.9281	225.586	86.1353	225.586	86.0528
232.91	87.9404	232.91	87.6843	232.91	88.1045	232.91	87.3521	232.91	88.1665	232.91	86.9642	232.91	88.1221	232.91	86.5452	232.91	87.9738	232.91	86.1221	232.91	87.7317	232.91	85.722	232.91	87.4143	232.91	85.369	232.91	87.049	232.91	85.0816	232.91	86.6706	232.91	84.8711	232.91	86.3164	232.91	84.7431	232.91	86.0175	232.91	84.6989	232.91	85.7918	232.91	84.7352	232.91	85.6436	232.91	84.8431	232.91	85.5682	232.91	85.0048	232.91	85.5547	232.91	85.1937	232.91	85.5837	232.91	85.3778	232.91	85.6257	232.91	85.5263	232.91	85.6464	232.91	85.6177
241.699	87.7897	241.699	87.4992	241.699	87.9982	241.699	87.1402	241.699	88.1148	241.699	86.7298	241.699	88.1335	241.699	86.2874	241.699	88.0532	241.699	85.8348	241.699	87.8767	241.699	85.3953	241.699	87.6113	241.699	84.9923	241.699	87.2679	241.699	84.6487	241.699	86.8608	241.699	84.384	241.699	86.4072	241.699	84.2133	241.699	85.9288	241.699	84.1439	241.699	85.4569	241.699	84.1728	241.699	85.0374	241.699	84.2843	241.699	84.7271	241.699	84.4499	241.699	84.5712	241.699	84.6308	241.699	84.5709	241.699	84.7847	241.699	84.6734	241.699	84.8744	241.699	84.7986	241.699	84.8779
250.488	88.1381	250.488	87.8044	250.488	88.3781	250.488	87.3922	250.488	88.5134	250.488	86.9193	250.488	88.5376	250.488	86.4055	250.488	88.4508	250.488	85.8718	250.488	88.2596	250.488	85.3387	250.488	87.9776	250.488	84.8267	250.488	87.6239	250.488	84.3568	250.488	87.2197	250.488	83.9525	250.488	86.7853	250.488	83.6408	250.488	86.3375	250.488	83.4489	250.488	85.8918	250.488	83.396	250.488	85.4695	250.488	83.4804	250.488	85.1029	250.488	83.6728	250.488	84.8288	250.488	83.9219	250.488	84.6655	250.488	84.1698	250.488	84.5927	250.488	84.3687	250.488	84.5561	250.488	84.4949
259.277	87.8776	259.277	87.6117	259.277	88.0477	259.277	87.2598	259.277	88.1169	259.277	86.8356	259.277	88.0863	259.277	86.3563	259.277	87.9634	259.277	85.843	259.277	87.7613	259.277	85.3205	259.277	87.4954	259.277	84.8167	259.277	87.1794	259.277	84.3614	259.277	86.8208	259.277	83.9837	259.277	86.4199	259.277	83.7095	259.277	85.9733	259.277	83.5569	259.277	85.4859	259.277	83.5317	259.277	84.9878	259.277	83.6219	259.277	84.5442	259.277	83.7954	259.277	84.2389	259.277	84.0034	259.277	84.1207	259.277	84.1903	259.277	84.1586	259.277	84.3075	259.277	84.2593	259.277	84.3276
268.066	87.5434	268.066	87.2698	268.066	87.7228	268.066	86.9137	268.066	87.8007	268.066	86.4891	268.066	87.7764	268.066	86.0103	268.066	87.6575	268.066	85.4919	268.066	87.4598	268.066	84.9493	268.066	87.2055	268.066	84.4016	268.066	86.9185	268.066	83.8748	268.066	86.6175	268.066	83.4041	268.066	86.3076	268.066	83.0331	268.066	85.9783	268.066	82.8061	268.066	85.6107	268.066	82.7509	268.066	85.1976	268.066	82.862	268.066	84.764	268.066	83.0945	268.066	84.3732	268.066	83.3773	268.066	84.098	268.066	83.637	268.066	83.9664	268.066	83.8196	268.066	83.9323	268.066	83.9081
276.855	87.5463	276.855	87.2909	276.855	87.6996	276.855	86.9447	276.855	87.7463	276.855	86.5243	276.855	87.6898	276.855	86.0483	276.855	87.5412	276.855	85.5351	276.855	87.3183	276.855	84.9995	276.855	87.0434	276.855	84.4531	276.855	86.7404	276.855	83.9083	276.855	86.4296	276.855	83.3866	276.855	86.1226	276.855	82.9272	276.855	85.8171	276.855	82.5867	276.855	85.5011	276.855	82.4227	276.855	85.165	276.855	82.4615	276.855	84.8171	276.855	82.6743	276.855	84.4899	276.855	82.986	276.855	84.2248	276.855	83.3096	276.855	84.0399	276.855	83.5803	276.855	83.9086	276.855	83.7733
287.109	86.9178	287.109	86.7057	287.109	87.0351	287.109	86.4074	287.109	87.0532	287.109	86.0352	287.109	86.9746	287.109	85.603	287.109	86.809	287.109	85.1266	287.109	86.5738	287.109	84.6225	287.109	86.2933	287.109	84.1088	287.109	85.9946	287.109	83.6051	287.109	85.7	287.109	83.1361	287.109	85.4181	287.109	82.7363	287.109	85.1431	287.109	82.453	287.109	84.8662	287.109	82.337	287.109	84.595	287.109	82.4182	287.109	84.3622	287.109	82.6785	287.109	84.2084	287.109	83.0493	287.109	84.145	287.109	83.4399	287.109	84.1339	287.109	83.7709	287.109	84.1054	287.109	83.9953
297.363	87.6102	297.363	87.3695	297.363	87.7359	297.363	87.0318	297.363	87.7307	297.363	86.613	297.363	87.5843	297.363	86.126	297.363	87.2959	297.363	85.5801	297.363	86.8783	297.363	84.9841	297.363	86.3622	297.363	84.3502	297.363	85.7984	297.363	83.7006	297.363	85.2538	297.363	83.0737	297.363	84.7903	297.363	82.5283	297.363	84.4346	297.363	82.1372	297.363	84.1668	297.363	81.9659	297.363	83.9494	297.363	82.0374	297.363	83.7691	297.363	82.3118	297.363	83.6491	297.363	82.6985	297.363	83.6138	297.363	83.0933	297.363	83.6419	297.363	83.4104	297.363	83.6635	297.363	83.6013
307.617	87.0823	307.617	86.7783	307.617	87.2902	307.617	86.3987	307.617	87.3877	307.617	85.9663	307.617	87.367	307.617	85.5012	307.617	87.2253	307.617	85.0152	307.617	86.9624	307.617	84.5107	307.617	86.5797	307.617	83.9827	307.617	86.0823	307.617	83.4274	307.617	85.4828	307.617	82.8526	307.617	84.8083	307.617	82.2915	307.617	84.107	307.617	81.8125	307.617	83.4533	307.617	81.5136	307.617	82.9431	307.617	81.4808	307.617	82.665	307.617	81.7235	307.617	82.6478	307.617	82.1507	307.617	82.8243	307.617	82.619	307.617	83.0593	307.617	82.9986	307.617	83.2168	307.617	83.2068
319.336	86.7146	319.336	86.4514	319.336	86.8658	319.336	86.0886	319.336	86.8975	319.336	85.6427	319.336	86.8096	319.336	85.1332	319.336	86.6098	319.336	84.5826	319.336	86.3122	319.336	84.0141	319.336	85.9338	319.336	83.45	319.336	85.4882	319.336	82.9101	319.336	84.9831	319.336	82.4147	319.336	84.4207	319.336	81.9913	319.336	83.8093	319.336	81.6808	319.336	83.183	319.336	81.5323	319.336	82.6238	319.336	81.5778	319.336	82.2537	319.336	81.8016	319.336	82.1615	319.336	82.1332	319.336	82.3143	319.336	82.4738	319.336	82.57	319.336	82.7305	319.336	82.7764	319.336	82.8393
329.59	86.299	329.59	86.0494	329.59	86.4616	329.59	85.7339	329.59	86.5213	329.59	85.3709	329.59	86.4722	329.59	84.9701	329.59	86.3205	329.59	84.5307	329.59	86.0804	329.59	84.045	329.59	85.7678	329.59	83.5063	329.59	85.3908	329.59	82.918	329.59	84.9424	329.59	82.3045	329.59	84.3989	329.59	81.7223	329.59	83.7326	329.59	81.2655	329.59	82.9464	329.59	81.0451	329.59	82.1347	329.59	81.1298	329.59	81.5306	329.59	81.4859	329.59	81.3963	329.59	81.9852	329.59	81.7393	329.59	82.4695	329.59	82.276	329.59	82.8048	329.59	82.7132	329.59	82.8998
341.309	86.167	341.309	85.8766	341.309	86.3292	341.309	85.48	341.309	86.3582	341.309	85.0109	341.309	86.2669	341.309	84.5064	341.309	86.0831	341.309	83.9971	341.309	85.842	341.309	83.4987	341.309	85.5762	341.309	83.0107	341.309	85.3043	341.309	82.5249	341.309	85.0185	341.309	82.04	341.309	84.6772	341.309	81.5782	341.309	84.2123	341.309	81.1979	341.309	83.5595	341.309	80.9888	341.309	82.7143	341.309	81.0304	341.309	81.8179	341.309	81.3255	341.309	81.2049	341.309	81.7718	341.309	81.1794	341.309	82.2064	341.309	81.628	341.309	82.4738	341.309	82.1533	341.309	82.4667
353.027	86.1615	353.027	85.8751	353.027	86.3115	353.027	85.4753	353.027	86.3185	353.027	84.9968	353.027	86.192	353.027	84.4779	353.027	85.9551	353.027	83.9469	353.027	85.6423	353.027	83.4114	353.027	85.2982	353.027	82.8559	353.027	84.9713	353.027	82.2538	353.027	84.6928	353.027	81.5908	353.027	84.4464	353.027	80.8994	353.027	84.1589	353.027	80.2947	353.027	83.7323	353.027	79.9721	353.027	83.1057	353.027	80.0919	353.027	82.3318	353.027	80.6105	353.027	81.6391	353.027	81.2929	353.027	81.3478	353.027	81.8864	353.027	81.5419	353.027	82.2233	353.027	81.9467	353.027	82.2326
366.211	86.6865	366.211	86.3295	366.211	86.8981	366.211	85.8453	366.211	86.9526	366.211	85.2589	366.211	86.8434	366.211	84.6004	366.211	86.5688	366.211	83.9014	366.211	86.136	366.211	83.1911	366.211	85.5698	366.211	82.4918	366.211	84.9222	366.211	81.815	366.211	84.2701	366.211	81.1637	366.211	83.6864	366.211	80.5461	366.211	83.1914	366.211	80.0011	366.211	82.735	366.211	79.623	366.211	82.2451	366.211	79.5404	366.211	81.7152	366.211	79.8145	366.211	81.2609	366.211	80.3438	366.211	81.0591	366.211	80.9138	366.211	81.1547	366.211	81.3267	366.211	81.3726	366.211	81.4764
379.395	87.0878	379.395	86.811	379.395	87.2519	379.395	86.4418	379.395	87.2888	379.395	86.0007	379.395	87.1909	379.395	85.5034	379.395	86.9589	379.395	84.9564	379.395	86.6019	379.395	84.358	379.395	86.1392	379.395	83.7039	379.395	85.5986	379.395	82.9955	379.395	85.0094	379.395	82.2494	379.395	84.386	379.395	81.5107	379.395	83.7166	379.395	80.8677	379.395	82.9792	379.395	80.4502	379.395	82.2018	379.395	80.3771	379.395	81.5377	379.395	80.6598	379.395	81.2334	379.395	81.1673	379.395	81.3837	379.395	81.7032	379.395	81.7815	379.395	82.1001	379.395	82.1313	379.395	82.2545
392.578	86.907	392.578	86.6027	392.578	87.0627	392.578	86.1859	392.578	87.05	392.578	85.7045	392.578	86.8663	392.578	85.2067	392.578	86.5264	392.578	84.7231	392.578	86.0634	392.578	84.2526	392.578	85.5267	392.578	83.763	392.578	84.9751	392.578	83.2072	392.578	84.4578	392.578	82.5495	392.578	83.9881	392.578	81.7979	392.578	83.5215	392.578	81.0466	392.578	82.9708	392.578	80.5046	392.578	82.2737	392.578	80.4191	392.578	81.5154	392.578	80.8502	392.578	81.0275	392.578	81.5743	392.578	81.1639	392.578	82.2769	392.578	81.7961	392.578	82.7261	392.578	82.4502	392.578	82.7948
405.762	86.8027	405.762	86.5075	405.762	86.9105	405.762	86.0609	405.762	86.8154	405.762	85.5148	405.762	86.5279	405.762	84.9281	405.762	86.0879	405.762	84.3511	405.762	85.5609	405.762	83.8025	405.762	85.0232	405.762	83.2591	405.762	84.5368	405.762	82.6679	405.762	84.1231	405.762	81.9784	405.762	83.744	405.762	81.1823	405.762	83.309	405.762	80.3614	405.762	82.7143	405.762	79.7329	405.762	81.9122	405.762	79.5864	405.762	81.0104	405.762	80.0153	405.762	80.358	405.762	80.7676	405.762	80.3461	405.762	81.4827	405.762	80.9003	405.762	81.9113	405.762	81.5525	405.762	81.9365
420.41	86.391	420.41	86.078	420.41	86.536	420.41	85.6364	420.41	86.4996	420.41	85.1252	420.41	86.2924	420.41	84.6084	420.41	85.9431	420.41	84.1326	420.41	85.4917	420.41	83.7083	420.41	84.9892	420.41	83.3044	420.41	84.4988	420.41	82.8624	420.41	84.0797	420.41	82.3211	420.41	83.7399	420.41	81.6481	420.41	83.3981	420.41	80.8855	420.41	82.9157	420.41	80.2085	420.41	82.1906	420.41	79.9201	420.41	81.2919	420.41	80.2216	420.41	80.6	420.41	80.9502	420.41	80.6121	420.41	81.7282	420.41	81.2594	420.41	82.2484	420.41	81.9732	420.41	82.3444
435.059	86.6484	435.059	86.2371	435.059	86.8613	435.059	85.6572	435.059	86.8679	435.059	84.9635	435.059	86.6788	435.059	84.2339	435.059	86.3204	435.059	83.559	435.059	85.8362	435.059	83.0116	435.059	85.2922	435.059	82.606	435.059	84.7777	435.059	82.2805	435.059	84.3748	435.059	81.9295	435.059	84.0877	435.059	81.4628	435.059	83.8046	435.059	80.8642	435.059	83.3554	435.059	80.2545	435.059	82.6257	435.059	79.9225	435.059	81.6832	435.059	80.148	435.059	80.8963	435.059	80.8496	435.059	80.7582	435.059	81.6327	435.059	81.2589	435.059	82.151	435.059	81.8896	435.059	82.2401
451.172	87.3178	451.172	86.8344	451.172	87.5577	451.172	86.1406	451.172	87.543	451.172	85.2999	451.172	87.2745	451.172	84.4017	451.172	86.7587	451.172	83.5343	451.172	86.0087	451.172	82.7445	451.172	85.0594	451.172	82.0204	451.172	84.0048	451.172	81.3174	451.172	83.0352	451.172	80.6027	451.172	82.3807	451.172	79.8937	451.172	82.0816	451.172	79.2862	451.172	81.8627	451.172	78.9624	451.172	81.346	451.172	79.1123	451.172	80.3348	451.172	79.7479	451.172	79.1378	451.172	80.6322	451.172	78.8267	451.172	81.4379	451.172	79.8341	451.172	81.8936	451.172	81.0798	451.172	81.8085
465.82	86.962	465.82	86.6361	465.82	87.035	465.82	86.0746	465.82	86.8552	465.82	85.3143	465.82	86.443	465.82	84.4156	465.82	85.8411	465.82	83.4593	465.82	85.1089	465.82	82.5241	465.82	84.3084	465.82	81.6497	465.82	83.4938	465.82	80.8168	465.82	82.7153	465.82	79.9729	465.82	82.0245	465.82	79.1004	465.82	81.4573	465.82	78.3197	465.82	80.9959	465.82	77.9687	465.82	80.5664	465.82	78.388	465.82	80.1154	465.82	79.4329	465.82	79.7395	465.82	80.5839	465.82	79.7184	465.82	81.4313	465.82	80.2217	465.82	81.7858	465.82	80.9951	465.82	81.6089
483.398	86.4711	483.398	86.0799	483.398	86.6347	483.398	85.5193	483.398	86.5491	483.398	84.8811	483.398	86.222	483.398	84.264	483.398	85.6806	483.398	83.725	483.398	84.9685	483.398	83.2478	483.398	84.1522	483.398	82.7579	483.398	83.3453	483.398	82.1613	483.398	82.7184	483.398	81.3707	483.398	82.4152	483.398	80.3264	483.398	82.3785	483.398	79.052	483.398	82.3213	483.398	77.8301	483.398	81.9074	483.398	77.3975	483.398	80.951	483.398	78.2706	483.398	79.6951	483.398	79.8104	483.398	79.1764	483.398	81.1738	483.398	80.0615	483.398	81.9615	483.398	81.3123	483.398	82.0198
499.512	87.144	499.512	86.5622	499.512	87.4231	499.512	85.7117	499.512	87.3979	499.512	84.677	499.512	87.0888	499.512	83.6115	499.512	86.532	499.512	82.7112	499.512	85.7696	499.512	82.1044	499.512	84.8382	499.512	81.7429	499.512	83.7781	499.512	81.4393	499.512	82.6804	499.512	80.9924	499.512	81.7443	499.512	80.2592	499.512	81.2102	499.512	79.1898	499.512	81.0909	499.512	77.9577	499.512	81.0735	499.512	77.2506	499.512	80.8256	499.512	77.8813	499.512	80.3262	499.512	79.3951	499.512	80.0162	499.512	80.788	499.512	80.3846	499.512	81.5853	499.512	81.1569	499.512	81.6789
517.09	87.0692	517.09	86.6114	517.09	87.141	517.09	85.795	517.09	86.8467	517.09	84.7125	517.09	86.2526	517.09	83.5558	517.09	85.4743	517.09	82.6098	517.09	84.6682	517.09	82.1038	517.09	84.0091	517.09	82.0026	517.09	83.6214	517.09	82.0368	517.09	83.4637	517.09	81.9047	517.09	83.3094	517.09	81.3708	517.09	82.8819	517.09	80.2649	517.09	81.9829	517.09	78.5353	517.09	80.5752	517.09	76.6816	517.09	78.9515	517.09	76.4962	517.09	77.9971	517.09	78.381	517.09	78.5335	517.09	80.3603	517.09	79.951	517.09	81.5422	517.09	81.2135	517.09	81.807
536.133	87.7499	536.133	87.2323	536.133	87.85	536.133	86.2924	536.133	87.559	536.133	84.9621	536.133	86.9111	536.133	83.3535	536.133	85.9174	536.133	81.7481	536.133	84.5336	536.133	80.6355	536.133	82.7078	536.133	80.3672	536.133	80.6493	536.133	80.6817	536.133	79.3946	536.133	81.0278	536.133	79.9935	536.133	81.044	536.133	81.3798	536.133	80.588	536.133	82.2589	536.133	79.6812	536.133	82.1401	536.133	78.6496	536.133	80.8604	536.133	78.3474	536.133	78.6954	536.133	79.303	536.133	77.6199	536.133	80.7093	536.133	79.1824	536.133	81.6758	536.133	80.9766	536.133	81.8199
555.176	88.3117	555.176	87.9268	555.176	88.3671	555.176	87.1751	555.176	88.1499	555.176	86.053	555.176	87.7115	555.176	84.6048	555.176	87.06	555.176	82.9527	555.176	86.1341	555.176	81.363	555.176	84.8182	555.176	80.2724	555.176	82.9983	555.176	79.9787	555.176	80.7276	555.176	80.2286	555.176	78.8333	555.176	80.509	555.176	79.0468	555.176	80.4804	555.176	80.7237	555.176	80.0449	555.176	82.0092	555.176	79.4024	555.176	82.2351	555.176	79.1709	555.176	81.282	555.176	79.8482	555.176	79.5378	555.176	80.9216	555.176	78.7718	555.176	81.5465	555.176	79.9945	555.176	81.2517
574.219	89.2207	574.219	88.7598	574.219	89.3391	574.219	87.9423	574.219	89.1557	574.219	86.7804	574.219	88.722	574.219	85.3092	574.219	88.0716	574.219	83.6117	574.219	87.2027	574.219	81.8991	574.219	86.0847	574.219	80.5685	574.219	84.6646	574.219	79.9479	574.219	82.8564	574.219	79.8841	574.219	80.6243	574.219	79.915	574.219	78.6294	574.219	79.6656	574.219	78.8259	574.219	79.0007	574.219	80.6583	574.219	78.2419	574.219	81.9496	574.219	78.3659	574.219	82.0611	574.219	79.753	574.219	81.2318	574.219	81.3343	574.219	80.5971	574.219	82.216	574.219	81.2146	574.219	82.1082
594.727	89.4732	594.727	89.1854	594.727	89.3805	594.727	88.498	594.727	88.971	594.727	87.4457	594.727	88.3199	594.727	86.1116	594.727	87.4775	594.727	84.6096	594.727	86.4689	594.727	83.0493	594.727	85.331	594.727	81.5091	594.727	84.1432	594.727	80.0955	594.727	83.0172	594.727	79.0605	594.727	81.9843	594.727	78.6242	594.727	80.8418	594.727	78.5299	594.727	79.2531	594.727	78.2996	594.727	77.443	594.727	77.9762	594.727	77.2927	594.727	78.4473	594.727	79.1925	594.727	80.1253	594.727	81.0719	594.727	81.971	594.727	82.3623	594.727	83.1617	594.727	83.1912	594.727	83.5247
615.234	88.7547	615.234	88.5506	615.234	88.6839	615.234	88.0386	615.234	88.387	615.234	87.2113	615.234	87.8994	615.234	86.0823	615.234	87.2229	615.234	84.7002	615.234	86.3343	615.234	83.2073	615.234	85.2029	615.234	81.8861	615.234	83.8133	615.234	80.9845	615.234	82.2234	615.234	80.4178	615.234	80.6948	615.234	79.9033	615.234	79.8364	615.234	79.2906	615.234	80.0553	615.234	78.6285	615.234	80.6494	615.234	78.1601	615.234	80.6123	615.234	78.348	615.234	79.4676	615.234	79.3982	615.234	77.7944	615.234	80.7204	615.234	78.069	615.234	81.5408	615.234	80.0585	615.234	81.3868
637.207	89.5503	637.207	89.1055	637.207	89.612	637.207	88.2686	637.207	89.3648	637.207	87.0908	637.207	88.9189	637.207	85.6688	637.207	88.3255	637.207	84.1219	637.207	87.4851	637.207	82.5923	637.207	86.2042	637.207	81.3127	637.207	84.361	637.207	80.5878	637.207	82.0348	637.207	80.4415	637.207	79.665	637.207	80.4472	637.207	78.4179	637.207	80.0875	637.207	78.9358	637.207	79.0381	637.207	79.8622	637.207	77.5405	637.207	80.0819	637.207	77.3226	637.207	79.3036	637.207	79.3718	637.207	78.3889	637.207	81.621	637.207	79.5256	637.207	82.9026	637.207	81.7027	637.207	82.9541
659.18	88.9651	659.18	88.8107	659.18	88.7845	659.18	88.3146	659.18	88.3058	659.18	87.4959	659.18	87.5698	659.18	86.3739	659.18	86.6013	659.18	84.9597	659.18	85.4443	659.18	83.2966	659.18	84.2144	659.18	81.5315	659.18	83.0545	659.18	79.9612	659.18	81.9717	659.18	78.9733	659.18	80.7409	659.18	78.6842	659.18	79.0162	659.18	78.6251	659.18	76.698	659.18	78.2149	659.18	75.0378	659.18	77.4687	659.18	75.799	659.18	77.4025	659.18	77.0452	659.18	78.7189	659.18	77.5317	659.18	80.3142	659.18	78.1718	659.18	81.1558	659.18	79.6392	659.18	80.8999
682.617	88.5236	682.617	88.5219	682.617	88.1191	682.617	88.0859	682.617	87.4938	682.617	87.2775	682.617	86.9004	682.617	86.166	682.617	86.3785	682.617	84.7987	682.617	85.727	682.617	83.2622	682.617	84.8273	682.617	81.7608	682.617	83.7781	682.617	80.5433	682.617	82.7465	682.617	79.7198	682.617	81.8226	682.617	79.2549	682.617	80.9129	682.617	78.9548	682.617	79.9575	682.617	78.3241	682.617	79.4185	682.617	76.9942	682.617	79.4374	682.617	76.09	682.617	78.9438	682.617	77.8237	682.617	77.1852	682.617	80.2936	682.617	76.3267	682.617	81.5384	682.617	78.9217	682.617	81.1081
707.52	89.0406	707.52	88.9637	707.52	88.9007	707.52	88.5334	707.52	88.6532	707.52	87.7212	707.52	88.2169	707.52	86.5896	707.52	87.4291	707.52	85.2245	707.52	86.2859	707.52	83.719	707.52	84.9613	707.52	82.2271	707.52	83.5807	707.52	80.968	707.52	82.1348	707.52	80.0673	707.52	80.6616	707.52	79.48	707.52	79.1306	707.52	79.084	707.52	77.5113	707.52	78.5674	707.52	77.0277	707.52	77.3838	707.52	78.1836	707.52	75.619	707.52	78.7517	707.52	76.5262	707.52	78.4297	707.52	79.9719	707.52	79.4962	707.52	82.2685	707.52	81.679	707.52	82.8052
732.422	88.4918	732.422	88.5091	732.422	88.1138	732.422	88.1499	732.422	87.494	732.422	87.4666	732.422	86.7631	732.422	86.4728	732.422	85.944	732.422	85.0827	732.422	84.9917	732.422	83.2464	732.422	83.9007	732.422	81.3231	732.422	82.6622	732.422	80.1307	732.422	81.1451	732.422	79.7748	732.422	79.2105	732.422	79.5406	732.422	77.4363	732.422	79.121	732.422	77.1041	732.422	78.6174	732.422	77.0173	732.422	77.9664	732.422	75.763	732.422	77.1126	732.422	75.4656	732.422	77.1454	732.422	76.6003	732.422	78.7998	732.422	76.7549	732.422	80.0175	732.422	77.6185	732.422	79.4885
757.324	87.6463	757.324	87.8117	757.324	87.4634	757.324	87.7822	757.324	87.2316	757.324	87.3343	757.324	86.8124	757.324	86.3377	757.324	86.1507	757.324	84.8397	757.324	85.2733	757.324	83.1708	757.324	84.2199	757.324	81.6866	757.324	83.124	757.324	80.3544	757.324	82.258	757.324	79.2256	757.324	81.5001	757.324	78.8105	757.324	80.185	757.324	78.8892	757.324	79.0573	757.324	78.428	757.324	80.043	757.324	76.8715	757.324	80.71	757.324	74.9232	757.324	79.2951	757.324	75.6881	757.324	76.5377	757.324	78.587	757.324	76.3834	757.324	80.5822	757.324	79.0721	757.324	80.7841
785.156	88.3799	785.156	88.6674	785.156	87.4492	785.156	88.0417	785.156	86.7768	785.156	86.7157	785.156	86.6648	785.156	85.1035	785.156	86.2825	785.156	83.5374	785.156	85.1965	785.156	82.1219	785.156	83.6012	785.156	80.9431	785.156	81.8507	785.156	79.8126	785.156	80.0497	785.156	78.3614	785.156	77.9897	785.156	77.0479	785.156	75.4076	785.156	76.6181	785.156	72.5855	785.156	76.7158	785.156	72.9623	785.156	76.809	785.156	76.6133	785.156	76.4879	785.156	78.7604	785.156	76.529	785.156	78.2429	785.156	78.5399	785.156	75.7999	785.156	80.3552	785.156	77.1479	785.156	79.97
811.523	87.9268	811.523	87.9358	811.523	87.8686	811.523	87.7346	811.523	87.6086	811.523	87.0347	811.523	86.9087	811.523	85.7128	811.523	85.6927	811.523	83.8478	811.523	84.0839	811.523	81.4752	811.523	82.3862	811.523	78.4659	811.523	81.0596	811.523	75.2058	811.523	80.2397	811.523	72.792	811.523	79.1285	811.523	71.456	811.523	76.7262	811.523	71.8913	811.523	74.322	811.523	73.2322	811.523	73.2459	811.523	73.9861	811.523	67.8618	811.523	75.7334	811.523	73.041	811.523	78.7108	811.523	77.8448	811.523	80.4812	811.523	77.7543	811.523	80.1697	811.523	75.6629	811.523	77.626
840.82	88.0311	840.82	88.1963	840.82	87.1734	840.82	87.4071	840.82	86.4256	840.82	85.8998	840.82	86.0299	840.82	84.3088	840.82	85.3567	840.82	83.3251	840.82	84.3658	840.82	82.7295	840.82	83.5931	840.82	81.9283	840.82	83.2293	840.82	81.1419	840.82	83.0995	840.82	81.0518	840.82	82.8907	840.82	81.5513	840.82	81.7346	840.82	81.9189	840.82	78.5844	840.82	81.8497	840.82	75.3167	840.82	81.1294	840.82	76.0652	840.82	79.1864	840.82	75.7948	840.82	77.0592	840.82	75.8747	840.82	78.1797	840.82	76.207	840.82	78.7282	840.82	74.8741	840.82	76.4886
870.117	87.9458	870.117	88.5222	870.117	87.405	870.117	88.3381	870.117	87.3581	870.117	86.9521	870.117	87.2061	870.117	84.2915	870.117	86.126	870.117	81.08	870.117	83.6694	870.117	79.5182	870.117	79.8979	870.117	80.2325	870.117	75.8927	870.117	81.3216	870.117	73.4376	870.117	81.8127	870.117	73.6456	870.117	81.8472	870.117	76.1029	870.117	81.6609	870.117	78.0294	870.117	81.1152	870.117	77.5874	870.117	80.1416	870.117	73.9059	870.117	78.8612	870.117	73.4112	870.117	78.3437	870.117	76.4954	870.117	78.6629	870.117	77.3143	870.117	77.7151	870.117	76.363	870.117	75.732
900.879	88.1657	900.879	88.9448	900.879	87.3368	900.879	88.3245	900.879	87.7953	900.879	86.2425	900.879	87.8962	900.879	83.1658	900.879	86.6431	900.879	80.94	900.879	84.4661	900.879	81.6039	900.879	82.0399	900.879	82.8326	900.879	79.416	900.879	83.2001	900.879	76.4824	900.879	82.6497	900.879	74.5129	900.879	81.401	900.879	75.5511	900.879	81.5475	900.879	79.0303	900.879	82.89	900.879	81.7152	900.879	82.2932	900.879	81.9267	900.879	78.9393	900.879	78.7898	900.879	74.8567	900.879	72.0803	900.879	74.4645	900.879	78.2326	900.879	74.6413	900.879	80.7796	900.879	78.6279
933.105	87.4476	933.105	87.3413	933.105	87.9934	933.105	87.6536	933.105	87.8134	933.105	87.3495	933.105	86.2807	933.105	85.644	933.105	83.5188	933.105	81.6434	933.105	80.8089	933.105	73.6453	933.105	80.7604	933.105	76.0652	933.105	82.1205	933.105	81.6836	933.105	82.9242	933.105	84.0439	933.105	82.8192	933.105	84.5164	933.105	81.2052	933.105	83.7675	933.105	77.3345	933.105	81.8642	933.105	69.4692	933.105	78.0247	933.105	76.4991	933.105	73.1671	933.105	81.9337	933.105	73.4557	933.105	81.9803	933.105	75.5359	933.105	76.62	933.105	79.3235	933.105	75.3256	933.105	79.8221
965.332	88.0157	965.332	87.9293	965.332	87.4746	965.332	87.1702	965.332	86.8862	965.332	85.9275	965.332	86.3312	965.332	84.3789	965.332	85.1866	965.332	82.6406	965.332	83.8009	965.332	80.1436	965.332	83.0391	965.332	76.5866	965.332	82.163	965.332	74.0207	965.332	80.4001	965.332	73.339	965.332	79.2487	965.332	72.0488	965.332	78.7385	965.332	73.4045	965.332	77.5172	965.332	77.4702	965.332	77.9041	965.332	79.2641	965.332	77.9232	965.332	78.708	965.332	75.6434	965.332	75.6221	965.332	74.5943	965.332	71.275	965.332	76.6874	965.332	73.003	965.332	78.9614	965.332	77.6848
1,000.49	87.9992	1,000.49	87.5726	1,000.49	88.0119	1,000.49	87.0201	1,000.49	87.2826	1,000.49	86.1827	1,000.49	85.8408	1,000.49	84.531	1,000.49	84.728	1,000.49	81.7936	1,000.49	84.7096	1,000.49	77.5663	1,000.49	84.5928	1,000.49	68.6455	1,000.49	83.6876	1,000.49	68.6548	1,000.49	82.6708	1,000.49	75.4831	1,000.49	82.1675	1,000.49	75.5378	1,000.49	81.2355	1,000.49	75.672	1,000.49	79.6914	1,000.49	76.4769	1,000.49	77.0623	1,000.49	76.4167	1,000.49	67.4752	1,000.49	76.5935	1,000.49	77.3485	1,000.49	76.5614	1,000.49	79.6687	1,000.49	76.1638	1,000.49	75.68	1,000.49	77.0979	1,000.49	75.9485	1,000.49	78.0262
1,035.64	87.3388	1,035.64	87.6575	1,035.64	87.5028	1,035.64	87.6893	1,035.64	87.8675	1,035.64	86.6045	1,035.64	87.1486	1,035.64	83.7721	1,035.64	84.8251	1,035.64	80.7922	1,035.64	81.9399	1,035.64	80.8905	1,035.64	80.833	1,035.64	81.0428	1,035.64	80.8872	1,035.64	79.2216	1,035.64	78.9186	1,035.64	75.5841	1,035.64	76.1245	1,035.64	68.2843	1,035.64	78.2882	1,035.64	70.4982	1,035.64	77.8746	1,035.64	76.717	1,035.64	76.1747	1,035.64	77.3844	1,035.64	75.4283	1,035.64	75.7458	1,035.64	69.2522	1,035.64	74.8626	1,035.64	76.4212	1,035.64	75.437	1,035.64	77.9261	1,035.64	76.3945	1,035.64	77.1463	1,035.64	77.0221
1,072.27	87.793	1,072.27	86.7915	1,072.27	88.2023	1,072.27	86.4762	1,072.27	87.4096	1,072.27	86.5213	1,072.27	86.0018	1,072.27	85.0758	1,072.27	85.5022	1,072.27	81.0462	1,072.27	85.4961	1,072.27	75.0983	1,072.27	84.8596	1,072.27	73.7939	1,072.27	83.4686	1,072.27	75.7281	1,072.27	81.3769	1,072.27	77.0062	1,072.27	78.1536	1,072.27	75.5429	1,072.27	75.9462	1,072.27	69.026	1,072.27	78.6079	1,072.27	71.6458	1,072.27	78.8015	1,072.27	74.6121	1,072.27	71.3503	1,072.27	74.9061	1,072.27	71.0679	1,072.27	75.404	1,072.27	77.348	1,072.27	76.816	1,072.27	76.3522	1,072.27	78.5031	1,072.27	76.356	1,072.27	78.6251
1,108.89	87.3632	1,108.89	87.5498	1,108.89	86.6505	1,108.89	86.3321	1,108.89	87.5291	1,108.89	85.0047	1,108.89	87.9086	1,108.89	84.2483	1,108.89	86.098	1,108.89	82.3243	1,108.89	83.2634	1,108.89	79.4624	1,108.89	81.5187	1,108.89	78.258	1,108.89	81.298	1,108.89	78.6334	1,108.89	81.392	1,108.89	78.8581	1,108.89	79.1911	1,108.89	77.5097	1,108.89	76.0667	1,108.89	72.4874	1,108.89	77.3232	1,108.89	71.958	1,108.89	78.0833	1,108.89	71.9736	1,108.89	76.3179	1,108.89	71.6608	1,108.89	64.6278	1,108.89	71.957	1,108.89	74.7021	1,108.89	72.7632	1,108.89	77.7919	1,108.89	74.6003	1,108.89	76.3779	1,108.89	75.3803
1,148.44	87.4319	1,148.44	87.3877	1,148.44	87.3826	1,148.44	85.935	1,148.44	87.7793	1,148.44	84.1552	1,148.44	87.3111	1,148.44	83.4549	1,148.44	86.2511	1,148.44	81.8654	1,148.44	84.79	1,148.44	78.1717	1,148.44	82.5018	1,148.44	67.7764	1,148.44	78.7427	1,148.44	70.8645	1,148.44	71.4667	1,148.44	76.1533	1,148.44	52.4314	1,148.44	75.6251	1,148.44	67.5258	1,148.44	70.5352	1,148.44	76.2816	1,148.44	70.7233	1,148.44	79.163	1,148.44	72.1525	1,148.44	76.3344	1,148.44	74.8417	1,148.44	58.7579	1,148.44	76.3622	1,148.44	73.3419	1,148.44	76.9657	1,148.44	76.9196	1,148.44	77.6366	1,148.44	74.7465	1,148.44	75.1228
1,189.45	86.1202	1,189.45	86.4114	1,189.45	87.1418	1,189.45	85.3864	1,189.45	88.5154	1,189.45	81.9732	1,189.45	87.9368	1,189.45	81.342	1,189.45	84.7505	1,189.45	84.0654	1,189.45	81.1255	1,189.45	84.6937	1,189.45	81.8009	1,189.45	82.2603	1,189.45	82.3506	1,189.45	77.1442	1,189.45	82.4046	1,189.45	71.2064	1,189.45	81.4396	1,189.45	64.2766	1,189.45	77.1442	1,189.45	66.2874	1,189.45	69.3814	1,189.45	67.0482	1,189.45	71.735	1,189.45	68.9129	1,189.45	75.2048	1,189.45	74.3288	1,189.45	75.0215	1,189.45	76.1889	1,189.45	57.5428	1,189.45	75.8221	1,189.45	79.0853	1,189.45	74.0792	1,189.45	80.1007	1,189.45	73.6292
1,230.47	86.8066	1,230.47	86.1406	1,230.47	87.757	1,230.47	85.7925	1,230.47	87.3914	1,230.47	84.0242	1,230.47	86.1103	1,230.47	81.0323	1,230.47	85.226	1,230.47	79.1072	1,230.47	83.1796	1,230.47	76.4931	1,230.47	79.0625	1,230.47	70.0738	1,230.47	74.352	1,230.47	75.8181	1,230.47	70.1592	1,230.47	78.7411	1,230.47	69.5425	1,230.47	78.0791	1,230.47	66.5794	1,230.47	75.8897	1,230.47	69.137	1,230.47	74.9522	1,230.47	76.9453	1,230.47	75.9327	1,230.47	77.8326	1,230.47	76.5407	1,230.47	70.6149	1,230.47	76.8248	1,230.47	69.3041	1,230.47	75.5209	1,230.47	76.251	1,230.47	73.5585	1,230.47	76.1202	1,230.47	72.8414
1,274.41	86.3794	1,274.41	85.9111	1,274.41	87.5425	1,274.41	84.6788	1,274.41	87.9313	1,274.41	81.2698	1,274.41	85.9566	1,274.41	78.728	1,274.41	82.7184	1,274.41	81.1754	1,274.41	82.4181	1,274.41	82.4626	1,274.41	82.3657	1,274.41	80.5457	1,274.41	80.8413	1,274.41	75.7954	1,274.41	80.3949	1,274.41	72.1457	1,274.41	80.9622	1,274.41	73.4295	1,274.41	78.9428	1,274.41	73.2029	1,274.41	73.9104	1,274.41	65.5609	1,274.41	70.022	1,274.41	70.4372	1,274.41	56.8692	1,274.41	76.1791	1,274.41	69.9186	1,274.41	75.5861	1,274.41	67.6732	1,274.41	72.4807	1,274.41	73.7815	1,274.41	71.7282	1,274.41	77.842	1,274.41	74.7068
1,319.82	87.3012	1,319.82	85.6858	1,319.82	88.4561	1,319.82	84.7925	1,319.82	87.6546	1,319.82	82.7194	1,319.82	85.644	1,319.82	78.3904	1,319.82	84.2675	1,319.82	77.3024	1,319.82	82.2803	1,319.82	79.631	1,319.82	78.8379	1,319.82	78.8044	1,319.82	74.7906	1,319.82	74.8944	1,319.82	70.706	1,319.82	72.1649	1,319.82	69.5947	1,319.82	76.1969	1,319.82	70.5616	1,319.82	73.7179	1,319.82	67.2384	1,319.82	70.1633	1,319.82	66.2385	1,319.82	72.2729	1,319.82	75.0407	1,319.82	71.6656	1,319.82	74.9524	1,319.82	71.645	1,319.82	60.9073	1,319.82	72.4245	1,319.82	76.0347	1,319.82	72.3685	1,319.82	78.125	1,319.82	75.2484
1,366.7	87.3343	1,366.7	85.8265	1,366.7	88.4383	1,366.7	83.7339	1,366.7	88.1359	1,366.7	81.1231	1,366.7	86.0903	1,366.7	78.8753	1,366.7	83.9051	1,366.7	78.8178	1,366.7	80.8096	1,366.7	79.6187	1,366.7	74.1112	1,366.7	78.3656	1,366.7	67.3358	1,366.7	76.3515	1,366.7	71.5541	1,366.7	73.7532	1,366.7	72.7203	1,366.7	73.4443	1,366.7	72.2861	1,366.7	73.9654	1,366.7	70.0848	1,366.7	70.1821	1,366.7	64.3063	1,366.7	72.1795	1,366.7	72.4657	1,366.7	74.804	1,366.7	57.9607	1,366.7	74.2923	1,366.7	68.5175	1,366.7	71.4066	1,366.7	74.2558	1,366.7	70.5033	1,366.7	77.1139	1,366.7	73.8651
1,413.57	87.4981	1,413.57	85.2353	1,413.57	88.8043	1,413.57	83.1251	1,413.57	87.9018	1,413.57	80.328	1,413.57	86.0393	1,413.57	76.653	1,413.57	83.0384	1,413.57	76.2257	1,413.57	75.4809	1,413.57	77.0948	1,413.57	69.9522	1,413.57	76.3963	1,413.57	71.2145	1,413.57	75.5489	1,413.57	70.9252	1,413.57	73.3466	1,413.57	72.5263	1,413.57	71.7664	1,413.57	70.8877	1,413.57	68.5829	1,413.57	72.3123	1,413.57	63.0794	1,413.57	70.8731	1,413.57	67.9801	1,413.57	49.0746	1,413.57	75.0715	1,413.57	65.2278	1,413.57	75.5227	1,413.57	58.9518	1,413.57	65.9937	1,413.57	67.1968	1,413.57	64.7279	1,413.57	76.3235	1,413.57	75.351
1,463.38	87.069	1,463.38	84.6047	1,463.38	88.5739	1,463.38	82.6212	1,463.38	87.6846	1,463.38	79.1915	1,463.38	84.9002	1,463.38	74.7381	1,463.38	79.7868	1,463.38	74.9865	1,463.38	72.6284	1,463.38	74.3349	1,463.38	70.9775	1,463.38	74.9861	1,463.38	73.216	1,463.38	75.274	1,463.38	72.5804	1,463.38	74.7625	1,463.38	72.9446	1,463.38	76.639	1,463.38	76.6817	1,463.38	76.4238	1,463.38	76.0071	1,463.38	71.3682	1,463.38	71.6055	1,463.38	69.7718	1,463.38	62.2608	1,463.38	74.4863	1,463.38	70.9671	1,463.38	74.3341	1,463.38	58.6188	1,463.38	65.0945	1,463.38	70.8806	1,463.38	62.889	1,463.38	75.1401	1,463.38	74.0184
1,516.11	87.3715	1,516.11	84.8335	1,516.11	87.9005	1,516.11	82.1089	1,516.11	86.8821	1,516.11	79.7931	1,516.11	84.4787	1,516.11	72.9646	1,516.11	78.0204	1,516.11	72.129	1,516.11	70.7345	1,516.11	74.2367	1,516.11	74.4937	1,516.11	74.7606	1,516.11	75.8799	1,516.11	75.2516	1,516.11	75.4035	1,516.11	74.11	1,516.11	74.6817	1,516.11	75.1432	1,516.11	74.192	1,516.11	75.0004	1,516.11	73.6751	1,516.11	65.0041	1,516.11	72.91	1,516.11	62.1022	1,516.11	67.6237	1,516.11	74.3027	1,516.11	71.8525	1,516.11	75.4949	1,516.11	66.4377	1,516.11	68.7048	1,516.11	69.8216	1,516.11	69.4254	1,516.11	75.2692	1,516.11	74.7781
1,568.85	87.3858	1,568.85	85.2144	1,568.85	87.311	1,568.85	81.4465	1,568.85	85.7674	1,568.85	78.8612	1,568.85	82.8372	1,568.85	72.0191	1,568.85	73.5825	1,568.85	70.5355	1,568.85	76.1414	1,568.85	77.7882	1,568.85	79.7693	1,568.85	79.5772	1,568.85	78.7603	1,568.85	78.2156	1,568.85	76.4233	1,568.85	73.6078	1,568.85	71.2602	1,568.85	74.9696	1,568.85	73.7325	1,568.85	75.9122	1,568.85	75.492	1,568.85	71.0373	1,568.85	73.7048	1,568.85	64.2739	1,568.85	71.1766	1,568.85	71.0402	1,568.85	69.317	1,568.85	74.9007	1,568.85	70.0952	1,568.85	69.7936	1,568.85	65.8447	1,568.85	68.1848	1,568.85	73.382	1,568.85	73.5055
1,624.51	87.9541	1,624.51	86.2153	1,624.51	88.1233	1,624.51	80.3405	1,624.51	87.0036	1,624.51	74.5934	1,624.51	80.6111	1,624.51	75.0256	1,624.51	73.9499	1,624.51	61.7011	1,624.51	80.2128	1,624.51	71.0796	1,624.51	77.0738	1,624.51	78.1273	1,624.51	71.8793	1,624.51	78.9355	1,624.51	67.3197	1,624.51	77.4753	1,624.51	70.0591	1,624.51	78.7764	1,624.51	69.6551	1,624.51	75.8149	1,624.51	71.9232	1,624.51	70.031	1,624.51	73.1341	1,624.51	57.7566	1,624.51	70.68	1,624.51	71.6786	1,624.51	69.0743	1,624.51	75.9315	1,624.51	70.9045	1,624.51	69.9377	1,624.51	60.4153	1,624.51	71.5219	1,624.51	71.129	1,624.51	73.4127
1,681.64	88.6881	1,681.64	85.2694	1,681.64	88.3077	1,681.64	78.3087	1,681.64	85.2528	1,681.64	73.0441	1,681.64	77.9684	1,681.64	70.007	1,681.64	75.7493	1,681.64	64.9044	1,681.64	80.7547	1,681.64	74.4752	1,681.64	81.3619	1,681.64	78.888	1,681.64	78.1769	1,681.64	80.324	1,681.64	76.7291	1,681.64	76.7284	1,681.64	77.8648	1,681.64	75.0635	1,681.64	76.7078	1,681.64	75.6199	1,681.64	74.0952	1,681.64	54.1604	1,681.64	68.0168	1,681.64	65.2543	1,681.64	68.0082	1,681.64	73.3382	1,681.64	75.9079	1,681.64	76.4392	1,681.64	71.1781	1,681.64	65.3985	1,681.64	56.8976	1,681.64	70.9869	1,681.64	71.0343	1,681.64	73.6325
1,741.7	88.5445	1,741.7	86.0052	1,741.7	88.8658	1,741.7	81.6879	1,741.7	85.1396	1,741.7	68.7368	1,741.7	75.2229	1,741.7	73.4987	1,741.7	73.8594	1,741.7	77.356	1,741.7	79.031	1,741.7	75.4715	1,741.7	82.5188	1,741.7	76.381	1,741.7	80.5348	1,741.7	77.6528	1,741.7	75.355	1,741.7	72.5309	1,741.7	75.6424	1,741.7	72.3448	1,741.7	75.7273	1,741.7	72.4139	1,741.7	75.4593	1,741.7	72.0099	1,741.7	67.9813	1,741.7	70.2884	1,741.7	67.4108	1,741.7	72.0737	1,741.7	61.5837	1,741.7	69.3216	1,741.7	71.6844	1,741.7	66.358	1,741.7	66.4642	1,741.7	66.655	1,741.7	71.7332	1,741.7	74.0668
1,803.22	88.3947	1,803.22	87.223	1,803.22	87.5228	1,803.22	83.6588	1,803.22	84.1626	1,803.22	73.8906	1,803.22	76.5058	1,803.22	65.8399	1,803.22	79.2694	1,803.22	74.911	1,803.22	82.5631	1,803.22	78.6796	1,803.22	80.8564	1,803.22	79.8846	1,803.22	79.3594	1,803.22	80.6769	1,803.22	78.9849	1,803.22	80.0454	1,803.22	78.199	1,803.22	77.6922	1,803.22	77.4928	1,803.22	73.2512	1,803.22	68.2486	1,803.22	69.2833	1,803.22	68.5139	1,803.22	71.9359	1,803.22	65.4178	1,803.22	71.8632	1,803.22	59.6647	1,803.22	69.9899	1,803.22	70.5778	1,803.22	69.1565	1,803.22	63.6616	1,803.22	68.6117	1,803.22	73.1007	1,803.22	70.4438
1,866.21	87.4711	1,866.21	86.4466	1,866.21	86.2427	1,866.21	81.6133	1,866.21	82.0514	1,866.21	71.4758	1,866.21	71.9615	1,866.21	66.6952	1,866.21	81.0205	1,866.21	77.0255	1,866.21	84.1391	1,866.21	75.5415	1,866.21	81.6513	1,866.21	70.4598	1,866.21	76.9686	1,866.21	65.0998	1,866.21	74.8747	1,866.21	69.247	1,866.21	72.4156	1,866.21	71.7278	1,866.21	69.2537	1,866.21	71.1845	1,866.21	62.7202	1,866.21	65.8109	1,866.21	72.0966	1,866.21	69.2708	1,866.21	62.7456	1,866.21	66.3175	1,866.21	63.2099	1,866.21	70.7168	1,866.21	71.3562	1,866.21	67.0658	1,866.21	69.0112	1,866.21	75.3418	1,866.21	70.6755	1,866.21	71.97
1,932.13	86.3319	1,932.13	85.5993	1,932.13	85.5057	1,932.13	82.5475	1,932.13	81.0465	1,932.13	69.1975	1,932.13	73.5012	1,932.13	74.2868	1,932.13	78.9866	1,932.13	75.6588	1,932.13	82.7658	1,932.13	76.7653	1,932.13	82.0077	1,932.13	75.7831	1,932.13	79.9293	1,932.13	76.1562	1,932.13	76.5608	1,932.13	75.7674	1,932.13	70.6056	1,932.13	72.7809	1,932.13	69.6157	1,932.13	72.08	1,932.13	63.0108	1,932.13	66.7873	1,932.13	71.1079	1,932.13	70.7804	1,932.13	71.7605	1,932.13	69.3494	1,932.13	58.4896	1,932.13	64.9017	1,932.13	72.9592	1,932.13	62.9067	1,932.13	67.3361	1,932.13	72.7314	1,932.13	71.2301	1,932.13	74.1232
1,999.51	86.604	1,999.51	85.5859	1,999.51	84.856	1,999.51	80.6815	1,999.51	79.0721	1,999.51	70.0976	1,999.51	70.4031	1,999.51	75.5159	1,999.51	79.9837	1,999.51	79.0812	1,999.51	81.2487	1,999.51	77.9041	1,999.51	80.0478	1,999.51	77.8523	1,999.51	77.0339	1,999.51	75.882	1,999.51	75.9517	1,999.51	71.8843	1,999.51	72.7911	1,999.51	74.0397	1,999.51	65.7349	1,999.51	70.4162	1,999.51	62.8208	1,999.51	67.912	1,999.51	69.4653	1,999.51	71.309	1,999.51	69.5094	1,999.51	69.5261	1,999.51	60.7374	1,999.51	64.0884	1,999.51	71.9469	1,999.51	63.906	1,999.51	68.2863	1,999.51	70.9809	1,999.51	72.0192	1,999.51	73.2508
2,069.82	87.2967	2,069.82	85.8049	2,069.82	85.0753	2,069.82	80.347	2,069.82	78.0903	2,069.82	71.852	2,069.82	72.4324	2,069.82	76.7183	2,069.82	79.21	2,069.82	80.1289	2,069.82	81.1986	2,069.82	78.9342	2,069.82	79.4823	2,069.82	77.7669	2,069.82	76.565	2,069.82	75.3216	2,069.82	73.7845	2,069.82	72.13	2,069.82	73.451	2,069.82	70.8545	2,069.82	69.6365	2,069.82	72.2015	2,069.82	54.9456	2,069.82	65.6357	2,069.82	67.7275	2,069.82	69.343	2,069.82	65.9823	2,069.82	67.4668	2,069.82	51.1138	2,069.82	64.5193	2,069.82	68.7881	2,069.82	65.1901	2,069.82	69.0266	2,069.82	72.4372	2,069.82	72.6053	2,069.82	72.4298
2,143.07	87.7048	2,143.07	86.8587	2,143.07	85.3263	2,143.07	82.184	2,143.07	78.377	2,143.07	72.3522	2,143.07	73.0576	2,143.07	76.6884	2,143.07	80.3773	2,143.07	78.4678	2,143.07	81.6753	2,143.07	77.3671	2,143.07	79.8724	2,143.07	73.73	2,143.07	77.0366	2,143.07	74.5137	2,143.07	73.9075	2,143.07	72.2458	2,143.07	70.583	2,143.07	67.5528	2,143.07	67.4877	2,143.07	69.1107	2,143.07	56.2112	2,143.07	64.795	2,143.07	70.3761	2,143.07	66.8329	2,143.07	66.2867	2,143.07	65.4222	2,143.07	57.9888	2,143.07	60.6062	2,143.07	65.6772	2,143.07	65.0543	2,143.07	70.842	2,143.07	70.4743	2,143.07	71.9678	2,143.07	69.4818
2,219.24	87.6938	2,219.24	87.2551	2,219.24	85.4376	2,219.24	82.6315	2,219.24	77.4357	2,219.24	73.1297	2,219.24	76.0555	2,219.24	75.4917	2,219.24	81.3421	2,219.24	76.7033	2,219.24	81.6258	2,219.24	75.587	2,219.24	80.4586	2,219.24	74.1429	2,219.24	75.1239	2,219.24	70.9862	2,219.24	73.2147	2,219.24	68.3721	2,219.24	69.9037	2,219.24	68.5224	2,219.24	59.2731	2,219.24	68.3419	2,219.24	58.7355	2,219.24	63.6794	2,219.24	71.5954	2,219.24	63.3434	2,219.24	66.8612	2,219.24	64.807	2,219.24	53.5334	2,219.24	59.0694	2,219.24	69.0773	2,219.24	67.428	2,219.24	74.4413	2,219.24	71.2207	2,219.24	69.9076	2,219.24	68.1644
2,296.88	88.0983	2,296.88	87.1105	2,296.88	86.0652	2,296.88	82.3641	2,296.88	79.5696	2,296.88	72.7016	2,296.88	79.1031	2,296.88	69.3594	2,296.88	83.3374	2,296.88	72.7495	2,296.88	82.409	2,296.88	73.2288	2,296.88	80.2746	2,296.88	73.0803	2,296.88	73.7213	2,296.88	74.1686	2,296.88	73.9522	2,296.88	72.713	2,296.88	73.0396	2,296.88	70.0548	2,296.88	65.4864	2,296.88	70.3601	2,296.88	68.9056	2,296.88	69.8728	2,296.88	70.2758	2,296.88	64.048	2,296.88	59.6301	2,296.88	68.213	2,296.88	60.2746	2,296.88	63.8334	2,296.88	72.445	2,296.88	68.2822	2,296.88	74.8865	2,296.88	69.341	2,296.88	67.0759	2,296.88	67.4329
2,378.91	89.7622	2,378.91	86.6995	2,378.91	88.1237	2,378.91	79.3235	2,378.91	81.8859	2,378.91	66.2444	2,378.91	79.2916	2,378.91	73.502	2,378.91	84.2938	2,378.91	75.1322	2,378.91	83.7103	2,378.91	76.1359	2,378.91	81.5159	2,378.91	75.9979	2,378.91	74.9702	2,378.91	75.5061	2,378.91	72.2128	2,378.91	76.5334	2,378.91	75.1636	2,378.91	72.4207	2,378.91	69.4763	2,378.91	71.8084	2,378.91	71.7469	2,378.91	73.1824	2,378.91	66.4825	2,378.91	66.704	2,378.91	54.2487	2,378.91	74.7455	2,378.91	67.5884	2,378.91	68.3914	2,378.91	75.5852	2,378.91	64.4425	2,378.91	74.4435	2,378.91	69.4574	2,378.91	67.393	2,378.91	70.4946
2,462.4	90.7477	2,462.4	85.7021	2,462.4	90.6167	2,462.4	71.5788	2,462.4	85.3789	2,462.4	77.9063	2,462.4	77.8315	2,462.4	80.9521	2,462.4	84.2462	2,462.4	81.1625	2,462.4	85.1456	2,462.4	81.33	2,462.4	83.7425	2,462.4	79.769	2,462.4	79.2952	2,462.4	79.2023	2,462.4	69.2941	2,462.4	76.1663	2,462.4	75.256	2,462.4	73.6297	2,462.4	73.7943	2,462.4	70.4909	2,462.4	70.7686	2,462.4	73.5014	2,462.4	68.8761	2,462.4	67.3162	2,462.4	66.4143	2,462.4	75.4006	2,462.4	67.5829	2,462.4	75.2224	2,462.4	75.3732	2,462.4	63.1863	2,462.4	70.6808	2,462.4	72.2479	2,462.4	70.316	2,462.4	73.8321
2,548.83	88.9877	2,548.83	82.8661	2,548.83	90.3958	2,548.83	64.709	2,548.83	86.3557	2,548.83	81.7052	2,548.83	70.587	2,548.83	82.8545	2,548.83	83.0578	2,548.83	83.5489	2,548.83	85.1037	2,548.83	82.5408	2,548.83	84.7995	2,548.83	80.251	2,548.83	81.0341	2,548.83	79.7664	2,548.83	73.7547	2,548.83	74.9814	2,548.83	77.2532	2,548.83	75.6853	2,548.83	75.439	2,548.83	72.0122	2,548.83	61.0841	2,548.83	71.6341	2,548.83	69.9062	2,548.83	69.8581	2,548.83	66.9165	2,548.83	73.6309	2,548.83	71.2511	2,548.83	74.4605	2,548.83	73.396	2,548.83	68.387	2,548.83	69.6948	2,548.83	68.5934	2,548.83	70.1972	2,548.83	73.611
2,639.65	85.7112	2,639.65	78.1169	2,639.65	88.114	2,639.65	77.8982	2,639.65	84.8317	2,639.65	83.3777	2,639.65	70.0094	2,639.65	84.6958	2,639.65	82.1195	2,639.65	84.4351	2,639.65	84.8626	2,639.65	82.1483	2,639.65	85.0161	2,639.65	81.023	2,639.65	81.1815	2,639.65	75.8519	2,639.65	75.9851	2,639.65	76.9533	2,639.65	76.5506	2,639.65	73.7462	2,639.65	73.6762	2,639.65	70.6198	2,639.65	65.4851	2,639.65	71.516	2,639.65	71.0551	2,639.65	68.4154	2,639.65	65.0465	2,639.65	71.4326	2,639.65	71.975	2,639.65	70.665	2,639.65	71.2315	2,639.65	70.3447	2,639.65	68.0969	2,639.65	56.5225	2,639.65	69.0122	2,639.65	67.5682
2,731.93	84.9413	2,731.93	77.9079	2,731.93	86.3273	2,731.93	81.3629	2,731.93	83.2483	2,731.93	83.725	2,731.93	79.2872	2,731.93	85.1437	2,731.93	82.2409	2,731.93	82.5621	2,731.93	83.9697	2,731.93	81.2838	2,731.93	83.9665	2,731.93	75.9136	2,731.93	82.1957	2,731.93	76.3894	2,731.93	79.62	2,731.93	73.9873	2,731.93	77.2947	2,731.93	70.5907	2,731.93	63.8235	2,731.93	69.0947	2,731.93	66.871	2,731.93	71.044	2,731.93	66.6767	2,731.93	67.2722	2,731.93	69.9757	2,731.93	70.1907	2,731.93	71.0638	2,731.93	68.1639	2,731.93	66.5255	2,731.93	66.5988	2,731.93	68.1785	2,731.93	37.66	2,731.93	67.6384	2,731.93	66.9303
2,828.61	85.2199	2,828.61	81.9533	2,828.61	85.9779	2,828.61	82.2359	2,828.61	81.3666	2,828.61	84.4629	2,828.61	80.9346	2,828.61	84.4873	2,828.61	82.3903	2,828.61	82.5148	2,828.61	82.5818	2,828.61	79.6072	2,828.61	83.4121	2,828.61	77.3414	2,828.61	82.1793	2,828.61	75.8834	2,828.61	81.153	2,828.61	74.9444	2,828.61	76.7618	2,828.61	72.9335	2,828.61	66.9372	2,828.61	70.2101	2,828.61	69.4815	2,828.61	68.4661	2,828.61	70.4474	2,828.61	67.6071	2,828.61	68.8659	2,828.61	67.5666	2,828.61	72.5898	2,828.61	70.0139	2,828.61	61.7652	2,828.61	63.8327	2,828.61	67.023	2,828.61	53.4332	2,828.61	67.1524	2,828.61	59.0027
2,928.22	85.5239	2,928.22	84.5426	2,928.22	86.7968	2,928.22	83.2815	2,928.22	81.4079	2,928.22	84.9225	2,928.22	82.3004	2,928.22	83.7673	2,928.22	83.7302	2,928.22	82.466	2,928.22	82.3045	2,928.22	79.5048	2,928.22	83.9529	2,928.22	79.8871	2,928.22	82.7399	2,928.22	75.8006	2,928.22	79.6675	2,928.22	74.5145	2,928.22	70.5159	2,928.22	71.5452	2,928.22	74.1061	2,928.22	69.289	2,928.22	69.7589	2,928.22	67.6801	2,928.22	64.3436	2,928.22	66.7808	2,928.22	72.6078	2,928.22	68.7822	2,928.22	66.6292	2,928.22	69.5075	2,928.22	61.6401	2,928.22	67.045	2,928.22	64.1388	2,928.22	52.2894	2,928.22	68.9361	2,928.22	64.1759
3,030.76	86.1134	3,030.76	85.127	3,030.76	86.2152	3,030.76	84.3084	3,030.76	82.4412	3,030.76	85.1514	3,030.76	82.1807	3,030.76	83.7556	3,030.76	84.312	3,030.76	81.4359	3,030.76	81.8685	3,030.76	80.8342	3,030.76	84.0187	3,030.76	77.4574	3,030.76	84.3656	3,030.76	75.9228	3,030.76	80.3259	3,030.76	75.3419	3,030.76	77.8828	3,030.76	73.168	3,030.76	76.2729	3,030.76	70.4981	3,030.76	66.02	3,030.76	69.6579	3,030.76	71.0697	3,030.76	71.009	3,030.76	74.4876	3,030.76	67.8541	3,030.76	63.3708	3,030.76	72.2751	3,030.76	63.0826	3,030.76	66.3369	3,030.76	65.3414	3,030.76	49.6098	3,030.76	70.5241	3,030.76	62.284
3,137.7	86.7363	3,137.7	84.7311	3,137.7	85.6458	3,137.7	84.5849	3,137.7	83.4445	3,137.7	85.571	3,137.7	84.69	3,137.7	84.0923	3,137.7	83.3068	3,137.7	81.672	3,137.7	80.8688	3,137.7	80.0502	3,137.7	83.7067	3,137.7	78.3358	3,137.7	85.4456	3,137.7	78.7492	3,137.7	82.1799	3,137.7	75.5731	3,137.7	80.0934	3,137.7	72.4058	3,137.7	74.3881	3,137.7	71.1388	3,137.7	69.0187	3,137.7	68.6579	3,137.7	71.913	3,137.7	69.9549	3,137.7	71.1587	3,137.7	70.809	3,137.7	63.744	3,137.7	71.6325	3,137.7	62.5736	3,137.7	65.8753	3,137.7	66.0159	3,137.7	44.5896	3,137.7	72.5013	3,137.7	65.6551
3,249.02	86.998	3,249.02	84.7426	3,249.02	85.8915	3,249.02	85.0325	3,249.02	83.1915	3,249.02	86.0687	3,249.02	86.484	3,249.02	83.6431	3,249.02	84.3539	3,249.02	81.7459	3,249.02	80.3765	3,249.02	80.6956	3,249.02	83.8534	3,249.02	79.3701	3,249.02	86.7054	3,249.02	75.7266	3,249.02	83.9686	3,249.02	73.9436	3,249.02	82.2075	3,249.02	71.0343	3,249.02	74.5055	3,249.02	69.8197	3,249.02	65.1651	3,249.02	69.2867	3,249.02	71.0686	3,249.02	68.3545	3,249.02	74.0164	3,249.02	70.7782	3,249.02	57.7663	3,249.02	69.7728	3,249.02	63.8882	3,249.02	69.748	3,249.02	69.0555	3,249.02	55.8184	3,249.02	72.0088	3,249.02	64.6717
3,363.28	87.4238	3,363.28	85.584	3,363.28	86.7986	3,363.28	84.7841	3,363.28	82.4513	3,363.28	85.2511	3,363.28	86.4937	3,363.28	83.901	3,363.28	85.4986	3,363.28	82.4651	3,363.28	79.2205	3,363.28	81.2292	3,363.28	84.7975	3,363.28	78.999	3,363.28	86.8472	3,363.28	77.4968	3,363.28	84.0492	3,363.28	77.9198	3,363.28	83.1499	3,363.28	73.5725	3,363.28	73.2616	3,363.28	69.7852	3,363.28	64.2573	3,363.28	68.1015	3,363.28	67.0117	3,363.28	68.8682	3,363.28	72.9715	3,363.28	71.3889	3,363.28	65.5614	3,363.28	70.2895	3,363.28	66.7086	3,363.28	68.042	3,363.28	71.0682	3,363.28	61.1433	3,363.28	71.1567	3,363.28	66.3639
3,481.93	87.5146	3,481.93	86.0346	3,481.93	87.0294	3,481.93	86.737	3,481.93	84.1691	3,481.93	85.4773	3,481.93	86.8095	3,481.93	84.0583	3,481.93	86.8519	3,481.93	83.6101	3,481.93	77.6519	3,481.93	80.9285	3,481.93	85.1168	3,481.93	80.6673	3,481.93	85.1211	3,481.93	78.8554	3,481.93	84.678	3,481.93	73.3886	3,481.93	81.148	3,481.93	72.5033	3,481.93	70.2657	3,481.93	70.8217	3,481.93	70.4697	3,481.93	65.3157	3,481.93	56.9175	3,481.93	69.9619	3,481.93	70.9846	3,481.93	72.308	3,481.93	68.2982	3,481.93	71.7575	3,481.93	66.1269	3,481.93	70.2934	3,481.93	71.8641	3,481.93	55.4274	3,481.93	71.8248	3,481.93	60.314
3,604.98	87.9751	3,604.98	86.2975	3,604.98	86.5321	3,604.98	87.3256	3,604.98	84.982	3,604.98	86.1295	3,604.98	86.6696	3,604.98	84.0781	3,604.98	87.7546	3,604.98	83.1111	3,604.98	80.7913	3,604.98	82.4987	3,604.98	85.6532	3,604.98	80.5766	3,604.98	85.1714	3,604.98	76.7155	3,604.98	82.4964	3,604.98	78.2098	3,604.98	76.0267	3,604.98	72.9644	3,604.98	64.349	3,604.98	71.2792	3,604.98	75.6977	3,604.98	68.1385	3,604.98	56.6696	3,604.98	71.5068	3,604.98	69.5285	3,604.98	71.5264	3,604.98	69.8342	3,604.98	71.3488	3,604.98	66.7216	3,604.98	69.8105	3,604.98	70.061	3,604.98	44.5801	3,604.98	69.9715	3,604.98	62.7215
3,732.42	88.3982	3,732.42	87.4853	3,732.42	87.69	3,732.42	86.187	3,732.42	85.5447	3,732.42	85.9448	3,732.42	86.5368	3,732.42	85.0078	3,732.42	87.6471	3,732.42	83.3542	3,732.42	81.083	3,732.42	82.439	3,732.42	85.0249	3,732.42	80.3722	3,732.42	82.5986	3,732.42	80.3835	3,732.42	80.7867	3,732.42	74.535	3,732.42	69.3886	3,732.42	72.6167	3,732.42	72.0494	3,732.42	68.8492	3,732.42	73.5674	3,732.42	65.8481	3,732.42	62.9076	3,732.42	71.1554	3,732.42	66.6543	3,732.42	68.9239	3,732.42	70.0916	3,732.42	72.7012	3,732.42	67.5126	3,732.42	70.1599	3,732.42	69.4021	3,732.42	57.8248	3,732.42	71.3112	3,732.42	63.0003
3,864.26	88.0593	3,864.26	86.9006	3,864.26	87.4376	3,864.26	86.3679	3,864.26	87.1639	3,864.26	86.2922	3,864.26	86.8431	3,864.26	84.2072	3,864.26	87.6959	3,864.26	84.1882	3,864.26	83.4784	3,864.26	81.7966	3,864.26	83.9282	3,864.26	80.4838	3,864.26	83.9007	3,864.26	74.4504	3,864.26	78.544	3,864.26	75.1772	3,864.26	72.2694	3,864.26	72.121	3,864.26	63.2542	3,864.26	65.029	3,864.26	70.525	3,864.26	66.319	3,864.26	62.7677	3,864.26	70.9192	3,864.26	64.6342	3,864.26	68.5236	3,864.26	69.1358	3,864.26	72.5505	3,864.26	64.5281	3,864.26	71.8263	3,864.26	71.5076	3,864.26	53.9195	3,864.26	70.1771	3,864.26	64.7664
4,000.49	88.2134	4,000.49	87.4337	4,000.49	86.1488	4,000.49	86.8682	4,000.49	87.1423	4,000.49	86.7671	4,000.49	86.727	4,000.49	84.4905	4,000.49	86.7684	4,000.49	84.3456	4,000.49	83.3288	4,000.49	82.6437	4,000.49	82.8948	4,000.49	80.4605	4,000.49	81.7137	4,000.49	80.085	4,000.49	79.2013	4,000.49	76.3889	4,000.49	76.9521	4,000.49	74.59	4,000.49	75.0112	4,000.49	69.0679	4,000.49	66.484	4,000.49	68.1532	4,000.49	63.8607	4,000.49	71.7964	4,000.49	58.2249	4,000.49	67.8251	4,000.49	62.7495	4,000.49	73.227	4,000.49	65.1011	4,000.49	70.6936	4,000.49	68.8372	4,000.49	63.1576	4,000.49	68.3458	4,000.49	64.8149
4,141.11	89.5503	4,141.11	88.0341	4,141.11	86.4908	4,141.11	85.9938	4,141.11	87.8407	4,141.11	85.9716	4,141.11	87.469	4,141.11	85.4629	4,141.11	86.7929	4,141.11	84.8065	4,141.11	82.9621	4,141.11	83.3712	4,141.11	77.7645	4,141.11	81.5203	4,141.11	77.8827	4,141.11	76.6478	4,141.11	78.991	4,141.11	76.168	4,141.11	82.1093	4,141.11	72.3149	4,141.11	76.9181	4,141.11	66.5635	4,141.11	71.255	4,141.11	65.3166	4,141.11	55.5442	4,141.11	69.7597	4,141.11	53.5875	4,141.11	65.4669	4,141.11	61.6587	4,141.11	72.395	4,141.11	68.5376	4,141.11	72.4992	4,141.11	66.7537	4,141.11	58.1008	4,141.11	64.7078	4,141.11	61.6659
4,287.6	90.1609	4,287.6	86.2842	4,287.6	87.1898	4,287.6	86.9968	4,287.6	87.2239	4,287.6	86.9246	4,287.6	86.7545	4,287.6	85.7346	4,287.6	86.8402	4,287.6	84.3633	4,287.6	84.0383	4,287.6	82.6794	4,287.6	66.7557	4,287.6	78.017	4,287.6	80.9666	4,287.6	77.9413	4,287.6	81.9778	4,287.6	71.5422	4,287.6	82.5846	4,287.6	71.0868	4,287.6	75.753	4,287.6	65.3357	4,287.6	71.7841	4,287.6	64.9732	4,287.6	49.8662	4,287.6	68.0587	4,287.6	67.5862	4,287.6	67.062	4,287.6	63.8912	4,287.6	68.5612	4,287.6	66.8361	4,287.6	71.1283	4,287.6	66.15	4,287.6	63.0031	4,287.6	67.5168	4,287.6	60.6949
4,438.48	89.3228	4,438.48	85.8573	4,438.48	87.7526	4,438.48	87.3094	4,438.48	87.6847	4,438.48	86.6241	4,438.48	85.8499	4,438.48	85.0311	4,438.48	87.4513	4,438.48	84.7602	4,438.48	84.7545	4,438.48	79.9988	4,438.48	72.2554	4,438.48	78.7457	4,438.48	84.6478	4,438.48	73.6289	4,438.48	82.0921	4,438.48	75.7083	4,438.48	78.9391	4,438.48	73.4021	4,438.48	64.4538	4,438.48	65.4666	4,438.48	71.4292	4,438.48	68.3464	4,438.48	60.1464	4,438.48	69.0989	4,438.48	70.1386	4,438.48	66.2825	4,438.48	65.2414	4,438.48	70.8228	4,438.48	64.6989	4,438.48	70.4747	4,438.48	68.6146	4,438.48	68.3092	4,438.48	64.3801	4,438.48	64.8885
4,595.21	88.0438	4,595.21	86.4729	4,595.21	87.6594	4,595.21	87.2457	4,595.21	88.2457	4,595.21	86.9675	4,595.21	86.9109	4,595.21	85.6215	4,595.21	87.4387	4,595.21	83.9933	4,595.21	84.4355	4,595.21	80.9998	4,595.21	77.3824	4,595.21	78.6853	4,595.21	86.0879	4,595.21	79.1227	4,595.21	82.8	4,595.21	72.1839	4,595.21	79.6412	4,595.21	71.5751	4,595.21	72.6636	4,595.21	68.4691	4,595.21	68.0294	4,595.21	60.2701	4,595.21	63.2892	4,595.21	66.6739	4,595.21	69.0177	4,595.21	68.9198	4,595.21	66.0164	4,595.21	70.7991	4,595.21	67.9194	4,595.21	70.8794	4,595.21	66.784	4,595.21	68.5394	4,595.21	63.8995	4,595.21	63.0903
4,756.35	88.5183	4,756.35	86.3349	4,756.35	87.4566	4,756.35	88.0751	4,756.35	87.9811	4,756.35	86.6321	4,756.35	87.7294	4,756.35	85.1676	4,756.35	86.3156	4,756.35	83.4605	4,756.35	84.8142	4,756.35	81.4698	4,756.35	78.8474	4,756.35	80.0201	4,756.35	85.9533	4,756.35	76.7146	4,756.35	80.0309	4,756.35	76.5157	4,756.35	79.4383	4,756.35	72.8646	4,756.35	76.8785	4,756.35	68.758	4,756.35	69.2722	4,756.35	64.9899	4,756.35	59.125	4,756.35	68.4813	4,756.35	69.3349	4,756.35	69.1846	4,756.35	65.8738	4,756.35	71.3064	4,756.35	66.1206	4,756.35	72.2055	4,756.35	64.4752	4,756.35	65.8993	4,756.35	63.7552	4,756.35	63.2683
4,924.8	87.9884	4,924.8	86.8632	4,924.8	87.4721	4,924.8	87.6323	4,924.8	87.8533	4,924.8	86.706	4,924.8	87.1054	4,924.8	85.8804	4,924.8	84.8531	4,924.8	83.6432	4,924.8	83.9535	4,924.8	82.1748	4,924.8	78.9295	4,924.8	80.6296	4,924.8	83.1435	4,924.8	77.4047	4,924.8	79.906	4,924.8	73.4232	4,924.8	71.602	4,924.8	71.7077	4,924.8	74.1347	4,924.8	67.2665	4,924.8	68.6464	4,924.8	65.0334	4,924.8	63.6315	4,924.8	69.1015	4,924.8	67.0485	4,924.8	66.8393	4,924.8	59.1722	4,924.8	70.4653	4,924.8	62.1348	4,924.8	71.7249	4,924.8	65.2465	4,924.8	68.2344	4,924.8	63.7759	4,924.8	64.3607
5,097.66	87.3474	5,097.66	86.0951	5,097.66	86.4439	5,097.66	87.2065	5,097.66	88.5247	5,097.66	86.932	5,097.66	86.3217	5,097.66	84.7308	5,097.66	84.5342	5,097.66	83.882	5,097.66	83.7578	5,097.66	81.7488	5,097.66	77.0487	5,097.66	77.8951	5,097.66	79.7543	5,097.66	75.6562	5,097.66	81.2366	5,097.66	73.2003	5,097.66	75.8346	5,097.66	70.6801	5,097.66	73.9275	5,097.66	66.3808	5,097.66	65.6812	5,097.66	60.605	5,097.66	64.5122	5,097.66	64.4546	5,097.66	64.5249	5,097.66	67.6229	5,097.66	63.8488	5,097.66	70.436	5,097.66	66.563	5,097.66	69.563	5,097.66	66.7547	5,097.66	67.7803	5,097.66	64.8292	5,097.66	66.1251
5,277.83	87.4344	5,277.83	86.4435	5,277.83	86.6821	5,277.83	87.3822	5,277.83	87.6131	5,277.83	87.5579	5,277.83	87.6229	5,277.83	85.1229	5,277.83	83.728	5,277.83	83.7648	5,277.83	85.3596	5,277.83	79.9758	5,277.83	73.922	5,277.83	80.2534	5,277.83	77.3383	5,277.83	75.7891	5,277.83	81.5481	5,277.83	75.5153	5,277.83	79.1061	5,277.83	72.6286	5,277.83	72.5309	5,277.83	66.2656	5,277.83	60.7046	5,277.83	65.6038	5,277.83	57.7139	5,277.83	62.7236	5,277.83	59.3419	5,277.83	68.5937	5,277.83	58.7486	5,277.83	72.394	5,277.83	65.3939	5,277.83	72.3708	5,277.83	59.8281	5,277.83	70.2062	5,277.83	57.2589	5,277.83	63.314
5,463.87	86.6138	5,463.87	86.2377	5,463.87	87.0241	5,463.87	87.1735	5,463.87	86.8648	5,463.87	86.6063	5,463.87	88.546	5,463.87	84.6452	5,463.87	86.1066	5,463.87	83.4709	5,463.87	86.2244	5,463.87	82.1054	5,463.87	77.2851	5,463.87	80.9579	5,463.87	78.804	5,463.87	77.9663	5,463.87	80.1093	5,463.87	74.6287	5,463.87	79.2669	5,463.87	72.8345	5,463.87	70.3947	5,463.87	68.3947	5,463.87	66.3055	5,463.87	64.7362	5,463.87	61.4587	5,463.87	62.8692	5,463.87	64.6338	5,463.87	68.7642	5,463.87	63.1095	5,463.87	70.9769	5,463.87	65.0127	5,463.87	70.9217	5,463.87	59.3323	5,463.87	70.1818	5,463.87	62.9839	5,463.87	66.1876
5,657.23	86.9855	5,657.23	85.7224	5,657.23	86.9916	5,657.23	87.1649	5,657.23	86.9702	5,657.23	85.9642	5,657.23	87.8739	5,657.23	85.3712	5,657.23	86.1895	5,657.23	83.0428	5,657.23	86.65	5,657.23	82.3404	5,657.23	77.6134	5,657.23	80.0497	5,657.23	79.4059	5,657.23	75.4199	5,657.23	80.5117	5,657.23	74.6174	5,657.23	76.958	5,657.23	70.8652	5,657.23	62.7711	5,657.23	67.7881	5,657.23	58.4375	5,657.23	61.6324	5,657.23	61.1308	5,657.23	64.0279	5,657.23	67.0296	5,657.23	67.475	5,657.23	56.1722	5,657.23	67.9273	5,657.23	66.4081	5,657.23	71.4563	5,657.23	58.6772	5,657.23	69.599	5,657.23	63.5707	5,657.23	65.9835
5,856.45	86.854	5,856.45	86.5356	5,856.45	85.928	5,856.45	87.4264	5,856.45	85.6694	5,856.45	86.0525	5,856.45	84.5645	5,856.45	84.4641	5,856.45	85.6813	5,856.45	84.6697	5,856.45	85.571	5,856.45	81.3456	5,856.45	80.5482	5,856.45	81.1154	5,856.45	77.5831	5,856.45	77.3934	5,856.45	82.3224	5,856.45	75.22	5,856.45	78.1395	5,856.45	71.5891	5,856.45	72.5115	5,856.45	66.8794	5,856.45	69.8027	5,856.45	61.501	5,856.45	60.5433	5,856.45	65.4775	5,856.45	61.3636	5,856.45	66.6007	5,856.45	65.6582	5,856.45	68.6985	5,856.45	63.7306	5,856.45	72.5503	5,856.45	57.9015	5,856.45	69.4478	5,856.45	62.9337	5,856.45	64.5747
6,062.99	88.0685	6,062.99	86.1832	6,062.99	85.6167	6,062.99	87.4924	6,062.99	87.373	6,062.99	86.1001	6,062.99	84.0669	6,062.99	83.8227	6,062.99	83.4177	6,062.99	85.0097	6,062.99	83.6354	6,062.99	81.6802	6,062.99	81.6226	6,062.99	81.2658	6,062.99	77.5909	6,062.99	77.2934	6,062.99	82.791	6,062.99	73.8633	6,062.99	73.8739	6,062.99	72.4243	6,062.99	75.4099	6,062.99	67.1537	6,062.99	73.6053	6,062.99	63.3492	6,062.99	67.3253	6,062.99	64.1428	6,062.99	59.9476	6,062.99	66.0282	6,062.99	68.1556	6,062.99	68.7326	6,062.99	66.9549	6,062.99	72.452	6,062.99	40.5812	6,062.99	69.4053	6,062.99	59.3979	6,062.99	65.2034
6,276.86	87.4824	6,276.86	86.5808	6,276.86	86.8714	6,276.86	86.9557	6,276.86	87.1708	6,276.86	85.3161	6,276.86	86.5684	6,276.86	84.225	6,276.86	81.4101	6,276.86	84.836	6,276.86	81.8466	6,276.86	82.5001	6,276.86	80.0432	6,276.86	80.3829	6,276.86	74.8664	6,276.86	76.2499	6,276.86	81.782	6,276.86	71.6581	6,276.86	72.3461	6,276.86	69.9852	6,276.86	72.2996	6,276.86	63.2727	6,276.86	69.4464	6,276.86	56.7344	6,276.86	69.7177	6,276.86	60.9808	6,276.86	61.5816	6,276.86	65.8356	6,276.86	65.1341	6,276.86	67.7178	6,276.86	69.8839	6,276.86	69.1037	6,276.86	57.4844	6,276.86	67.1885	6,276.86	61.7816	6,276.86	65.831
6,498.05	87.3637	6,498.05	87.2152	6,498.05	87.2824	6,498.05	86.4066	6,498.05	84.9065	6,498.05	85.0489	6,498.05	86.277	6,498.05	85.1921	6,498.05	84.0654	6,498.05	84.5507	6,498.05	83.2551	6,498.05	81.6394	6,498.05	81.6815	6,498.05	79.1362	6,498.05	76.1229	6,498.05	75.0548	6,498.05	77.7718	6,498.05	72.0243	6,498.05	65.4898	6,498.05	70.7344	6,498.05	66.7124	6,498.05	66.6921	6,498.05	67.518	6,498.05	61.8172	6,498.05	67.269	6,498.05	51.0757	6,498.05	60.1852	6,498.05	64.8508	6,498.05	65.0559	6,498.05	64.9608	6,498.05	66.1651	6,498.05	69.8962	6,498.05	58.4949	6,498.05	69.0906	6,498.05	53.5941	6,498.05	66.2138
6,726.56	87.8995	6,726.56	87.1512	6,726.56	87.4214	6,726.56	86.1399	6,726.56	85.7477	6,726.56	85.2617	6,726.56	85.2144	6,726.56	84.9578	6,726.56	85.5448	6,726.56	84.2854	6,726.56	83.1807	6,726.56	81.1335	6,726.56	82.7702	6,726.56	78.8826	6,726.56	71.0707	6,726.56	75.6512	6,726.56	74.1418	6,726.56	72.0725	6,726.56	71.0004	6,726.56	68.8341	6,726.56	64.5507	6,726.56	66.7903	6,726.56	65.492	6,726.56	60.0595	6,726.56	62.9629	6,726.56	51.4162	6,726.56	63.8841	6,726.56	65.8789	6,726.56	57.0667	6,726.56	66.5885	6,726.56	67.6557	6,726.56	69.7763	6,726.56	58.3664	6,726.56	67.3141	6,726.56	38.9343	6,726.56	65.2195
6,963.87	88.2775	6,963.87	86.8968	6,963.87	85.8626	6,963.87	86.4604	6,963.87	86.4508	6,963.87	85.4636	6,963.87	85.3785	6,963.87	84.6281	6,963.87	85.6585	6,963.87	83.8777	6,963.87	83.0118	6,963.87	80.7409	6,963.87	82.5151	6,963.87	78.7098	6,963.87	65.9927	6,963.87	75.9444	6,963.87	78.3366	6,963.87	69.5902	6,963.87	74.1275	6,963.87	69.6846	6,963.87	64.5892	6,963.87	65.5979	6,963.87	67.6427	6,963.87	61.6002	6,963.87	65.0784	6,963.87	49.5346	6,963.87	58.6917	6,963.87	65.1432	6,963.87	60.331	6,963.87	65.2264	6,963.87	61.4043	6,963.87	67.9977	6,963.87	63.7587	6,963.87	65.8904	6,963.87	36.7978	6,963.87	62.3695
7,209.96	88.1833	7,209.96	86.9069	7,209.96	86.8458	7,209.96	86.3938	7,209.96	84.1022	7,209.96	85.2335	7,209.96	85.7241	7,209.96	84.1607	7,209.96	83.9574	7,209.96	83.2847	7,209.96	84.3688	7,209.96	80.7677	7,209.96	80.1355	7,209.96	77.4193	7,209.96	77.4595	7,209.96	74.2234	7,209.96	78.6542	7,209.96	72.4139	7,209.96	75.2231	7,209.96	68.9191	7,209.96	65.8453	7,209.96	65.7511	7,209.96	62.5926	7,209.96	59.3252	7,209.96	62.54	7,209.96	60.4012	7,209.96	58.0982	7,209.96	65.6872	7,209.96	61.3526	7,209.96	64.3383	7,209.96	50.958	7,209.96	67.5313	7,209.96	60.4622	7,209.96	65.914	7,209.96	45.9685	7,209.96	62.0209
7,464.84	87.6455	7,464.84	86.7725	7,464.84	87.7034	7,464.84	86.2946	7,464.84	86.5155	7,464.84	85.1991	7,464.84	85.414	7,464.84	84.2821	7,464.84	83.9796	7,464.84	82.5609	7,464.84	83.8533	7,464.84	81.0323	7,464.84	79.407	7,464.84	78.6061	7,464.84	76.3021	7,464.84	75.9171	7,464.84	75.9964	7,464.84	70.4274	7,464.84	71.1003	7,464.84	69.9888	7,464.84	69.4717	7,464.84	66.6821	7,464.84	55.8688	7,464.84	57.8041	7,464.84	56.2115	7,464.84	64.8716	7,464.84	61.0742	7,464.84	66.6705	7,464.84	64.552	7,464.84	64.4372	7,464.84	62.3431	7,464.84	65.7344	7,464.84	49.0269	7,464.84	66.1669	7,464.84	60.2793	7,464.84	63.2058
7,727.05	87.8308	7,727.05	86.8132	7,727.05	87.2293	7,727.05	86.9401	7,727.05	86.5296	7,727.05	85.7462	7,727.05	86.6194	7,727.05	83.0797	7,727.05	84.792	7,727.05	83.2828	7,727.05	82.7381	7,727.05	80.9456	7,727.05	79.5724	7,727.05	78.204	7,727.05	77.1724	7,727.05	74.9601	7,727.05	72.0095	7,727.05	70.2939	7,727.05	69.5463	7,727.05	68.5634	7,727.05	71.5529	7,727.05	63.5595	7,727.05	67.2983	7,727.05	57.0209	7,727.05	62.7881	7,727.05	61.0775	7,727.05	60.838	7,727.05	65.4873	7,727.05	61.3117	7,727.05	64.6766	7,727.05	65.0167	7,727.05	61.66	7,727.05	59.2658	7,727.05	67.3184	7,727.05	57.4054	7,727.05	61.8475
7,999.51	86.5175	7,999.51	87.7481	7,999.51	87.6161	7,999.51	86.8257	7,999.51	85.5013	7,999.51	85.3011	7,999.51	86.2078	7,999.51	83.5481	7,999.51	85.0011	7,999.51	82.3881	7,999.51	81.2229	7,999.51	81.6752	7,999.51	82.5678	7,999.51	77.7583	7,999.51	72.4688	7,999.51	75.3733	7,999.51	72.1646	7,999.51	69.9489	7,999.51	61.7408	7,999.51	69.0633	7,999.51	68.3278	7,999.51	63.5486	7,999.51	66.2042	7,999.51	41.6909	7,999.51	67.2321	7,999.51	61.4158	7,999.51	56.2549	7,999.51	64.7965	7,999.51	61.1063	7,999.51	64.7991	7,999.51	67.2378	7,999.51	62.7929	7,999.51	61.5322	7,999.51	65.8391	7,999.51	44.6667	7,999.51	59.8782
8,282.23	86.1264	8,282.23	87.6185	8,282.23	86.7293	8,282.23	86.7666	8,282.23	85.5162	8,282.23	85.4052	8,282.23	84.5658	8,282.23	82.7795	8,282.23	84.0792	8,282.23	82.7646	8,282.23	80.3056	8,282.23	81.011	8,282.23	82.7039	8,282.23	76.9417	8,282.23	73.4682	8,282.23	73.2387	8,282.23	74.266	8,282.23	69.8319	8,282.23	71.6322	8,282.23	63.1294	8,282.23	69.3545	8,282.23	64.7188	8,282.23	65.7964	8,282.23	55.6115	8,282.23	62.6846	8,282.23	46.6409	8,282.23	43.6109	8,282.23	63.1581	8,282.23	49.0093	8,282.23	61.0696	8,282.23	61.0271	8,282.23	61.3612	8,282.23	60.0152	8,282.23	60.0763	8,282.23	51.0342	8,282.23	60.4167
8,573.73	86.102	8,573.73	87.3613	8,573.73	86.9341	8,573.73	86.7458	8,573.73	86.3244	8,573.73	85.0476	8,573.73	84.9764	8,573.73	83.4886	8,573.73	84.9672	8,573.73	82.1022	8,573.73	83.3193	8,573.73	80.5465	8,573.73	78.5428	8,573.73	74.6361	8,573.73	77.9318	8,573.73	71.8772	8,573.73	71.1099	8,573.73	68.1924	8,573.73	70.2889	8,573.73	66.7039	8,573.73	66.3884	8,573.73	61.3466	8,573.73	63.7715	8,573.73	52.451	8,573.73	60.8882	8,573.73	52.0322	8,573.73	49.3915	8,573.73	62.663	8,573.73	53.7159	8,573.73	61.4106	8,573.73	61.772	8,573.73	64.317	8,573.73	61.9751	8,573.73	57.0227	8,573.73	58.0407	8,573.73	60.8642
8,876.95	86.7574	8,876.95	87.3396	8,876.95	86.7606	8,876.95	87.1987	8,876.95	86.9584	8,876.95	84.2594	8,876.95	85.5431	8,876.95	83.4605	8,876.95	83.8196	8,876.95	81.7883	8,876.95	83.8597	8,876.95	79.6557	8,876.95	78.5974	8,876.95	74.8419	8,876.95	76.1445	8,876.95	72.0818	8,876.95	68.7467	8,876.95	68.8234	8,876.95	64.7305	8,876.95	64.8156	8,876.95	59.0386	8,876.95	64.2052	8,876.95	61.2759	8,876.95	57.816	8,876.95	47.9363	8,876.95	45.4442	8,876.95	56.8724	8,876.95	62.1624	8,876.95	51.0488	8,876.95	62.2246	8,876.95	61.7523	8,876.95	66.7718	8,876.95	59.0208	8,876.95	62.0727	8,876.95	59.2117	8,876.95	58.1381
9,188.96	86.3613	9,188.96	87.6432	9,188.96	87.2473	9,188.96	86.8455	9,188.96	86.9207	9,188.96	84.5362	9,188.96	85.2678	9,188.96	83.0437	9,188.96	83.5047	9,188.96	81.437	9,188.96	83.2256	9,188.96	79.5547	9,188.96	79.1996	9,188.96	75.3903	9,188.96	74.5052	9,188.96	72.2848	9,188.96	67.0953	9,188.96	67.4079	9,188.96	65.3672	9,188.96	64.0209	9,188.96	63.7911	9,188.96	61.6645	9,188.96	58.6593	9,188.96	56.4	9,188.96	51.0804	9,188.96	52.4199	9,188.96	52.9524	9,188.96	60.9792	9,188.96	46.6547	9,188.96	61.7364	9,188.96	56.2666	9,188.96	59.9406	9,188.96	59.4661	9,188.96	62.3958	9,188.96	56.574	9,188.96	58.296
9,514.16	87.2907	9,514.16	87.4204	9,514.16	87.2472	9,514.16	86.5522	9,514.16	87.062	9,514.16	84.5992	9,514.16	85.6338	9,514.16	82.99	9,514.16	84.7149	9,514.16	80.446	9,514.16	80.6663	9,514.16	79.886	9,514.16	79.8674	9,514.16	75.6819	9,514.16	72.5646	9,514.16	71.5354	9,514.16	68.8837	9,514.16	69.0812	9,514.16	64.1848	9,514.16	65.069	9,514.16	58.8569	9,514.16	61.4916	9,514.16	59.2483	9,514.16	60.6328	9,514.16	57.5521	9,514.16	51.7783	9,514.16	47.7862	9,514.16	58.9067	9,514.16	49.6671	9,514.16	62.1094	9,514.16	50.7554	9,514.16	60.6196	9,514.16	55.6508	9,514.16	62.5289	9,514.16	51.6828	9,514.16	59.131
9,849.61	87.6795	9,849.61	87.4444	9,849.61	87.3137	9,849.61	86.6772	9,849.61	86.5945	9,849.61	84.6995	9,849.61	85.1213	9,849.61	82.4591	9,849.61	83.6859	9,849.61	80.4982	9,849.61	80.1435	9,849.61	79.6028	9,849.61	79.6035	9,849.61	74.9803	9,849.61	73.9648	9,849.61	70.2694	9,849.61	64.7901	9,849.61	66.8687	9,849.61	58.5483	9,849.61	61.8663	9,849.61	58.4267	9,849.61	62.1695	9,849.61	60.8148	9,849.61	49.1543	9,849.61	47.3718	9,849.61	51.1041	9,849.61	49.3689	9,849.61	54.5619	9,849.61	50.0245	9,849.61	58.6987	9,849.61	52.3265	9,849.61	58.2201	9,849.61	47.7284	9,849.61	59.1065	9,849.61	48.9047	9,849.61	57.7697
10,196.8	87.8383	10,196.8	87.5807	10,196.8	87.6688	10,196.8	87.058	10,196.8	86.2649	10,196.8	84.5876	10,196.8	83.8145	10,196.8	82.3194	10,196.8	81.8027	10,196.8	80.4218	10,196.8	80.6694	10,196.8	79.0945	10,196.8	78.8163	10,196.8	73.7431	10,196.8	74.5648	10,196.8	69.7035	10,196.8	63.601	10,196.8	65.7595	10,196.8	65.3392	10,196.8	59.9605	10,196.8	58.7742	10,196.8	60.3267	10,196.8	61.94	10,196.8	56.0343	10,196.8	49.856	10,196.8	50.7605	10,196.8	49.8987	10,196.8	58.663	10,196.8	48.4291	10,196.8	58.7028	10,196.8	55.2055	10,196.8	58.241	10,196.8	51.0752	10,196.8	58.4784	10,196.8	51.661	10,196.8	56.4025
10,555.7	88.0031	10,555.7	87.3964	10,555.7	87.7463	10,555.7	87.2635	10,555.7	86.6345	10,555.7	84.3976	10,555.7	85.0965	10,555.7	82.4361	10,555.7	82.667	10,555.7	80.3255	10,555.7	81.5438	10,555.7	78.1506	10,555.7	77.0539	10,555.7	71.9918	10,555.7	74.0942	10,555.7	67.6037	10,555.7	61.5853	10,555.7	63.8859	10,555.7	55.7225	10,555.7	61.6805	10,555.7	57.3816	10,555.7	52.0768	10,555.7	63.574	10,555.7	56.4816	10,555.7	58.0379	10,555.7	47.9081	10,555.7	47.5289	10,555.7	56.5957	10,555.7	50.1264	10,555.7	58.8515	10,555.7	50.2289	10,555.7	58.426	10,555.7	52.2556	10,555.7	56.7454	10,555.7	53.1198	10,555.7	58.361
10,927.7	88.2127	10,927.7	87.5189	10,927.7	87.7244	10,927.7	87.5452	10,927.7	86.3478	10,927.7	84.2254	10,927.7	85.0078	10,927.7	82.8863	10,927.7	83.2313	10,927.7	79.712	10,927.7	80.2788	10,927.7	77.3241	10,927.7	77.8522	10,927.7	71.1391	10,927.7	72.8596	10,927.7	67.5095	10,927.7	62.7621	10,927.7	64.9833	10,927.7	62.2273	10,927.7	60.0561	10,927.7	57.421	10,927.7	58.9562	10,927.7	64.0766	10,927.7	53.8883	10,927.7	54.9302	10,927.7	53.3591	10,927.7	55.788	10,927.7	55.2388	10,927.7	47.7896	10,927.7	59.8261	10,927.7	49.8916	10,927.7	55.5484	10,927.7	51.1281	10,927.7	52.3736	10,927.7	51.82	10,927.7	56.8054
11,313	88.3535	11,313	87.6689	11,313	87.6293	11,313	87.4858	11,313	86.3075	11,313	84.4909	11,313	85.2174	11,313	82.7409	11,313	82.4441	11,313	79.1134	11,313	79.5268	11,313	76.356	11,313	77.7769	11,313	71.1319	11,313	71.1764	11,313	67.6405	11,313	65.7657	11,313	63.9416	11,313	61.1391	11,313	58.8005	11,313	56.9821	11,313	60.799	11,313	63.8032	11,313	55.3858	11,313	58.5521	11,313	53.8361	11,313	54.7232	11,313	54.7934	11,313	52.3523	11,313	60.1163	11,313	45.6804	11,313	57.0468	11,313	48.7786	11,313	54.4004	11,313	52.239	11,313	56.6726
11,712.9	88.1483	11,712.9	87.9256	11,712.9	87.599	11,712.9	87.4587	11,712.9	85.8431	11,712.9	84.5969	11,712.9	84.6299	11,712.9	82.2894	11,712.9	80.8933	11,712.9	78.1551	11,712.9	79.1214	11,712.9	75.9734	11,712.9	77.7295	11,712.9	70.6375	11,712.9	68.6811	11,712.9	66.9516	11,712.9	61.3113	11,712.9	63.8452	11,712.9	55.6577	11,712.9	57.8155	11,712.9	58.8907	11,712.9	51.2799	11,712.9	62.9581	11,712.9	50.4786	11,712.9	58.0703	11,712.9	53.5631	11,712.9	49.9856	11,712.9	54.8	11,712.9	52.2779	11,712.9	60.1253	11,712.9	45.1987	11,712.9	55.2802	11,712.9	51.6401	11,712.9	53.7345	11,712.9	46.4333	11,712.9	56.2355
12,126	88.1741	12,126	87.9688	12,126	87.4006	12,126	87.3172	12,126	85.7621	12,126	84.353	12,126	84.4015	12,126	81.4594	12,126	81.8593	12,126	77.227	12,126	78.0657	12,126	75.8577	12,126	73.5392	12,126	70.5829	12,126	70.054	12,126	66.074	12,126	58.2982	12,126	63.6848	12,126	59.3231	12,126	57.3473	12,126	56.9063	12,126	58.3397	12,126	64.1644	12,126	53.2667	12,126	58.3341	12,126	48.508	12,126	50.331	12,126	53.0059	12,126	53.9756	12,126	59.3551	12,126	51.0921	12,126	54.0039	12,126	50.8865	12,126	50.8746	12,126	45.3227	12,126	54.5819
12,553.7	88.0937	12,553.7	87.8905	12,553.7	87.2048	12,553.7	87.0197	12,553.7	85.8964	12,553.7	83.3953	12,553.7	84.1944	12,553.7	80.3009	12,553.7	81.2291	12,553.7	76.6252	12,553.7	77.4679	12,553.7	75.5775	12,553.7	72.8866	12,553.7	70.6923	12,553.7	63.1953	12,553.7	66.5659	12,553.7	57.3826	12,553.7	63.7365	12,553.7	58.8494	12,553.7	55.8221	12,553.7	54.1046	12,553.7	60.34	12,553.7	63.2908	12,553.7	49.5387	12,553.7	57.6013	12,553.7	51.4798	12,553.7	50.5704	12,553.7	53.7013	12,553.7	52.8017	12,553.7	58.8166	12,553.7	53.1312	12,553.7	51.5139	12,553.7	50.3064	12,553.7	51.6653	12,553.7	40.1641	12,553.7	54.2218
12,996.1	88.0783	12,996.1	87.5216	12,996.1	87.2739	12,996.1	86.1825	12,996.1	85.9109	12,996.1	82.5037	12,996.1	83.8855	12,996.1	79.3627	12,996.1	80.3319	12,996.1	75.8249	12,996.1	74.2828	12,996.1	75.0766	12,996.1	69.2929	12,996.1	70.0337	12,996.1	61.3795	12,996.1	66.1646	12,996.1	52.5515	12,996.1	62.6606	12,996.1	52.2802	12,996.1	53.4095	12,996.1	55.3547	12,996.1	55.4912	12,996.1	62.8369	12,996.1	52.448	12,996.1	56.6921	12,996.1	51.7405	12,996.1	47.7483	12,996.1	53.4226	12,996.1	52.9442	12,996.1	58.1978	12,996.1	49.8295	12,996.1	49.2423	12,996.1	50.6367	12,996.1	53.7195	12,996.1	47.0852	12,996.1	51.3768
13,454.6	87.6491	13,454.6	87.0186	13,454.6	86.9938	13,454.6	85.291	13,454.6	85.5404	13,454.6	81.4047	13,454.6	83.4085	13,454.6	78.6977	13,454.6	77.2845	13,454.6	74.8153	13,454.6	67.1786	13,454.6	74.0471	13,454.6	62.9687	13,454.6	69.4273	13,454.6	65.5023	13,454.6	65.9055	13,454.6	57.1054	13,454.6	62.0105	13,454.6	51.0356	13,454.6	52.6266	13,454.6	54.6742	13,454.6	53.3544	13,454.6	64.8602	13,454.6	48.8518	13,454.6	53.0705	13,454.6	48.9299	13,454.6	42.7689	13,454.6	52.0877	13,454.6	53.9723	13,454.6	56.9564	13,454.6	45.1966	13,454.6	50.9988	13,454.6	42.9026	13,454.6	53.8403	13,454.6	48.4678	13,454.6	50.3218
13,929.2	87.2971	13,929.2	86.7378	13,929.2	86.6961	13,929.2	85.1398	13,929.2	85.0804	13,929.2	80.4801	13,929.2	82.7406	13,929.2	78.1379	13,929.2	76.0557	13,929.2	74.1489	13,929.2	72.7167	13,929.2	73.1473	13,929.2	63.3119	13,929.2	69.0969	13,929.2	69.2412	13,929.2	65.414	13,929.2	63.1539	13,929.2	60.9221	13,929.2	56.3989	13,929.2	52.8713	13,929.2	55.3905	13,929.2	52.5927	13,929.2	65.8738	13,929.2	42.3148	13,929.2	53.6189	13,929.2	51.0688	13,929.2	42.9781	13,929.2	49.577	13,929.2	50.4912	13,929.2	56.0908	13,929.2	36.7274	13,929.2	53.3421	13,929.2	40.1924	13,929.2	51.2919	13,929.2	45.5411	13,929.2	46.3747
14,419.9	87.1117	14,419.9	86.4902	14,419.9	86.6019	14,419.9	84.9883	14,419.9	84.9219	14,419.9	79.5046	14,419.9	82.1393	14,419.9	77.3834	14,419.9	75.0966	14,419.9	73.658	14,419.9	72.749	14,419.9	73.1484	14,419.9	69.9314	14,419.9	68.1379	14,419.9	66.8944	14,419.9	63.8602	14,419.9	67.4824	14,419.9	60.3645	14,419.9	57.4755	14,419.9	51.9164	14,419.9	52.4656	14,419.9	47.1406	14,419.9	66.8555	14,419.9	39.0379	14,419.9	56.7178	14,419.9	49.4791	14,419.9	45.7129	14,419.9	46.8729	14,419.9	44.6266	14,419.9	53.4161	14,419.9	37.7306	14,419.9	51.2483	14,419.9	43.5842	14,419.9	49.7345	14,419.9	49.381	14,419.9	44.7431
14,928.2	86.7326	14,928.2	86.2088	14,928.2	86.594	14,928.2	84.435	14,928.2	84.9255	14,928.2	78.8594	14,928.2	81.8844	14,928.2	76.2509	14,928.2	76.9646	14,928.2	73.4285	14,928.2	71.973	14,928.2	73.2433	14,928.2	71.1629	14,928.2	67.6088	14,928.2	71.4297	14,928.2	63.2114	14,928.2	62.4217	14,928.2	60.3051	14,928.2	57.0131	14,928.2	53.1174	14,928.2	60.0832	14,928.2	44.3107	14,928.2	67.895	14,928.2	41.4059	14,928.2	57.2705	14,928.2	49.1796	14,928.2	44.5208	14,928.2	43.7311	14,928.2	39.2559	14,928.2	52.4204	14,928.2	40.7281	14,928.2	50.47	14,928.2	40.4487	14,928.2	50.9792	14,928.2	50.0986	14,928.2	42.7025
15,455.6	86.5061	15,455.6	86.1188	15,455.6	86.7164	15,455.6	83.9467	15,455.6	84.8001	15,455.6	78.6023	15,455.6	81.2417	15,455.6	75.8007	15,455.6	75.0279	15,455.6	72.9113	15,455.6	71.1414	15,455.6	72.3776	15,455.6	71.5606	15,455.6	67.4551	15,455.6	68.5886	15,455.6	62.6963	15,455.6	66.4769	15,455.6	59.466	15,455.6	54.2359	15,455.6	49.9491	15,455.6	58.7293	15,455.6	36.4444	15,455.6	68.8299	15,455.6	45.369	15,455.6	58.8381	15,455.6	49.2665	15,455.6	34.4146	15,455.6	41.2645	15,455.6	48.346	15,455.6	52.9747	15,455.6	45.8877	15,455.6	47.7632	15,455.6	45.8365	15,455.6	52.8026	15,455.6	47.1764	15,455.6	42.9908
16,000.5	86.3384	16,000.5	85.9325	16,000.5	86.4525	16,000.5	83.4185	16,000.5	84.2977	16,000.5	78.2574	16,000.5	80.1777	16,000.5	75.6968	16,000.5	74.2494	16,000.5	72.0954	16,000.5	69.4547	16,000.5	71.9238	16,000.5	72.1414	16,000.5	66.4744	16,000.5	69.1937	16,000.5	61.4832	16,000.5	65.9754	16,000.5	58.0029	16,000.5	55.8247	16,000.5	47.9543	16,000.5	58.7793	16,000.5	36.8484	16,000.5	68.3452	16,000.5	41.4573	16,000.5	57.5048	16,000.5	44.5831	16,000.5	42.8861	16,000.5	39.7598	16,000.5	47.6567	16,000.5	51.8529	16,000.5	48.9652	16,000.5	45.647	16,000.5	48.314	16,000.5	52.2991	16,000.5	48.2803	16,000.5	40.8675
16,564.5	86.1463	16,564.5	85.6623	16,564.5	86.1531	16,564.5	83.1246	16,564.5	83.6716	16,564.5	77.8947	16,564.5	79.2765	16,564.5	76.0256	16,564.5	73.2514	16,564.5	72.4552	16,564.5	71.2198	16,564.5	71.7718	16,564.5	72.2079	16,564.5	65.4256	16,564.5	69.3221	16,564.5	60.6013	16,564.5	66.2076	16,564.5	57.8975	16,564.5	45.6737	16,564.5	47.7138	16,564.5	58.4778	16,564.5	43.9741	16,564.5	68.4355	16,564.5	42.8755	16,564.5	57.3264	16,564.5	44.9146	16,564.5	25.8714	16,564.5	39.3349	16,564.5	44.789	16,564.5	50.2401	16,564.5	44.3983	16,564.5	51.2675	16,564.5	43.5878	16,564.5	53.4731	16,564.5	48.1249	16,564.5	40.3686
17,148.9	86.1907	17,148.9	85.3183	17,148.9	85.8387	17,148.9	82.9379	17,148.9	82.9733	17,148.9	77.6946	17,148.9	78.4165	17,148.9	75.5367	17,148.9	73.941	17,148.9	72.4949	17,148.9	71.1764	17,148.9	70.3471	17,148.9	67.48	17,148.9	65.4592	17,148.9	67.9401	17,148.9	59.9316	17,148.9	64.5781	17,148.9	57.1831	17,148.9	53.4158	17,148.9	44.5507	17,148.9	58.269	17,148.9	46.037	17,148.9	67.9783	17,148.9	44.9352	17,148.9	58.0818	17,148.9	45.9956	17,148.9	36.1609	17,148.9	37.252	17,148.9	33.5223	17,148.9	49.94	17,148.9	36.2216	17,148.9	51.8243	17,148.9	47.1912	17,148.9	53.3186	17,148.9	49.1224	17,148.9	44.159
17,752.4	86.1599	17,752.4	84.9286	17,752.4	85.526	17,752.4	82.5074	17,752.4	82.3248	17,752.4	77.2462	17,752.4	77.7169	17,752.4	75.4202	17,752.4	72.9215	17,752.4	71.0337	17,752.4	72.0387	17,752.4	69.2822	17,752.4	66.282	17,752.4	63.8311	17,752.4	65.7978	17,752.4	56.9507	17,752.4	63.8609	17,752.4	55.2081	17,752.4	50.8612	17,752.4	30.1448	17,752.4	55.1189	17,752.4	47.7552	17,752.4	67.1465	17,752.4	43.7057	17,752.4	57.3947	17,752.4	45.4793	17,752.4	17.3516	17,752.4	32.3238	17,752.4	43.4932	17,752.4	47.4199	17,752.4	30.0839	17,752.4	51.0672	17,752.4	41.9815	17,752.4	51.5134	17,752.4	48.6155	17,752.4	43.2473
18,379.4	86.0009	18,379.4	84.5132	18,379.4	84.9526	18,379.4	82.0527	18,379.4	81.4608	18,379.4	76.3023	18,379.4	76.8975	18,379.4	75.0096	18,379.4	70.654	18,379.4	70.2446	18,379.4	70.8625	18,379.4	68.2862	18,379.4	64.6737	18,379.4	61.0619	18,379.4	63.7269	18,379.4	55.8252	18,379.4	57.0479	18,379.4	54.1047	18,379.4	52.972	18,379.4	41.3041	18,379.4	53.1693	18,379.4	47.5483	18,379.4	66.3253	18,379.4	42.6401	18,379.4	55.7385	18,379.4	39.6595	18,379.4	42.8173	18,379.4	23.6601	18,379.4	30.867	18,379.4	44.6356	18,379.4	40.9405	18,379.4	48.3726	18,379.4	45.3928	18,379.4	48.6783	18,379.4	45.0472	18,379.4	38.3085
19,026.9	85.6831	19,026.9	83.9433	19,026.9	84.399	19,026.9	81.4275	19,026.9	80.3849	19,026.9	75.659	19,026.9	75.6716	19,026.9	74.1117	19,026.9	70.6338	19,026.9	70.0272	19,026.9	68.1677	19,026.9	66.5103	19,026.9	65.6238	19,026.9	62.627	19,026.9	60.9809	19,026.9	56.0057	19,026.9	56.6444	19,026.9	54.4265	19,026.9	55.3438	19,026.9	42.8601	19,026.9	54.3704	19,026.9	48.0241	19,026.9	66.1536	19,026.9	43.4686	19,026.9	56.5847	19,026.9	40.9874	19,026.9	38.0719	19,026.9	29.2755	19,026.9	36.2016	19,026.9	45.7873	19,026.9	30.4146	19,026.9	47.4767	19,026.9	42.2448	19,026.9	49.411	19,026.9	44.5062	19,026.9	32.4908
19,697.8	85.1975	19,697.8	83.3743	19,697.8	83.5955	19,697.8	80.6482	19,697.8	79.3239	19,697.8	75.1815	19,697.8	74.0798	19,697.8	73.2062	19,697.8	69.3732	19,697.8	68.2705	19,697.8	66.776	19,697.8	66.7044	19,697.8	63.6132	19,697.8	61.3168	19,697.8	61.6394	19,697.8	53.9158	19,697.8	57.0103	19,697.8	51.8477	19,697.8	54.5346	19,697.8	45.6259	19,697.8	51.203	19,697.8	46.0724	19,697.8	65.1866	19,697.8	40.6261	19,697.8	55.7326	19,697.8	33.3966	19,697.8	40.0406	19,697.8	37.9949	19,697.8	24.6399	19,697.8	41.9702	19,697.8	35.6699	19,697.8	44.7169	19,697.8	33.7104	19,697.8	43.7788	19,697.8	39.9854	19,697.8	35.5274
19,999.5	85.0083	19,999.5	83.3109	19,999.5	83.1862	19,999.5	80.352	19,999.5	78.8477	19,999.5	74.9997	19,999.5	72.5099	19,999.5	72.6647	19,999.5	69.0318	19,999.5	67.7359	19,999.5	66.6051	19,999.5	66.9935	19,999.5	66.4688	19,999.5	61.1922	19,999.5	65.4943	19,999.5	53.8609	19,999.5	57.8192	19,999.5	52.6742	19,999.5	51.378	19,999.5	46.2547	19,999.5	52.0291	19,999.5	47.4777	19,999.5	65.675	19,999.5	40.7742	19,999.5	54.3468	19,999.5	46.0699	19,999.5	45.9647	19,999.5	28.6856	19,999.5	44.5494	19,999.5	38.0993	19,999.5	44.9151	19,999.5	44.7974	19,999.5	37.8282	19,999.5	49.7405	19,999.5	38.5984	19,999.5	43.7839
