"SPL Horizontal"
"On-Axis"		"10°"		"-10°"		"20°"		"-20°"		"30°"		"-30°"		"40°"		"-40°"		"50°"		"-50°"		"60°"		"-60°"		"70°"		"-70°"		"80°"		"-80°"		"90°"		"-90°"		"100°"		"-100°"		"110°"		"-110°"		"120°"		"-120°"		"130°"		"-130°"		"140°"		"-140°"		"150°"		"-150°"		"160°"		"-160°"		"170°"		"-170°"		"180°"
"Frequency [Hz]"	"Sound Pessure Level [dB]  / [2.83V 1m] "	"Frequency [Hz]"	"Sound Pessure Level [dB]  / [2.83V 1m] "	"Frequency [Hz]"	"Sound Pessure Level [dB]  / [2.83V 1m] "	"Frequency [Hz]"	"Sound Pessure Level [dB]  / [2.83V 1m] "	"Frequency [Hz]"	"Sound Pessure Level [dB]  / [2.83V 1m] "	"Frequency [Hz]"	"Sound Pessure Level [dB]  / [2.83V 1m] "	"Frequency [Hz]"	"Sound Pessure Level [dB]  / [2.83V 1m] "	"Frequency [Hz]"	"Sound Pessure Level [dB]  / [2.83V 1m] "	"Frequency [Hz]"	"Sound Pessure Level [dB]  / [2.83V 1m] "	"Frequency [Hz]"	"Sound Pessure Level [dB]  / [2.83V 1m] "	"Frequency [Hz]"	"Sound Pessure Level [dB]  / [2.83V 1m] "	"Frequency [Hz]"	"Sound Pessure Level [dB]  / [2.83V 1m] "	"Frequency [Hz]"	"Sound Pessure Level [dB]  / [2.83V 1m] "	"Frequency [Hz]"	"Sound Pessure Level [dB]  / [2.83V 1m] "	"Frequency [Hz]"	"Sound Pessure Level [dB]  / [2.83V 1m] "	"Frequency [Hz]"	"Sound Pessure Level [dB]  / [2.83V 1m] "	"Frequency [Hz]"	"Sound Pessure Level [dB]  / [2.83V 1m] "	"Frequency [Hz]"	"Sound Pessure Level [dB]  / [2.83V 1m] "	"Frequency [Hz]"	"Sound Pessure Level [dB]  / [2.83V 1m] "	"Frequency [Hz]"	"Sound Pessure Level [dB]  / [2.83V 1m] "	"Frequency [Hz]"	"Sound Pessure Level [dB]  / [2.83V 1m] "	"Frequency [Hz]"	"Sound Pessure Level [dB]  / [2.83V 1m] "	"Frequency [Hz]"	"Sound Pessure Level [dB]  / [2.83V 1m] "	"Frequency [Hz]"	"Sound Pessure Level [dB]  / [2.83V 1m] "	"Frequency [Hz]"	"Sound Pessure Level [dB]  / [2.83V 1m] "	"Frequency [Hz]"	"Sound Pessure Level [dB]  / [2.83V 1m] "	"Frequency [Hz]"	"Sound Pessure Level [dB]  / [2.83V 1m] "	"Frequency [Hz]"	"Sound Pessure Level [dB]  / [2.83V 1m] "	"Frequency [Hz]"	"Sound Pessure Level [dB]  / [2.83V 1m] "	"Frequency [Hz]"	"Sound Pessure Level [dB]  / [2.83V 1m] "	"Frequency [Hz]"	"Sound Pessure Level [dB]  / [2.83V 1m] "	"Frequency [Hz]"	"Sound Pessure Level [dB]  / [2.83V 1m] "	"Frequency [Hz]"	"Sound Pessure Level [dB]  / [2.83V 1m] "	"Frequency [Hz]"	"Sound Pessure Level [dB]  / [2.83V 1m] "	"Frequency [Hz]"	"Sound Pessure Level [dB]  / [2.83V 1m] "	"Frequency [Hz]"	"Sound Pessure Level [dB]  / [2.83V 1m] "
20.5078	45.6157	20.5078	45.3486	20.5078	45.8972	20.5078	45.2452	20.5078	46.1345	20.5078	45.5175	20.5078	46.3475	20.5078	46.313	20.5078	46.6227	20.5078	47.5817	20.5078	47.0905	20.5078	49.1247	20.5078	47.8668	20.5078	50.7455	20.5078	48.9739	20.5078	52.3194	20.5078	50.3233	20.5078	53.7842	20.5078	51.78	20.5078	55.1123	20.5078	53.2287	20.5078	56.2925	20.5078	54.5945	20.5078	57.3187	20.5078	55.8352	20.5078	58.1849	20.5078	56.9283	20.5078	58.8839	20.5078	57.8616	20.5078	59.4074	20.5078	58.6274	20.5078	59.7476	20.5078	59.2195	20.5078	59.8991	20.5078	59.6323	20.5078	59.8602
21.9727	53.3534	21.9727	53.3205	21.9727	53.258	21.9727	53.179	21.9727	53.0278	21.9727	52.9659	21.9727	52.6721	21.9727	52.7444	21.9727	52.2279	21.9727	52.6112	21.9727	51.7806	21.9727	52.6856	21.9727	51.4856	21.9727	53.065	21.9727	51.5451	21.9727	53.7666	21.9727	52.0949	21.9727	54.7139	21.9727	53.086	21.9727	55.7862	21.9727	54.3289	21.9727	56.8727	21.9727	55.6319	21.9727	57.8947	21.9727	56.869	21.9727	58.8015	21.9727	57.9732	21.9727	59.5611	21.9727	58.9123	21.9727	60.1522	21.9727	59.671	21.9727	60.5606	21.9727	60.241	21.9727	60.777	21.9727	60.6172	21.9727	60.7963
23.4375	52.1284	23.4375	51.8811	23.4375	52.1909	23.4375	51.4561	23.4375	52.0771	23.4375	50.8899	23.4375	51.8136	23.4375	50.2853	23.4375	51.462	23.4375	49.8649	23.4375	51.1486	23.4375	49.9564	23.4375	51.0803	23.4375	50.765	23.4375	51.4745	23.4375	52.1454	23.4375	52.392	23.4375	53.7681	23.4375	53.677	23.4375	55.382	23.4375	55.1006	23.4375	56.8631	23.4375	56.4937	23.4375	58.162	23.4375	57.7658	23.4375	59.2613	23.4375	58.8765	23.4375	60.1547	23.4375	59.8089	23.4375	60.839	23.4375	60.5552	23.4375	61.3122	23.4375	61.1102	23.4375	61.5736	23.4375	61.4685	23.4375	61.6246
24.9023	53.5578	24.9023	53.3819	24.9023	53.6024	24.9023	53.1008	24.9023	53.5207	24.9023	52.7848	24.9023	53.3476	24.9023	52.5663	24.9023	53.1581	24.9023	52.6322	24.9023	53.0767	24.9023	53.1411	24.9023	53.2602	24.9023	54.1016	24.9023	53.8258	24.9023	55.366	24.9023	54.767	24.9023	56.7469	24.9023	55.9598	24.9023	58.1059	24.9023	57.2501	24.9023	59.3631	24.9023	58.5189	24.9023	60.4776	24.9023	59.6934	24.9023	61.4283	24.9023	60.734	24.9023	62.2029	24.9023	61.6195	24.9023	62.7935	24.9023	62.338	24.9023	63.1945	24.9023	62.8814	24.9023	63.403	24.9023	63.2434	24.9023	63.4186
26.3672	57.3294	26.3672	57.2274	26.3672	57.3691	26.3672	57.0845	26.3672	57.3412	26.3672	56.9404	26.3672	57.2557	26.3672	56.8549	26.3672	57.1408	26.3672	56.9024	26.3672	57.0461	26.3672	57.1522	26.3672	57.0421	26.3672	57.6391	26.3672	57.2073	26.3672	58.3442	26.3672	57.5995	26.3672	59.2033	26.3672	58.225	26.3672	60.1354	26.3672	59.0337	26.3672	61.0662	26.3672	59.9445	26.3672	61.9383	26.3672	60.8757	26.3672	62.7107	26.3672	61.7618	26.3672	63.354	26.3672	62.5563	26.3672	63.8478	26.3672	63.2275	26.3672	64.1777	26.3672	63.7535	26.3672	64.3346	26.3672	64.1193	26.3672	64.3149
27.832	59.0181	27.832	58.9769	27.832	58.9322	27.832	58.8185	27.832	58.7213	27.832	58.5678	27.832	58.4016	27.832	58.274	27.832	58.0126	27.832	58.021	27.832	57.6326	27.832	57.929	27.832	57.3899	27.832	58.1234	27.832	57.4431	27.832	58.668	27.832	57.9009	27.832	59.5183	27.832	58.7393	27.832	60.5519	27.832	59.8194	27.832	61.6378	27.832	60.9818	27.832	62.6769	27.832	62.1079	27.832	63.6063	27.832	63.1267	27.832	64.3884	27.832	63.9994	27.832	65.001	27.832	64.7048	27.832	65.4311	27.832	65.2309	27.832	65.6711	27.832	65.57	27.832	65.7175
29.2969	59.4777	29.2969	59.3957	29.2969	59.4634	29.2969	59.2282	29.2969	59.3604	29.2969	59.0085	29.2969	59.1964	29.2969	58.8	29.2969	59.0238	29.2969	58.6994	29.2969	58.9244	29.2969	58.8214	29.2969	58.9997	29.2969	59.2513	29.2969	59.338	29.2969	59.9912	29.2969	59.9667	29.2969	60.9578	29.2969	60.8337	29.2969	62.032	29.2969	61.8387	29.2969	63.1089	29.2969	62.8797	29.2969	64.1146	29.2969	63.8778	29.2969	65.0032	29.2969	64.7802	29.2969	65.7474	29.2969	65.5536	29.2969	66.3312	29.2969	66.1773	29.2969	66.745	29.2969	66.6384	29.2969	66.9837	29.2969	66.9292	29.2969	67.0451
30.7617	61.0639	30.7617	60.9846	30.7617	61.0766	30.7617	60.8523	30.7617	61.0257	30.7617	60.6992	30.7617	60.9308	30.7617	60.5793	30.7617	60.8297	30.7617	60.5666	30.7617	60.7797	30.7617	60.7401	30.7617	60.8512	30.7617	61.1535	30.7617	61.1093	30.7617	61.8051	30.7617	61.5869	30.7617	62.6368	30.7617	62.2666	30.7617	63.5626	30.7617	63.0887	30.7617	64.4999	30.7617	63.9761	30.7617	65.3848	30.7617	64.8582	30.7617	66.1728	30.7617	65.6804	30.7617	66.8342	30.7617	66.4045	30.7617	67.3494	30.7617	67.0051	30.7617	67.7055	30.7617	67.4649	30.7617	67.8955	30.7617	67.7717	30.7617	67.917
32.2266	62.2066	32.2266	62.1495	32.2266	62.2109	32.2266	62.0516	32.2266	62.1662	32.2266	61.9434	32.2266	62.0921	32.2266	61.8748	32.2266	62.0242	32.2266	61.9124	32.2266	62.0146	32.2266	62.1243	32.2266	62.1246	32.2266	62.5535	32.2266	62.4092	32.2266	63.1944	32.2266	62.8938	32.2266	63.9943	32.2266	63.5603	32.2266	64.8769	32.2266	64.354	32.2266	65.768	32.2266	65.2049	32.2266	66.6089	32.2266	66.0483	32.2266	67.3577	32.2266	66.8341	32.2266	67.9855	32.2266	67.5273	32.2266	68.4728	32.2266	68.104	32.2266	68.807	32.2266	68.548	32.2266	68.9814	32.2266	68.8477	32.2266	68.9941
33.6914	64.3908	33.6914	64.3779	33.6914	64.3703	33.6914	64.3405	33.6914	64.3188	33.6914	64.2993	33.6914	64.2499	33.6914	64.2873	33.6914	64.1893	33.6914	64.3472	33.6914	64.1749	33.6914	64.5241	33.6914	64.2527	33.6914	64.8517	33.6914	64.4665	33.6914	65.3381	33.6914	64.8423	33.6914	65.9605	33.6914	65.376	33.6914	66.6723	33.6914	66.0331	33.6914	67.4177	33.6914	66.7611	33.6914	68.1434	33.6914	67.5049	33.6914	68.805	33.6914	68.2167	33.6914	69.3686	33.6914	68.8589	33.6914	69.8098	33.6914	69.4034	33.6914	70.1123	33.6914	69.8293	33.6914	70.2666	33.6914	70.1214	33.6914	70.2691
35.1562	65.4589	35.1562	65.4438	35.1562	65.4485	35.1562	65.4106	35.1562	65.4168	35.1562	65.3795	35.1562	65.3803	35.1562	65.3822	35.1562	65.3666	35.1562	65.4599	35.1562	65.4132	35.1562	65.6546	35.1562	65.5607	35.1562	65.9963	35.1562	65.8425	35.1562	66.4905	35.1562	66.2718	35.1562	67.1139	35.1562	66.8353	35.1562	67.8216	35.1562	67.4972	35.1562	68.5602	35.1562	68.21	35.1562	69.2792	35.1562	68.9258	35.1562	69.9369	35.1562	69.6031	35.1562	70.5015	35.1562	70.2079	35.1562	70.9503	35.1562	70.7142	35.1562	71.2676	35.1562	71.1026	35.1562	71.4437	35.1562	71.3589	35.1562	71.4742
36.6211	67.3389	36.6211	67.3173	36.6211	67.345	36.6211	67.2875	36.6211	67.3382	36.6211	67.2663	36.6211	67.33	36.6211	67.2802	36.6211	67.3409	36.6211	67.3619	36.6211	67.398	36.6211	67.5441	36.6211	67.5315	36.6211	67.85	36.6211	67.7675	36.6211	68.2842	36.6211	68.12	36.6211	68.8287	36.6211	68.5853	36.6211	69.4485	36.6211	69.1414	36.6211	70.0998	36.6211	69.7538	36.6211	70.7394	36.6211	70.3826	36.6211	71.33	36.6211	70.9892	36.6211	71.8412	36.6211	71.5398	36.6211	72.2499	36.6211	72.0071	36.6211	72.5396	36.6211	72.3695	36.6211	72.6992	36.6211	72.6117	36.6211	72.7232
38.0859	68.8704	38.0859	68.8662	38.0859	68.8677	38.0859	68.8609	38.0859	68.8602	38.0859	68.8679	38.0859	68.8578	38.0859	68.9078	38.0859	68.8768	38.0859	69.0058	38.0859	68.939	38.0859	69.1867	38.0859	69.0682	38.0859	69.4687	38.0859	69.2854	38.0859	69.8563	38.0859	69.6028	38.0859	70.3376	38.0859	70.0192	38.0859	70.8864	38.0859	70.5186	38.0859	71.4675	38.0859	71.0732	38.0859	72.0439	38.0859	71.6486	38.0859	72.5809	38.0859	72.2098	38.0859	73.0492	38.0859	72.7243	38.0859	73.4253	38.0859	73.1648	38.0859	73.6915	38.0859	73.5097	38.0859	73.8361	38.0859	73.7427	38.0859	73.8533
39.5508	70.4177	39.5508	70.421	39.5508	70.4051	39.5508	70.4203	39.5508	70.3845	39.5508	70.4273	39.5508	70.3641	39.5508	70.4595	39.5508	70.3577	39.5508	70.5387	39.5508	70.385	39.5508	70.6869	39.5508	70.4688	39.5508	70.9214	39.5508	70.6314	39.5508	71.2492	39.5508	70.8885	39.5508	71.6638	39.5508	71.244	39.5508	72.1453	39.5508	71.687	39.5508	72.6641	39.5508	72.1928	39.5508	73.1866	39.5508	72.7287	39.5508	73.6793	39.5508	73.2591	39.5508	74.1128	39.5508	73.751	39.5508	74.4625	39.5508	74.1759	39.5508	74.7098	39.5508	74.5114	39.5508	74.842	39.5508	74.7405	39.5508	74.8525
41.0156	71.9445	41.0156	71.9576	41.0156	71.9302	41.0156	71.9731	41.0156	71.9167	41.0156	72.0006	41.0156	71.9118	41.0156	72.0547	41.0156	71.9285	41.0156	72.154	41.0156	71.9844	41.0156	72.3178	41.0156	72.0988	41.0156	72.5615	41.0156	72.2891	41.0156	72.8918	41.0156	72.5661	41.0156	73.3029	41.0156	72.929	41.0156	73.7763	41.0156	73.3652	41.0156	74.284	41.0156	73.8513	41.0156	74.7935	41.0156	74.3587	41.0156	75.2722	41.0156	74.8575	41.0156	75.6908	41.0156	75.3196	41.0156	76.0251	41.0156	75.7208	41.0156	76.2574	41.0156	76.0409	41.0156	76.3765	41.0156	76.264	41.0156	76.3782
42.4805	73.2001	42.4805	73.2134	42.4805	73.1877	42.4805	73.2307	42.4805	73.1781	42.4805	73.2602	42.4805	73.1779	42.4805	73.3146	42.4805	73.1984	42.4805	73.4094	42.4805	73.2541	42.4805	73.5606	42.4805	73.3614	42.4805	73.7808	42.4805	73.5352	42.4805	74.0756	42.4805	73.7849	42.4805	74.4404	42.4805	74.1114	42.4805	74.8609	42.4805	74.505	42.4805	75.3143	42.4805	74.9464	42.4805	75.7732	42.4805	75.4104	42.4805	76.2088	42.4805	75.8691	42.4805	76.5943	42.4805	76.2955	42.4805	76.9066	42.4805	76.6653	42.4805	77.1281	42.4805	76.9585	42.4805	77.247	42.4805	77.1594	42.4805	77.2574
43.9453	74.6032	43.9453	74.6197	43.9453	74.5913	43.9453	74.6436	43.9453	74.5858	43.9453	74.6816	43.9453	74.5923	43.9453	74.7438	43.9453	74.6203	43.9453	74.8427	43.9453	74.6821	43.9453	74.9907	43.9453	74.791	43.9453	75.1979	43.9453	74.9587	43.9453	75.4687	43.9453	75.1925	43.9453	75.7999	43.9453	75.4923	43.9453	76.1798	43.9453	75.8499	43.9453	76.5894	43.9453	76.2494	43.9453	77.0048	43.9453	76.6694	43.9453	77.4005	43.9453	77.0858	43.9453	77.7518	43.9453	77.4745	43.9453	78.0373	43.9453	77.8132	43.9453	78.2402	43.9453	78.0826	43.9453	78.3492	43.9453	78.2679	43.9453	78.3585
45.4102	75.8161	45.4102	75.8394	45.4102	75.7993	45.4102	75.8709	45.4102	75.7904	45.4102	75.916	45.4102	75.7947	45.4102	75.9826	45.4102	75.8202	45.4102	76.0808	45.4102	75.8775	45.4102	76.2207	45.4102	75.9779	45.4102	76.4109	45.4102	76.1312	45.4102	76.656	45.4102	76.3439	45.4102	76.9539	45.4102	76.6163	45.4102	77.2959	45.4102	76.9419	45.4102	77.6661	45.4102	77.3074	45.4102	78.0437	45.4102	77.6943	45.4102	78.4055	45.4102	78.0808	45.4102	78.7284	45.4102	78.4442	45.4102	78.9918	45.4102	78.7632	45.4102	79.179	45.4102	79.0188	45.4102	79.2785	45.4102	79.196	45.4102	79.2843
46.875	77.0209	46.875	77.0401	46.875	77.0093	46.875	77.0685	46.875	77.007	46.875	77.1102	46.875	77.0184	46.875	77.172	46.875	77.0501	46.875	77.2624	46.875	77.111	46.875	77.3906	46.875	77.2102	46.875	77.5644	46.875	77.356	46.875	77.7885	46.875	77.5536	46.875	78.0619	46.875	77.8039	46.875	78.3773	46.875	78.1017	46.875	78.7209	46.875	78.4362	46.875	79.0738	46.875	78.7913	46.875	79.4142	46.875	79.1475	46.875	79.7203	46.875	79.4837	46.875	79.9719	46.875	79.7795	46.875	80.1526	46.875	80.0167	46.875	80.2507	46.875	80.1803	46.875	80.2601
48.3398	78.1149	48.3398	78.1316	48.3398	78.1076	48.3398	78.1588	48.3398	78.1107	48.3398	78.2006	48.3398	78.1276	48.3398	78.2625	48.3398	78.1642	48.3398	78.352	48.3398	78.2274	48.3398	78.4766	48.3398	78.3249	48.3398	78.6429	48.3398	78.4638	48.3398	78.8544	48.3398	78.6487	48.3398	79.1102	48.3398	78.8803	48.3398	79.4036	48.3398	79.1547	48.3398	79.7223	48.3398	79.4626	48.3398	80.0495	48.3398	79.79	48.3398	80.3658	48.3398	80.1194	48.3398	80.6508	48.3398	80.4314	48.3398	80.8857	48.3398	80.7069	48.3398	81.0549	48.3398	80.9284	48.3398	81.147	48.3398	81.0814	48.3398	81.156
51.2695	79.9756	51.2695	79.9966	51.2695	79.9672	51.2695	80.0309	51.2695	79.9725	51.2695	80.0807	51.2695	79.9939	51.2695	80.1496	51.2695	80.0353	51.2695	80.242	51.2695	80.1014	51.2695	80.3626	51.2695	80.1973	51.2695	80.5152	51.2695	80.3274	51.2695	80.702	51.2695	80.4946	51.2695	80.9221	51.2695	80.6988	51.2695	81.1708	51.2695	80.9367	51.2695	81.4392	51.2695	81.201	51.2695	81.7147	51.2695	81.4809	51.2695	81.9818	51.2695	81.7624	51.2695	82.2238	51.2695	82.0299	51.2695	82.4244	51.2695	82.2669	51.2695	82.5695	51.2695	82.4583	51.2695	82.6487	51.2695	82.591	51.2695	82.656
52.7344	80.7615	52.7344	80.7852	52.7344	80.7499	52.7344	80.8213	52.7344	80.7514	52.7344	80.8714	52.7344	80.7685	52.7344	80.9382	52.7344	80.8045	52.7344	81.0255	52.7344	80.8635	52.7344	81.1371	52.7344	80.9498	52.7344	81.2764	52.7344	81.0674	52.7344	81.4455	52.7344	81.2187	52.7344	81.6442	52.7344	81.4041	52.7344	81.8687	52.7344	81.6209	52.7344	82.1117	52.7344	81.8629	52.7344	82.362	52.7344	82.1206	52.7344	82.6058	52.7344	82.3813	52.7344	82.8274	52.7344	82.6305	52.7344	83.0115	52.7344	82.8526	52.7344	83.1446	52.7344	83.0328	52.7344	83.2164	52.7344	83.1587	52.7344	83.2213
54.1992	81.3307	54.1992	81.3541	54.1992	81.3215	54.1992	81.3917	54.1992	81.3273	54.1992	81.4444	54.1992	81.35	54.1992	81.514	54.1992	81.3922	54.1992	81.6032	54.1992	81.457	54.1992	81.7147	54.1992	81.5476	54.1992	81.8511	54.1992	81.6669	54.1992	82.0139	54.1992	81.8164	54.1992	82.2028	54.1992	81.996	54.1992	82.4146	54.1992	82.203	54.1992	82.6427	54.1992	82.4317	54.1992	82.8774	54.1992	82.6736	54.1992	83.1061	54.1992	82.9172	54.1992	83.3145	54.1992	83.1491	54.1992	83.4884	54.1992	83.355	54.1992	83.6152	54.1992	83.5214	54.1992	83.685	54.1992	83.6366	54.1992	83.6925
55.6641	81.7892	55.6641	81.8078	55.6641	81.7867	55.6641	81.8426	55.6641	81.801	55.6641	81.8942	55.6641	81.8332	55.6641	81.9639	55.6641	81.8851	55.6641	82.0535	55.6641	81.9586	55.6641	82.1648	55.6641	82.056	55.6641	82.2995	55.6641	82.179	55.6641	82.4584	55.6641	82.3284	55.6641	82.6407	55.6641	82.5034	55.6641	82.8432	55.6641	82.7014	55.6641	83.0601	55.6641	82.9171	55.6641	83.2826	55.6641	83.1427	55.6641	83.4994	55.6641	83.368	55.6641	83.6976	55.6641	83.5811	55.6641	83.864	55.6641	83.769	55.6641	83.9869	55.6641	83.9195	55.6641	84.057	55.6641	84.022	55.6641	84.069
58.5938	82.5556	58.5938	82.5744	58.5938	82.5535	58.5938	82.6098	58.5938	82.5686	58.5938	82.6617	58.5938	82.6014	58.5938	82.7303	58.5938	82.6526	58.5938	82.8161	58.5938	82.7228	58.5938	82.9194	58.5938	82.8129	58.5938	83.0405	58.5938	82.9229	58.5938	83.1792	58.5938	83.0529	58.5938	83.3344	58.5938	83.2017	58.5938	83.5036	58.5938	83.3672	58.5938	83.6825	58.5938	83.5457	58.5938	83.8647	58.5938	83.7318	58.5938	84.0418	58.5938	83.9178	58.5938	84.2038	58.5938	84.0945	58.5938	84.3401	58.5938	84.2514	58.5938	84.4408	58.5938	84.378	58.5938	84.4977	58.5938	84.4652	58.5938	84.5061
60.0586	82.8234	60.0586	82.8438	60.0586	82.8197	60.0586	82.8804	60.0586	82.8331	60.0586	82.933	60.0586	82.864	60.0586	83.0013	60.0586	82.9129	60.0586	83.0852	60.0586	82.9802	60.0586	83.1845	60.0586	83.066	60.0586	83.2991	60.0586	83.1702	60.0586	83.4285	60.0586	83.2922	60.0586	83.5716	60.0586	83.4307	60.0586	83.7263	60.0586	83.5836	60.0586	83.8888	60.0586	83.7475	60.0586	84.0535	60.0586	83.9174	60.0586	84.213	60.0586	84.0869	60.0586	84.3585	60.0586	84.2477	60.0586	84.4804	60.0586	84.3907	60.0586	84.5698	60.0586	84.5065	60.0586	84.6196	60.0586	84.5868	60.0586	84.6255
62.9883	83.2198	62.9883	83.2374	62.9883	83.2193	62.9883	83.2717	62.9883	83.2361	62.9883	83.3219	62.9883	83.2701	62.9883	83.3872	62.9883	83.3208	62.9883	83.4665	62.9883	83.3876	62.9883	83.5586	62.9883	83.4695	62.9883	83.6625	62.9883	83.5656	62.9883	83.7768	62.9883	83.6746	62.9883	83.9	62.9883	83.7948	62.9883	84.0302	62.9883	83.9243	62.9883	84.1645	62.9883	84.0602	62.9883	84.299	62.9883	84.1992	62.9883	84.4284	62.9883	84.3363	62.9883	84.5461	62.9883	84.4655	62.9883	84.6451	62.9883	84.58	62.9883	84.7181	62.9883	84.6723	62.9883	84.7596	62.9883	84.7359	62.9883	84.7657
64.4531	83.3483	64.4531	83.3636	64.4531	83.35	64.4531	83.3955	64.4531	83.3686	64.4531	83.443	64.4531	83.4037	64.4531	83.505	64.4531	83.4547	64.4531	83.5801	64.4531	83.5203	64.4531	83.6669	64.4531	83.5993	64.4531	83.7637	64.4531	83.6902	64.4531	83.8691	64.4531	83.7915	64.4531	83.9814	64.4531	83.9016	64.4531	84.0989	64.4531	84.0184	64.4531	84.2191	64.4531	84.1397	64.4531	84.3388	64.4531	84.2626	64.4531	84.4536	64.4531	84.3831	64.4531	84.5581	64.4531	84.4963	64.4531	84.6462	64.4531	84.5962	64.4531	84.7116	64.4531	84.6764	64.4531	84.7494	64.4531	84.7312	64.4531	84.7561
67.3828	83.4841	67.3828	83.5014	67.3828	83.4839	67.3828	83.5352	67.3828	83.5008	67.3828	83.5842	67.3828	83.534	67.3828	83.6463	67.3828	83.5821	67.3828	83.7194	67.3828	83.6435	67.3828	83.8009	67.3828	83.7161	67.3828	83.8885	67.3828	83.798	67.3828	83.9804	67.3828	83.8871	67.3828	84.0748	67.3828	83.9815	67.3828	84.1703	67.3828	84.0796	67.3828	84.2655	67.3828	84.1797	67.3828	84.3585	67.3828	84.2795	67.3828	84.4464	67.3828	84.3763	67.3828	84.5258	67.3828	84.4666	67.3828	84.5922	67.3828	84.5459	67.3828	84.6414	67.3828	84.6095	67.3828	84.6694	67.3828	84.6531	67.3828	84.6735
68.8477	83.5295	68.8477	83.5491	68.8477	83.5276	68.8477	83.5854	68.8477	83.5432	68.8477	83.6367	68.8477	83.5755	68.8477	83.7006	68.8477	83.623	68.8477	83.7743	68.8477	83.6835	68.8477	83.8548	68.8477	83.7548	68.8477	83.9395	68.8477	83.8344	68.8477	84.0261	68.8477	83.9199	68.8477	84.1129	68.8477	84.0092	68.8477	84.1986	68.8477	84.1005	68.8477	84.2821	68.8477	84.192	68.8477	84.3622	68.8477	84.282	68.8477	84.437	68.8477	84.3681	68.8477	84.504	68.8477	84.4474	68.8477	84.5598	68.8477	84.5166	68.8477	84.601	68.8477	84.5718	68.8477	84.6244	68.8477	84.6096	68.8477	84.6274
71.7773	83.6417	71.7773	83.6578	71.7773	83.6427	71.7773	83.69	71.7773	83.6608	71.7773	83.7363	71.7773	83.695	71.7773	83.7941	71.7773	83.7434	71.7773	83.8602	71.7773	83.8038	71.7773	83.9315	71.7773	83.873	71.7773	84.0051	71.7773	83.948	71.7773	84.0785	71.7773	84.0257	71.7773	84.1502	71.7773	84.1035	71.7773	84.2188	71.7773	84.1791	71.7773	84.2837	71.7773	84.2508	71.7773	84.3439	71.7773	84.3171	71.7773	84.3985	71.7773	84.377	71.7773	84.4462	71.7773	84.4295	71.7773	84.4853	71.7773	84.4732	71.7773	84.5143	71.7773	84.5065	71.7773	84.5317	71.7773	84.528	71.7773	84.5365
74.707	83.8422	74.707	83.8594	74.707	83.8416	74.707	83.892	74.707	83.8577	74.707	83.9377	74.707	83.8895	74.707	83.9937	74.707	83.9351	74.707	84.0565	74.707	83.9918	74.707	84.1227	74.707	84.0561	74.707	84.1893	74.707	84.1245	74.707	84.2538	74.707	84.1936	74.707	84.3146	74.707	84.2603	74.707	84.3703	74.707	84.3223	74.707	84.4203	74.707	84.378	74.707	84.4637	74.707	84.4266	74.707	84.5001	74.707	84.468	74.707	84.5291	74.707	84.5023	74.707	84.5506	74.707	84.5297	74.707	84.5647	74.707	84.5504	74.707	84.5716	74.707	84.5643	74.707	84.5714
77.6367	83.8916	77.6367	83.9105	77.6367	83.8902	77.6367	83.9459	77.6367	83.9062	77.6367	83.9953	77.6367	83.9384	77.6367	84.0556	77.6367	83.9843	77.6367	84.1229	77.6367	84.0407	77.6367	84.1931	77.6367	84.1038	77.6367	84.2621	77.6367	84.1696	77.6367	84.3266	77.6367	84.2342	77.6367	84.3839	77.6367	84.2941	77.6367	84.4323	77.6367	84.3469	77.6367	84.4706	77.6367	84.3912	77.6367	84.4987	77.6367	84.4267	77.6367	84.5172	77.6367	84.454	77.6367	84.5273	77.6367	84.4745	77.6367	84.5308	77.6367	84.4898	77.6367	84.5295	77.6367	84.5016	77.6367	84.5252	77.6367	84.511	77.6367	84.5188
79.1016	83.913	79.1016	83.9311	79.1016	83.9128	79.1016	83.9659	79.1016	83.9301	79.1016	84.0154	79.1016	83.9633	79.1016	84.0761	79.1016	84.0099	79.1016	84.1441	79.1016	84.0663	79.1016	84.2148	79.1016	84.1287	79.1016	84.2839	79.1016	84.1928	79.1016	84.3475	79.1016	84.2547	79.1016	84.4027	79.1016	84.3111	79.1016	84.4474	79.1016	84.3594	79.1016	84.4807	79.1016	84.3984	79.1016	84.5025	79.1016	84.428	79.1016	84.5141	79.1016	84.4492	79.1016	84.5173	79.1016	84.4636	79.1016	84.5146	79.1016	84.4734	79.1016	84.5085	79.1016	84.4807	79.1016	84.5011	79.1016	84.4871	79.1016	84.4938
82.0312	84.0745	82.0312	84.0913	82.0312	84.074	82.0312	84.1237	82.0312	84.0895	82.0312	84.1694	82.0312	84.1194	82.0312	84.2251	82.0312	84.161	82.0312	84.2867	82.0312	84.2108	82.0312	84.3495	82.0312	84.2648	82.0312	84.4089	82.0312	84.3189	82.0312	84.4608	82.0312	84.3691	82.0312	84.5018	82.0312	84.4121	82.0312	84.5299	82.0312	84.4456	82.0312	84.5445	82.0312	84.4684	82.0312	84.5465	82.0312	84.4807	82.0312	84.5382	82.0312	84.484	82.0312	84.5229	82.0312	84.4809	82.0312	84.5046	82.0312	84.4743	82.0312	84.4871	82.0312	84.4677	82.0312	84.4735	82.0312	84.4641	82.0312	84.4657
84.9609	84.2773	84.9609	84.2959	84.9609	84.2723	84.9609	84.3271	84.9609	84.2805	84.9609	84.3684	84.9609	84.3005	84.9609	84.4164	84.9609	84.3295	84.9609	84.467	84.9609	84.3642	84.9609	84.5154	84.9609	84.4006	84.9609	84.5573	84.9609	84.4348	84.9609	84.5887	84.9609	84.4632	84.9609	84.6067	84.9609	84.4828	84.9609	84.6096	84.9609	84.4918	84.9609	84.5976	84.9609	84.4896	84.9609	84.5721	84.9609	84.4771	84.9609	84.5365	84.9609	84.4567	84.9609	84.4953	84.9609	84.4321	84.9609	84.454	84.9609	84.4077	84.9609	84.4179	84.9609	84.3879	84.9609	84.3916	84.9609	84.3769	84.9609	84.3777
87.8906	84.205	87.8906	84.221	87.8906	84.2064	87.8906	84.2533	87.8906	84.2246	87.8906	84.2992	87.8906	84.2578	87.8906	84.355	87.8906	84.3026	87.8906	84.4159	87.8906	84.3552	87.8906	84.4768	87.8906	84.4107	87.8906	84.5325	87.8906	84.4645	87.8906	84.5788	87.8906	84.5124	87.8906	84.6121	87.8906	84.5506	87.8906	84.6306	87.8906	84.5768	87.8906	84.634	87.8906	84.5898	87.8906	84.6237	87.8906	84.59	87.8906	84.6028	87.8906	84.5796	87.8906	84.5757	87.8906	84.5618	87.8906	84.5475	87.8906	84.5409	87.8906	84.5234	87.8906	84.5213	87.8906	84.5075	87.8906	84.5073	87.8906	84.5021
90.8203	84.2566	90.8203	84.2757	90.8203	84.2559	90.8203	84.3115	90.8203	84.2732	90.8203	84.3613	90.8203	84.3069	90.8203	84.4211	90.8203	84.354	90.8203	84.4858	90.8203	84.4101	90.8203	84.5503	90.8203	84.4703	90.8203	84.6093	90.8203	84.5293	90.8203	84.6583	90.8203	84.582	90.8203	84.6936	90.8203	84.6242	90.8203	84.7133	90.8203	84.6526	90.8203	84.7168	90.8203	84.6658	90.8203	84.7052	90.8203	84.6642	90.8203	84.6815	90.8203	84.6501	90.8203	84.6499	90.8203	84.6274	90.8203	84.6161	90.8203	84.6014	90.8203	84.5861	90.8203	84.5777	90.8203	84.5652	90.8203	84.5615	90.8203	84.5567
95.2148	84.496	95.2148	84.5227	95.2148	84.4844	95.2148	84.5626	95.2148	84.4885	95.2148	84.6122	95.2148	84.5074	95.2148	84.6671	95.2148	84.5387	95.2148	84.7225	95.2148	84.5784	95.2148	84.773	95.2148	84.6217	95.2148	84.814	95.2148	84.6633	95.2148	84.8414	95.2148	84.6978	95.2148	84.8521	95.2148	84.7204	95.2148	84.8447	95.2148	84.7277	95.2148	84.819	95.2148	84.7181	95.2148	84.7766	95.2148	84.6922	95.2148	84.7212	95.2148	84.6531	95.2148	84.6585	95.2148	84.6062	95.2148	84.596	95.2148	84.5587	95.2148	84.542	95.2148	84.5184	95.2148	84.504	95.2148	84.4927	95.2148	84.4871
98.1445	84.7155	98.1445	84.7362	98.1445	84.7066	98.1445	84.7674	98.1445	84.7101	98.1445	84.8062	98.1445	84.725	98.1445	84.8491	98.1445	84.7492	98.1445	84.8918	98.1445	84.7794	98.1445	84.9296	98.1445	84.8112	98.1445	84.9581	98.1445	84.8398	98.1445	84.9734	98.1445	84.8602	98.1445	84.9727	98.1445	84.8679	98.1445	84.9538	98.1445	84.8596	98.1445	84.9165	98.1445	84.8341	98.1445	84.862	98.1445	84.7921	98.1445	84.7939	98.1445	84.7371	98.1445	84.7184	98.1445	84.6752	98.1445	84.6441	98.1445	84.614	98.1445	84.5807	98.1445	84.5625	98.1445	84.5371	98.1445	84.5288	98.1445	84.5193
101.074	85.0564	101.074	85.0763	101.074	85.043	101.074	85.1017	101.074	85.0359	101.074	85.1303	101.074	85.034	101.074	85.1592	101.074	85.0351	101.074	85.1844	101.074	85.0364	101.074	85.2017	101.074	85.0341	101.074	85.2067	101.074	85.0244	101.074	85.1956	101.074	85.0035	101.074	85.1654	101.074	84.9686	101.074	85.1141	101.074	84.9182	101.074	85.0416	101.074	84.8525	101.074	84.9497	101.074	84.7742	101.074	84.843	101.074	84.6881	101.074	84.7292	101.074	84.6013	101.074	84.6191	101.074	84.5223	101.074	84.5246	101.074	84.4606	101.074	84.4568	101.074	84.4252	101.074	84.4229
105.469	84.9264	105.469	84.9557	105.469	84.9128	105.469	84.999	105.469	84.9149	105.469	85.0527	105.469	84.9309	105.469	85.1114	105.469	84.9573	105.469	85.1689	105.469	84.9894	105.469	85.2185	105.469	85.0219	105.469	85.2539	105.469	85.0487	105.469	85.27	105.469	85.064	105.469	85.2629	105.469	85.0629	105.469	85.2303	105.469	85.0418	105.469	85.1714	105.469	84.9997	105.469	85.0886	105.469	84.9383	105.469	84.9875	105.469	84.8627	105.469	84.8776	105.469	84.7808	105.469	84.7713	105.469	84.7025	105.469	84.6816	105.469	84.6386	105.469	84.6195	105.469	84.5992	105.469	84.5915
108.398	85.0767	108.398	85.1087	108.398	85.0613	108.398	85.1555	108.398	85.0621	108.398	85.2135	108.398	85.0767	108.398	85.2769	108.398	85.1014	108.398	85.3385	108.398	85.1316	108.398	85.3905	108.398	85.1619	108.398	85.4255	108.398	85.1866	108.398	85.4375	108.398	85.2003	108.398	85.4222	108.398	85.1977	108.398	85.378	108.398	85.1751	108.398	85.3055	108.398	85.1305	108.398	85.2086	108.398	85.0651	108.398	85.0946	108.398	84.9831	108.398	84.9737	108.398	84.8924	108.398	84.8587	108.398	84.8039	108.398	84.7629	108.398	84.7299	108.398	84.6976	108.398	84.6823	108.398	84.6702
112.793	85.2806	112.793	85.3227	112.793	85.2552	112.793	85.3807	112.793	85.2458	112.793	85.4517	112.793	85.2504	112.793	85.531	112.793	85.2662	112.793	85.6117	112.793	85.2892	112.793	85.6859	112.793	85.3148	112.793	85.745	112.793	85.3378	112.793	85.7812	112.793	85.3524	112.793	85.7879	112.793	85.3531	112.793	85.7608	112.793	85.3351	112.793	85.6985	112.793	85.2959	112.793	85.6031	112.793	85.236	112.793	85.4807	112.793	85.1596	112.793	85.3416	112.793	85.0752	112.793	85.1999	112.793	84.9949	112.793	85.072	112.793	84.933	112.793	84.9734	112.793	84.9032	112.793	84.9156
117.188	85.548	117.188	85.5588	117.188	85.5486	117.188	85.5813	117.188	85.5596	117.188	85.6144	117.188	85.5796	117.188	85.6555	117.188	85.6066	117.188	85.7005	117.188	85.6379	117.188	85.7442	117.188	85.6701	117.188	85.7805	117.188	85.6987	117.188	85.8037	117.188	85.7185	117.188	85.8086	117.188	85.7242	117.188	85.7913	117.188	85.7109	117.188	85.7494	117.188	85.6757	117.188	85.6832	117.188	85.6182	117.188	85.5965	117.188	85.5421	117.188	85.4972	117.188	85.4549	117.188	85.3973	117.188	85.3674	117.188	85.3107	117.188	85.2924	117.188	85.251	117.188	85.2425	117.188	85.2273
120.117	85.7336	120.117	85.7558	120.117	85.7176	120.117	85.7832	120.117	85.7086	120.117	85.8139	120.117	85.7067	120.117	85.845	120.117	85.7113	120.117	85.8729	120.117	85.7209	120.117	85.8935	120.117	85.7328	120.117	85.9024	120.117	85.7432	120.117	85.8954	120.117	85.7472	120.117	85.8693	120.117	85.7399	120.117	85.822	120.117	85.7167	120.117	85.7532	120.117	85.6747	120.117	85.6651	120.117	85.6134	120.117	85.5632	120.117	85.5356	120.117	85.456	120.117	85.4478	120.117	85.3551	120.117	85.3595	120.117	85.273	120.117	85.2822	120.117	85.2208	120.117	85.2277	120.117	85.2055
124.512	86.0572	124.512	86.0714	124.512	86.0473	124.512	86.089	124.512	86.0421	124.512	86.1079	124.512	86.0412	124.512	86.1249	124.512	86.0435	124.512	86.1361	124.512	86.0469	124.512	86.137	124.512	86.0488	124.512	86.1234	124.512	86.0451	124.512	86.092	124.512	86.0317	124.512	86.0404	124.512	86.0039	124.512	85.9677	124.512	85.9579	124.512	85.8748	124.512	85.8912	124.512	85.7649	124.512	85.804	124.512	85.6441	124.512	85.6997	124.512	85.522	124.512	85.5857	124.512	85.4108	124.512	85.4726	124.512	85.3241	124.512	85.3733	124.512	85.2733	124.512	85.3007	124.512	85.2654
128.906	86.1235	128.906	86.121	128.906	86.1292	128.906	86.1225	128.906	86.1366	128.906	86.1279	128.906	86.1442	128.906	86.1354	128.906	86.15	128.906	86.1419	128.906	86.1518	128.906	86.1429	128.906	86.1469	128.906	86.1332	128.906	86.1319	128.906	86.1081	128.906	86.1033	128.906	86.0633	128.906	86.0576	128.906	85.996	128.906	85.992	128.906	85.9054	128.906	85.9054	128.906	85.7934	128.906	85.799	128.906	85.6655	128.906	85.6775	128.906	85.5316	128.906	85.5491	128.906	85.4054	128.906	85.4256	128.906	85.3023	128.906	85.3204	128.906	85.2367	128.906	85.2475	128.906	85.2178
133.301	86.1349	133.301	86.1579	133.301	86.1166	133.301	86.1852	133.301	86.1025	133.301	86.2158	133.301	86.0917	133.301	86.2471	133.301	86.083	133.301	86.2752	133.301	86.0743	133.301	86.295	133.301	86.063	133.301	86.3008	133.301	86.0459	133.301	86.2872	133.301	86.0192	133.301	86.2501	133.301	85.9795	133.301	86.1869	133.301	85.9243	133.301	86.0971	133.301	85.8523	133.301	85.9832	133.301	85.765	133.301	85.8511	133.301	85.6666	133.301	85.7108	133.301	85.5645	133.301	85.5756	133.301	85.4691	133.301	85.4606	133.301	85.3923	133.301	85.3793	133.301	85.3463	133.301	85.3404
139.16	86.1581	139.16	86.1991	139.16	86.1203	139.16	86.2423	139.16	86.0867	139.16	86.2864	139.16	86.058	139.16	86.3291	139.16	86.0343	139.16	86.3672	139.16	86.0148	139.16	86.3962	139.16	85.9972	139.16	86.4104	139.16	85.9781	139.16	86.4038	139.16	85.9535	139.16	86.371	139.16	85.9189	139.16	86.3083	139.16	85.8712	139.16	86.2148	139.16	85.8087	139.16	86.0936	139.16	85.7328	139.16	85.9518	139.16	85.6478	139.16	85.8012	139.16	85.5608	139.16	85.6564	139.16	85.4815	139.16	85.5328	139.16	85.4207	139.16	85.443	139.16	85.3888	139.16	85.3947
143.555	86.2975	143.555	86.3229	143.555	86.2709	143.555	86.3465	143.555	86.2439	143.555	86.3675	143.555	86.2171	143.555	86.3846	143.555	86.1911	143.555	86.3956	143.555	86.1656	143.555	86.3973	143.555	86.139	143.555	86.3856	143.555	86.1084	143.555	86.3563	143.555	86.0701	143.555	86.3058	143.555	86.0199	143.555	86.2314	143.555	85.9546	143.555	86.1326	143.555	85.8734	143.555	86.0118	143.555	85.7781	143.555	85.8751	143.555	85.6741	143.555	85.7324	143.555	85.5701	143.555	85.597	143.555	85.4766	143.555	85.4828	143.555	85.4044	143.555	85.4019	143.555	85.3636	143.555	85.3616
147.949	86.5157	147.949	86.5278	147.949	86.4987	147.949	86.5354	147.949	86.4766	147.949	86.5391	147.949	86.45	147.949	86.5388	147.949	86.4197	147.949	86.533	147.949	86.386	147.949	86.5188	147.949	86.3484	147.949	86.4923	147.949	86.305	147.949	86.4497	147.949	86.2525	147.949	86.3875	147.949	86.1872	147.949	86.3037	147.949	86.1061	147.949	86.1984	147.949	86.0079	147.949	86.074	147.949	85.8948	147.949	85.9358	147.949	85.7727	147.949	85.7926	147.949	85.6514	147.949	85.6559	147.949	85.5429	147.949	85.5392	147.949	85.4602	147.949	85.4547	147.949	85.414	147.949	85.4116
153.809	86.6249	153.809	86.6415	153.809	86.5977	153.809	86.6491	153.809	86.5593	153.809	86.6499	153.809	86.5099	153.809	86.6453	153.809	86.4508	153.809	86.6356	153.809	86.3838	153.809	86.619	153.809	86.3104	153.809	86.5918	153.809	86.2314	153.809	86.5486	153.809	86.1461	153.809	86.4841	153.809	86.0528	153.809	86.3941	153.809	85.9494	153.809	86.2769	153.809	85.835	153.809	86.1345	153.809	85.7115	153.809	85.9725	153.809	85.5844	153.809	85.8008	153.809	85.4634	153.809	85.6325	153.809	85.3612	153.809	85.4821	153.809	85.2914	153.809	85.364	153.809	85.2653	153.809	85.2896
159.668	86.6972	159.668	86.7014	159.668	86.6954	159.668	86.7122	159.668	86.6905	159.668	86.7306	159.668	86.677	159.668	86.7532	159.668	86.6506	159.668	86.7724	159.668	86.6089	159.668	86.7787	159.668	86.5505	159.668	86.7623	159.668	86.475	159.668	86.7159	159.668	86.3824	159.668	86.6362	159.668	86.2734	159.668	86.5238	159.668	86.1491	159.668	86.3831	159.668	86.0121	159.668	86.2211	159.668	85.8676	159.668	86.0463	159.668	85.7235	159.668	85.8692	159.668	85.5902	159.668	85.7017	159.668	85.4793	159.668	85.5569	159.668	85.4021	159.668	85.4475	159.668	85.3682	159.668	85.383
165.527	86.755	165.527	86.7264	165.527	86.7786	165.527	86.6986	165.527	86.7927	165.527	86.6773	165.527	86.7948	165.527	86.666	165.527	86.7838	165.527	86.6636	165.527	86.7588	165.527	86.6639	165.527	86.7192	165.527	86.6575	165.527	86.6636	165.527	86.635	165.527	86.5912	165.527	86.5892	165.527	86.5017	165.527	86.5169	165.527	86.3962	165.527	86.4185	165.527	86.2776	165.527	86.2978	165.527	86.1504	165.527	86.1613	165.527	86.0208	165.527	86.0184	165.527	85.8967	165.527	85.8817	165.527	85.7872	165.527	85.7655	165.527	85.7023	165.527	85.6834	165.527	85.6521	165.527	85.6446
171.387	86.8737	171.387	86.8497	171.387	86.8848	171.387	86.8154	171.387	86.8822	171.387	86.774	171.387	86.8662	171.387	86.7282	171.387	86.8377	171.387	86.679	171.387	86.7975	171.387	86.6249	171.387	86.7449	171.387	86.5625	171.387	86.6786	171.387	86.4883	171.387	86.5965	171.387	86.3999	171.387	86.4973	171.387	86.297	171.387	86.3811	171.387	86.1818	171.387	86.2507	171.387	86.0583	171.387	86.1112	171.387	85.9322	171.387	85.9702	171.387	85.8107	171.387	85.8365	171.387	85.7025	171.387	85.719	171.387	85.6168	171.387	85.6266	171.387	85.5622	171.387	85.5668	171.387	85.5447
177.246	86.6987	177.246	86.6967	177.246	86.6936	177.246	86.6913	177.246	86.6789	177.246	86.6857	177.246	86.6539	177.246	86.6811	177.246	86.6192	177.246	86.6748	177.246	86.5758	177.246	86.6611	177.246	86.5237	177.246	86.6327	177.246	86.4611	177.246	86.5839	177.246	86.3851	177.246	86.5119	177.246	86.2925	177.246	86.4174	177.246	86.1816	177.246	86.3036	177.246	86.054	177.246	86.1748	177.246	85.9154	177.246	86.0353	177.246	85.7753	177.246	85.8906	177.246	85.6458	177.246	85.7486	177.246	85.5394	177.246	85.6204	177.246	85.4674	177.246	85.5189	177.246	85.4381	177.246	85.4557
183.105	86.9743	183.105	86.9573	183.105	86.9614	183.105	86.9162	183.105	86.9174	183.105	86.86	183.105	86.8451	183.105	86.7979	183.105	86.7494	183.105	86.7348	183.105	86.6357	183.105	86.6694	183.105	86.5086	183.105	86.5946	183.105	86.3719	183.105	86.5014	183.105	86.2293	183.105	86.3844	183.105	86.0852	183.105	86.245	183.105	85.9461	183.105	86.0917	183.105	85.8191	183.105	85.9383	183.105	85.7111	183.105	85.7998	183.105	85.6261	183.105	85.6866	183.105	85.5646	183.105	85.6027	183.105	85.5237	183.105	85.546	183.105	85.5	183.105	85.5114	183.105	85.4904	183.105	85.4939
188.965	87.0335	188.965	87.022	188.965	87.0116	188.965	86.9801	188.965	86.959	188.965	86.917	188.965	86.8819	188.965	86.8456	188.965	86.7868	188.965	86.7767	188.965	86.6778	188.965	86.7127	188.965	86.5558	188.965	86.6454	188.965	86.4176	188.965	86.5587	188.965	86.258	188.965	86.4361	188.965	86.0728	188.965	86.2673	188.965	85.8628	188.965	86.0525	188.965	85.6371	188.965	85.8044	188.965	85.4127	188.965	85.5455	188.965	85.2103	188.965	85.3028	188.965	85.0462	188.965	85.0996	188.965	84.9271	188.965	84.95	188.965	84.851	188.965	84.8565	188.965	84.8135	188.965	84.8137
196.289	87.1026	196.289	87.0837	196.289	87.0671	196.289	87.0113	196.289	86.9846	196.289	86.896	196.289	86.8677	196.289	86.757	196.289	86.7304	196.289	86.6164	196.289	86.5856	196.289	86.4913	196.289	86.4425	196.289	86.3869	196.289	86.3054	196.289	86.2956	196.289	86.1737	196.289	86.2029	196.289	86.0427	196.289	86.0953	196.289	85.9055	196.289	85.9661	196.289	85.7575	196.289	85.8172	196.289	85.5995	196.289	85.6576	196.289	85.4403	196.289	85.5003	196.289	85.2945	196.289	85.3575	196.289	85.1782	196.289	85.2383	196.289	85.1034	196.289	85.1482	196.289	85.0753	196.289	85.092
203.613	87.0933	203.613	87.1126	203.613	87.0116	203.613	87.059	203.613	86.8859	203.613	86.9344	203.613	86.7373	203.613	86.755	203.613	86.5846	203.613	86.5465	203.613	86.4412	203.613	86.336	203.613	86.3132	203.613	86.1407	203.613	86.1995	203.613	85.9626	203.613	86.0935	203.613	85.7919	203.613	85.9865	203.613	85.6161	203.613	85.8713	203.613	85.4302	203.613	85.7458	203.613	85.242	203.613	85.6142	203.613	85.0712	203.613	85.4845	203.613	84.9421	203.613	85.3642	203.613	84.8726	203.613	85.2562	203.613	84.8653	203.613	85.1582	203.613	84.9076	203.613	85.0663	203.613	84.9801
210.938	86.9053	210.938	86.9078	210.938	86.8406	210.938	86.8382	210.938	86.7299	210.938	86.699	210.938	86.5913	210.938	86.5079	210.938	86.4408	210.938	86.2954	210.938	86.2913	210.938	86.0954	210.938	86.1511	210.938	85.9315	210.938	86.0222	210.938	85.808	210.938	85.8993	210.938	85.7111	210.938	85.7708	210.938	85.62	210.938	85.624	210.938	85.5182	210.938	85.453	210.938	85.4001	210.938	85.2653	210.938	85.2712	210.938	85.0823	210.938	85.1444	210.938	84.9314	210.938	85.0329	210.938	84.8328	210.938	84.9437	210.938	84.7902	210.938	84.8757	210.938	84.7929	210.938	84.8249
218.262	86.6431	218.262	86.6428	218.262	86.601	218.262	86.5921	218.262	86.5261	218.262	86.4881	218.262	86.4267	218.262	86.3373	218.262	86.31	218.262	86.1561	218.262	86.1826	218.262	85.9679	218.262	86.0523	218.262	85.7947	218.262	85.9284	218.262	85.6488	218.262	85.8202	218.262	85.5298	218.262	85.7322	218.262	85.4285	218.262	85.6604	218.262	85.3352	218.262	85.5923	218.262	85.2454	218.262	85.5134	218.262	85.1617	218.262	85.4161	218.262	85.0914	218.262	85.3054	218.262	85.0419	218.262	85.1973	218.262	85.0151	218.262	85.1091	218.262	85.0082	218.262	85.0502	218.262	85.0188
225.586	86.6817	225.586	86.7788	225.586	86.5534	225.586	86.8181	225.586	86.4184	225.586	86.7803	225.586	86.2913	225.586	86.6625	225.586	86.1751	225.586	86.4817	225.586	86.0632	225.586	86.2716	225.586	85.9454	225.586	86.0697	225.586	85.8145	225.586	85.9014	225.586	85.6709	225.586	85.7692	225.586	85.5251	225.586	85.6571	225.586	85.3943	225.586	85.5448	225.586	85.2948	225.586	85.4231	225.586	85.2346	225.586	85.2985	225.586	85.2089	225.586	85.1895	225.586	85.2029	225.586	85.1154	225.586	85.1994	225.586	85.0854	225.586	85.186	225.586	85.0936	225.586	85.1591	225.586	85.1241
232.91	86.4876	232.91	86.5553	232.91	86.403	232.91	86.5917	232.91	86.3088	232.91	86.5797	232.91	86.2061	232.91	86.5075	232.91	86.0943	232.91	86.3759	232.91	85.9745	232.91	86.201	232.91	85.8491	232.91	86.0103	232.91	85.7209	232.91	85.8343	232.91	85.5919	232.91	85.6947	232.91	85.4646	232.91	85.5994	232.91	85.3447	232.91	85.5446	232.91	85.2432	232.91	85.5219	232.91	85.1754	232.91	85.5229	232.91	85.157	232.91	85.5399	232.91	85.195	232.91	85.564	232.91	85.2798	232.91	85.5837	232.91	85.3864	232.91	85.5847	232.91	85.4851	232.91	85.5537
241.699	86.3977	241.699	86.365	241.699	86.427	241.699	86.3368	241.699	86.4363	241.699	86.308	241.699	86.4089	241.699	86.2634	241.699	86.3344	241.699	86.1866	241.699	86.2108	241.699	86.0711	241.699	86.0427	241.699	85.9256	241.699	85.8377	241.699	85.7721	241.699	85.6048	241.699	85.6345	241.699	85.3547	241.699	85.5244	241.699	85.1006	241.699	85.4353	241.699	84.8594	241.699	85.3483	241.699	84.6515	241.699	85.2456	241.699	84.4987	241.699	85.1231	241.699	84.4181	241.699	84.992	241.699	84.4134	241.699	84.8689	241.699	84.4695	241.699	84.7599	241.699	84.5592	241.699	84.6588
250.488	86.4842	250.488	86.3829	250.488	86.5513	250.488	86.2713	250.488	86.5629	250.488	86.1652	250.488	86.5066	250.488	86.0648	250.488	86.3822	250.488	85.956	250.488	86.2003	250.488	85.8222	250.488	85.9801	250.488	85.6572	250.488	85.7452	250.488	85.4714	250.488	85.5189	250.488	85.2848	250.488	85.3165	250.488	85.1121	250.488	85.1405	250.488	84.9512	250.488	84.9789	250.488	84.7849	250.488	84.8127	250.488	84.5949	250.488	84.6288	250.488	84.3801	250.488	84.4301	250.488	84.1643	250.488	84.2342	250.488	83.9881	250.488	84.0638	250.488	83.887	250.488	83.9379	250.488	83.8733
259.277	86.6703	259.277	86.6329	259.277	86.67	259.277	86.5748	259.277	86.6171	259.277	86.5075	259.277	86.5034	259.277	86.4295	259.277	86.3283	259.277	86.3249	259.277	86.0989	259.277	86.1708	259.277	85.8282	259.277	85.952	259.277	85.5317	259.277	85.6743	259.277	85.2258	259.277	85.3695	259.277	84.9277	259.277	85.0848	259.277	84.6574	259.277	84.8592	259.277	84.4349	259.277	84.7006	259.277	84.2737	259.277	84.5841	259.277	84.1739	259.277	84.4758	259.277	84.1226	259.277	84.3598	259.277	84.1012	259.277	84.2468	259.277	84.0937	259.277	84.1596	259.277	84.0944	259.277	84.1111
268.066	86.4197	268.066	86.3296	268.066	86.4797	268.066	86.2256	268.066	86.494	268.066	86.1202	268.066	86.4492	268.066	86.0175	268.066	86.3356	268.066	85.9097	268.066	86.1494	268.066	85.7795	268.066	85.8944	268.066	85.6082	268.066	85.5822	268.066	85.3863	268.066	85.2301	268.066	85.1237	268.066	84.8579	268.066	84.853	268.066	84.4864	268.066	84.6174	268.066	84.1354	268.066	84.4422	268.066	83.8214	268.066	84.3106	268.066	83.5556	268.066	84.1716	268.066	83.3447	268.066	83.979	268.066	83.1953	268.066	83.7288	268.066	83.1189	268.066	83.4651	268.066	83.1331	268.066	83.2516
276.855	86.121	276.855	86.0785	276.855	86.1375	276.855	86.0236	276.855	86.1153	276.855	85.9601	276.855	86.0446	276.855	85.8728	276.855	85.9163	276.855	85.7306	276.855	85.7199	276.855	85.5031	276.855	85.4488	276.855	85.1798	276.855	85.1098	276.855	84.7821	276.855	84.735	276.855	84.3628	276.855	84.3875	276.855	83.9954	276.855	84.1475	276.855	83.7515	276.855	84.0712	276.855	83.6695	276.855	84.1432	276.855	83.7277	276.855	84.277	276.855	83.8532	276.855	84.372	276.855	83.9671	276.855	84.3732	276.855	84.0308	276.855	84.2913	276.855	84.0596	276.855	84.1815	276.855	84.0993
287.109	85.6328	287.109	85.595	287.109	85.594	287.109	85.4903	287.109	85.4885	287.109	85.3492	287.109	85.3407	287.109	85.2126	287.109	85.1808	287.109	85.1094	287.109	85.0344	287.109	85.0333	287.109	84.9114	287.109	84.9444	287.109	84.798	287.109	84.7973	287.109	84.6587	287.109	84.5741	287.109	84.4546	287.109	84.307	287.109	84.1758	287.109	84.0838	287.109	83.8725	287.109	84.0207	287.109	83.6499	287.109	84.1779	287.109	83.6042	287.109	84.4863	287.109	83.7462	287.109	84.7925	287.109	84.0079	287.109	84.9713	287.109	84.3107	287.109	84.9796	287.109	84.6017	287.109	84.8402
297.363	85.9702	297.363	85.8875	297.363	85.9577	297.363	85.7206	297.363	85.834	297.363	85.4694	297.363	85.59	297.363	85.1332	297.363	85.2326	297.363	84.7364	297.363	84.7906	297.363	84.3493	297.363	84.318	297.363	84.0709	297.363	83.8902	297.363	83.9656	297.363	83.5748	297.363	84.0027	297.363	83.3861	297.363	84.0709	297.363	83.2741	297.363	84.0555	297.363	83.1776	297.363	83.9132	297.363	83.0916	297.363	83.7048	297.363	83.079	297.363	83.5606	297.363	83.2043	297.363	83.5746	297.363	83.4521	297.363	83.7215	297.363	83.7266	297.363	83.8915	297.363	83.9221	297.363	83.9776
307.617	86.2626	307.617	86.2669	307.617	86.1669	307.617	86.1634	307.617	86.0037	307.617	85.9432	307.617	85.7955	307.617	85.5989	307.617	85.5541	307.617	85.1223	307.617	85.2783	307.617	84.5143	307.617	84.9616	307.617	83.8055	307.617	84.6075	307.617	83.0826	307.617	84.2432	307.617	82.4993	307.617	83.9179	307.617	82.2201	307.617	83.6783	307.617	82.2895	307.617	83.5401	307.617	82.5849	307.617	83.4887	307.617	82.9383	307.617	83.5069	307.617	83.2528	307.617	83.5866	307.617	83.5094	307.617	83.7123	307.617	83.7159	307.617	83.8453	307.617	83.8679	307.617	83.9354	307.617	83.9459
319.336	86.1815	319.336	86.1251	319.336	86.1027	319.336	85.9177	319.336	85.9234	319.336	85.5717	319.336	85.6816	319.336	85.1235	319.336	85.402	319.336	84.6192	319.336	85.0889	319.336	84.0973	319.336	84.7322	319.336	83.5766	319.336	84.3275	319.336	83.0599	319.336	83.8987	319.336	82.5554	319.336	83.5034	319.336	82.1133	319.336	83.2039	319.336	81.8448	319.336	83.0222	319.336	81.8673	319.336	82.9339	319.336	82.1866	319.336	82.9138	319.336	82.6694	319.336	82.9705	319.336	83.1487	319.336	83.1209	319.336	83.5093	319.336	83.3427	319.336	83.6976	319.336	83.566	319.336	83.7061
329.59	85.7118	329.59	85.7413	329.59	85.6316	329.59	85.7023	329.59	85.5077	329.59	85.5746	329.59	85.339	329.59	85.3478	329.59	85.123	329.59	85.0295	329.59	84.8594	329.59	84.6443	329.59	84.5429	329.59	84.2199	329.59	84.1588	329.59	83.7713	329.59	83.6952	329.59	83.3003	329.59	83.1746	329.59	82.8193	329.59	82.6797	329.59	82.3777	329.59	82.3297	329.59	82.0606	329.59	82.1969	329.59	81.9487	329.59	82.2496	329.59	82.0646	329.59	82.3997	329.59	82.3433	329.59	82.5803	329.59	82.6576	329.59	82.7594	329.59	82.8854	329.59	82.9052	329.59	82.9648
341.309	86.142	341.309	86.1577	341.309	86.0278	341.309	86.0575	341.309	85.8298	341.309	85.83	341.309	85.5549	341.309	85.4776	341.309	85.2043	341.309	85.0199	341.309	84.782	341.309	84.495	341.309	84.301	341.309	83.9545	341.309	83.7806	341.309	83.4472	341.309	83.2403	341.309	82.9928	341.309	82.7108	341.309	82.5774	341.309	82.2601	341.309	82.1937	341.309	81.9964	341.309	81.8912	341.309	82.0005	341.309	81.7694	341.309	82.2422	341.309	81.8995	341.309	82.5954	341.309	82.2486	341.309	82.9337	341.309	82.6851	341.309	83.1832	341.309	83.0581	341.309	83.3063	341.309	83.2722
353.027	85.9815	353.027	85.8499	353.027	86.0413	353.027	85.6711	353.027	86.0088	353.027	85.4691	353.027	85.8735	353.027	85.2629	353.027	85.6349	353.027	85.055	353.027	85.2957	353.027	84.8223	353.027	84.8519	353.027	84.5218	353.027	84.2894	353.027	84.1155	353.027	83.5853	353.027	83.5992	353.027	82.7185	353.027	83.021	353.027	81.7046	353.027	82.485	353.027	80.6652	353.027	82.1199	353.027	79.8865	353.027	82.0079	353.027	79.6877	353.027	82.1246	353.027	80.0896	353.027	82.3548	353.027	80.7987	353.027	82.5583	353.027	81.5231	353.027	82.6218	353.027	82.105	353.027	82.4777
366.211	86.3134	366.211	86.1948	366.211	86.341	366.211	85.9561	366.211	86.3013	366.211	85.5875	366.211	86.1934	366.211	85.1086	366.211	85.9901	366.211	84.5568	366.211	85.6557	366.211	83.962	366.211	85.1732	366.211	83.3363	366.211	84.5649	366.211	82.6932	366.211	83.8944	366.211	82.0777	366.211	83.2368	366.211	81.5698	366.211	82.6276	366.211	81.2532	366.211	82.0422	366.211	81.1756	366.211	81.4489	366.211	81.3273	366.211	80.9143	366.211	81.6391	366.211	80.6455	366.211	81.9978	366.211	80.8125	366.211	82.2775	366.211	81.3072	366.211	82.3752	366.211	81.8498	366.211	82.233
379.395	85.9892	379.395	85.919	379.395	86.0015	379.395	85.7962	379.395	85.947	379.395	85.6144	379.395	85.8233	379.395	85.3587	379.395	85.6329	379.395	85.0101	379.395	85.3669	379.395	84.5433	379.395	84.998	379.395	83.9272	379.395	84.498	379.395	83.151	379.395	83.869	379.395	82.282	379.395	83.1779	379.395	81.5167	379.395	82.5729	379.395	81.117	379.395	82.227	379.395	81.1957	379.395	82.1837	379.395	81.602	379.395	82.3014	379.395	82.082	379.395	82.4128	379.395	82.4587	379.395	82.4663	379.395	82.669	379.395	82.508	379.395	82.7251	379.395	82.5829	379.395	82.6751
392.578	85.7597	392.578	85.6251	392.578	85.7951	392.578	85.4454	392.578	85.6969	392.578	85.2633	392.578	85.4628	392.578	85.0785	392.578	85.1192	392.578	84.8469	392.578	84.7056	392.578	84.5119	392.578	84.2509	392.578	84.0344	392.578	83.7547	392.578	83.4021	392.578	83.1965	392.578	82.6365	392.578	82.5747	392.578	81.8217	392.578	81.9539	392.578	81.1441	392.578	81.4787	392.578	80.8397	392.578	81.3026	392.578	80.9858	392.578	81.4464	392.578	81.3973	392.578	81.7619	392.578	81.8235	392.578	82.0686	392.578	82.1318	392.578	82.272	392.578	82.3057	392.578	82.3661	392.578	82.3755
405.762	85.5942	405.762	85.4343	405.762	85.6424	405.762	85.163	405.762	85.5833	405.762	84.8148	405.762	85.407	405.762	84.4571	405.762	85.0982	405.762	84.1361	405.762	84.6562	405.762	83.8188	405.762	84.1004	405.762	83.4109	405.762	83.456	405.762	82.8464	405.762	82.7363	405.762	82.1673	405.762	81.9553	405.762	81.5352	405.762	81.1859	405.762	81.1552	405.762	80.616	405.762	81.1231	405.762	80.4629	405.762	81.3271	405.762	80.7436	405.762	81.5546	405.762	81.2437	405.762	81.6862	405.762	81.723	405.762	81.7576	405.762	82.0295	405.762	81.8624	405.762	82.1101	405.762	82.0135
420.41	85.7642	420.41	85.7483	420.41	85.6829	420.41	85.6116	420.41	85.5219	420.41	85.327	420.41	85.2992	420.41	84.8861	420.41	85.0331	420.41	84.3224	420.41	84.7289	420.41	83.7034	420.41	84.3669	420.41	83.0683	420.41	83.9076	420.41	82.374	420.41	83.3113	420.41	81.5412	420.41	82.5555	420.41	80.5715	420.41	81.6497	420.41	79.6862	420.41	80.68	420.41	79.3826	420.41	79.8877	420.41	79.9197	420.41	79.6148	420.41	80.8249	420.41	79.9477	420.41	81.5552	420.41	80.5898	420.41	81.9515	420.41	81.2195	420.41	82.0678	420.41	81.6902	420.41	81.9729
435.059	85.4906	435.059	85.457	435.059	85.4289	435.059	85.3433	435.059	85.2843	435.059	85.1701	435.059	85.0887	435.059	84.9196	435.059	84.8696	435.059	84.5197	435.059	84.6227	435.059	83.8862	435.059	84.2972	435.059	82.9949	435.059	83.8133	435.059	81.9273	435.059	83.1034	435.059	80.8508	435.059	82.1612	435.059	79.9221	435.059	81.0976	435.059	79.2143	435.059	80.184	435.059	78.8208	435.059	79.7441	435.059	78.956	435.059	79.8716	435.059	79.6768	435.059	80.3964	435.059	80.6781	435.059	81.1033	435.059	81.5935	435.059	81.796	435.059	82.2111	435.059	82.2883	435.059	82.4459
451.172	85.9826	451.172	85.9562	451.172	86.023	451.172	85.9433	451.172	86.0288	451.172	85.8699	451.172	85.9455	451.172	85.6313	451.172	85.7342	451.172	85.1729	451.172	85.3791	451.172	84.5264	451.172	84.8939	451.172	83.7611	451.172	84.3172	451.172	82.8901	451.172	83.6784	451.172	81.8431	451.172	82.9502	451.172	80.5775	451.172	82.0499	451.172	79.2718	451.172	80.9414	451.172	78.3946	451.172	79.8147	451.172	78.3439	451.172	79.1454	451.172	79.0318	451.172	79.2575	451.172	80.0703	451.172	79.9118	451.172	81.0517	451.172	80.7107	451.172	81.6632	451.172	81.3938	451.172	81.7636
465.82	85.9216	465.82	85.8245	465.82	85.8935	465.82	85.6317	465.82	85.7637	465.82	85.4011	465.82	85.5815	465.82	85.1541	465.82	85.3718	465.82	84.8399	465.82	85.1119	465.82	84.3734	465.82	84.7551	465.82	83.6911	465.82	84.2658	465.82	82.7722	465.82	83.6188	465.82	81.6555	465.82	82.7782	465.82	80.4833	465.82	81.7235	465.82	79.5293	465.82	80.5686	465.82	79.121	465.82	79.6851	465.82	79.4226	465.82	79.4877	465.82	80.2449	465.82	79.9265	465.82	81.1674	465.82	80.6182	465.82	81.8511	465.82	81.2872	465.82	82.1662	465.82	81.8139	465.82	82.1303
483.398	85.7321	483.398	85.7313	483.398	85.6531	483.398	85.6252	483.398	85.524	483.398	85.4228	483.398	85.3569	483.398	85.1638	483.398	85.1572	483.398	84.8789	483.398	84.93	483.398	84.56	483.398	84.6525	483.398	84.1581	483.398	84.2533	483.398	83.5807	483.398	83.6495	483.398	82.6948	483.398	82.7949	483.398	81.3809	483.398	81.6633	483.398	79.6885	483.398	80.2279	483.398	78.1558	483.398	78.675	483.398	77.8073	483.398	77.889	483.398	78.728	483.398	78.6509	483.398	79.9201	483.398	80.0448	483.398	80.7975	483.398	81.0789	483.398	81.3098	483.398	81.5388	483.398	81.5609
499.512	85.9	499.512	85.8314	499.512	85.9245	499.512	85.7027	499.512	85.9131	499.512	85.5017	499.512	85.8456	499.512	85.2187	499.512	85.6693	499.512	84.8482	499.512	85.333	499.512	84.3999	499.512	84.8276	499.512	83.8984	499.512	84.182	499.512	83.3448	499.512	83.4154	499.512	82.6853	499.512	82.5201	499.512	81.8621	499.512	81.5123	499.512	80.9363	499.512	80.4894	499.512	80.1639	499.512	79.6091	499.512	79.8757	499.512	79.0577	499.512	80.2064	499.512	79.1046	499.512	80.9865	499.512	79.9044	499.512	81.8705	499.512	81.0946	499.512	82.4955	499.512	82.1064	499.512	82.6043
517.09	85.7097	517.09	85.6513	517.09	85.6304	517.09	85.4264	517.09	85.4718	517.09	85.0562	517.09	85.3178	517.09	84.6391	517.09	85.2259	517.09	84.2814	517.09	85.1625	517.09	83.955	517.09	85.0262	517.09	83.4682	517.09	84.7201	517.09	82.6101	517.09	84.1746	517.09	81.3456	517.09	83.3423	517.09	79.9651	517.09	82.2377	517.09	78.9951	517.09	81.0219	517.09	78.7031	517.09	80.0254	517.09	78.9968	517.09	79.5593	517.09	79.8324	517.09	79.7081	517.09	81.0772	517.09	80.414	517.09	82.2991	517.09	81.4776	517.09	83.0485	517.09	82.5072	517.09	83.1086
536.133	85.8902	536.133	85.7514	536.133	85.9486	536.133	85.567	536.133	85.8742	536.133	85.3619	536.133	85.6353	536.133	85.1714	536.133	85.249	536.133	85.0078	536.133	84.7513	536.133	84.8036	536.133	84.1526	536.133	84.4163	536.133	83.4466	536.133	83.6717	536.133	82.6215	536.133	82.3761	536.133	81.6292	536.133	80.3359	536.133	80.3878	536.133	77.625	536.133	78.9935	536.133	75.7527	536.133	78.2127	536.133	77.0129	536.133	78.9964	536.133	79.5017	536.133	80.6021	536.133	81.4374	536.133	81.9057	536.133	82.5619	536.133	82.6375	536.133	83.0282	536.133	82.9663	536.133	83.095
555.176	85.994	555.176	85.8877	555.176	86.0832	555.176	85.7592	555.176	86.0996	555.176	85.6164	555.176	85.961	555.176	85.5032	555.176	85.6734	555.176	85.4029	555.176	85.3561	555.176	85.1875	555.176	85.1028	555.176	84.7126	555.176	84.8442	555.176	83.8838	555.176	84.3974	555.176	82.6071	555.176	83.5847	555.176	80.7751	555.176	82.2394	555.176	78.39	555.176	80.1672	555.176	76.1248	555.176	77.4377	555.176	76.0445	555.176	75.9491	555.176	77.94	555.176	77.6583	555.176	79.8873	555.176	79.8024	555.176	81.3219	555.176	81.1522	555.176	82.0925	555.176	81.8899	555.176	82.224
574.219	86.0466	574.219	85.7307	574.219	86.2156	574.219	85.4884	574.219	86.062	574.219	85.3489	574.219	85.6272	574.219	85.1923	574.219	85.1456	574.219	85.0143	574.219	84.8567	574.219	84.8908	574.219	84.8047	574.219	84.6744	574.219	84.8171	574.219	84.0945	574.219	84.6263	574.219	83.0748	574.219	83.9952	574.219	81.6763	574.219	82.7765	574.219	79.8056	574.219	80.9129	574.219	77.5206	574.219	78.5527	574.219	76.901	574.219	76.6648	574.219	78.8715	574.219	77.0422	574.219	80.7155	574.219	79.1457	574.219	81.9333	574.219	81.2703	574.219	82.7941	574.219	82.6792	574.219	83.1519
594.727	86.7004	594.727	86.6303	594.727	86.4878	594.727	86.3153	594.727	86.0919	594.727	85.8888	594.727	85.6798	594.727	85.4453	594.727	85.3541	594.727	84.9754	594.727	85.0648	594.727	84.4574	594.727	84.6753	594.727	83.8953	594.727	84.1461	594.727	83.2269	594.727	83.5885	594.727	82.333	594.727	82.9936	594.727	81.1456	594.727	82.0097	594.727	79.6338	594.727	80.1504	594.727	77.8791	594.727	77.363	594.727	77.0438	594.727	75.7941	594.727	78.627	594.727	77.9118	594.727	80.8992	594.727	80.64	594.727	82.5613	594.727	82.5121	594.727	83.5201	594.727	83.525	594.727	83.836
615.234	86.99	615.234	86.9507	615.234	86.8585	615.234	86.6937	615.234	86.7177	615.234	86.3108	615.234	86.5967	615.234	85.8207	615.234	86.3512	615.234	85.1914	615.234	85.9078	615.234	84.5813	615.234	85.3443	615.234	84.1451	615.234	84.6958	615.234	83.6753	615.234	83.874	615.234	82.8251	615.234	82.7711	615.234	81.3687	615.234	81.2383	615.234	78.9345	615.234	78.8676	615.234	74.9809	615.234	75.0353	615.234	72.7319	615.234	71.5541	615.234	75.6784	615.234	74.4616	615.234	78.4763	615.234	77.802	615.234	80.5915	615.234	80.0263	615.234	81.9418	615.234	81.5473	615.234	82.2679
637.207	86.6364	637.207	86.6	637.207	86.5311	637.207	86.2744	637.207	86.3342	637.207	85.6915	637.207	86.0257	637.207	85.208	637.207	85.6443	637.207	85.0274	637.207	85.294	637.207	84.9354	637.207	85.111	637.207	84.8247	637.207	85.0856	637.207	84.6963	637.207	84.9227	637.207	84.1157	637.207	84.2716	637.207	82.3733	637.207	82.9547	637.207	78.982	637.207	80.8294	637.207	74.056	637.207	77.4409	637.207	70.3372	637.207	72.0899	637.207	73.7707	637.207	71.8665	637.207	78.3071	637.207	77.029	637.207	81.0841	637.207	80.0613	637.207	82.2617	637.207	81.6367	637.207	82.3343
659.18	86.3141	659.18	86.2223	659.18	86.2983	659.18	85.9369	659.18	86.158	659.18	85.3964	659.18	85.8174	659.18	84.7325	659.18	85.2927	659.18	84.2838	659.18	84.7524	659.18	84.2277	659.18	84.4331	659.18	84.266	659.18	84.4282	659.18	83.9972	659.18	84.4764	659.18	83.2076	659.18	84.1422	659.18	81.7528	659.18	83.139	659.18	79.3634	659.18	81.267	659.18	75.3781	659.18	78.049	659.18	69.9897	659.18	72.1232	659.18	74.2812	659.18	69.4727	659.18	78.9081	659.18	76.2928	659.18	81.1766	659.18	79.819	659.18	82.0853	659.18	81.5066	659.18	82.1616
682.617	86.7735	682.617	86.3327	682.617	86.9001	682.617	85.8739	682.617	86.5633	682.617	85.5466	682.617	85.8623	682.617	85.2452	682.617	85.0814	682.617	84.9091	682.617	84.5159	682.617	84.6822	682.617	84.2961	682.617	84.6983	682.617	84.3267	682.617	84.7124	682.617	84.3627	682.617	84.1549	682.617	84.1366	682.617	82.5786	682.617	83.3774	682.617	79.8443	682.617	81.7489	682.617	75.823	682.617	78.7215	682.617	70.3562	682.617	72.9131	682.617	72.9551	682.617	66.3493	682.617	78.1849	682.617	75.1039	682.617	80.896	682.617	79.4178	682.617	82.0776	682.617	81.4799	682.617	82.2528
707.52	87.3354	707.52	87.1268	707.52	87.1869	707.52	86.5706	707.52	86.6531	707.52	85.6398	707.52	85.8309	707.52	84.5601	707.52	84.9285	707.52	83.9889	707.52	84.1618	707.52	84.1168	707.52	83.7317	707.52	84.2739	707.52	83.7565	707.52	84.1939	707.52	84.107	707.52	84.0003	707.52	84.4036	707.52	83.4284	707.52	84.1977	707.52	81.7596	707.52	83.1065	707.52	77.9271	707.52	80.7299	707.52	69.3004	707.52	76.2228	707.52	70.9625	707.52	66.1641	707.52	77.4946	707.52	71.6643	707.52	80.4443	707.52	78.2049	707.52	81.755	707.52	80.9789	707.52	81.9254
732.422	86.7657	732.422	86.6077	732.422	86.7548	732.422	86.2717	732.422	86.5404	732.422	85.6502	732.422	86.074	732.422	84.7161	732.422	85.2912	732.422	83.8614	732.422	84.243	732.422	83.6032	732.422	83.3502	732.422	83.7538	732.422	83.2219	732.422	83.8921	732.422	83.7143	732.422	83.8645	732.422	84.1022	732.422	83.3859	732.422	83.9495	732.422	81.8986	732.422	83.0389	732.422	78.5984	732.422	80.9417	732.422	71.2888	732.422	76.5962	732.422	64.9642	732.422	65.7177	732.422	75.1381	732.422	69.1675	732.422	78.9182	732.422	76.0218	732.422	80.5302	732.422	79.0525	732.422	80.5082
757.324	87.7745	757.324	87.3486	757.324	87.8217	757.324	86.6697	757.324	87.4834	757.324	85.8911	757.324	86.7975	757.324	84.8687	757.324	85.8483	757.324	83.5079	757.324	84.7692	757.324	82.7686	757.324	83.7439	757.324	83.5	757.324	83.3298	757.324	84.5279	757.324	83.9516	757.324	84.8955	757.324	84.7531	757.324	84.3058	757.324	84.8454	757.324	82.5115	757.324	83.9218	757.324	78.8161	757.324	81.7645	757.324	70.1782	757.324	77.648	757.324	66.6953	757.324	68.1499	757.324	76.6764	757.324	71.2599	757.324	80.595	757.324	78.3967	757.324	82.4622	757.324	81.4902	757.324	82.731
785.156	88.1141	785.156	88.0178	785.156	87.9961	785.156	87.4279	785.156	87.7451	785.156	86.3223	785.156	87.068	785.156	84.8394	785.156	85.7855	785.156	82.8926	785.156	84.1735	785.156	80.8791	785.156	82.7589	785.156	80.9724	785.156	82.1349	785.156	82.8292	785.156	82.7855	785.156	84.1915	785.156	83.9691	785.156	84.5051	785.156	84.5046	785.156	83.5302	785.156	83.9819	785.156	80.5675	785.156	82.3732	785.156	73.7187	785.156	79.0631	785.156	68.369	785.156	69.9954	785.156	76.7716	785.156	71.6017	785.156	80.279	785.156	79.3447	785.156	81.8173	785.156	81.7184	785.156	82.2514
811.523	88.7567	811.523	88.6493	811.523	88.7307	811.523	88.2844	811.523	88.443	811.523	87.3818	811.523	87.937	811.523	85.9343	811.523	87.2445	811.523	84.157	811.523	85.9491	811.523	82.1652	811.523	83.7808	811.523	81.007	811.523	81.7796	811.523	82.5304	811.523	81.6613	811.523	84.3392	811.523	83.1192	811.523	84.9295	811.523	84.6207	811.523	84.3825	811.523	85.0571	811.523	82.5226	811.523	83.9991	811.523	78.6351	811.523	81.2206	811.523	71.829	811.523	76.1273	811.523	76.198	811.523	71.5228	811.523	80.7607	811.523	77.2779	811.523	82.2639	811.523	80.8805	811.523	82.2265
840.82	88.5829	840.82	88.3697	840.82	88.681	840.82	88.1403	840.82	88.5177	840.82	87.675	840.82	88.1307	840.82	86.7049	840.82	87.4734	840.82	84.9882	840.82	86.2847	840.82	82.1958	840.82	84.3578	840.82	78.7508	840.82	81.7726	840.82	77.8001	840.82	79.9142	840.82	80.7826	840.82	80.9798	840.82	83.8618	840.82	82.9977	840.82	85.0739	840.82	84.3473	840.82	84.1217	840.82	84.3716	840.82	81.0443	840.82	82.4799	840.82	75.4312	840.82	78.011	840.82	70.5066	840.82	70.1119	840.82	75.5871	840.82	72.0594	840.82	78.813	840.82	77.1268	840.82	79.2856
870.117	88.4821	870.117	88.3953	870.117	88.2338	870.117	87.9632	870.117	88.1333	870.117	87.5888	870.117	88.037	870.117	87.1356	870.117	87.4067	870.117	86.1246	870.117	86.3492	870.117	84.3322	870.117	85.1699	870.117	81.5625	870.117	83.3942	870.117	79.0864	870.117	80.7819	870.117	80.8132	870.117	80.0663	870.117	82.8521	870.117	82.1488	870.117	83.4949	870.117	83.7918	870.117	83.2018	870.117	84.1178	870.117	81.7059	870.117	82.9751	870.117	77.876	870.117	80.1118	870.117	68.5583	870.117	74.4299	870.117	69.838	870.117	60.8303	870.117	74.4073	870.117	72.8704	870.117	75.3938
900.879	87.7514	900.879	87.6234	900.879	87.888	900.879	87.6771	900.879	87.888	900.879	87.8761	900.879	87.7549	900.879	87.6733	900.879	87.6373	900.879	86.6327	900.879	87.3235	900.879	84.9694	900.879	86.2235	900.879	82.9319	900.879	84.2354	900.879	80.0796	900.879	81.9705	900.879	78.1568	900.879	79.9713	900.879	80.659	900.879	80.2217	900.879	83.0069	900.879	82.1567	900.879	83.3243	900.879	82.7956	900.879	81.6453	900.879	81.7561	900.879	78.1342	900.879	79.0264	900.879	70.9308	900.879	73.3696	900.879	64.3102	900.879	44.8806	900.879	72.7235	900.879	71.1619	900.879	74.0884
933.105	87.7735	933.105	87.8608	933.105	87.8127	933.105	87.6473	933.105	87.718	933.105	86.8365	933.105	87.3679	933.105	86.2925	933.105	86.7902	933.105	86.178	933.105	86.1193	933.105	85.1359	933.105	85.56	933.105	82.7038	933.105	84.4621	933.105	80.4386	933.105	82.148	933.105	79.8623	933.105	80.4123	933.105	80.8458	933.105	80.9071	933.105	82.4571	933.105	82.1808	933.105	83.246	933.105	83.3316	933.105	81.7975	933.105	82.7524	933.105	76.9358	933.105	79.1301	933.105	69.1355	933.105	72.7312	933.105	59.2362	933.105	63.6674	933.105	68.8078	933.105	68.3643	933.105	73.2224
965.332	87.7398	965.332	87.6109	965.332	87.4522	965.332	87.4303	965.332	87.0222	965.332	87.3274	965.332	86.8374	965.332	86.7443	965.332	86.8162	965.332	85.6468	965.332	86.4288	965.332	84.6484	965.332	85.2101	965.332	83.6019	965.332	83.6103	965.332	81.4685	965.332	82.0946	965.332	79.0027	965.332	80.0215	965.332	79.2715	965.332	79.1503	965.332	80.8578	965.332	80.7097	965.332	81.2783	965.332	80.8401	965.332	80.1839	965.332	80.0965	965.332	77.9217	965.332	79.3892	965.332	71.7703	965.332	75.4715	965.332	65.3203	965.332	67.0749	965.332	70.0258	965.332	71.111	965.332	70.5426
1,000.49	87.7124	1,000.49	87.4729	1,000.49	87.5941	1,000.49	86.902	1,000.49	87.2234	1,000.49	86.1865	1,000.49	86.7131	1,000.49	85.6285	1,000.49	85.934	1,000.49	85.1127	1,000.49	84.9497	1,000.49	84.1676	1,000.49	84.2743	1,000.49	82.7246	1,000.49	83.5607	1,000.49	81.2427	1,000.49	81.8546	1,000.49	80.5882	1,000.49	79.8285	1,000.49	81.3162	1,000.49	79.0645	1,000.49	82.0834	1,000.49	79.5591	1,000.49	82.0244	1,000.49	81.0952	1,000.49	81.3298	1,000.49	81.1804	1,000.49	78.423	1,000.49	77.7572	1,000.49	71.3458	1,000.49	71.8557	1,000.49	68.6481	1,000.49	67.3327	1,000.49	72.1876	1,000.49	71.0549	1,000.49	73.4533
1,035.64	87.3128	1,035.64	87.3439	1,035.64	86.9257	1,035.64	86.9271	1,035.64	86.6322	1,035.64	86.4292	1,035.64	86.2031	1,035.64	85.7528	1,035.64	85.2603	1,035.64	84.671	1,035.64	84.2634	1,035.64	83.4731	1,035.64	83.4204	1,035.64	82.29	1,035.64	82.1252	1,035.64	80.5588	1,035.64	80.3055	1,035.64	78.3096	1,035.64	78.6465	1,035.64	77.585	1,035.64	78.0295	1,035.64	78.8732	1,035.64	78.5647	1,035.64	79.8932	1,035.64	78.1705	1,035.64	78.7981	1,035.64	77.2238	1,035.64	76.4469	1,035.64	76.9631	1,035.64	73.7529	1,035.64	73.5912	1,035.64	72.6033	1,035.64	70.0269	1,035.64	75.3194	1,035.64	72.3741	1,035.64	74.7393
1,072.27	87.1559	1,072.27	87.0315	1,072.27	87.2518	1,072.27	86.9575	1,072.27	86.9138	1,072.27	86.2774	1,072.27	86.178	1,072.27	84.9339	1,072.27	85.4461	1,072.27	84.0255	1,072.27	84.4912	1,072.27	83.117	1,072.27	83.3611	1,072.27	81.0145	1,072.27	82.2495	1,072.27	78.8702	1,072.27	80.0872	1,072.27	77.4075	1,072.27	77.824	1,072.27	78.1633	1,072.27	77.5067	1,072.27	79.8913	1,072.27	77.394	1,072.27	78.5219	1,072.27	78.7709	1,072.27	76.0962	1,072.27	79.3687	1,072.27	74.2306	1,072.27	75.7542	1,072.27	69.7282	1,072.27	69.5093	1,072.27	71.6415	1,072.27	68.4861	1,072.27	74.1968	1,072.27	73.4184	1,072.27	75.7017
1,108.89	87.6707	1,108.89	87.1363	1,108.89	87.7269	1,108.89	86.6908	1,108.89	86.8847	1,108.89	85.7595	1,108.89	85.8836	1,108.89	84.5874	1,108.89	84.925	1,108.89	83.8793	1,108.89	83.9194	1,108.89	82.8686	1,108.89	83.0703	1,108.89	81.4175	1,108.89	81.8566	1,108.89	79.8814	1,108.89	80.184	1,108.89	77.4678	1,108.89	78.5538	1,108.89	76.0485	1,108.89	76.7606	1,108.89	77.3886	1,108.89	76.4185	1,108.89	78.3834	1,108.89	76.8431	1,108.89	77.3799	1,108.89	76.0702	1,108.89	73.8245	1,108.89	74.7107	1,108.89	67.0058	1,108.89	69.7714	1,108.89	71.9762	1,108.89	68.7303	1,108.89	74.9024	1,108.89	73.6617	1,108.89	74.6404
1,148.44	86.7689	1,148.44	86.7517	1,148.44	86.8101	1,148.44	86.2659	1,148.44	86.4303	1,148.44	85.2225	1,148.44	85.4339	1,148.44	84.2771	1,148.44	84.4763	1,148.44	83.3464	1,148.44	83.5629	1,148.44	82.423	1,148.44	82.737	1,148.44	81.0261	1,148.44	82.1746	1,148.44	78.5491	1,148.44	80.3789	1,148.44	76.1111	1,148.44	77.4813	1,148.44	76.1805	1,148.44	76.9233	1,148.44	78.0063	1,148.44	76.7303	1,148.44	78.2649	1,148.44	77.075	1,148.44	76.0638	1,148.44	77.9484	1,148.44	72.1795	1,148.44	75.7865	1,148.44	61.0205	1,148.44	68.1105	1,148.44	70.6306	1,148.44	58.4314	1,148.44	71.9316	1,148.44	72.0944	1,148.44	74.0126
1,189.45	86.8071	1,189.45	86.5256	1,189.45	86.9153	1,189.45	85.9625	1,189.45	86.5977	1,189.45	85.2779	1,189.45	85.9606	1,189.45	84.4163	1,189.45	85.4612	1,189.45	83.3724	1,189.45	84.3627	1,189.45	81.8345	1,189.45	83.1572	1,189.45	80.1179	1,189.45	82.1578	1,189.45	79.0887	1,189.45	80.664	1,189.45	76.7942	1,189.45	79.3709	1,189.45	74.8831	1,189.45	76.4968	1,189.45	75.9496	1,189.45	75.1237	1,189.45	77.6553	1,189.45	77.9968	1,189.45	77.3822	1,189.45	77.5836	1,189.45	72.5011	1,189.45	75.0691	1,189.45	61.7503	1,189.45	70.7395	1,189.45	69.8196	1,189.45	61.6105	1,189.45	76.7812	1,189.45	71.0826	1,189.45	76.2616
1,230.47	87.9984	1,230.47	87.5009	1,230.47	88.0254	1,230.47	86.8092	1,230.47	87.4878	1,230.47	85.8603	1,230.47	86.5848	1,230.47	84.3491	1,230.47	85.2714	1,230.47	82.9674	1,230.47	84.1089	1,230.47	82.3857	1,230.47	83.3696	1,230.47	81.1829	1,230.47	82.1497	1,230.47	78.4645	1,230.47	80.6589	1,230.47	76.0337	1,230.47	78.5478	1,230.47	75.6716	1,230.47	76.5188	1,230.47	76.4883	1,230.47	76.1509	1,230.47	78.1346	1,230.47	77.4016	1,230.47	77.9094	1,230.47	78.5129	1,230.47	75.0437	1,230.47	76.2118	1,230.47	66.7214	1,230.47	70.5008	1,230.47	67.2516	1,230.47	61.0311	1,230.47	72.3212	1,230.47	71.3815	1,230.47	73.5937
1,274.41	88.4318	1,274.41	88.0963	1,274.41	88.3486	1,274.41	87.2598	1,274.41	87.8264	1,274.41	86.1254	1,274.41	86.8848	1,274.41	84.8513	1,274.41	85.7537	1,274.41	82.931	1,274.41	84.3617	1,274.41	81.0829	1,274.41	82.9969	1,274.41	80.6149	1,274.41	81.7984	1,274.41	79.8503	1,274.41	80.0792	1,274.41	77.8205	1,274.41	78.5118	1,274.41	73.8217	1,274.41	77.0623	1,274.41	73.425	1,274.41	76.3499	1,274.41	76.5614	1,274.41	76.6875	1,274.41	76.233	1,274.41	77.0769	1,274.41	72.9648	1,274.41	76.8564	1,274.41	64.5299	1,274.41	71.8173	1,274.41	68.3599	1,274.41	64.5611	1,274.41	72.748	1,274.41	72.1871	1,274.41	74.7014
1,319.82	88.5461	1,319.82	88.2008	1,319.82	88.3991	1,319.82	87.5319	1,319.82	87.5906	1,319.82	86.5218	1,319.82	86.6797	1,319.82	85.1132	1,319.82	85.6028	1,319.82	83.783	1,319.82	83.5598	1,319.82	82.302	1,319.82	82.5065	1,319.82	81.2199	1,319.82	81.1688	1,319.82	80.2556	1,319.82	79.8928	1,319.82	77.9032	1,319.82	78.7982	1,319.82	72.6904	1,319.82	76.5325	1,319.82	73.2124	1,319.82	74.7776	1,319.82	75.1271	1,319.82	75.7218	1,319.82	75.4314	1,319.82	77.6788	1,319.82	73.2412	1,319.82	74.6693	1,319.82	60.6369	1,319.82	68.4703	1,319.82	66.5599	1,319.82	64.9002	1,319.82	73.961	1,319.82	73.0043	1,319.82	74.9448
1,366.7	88.1476	1,366.7	87.8695	1,366.7	87.6864	1,366.7	87.3328	1,366.7	87.3587	1,366.7	86.3024	1,366.7	86.7345	1,366.7	84.7939	1,366.7	85.1297	1,366.7	83.0985	1,366.7	83.3472	1,366.7	81.322	1,366.7	81.8801	1,366.7	79.9631	1,366.7	80.614	1,366.7	77.8808	1,366.7	79.1268	1,366.7	76.106	1,366.7	78.5172	1,366.7	74.7877	1,366.7	76.6091	1,366.7	74.2037	1,366.7	75.5967	1,366.7	75.6222	1,366.7	76.0175	1,366.7	76.6016	1,366.7	75.5048	1,366.7	71.9129	1,366.7	74.1784	1,366.7	63.6945	1,366.7	64.4542	1,366.7	67.5828	1,366.7	63.5654	1,366.7	74.7843	1,366.7	71.8876	1,366.7	74.9621
1,413.57	87.682	1,413.57	87.7217	1,413.57	87.8004	1,413.57	86.9429	1,413.57	87.2368	1,413.57	85.8764	1,413.57	85.9352	1,413.57	84.5095	1,413.57	85.1697	1,413.57	82.5939	1,413.57	83.4773	1,413.57	81.0738	1,413.57	80.7759	1,413.57	78.9176	1,413.57	78.9885	1,413.57	75.6919	1,413.57	78.0985	1,413.57	74.495	1,413.57	76.0526	1,413.57	73.8076	1,413.57	73.977	1,413.57	71.267	1,413.57	72.5192	1,413.57	76.4711	1,413.57	74.8981	1,413.57	76.3049	1,413.57	75.9388	1,413.57	73.5963	1,413.57	75.4164	1,413.57	65.7055	1,413.57	70.8045	1,413.57	65.4196	1,413.57	61.2127	1,413.57	71.2817	1,413.57	71.2572	1,413.57	73.717
1,463.38	87.2175	1,463.38	86.7013	1,463.38	87.117	1,463.38	86.0517	1,463.38	86.6175	1,463.38	84.9469	1,463.38	85.7173	1,463.38	83.3665	1,463.38	84.5791	1,463.38	82.2969	1,463.38	82.7358	1,463.38	80.0079	1,463.38	80.9617	1,463.38	77.6329	1,463.38	79.0482	1,463.38	77.4265	1,463.38	76.3004	1,463.38	76.1793	1,463.38	75.9655	1,463.38	73.2649	1,463.38	73.9803	1,463.38	72.7475	1,463.38	71.2213	1,463.38	74.6422	1,463.38	73.0239	1,463.38	75.5477	1,463.38	76.277	1,463.38	73.7889	1,463.38	75.8531	1,463.38	65.5372	1,463.38	70.8567	1,463.38	63.6723	1,463.38	57.9464	1,463.38	70.1511	1,463.38	67.133	1,463.38	71.5451
1,516.11	86.1436	1,516.11	85.6802	1,516.11	85.9668	1,516.11	84.9304	1,516.11	85.5713	1,516.11	83.7833	1,516.11	84.6587	1,516.11	82.7484	1,516.11	83.6477	1,516.11	81.0028	1,516.11	82.5267	1,516.11	79.0496	1,516.11	80.6569	1,516.11	77.5339	1,516.11	78.6184	1,516.11	76.7387	1,516.11	76.8113	1,516.11	75.8865	1,516.11	74.1921	1,516.11	72.8224	1,516.11	72.1558	1,516.11	69.8989	1,516.11	72.7978	1,516.11	70.7044	1,516.11	72.4249	1,516.11	73.5631	1,516.11	74.9022	1,516.11	72.5251	1,516.11	74.7846	1,516.11	65.2625	1,516.11	72.8366	1,516.11	62.4853	1,516.11	61.8821	1,516.11	69.9852	1,516.11	63.9233	1,516.11	69.9407
1,568.85	85.3554	1,568.85	84.9601	1,568.85	85.6088	1,568.85	84.3074	1,568.85	84.8705	1,568.85	83.001	1,568.85	84.3822	1,568.85	81.9324	1,568.85	83.3146	1,568.85	79.8009	1,568.85	81.7622	1,568.85	77.0837	1,568.85	79.7107	1,568.85	76.3965	1,568.85	76.9064	1,568.85	75.3602	1,568.85	76.8637	1,568.85	74.5671	1,568.85	75.4254	1,568.85	71.9639	1,568.85	74.1372	1,568.85	70.2295	1,568.85	71.7249	1,568.85	72.0782	1,568.85	71.9816	1,568.85	73.381	1,568.85	73.4106	1,568.85	72.2789	1,568.85	73.0642	1,568.85	69.8293	1,568.85	71.0721	1,568.85	46.0423	1,568.85	63.413	1,568.85	67.849	1,568.85	54.9017	1,568.85	68.1877
1,624.51	86.0488	1,624.51	85.133	1,624.51	85.9401	1,624.51	84.3079	1,624.51	84.8927	1,624.51	82.6834	1,624.51	83.8456	1,624.51	81.1401	1,624.51	82.6328	1,624.51	79.6597	1,624.51	80.4986	1,624.51	77.3083	1,624.51	80.1985	1,624.51	76.0201	1,624.51	77.0281	1,624.51	76.1957	1,624.51	75.3664	1,624.51	74.2372	1,624.51	74.398	1,624.51	70.7625	1,624.51	73.517	1,624.51	67.3384	1,624.51	71.9459	1,624.51	71.0838	1,624.51	70.5196	1,624.51	73.6862	1,624.51	71.4996	1,624.51	74.3217	1,624.51	74.2767	1,624.51	69.7174	1,624.51	70.8947	1,624.51	61.2081	1,624.51	62.1811	1,624.51	65.9785	1,624.51	60.6734	1,624.51	69.2463
1,681.64	85.5116	1,681.64	84.8716	1,681.64	85.2244	1,681.64	84.3685	1,681.64	84.9078	1,681.64	83.1097	1,681.64	84.2593	1,681.64	81.8347	1,681.64	82.7976	1,681.64	79.7853	1,681.64	82.3014	1,681.64	78.5912	1,681.64	78.8242	1,681.64	78.1454	1,681.64	77.5526	1,681.64	74.4333	1,681.64	75.7432	1,681.64	74.5565	1,681.64	73.1561	1,681.64	73.1183	1,681.64	73.4061	1,681.64	68.5978	1,681.64	71.0275	1,681.64	71.3592	1,681.64	71.5874	1,681.64	72.5748	1,681.64	72.7327	1,681.64	73.8291	1,681.64	74.1888	1,681.64	72.7006	1,681.64	73.049	1,681.64	52.1799	1,681.64	63.3879	1,681.64	66.7985	1,681.64	65.1769	1,681.64	68.2172
1,741.7	85.9561	1,741.7	85.9605	1,741.7	86.047	1,741.7	85.0713	1,741.7	85.3069	1,741.7	84.2707	1,741.7	84.2121	1,741.7	82.1554	1,741.7	83.0974	1,741.7	81.7034	1,741.7	80.6615	1,741.7	77.679	1,741.7	80.4558	1,741.7	78.7081	1,741.7	78.429	1,741.7	77.9345	1,741.7	76.3473	1,741.7	76.4693	1,741.7	75.6539	1,741.7	72.8918	1,741.7	74.7692	1,741.7	69.186	1,741.7	72.2124	1,741.7	70.3629	1,741.7	69.6228	1,741.7	73.1395	1,741.7	70.8936	1,741.7	74.6402	1,741.7	71.9973	1,741.7	71.4148	1,741.7	68.9833	1,741.7	59.6174	1,741.7	62.8541	1,741.7	64.8998	1,741.7	69.403	1,741.7	69.2247
1,803.22	85.8254	1,803.22	85.274	1,803.22	85.0315	1,803.22	84.6496	1,803.22	84.435	1,803.22	83.3874	1,803.22	82.4695	1,803.22	82.2449	1,803.22	81.9159	1,803.22	81.3383	1,803.22	81.3779	1,803.22	80.9628	1,803.22	78.3458	1,803.22	79.2796	1,803.22	76.9285	1,803.22	77.2066	1,803.22	78.1909	1,803.22	76.5191	1,803.22	77.2563	1,803.22	73.8319	1,803.22	75.1604	1,803.22	69.5929	1,803.22	72.2621	1,803.22	69.752	1,803.22	70.0211	1,803.22	73.4912	1,803.22	72.8718	1,803.22	76.4436	1,803.22	72.5818	1,803.22	73.506	1,803.22	70.8027	1,803.22	65.5543	1,803.22	62.9349	1,803.22	68.4447	1,803.22	67.0074	1,803.22	71.8324
1,866.21	85.5295	1,866.21	84.8434	1,866.21	84.5949	1,866.21	84.3142	1,866.21	84.7262	1,866.21	82.9695	1,866.21	83.3856	1,866.21	80.4639	1,866.21	82.2254	1,866.21	79.7382	1,866.21	79.345	1,866.21	78.4796	1,866.21	77.7809	1,866.21	77.78	1,866.21	75.3198	1,866.21	75.2647	1,866.21	75.6156	1,866.21	76.5819	1,866.21	75.1703	1,866.21	73.4378	1,866.21	73.6281	1,866.21	69.2581	1,866.21	71.5588	1,866.21	67.7699	1,866.21	72.3492	1,866.21	73.8018	1,866.21	70.5303	1,866.21	75.4662	1,866.21	73.3184	1,866.21	70.5208	1,866.21	72.4215	1,866.21	67.5029	1,866.21	64.1512	1,866.21	65.6887	1,866.21	44.6502	1,866.21	69.1023
1,932.13	85.2453	1,932.13	84.8762	1,932.13	85.6238	1,932.13	83.5277	1,932.13	83.606	1,932.13	82.1434	1,932.13	82.882	1,932.13	80.1503	1,932.13	81.5844	1,932.13	78.6094	1,932.13	80.3423	1,932.13	75.1491	1,932.13	78.5289	1,932.13	74.5209	1,932.13	78.4587	1,932.13	76.6483	1,932.13	77.6131	1,932.13	76.4105	1,932.13	74.1448	1,932.13	75.6705	1,932.13	71.5164	1,932.13	72.4527	1,932.13	71.2991	1,932.13	63.8285	1,932.13	61.9206	1,932.13	72.284	1,932.13	69.6449	1,932.13	69.4078	1,932.13	69.0137	1,932.13	68.4382	1,932.13	72.7547	1,932.13	59.243	1,932.13	71.7692	1,932.13	70.3814	1,932.13	70.3278	1,932.13	67.2375
1,999.51	85.2668	1,999.51	85.5323	1,999.51	86.8796	1,999.51	85.5289	1,999.51	86.0393	1,999.51	84.1527	1,999.51	83.9724	1,999.51	82.7034	1,999.51	82.8558	1,999.51	80.1268	1,999.51	81.6317	1,999.51	78.5959	1,999.51	80.731	1,999.51	77.3213	1,999.51	78.4792	1,999.51	75.5444	1,999.51	77.0817	1,999.51	75.0784	1,999.51	74.9429	1,999.51	74.7925	1,999.51	75.7194	1,999.51	67.7731	1,999.51	69.9002	1,999.51	68.1931	1,999.51	73.125	1,999.51	72.503	1,999.51	71.9721	1,999.51	72.4767	1,999.51	72.6402	1,999.51	67.6153	1,999.51	75.9198	1,999.51	68.4891	1,999.51	65.6211	1,999.51	70.3438	1,999.51	62.5406	1,999.51	67.0598
2,069.82	86.8254	2,069.82	86.3715	2,069.82	86.8867	2,069.82	86.3859	2,069.82	85.5086	2,069.82	85.2605	2,069.82	84.4625	2,069.82	83.6735	2,069.82	83.911	2,069.82	82.0731	2,069.82	82.5984	2,069.82	79.6604	2,069.82	79.5298	2,069.82	79.1433	2,069.82	79.9571	2,069.82	73.6162	2,069.82	77.5721	2,069.82	73.8414	2,069.82	77.415	2,069.82	72.9858	2,069.82	68.6007	2,069.82	74.4386	2,069.82	74.2047	2,069.82	70.7024	2,069.82	70.1131	2,069.82	73.1592	2,069.82	71.6418	2,069.82	72.4924	2,069.82	73.2674	2,069.82	73.8062	2,069.82	68.9386	2,069.82	60.494	2,069.82	70.7423	2,069.82	71.2225	2,069.82	65.974	2,069.82	70.8161
2,143.07	86.7265	2,143.07	86.1627	2,143.07	86.9138	2,143.07	85.3388	2,143.07	84.9383	2,143.07	85.0642	2,143.07	84.1107	2,143.07	83.3129	2,143.07	82.9148	2,143.07	81.9314	2,143.07	81.3273	2,143.07	80.5485	2,143.07	80.2376	2,143.07	77.6535	2,143.07	78.6569	2,143.07	76.8455	2,143.07	75.7768	2,143.07	73.093	2,143.07	74.3479	2,143.07	75.0598	2,143.07	75.9727	2,143.07	75.4995	2,143.07	74.2976	2,143.07	72.2487	2,143.07	64.509	2,143.07	68.7664	2,143.07	70.6459	2,143.07	75.3644	2,143.07	74.3521	2,143.07	71.4996	2,143.07	72.3553	2,143.07	59.0905	2,143.07	69.9591	2,143.07	63.8957	2,143.07	71.1101	2,143.07	61.4427
2,219.24	85.4148	2,219.24	85.8317	2,219.24	84.945	2,219.24	82.9847	2,219.24	85.0211	2,219.24	85.252	2,219.24	85.1263	2,219.24	81.4679	2,219.24	84.7138	2,219.24	81.0084	2,219.24	82.5513	2,219.24	79.4464	2,219.24	78.7392	2,219.24	79.4301	2,219.24	75.6817	2,219.24	76.8768	2,219.24	73.1018	2,219.24	74.6055	2,219.24	73.3456	2,219.24	71.8249	2,219.24	69.864	2,219.24	71.154	2,219.24	68.3169	2,219.24	66.9385	2,219.24	72.4895	2,219.24	71.2	2,219.24	65.371	2,219.24	72.6181	2,219.24	72.0141	2,219.24	70.6428	2,219.24	72.7284	2,219.24	65.8978	2,219.24	69.4838	2,219.24	72.6944	2,219.24	66.4828	2,219.24	70.5801
2,296.88	84.9203	2,296.88	82.651	2,296.88	84.4999	2,296.88	83.8737	2,296.88	83.6635	2,296.88	82.8453	2,296.88	85.0704	2,296.88	82.2303	2,296.88	82.0995	2,296.88	80.4412	2,296.88	82.3251	2,296.88	80.7053	2,296.88	81.193	2,296.88	75.0472	2,296.88	79.4132	2,296.88	77.0713	2,296.88	76.1694	2,296.88	71.799	2,296.88	71.0496	2,296.88	74.7494	2,296.88	71.9198	2,296.88	75.3699	2,296.88	73.6502	2,296.88	69.8333	2,296.88	78.2151	2,296.88	66.1939	2,296.88	71.5139	2,296.88	72.2678	2,296.88	74.5926	2,296.88	67.4017	2,296.88	76.6465	2,296.88	70.0752	2,296.88	63.1154	2,296.88	69.2967	2,296.88	58.7705	2,296.88	69.0415
2,378.91	86.1905	2,378.91	85.7731	2,378.91	86.3516	2,378.91	84.0899	2,378.91	85.9403	2,378.91	84.4844	2,378.91	84.1907	2,378.91	83.4395	2,378.91	84.7625	2,378.91	82.6436	2,378.91	83.9874	2,378.91	80.9989	2,378.91	83.5528	2,378.91	77.1433	2,378.91	83.5556	2,378.91	69.1709	2,378.91	80.1028	2,378.91	76.0306	2,378.91	75.9651	2,378.91	74.5	2,378.91	75.8196	2,378.91	75.3522	2,378.91	70.9389	2,378.91	73.7387	2,378.91	72.9906	2,378.91	72.9477	2,378.91	73.3404	2,378.91	68.9695	2,378.91	72.7768	2,378.91	67.8947	2,378.91	72.2434	2,378.91	63.466	2,378.91	71.6539	2,378.91	71.6193	2,378.91	68.5003	2,378.91	65.281
2,462.4	86.9712	2,462.4	86.4902	2,462.4	86.6407	2,462.4	85.7455	2,462.4	86.5238	2,462.4	85.4651	2,462.4	86.1857	2,462.4	84.7436	2,462.4	85.4022	2,462.4	82.9401	2,462.4	84.4041	2,462.4	81.1183	2,462.4	83.0988	2,462.4	80.0096	2,462.4	81.3959	2,462.4	76.8918	2,462.4	79.5032	2,462.4	75.8944	2,462.4	76.7229	2,462.4	74.117	2,462.4	75.6427	2,462.4	73.0031	2,462.4	73.155	2,462.4	71.9175	2,462.4	72.0011	2,462.4	69.2811	2,462.4	70.8412	2,462.4	71.2816	2,462.4	71.0858	2,462.4	72.495	2,462.4	73.7645	2,462.4	66.7812	2,462.4	70.1581	2,462.4	64.1621	2,462.4	64.9955	2,462.4	70.689
2,548.83	86.4292	2,548.83	85.8274	2,548.83	86.6001	2,548.83	85.9738	2,548.83	85.8872	2,548.83	85.0822	2,548.83	85.7063	2,548.83	84.7441	2,548.83	84.8888	2,548.83	83.1343	2,548.83	83.795	2,548.83	81.4891	2,548.83	82.4217	2,548.83	78.4332	2,548.83	80.7144	2,548.83	78.6611	2,548.83	78.8863	2,548.83	75.6325	2,548.83	76.1273	2,548.83	75.4172	2,548.83	75.5446	2,548.83	74.1946	2,548.83	72.8563	2,548.83	72.2807	2,548.83	71.173	2,548.83	70.7912	2,548.83	68.1235	2,548.83	70.6787	2,548.83	66.9875	2,548.83	72.4531	2,548.83	72.0788	2,548.83	69.4408	2,548.83	70.2723	2,548.83	64.6932	2,548.83	64.5169	2,548.83	70.685
2,639.65	84.9199	2,639.65	84.8772	2,639.65	85.6377	2,639.65	84.4878	2,639.65	85.0263	2,639.65	84.3129	2,639.65	84.8807	2,639.65	83.7806	2,639.65	84.033	2,639.65	83.1828	2,639.65	83.0584	2,639.65	81.3025	2,639.65	81.0511	2,639.65	79.6473	2,639.65	79.5798	2,639.65	78.7642	2,639.65	77.7766	2,639.65	75.439	2,639.65	75.3135	2,639.65	73.82	2,639.65	74.063	2,639.65	72.382	2,639.65	72.6217	2,639.65	72.2317	2,639.65	72.3737	2,639.65	68.6611	2,639.65	70.539	2,639.65	68.6804	2,639.65	64.1052	2,639.65	72.042	2,639.65	70.4279	2,639.65	66.9362	2,639.65	69.7082	2,639.65	67.7071	2,639.65	58.7702	2,639.65	68.309
2,731.93	84.8358	2,731.93	85.0205	2,731.93	85.1595	2,731.93	84.2202	2,731.93	85.255	2,731.93	84.0513	2,731.93	84.7503	2,731.93	83.0699	2,731.93	84.0302	2,731.93	82.6077	2,731.93	83.2879	2,731.93	80.4763	2,731.93	81.6567	2,731.93	79.2042	2,731.93	79.9049	2,731.93	77.401	2,731.93	77.8146	2,731.93	74.9664	2,731.93	74.2339	2,731.93	73.4663	2,731.93	71.9545	2,731.93	68.5804	2,731.93	72.8241	2,731.93	71.2053	2,731.93	72.6267	2,731.93	70.2373	2,731.93	71.1982	2,731.93	65.3949	2,731.93	69.393	2,731.93	71.9847	2,731.93	69.0575	2,731.93	67.719	2,731.93	71.0734	2,731.93	65.5854	2,731.93	65.5189	2,731.93	66.0697
2,828.61	86.0982	2,828.61	86.1059	2,828.61	85.2271	2,828.61	85.5374	2,828.61	86.2381	2,828.61	85.4344	2,828.61	85.3071	2,828.61	84.3425	2,828.61	84.7377	2,828.61	82.1871	2,828.61	83.597	2,828.61	80.9541	2,828.61	82.7928	2,828.61	79.9487	2,828.61	80.4462	2,828.61	76.5487	2,828.61	78.4778	2,828.61	75.0937	2,828.61	75.2088	2,828.61	72.9508	2,828.61	72.4051	2,828.61	68.5794	2,828.61	73.6467	2,828.61	71.1269	2,828.61	70.9124	2,828.61	71.3865	2,828.61	72.7495	2,828.61	65.035	2,828.61	70.2263	2,828.61	69.571	2,828.61	69.7312	2,828.61	67.094	2,828.61	71.5166	2,828.61	68.0653	2,828.61	65.2527	2,828.61	66.6393
2,928.22	86.4463	2,928.22	86.3273	2,928.22	86.4114	2,928.22	86.4087	2,928.22	86.5317	2,928.22	86.0699	2,928.22	86.1684	2,928.22	84.7944	2,928.22	85.4996	2,928.22	82.6706	2,928.22	84.2212	2,928.22	81.6218	2,928.22	82.9123	2,928.22	79.0239	2,928.22	80.7936	2,928.22	75.7351	2,928.22	78.911	2,928.22	75.0394	2,928.22	77.3517	2,928.22	73.4778	2,928.22	74.4876	2,928.22	71.9366	2,928.22	72.4036	2,928.22	68.0402	2,928.22	66.709	2,928.22	72.9708	2,928.22	71.6765	2,928.22	67.1445	2,928.22	70.0945	2,928.22	67.8981	2,928.22	68.9864	2,928.22	68.6671	2,928.22	70.8537	2,928.22	68.9527	2,928.22	66.1041	2,928.22	69.6683
3,030.76	86.3959	3,030.76	86.5958	3,030.76	86.2421	3,030.76	86.7055	3,030.76	86.4245	3,030.76	86.541	3,030.76	86.3632	3,030.76	85.4705	3,030.76	85.7707	3,030.76	83.4124	3,030.76	84.2745	3,030.76	82.1928	3,030.76	82.6911	3,030.76	78.5601	3,030.76	80.38	3,030.76	76.587	3,030.76	78.0988	3,030.76	75.2487	3,030.76	76.3981	3,030.76	72.7677	3,030.76	74.2751	3,030.76	72.1371	3,030.76	72.506	3,030.76	67.8146	3,030.76	70.2895	3,030.76	71.2267	3,030.76	69.9527	3,030.76	68.5052	3,030.76	70.8608	3,030.76	67.6918	3,030.76	69.0167	3,030.76	67.5566	3,030.76	70.9824	3,030.76	66.2112	3,030.76	66.641	3,030.76	69.4645
3,137.7	85.9371	3,137.7	86.0276	3,137.7	86.4278	3,137.7	86.3175	3,137.7	86.1812	3,137.7	86.2392	3,137.7	86.3128	3,137.7	85.1601	3,137.7	85.612	3,137.7	83.619	3,137.7	84.1314	3,137.7	81.5862	3,137.7	82.2088	3,137.7	79.073	3,137.7	80.4721	3,137.7	77.0536	3,137.7	77.9137	3,137.7	75.4664	3,137.7	75.8719	3,137.7	72.7386	3,137.7	73.6808	3,137.7	73.1669	3,137.7	72.4225	3,137.7	68.0956	3,137.7	71.4975	3,137.7	71.5099	3,137.7	68.6225	3,137.7	70.4476	3,137.7	70.9129	3,137.7	68.8319	3,137.7	67.9885	3,137.7	67.6452	3,137.7	70.2786	3,137.7	66.8621	3,137.7	66.6439	3,137.7	70.051
3,249.02	85.2036	3,249.02	85.4603	3,249.02	85.6996	3,249.02	85.8284	3,249.02	85.8081	3,249.02	85.5496	3,249.02	86.0492	3,249.02	84.708	3,249.02	85.4651	3,249.02	83.2009	3,249.02	84.2053	3,249.02	80.9583	3,249.02	82.2879	3,249.02	78.698	3,249.02	80.7509	3,249.02	76.8317	3,249.02	78.2073	3,249.02	74.8284	3,249.02	76.1707	3,249.02	71.6559	3,249.02	73.9009	3,249.02	71.5053	3,249.02	71.001	3,249.02	67.3924	3,249.02	70.908	3,249.02	71.1398	3,249.02	68.2788	3,249.02	69.414	3,249.02	71.3984	3,249.02	70.0548	3,249.02	68.3702	3,249.02	68.3379	3,249.02	70.0327	3,249.02	68.0712	3,249.02	66.6742	3,249.02	70.2909
3,363.28	85.2785	3,363.28	85.507	3,363.28	85.8517	3,363.28	85.8505	3,363.28	85.5959	3,363.28	85.4882	3,363.28	85.6831	3,363.28	83.991	3,363.28	85.2122	3,363.28	82.8729	3,363.28	84.2099	3,363.28	80.3933	3,363.28	82.1939	3,363.28	78.4047	3,363.28	80.1041	3,363.28	75.8799	3,363.28	77.7147	3,363.28	73.0894	3,363.28	75.2945	3,363.28	70.2216	3,363.28	73.3132	3,363.28	70.7159	3,363.28	70.4946	3,363.28	67.6523	3,363.28	70.0872	3,363.28	68.5806	3,363.28	66.9253	3,363.28	69.3473	3,363.28	72.1618	3,363.28	67.7215	3,363.28	68.0858	3,363.28	68.2506	3,363.28	70.2399	3,363.28	66.7969	3,363.28	68.0813	3,363.28	67.8969
3,481.93	85.0981	3,481.93	86.0541	3,481.93	84.6597	3,481.93	86.2024	3,481.93	85.9152	3,481.93	85.8138	3,481.93	85.7859	3,481.93	85.3153	3,481.93	85.4832	3,481.93	84.1004	3,481.93	84.067	3,481.93	81.4724	3,481.93	81.7711	3,481.93	79.6705	3,481.93	79.5769	3,481.93	76.6059	3,481.93	77.0933	3,481.93	74.7679	3,481.93	74.9564	3,481.93	71.2539	3,481.93	73.7395	3,481.93	70.1064	3,481.93	70.8059	3,481.93	68.7707	3,481.93	70.6852	3,481.93	69.401	3,481.93	65.2615	3,481.93	70.1314	3,481.93	70.9227	3,481.93	68.5828	3,481.93	67.5419	3,481.93	69.8539	3,481.93	69.8863	3,481.93	67.3013	3,481.93	65.3538	3,481.93	68.2937
3,604.98	85.39	3,604.98	86.396	3,604.98	85.0984	3,604.98	87.1483	3,604.98	86.108	3,604.98	86.473	3,604.98	86.273	3,604.98	85.658	3,604.98	85.5926	3,604.98	83.6489	3,604.98	84.2952	3,604.98	80.964	3,604.98	82.4784	3,604.98	79.7124	3,604.98	80.5862	3,604.98	77.4972	3,604.98	77.5868	3,604.98	75.5283	3,604.98	75.2499	3,604.98	71.3601	3,604.98	74.0478	3,604.98	70.563	3,604.98	70.9738	3,604.98	69.3515	3,604.98	71.1053	3,604.98	66.8812	3,604.98	66.6406	3,604.98	70.8718	3,604.98	70.6994	3,604.98	68.2559	3,604.98	69.2298	3,604.98	68.8061	3,604.98	70.4639	3,604.98	66.4751	3,604.98	65.3533	3,604.98	68.9554
3,732.42	85.9956	3,732.42	86.8899	3,732.42	85.9434	3,732.42	87.4128	3,732.42	86.2778	3,732.42	87.3134	3,732.42	86.4327	3,732.42	86.1851	3,732.42	85.3396	3,732.42	83.9056	3,732.42	83.7605	3,732.42	81.3512	3,732.42	82.2961	3,732.42	79.4548	3,732.42	80.1427	3,732.42	77.4667	3,732.42	77.5126	3,732.42	75.3171	3,732.42	74.6807	3,732.42	73.1195	3,732.42	73.6265	3,732.42	71.3458	3,732.42	70.7889	3,732.42	69.4545	3,732.42	70.179	3,732.42	65.6896	3,732.42	64.8501	3,732.42	71.8009	3,732.42	69.2042	3,732.42	67.6791	3,732.42	69.0891	3,732.42	69.351	3,732.42	69.619	3,732.42	66.9211	3,732.42	66.5239	3,732.42	69.6714
3,864.26	85.5397	3,864.26	85.8071	3,864.26	85.6184	3,864.26	86.0174	3,864.26	85.2767	3,864.26	86.0291	3,864.26	85.0907	3,864.26	84.6688	3,864.26	84.4739	3,864.26	82.6826	3,864.26	82.7269	3,864.26	80.6381	3,864.26	81.3086	3,864.26	78.7656	3,864.26	78.9746	3,864.26	77.1107	3,864.26	76.0015	3,864.26	74.6002	3,864.26	73.5944	3,864.26	71.9702	3,864.26	71.3425	3,864.26	70.3114	3,864.26	70.9267	3,864.26	69.9718	3,864.26	68.2163	3,864.26	64.573	3,864.26	66.2392	3,864.26	70.9521	3,864.26	68.1442	3,864.26	69.1655	3,864.26	67.4436	3,864.26	68.7542	3,864.26	67.2475	3,864.26	67.1264	3,864.26	64.534	3,864.26	69.658
4,000.49	85.5802	4,000.49	85.401	4,000.49	86.1452	4,000.49	85.849	4,000.49	85.6886	4,000.49	85.2591	4,000.49	85.5341	4,000.49	83.8652	4,000.49	84.6672	4,000.49	82.5714	4,000.49	83.0349	4,000.49	80.2024	4,000.49	81.081	4,000.49	78.2626	4,000.49	78.2081	4,000.49	76.7302	4,000.49	76.9092	4,000.49	73.8703	4,000.49	74.2796	4,000.49	70.5284	4,000.49	71.2272	4,000.49	68.4954	4,000.49	70.3268	4,000.49	68.2838	4,000.49	67.0848	4,000.49	63.6588	4,000.49	67.4316	4,000.49	70.9181	4,000.49	67.205	4,000.49	69.1056	4,000.49	69.1334	4,000.49	68.6812	4,000.49	69.0765	4,000.49	63.4204	4,000.49	65.7059	4,000.49	67.4253
4,141.11	86.0657	4,141.11	86.2819	4,141.11	85.8517	4,141.11	85.6931	4,141.11	86.2113	4,141.11	85.4458	4,141.11	85.6136	4,141.11	84.8992	4,141.11	85.1656	4,141.11	82.9166	4,141.11	83.2925	4,141.11	81.6206	4,141.11	81.0546	4,141.11	79.1522	4,141.11	78.0089	4,141.11	76.107	4,141.11	76.3976	4,141.11	73.7831	4,141.11	73.6961	4,141.11	73.312	4,141.11	71.5783	4,141.11	70.3264	4,141.11	67.9414	4,141.11	67.4366	4,141.11	67.7506	4,141.11	66.3939	4,141.11	66.8648	4,141.11	69.3158	4,141.11	59.0908	4,141.11	66.5177	4,141.11	67.5161	4,141.11	70.1877	4,141.11	68.9097	4,141.11	63.6539	4,141.11	64.5345	4,141.11	64.6846
4,287.6	86.1495	4,287.6	85.926	4,287.6	86.2218	4,287.6	85.4864	4,287.6	85.9176	4,287.6	85.0544	4,287.6	85.9077	4,287.6	84.4989	4,287.6	84.2271	4,287.6	83.0641	4,287.6	82.704	4,287.6	80.548	4,287.6	80.2338	4,287.6	77.8921	4,287.6	78.712	4,287.6	75.5748	4,287.6	76.6941	4,287.6	73.836	4,287.6	74.642	4,287.6	73.8414	4,287.6	72.5531	4,287.6	67.9267	4,287.6	69.1935	4,287.6	69.0196	4,287.6	68.6843	4,287.6	63.9871	4,287.6	66.382	4,287.6	66.4457	4,287.6	65.1293	4,287.6	67.0615	4,287.6	68.0011	4,287.6	70.2571	4,287.6	68.9902	4,287.6	63.365	4,287.6	67.1767	4,287.6	65.3145
4,438.48	87.1971	4,438.48	86.2532	4,438.48	86.8525	4,438.48	86.4265	4,438.48	85.3641	4,438.48	85.5422	4,438.48	85.2694	4,438.48	84.38	4,438.48	83.9587	4,438.48	82.7675	4,438.48	81.5888	4,438.48	81.2528	4,438.48	80.895	4,438.48	78.8684	4,438.48	79.4539	4,438.48	75.7942	4,438.48	76.4103	4,438.48	72.9823	4,438.48	74.8533	4,438.48	70.7729	4,438.48	71.7584	4,438.48	67.3241	4,438.48	69.7229	4,438.48	68.7528	4,438.48	68.3131	4,438.48	67.05	4,438.48	68.3604	4,438.48	68.5936	4,438.48	66.0652	4,438.48	65.2098	4,438.48	67.6338	4,438.48	68.6914	4,438.48	67.03	4,438.48	60.2985	4,438.48	69.0386	4,438.48	64.7677
4,595.21	86.7963	4,595.21	86.4395	4,595.21	86.0012	4,595.21	84.6263	4,595.21	85.6684	4,595.21	84.2336	4,595.21	83.7814	4,595.21	82.5022	4,595.21	83.9386	4,595.21	80.9605	4,595.21	83.3781	4,595.21	80.4941	4,595.21	81.1054	4,595.21	79.1622	4,595.21	79.4116	4,595.21	74.7798	4,595.21	77.6322	4,595.21	74.5468	4,595.21	75.1614	4,595.21	69.4366	4,595.21	71.5357	4,595.21	69.9652	4,595.21	69.979	4,595.21	69.352	4,595.21	68.4441	4,595.21	66.4443	4,595.21	68.6109	4,595.21	69.6349	4,595.21	63.4815	4,595.21	67.8828	4,595.21	69.2289	4,595.21	70.9006	4,595.21	64.6309	4,595.21	65.205	4,595.21	67.142	4,595.21	64.028
4,756.35	88.2441	4,756.35	87.2901	4,756.35	88.1737	4,756.35	85.7546	4,756.35	86.587	4,756.35	84.679	4,756.35	85.3772	4,756.35	83.9806	4,756.35	84.9689	4,756.35	82.7299	4,756.35	84.2442	4,756.35	80.7397	4,756.35	82.837	4,756.35	76.8029	4,756.35	80.4865	4,756.35	75.062	4,756.35	77.7074	4,756.35	72.0696	4,756.35	76.028	4,756.35	72.9168	4,756.35	72.5334	4,756.35	68.164	4,756.35	72.4332	4,756.35	66.3121	4,756.35	69.3574	4,756.35	65.4151	4,756.35	67.2941	4,756.35	67.6519	4,756.35	67.0586	4,756.35	65.3618	4,756.35	69.9448	4,756.35	70.1973	4,756.35	67.8915	4,756.35	62.6957	4,756.35	67.3431	4,756.35	65.5976
4,924.8	88.5255	4,924.8	87.4389	4,924.8	88.3543	4,924.8	86.773	4,924.8	86.2567	4,924.8	85.0283	4,924.8	85.3929	4,924.8	85.1582	4,924.8	84.1395	4,924.8	83.9239	4,924.8	83.0353	4,924.8	82.1339	4,924.8	82.295	4,924.8	78.742	4,924.8	80.2883	4,924.8	77.0793	4,924.8	76.461	4,924.8	73.7367	4,924.8	75.0733	4,924.8	73.6632	4,924.8	72.7754	4,924.8	71.1634	4,924.8	69.1627	4,924.8	67.3174	4,924.8	68.972	4,924.8	65.5171	4,924.8	69.8619	4,924.8	63.432	4,924.8	65.5519	4,924.8	68.0812	4,924.8	69.3777	4,924.8	69.6799	4,924.8	66.5001	4,924.8	60.0199	4,924.8	67.4414	4,924.8	66.1817
5,097.66	88.463	5,097.66	87.2706	5,097.66	87.8533	5,097.66	85.4518	5,097.66	86.5359	5,097.66	84.8603	5,097.66	84.6777	5,097.66	84.0683	5,097.66	84.4036	5,097.66	82.5865	5,097.66	83.7346	5,097.66	80.6268	5,097.66	81.6547	5,097.66	76.9892	5,097.66	79.1361	5,097.66	75.7754	5,097.66	77.7106	5,097.66	72.1874	5,097.66	74.7376	5,097.66	68.9213	5,097.66	71.6868	5,097.66	69.3025	5,097.66	70.0274	5,097.66	67.2962	5,097.66	68.7546	5,097.66	69.7995	5,097.66	65.5552	5,097.66	65.8816	5,097.66	62.5667	5,097.66	66.6159	5,097.66	68.1453	5,097.66	68.174	5,097.66	63.7203	5,097.66	63.7001	5,097.66	68.3608	5,097.66	62.2328
5,277.83	88.3279	5,277.83	87.0144	5,277.83	87.6207	5,277.83	85.3653	5,277.83	85.6782	5,277.83	84.732	5,277.83	84.034	5,277.83	83.9533	5,277.83	83.9879	5,277.83	82.8204	5,277.83	83.3808	5,277.83	80.8511	5,277.83	81.1535	5,277.83	79.8823	5,277.83	78.6001	5,277.83	75.1043	5,277.83	76.0281	5,277.83	73.5883	5,277.83	73.3173	5,277.83	68.6952	5,277.83	70.316	5,277.83	65.6362	5,277.83	69.6102	5,277.83	64.9299	5,277.83	62.173	5,277.83	64.6442	5,277.83	66.5971	5,277.83	66.6309	5,277.83	62.4767	5,277.83	64.7305	5,277.83	64.9184	5,277.83	68.1806	5,277.83	64.799	5,277.83	62.3965	5,277.83	69.1475	5,277.83	62.8312
5,463.87	88.8511	5,463.87	87.9135	5,463.87	88.6979	5,463.87	85.4387	5,463.87	86.5192	5,463.87	84.363	5,463.87	85.7893	5,463.87	83.3815	5,463.87	84.3148	5,463.87	81.5185	5,463.87	82.442	5,463.87	78.6299	5,463.87	80.9468	5,463.87	76.3139	5,463.87	78.6082	5,463.87	73.6139	5,463.87	72.8395	5,463.87	72.1409	5,463.87	72.0111	5,463.87	70.9	5,463.87	70.2921	5,463.87	69.1046	5,463.87	66.8412	5,463.87	65.7451	5,463.87	63.603	5,463.87	61.9878	5,463.87	65.3132	5,463.87	64.2504	5,463.87	63.3109	5,463.87	66.4765	5,463.87	66.4072	5,463.87	67.5218	5,463.87	66.9455	5,463.87	59.9457	5,463.87	66.5639	5,463.87	61.9822
5,657.23	89.6191	5,657.23	88.6022	5,657.23	88.967	5,657.23	86.7913	5,657.23	87.5264	5,657.23	85.467	5,657.23	85.7625	5,657.23	84.2946	5,657.23	84.671	5,657.23	81.0003	5,657.23	82.1192	5,657.23	78.5425	5,657.23	79.15	5,657.23	73.1071	5,657.23	73.4806	5,657.23	72.2401	5,657.23	73.8593	5,657.23	65.5477	5,657.23	68.645	5,657.23	66.2987	5,657.23	69.0379	5,657.23	65.0076	5,657.23	64.3798	5,657.23	61.4616	5,657.23	61.6102	5,657.23	56.0801	5,657.23	65.2766	5,657.23	62.1482	5,657.23	55.8071	5,657.23	65.5151	5,657.23	61.2505	5,657.23	64.9829	5,657.23	62.4776	5,657.23	62.0963	5,657.23	66.2863	5,657.23	58.0238
5,856.45	88.8365	5,856.45	87.4834	5,856.45	88.1778	5,856.45	85.3458	5,856.45	87.0398	5,856.45	84.0064	5,856.45	84.9421	5,856.45	82.0278	5,856.45	82.9814	5,856.45	79.2237	5,856.45	81.396	5,856.45	76.8359	5,856.45	78.9233	5,856.45	76.9389	5,856.45	78.6328	5,856.45	73.9933	5,856.45	75.4339	5,856.45	71.0336	5,856.45	72.3172	5,856.45	66.4992	5,856.45	70.0373	5,856.45	60.5502	5,856.45	67.5397	5,856.45	60.7352	5,856.45	67.0553	5,856.45	62.7792	5,856.45	62.27	5,856.45	56.842	5,856.45	61.005	5,856.45	64.8674	5,856.45	62.654	5,856.45	66.0404	5,856.45	64.7439	5,856.45	63.0341	5,856.45	66.9511	5,856.45	55.9954
6,062.99	88.0044	6,062.99	86.2426	6,062.99	87.844	6,062.99	84.4545	6,062.99	85.1465	6,062.99	84.267	6,062.99	84.4608	6,062.99	83.0905	6,062.99	82.3934	6,062.99	82.128	6,062.99	80.8438	6,062.99	78.946	6,062.99	80.2767	6,062.99	79.3753	6,062.99	79.8172	6,062.99	75.4543	6,062.99	76.162	6,062.99	72.9548	6,062.99	74.8831	6,062.99	72.3579	6,062.99	71.9959	6,062.99	68.7139	6,062.99	70.5275	6,062.99	60.5161	6,062.99	69.3034	6,062.99	63.5515	6,062.99	66.5147	6,062.99	63.4217	6,062.99	63.175	6,062.99	68.1311	6,062.99	67.9454	6,062.99	66.6103	6,062.99	67.2076	6,062.99	63.7403	6,062.99	67.8689	6,062.99	64.7083
6,276.86	88.3164	6,276.86	86.9936	6,276.86	87.6188	6,276.86	85.5032	6,276.86	86.6143	6,276.86	83.2312	6,276.86	83.9572	6,276.86	82.4735	6,276.86	83.9281	6,276.86	79.9338	6,276.86	82.2625	6,276.86	79.9758	6,276.86	80.1974	6,276.86	74.9596	6,276.86	77.4772	6,276.86	75.1816	6,276.86	77.2709	6,276.86	72.553	6,276.86	74.2104	6,276.86	73.2203	6,276.86	69.6372	6,276.86	70.2493	6,276.86	68.9266	6,276.86	68.0203	6,276.86	69.6755	6,276.86	68.0525	6,276.86	62.6913	6,276.86	59.3635	6,276.86	60.8975	6,276.86	66.0302	6,276.86	64.8438	6,276.86	65.4332	6,276.86	64.0878	6,276.86	64.0128	6,276.86	68.0793	6,276.86	62.0484
6,498.05	88.8186	6,498.05	88.0595	6,498.05	88.6032	6,498.05	86.0724	6,498.05	87.1362	6,498.05	84.2589	6,498.05	84.9237	6,498.05	82.2855	6,498.05	83.4416	6,498.05	82.1237	6,498.05	82.2842	6,498.05	80.4237	6,498.05	81.8103	6,498.05	77.5419	6,498.05	80.5816	6,498.05	75.8227	6,498.05	77.3247	6,498.05	73.6362	6,498.05	75.4179	6,498.05	70.9064	6,498.05	71.6066	6,498.05	69.5267	6,498.05	70.7565	6,498.05	65.1478	6,498.05	66.2486	6,498.05	64.7666	6,498.05	64.1352	6,498.05	62.1336	6,498.05	64.8229	6,498.05	66.1688	6,498.05	60.855	6,498.05	65.3948	6,498.05	64.5691	6,498.05	62.1092	6,498.05	67.3164	6,498.05	62.2744
6,726.56	89.1135	6,726.56	88.3695	6,726.56	88.985	6,726.56	86.5822	6,726.56	87.092	6,726.56	83.9706	6,726.56	85.1108	6,726.56	82.598	6,726.56	83.5356	6,726.56	81.5215	6,726.56	82.1809	6,726.56	79.9613	6,726.56	81.7933	6,726.56	78.7211	6,726.56	79.5057	6,726.56	75.8711	6,726.56	77.9558	6,726.56	73.8065	6,726.56	74.7863	6,726.56	70.9409	6,726.56	71.9117	6,726.56	67.5934	6,726.56	68.6829	6,726.56	65.9717	6,726.56	68.3559	6,726.56	63.6724	6,726.56	64.1218	6,726.56	66.0423	6,726.56	62.2611	6,726.56	65.3844	6,726.56	65.0986	6,726.56	65.4332	6,726.56	66.3235	6,726.56	58.4288	6,726.56	67.0319	6,726.56	61.1475
6,963.87	89.5566	6,963.87	88.48	6,963.87	88.8783	6,963.87	86.7214	6,963.87	87.6919	6,963.87	84.1491	6,963.87	84.7945	6,963.87	82.8056	6,963.87	83.5439	6,963.87	81.296	6,963.87	83.4364	6,963.87	81.0137	6,963.87	82.0652	6,963.87	77.9828	6,963.87	79.7274	6,963.87	74.8302	6,963.87	76.7079	6,963.87	71.6653	6,963.87	72.7061	6,963.87	63.3959	6,963.87	71.1199	6,963.87	67.9818	6,963.87	67.8457	6,963.87	65.6136	6,963.87	65.3847	6,963.87	59.03	6,963.87	60.872	6,963.87	53.9384	6,963.87	61.5639	6,963.87	62.1029	6,963.87	57.4897	6,963.87	63.5942	6,963.87	61.7469	6,963.87	59.0047	6,963.87	64.9504	6,963.87	59.5828
7,209.96	89.1362	7,209.96	89.2023	7,209.96	89.1716	7,209.96	87.3488	7,209.96	88.2557	7,209.96	85.0066	7,209.96	86.2064	7,209.96	84.2149	7,209.96	84.0413	7,209.96	83.5043	7,209.96	83.3436	7,209.96	80.7115	7,209.96	82.3016	7,209.96	77.5106	7,209.96	80.9778	7,209.96	75.7768	7,209.96	75.8028	7,209.96	72.3561	7,209.96	72.3673	7,209.96	68.2689	7,209.96	70.4449	7,209.96	66.9372	7,209.96	67.7746	7,209.96	65.1684	7,209.96	65.2379	7,209.96	60.8433	7,209.96	60.6563	7,209.96	61.8258	7,209.96	58.8265	7,209.96	64.6656	7,209.96	58.1003	7,209.96	63.2035	7,209.96	64.3003	7,209.96	63.5209	7,209.96	64.1459	7,209.96	55.2135
7,464.84	88.5743	7,464.84	89.0808	7,464.84	88.286	7,464.84	87.7119	7,464.84	87.5846	7,464.84	85.7991	7,464.84	85.4449	7,464.84	85.0402	7,464.84	83.7917	7,464.84	83.7009	7,464.84	82.5324	7,464.84	81.2624	7,464.84	81.5674	7,464.84	78.9846	7,464.84	78.775	7,464.84	75.7579	7,464.84	73.6119	7,464.84	71.8191	7,464.84	70.9076	7,464.84	69.9493	7,464.84	68.566	7,464.84	65.3034	7,464.84	65.0464	7,464.84	63.6906	7,464.84	63.7603	7,464.84	61.3891	7,464.84	62.7874	7,464.84	59.888	7,464.84	59.964	7,464.84	62.7964	7,464.84	52.655	7,464.84	63.3	7,464.84	61.1035	7,464.84	59.8363	7,464.84	62.3292	7,464.84	54.056
7,727.05	89.4047	7,727.05	89.8638	7,727.05	88.9582	7,727.05	88.5342	7,727.05	87.7357	7,727.05	87.168	7,727.05	85.6068	7,727.05	86.1401	7,727.05	84.5751	7,727.05	84.5844	7,727.05	83.7682	7,727.05	82.2901	7,727.05	81.652	7,727.05	78.9419	7,727.05	78.7628	7,727.05	75.5851	7,727.05	73.7408	7,727.05	71.9838	7,727.05	70.91	7,727.05	70.2175	7,727.05	69.356	7,727.05	65.0721	7,727.05	65.5907	7,727.05	62.343	7,727.05	63.4011	7,727.05	63.8373	7,727.05	56.4674	7,727.05	58.9849	7,727.05	59.5414	7,727.05	62.6597	7,727.05	56.8015	7,727.05	62.3311	7,727.05	62.8651	7,727.05	61.597	7,727.05	60.1188	7,727.05	51.0217
7,999.51	89.2751	7,999.51	89.2671	7,999.51	88.5952	7,999.51	88.7501	7,999.51	87.7979	7,999.51	87.2072	7,999.51	85.6195	7,999.51	86.1422	7,999.51	84.7422	7,999.51	84.5438	7,999.51	82.4889	7,999.51	81.55	7,999.51	80.1521	7,999.51	78.7633	7,999.51	76.6163	7,999.51	75.9681	7,999.51	73.8472	7,999.51	72.9815	7,999.51	69.9828	7,999.51	71.2735	7,999.51	66.7651	7,999.51	66.9001	7,999.51	64.5611	7,999.51	63.4758	7,999.51	62.7929	7,999.51	64.0031	7,999.51	60.0507	7,999.51	57.8265	7,999.51	59.0351	7,999.51	60.072	7,999.51	53.7009	7,999.51	62.5467	7,999.51	59.7124	7,999.51	63.336	7,999.51	63.048	7,999.51	50.2563
8,282.23	89.2991	8,282.23	89.485	8,282.23	89.1677	8,282.23	88.6004	8,282.23	87.7088	8,282.23	87.6852	8,282.23	86.0942	8,282.23	86.2532	8,282.23	85.3242	8,282.23	84.6097	8,282.23	82.9739	8,282.23	82.4021	8,282.23	80.0543	8,282.23	79.7724	8,282.23	77.8914	8,282.23	75.9738	8,282.23	74.2805	8,282.23	73.7885	8,282.23	71.2177	8,282.23	70.2937	8,282.23	68.2556	8,282.23	66.9283	8,282.23	67.1783	8,282.23	64.8717	8,282.23	65.3743	8,282.23	63.5808	8,282.23	57.3415	8,282.23	58.6151	8,282.23	58.8993	8,282.23	57.6165	8,282.23	53.2611	8,282.23	61.5932	8,282.23	62.0332	8,282.23	59.5396	8,282.23	64.8682	8,282.23	46.0986
8,573.73	89.8152	8,573.73	89.6222	8,573.73	89.1203	8,573.73	88.9506	8,573.73	88.1109	8,573.73	87.3165	8,573.73	86.4187	8,573.73	86.249	8,573.73	84.9657	8,573.73	83.8336	8,573.73	82.4088	8,573.73	81.7043	8,573.73	79.7218	8,573.73	79.6069	8,573.73	77.5794	8,573.73	75.6701	8,573.73	75.5834	8,573.73	72.0816	8,573.73	71.9568	8,573.73	68.4244	8,573.73	66.7491	8,573.73	67.1742	8,573.73	67.0619	8,573.73	64.308	8,573.73	64.947	8,573.73	61.3469	8,573.73	58.6958	8,573.73	58.5155	8,573.73	58.285	8,573.73	59.242	8,573.73	52.7056	8,573.73	63.2286	8,573.73	63.5698	8,573.73	59.948	8,573.73	62.838	8,573.73	50.5653
8,876.95	89.5002	8,876.95	89.0425	8,876.95	89.1154	8,876.95	88.4796	8,876.95	87.7237	8,876.95	87.2489	8,876.95	86.8306	8,876.95	84.9638	8,876.95	85.3188	8,876.95	83.0743	8,876.95	82.793	8,876.95	81.1581	8,876.95	80.6252	8,876.95	77.2578	8,876.95	78.2726	8,876.95	74.0541	8,876.95	73.8113	8,876.95	71.0933	8,876.95	70.8407	8,876.95	68.3594	8,876.95	67.7007	8,876.95	66.6552	8,876.95	66.8733	8,876.95	65.314	8,876.95	63.4942	8,876.95	60.3237	8,876.95	59.2053	8,876.95	59.0661	8,876.95	56.4324	8,876.95	58.7327	8,876.95	50.6037	8,876.95	61.4466	8,876.95	62.1245	8,876.95	60.0208	8,876.95	63.1135	8,876.95	51.6427
9,188.96	89.667	9,188.96	88.9821	9,188.96	88.9426	9,188.96	88.4348	9,188.96	88.217	9,188.96	86.7428	9,188.96	87.002	9,188.96	84.7465	9,188.96	84.5173	9,188.96	82.143	9,188.96	82.2207	9,188.96	79.8314	9,188.96	80.0304	9,188.96	75.5	9,188.96	76.9597	9,188.96	73.3212	9,188.96	73.1027	9,188.96	68.3836	9,188.96	69.9158	9,188.96	68.153	9,188.96	67.5993	9,188.96	64.6056	9,188.96	64.5538	9,188.96	63.7234	9,188.96	61.3954	9,188.96	59.6638	9,188.96	61.1619	9,188.96	57.6835	9,188.96	57.7554	9,188.96	58.2658	9,188.96	48.8902	9,188.96	61.6642	9,188.96	62.3314	9,188.96	60.3756	9,188.96	60.9351	9,188.96	52.5068
9,514.16	89.8751	9,514.16	89.1279	9,514.16	89.3447	9,514.16	88.4946	9,514.16	88.4105	9,514.16	86.5715	9,514.16	86.9399	9,514.16	84.0867	9,514.16	84.3934	9,514.16	81.9524	9,514.16	82.0983	9,514.16	79.0697	9,514.16	79.9134	9,514.16	74.0787	9,514.16	77.7448	9,514.16	70.8101	9,514.16	72.5519	9,514.16	68.3507	9,514.16	70.534	9,514.16	64.5938	9,514.16	66.8932	9,514.16	62.9209	9,514.16	64.2006	9,514.16	62.9701	9,514.16	62.1141	9,514.16	57.9755	9,514.16	61.3431	9,514.16	57.1539	9,514.16	58.3636	9,514.16	50.7463	9,514.16	54.0087	9,514.16	59.0244	9,514.16	57.8619	9,514.16	60.9043	9,514.16	61.6291	9,514.16	54.5031
9,849.61	89.863	9,849.61	89.311	9,849.61	89.0881	9,849.61	88.4107	9,849.61	88.5072	9,849.61	86.3687	9,849.61	86.9154	9,849.61	83.9684	9,849.61	84.4526	9,849.61	81.6707	9,849.61	81.8553	9,849.61	77.7953	9,849.61	78.3425	9,849.61	74.2365	9,849.61	75.5087	9,849.61	70.6794	9,849.61	73.461	9,849.61	66.5635	9,849.61	70.3566	9,849.61	66.7674	9,849.61	66.8012	9,849.61	66.3229	9,849.61	65.1316	9,849.61	61.9062	9,849.61	62.7074	9,849.61	57.9489	9,849.61	60.4591	9,849.61	57.0481	9,849.61	59.1372	9,849.61	43.7704	9,849.61	55.8035	9,849.61	59.399	9,849.61	54.6538	9,849.61	60.7854	9,849.61	60.5736	9,849.61	54.9247
10,196.8	90.1505	10,196.8	89.3871	10,196.8	89.6425	10,196.8	88.644	10,196.8	88.8535	10,196.8	86.635	10,196.8	87.1425	10,196.8	83.8472	10,196.8	84.3257	10,196.8	81.159	10,196.8	81.8799	10,196.8	77.5537	10,196.8	78.6029	10,196.8	74.4935	10,196.8	75.279	10,196.8	71.4982	10,196.8	73.2341	10,196.8	66.9733	10,196.8	69.4342	10,196.8	66.1121	10,196.8	68.5164	10,196.8	64.7434	10,196.8	65.1701	10,196.8	60.0756	10,196.8	62.2873	10,196.8	61.0797	10,196.8	63.304	10,196.8	58.5669	10,196.8	60.7944	10,196.8	53.0984	10,196.8	56.5737	10,196.8	59.0535	10,196.8	56.7746	10,196.8	60.7793	10,196.8	58.3529	10,196.8	57.7769
10,555.7	90.227	10,555.7	89.4677	10,555.7	89.6102	10,555.7	88.9655	10,555.7	89.2172	10,555.7	86.7737	10,555.7	87.3297	10,555.7	83.6672	10,555.7	84.5501	10,555.7	80.4102	10,555.7	81.2554	10,555.7	78.0242	10,555.7	79.736	10,555.7	75.2644	10,555.7	77.2108	10,555.7	72.4935	10,555.7	74.6459	10,555.7	68.6317	10,555.7	70.3848	10,555.7	66.578	10,555.7	67.9597	10,555.7	65.0706	10,555.7	64.3578	10,555.7	62.7358	10,555.7	63.2123	10,555.7	60.4937	10,555.7	63.9344	10,555.7	59.7647	10,555.7	61.8692	10,555.7	48.7203	10,555.7	57.5185	10,555.7	60.3603	10,555.7	56.7253	10,555.7	58.9919	10,555.7	60.0685	10,555.7	53.6711
10,927.7	90.352	10,927.7	89.6521	10,927.7	89.9361	10,927.7	89.1971	10,927.7	89.3947	10,927.7	86.5912	10,927.7	87.1734	10,927.7	83.3601	10,927.7	84.2872	10,927.7	80.8601	10,927.7	81.2481	10,927.7	78.4565	10,927.7	80.093	10,927.7	75.6772	10,927.7	78.1871	10,927.7	71.7342	10,927.7	74.8832	10,927.7	69.5658	10,927.7	70.6765	10,927.7	64.4673	10,927.7	67.014	10,927.7	63.5745	10,927.7	65.9025	10,927.7	61.9075	10,927.7	64.056	10,927.7	59.687	10,927.7	62.9579	10,927.7	60.2694	10,927.7	59.855	10,927.7	51.4942	10,927.7	57.6486	10,927.7	58.8276	10,927.7	57.4037	10,927.7	58.5284	10,927.7	58.5879	10,927.7	52.0514
11,313	90.2549	11,313	90.0353	11,313	90.1339	11,313	89.026	11,313	89.6183	11,313	86.5467	11,313	87.5778	11,313	82.8928	11,313	84.3017	11,313	80.4859	11,313	80.978	11,313	78.0816	11,313	80.1829	11,313	75.1832	11,313	78.2136	11,313	70.9287	11,313	74.063	11,313	69.6102	11,313	70.4323	11,313	65.17	11,313	68.1442	11,313	62.5711	11,313	64.6705	11,313	62.7605	11,313	63.6157	11,313	61.5838	11,313	64.8133	11,313	59.6473	11,313	62.3966	11,313	51.624	11,313	57.3348	11,313	58.2768	11,313	57.4905	11,313	58.958	11,313	58.1966	11,313	48.9828
11,712.9	90.1961	11,712.9	89.9783	11,712.9	90.3043	11,712.9	88.8798	11,712.9	89.5957	11,712.9	86.7782	11,712.9	87.2128	11,712.9	82.3141	11,712.9	83.7581	11,712.9	80.4056	11,712.9	80.8344	11,712.9	78.4105	11,712.9	80.3615	11,712.9	75.0676	11,712.9	78.1645	11,712.9	71.9895	11,712.9	73.8483	11,712.9	68.5611	11,712.9	71.182	11,712.9	64.7854	11,712.9	67.2784	11,712.9	64.0618	11,712.9	65.4155	11,712.9	62.5334	11,712.9	64.1623	11,712.9	60.0979	11,712.9	64.0017	11,712.9	60.4796	11,712.9	61.9802	11,712.9	50.2757	11,712.9	58.9184	11,712.9	59.0423	11,712.9	60.6386	11,712.9	58.5261	11,712.9	59.552	11,712.9	48.3124
12,126	90.0908	12,126	89.9964	12,126	90.3382	12,126	89.0282	12,126	89.3291	12,126	86.2178	12,126	87.2994	12,126	81.9129	12,126	83.3185	12,126	80.0966	12,126	81.5191	12,126	78.0469	12,126	80.062	12,126	74.6151	12,126	78.0827	12,126	71.503	12,126	75.6935	12,126	67.8598	12,126	71.8943	12,126	65.5307	12,126	68.0277	12,126	63.9181	12,126	66.4413	12,126	62.0809	12,126	64.9219	12,126	60.2324	12,126	63.1772	12,126	58.2262	12,126	62.6489	12,126	50.6805	12,126	57.466	12,126	57.1109	12,126	58.3367	12,126	60.4418	12,126	59.5191	12,126	48.9311
12,553.7	89.4804	12,553.7	89.7759	12,553.7	90.0907	12,553.7	88.8424	12,553.7	89.0888	12,553.7	85.5515	12,553.7	86.9766	12,553.7	82.1478	12,553.7	83.1503	12,553.7	80.0007	12,553.7	81.773	12,553.7	77.965	12,553.7	80.3096	12,553.7	75.3258	12,553.7	79.044	12,553.7	71.3637	12,553.7	76.1534	12,553.7	68.9848	12,553.7	72.3054	12,553.7	65.8833	12,553.7	69.2839	12,553.7	63.9402	12,553.7	66.6047	12,553.7	60.5479	12,553.7	64.6421	12,553.7	58.8386	12,553.7	63.8632	12,553.7	56.5914	12,553.7	62.2396	12,553.7	50.4561	12,553.7	59.0364	12,553.7	59.1536	12,553.7	57.6017	12,553.7	60.4354	12,553.7	61.1484	12,553.7	51.5622
12,996.1	88.7449	12,996.1	89.2815	12,996.1	89.5173	12,996.1	88.3283	12,996.1	88.7907	12,996.1	85.4056	12,996.1	86.6326	12,996.1	82.6113	12,996.1	83.5884	12,996.1	79.5434	12,996.1	81.1305	12,996.1	78.0977	12,996.1	80.8308	12,996.1	75.0796	12,996.1	79.3682	12,996.1	71.2456	12,996.1	76.737	12,996.1	68.9225	12,996.1	72.4515	12,996.1	64.8843	12,996.1	70.1167	12,996.1	62.8985	12,996.1	66.9281	12,996.1	59.4453	12,996.1	65.1218	12,996.1	57.1929	12,996.1	61.9992	12,996.1	56.1927	12,996.1	62.7587	12,996.1	53.795	12,996.1	59.66	12,996.1	58.0882	12,996.1	57.9581	12,996.1	59.754	12,996.1	61.3706	12,996.1	50.5509
13,454.6	87.9735	13,454.6	88.5707	13,454.6	88.7779	13,454.6	87.9234	13,454.6	88.3623	13,454.6	85.1259	13,454.6	86.6113	13,454.6	82.7578	13,454.6	84.3007	13,454.6	79.6417	13,454.6	81.5158	13,454.6	77.4875	13,454.6	81.2423	13,454.6	74.598	13,454.6	79.578	13,454.6	71.424	13,454.6	77.027	13,454.6	68.5066	13,454.6	73.2777	13,454.6	65.313	13,454.6	70.3887	13,454.6	63.0991	13,454.6	67.366	13,454.6	60.2832	13,454.6	65.0484	13,454.6	59.4032	13,454.6	61.8233	13,454.6	46.5707	13,454.6	62.6031	13,454.6	54.39	13,454.6	59.3114	13,454.6	59.6997	13,454.6	59.438	13,454.6	62.0322	13,454.6	60.9344	13,454.6	45.4203
13,929.2	87.4079	13,929.2	87.791	13,929.2	88.1024	13,929.2	87.3049	13,929.2	87.9644	13,929.2	85.0337	13,929.2	86.4747	13,929.2	82.4118	13,929.2	84.9236	13,929.2	79.3713	13,929.2	81.8723	13,929.2	75.9236	13,929.2	81.4557	13,929.2	73.3763	13,929.2	80.3244	13,929.2	71.3063	13,929.2	77.434	13,929.2	67.4942	13,929.2	73.7532	13,929.2	64.9919	13,929.2	70.4524	13,929.2	63.8698	13,929.2	66.6677	13,929.2	59.2865	13,929.2	64.4752	13,929.2	57.4969	13,929.2	63.1596	13,929.2	51.1519	13,929.2	61.661	13,929.2	52.8989	13,929.2	58.3777	13,929.2	59.8485	13,929.2	58.5494	13,929.2	61.3532	13,929.2	60.739	13,929.2	46.8902
14,419.9	87.5393	14,419.9	87.5827	14,419.9	87.9233	14,419.9	86.9141	14,419.9	88.0797	14,419.9	85.1988	14,419.9	86.9328	14,419.9	81.2041	14,419.9	85.1106	14,419.9	76.7492	14,419.9	81.3534	14,419.9	72.1445	14,419.9	80.2842	14,419.9	71.3646	14,419.9	79.3217	14,419.9	69.1032	14,419.9	76.8758	14,419.9	65.3515	14,419.9	72.8814	14,419.9	62.9551	14,419.9	68.8919	14,419.9	61.8034	14,419.9	66.0172	14,419.9	56.3202	14,419.9	63.9553	14,419.9	54.4699	14,419.9	61.2275	14,419.9	49.7056	14,419.9	61.498	14,419.9	53.8729	14,419.9	59.3288	14,419.9	57.3779	14,419.9	59.1882	14,419.9	59.9333	14,419.9	59.622	14,419.9	51.2405
14,928.2	88.0707	14,928.2	87.872	14,928.2	88.3291	14,928.2	86.5945	14,928.2	88.1406	14,928.2	84.2479	14,928.2	86.6139	14,928.2	78.2104	14,928.2	84.3684	14,928.2	70.1895	14,928.2	79.694	14,928.2	71.74	14,928.2	79.0944	14,928.2	70.1059	14,928.2	78.8894	14,928.2	69.2722	14,928.2	76.2197	14,928.2	64.192	14,928.2	72.3418	14,928.2	60.0032	14,928.2	68.5531	14,928.2	61.3354	14,928.2	65.5108	14,928.2	54.1711	14,928.2	63.3961	14,928.2	49.5325	14,928.2	60.4824	14,928.2	48.6738	14,928.2	59.7315	14,928.2	50.5973	14,928.2	58.136	14,928.2	54.4712	14,928.2	58.1815	14,928.2	57.4977	14,928.2	58.4145	14,928.2	52.2548
15,455.6	88.1709	15,455.6	87.8726	15,455.6	88.2726	15,455.6	86.4069	15,455.6	87.6569	15,455.6	83.2877	15,455.6	85.8783	15,455.6	74.3738	15,455.6	83.4973	15,455.6	69.0154	15,455.6	78.5021	15,455.6	74.7779	15,455.6	79.7596	15,455.6	72.8206	15,455.6	79.7505	15,455.6	71.0079	15,455.6	76.9829	15,455.6	66.7837	15,455.6	72.4575	15,455.6	62.9409	15,455.6	68.6776	15,455.6	60.7155	15,455.6	65.7051	15,455.6	53.7931	15,455.6	63.6608	15,455.6	52.6911	15,455.6	60.3517	15,455.6	40.6306	15,455.6	58.6273	15,455.6	50.7757	15,455.6	59.0071	15,455.6	51.0839	15,455.6	58.3905	15,455.6	55.0423	15,455.6	57.7276	15,455.6	53.4489
16,000.5	87.8399	16,000.5	87.3375	16,000.5	87.6495	16,000.5	86.0908	16,000.5	86.5974	16,000.5	82.8393	16,000.5	85.6585	16,000.5	74.441	16,000.5	83.3845	16,000.5	73.64	16,000.5	79.199	16,000.5	76.3335	16,000.5	80.5208	16,000.5	75.8236	16,000.5	80.0333	16,000.5	73.4071	16,000.5	76.9423	16,000.5	68.9784	16,000.5	72.2799	16,000.5	64.7501	16,000.5	68.9745	16,000.5	63.3926	16,000.5	65.9827	16,000.5	58.0943	16,000.5	63.9117	16,000.5	52.7192	16,000.5	58.6633	16,000.5	43.8703	16,000.5	57.242	16,000.5	51.1851	16,000.5	60.101	16,000.5	48.174	16,000.5	59.3886	16,000.5	52.6936	16,000.5	54.4777	16,000.5	50.6799
16,564.5	87.8315	16,564.5	86.8756	16,564.5	87.2122	16,564.5	85.5473	16,564.5	85.6906	16,564.5	82.223	16,564.5	85.3215	16,564.5	75.835	16,564.5	81.7293	16,564.5	76.1602	16,564.5	79.5007	16,564.5	78.3354	16,564.5	80.2057	16,564.5	77.9692	16,564.5	79.6882	16,564.5	74.6604	16,564.5	76.6923	16,564.5	69.8295	16,564.5	72.1941	16,564.5	66.2536	16,564.5	69.0551	16,564.5	64.4968	16,564.5	65.6862	16,564.5	60.6422	16,564.5	62.2104	16,564.5	56.1683	16,564.5	53.6235	16,564.5	49.2776	16,564.5	56.3739	16,564.5	50.1545	16,564.5	56.9828	16,564.5	41.5048	16,564.5	60.3383	16,564.5	53.8459	16,564.5	55.8777	16,564.5	51.2808
17,148.9	88.19	17,148.9	86.3084	17,148.9	86.7113	17,148.9	85.6061	17,148.9	84.6826	17,148.9	82.4735	17,148.9	84.6341	17,148.9	78.7871	17,148.9	81.4618	17,148.9	78.1604	17,148.9	80.8586	17,148.9	80.1477	17,148.9	80.3702	17,148.9	79.276	17,148.9	80.5931	17,148.9	75.5705	17,148.9	77.6311	17,148.9	71.1618	17,148.9	73.1311	17,148.9	67.8234	17,148.9	69.5113	17,148.9	66.1446	17,148.9	65.8698	17,148.9	60.9896	17,148.9	62.1654	17,148.9	57.7968	17,148.9	52.9637	17,148.9	44.3637	17,148.9	54.4492	17,148.9	50.6898	17,148.9	56.1642	17,148.9	49.6854	17,148.9	60.195	17,148.9	53.0931	17,148.9	57.6665	17,148.9	46.0611
17,752.4	88.5115	17,752.4	86.1681	17,752.4	85.8519	17,752.4	85.9337	17,752.4	84.1264	17,752.4	82.5164	17,752.4	83.6034	17,752.4	80.6554	17,752.4	82.6991	17,752.4	79.6923	17,752.4	82.2468	17,752.4	80.8443	17,752.4	81.6235	17,752.4	80.2305	17,752.4	81.8215	17,752.4	76.3971	17,752.4	78.4405	17,752.4	72.0759	17,752.4	73.7571	17,752.4	68.4443	17,752.4	70.0964	17,752.4	66.2872	17,752.4	66.0787	17,752.4	61.0563	17,752.4	62.5415	17,752.4	59.8779	17,752.4	56.5906	17,752.4	45.0439	17,752.4	53.8221	17,752.4	54.5199	17,752.4	58.9387	17,752.4	48.4986	17,752.4	54.2981	17,752.4	50.0067	17,752.4	56.4881	17,752.4	44.4447
18,379.4	88.7722	18,379.4	86.2514	18,379.4	85.6884	18,379.4	85.6656	18,379.4	84.4009	18,379.4	81.1085	18,379.4	82.535	18,379.4	81.6628	18,379.4	84.3366	18,379.4	80.4982	18,379.4	83.5836	18,379.4	81.4361	18,379.4	82.5931	18,379.4	80.9467	18,379.4	82.344	18,379.4	76.2868	18,379.4	78.9252	18,379.4	71.692	18,379.4	73.597	18,379.4	67.8263	18,379.4	70.0158	18,379.4	65.9672	18,379.4	66.0452	18,379.4	59.8416	18,379.4	60.9093	18,379.4	61.0432	18,379.4	57.865	18,379.4	40.867	18,379.4	53.713	18,379.4	51.4242	18,379.4	59.0638	18,379.4	46.3696	18,379.4	53.4795	18,379.4	46.2282	18,379.4	55.7374	18,379.4	41.7937
19,026.9	88.6334	19,026.9	86.3775	19,026.9	86.2823	19,026.9	84.2378	19,026.9	84.7933	19,026.9	79.0727	19,026.9	83.2801	19,026.9	83.0113	19,026.9	86.0519	19,026.9	82.6349	19,026.9	85.1323	19,026.9	83.4835	19,026.9	83.6451	19,026.9	81.3221	19,026.9	82.9522	19,026.9	76.7669	19,026.9	78.3387	19,026.9	72.8225	19,026.9	72.8065	19,026.9	68.0447	19,026.9	70.4098	19,026.9	65.6297	19,026.9	65.9018	19,026.9	59.7624	19,026.9	59.8792	19,026.9	61.6167	19,026.9	59.5564	19,026.9	44.1675	19,026.9	54.4059	19,026.9	55.1091	19,026.9	59.7893	19,026.9	37.0198	19,026.9	47.7322	19,026.9	42.2427	19,026.9	56.4961	19,026.9	44.7013
19,697.8	87.2126	19,697.8	85.3299	19,697.8	86.2271	19,697.8	80.415	19,697.8	84.3796	19,697.8	77.255	19,697.8	83.1785	19,697.8	84.8607	19,697.8	85.5249	19,697.8	84.6231	19,697.8	84.3867	19,697.8	84.3211	19,697.8	82.6483	19,697.8	81.82	19,697.8	80.9698	19,697.8	77.5598	19,697.8	74.9894	19,697.8	73.1605	19,697.8	69.9278	19,697.8	68.603	19,697.8	66.6732	19,697.8	65.1745	19,697.8	63.106	19,697.8	59.2485	19,697.8	57.2055	19,697.8	59.5249	19,697.8	58.7718	19,697.8	42.9578	19,697.8	53.595	19,697.8	52.813	19,697.8	59.1412	19,697.8	48.7481	19,697.8	45.0172	19,697.8	44.2096	19,697.8	54.7413	19,697.8	45.5993
19,999.5	86.4639	19,999.5	83.932	19,999.5	85.9811	19,999.5	76.7658	19,999.5	83.277	19,999.5	76.0075	19,999.5	82.7503	19,999.5	84.8559	19,999.5	84.613	19,999.5	84.939	19,999.5	82.7578	19,999.5	83.6773	19,999.5	81.3879	19,999.5	81.8223	19,999.5	79.2299	19,999.5	77.0882	19,999.5	72.5989	19,999.5	73.2383	19,999.5	68.2374	19,999.5	69.6	19,999.5	61.8187	19,999.5	64.2236	19,999.5	62.1421	19,999.5	55.3452	19,999.5	60.0805	19,999.5	58.9731	19,999.5	63.1528	19,999.5	47.9935	19,999.5	52.1393	19,999.5	50.6115	19,999.5	58.4056	19,999.5	48.7353	19,999.5	49.8241	19,999.5	49.7547	19,999.5	57.683	19,999.5	46.2797
