"SPL Vertical"
"On-Axis"		"10°"		"-10°"		"20°"		"-20°"		"30°"		"-30°"		"40°"		"-40°"		"50°"		"-50°"		"60°"		"-60°"		"70°"		"-70°"		"80°"		"-80°"		"90°"		"-90°"		"100°"		"-100°"		"110°"		"-110°"		"120°"		"-120°"		"130°"		"-130°"		"140°"		"-140°"		"150°"		"-150°"		"160°"		"-160°"		"170°"		"-170°"		"180°"
"Frequency [Hz]"	"Sound Pessure Level [dB]  / [2.83V 1m] "	"Frequency [Hz]"	"Sound Pessure Level [dB]  / [2.83V 1m] "	"Frequency [Hz]"	"Sound Pessure Level [dB]  / [2.83V 1m] "	"Frequency [Hz]"	"Sound Pessure Level [dB]  / [2.83V 1m] "	"Frequency [Hz]"	"Sound Pessure Level [dB]  / [2.83V 1m] "	"Frequency [Hz]"	"Sound Pessure Level [dB]  / [2.83V 1m] "	"Frequency [Hz]"	"Sound Pessure Level [dB]  / [2.83V 1m] "	"Frequency [Hz]"	"Sound Pessure Level [dB]  / [2.83V 1m] "	"Frequency [Hz]"	"Sound Pessure Level [dB]  / [2.83V 1m] "	"Frequency [Hz]"	"Sound Pessure Level [dB]  / [2.83V 1m] "	"Frequency [Hz]"	"Sound Pessure Level [dB]  / [2.83V 1m] "	"Frequency [Hz]"	"Sound Pessure Level [dB]  / [2.83V 1m] "	"Frequency [Hz]"	"Sound Pessure Level [dB]  / [2.83V 1m] "	"Frequency [Hz]"	"Sound Pessure Level [dB]  / [2.83V 1m] "	"Frequency [Hz]"	"Sound Pessure Level [dB]  / [2.83V 1m] "	"Frequency [Hz]"	"Sound Pessure Level [dB]  / [2.83V 1m] "	"Frequency [Hz]"	"Sound Pessure Level [dB]  / [2.83V 1m] "	"Frequency [Hz]"	"Sound Pessure Level [dB]  / [2.83V 1m] "	"Frequency [Hz]"	"Sound Pessure Level [dB]  / [2.83V 1m] "	"Frequency [Hz]"	"Sound Pessure Level [dB]  / [2.83V 1m] "	"Frequency [Hz]"	"Sound Pessure Level [dB]  / [2.83V 1m] "	"Frequency [Hz]"	"Sound Pessure Level [dB]  / [2.83V 1m] "	"Frequency [Hz]"	"Sound Pessure Level [dB]  / [2.83V 1m] "	"Frequency [Hz]"	"Sound Pessure Level [dB]  / [2.83V 1m] "	"Frequency [Hz]"	"Sound Pessure Level [dB]  / [2.83V 1m] "	"Frequency [Hz]"	"Sound Pessure Level [dB]  / [2.83V 1m] "	"Frequency [Hz]"	"Sound Pessure Level [dB]  / [2.83V 1m] "	"Frequency [Hz]"	"Sound Pessure Level [dB]  / [2.83V 1m] "	"Frequency [Hz]"	"Sound Pessure Level [dB]  / [2.83V 1m] "	"Frequency [Hz]"	"Sound Pessure Level [dB]  / [2.83V 1m] "	"Frequency [Hz]"	"Sound Pessure Level [dB]  / [2.83V 1m] "	"Frequency [Hz]"	"Sound Pessure Level [dB]  / [2.83V 1m] "	"Frequency [Hz]"	"Sound Pessure Level [dB]  / [2.83V 1m] "	"Frequency [Hz]"	"Sound Pessure Level [dB]  / [2.83V 1m] "	"Frequency [Hz]"	"Sound Pessure Level [dB]  / [2.83V 1m] "	"Frequency [Hz]"	"Sound Pessure Level [dB]  / [2.83V 1m] "
20.5078	45.6157	20.5078	45.8073	20.5078	45.7321	20.5078	46.4817	20.5078	45.919	20.5078	47.6159	20.5078	45.997	20.5078	49.0276	20.5078	45.8731	20.5078	50.5272	20.5078	45.5506	20.5078	51.9942	20.5078	45.1929	20.5078	53.37	20.5078	45.2235	20.5078	54.6311	20.5078	46.1483	20.5078	55.7699	20.5078	47.9458	20.5078	56.7842	20.5078	50.0977	20.5078	57.673	20.5078	52.1901	20.5078	58.4333	20.5078	54.0536	20.5078	59.0601	20.5078	55.6459	20.5078	59.5458	20.5078	56.9693	20.5078	59.8805	20.5078	58.0379	20.5078	60.0528	20.5078	58.8667	20.5078	60.0502	20.5078	59.4698	20.5078	59.8602
21.9727	53.3534	21.9727	52.8327	21.9727	53.7714	21.9727	52.2756	21.9727	54.0507	21.9727	51.7995	21.9727	54.171	21.9727	51.5754	21.9727	54.1212	21.9727	51.7699	21.9727	53.9014	21.9727	52.4312	21.9727	53.5344	21.9727	53.4474	21.9727	53.0908	21.9727	54.6385	21.9727	52.7255	21.9727	55.8555	21.9727	52.682	21.9727	57.0075	21.9727	53.1698	21.9727	58.0465	21.9727	54.1705	21.9727	58.9476	21.9727	55.4535	21.9727	59.6964	21.9727	56.7757	21.9727	60.2822	21.9727	57.9854	21.9727	60.6952	21.9727	59.011	21.9727	60.9252	21.9727	59.8247	21.9727	60.9621	21.9727	60.4192	21.9727	60.7963
23.4375	52.1284	23.4375	51.4725	23.4375	52.6687	23.4375	50.8478	23.4375	53.0185	23.4375	50.5009	23.4375	53.1366	23.4375	50.703	23.4375	52.9949	23.4375	51.534	23.4375	52.5731	23.4375	52.804	23.4375	51.8723	23.4375	54.245	23.4375	50.971	23.4375	55.6726	23.4375	50.1654	23.4375	56.9961	23.4375	50.0826	23.4375	58.179	23.4375	51.1726	23.4375	59.208	23.4375	53.033	23.4375	60.0782	23.4375	55.0203	23.4375	60.7857	23.4375	56.8138	23.4375	61.3252	23.4375	58.3234	23.4375	61.6893	23.4375	59.5425	23.4375	61.8684	23.4375	60.4868	23.4375	61.851	23.4375	61.175	23.4375	61.6246
24.9023	53.5578	24.9023	53.1646	24.9023	53.9107	24.9023	52.8696	24.9023	54.1389	24.9023	52.8534	24.9023	54.1953	24.9023	53.2621	24.9023	54.0587	24.9023	54.1026	24.9023	53.7351	24.9023	55.2417	24.9023	53.2822	24.9023	56.5097	24.9023	52.8615	24.9023	57.7793	24.9023	52.7787	24.9023	58.9768	24.9023	53.3516	24.9023	60.0647	24.9023	54.5899	24.9023	61.0247	24.9023	56.1811	24.9023	61.8464	24.9023	57.8072	24.9023	62.5224	24.9023	59.2929	24.9023	63.0449	24.9023	60.5689	24.9023	63.4054	24.9023	61.6162	24.9023	63.5946	24.9023	62.435	24.9023	63.6025	24.9023	63.0327	24.9023	63.4186
26.3672	57.3294	26.3672	57.0999	26.3672	57.5426	26.3672	56.914	26.3672	57.6963	26.3672	56.8463	26.3672	57.762	26.3672	56.9708	26.3672	57.7245	26.3672	57.3337	26.3672	57.5848	26.3672	57.9301	26.3672	57.3696	26.3672	58.7065	26.3672	57.1465	26.3672	59.5865	26.3672	57.0355	26.3672	60.4968	26.3672	57.1883	26.3672	61.3804	26.3672	57.709	26.3672	62.1966	26.3672	58.571	26.3672	62.9172	26.3672	59.6352	26.3672	63.5217	26.3672	60.7436	26.3672	63.9942	26.3672	61.7808	26.3672	64.3209	26.3672	62.6804	26.3672	64.49	26.3672	63.4097	26.3672	64.4909	26.3672	63.9555	26.3672	64.3149
27.832	59.0181	27.832	58.5852	27.832	59.3484	27.832	58.1114	27.832	59.5407	27.832	57.6977	27.832	59.5744	27.832	57.4846	27.832	59.4397	27.832	57.611	27.832	59.1393	27.832	58.1332	27.832	58.7013	27.832	58.9834	27.832	58.2046	27.832	60.0219	27.832	57.8147	27.832	61.1155	27.832	57.7773	27.832	62.1725	27.832	58.2835	27.832	63.1386	27.832	59.2871	27.832	63.9834	27.832	60.5499	27.832	64.6886	27.832	61.8377	27.832	65.2413	27.832	63.0093	27.832	65.6307	27.832	63.9991	27.832	65.8465	27.832	64.7826	27.832	65.8786	27.832	65.3544	27.832	65.7175
29.2969	59.4777	29.2969	59.1534	29.2969	59.7529	29.2969	58.8587	29.2969	59.9292	29.2969	58.7005	29.2969	59.9791	29.2969	58.7906	29.2969	59.8943	29.2969	59.1966	29.2969	59.6881	29.2969	59.9009	29.2969	59.4073	29.2969	60.815	29.2969	59.15	29.2969	61.8297	29.2969	59.0725	29.2969	62.8553	29.2969	59.344	29.2969	63.8306	29.2969	60.0367	29.2969	64.7177	29.2969	61.0622	29.2969	65.4929	29.2969	62.2435	29.2969	66.14	29.2969	63.4218	29.2969	66.6462	29.2969	64.4962	29.2969	67	29.2969	65.4134	29.2969	67.1909	29.2969	66.1487	29.2969	67.2088	29.2969	66.6929	29.2969	67.0451
30.7617	61.0639	30.7617	60.8439	30.7617	61.2509	30.7617	60.6482	30.7617	61.368	30.7617	60.553	30.7617	61.3959	30.7617	60.6391	30.7617	61.3312	30.7617	60.9629	30.7617	61.1886	30.7617	61.5283	30.7617	61.0077	30.7617	62.2853	30.7617	60.8618	30.7617	63.1556	30.7617	60.8583	30.7617	64.0628	30.7617	61.1097	30.7617	64.9467	30.7617	61.6738	30.7617	65.7649	30.7617	62.5102	30.7617	66.4881	30.7617	63.5055	30.7617	67.0957	30.7617	64.5356	30.7617	67.5715	30.7617	65.5053	30.7617	67.9022	30.7617	66.3544	30.7617	68.0761	30.7617	67.049	30.7617	68.0835	30.7617	67.5721	30.7617	67.917
32.2266	62.2066	32.2266	61.9562	32.2266	62.4337	32.2266	61.7405	32.2266	62.6008	32.2266	61.6365	32.2266	62.6897	32.2266	61.7246	32.2266	62.6979	32.2266	62.0576	32.2266	62.6399	32.2266	62.6338	32.2266	62.5511	32.2266	63.398	32.2266	62.4935	32.2266	64.27	32.2266	62.553	32.2266	65.1734	32.2266	62.8178	32.2266	66.0495	32.2266	63.3349	32.2266	66.8574	32.2266	64.0793	32.2266	67.5694	32.2266	64.9656	32.2266	68.1661	32.2266	65.892	32.2266	68.6329	32.2266	66.7733	32.2266	68.9579	32.2266	67.5516	32.2266	69.1312	32.2266	68.192	32.2266	69.1451	32.2266	68.6757	32.2266	68.9941
33.6914	64.3908	33.6914	64.2059	33.6914	64.5756	33.6914	64.0676	33.6914	64.7249	33.6914	64.029	33.6914	64.8154	33.6914	64.139	33.6914	64.837	33.6914	64.4273	33.6914	64.7947	33.6914	64.8926	33.6914	64.7129	33.6914	65.5032	33.6914	64.6399	33.6914	66.209	33.6914	64.6477	33.6914	66.9563	33.6914	64.8167	33.6914	67.6979	33.6914	65.2023	33.6914	68.3962	33.6914	65.8028	33.6914	69.0223	33.6914	66.5571	33.6914	69.5536	33.6914	67.3764	33.6914	69.9723	33.6914	68.1777	33.6914	70.2638	33.6914	68.8992	33.6914	70.416	33.6914	69.5015	33.6914	70.4198	33.6914	69.9619	33.6914	70.2691
35.1562	65.4589	35.1562	65.3395	35.1562	65.5853	35.1562	65.2682	35.1562	65.6879	35.1562	65.291	35.1562	65.7478	35.1562	65.4492	35.1562	65.7595	35.1562	65.7662	35.1562	65.7327	35.1562	66.239	35.1562	65.6955	35.1562	66.8393	35.1562	65.696	35.1562	67.5231	35.1562	65.798	35.1562	68.2435	35.1562	66.0629	35.1562	68.958	35.1562	66.5229	35.1562	69.6319	35.1562	67.161	35.1562	70.2379	35.1562	67.9172	35.1562	70.7542	35.1562	68.7151	35.1562	71.1632	35.1562	69.4847	35.1562	71.4502	35.1562	70.1736	35.1562	71.6033	35.1562	70.7471	35.1562	71.6133	35.1562	71.1842	35.1562	71.4742
36.6211	67.3389	36.6211	67.2585	36.6211	67.428	36.6211	67.2171	36.6211	67.5025	36.6211	67.2491	36.6211	67.5485	36.6211	67.3858	36.6211	67.5625	36.6211	67.6478	36.6211	67.5532	36.6211	68.038	36.6211	67.5435	36.6211	68.5402	36.6211	67.5708	36.6211	69.1241	36.6211	67.6831	36.6211	69.7524	36.6211	67.9264	36.6211	70.388	36.6211	68.3263	36.6211	70.998	36.6211	68.8738	36.6211	71.5544	36.6211	69.5269	36.6211	72.034	36.6211	70.2256	36.6211	72.4176	36.6211	70.9104	36.6211	72.6894	36.6211	71.532	36.6211	72.8366	36.6211	72.0551	36.6211	72.8497	36.6211	72.4566	36.6211	72.7232
38.0859	68.8704	38.0859	68.8064	38.0859	68.9464	38.0859	68.7795	38.0859	69.0153	38.0859	68.8175	38.0859	69.0652	38.0859	68.9458	38.0859	69.093	38.0859	69.182	38.0859	69.1058	38.0859	69.5297	38.0859	69.1222	38.0859	69.9778	38.0859	69.172	38.0859	70.5023	38.0859	69.2933	38.0859	71.0722	38.0859	69.5227	38.0859	71.6547	38.0859	69.8818	38.0859	72.2191	38.0859	70.3663	38.0859	72.7384	38.0859	70.945	38.0859	73.1893	38.0859	71.5694	38.0859	73.5522	38.0859	72.1879	38.0859	73.8111	38.0859	72.7549	38.0859	73.9531	38.0859	73.2359	38.0859	73.9688	38.0859	73.6068	38.0859	73.8533
39.5508	70.4177	39.5508	70.351	39.5508	70.4892	39.5508	70.3105	39.5508	70.5495	39.5508	70.3206	39.5508	70.5894	39.5508	70.4058	39.5508	70.6067	39.5508	70.5848	39.5508	70.6084	39.5508	70.866	39.5508	70.6111	39.5508	71.2445	39.5508	70.6413	39.5508	71.7027	39.5508	70.7328	39.5508	72.2141	39.5508	70.9196	39.5508	72.7482	39.5508	71.2237	39.5508	73.2747	39.5508	71.6455	39.5508	73.7656	39.5508	72.1604	39.5508	74.1964	39.5508	72.7263	39.5508	74.5465	39.5508	73.295	39.5508	74.7986	39.5508	73.8221	39.5508	74.9392	39.5508	74.2726	39.5508	74.9587	39.5508	74.6212	39.5508	74.8525
41.0156	71.9445	41.0156	71.8941	41.0156	72.0083	41.0156	71.8761	41.0156	72.0711	41.0156	71.9118	41.0156	72.1244	41.0156	72.0211	41.0156	72.1666	41.0156	72.2185	41.0156	72.204	41.0156	72.509	41.0156	72.2511	41.0156	72.886	41.0156	72.3303	41.0156	73.3326	41.0156	72.4681	41.0156	73.8248	41.0156	72.6897	41.0156	74.3353	41.0156	73.0095	41.0156	74.837	41.0156	73.4247	41.0156	75.3047	41.0156	73.9133	41.0156	75.7163	41.0156	74.4399	41.0156	76.0526	41.0156	74.9638	41.0156	76.2977	41.0156	75.4466	41.0156	76.4388	41.0156	75.8571	41.0156	76.4672	41.0156	76.1725	41.0156	76.3782
42.4805	73.2001	42.4805	73.1526	42.4805	73.2602	42.4805	73.1345	42.4805	73.3202	42.4805	73.1644	42.4805	73.3725	42.4805	73.2599	42.4805	73.4156	42.4805	73.4338	42.4805	73.4548	42.4805	73.6911	42.4805	73.5024	42.4805	74.0274	42.4805	73.5773	42.4805	74.429	42.4805	73.7023	42.4805	74.8755	42.4805	73.8992	42.4805	75.3431	42.4805	74.1819	42.4805	75.8068	42.4805	74.55	42.4805	76.2427	42.4805	74.9868	42.4805	76.6292	42.4805	75.4624	42.4805	76.9469	42.4805	75.9408	42.4805	77.1794	42.4805	76.3862	42.4805	77.3138	42.4805	76.7683	42.4805	77.3413	42.4805	77.0638	42.4805	77.2574
43.9453	74.6032	43.9453	74.5686	43.9453	74.653	43.9453	74.5628	43.9453	74.7077	43.9453	74.6006	43.9453	74.7606	43.9453	74.6954	43.9453	74.8103	43.9453	74.8576	43.9453	74.8606	43.9453	75.0911	43.9453	74.9212	43.9453	75.3929	43.9453	75.0069	43.9453	75.7527	43.9453	75.1359	43.9453	76.154	43.9453	75.3252	43.9453	76.5769	43.9453	75.5862	43.9453	76.9995	43.9453	75.9191	43.9453	77.4	43.9453	76.3109	43.9453	77.7579	43.9453	76.7372	43.9453	78.0544	43.9453	77.1673	43.9453	78.2734	43.9453	77.5695	43.9453	78.4022	43.9453	77.9157	43.9453	78.4319	43.9453	78.1837	43.9453	78.3585
45.4102	75.8161	45.4102	75.7887	45.4102	75.8586	45.4102	75.7875	45.4102	75.9073	45.4102	75.8247	45.4102	75.9569	45.4102	75.9118	45.4102	76.0058	45.4102	76.0578	45.4102	76.0573	45.4102	76.2668	45.4102	76.1194	45.4102	76.5372	45.4102	76.2044	45.4102	76.8611	45.4102	76.3276	45.4102	77.2252	45.4102	76.5037	45.4102	77.6119	45.4102	76.7428	45.4102	78.0016	45.4102	77.0456	45.4102	78.374	45.4102	77.4017	45.4102	78.7091	45.4102	77.7904	45.4102	78.9886	45.4102	78.1844	45.4102	79.1965	45.4102	78.5547	45.4102	79.3202	45.4102	78.8746	45.4102	79.3507	45.4102	79.1228	45.4102	79.2843
46.875	77.0209	46.875	76.9984	46.875	77.0581	46.875	76.9998	46.875	77.1026	46.875	77.0356	46.875	77.15	46.875	77.1157	46.875	77.1993	46.875	77.2481	46.875	77.2535	46.875	77.4371	46.875	77.3194	46.875	77.6821	46.875	77.4074	46.875	77.977	46.875	77.5302	46.875	78.3106	46.875	77.7	46.875	78.6677	46.875	77.9249	46.875	79.0303	46.875	78.2056	46.875	79.3795	46.875	78.5332	46.875	79.6961	46.875	78.8898	46.875	79.9623	46.875	79.2513	46.875	80.1624	46.875	79.5915	46.875	80.2837	46.875	79.8856	46.875	80.3175	46.875	80.1134	46.875	80.2601
48.3398	78.1149	48.3398	78.0944	48.3398	78.151	48.3398	78.0975	48.3398	78.1964	48.3398	78.1329	48.3398	78.247	48.3398	78.2089	48.3398	78.3021	48.3398	78.3323	48.3398	78.3636	48.3398	78.5068	48.3398	78.4371	48.3398	78.7319	48.3398	78.531	48.3398	79.0027	48.3398	78.6554	48.3398	79.3097	48.3398	78.8202	48.3398	79.6397	48.3398	79.0319	48.3398	79.9767	48.3398	79.2911	48.3398	80.3031	48.3398	79.5905	48.3398	80.6013	48.3398	79.9148	48.3398	80.8541	48.3398	80.2433	48.3398	81.0463	48.3398	80.5524	48.3398	81.1656	48.3398	80.8195	48.3398	81.2034	48.3398	81.0254	48.3398	81.156
51.2695	79.9756	51.2695	79.9594	51.2695	80.0087	51.2695	79.9656	51.2695	80.0543	51.2695	80.0001	51.2695	80.1095	51.2695	80.0686	51.2695	80.1732	51.2695	80.1758	51.2695	80.2464	51.2695	80.3243	51.2695	80.332	51.2695	80.5143	51.2695	80.4351	51.2695	80.7426	51.2695	80.5615	51.2695	81.0024	51.2695	80.7172	51.2695	81.2839	51.2695	80.9062	51.2695	81.5744	51.2695	81.1286	51.2695	81.8594	51.2695	81.3792	51.2695	82.1233	51.2695	81.6472	51.2695	82.3506	51.2695	81.9171	51.2695	82.5274	51.2695	82.1703	51.2695	82.6418	51.2695	82.3883	51.2695	82.6858	51.2695	82.5544	51.2695	82.656
52.7344	80.7615	52.7344	80.7417	52.7344	80.7967	52.7344	80.742	52.7344	80.8435	52.7344	80.7678	52.7344	80.8995	52.7344	80.8241	52.7344	80.9634	52.7344	80.9154	52.7344	81.036	52.7344	81.0446	52.7344	81.1198	52.7344	81.2124	52.7344	81.2187	52.7344	81.4165	52.7344	81.3376	52.7344	81.6515	52.7344	81.4816	52.7344	81.9089	52.7344	81.6541	52.7344	82.1773	52.7344	81.8553	52.7344	82.4433	52.7344	82.081	52.7344	82.692	52.7344	82.3219	52.7344	82.9088	52.7344	82.5643	52.7344	83.0798	52.7344	82.7917	52.7344	83.1934	52.7344	82.9867	52.7344	83.2418	52.7344	83.134	52.7344	83.2213
54.1992	81.3307	54.1992	81.3116	54.1992	81.3664	54.1992	81.3131	54.1992	81.4152	54.1992	81.3396	54.1992	81.4747	54.1992	81.3954	54.1992	81.5437	54.1992	81.4841	54.1992	81.6224	54.1992	81.6078	54.1992	81.7125	54.1992	81.7671	54.1992	81.8169	54.1992	81.9597	54.1992	81.9393	54.1992	82.181	54.1992	82.0833	54.1992	82.4234	54.1992	82.2514	54.1992	82.6766	54.1992	82.4435	54.1992	82.9284	54.1992	82.6554	54.1992	83.1653	54.1992	82.879	54.1992	83.3732	54.1992	83.1021	54.1992	83.5393	54.1992	83.3097	54.1992	83.6523	54.1992	83.4863	54.1992	83.7045	54.1992	83.6175	54.1992	83.6925
55.6641	81.7892	55.6641	81.7738	55.6641	81.8224	55.6641	81.7797	55.6641	81.8704	55.6641	81.8102	55.6641	81.9312	55.6641	81.8689	55.6641	82.0036	55.6641	81.9583	55.6641	82.0875	55.6641	82.0798	55.6641	82.1841	55.6641	82.2333	55.6641	82.2951	55.6641	82.4168	55.6641	82.4231	55.6641	82.6259	55.6641	82.5702	55.6641	82.854	55.6641	82.7374	55.6641	83.0919	55.6641	82.9239	55.6641	83.3288	55.6641	83.1254	55.6641	83.5524	55.6641	83.3344	55.6641	83.7499	55.6641	83.5403	55.6641	83.9091	55.6641	83.7297	55.6641	84.0197	55.6641	83.889	55.6641	84.0742	55.6641	84.0054	55.6641	84.069
58.5938	82.5556	58.5938	82.5482	58.5938	82.5809	58.5938	82.56	58.5938	82.6228	58.5938	82.5925	58.5938	82.6802	58.5938	82.647	58.5938	82.7523	58.5938	82.7247	58.5938	82.8384	58.5938	82.8263	58.5938	82.9378	58.5938	82.9519	58.5938	83.0503	58.5938	83.1004	58.5938	83.1756	58.5938	83.2691	58.5938	83.3134	58.5938	83.4539	58.5938	83.4628	58.5938	83.6484	58.5938	83.6223	58.5938	83.8444	58.5938	83.7883	58.5938	84.0322	58.5938	83.9557	58.5938	84.2012	58.5938	84.1168	58.5938	84.3411	58.5938	84.2623	58.5938	84.4424	58.5938	84.3818	58.5938	84.4986	58.5938	84.4657	58.5938	84.5061
60.0586	82.8234	60.0586	82.8122	60.0586	82.8519	60.0586	82.8193	60.0586	82.8966	60.0586	82.8457	60.0586	82.9567	60.0586	82.8925	60.0586	83.0313	60.0586	82.9608	60.0586	83.1192	60.0586	83.051	60.0586	83.2196	60.0586	83.1635	60.0586	83.3313	60.0586	83.2972	60.0586	83.4534	60.0586	83.4503	60.0586	83.5847	60.0586	83.619	60.0586	83.724	60.0586	83.7979	60.0586	83.8695	60.0586	83.9797	60.0586	84.0181	60.0586	84.1556	60.0586	84.1654	60.0586	84.3157	60.0586	84.3052	60.0586	84.4502	60.0586	84.4296	60.0586	84.5505	60.0586	84.5298	60.0586	84.61	60.0586	84.5974	60.0586	84.6255
62.9883	83.2198	62.9883	83.2076	62.9883	83.2489	62.9883	83.2128	62.9883	83.2946	62.9883	83.2353	62.9883	83.3561	62.9883	83.2754	62.9883	83.4322	62.9883	83.3331	62.9883	83.5215	62.9883	83.4085	62.9883	83.622	62.9883	83.5014	62.9883	83.7315	62.9883	83.6112	62.9883	83.8478	62.9883	83.7367	62.9883	83.9685	62.9883	83.8754	62.9883	84.0915	62.9883	84.0235	62.9883	84.2146	62.9883	84.1758	62.9883	84.3353	62.9883	84.3253	62.9883	84.4504	62.9883	84.4642	62.9883	84.5557	62.9883	84.5843	62.9883	84.646	62.9883	84.678	62.9883	84.715	62.9883	84.7395	62.9883	84.7566	62.9883	84.7657
64.4531	83.3483	64.4531	83.3368	64.4531	83.3764	64.4531	83.3418	64.4531	83.4208	64.4531	83.3629	64.4531	83.4809	64.4531	83.3999	64.4531	83.5555	64.4531	83.4525	64.4531	83.643	64.4531	83.5205	64.4531	83.7412	64.4531	83.6036	64.4531	83.8473	64.4531	83.7012	64.4531	83.9588	64.4531	83.8126	64.4531	84.0728	64.4531	83.9358	64.4531	84.1868	64.4531	84.0678	64.4531	84.2985	64.4531	84.2044	64.4531	84.4056	64.4531	84.3395	64.4531	84.5055	64.4531	84.4664	64.4531	84.5948	64.4531	84.5775	64.4531	84.6694	64.4531	84.6659	64.4531	84.7243	64.4531	84.7265	64.4531	84.7546	64.4531	84.7561
67.3828	83.4841	67.3828	83.4748	67.3828	83.5092	67.3828	83.4805	67.3828	83.5504	67.3828	83.5002	67.3828	83.6075	67.3828	83.5328	67.3828	83.6795	67.3828	83.5775	67.3828	83.7646	67.3828	83.6336	67.3828	83.8601	67.3828	83.7008	67.3828	83.9628	67.3828	83.7788	67.3828	84.069	67.3828	83.867	67.3828	84.175	67.3828	83.9647	67.3828	84.2774	67.3828	84.0701	67.3828	84.3732	67.3828	84.1804	67.3828	84.4602	67.3828	84.2915	67.3828	84.5363	67.3828	84.3983	67.3828	84.5994	67.3828	84.4949	67.3828	84.6473	67.3828	84.5757	67.3828	84.6774	67.3828	84.6362	67.3828	84.6869	67.3828	84.6735
68.8477	83.5295	68.8477	83.5202	68.8477	83.5549	68.8477	83.5258	68.8477	83.5968	68.8477	83.5448	68.8477	83.6551	68.8477	83.5758	68.8477	83.7287	68.8477	83.6177	68.8477	83.8155	68.8477	83.6694	68.8477	83.9124	68.8477	83.7304	68.8477	84.0155	68.8477	83.8004	68.8477	84.1207	68.8477	83.879	68.8477	84.2238	68.8477	83.9658	68.8477	84.321	68.8477	84.0596	68.8477	84.4091	68.8477	84.1584	68.8477	84.4859	68.8477	84.2588	68.8477	84.5498	68.8477	84.3565	68.8477	84.5994	68.8477	84.4468	68.8477	84.6334	68.8477	84.5245	68.8477	84.6505	68.8477	84.5856	68.8477	84.6489	68.8477	84.6274
71.7773	83.6417	71.7773	83.6345	71.7773	83.664	71.7773	83.6407	71.7773	83.7022	71.7773	83.6582	71.7773	83.7566	71.7773	83.6853	71.7773	83.8262	71.7773	83.7203	71.7773	83.9089	71.7773	83.7619	71.7773	84.0013	71.7773	83.8092	71.7773	84.0993	71.7773	83.8622	71.7773	84.198	71.7773	83.9207	71.7773	84.2927	71.7773	83.985	71.7773	84.3789	71.7773	84.0547	71.7773	84.453	71.7773	84.1293	71.7773	84.5125	71.7773	84.2069	71.7773	84.5559	71.7773	84.2851	71.7773	84.5831	71.7773	84.3604	71.7773	84.5942	71.7773	84.4295	71.7773	84.5898	71.7773	84.489	71.7773	84.5704	71.7773	84.5365
74.707	83.8422	74.707	83.8383	74.707	83.8604	74.707	83.8466	74.707	83.8945	74.707	83.8647	74.707	83.9448	74.707	83.8904	74.707	84.0108	74.707	83.9214	74.707	84.0903	74.707	83.9562	74.707	84.1799	74.707	83.9937	74.707	84.2749	74.707	84.0334	74.707	84.37	74.707	84.0755	74.707	84.4596	74.707	84.1204	74.707	84.5384	74.707	84.169	74.707	84.6022	74.707	84.2215	74.707	84.6482	74.707	84.2781	74.707	84.6753	74.707	84.3378	74.707	84.6838	74.707	84.3993	74.707	84.6753	74.707	84.4603	74.707	84.6521	74.707	84.5185	74.707	84.6167	74.707	84.5714
77.6367	83.8916	77.6367	83.8871	77.6367	83.9108	77.6367	83.8949	77.6367	83.9463	77.6367	83.9123	77.6367	83.9987	77.6367	83.9363	77.6367	84.0673	77.6367	83.9645	77.6367	84.1497	77.6367	83.9946	77.6367	84.2421	77.6367	84.0251	77.6367	84.3394	77.6367	84.0556	77.6367	84.4356	77.6367	84.086	77.6367	84.5245	77.6367	84.1174	77.6367	84.6001	77.6367	84.1511	77.6367	84.6575	77.6367	84.1887	77.6367	84.6935	77.6367	84.2315	77.6367	84.7072	77.6367	84.2803	77.6367	84.6993	77.6367	84.335	77.6367	84.6726	77.6367	84.3943	77.6367	84.6308	77.6367	84.4565	77.6367	84.5782	77.6367	84.5188
79.1016	83.913	79.1016	83.9101	79.1016	83.9306	79.1016	83.9192	79.1016	83.9648	79.1016	83.9373	79.1016	84.0163	79.1016	83.9613	79.1016	84.0844	79.1016	83.9883	79.1016	84.1669	79.1016	84.0162	79.1016	84.2599	79.1016	84.0432	79.1016	84.3582	79.1016	84.0687	79.1016	84.4553	79.1016	84.093	79.1016	84.5447	79.1016	84.1173	79.1016	84.6199	79.1016	84.1434	79.1016	84.6757	79.1016	84.1734	79.1016	84.7087	79.1016	84.2094	79.1016	84.7176	79.1016	84.2528	79.1016	84.7035	79.1016	84.3042	79.1016	84.6694	79.1016	84.3628	79.1016	84.6198	79.1016	84.427	79.1016	84.5596	79.1016	84.4938
82.0312	84.0745	82.0312	84.0693	82.0312	84.0927	82.0312	84.0744	82.0312	84.126	82.0312	84.0865	82.0312	84.1754	82.0312	84.1024	82.0312	84.2405	82.0312	84.1191	82.0312	84.3189	82.0312	84.1343	82.0312	84.4069	82.0312	84.1462	82.0312	84.4989	82.0312	84.1544	82.0312	84.5884	82.0312	84.1595	82.0312	84.6684	82.0312	84.1632	82.0312	84.7323	82.0312	84.1683	82.0312	84.7745	82.0312	84.178	82.0312	84.7916	82.0312	84.1959	82.0312	84.7824	82.0312	84.2249	82.0312	84.7486	82.0312	84.2668	82.0312	84.6939	82.0312	84.3222	82.0312	84.6242	82.0312	84.3895	82.0312	84.5459	82.0312	84.4657
84.9609	84.2773	84.9609	84.265	84.9609	84.2996	84.9609	84.2602	84.9609	84.3336	84.9609	84.26	84.9609	84.3799	84.9609	84.2615	84.9609	84.4379	84.9609	84.2618	84.9609	84.5054	84.9609	84.2587	84.9609	84.5785	84.9609	84.2507	84.9609	84.6522	84.9609	84.2374	84.9609	84.7205	84.9609	84.2195	84.9609	84.7767	84.9609	84.1992	84.9609	84.815	84.9609	84.1797	84.9609	84.8305	84.9609	84.1651	84.9609	84.8203	84.9609	84.1601	84.9609	84.7842	84.9609	84.1687	84.9609	84.7248	84.9609	84.1942	84.9609	84.6472	84.9609	84.2382	84.9609	84.5582	84.9609	84.3002	84.9609	84.4659	84.9609	84.3777
87.8906	84.205	87.8906	84.1974	87.8906	84.2265	87.8906	84.2006	87.8906	84.2636	87.8906	84.2114	87.8906	84.3171	87.8906	84.226	87.8906	84.3864	87.8906	84.2407	87.8906	84.4691	87.8906	84.2525	87.8906	84.5613	87.8906	84.2592	87.8906	84.6574	87.8906	84.2596	87.8906	84.7504	87.8906	84.2541	87.8906	84.8326	87.8906	84.2448	87.8906	84.8962	87.8906	84.2348	87.8906	84.9348	87.8906	84.2289	87.8906	84.9438	87.8906	84.2321	87.8906	84.9216	87.8906	84.2493	87.8906	84.8702	87.8906	84.2842	87.8906	84.7943	87.8906	84.3389	87.8906	84.7016	87.8906	84.4126	87.8906	84.6011	87.8906	84.5021
90.8203	84.2566	90.8203	84.2585	90.8203	84.2694	90.8203	84.2712	90.8203	84.2994	90.8203	84.2906	90.8203	84.3482	90.8203	84.3123	90.8203	84.4155	90.8203	84.3323	90.8203	84.4993	90.8203	84.347	90.8203	84.5955	90.8203	84.354	90.8203	84.6978	90.8203	84.3522	90.8203	84.7986	90.8203	84.3423	90.8203	84.889	90.8203	84.3265	90.8203	84.9606	90.8203	84.3088	90.8203	85.0058	90.8203	84.2947	90.8203	85.0194	90.8203	84.2901	90.8203	84.9993	90.8203	84.3011	90.8203	84.947	90.8203	84.3323	90.8203	84.8677	90.8203	84.3862	90.8203	84.7694	90.8203	84.4624	90.8203	84.6622	90.8203	84.5567
95.2148	84.496	95.2148	84.5114	95.2148	84.491	95.2148	84.5324	95.2148	84.5005	95.2148	84.5543	95.2148	84.5276	95.2148	84.5724	95.2148	84.5733	95.2148	84.5823	95.2148	84.6368	95.2148	84.5806	95.2148	84.7145	95.2148	84.5653	95.2148	84.8005	95.2148	84.5356	95.2148	84.887	95.2148	84.4928	95.2148	84.9646	95.2148	84.4404	95.2148	85.0239	95.2148	84.384	95.2148	85.0564	95.2148	84.3309	95.2148	85.0558	95.2148	84.2898	95.2148	85.0193	95.2148	84.2692	95.2148	84.9484	95.2148	84.2764	95.2148	84.8489	95.2148	84.3158	95.2148	84.7304	95.2148	84.3876	95.2148	84.6054	95.2148	84.4871
98.1445	84.7155	98.1445	84.7272	98.1445	84.7126	98.1445	84.7431	98.1445	84.7225	98.1445	84.7585	98.1445	84.748	98.1445	84.7687	98.1445	84.7899	98.1445	84.7694	98.1445	84.8472	98.1445	84.7573	98.1445	84.9164	98.1445	84.7303	98.1445	84.9917	98.1445	84.6876	98.1445	85.0653	98.1445	84.6308	98.1445	85.1285	98.1445	84.5633	98.1445	85.172	98.1445	84.4908	98.1445	85.1877	98.1445	84.4212	98.1445	85.1696	98.1445	84.3636	98.1445	85.1154	98.1445	84.3277	98.1445	85.0271	98.1445	84.322	98.1445	84.9114	98.1445	84.3521	98.1445	84.779	98.1445	84.4192	98.1445	84.6435	98.1445	84.5193
101.074	85.0564	101.074	85.0636	101.074	85.0526	101.074	85.0706	101.074	85.0552	101.074	85.0734	101.074	85.0659	101.074	85.0677	101.074	85.0852	101.074	85.0495	101.074	85.1122	101.074	85.0154	101.074	85.1444	101.074	84.9634	101.074	85.1774	101.074	84.8929	101.074	85.2057	101.074	84.8054	101.074	85.2227	101.074	84.7048	101.074	85.2215	101.074	84.5973	101.074	85.1959	101.074	84.4915	101.074	85.1416	101.074	84.3979	101.074	85.0574	101.074	84.3273	101.074	84.9462	101.074	84.2898	101.074	84.815	101.074	84.2924	101.074	84.6749	101.074	84.3378	101.074	84.5394	101.074	84.4229
105.469	84.9264	105.469	84.9425	105.469	84.9167	105.469	84.9621	105.469	84.9166	105.469	84.9821	105.469	84.9284	105.469	84.9996	105.469	84.9539	105.469	85.0114	105.469	84.9926	105.469	85.0139	105.469	85.0418	105.469	85.0041	105.469	85.0965	105.469	84.9793	105.469	85.1491	105.469	84.9382	105.469	85.1908	105.469	84.8812	105.469	85.2129	105.469	84.8114	105.469	85.2078	105.469	84.734	105.469	85.1712	105.469	84.657	105.469	85.1032	105.469	84.5899	105.469	85.0085	105.469	84.5426	105.469	84.8968	105.469	84.524	105.469	84.7809	105.469	84.5399	105.469	84.6749	105.469	84.5915
108.398	85.0767	108.398	85.0959	108.398	85.0719	108.398	85.1252	108.398	85.084	108.398	85.1598	108.398	85.1141	108.398	85.1938	108.398	85.1612	108.398	85.2211	108.398	85.2221	108.398	85.2356	108.398	85.2911	108.398	85.2318	108.398	85.361	108.398	85.2057	108.398	85.4227	108.398	85.1554	108.398	85.4668	108.398	85.0817	108.398	85.4843	108.398	84.9889	108.398	85.4677	108.398	84.8847	108.398	85.4131	108.398	84.7797	108.398	85.3212	108.398	84.687	108.398	85.1981	108.398	84.6201	108.398	85.0553	108.398	84.591	108.398	84.9083	108.398	84.6071	108.398	84.7745	108.398	84.6702
112.793	85.2806	112.793	85.2852	112.793	85.2941	112.793	85.3042	112.793	85.3272	112.793	85.3321	112.793	85.3793	112.793	85.362	112.793	85.4476	112.793	85.3865	112.793	85.5274	112.793	85.3985	112.793	85.6124	112.793	85.3918	112.793	85.6951	112.793	85.3623	112.793	85.7667	112.793	85.3084	112.793	85.818	112.793	85.2319	112.793	85.8397	112.793	85.1378	112.793	85.8242	112.793	85.0349	112.793	85.767	112.793	84.935	112.793	85.6679	112.793	84.8517	112.793	85.5327	112.793	84.799	112.793	85.3727	112.793	84.7885	112.793	85.2042	112.793	84.8273	112.793	85.0459	112.793	84.9156
117.188	85.548	117.188	85.5565	117.188	85.5519	117.188	85.5732	117.188	85.5709	117.188	85.5927	117.188	85.6058	117.188	85.6089	117.188	85.6557	117.188	85.6157	117.188	85.7185	117.188	85.608	117.188	85.7903	117.188	85.582	117.188	85.8659	117.188	85.5362	117.188	85.9382	117.188	85.4711	117.188	85.9984	117.188	85.3903	117.188	86.0366	117.188	85.3	117.188	86.0435	117.188	85.209	117.188	86.0118	117.188	85.1282	117.188	85.9386	117.188	85.0693	117.188	85.8263	117.188	85.0438	117.188	85.6835	117.188	85.0601	117.188	85.5244	117.188	85.1221	117.188	85.3664	117.188	85.2273
120.117	85.7336	120.117	85.7228	120.117	85.7523	120.117	85.717	120.117	85.7804	120.117	85.712	120.117	85.8182	120.117	85.7028	120.117	85.8648	120.117	85.6845	120.117	85.9183	120.117	85.6526	120.117	85.9757	120.117	85.6037	120.117	86.0328	120.117	85.5367	120.117	86.0837	120.117	85.4528	120.117	86.1211	120.117	85.3559	120.117	86.1363	120.117	85.2529	120.117	86.1214	120.117	85.1533	120.117	86.07	120.117	85.0685	120.117	85.9795	120.117	85.0105	120.117	85.8525	120.117	84.9902	120.117	85.6969	120.117	85.0154	120.117	85.526	120.117	85.0884	120.117	85.3564	120.117	85.2055
124.512	86.0572	124.512	86.0519	124.512	86.0682	124.512	86.0497	124.512	86.0864	124.512	86.0463	124.512	86.1124	124.512	86.0367	124.512	86.1457	124.512	86.0152	124.512	86.185	124.512	85.9766	124.512	86.228	124.512	85.9171	124.512	86.2706	124.512	85.8348	124.512	86.3069	124.512	85.7307	124.512	86.329	124.512	85.6088	124.512	86.3279	124.512	85.4767	124.512	86.2948	124.512	85.3453	124.512	86.2236	124.512	85.2277	124.512	86.112	124.512	85.1383	124.512	85.9636	124.512	85.0903	124.512	85.788	124.512	85.0939	124.512	85.6005	124.512	85.1532	124.512	85.4199	124.512	85.2654
128.906	86.1235	128.906	86.1274	128.906	86.1214	128.906	86.1296	128.906	86.124	128.906	86.1257	128.906	86.1335	128.906	86.111	128.906	86.1512	128.906	86.0808	128.906	86.1772	128.906	86.031	128.906	86.2101	128.906	85.9586	128.906	86.2461	128.906	85.8628	128.906	86.2789	128.906	85.7451	128.906	86.2998	128.906	85.6104	128.906	86.2989	128.906	85.4664	128.906	86.2664	128.906	85.3242	128.906	86.1953	128.906	85.1972	128.906	86.0826	128.906	85.1	128.906	85.9317	128.906	85.0462	128.906	85.7524	128.906	85.0461	128.906	85.5605	128.906	85.1043	128.906	85.3755	128.906	85.2178
133.301	86.1349	133.301	86.1249	133.301	86.1462	133.301	86.1133	133.301	86.1612	133.301	86.0967	133.301	86.1823	133.301	86.0717	133.301	86.2112	133.301	86.0344	133.301	86.2487	133.301	85.9811	133.301	86.2938	133.301	85.9092	133.301	86.3429	133.301	85.8176	133.301	86.3895	133.301	85.7076	133.301	86.4244	133.301	85.5836	133.301	86.4367	133.301	85.4528	133.301	86.4159	133.301	85.3261	133.301	86.3538	133.301	85.2165	133.301	86.2467	133.301	85.1385	133.301	86.0971	133.301	85.1053	133.301	85.9143	133.301	85.1269	133.301	85.7138	133.301	85.2068	133.301	85.5155	133.301	85.3404
139.16	86.1581	139.16	86.1287	139.16	86.1889	139.16	86.0991	139.16	86.2227	139.16	86.067	139.16	86.2606	139.16	86.0298	139.16	86.303	139.16	85.9844	139.16	86.3498	139.16	85.9274	139.16	86.3995	139.16	85.8561	139.16	86.4489	139.16	85.7691	139.16	86.4924	139.16	85.6669	139.16	86.5223	139.16	85.5529	139.16	86.5293	139.16	85.4337	139.16	86.5034	139.16	85.3192	139.16	86.437	139.16	85.2219	139.16	86.3261	139.16	85.1555	139.16	86.1729	139.16	85.1332	139.16	85.986	139.16	85.1646	139.16	85.7807	139.16	85.2533	139.16	85.5766	139.16	85.3947
143.555	86.2975	143.555	86.2615	143.555	86.3343	143.555	86.2253	143.555	86.3722	143.555	86.1864	143.555	86.4104	143.555	86.1416	143.555	86.4478	143.555	86.0869	143.555	86.4831	143.555	86.0183	143.555	86.5146	143.555	85.9329	143.555	86.54	143.555	85.8294	143.555	86.5557	143.555	85.7094	143.555	86.5566	143.555	85.5776	143.555	86.5358	143.555	85.4424	143.555	86.4859	143.555	85.3149	143.555	86.4009	143.555	85.2085	143.555	86.2782	143.555	85.1366	143.555	86.1198	143.555	85.1113	143.555	85.9337	143.555	85.1404	143.555	85.7335	143.555	85.2256	143.555	85.5366	143.555	85.3616
147.949	86.5157	147.949	86.48	147.949	86.55	147.949	86.4423	147.949	86.5826	147.949	86.4006	147.949	86.6129	147.949	86.3519	147.949	86.6401	147.949	86.2924	147.949	86.6636	147.949	86.2179	147.949	86.6826	147.949	86.1252	147.949	86.6955	147.949	86.0128	147.949	86.6989	147.949	85.8819	147.949	86.6873	147.949	85.7372	147.949	86.6536	147.949	85.587	147.949	86.5903	147.949	85.4428	147.949	86.4915	147.949	85.3189	147.949	86.3554	147.949	85.23	147.949	86.1851	147.949	85.1892	147.949	85.9898	147.949	85.2055	147.949	85.7837	147.949	85.2812	147.949	85.5847	147.949	85.4116
153.809	86.6249	153.809	86.5885	153.809	86.6521	153.809	86.5419	153.809	86.6712	153.809	86.4831	153.809	86.6828	153.809	86.4099	153.809	86.688	153.809	86.3199	153.809	86.6885	153.809	86.2113	153.809	86.6856	153.809	86.0837	153.809	86.6793	153.809	85.9388	153.809	86.6669	153.809	85.7807	153.809	86.6426	153.809	85.6162	153.809	86.598	153.809	85.4547	153.809	86.5242	153.809	85.3071	153.809	86.4142	153.809	85.1856	153.809	86.2659	153.809	85.1018	153.809	86.0835	153.809	85.0659	153.809	85.8778	153.809	85.0847	153.809	85.6647	153.809	85.1604	153.809	85.4626	153.809	85.2896
159.668	86.6972	159.668	86.6706	159.668	86.7154	159.668	86.6326	159.668	86.7281	159.668	86.5799	159.668	86.7384	159.668	86.5084	159.668	86.75	159.668	86.4142	159.668	86.7661	159.668	86.2945	159.668	86.7884	159.668	86.1485	159.668	86.8154	159.668	85.9789	159.668	86.8409	159.668	85.7921	159.668	86.8547	159.668	85.5984	159.668	86.8434	159.668	85.4114	159.668	86.7939	159.668	85.2466	159.668	86.6962	159.668	85.1197	159.668	86.5462	159.668	85.0445	159.668	86.3474	159.668	85.0311	159.668	86.1117	159.668	85.0846	159.668	85.8576	159.668	85.2043	159.668	85.6072	159.668	85.383
165.527	86.755	165.527	86.7126	165.527	86.7906	165.527	86.6615	165.527	86.8216	165.527	86.6001	165.527	86.8503	165.527	86.5268	165.527	86.8795	165.527	86.4397	165.527	86.9111	165.527	86.3373	165.527	86.9461	165.527	86.2191	165.527	86.9829	165.527	86.0857	165.527	87.0162	165.527	85.9401	165.527	87.0371	165.527	85.7879	165.527	87.0335	165.527	85.638	165.527	86.993	165.527	85.502	165.527	86.9056	165.527	85.3935	165.527	86.7665	165.527	85.3262	165.527	86.5784	165.527	85.3124	165.527	86.3522	165.527	85.3605	165.527	86.1059	165.527	85.473	165.527	85.8622	165.527	85.6446
171.387	86.8737	171.387	86.8109	171.387	86.9227	171.387	86.7352	171.387	86.9572	171.387	86.647	171.387	86.9777	171.387	86.5457	171.387	86.9862	171.387	86.4298	171.387	86.9861	171.387	86.298	171.387	86.9806	171.387	86.15	171.387	86.9715	171.387	85.9881	171.387	86.9571	171.387	85.8176	171.387	86.9323	171.387	85.6475	171.387	86.8887	171.387	85.4893	171.387	86.8171	171.387	85.3561	171.387	86.7103	171.387	85.2598	171.387	86.5652	171.387	85.2103	171.387	86.3846	171.387	85.2139	171.387	86.1773	171.387	85.2728	171.387	85.9569	171.387	85.3852	171.387	85.7403	171.387	85.5447
177.246	86.6987	177.246	86.628	177.246	86.7571	177.246	86.5463	177.246	86.8026	177.246	86.4544	177.246	86.8361	177.246	86.3514	177.246	86.8604	177.246	86.2354	177.246	86.8792	177.246	86.104	177.246	86.8957	177.246	85.9558	177.246	86.9107	177.246	85.7919	177.246	86.921	177.246	85.6176	177.246	86.9193	177.246	85.4425	177.246	86.895	177.246	85.28	177.246	86.8368	177.246	85.1455	177.246	86.7361	177.246	85.0535	177.246	86.589	177.246	85.0156	177.246	86.3981	177.246	85.0381	177.246	86.173	177.246	85.1223	177.246	85.9284	177.246	85.2644	177.246	85.6829	177.246	85.4557
183.105	86.9743	183.105	86.8624	183.105	87.0638	183.105	86.7323	183.105	87.129	183.105	86.5893	183.105	87.1694	183.105	86.4378	183.105	87.1857	183.105	86.2804	183.105	87.1783	183.105	86.1177	183.105	87.1472	183.105	85.9487	183.105	87.0925	183.105	85.7736	183.105	87.0151	183.105	85.5959	183.105	86.9174	183.105	85.4239	183.105	86.8029	183.105	85.2704	183.105	86.6751	183.105	85.1507	183.105	86.5367	183.105	85.0781	183.105	86.3882	183.105	85.0609	183.105	86.2279	183.105	85.1005	183.105	86.0546	183.105	85.1922	183.105	85.8695	183.105	85.3272	183.105	85.679	183.105	85.4939
188.965	87.0335	188.965	86.971	188.965	87.0759	188.965	86.8898	188.965	87.097	188.965	86.7908	188.965	87.0971	188.965	86.6727	188.965	87.0784	188.965	86.532	188.965	87.044	188.965	86.3638	188.965	86.9971	188.965	86.1629	188.965	86.9389	188.965	85.9271	188.965	86.8668	188.965	85.66	188.965	86.7748	188.965	85.3733	188.965	86.6548	188.965	85.087	188.965	86.5	188.965	84.8278	188.965	86.3076	188.965	84.6238	188.965	86.0808	188.965	84.497	188.965	85.8283	188.965	84.4584	188.965	85.5618	188.965	84.5064	188.965	85.2947	188.965	84.6301	188.965	85.0404	188.965	84.8137
196.289	87.1026	196.289	87.0215	196.289	87.1534	196.289	86.9157	196.289	87.1718	196.289	86.7922	196.289	87.1596	196.289	86.6562	196.289	87.1222	196.289	86.5093	196.289	87.0662	196.289	86.3492	196.289	86.9986	196.289	86.1712	196.289	86.9247	196.289	85.9715	196.289	86.8471	196.289	85.7504	196.289	86.7647	196.289	85.5148	196.289	86.6722	196.289	85.2797	196.289	86.5612	196.289	85.0655	196.289	86.4229	196.289	84.895	196.289	86.251	196.289	84.7872	196.289	86.0447	196.289	84.7541	196.289	85.81	196.289	84.7983	196.289	85.5601	196.289	84.9147	196.289	85.3138	196.289	85.092
203.613	87.0933	203.613	86.9768	203.613	87.1756	203.613	86.8332	203.613	87.2202	203.613	86.6717	203.613	87.2263	203.613	86.5008	203.613	87.1946	203.613	86.3252	203.613	87.1261	203.613	86.1448	203.613	87.0223	203.613	85.9553	203.613	86.8861	203.613	85.7521	203.613	86.7223	203.613	85.5344	203.613	86.5378	203.613	85.3088	203.613	86.3412	203.613	85.0904	203.613	86.1421	203.613	84.9003	203.613	85.9496	203.613	84.76	203.613	85.7696	203.613	84.6847	203.613	85.6029	203.613	84.6789	203.613	85.4447	203.613	84.7364	203.613	85.2889	203.613	84.8426	203.613	85.1327	203.613	84.9801
210.938	86.9053	210.938	86.8384	210.938	86.9415	210.938	86.7469	210.938	86.944	210.938	86.6376	210.938	86.914	210.938	86.516	210.938	86.8571	210.938	86.3836	210.938	86.7826	210.938	86.2379	210.938	86.702	210.938	86.0736	210.938	86.625	210.938	85.8858	210.938	86.5547	210.938	85.6736	210.938	86.4849	210.938	85.4427	210.938	86.4007	210.938	85.2066	210.938	86.2845	210.938	84.9853	210.938	86.1245	210.938	84.8013	210.938	85.9205	210.938	84.6742	210.938	85.6851	210.938	84.6153	210.938	85.4391	210.938	84.6256	210.938	85.204	210.938	84.6987	210.938	84.9959	210.938	84.8249
218.262	86.6431	218.262	86.5314	218.262	86.7298	218.262	86.401	218.262	86.786	218.262	86.2573	218.262	86.8089	218.262	86.1032	218.262	86.799	218.262	85.9384	218.262	86.7616	218.262	85.7606	218.262	86.7058	218.262	85.5679	218.262	86.6423	218.262	85.3624	218.262	86.5788	218.262	85.152	218.262	86.5157	218.262	84.9506	218.262	86.4452	218.262	84.7764	218.262	86.3542	218.262	84.6469	218.262	86.2303	218.262	84.5747	218.262	86.0679	218.262	84.5646	218.262	85.8711	218.262	84.6129	218.262	85.6526	218.262	84.711	218.262	85.4288	218.262	84.849	218.262	85.2142	218.262	85.0188
225.586	86.6817	225.586	86.6194	225.586	86.7057	225.586	86.5279	225.586	86.6872	225.586	86.418	225.586	86.6286	225.586	86.2991	225.586	86.5399	225.586	86.1769	225.586	86.4391	225.586	86.0513	225.586	86.3481	225.586	85.9176	225.586	86.2864	225.586	85.769	225.586	86.2632	225.586	85.6008	225.586	86.2713	225.586	85.4142	225.586	86.2894	225.586	85.219	225.586	86.2895	225.586	85.0341	225.586	86.2464	225.586	84.8837	225.586	86.1461	225.586	84.7912	225.586	85.9886	225.586	84.7718	225.586	85.7867	225.586	84.8276	225.586	85.561	225.586	84.95	225.586	85.3335	225.586	85.1241
232.91	86.4876	232.91	86.4015	232.91	86.5257	232.91	86.271	232.91	86.5141	232.91	86.1021	232.91	86.4535	232.91	85.9031	232.91	86.3491	232.91	85.6856	232.91	86.2135	232.91	85.465	232.91	86.0694	232.91	85.2608	232.91	85.9467	232.91	85.0939	232.91	85.8739	232.91	84.9814	232.91	85.8656	232.91	84.9308	232.91	85.9143	232.91	84.9373	232.91	85.9913	232.91	84.9864	232.91	86.0589	232.91	85.0602	232.91	86.0844	232.91	85.1445	232.91	86.0512	232.91	85.2329	232.91	85.9618	232.91	85.3267	232.91	85.834	232.91	85.432	232.91	85.6913	232.91	85.5537
241.699	86.3977	241.699	86.2402	241.699	86.5073	241.699	86.048	241.699	86.5565	241.699	85.8326	241.699	86.5367	241.699	85.6015	241.699	86.4478	241.699	85.3583	241.699	86.3007	241.699	85.1038	241.699	86.1162	241.699	84.8405	241.699	85.9193	241.699	84.5771	241.699	85.7319	241.699	84.3321	241.699	85.5687	241.699	84.1321	241.699	85.4359	241.699	84.0041	241.699	85.3331	241.699	83.9632	241.699	85.2534	241.699	84.0049	241.699	85.1842	241.699	84.1071	241.699	85.1103	241.699	84.2412	241.699	85.0201	241.699	84.3842	241.699	84.9113	241.699	84.5241	241.699	84.7887	241.699	84.6588
250.488	86.4842	250.488	86.3368	250.488	86.5828	250.488	86.1521	250.488	86.6211	250.488	85.9382	250.488	86.592	250.488	85.6978	250.488	86.4973	250.488	85.4291	250.488	86.351	250.488	85.1276	250.488	86.1773	250.488	84.7913	250.488	86.0034	250.488	84.4257	250.488	85.8486	250.488	84.0493	250.488	85.715	250.488	83.6949	250.488	85.5863	250.488	83.4045	250.488	85.4379	250.488	83.2168	250.488	85.251	250.488	83.1507	250.488	85.0234	250.488	83.197	250.488	84.771	250.488	83.3242	250.488	84.5177	250.488	83.4954	250.488	84.2824	250.488	83.6825	250.488	84.07	250.488	83.8733
259.277	86.6703	259.277	86.4936	259.277	86.7903	259.277	86.2635	259.277	86.8499	259.277	85.9825	259.277	86.8471	259.277	85.6542	259.277	86.7854	259.277	85.2865	259.277	86.6764	259.277	84.8935	259.277	86.5376	259.277	84.4969	259.277	86.3875	259.277	84.1238	259.277	86.2393	259.277	83.8029	259.277	86.0972	259.277	83.5581	259.277	85.9562	259.277	83.4027	259.277	85.8036	259.277	83.3379	259.277	85.6248	259.277	83.3536	259.277	85.4094	259.277	83.4336	259.277	85.1578	259.277	83.5603	259.277	84.883	259.277	83.7195	259.277	84.6059	259.277	83.9034	259.277	84.3454	259.277	84.1111
268.066	86.4197	268.066	86.2084	268.066	86.5559	268.066	85.934	268.066	86.606	268.066	85.6066	268.066	86.5652	268.066	85.235	268.066	86.4425	268.066	84.8281	268.066	86.2644	268.066	84.3959	268.066	86.0693	268.066	83.9508	268.066	85.8933	268.066	83.5088	268.066	85.7545	268.066	83.0922	268.066	85.646	268.066	82.7305	268.066	85.5431	268.066	82.4568	268.066	85.4155	268.066	82.2978	268.066	85.2389	268.066	82.2614	268.066	84.9996	268.066	82.3333	268.066	84.6967	268.066	82.4867	268.066	84.3432	268.066	82.6973	268.066	83.9648	268.066	82.9528	268.066	83.5927	268.066	83.2516
276.855	86.121	276.855	85.9607	276.855	86.2154	276.855	85.7504	276.855	86.2307	276.855	85.5033	276.855	86.1632	276.855	85.2273	276.855	86.0232	276.855	84.9273	276.855	85.8341	276.855	84.6077	276.855	85.6263	276.855	84.2773	276.855	85.431	276.855	83.9528	276.855	85.2772	276.855	83.6595	276.855	85.1868	276.855	83.4259	276.855	85.1675	276.855	83.2731	276.855	85.204	276.855	83.205	276.855	85.2572	276.855	83.21	276.855	85.2746	276.855	83.2731	276.855	85.2093	276.855	83.3881	276.855	85.0373	276.855	83.5605	276.855	84.7674	276.855	83.7986	276.855	84.4375	276.855	84.0993
287.109	85.6328	287.109	85.5598	287.109	85.6608	287.109	85.4553	287.109	85.6343	287.109	85.3297	287.109	85.5533	287.109	85.1841	287.109	85.4308	287.109	85.007	287.109	85.294	287.109	84.7774	287.109	85.1793	287.109	84.4763	287.109	85.1187	287.109	84.103	287.109	85.1207	287.109	83.6931	287.109	85.161	287.109	83.3257	287.109	85.1984	287.109	83.1023	287.109	85.2045	287.109	83.0905	287.109	85.1833	287.109	83.2785	287.109	85.1609	287.109	83.592	287.109	85.1548	287.109	83.9485	287.109	85.1516	287.109	84.2924	287.109	85.1155	287.109	84.595	287.109	85.0155	287.109	84.8402
297.363	85.9702	297.363	85.7748	297.363	86.0784	297.363	85.5079	297.363	86.0854	297.363	85.1902	297.363	85.979	297.363	84.8518	297.363	85.7519	297.363	84.5285	297.363	85.4062	297.363	84.2485	297.363	84.9578	297.363	84.0153	297.363	84.446	297.363	83.8039	297.363	83.9461	297.363	83.5783	297.363	83.5699	297.363	83.3196	297.363	83.4224	297.363	83.0497	297.363	83.5215	297.363	82.8344	297.363	83.7716	297.363	82.7557	297.363	84.0357	297.363	82.8575	297.363	84.2179	297.363	83.1088	297.363	84.2881	297.363	83.4271	297.363	84.2593	297.363	83.7318	297.363	84.153	297.363	83.9776
307.617	86.2626	307.617	86.1012	307.617	86.3505	307.617	85.8767	307.617	86.3493	307.617	85.5888	307.617	86.2474	307.617	85.2295	307.617	86.0447	307.617	84.792	307.617	85.7565	307.617	84.283	307.617	85.4123	307.617	83.7322	307.617	85.0493	307.617	83.1969	307.617	84.7014	307.617	82.7534	307.617	84.3889	307.617	82.4713	307.617	84.1198	307.617	82.3811	307.617	83.9054	307.617	82.4628	307.617	83.7716	307.617	82.6652	307.617	83.7442	307.617	82.9351	307.617	83.8155	307.617	83.2301	307.617	83.9324	307.617	83.517	307.617	84.0234	307.617	83.7654	307.617	84.0347	307.617	83.9459
319.336	86.1815	319.336	85.9644	319.336	86.3103	319.336	85.6855	319.336	86.3311	319.336	85.3703	319.336	86.2344	319.336	85.0344	319.336	86.0207	319.336	84.6771	319.336	85.699	319.336	84.2849	319.336	85.2856	319.336	83.8444	319.336	84.8037	319.336	83.3603	319.336	84.2854	319.336	82.8733	319.336	83.7766	319.336	82.4647	319.336	83.3402	319.336	82.2325	319.336	83.0446	319.336	82.2354	319.336	82.9315	319.336	82.4485	319.336	82.9885	319.336	82.7811	319.336	83.1571	319.336	83.1317	319.336	83.3659	319.336	83.426	319.336	83.5543	319.336	83.6229	319.336	83.6777	319.336	83.7061
329.59	85.7118	329.59	85.5056	329.59	85.8243	329.59	85.228	329.59	85.8288	329.59	84.9067	329.59	85.7194	329.59	84.5671	329.59	85.4985	329.59	84.2213	329.59	85.1788	329.59	83.8628	329.59	84.7837	329.59	83.4722	329.59	84.3424	329.59	83.0348	329.59	83.8816	329.59	82.5621	329.59	83.4209	329.59	82.1095	329.59	82.9818	329.59	81.7727	329.59	82.6042	329.59	81.6474	329.59	82.346	329.59	81.7634	329.59	82.2537	329.59	82.0562	329.59	82.3245	329.59	82.4095	329.59	82.5041	329.59	82.7166	329.59	82.716	329.59	82.9103	329.59	82.8883	329.59	82.9648
341.309	86.142	341.309	85.9392	341.309	86.2254	341.309	85.6274	341.309	86.1838	341.309	85.2232	341.309	86.0186	341.309	84.7524	341.309	85.744	341.309	84.2494	341.309	85.3907	341.309	83.7516	341.309	85.0009	341.309	83.288	341.309	84.6137	341.309	82.8712	341.309	84.2466	341.309	82.5023	341.309	83.8912	341.309	82.1887	341.309	83.5312	341.309	81.9625	341.309	83.1765	341.309	81.8776	341.309	82.8847	341.309	81.9725	341.309	82.7366	341.309	82.2287	341.309	82.7687	341.309	82.5698	341.309	82.932	341.309	82.9018	341.309	83.1256	341.309	83.15	341.309	83.2575	341.309	83.2722
353.027	85.9815	353.027	85.7332	353.027	86.1102	353.027	85.3866	353.027	86.105	353.027	84.966	353.027	85.9638	353.027	84.4938	353.027	85.7024	353.027	83.9855	353.027	85.3543	353.027	83.4464	353.027	84.9603	353.027	82.8763	353.027	84.5524	353.027	82.2816	353.027	84.1476	353.027	81.6963	353.027	83.7521	353.027	81.1993	353.027	83.3674	353.027	80.9014	353.027	82.9926	353.027	80.8783	353.027	82.6348	353.027	81.1063	353.027	82.3274	353.027	81.4798	353.027	82.1341	353.027	81.8802	353.027	82.1073	353.027	82.2156	353.027	82.2255	353.027	82.4248	353.027	82.3876	353.027	82.4777
366.211	86.3134	366.211	86.0423	366.211	86.4422	366.211	85.6467	366.211	86.4267	366.211	85.159	366.211	86.2777	366.211	84.619	366.211	86.0108	366.211	84.0612	366.211	85.6374	366.211	83.502	366.211	85.1614	366.211	82.94	366.211	84.5882	366.211	82.3704	366.211	83.9417	366.211	81.8098	366.211	83.2757	366.211	81.3159	366.211	82.6724	366.211	80.982	366.211	82.2208	366.211	80.8916	366.211	81.975	366.211	81.0528	366.211	81.9149	366.211	81.3797	366.211	81.9601	366.211	81.7433	366.211	82.0352	366.211	82.0345	366.211	82.1122	366.211	82.1971	366.211	82.1869	366.211	82.233
379.395	85.9892	379.395	85.7318	379.395	86.1624	379.395	85.41	379.395	86.2331	379.395	85.0437	379.395	86.1859	379.395	84.6502	379.395	86.0124	379.395	84.2392	379.395	85.7133	379.395	83.8077	379.395	85.298	379.395	83.339	379.395	84.7791	379.395	82.8119	379.395	84.1704	379.395	82.2219	379.395	83.4961	379.395	81.6107	379.395	82.8141	379.395	81.0877	379.395	82.2414	379.395	80.8037	379.395	81.9311	379.395	80.8521	379.395	81.9568	379.395	81.1819	379.395	82.2178	379.395	81.6413	379.395	82.5208	379.395	82.0882	379.395	82.7228	379.395	82.4427	379.395	82.773	379.395	82.6751
392.578	85.7597	392.578	85.5079	392.578	85.9059	392.578	85.1749	392.578	85.9235	392.578	84.7826	392.578	85.8005	392.578	84.3487	392.578	85.5427	392.578	83.8873	392.578	85.1733	392.578	83.4098	392.578	84.7254	392.578	82.9264	392.578	84.2357	392.578	82.4478	392.578	83.7398	392.578	81.9861	392.578	83.2614	392.578	81.5608	392.578	82.8008	392.578	81.2127	392.578	82.3464	392.578	81.009	392.578	81.9204	392.578	81.0144	392.578	81.6208	392.578	81.2338	392.578	81.5706	392.578	81.5893	392.578	81.7742	392.578	81.9624	392.578	82.0804	392.578	82.2478	392.578	82.3135	392.578	82.3755
405.762	85.5942	405.762	85.2563	405.762	85.81	405.762	84.8419	405.762	85.8704	405.762	84.3906	405.762	85.7652	405.762	83.9192	405.762	85.5068	405.762	83.4144	405.762	85.1227	405.762	82.8463	405.762	84.6482	405.762	82.1983	405.762	84.1244	405.762	81.501	405.762	83.5983	405.762	80.8482	405.762	83.1155	405.762	80.3689	405.762	82.7058	405.762	80.1567	405.762	82.3711	405.762	80.2142	405.762	82.0933	405.762	80.4721	405.762	81.8676	405.762	80.8438	405.762	81.73	405.762	81.2517	405.762	81.7275	405.762	81.6245	405.762	81.8427	405.762	81.8948	405.762	81.9759	405.762	82.0135
420.41	85.7642	420.41	85.4954	420.41	85.9168	420.41	85.1437	420.41	85.9316	420.41	84.7405	420.41	85.8057	420.41	84.3016	420.41	85.5528	420.41	83.8216	420.41	85.1961	420.41	83.2794	420.41	84.7623	420.41	82.652	420.41	84.2796	420.41	81.9331	420.41	83.7678	420.41	81.1549	420.41	83.225	420.41	80.4129	420.41	82.64	420.41	79.8757	420.41	82.047	420.41	79.7146	420.41	81.5787	420.41	79.9549	420.41	81.4004	420.41	80.4399	420.41	81.5236	420.41	80.973	420.41	81.7752	420.41	81.431	420.41	81.9758	420.41	81.7673	420.41	82.0449	420.41	81.9729
435.059	85.4906	435.059	85.2484	435.059	85.6163	435.059	84.9013	435.059	85.6253	435.059	84.4694	435.059	85.5242	435.059	83.9728	435.059	85.3202	435.059	83.4225	435.059	85.0199	435.059	82.8187	435.059	84.6365	435.059	82.1657	435.059	84.1956	435.059	81.4958	435.059	83.7286	435.059	80.884	435.059	83.2572	435.059	80.431	435.059	82.7852	435.059	80.2177	435.059	82.3125	435.059	80.2665	435.059	81.8708	435.059	80.5407	435.059	81.5621	435.059	80.9682	435.059	81.5214	435.059	81.461	435.059	81.7634	435.059	81.9267	435.059	82.1208	435.059	82.2787	435.059	82.3871	435.059	82.4459
451.172	85.9826	451.172	85.7869	451.172	86.0512	451.172	85.4369	451.172	85.9999	451.172	84.9071	451.172	85.8133	451.172	84.1989	451.172	85.4759	451.172	83.3521	451.172	85.006	451.172	82.4315	451.172	84.4659	451.172	81.4878	451.172	83.9292	451.172	80.5235	451.172	83.4335	451.172	79.5127	451.172	82.9629	451.172	78.5123	451.172	82.457	451.172	77.8245	451.172	81.8372	451.172	77.8899	451.172	81.0775	451.172	78.7103	451.172	80.3071	451.172	79.8094	451.172	79.8528	451.172	80.7913	451.172	80.0071	451.172	81.4835	451.172	80.6398	451.172	81.8185	451.172	81.3302	451.172	81.7636
465.82	85.9216	465.82	85.655	465.82	86.0309	465.82	85.2586	465.82	85.9607	465.82	84.7535	465.82	85.7094	465.82	84.1506	465.82	85.3029	465.82	83.4527	465.82	84.7867	465.82	82.658	465.82	84.209	465.82	81.7655	465.82	83.6085	465.82	80.787	465.82	83.0125	465.82	79.7734	465.82	82.4417	465.82	78.8575	465.82	81.9174	465.82	78.2771	465.82	81.4644	465.82	78.2747	465.82	81.1059	465.82	78.8711	465.82	80.8705	465.82	79.8167	465.82	80.8185	465.82	80.7968	465.82	81.0194	465.82	81.5822	465.82	81.437	465.82	82.0428	465.82	81.8817	465.82	82.1303
483.398	85.7321	483.398	85.5896	483.398	85.7416	483.398	85.309	483.398	85.6195	483.398	84.8865	483.398	85.3662	483.398	84.3262	483.398	84.9978	483.398	83.6461	483.398	84.5678	483.398	82.8786	483.398	84.1555	483.398	82.0548	483.398	83.8049	483.398	81.177	483.398	83.4691	483.398	80.221	483.398	83.0361	483.398	79.2194	483.398	82.4276	483.398	78.4143	483.398	81.7029	483.398	78.2306	483.398	81.0763	483.398	78.7841	483.398	80.7532	483.398	79.6857	483.398	80.7353	483.398	80.5364	483.398	80.8957	483.398	81.1572	483.398	81.1438	483.398	81.4976	483.398	81.4047	483.398	81.5609
499.512	85.9	499.512	85.6683	499.512	85.9711	499.512	85.2848	499.512	85.8721	499.512	84.7601	499.512	85.6139	499.512	84.1241	499.512	85.2556	499.512	83.4381	499.512	84.8909	499.512	82.7792	499.512	84.5713	499.512	82.188	499.512	84.245	499.512	81.6221	499.512	83.7932	499.512	80.9732	499.512	83.1103	499.512	80.1611	499.512	82.1727	499.512	79.2709	499.512	81.1134	499.512	78.6692	499.512	80.2804	499.512	78.8206	499.512	80.0945	499.512	79.7072	499.512	80.5946	499.512	80.8326	499.512	81.371	499.512	81.7816	499.512	82.0509	499.512	82.3816	499.512	82.48	499.512	82.6043
517.09	85.7097	517.09	85.3897	517.09	85.7951	517.09	84.9024	517.09	85.6475	517.09	84.3667	517.09	85.3362	517.09	83.9051	517.09	84.9667	517.09	83.5711	517.09	84.614	517.09	83.3061	517.09	84.2785	517.09	82.9751	517.09	83.9222	517.09	82.449	517.09	83.5287	517.09	81.6721	517.09	83.0961	517.09	80.6919	517.09	82.5693	517.09	79.6848	517.09	81.8146	517.09	78.9919	517.09	80.7535	517.09	79.0067	517.09	79.736	517.09	79.7773	517.09	79.7065	517.09	80.9132	517.09	80.8309	517.09	81.9945	517.09	82.1071	517.09	82.7724	517.09	82.9053	517.09	83.1086
536.133	85.8902	536.133	85.5003	536.133	85.9735	536.133	84.8459	536.133	85.7547	536.133	84.015	536.133	85.288	536.133	83.1413	536.133	84.6685	536.133	82.3818	536.133	84.0004	536.133	81.8502	536.133	83.367	536.133	81.5327	536.133	82.8339	536.133	81.2845	536.133	82.4605	536.133	80.9423	536.133	82.2649	536.133	80.462	536.133	82.159	536.133	79.9879	536.133	81.9555	536.133	79.7927	536.133	81.4723	536.133	80.0631	536.133	80.7481	536.133	80.7343	536.133	80.3227	536.133	81.5823	536.133	80.8248	536.133	82.3792	536.133	81.8842	536.133	82.9356	536.133	82.7447	536.133	83.095
555.176	85.994	555.176	85.655	555.176	86.0573	555.176	85.0788	555.176	85.8535	555.176	84.333	555.176	85.432	555.176	83.4871	555.176	84.8525	555.176	82.6013	555.176	84.159	555.176	81.7296	555.176	83.3766	555.176	80.8889	555.176	82.5126	555.176	80.0173	555.176	81.5758	555.176	79.0407	555.176	80.6693	555.176	78.0298	555.176	80.0701	555.176	77.3159	555.176	80.0081	555.176	77.3391	555.176	80.2655	555.176	78.1156	555.176	80.4253	555.176	79.2188	555.176	80.4619	555.176	80.315	555.176	80.7518	555.176	81.2612	555.176	81.4049	555.176	81.9429	555.176	82.0168	555.176	82.224
574.219	86.0466	574.219	85.7525	574.219	86.1694	574.219	85.327	574.219	86.0893	574.219	84.7859	574.219	85.7786	574.219	84.0922	574.219	85.203	574.219	83.1785	574.219	84.3572	574.219	82.0193	574.219	83.3331	574.219	80.6993	574.219	82.3327	574.219	79.4134	574.219	81.552	574.219	78.3596	574.219	80.9971	574.219	77.6254	574.219	80.4497	574.219	77.2633	574.219	79.6646	574.219	77.4626	574.219	78.7052	574.219	78.3728	574.219	78.283	574.219	79.7455	574.219	79.1096	574.219	81.1383	574.219	80.6154	574.219	82.2532	574.219	81.9605	574.219	82.948	574.219	82.826	574.219	83.1519
594.727	86.7004	594.727	86.394	594.727	86.7594	594.727	85.8506	594.727	86.5679	594.727	85.0994	594.727	86.1157	594.727	84.1768	594.727	85.3965	594.727	83.1037	594.727	84.4603	594.727	81.8942	594.727	83.4612	594.727	80.5897	594.727	82.6288	594.727	79.2509	594.727	82.1339	594.727	77.9648	594.727	81.915	594.727	76.9094	594.727	81.6332	594.727	76.3765	594.727	80.8064	594.727	76.7509	594.727	78.9659	594.727	78.1463	594.727	76.1941	594.727	80.025	594.727	75.834	594.727	81.7532	594.727	79.0374	594.727	83.021	594.727	81.716	594.727	83.7318	594.727	83.2317	594.727	83.836
615.234	86.99	615.234	86.7598	615.234	86.9838	615.234	86.2771	615.234	86.7514	615.234	85.5678	615.234	86.2758	615.234	84.7163	615.234	85.5656	615.234	83.8276	615.234	84.7246	615.234	82.944	615.234	83.9267	615.234	81.9822	615.234	83.2863	615.234	80.7969	615.234	82.788	615.234	79.3589	615.234	82.3348	615.234	77.9034	615.234	81.8143	615.234	76.8752	615.234	81.0902	615.234	76.6084	615.234	79.9432	615.234	77.1696	615.234	78.1617	615.234	78.4264	615.234	76.3311	615.234	79.9903	615.234	76.9209	615.234	81.3723	615.234	79.421	615.234	82.2088	615.234	81.373	615.234	82.2679
637.207	86.6364	637.207	86.0923	637.207	86.8831	637.207	85.3694	637.207	86.7841	637.207	84.6405	637.207	86.3664	637.207	84.0558	637.207	85.7131	637.207	83.6179	637.207	84.908	637.207	83.154	637.207	84.0314	637.207	82.4524	637.207	83.2351	637.207	81.4078	637.207	82.7082	637.207	80.0425	637.207	82.4523	637.207	78.433	637.207	82.18	637.207	76.7482	637.207	81.4918	637.207	75.6763	637.207	80.0074	637.207	76.3174	637.207	77.3182	637.207	78.2157	637.207	73.8471	637.207	80.1233	637.207	75.0965	637.207	81.5359	637.207	78.9604	637.207	82.3185	637.207	81.3381	637.207	82.3343
659.18	86.3141	659.18	85.7889	659.18	86.5059	659.18	85.0657	659.18	86.303	659.18	84.3259	659.18	85.7281	659.18	83.7101	659.18	84.879	659.18	83.2139	659.18	83.8853	659.18	82.7054	659.18	82.89	659.18	82.0479	659.18	82.0901	659.18	81.1533	659.18	81.6884	659.18	79.9298	659.18	81.7368	659.18	78.2768	659.18	82.0216	659.18	76.3564	659.18	82.0656	659.18	75.27	659.18	81.2628	659.18	76.2091	659.18	78.9642	659.18	78.1452	659.18	74.856	659.18	79.9644	659.18	74.3546	659.18	81.3531	659.18	78.5069	659.18	82.154	659.18	81.093	659.18	82.1616
682.617	86.7735	682.617	86.0782	682.617	87.0195	682.617	85.051	682.617	86.8036	682.617	83.9107	682.617	86.2086	682.617	82.9707	682.617	85.3049	682.617	82.4598	682.617	84.0365	682.617	82.257	682.617	82.3905	682.617	82.015	682.617	80.8951	682.617	81.4494	682.617	80.7259	682.617	80.4345	682.617	81.8299	682.617	79.0131	682.617	82.7793	682.617	77.379	682.617	82.8747	682.617	76.0563	682.617	82.1043	682.617	76.1356	682.617	80.4502	682.617	77.8099	682.617	77.51	682.617	79.8534	682.617	74.4781	682.617	81.4692	682.617	77.3472	682.617	82.3588	682.617	80.7349	682.617	82.2528
707.52	87.3354	707.52	86.568	707.52	87.6801	707.52	85.4133	707.52	87.6528	707.52	84.0805	707.52	87.2596	707.52	82.9735	707.52	86.3815	707.52	82.4606	707.52	84.9007	707.52	82.4659	707.52	82.9188	707.52	82.5132	707.52	80.8377	707.52	82.1525	707.52	79.5062	707.52	81.1466	707.52	79.8439	707.52	79.4055	707.52	80.9722	707.52	76.9481	707.52	81.5548	707.52	74.4696	707.52	81.0705	707.52	74.674	707.52	79.0245	707.52	77.4003	707.52	74.1005	707.52	79.8992	707.52	67.5875	707.52	81.5348	707.52	75.8442	707.52	82.2631	707.52	80.1162	707.52	81.9254
732.422	86.7657	732.422	86.155	732.422	87.1274	732.422	85.3176	732.422	87.2045	732.422	84.3241	732.422	86.9355	732.422	83.393	732.422	86.258	732.422	82.8319	732.422	85.118	732.422	82.6084	732.422	83.4173	732.422	82.2574	732.422	80.9953	732.422	81.4459	732.422	77.9432	732.422	80.3252	732.422	76.3445	732.422	79.3385	732.422	79.0261	732.422	78.5421	732.422	82.1744	732.422	77.5208	732.422	83.5523	732.422	76.5199	732.422	82.7001	732.422	77.0333	732.422	78.9991	732.422	78.8057	732.422	70.6416	732.422	80.2557	732.422	73.6024	732.422	80.8763	732.422	78.6306	732.422	80.5082
757.324	87.7745	757.324	87.1494	757.324	88.0682	757.324	86.2187	757.324	88.0798	757.324	85.108	757.324	87.8607	757.324	84.0273	757.324	87.3394	757.324	83.1985	757.324	86.2855	757.324	82.677	757.324	84.5221	757.324	82.1834	757.324	82.1716	757.324	81.2644	757.324	79.6349	757.324	79.6308	757.324	78.2858	757.324	77.6616	757.324	79.6654	757.324	76.9875	757.324	81.5111	757.324	77.7214	757.324	82.2909	757.324	78.3904	757.324	81.7065	757.324	79.2128	757.324	79.3388	757.324	80.7574	757.324	74.7393	757.324	82.3866	757.324	75.619	757.324	83.2199	757.324	80.3969	757.324	82.731
785.156	88.1141	785.156	87.627	785.156	88.1946	785.156	86.6381	785.156	87.9978	785.156	85.1878	785.156	87.5569	785.156	83.6728	785.156	86.7628	785.156	82.9692	785.156	85.5887	785.156	83.3463	785.156	84.2468	785.156	83.8425	785.156	82.6305	785.156	83.541	785.156	79.9232	785.156	81.9692	785.156	76.2953	785.156	78.8911	785.156	77.3402	785.156	74.3315	785.156	80.6487	785.156	71.2871	785.156	82.4237	785.156	74.5189	785.156	82.3136	785.156	77.9749	785.156	79.5264	785.156	80.3035	785.156	70.0009	785.156	81.8642	785.156	72.006	785.156	82.6543	785.156	79.7731	785.156	82.2514
811.523	88.7567	811.523	88.5646	811.523	88.5555	811.523	87.8182	811.523	88.122	811.523	86.4169	811.523	87.5712	811.523	84.4762	811.523	86.9675	811.523	82.871	811.523	86.3913	811.523	83.0368	811.523	85.8424	811.523	83.9538	811.523	84.8584	811.523	83.8758	811.523	82.4591	811.523	82.4712	811.523	77.0058	811.523	80.1148	811.523	71.5974	811.523	76.6828	811.523	79.5844	811.523	70.4684	811.523	83.3295	811.523	68.9289	811.523	84.1222	811.523	75.8251	811.523	82.0225	811.523	79.5649	811.523	74.8442	811.523	81.6862	811.523	69.8264	811.523	82.6445	811.523	79.4738	811.523	82.2265
840.82	88.5829	840.82	88.6	840.82	88.078	840.82	88.1037	840.82	87.2776	840.82	87.1526	840.82	86.4759	840.82	85.7125	840.82	85.9349	840.82	83.7887	840.82	85.7299	840.82	82.2897	840.82	85.5843	840.82	82.4081	840.82	84.9718	840.82	83.1172	840.82	83.4517	840.82	83.3527	840.82	80.584	840.82	82.4684	840.82	74.6358	840.82	79.5851	840.82	70.7729	840.82	73.7823	840.82	79.4598	840.82	70.9907	840.82	82.601	840.82	75.3637	840.82	82.5747	840.82	78.0897	840.82	79.3007	840.82	79.7656	840.82	69.4426	840.82	80.4402	840.82	74.0939	840.82	79.2856
870.117	88.4821	870.117	88.7753	870.117	87.7113	870.117	88.5222	870.117	86.6479	870.117	87.6769	870.117	85.5405	870.117	86.0846	870.117	84.629	870.117	83.7025	870.117	84.045	870.117	81.638	870.117	83.6523	870.117	81.7462	870.117	83.1665	870.117	82.7791	870.117	82.35	870.117	83.1905	870.117	80.7072	870.117	82.5097	870.117	77.1558	870.117	80.4306	870.117	74.1669	870.117	76.2155	870.117	79.2393	870.117	65.9581	870.117	82.5556	870.117	68.5877	870.117	83.1475	870.117	75.4557	870.117	80.9102	870.117	77.7244	870.117	73.9738	870.117	77.8567	870.117	63.7784	870.117	75.3938
900.879	87.7514	900.879	88.1722	900.879	87.0986	900.879	88.2419	900.879	86.2984	900.879	87.7598	900.879	85.3714	900.879	86.3678	900.879	84.3622	900.879	83.6442	900.879	83.4467	900.879	79.7477	900.879	82.9024	900.879	78.218	900.879	82.8562	900.879	80.2968	900.879	82.8007	900.879	81.8298	900.879	81.6555	900.879	82.1113	900.879	78.0752	900.879	81.3137	900.879	69.5562	900.879	79.3272	900.879	75.7737	900.879	75.5228	900.879	81.5461	900.879	70.6359	900.879	83.3951	900.879	73.7317	900.879	82.168	900.879	77.0263	900.879	76.9067	900.879	77.4527	900.879	44.9833	900.879	74.0884
933.105	87.7735	933.105	88.1572	933.105	87.0143	933.105	88.1574	933.105	86.0473	933.105	87.7644	933.105	85.0463	933.105	86.8416	933.105	83.8332	933.105	85.1251	933.105	82.4136	933.105	82.3658	933.105	81.6444	933.105	78.9341	933.105	82.1208	933.105	77.416	933.105	82.8308	933.105	78.7578	933.105	82.4162	933.105	80.0184	933.105	80.3821	933.105	79.9519	933.105	76.4962	933.105	78.1386	933.105	75.3357	933.105	74.2005	933.105	80.0928	933.105	69.0081	933.105	82.5944	933.105	71.7494	933.105	82.3987	933.105	75.7529	933.105	78.9065	933.105	76.7727	933.105	68.8602	933.105	73.2224
965.332	87.7398	965.332	87.8942	965.332	87.4269	965.332	87.8272	965.332	86.9046	965.332	87.4036	965.332	85.9957	965.332	86.3582	965.332	84.7966	965.332	84.4057	965.332	83.7337	965.332	81.5762	965.332	82.6887	965.332	78.9769	965.332	81.3072	965.332	78.8617	965.332	80.0942	965.332	80.4671	965.332	79.6601	965.332	81.1956	965.332	78.8019	965.332	80.1341	965.332	74.6453	965.332	77.4901	965.332	69.8379	965.332	74.8864	965.332	78.5669	965.332	74.443	965.332	82.0021	965.332	74.2083	965.332	82.1706	965.332	73.3003	965.332	79.2609	965.332	72.6562	965.332	72.789	965.332	70.5426
1,000.49	87.7124	1,000.49	87.7879	1,000.49	87.4523	1,000.49	87.7412	1,000.49	86.8792	1,000.49	87.4377	1,000.49	85.9122	1,000.49	86.5622	1,000.49	84.5701	1,000.49	84.8043	1,000.49	82.9717	1,000.49	82.1425	1,000.49	81.495	1,000.49	79.3325	1,000.49	80.6711	1,000.49	78.4247	1,000.49	80.35	1,000.49	79.7336	1,000.49	79.9826	1,000.49	80.7168	1,000.49	79.5155	1,000.49	80.3378	1,000.49	78.8328	1,000.49	78.4476	1,000.49	76.8277	1,000.49	75.0076	1,000.49	75.6108	1,000.49	72.4459	1,000.49	78.7165	1,000.49	73.7243	1,000.49	80.214	1,000.49	75.4958	1,000.49	78.1238	1,000.49	75.9883	1,000.49	72.1459	1,000.49	73.4533
1,035.64	87.3128	1,035.64	87.7815	1,035.64	86.837	1,035.64	87.8832	1,035.64	86.6366	1,035.64	87.5587	1,035.64	86.3016	1,035.64	86.6873	1,035.64	85.3145	1,035.64	84.7739	1,035.64	83.9792	1,035.64	81.2147	1,035.64	82.4469	1,035.64	76.0883	1,035.64	80.3998	1,035.64	74.2365	1,035.64	79.8354	1,035.64	76.1548	1,035.64	80.6942	1,035.64	77.4042	1,035.64	80.1677	1,035.64	78.3914	1,035.64	76.7254	1,035.64	78.7655	1,035.64	73.5648	1,035.64	77.5244	1,035.64	76.3565	1,035.64	75.4012	1,035.64	79.4233	1,035.64	75.8137	1,035.64	80.8067	1,035.64	77.5879	1,035.64	79.208	1,035.64	77.564	1,035.64	74.1765	1,035.64	74.7393
1,072.27	87.1559	1,072.27	87.3622	1,072.27	86.8783	1,072.27	87.5073	1,072.27	86.6809	1,072.27	87.2766	1,072.27	86.5098	1,072.27	86.0825	1,072.27	85.8184	1,072.27	83.9239	1,072.27	84.6637	1,072.27	81.8151	1,072.27	83.4378	1,072.27	80.0011	1,072.27	81.7136	1,072.27	76.8234	1,072.27	79.7441	1,072.27	75.3078	1,072.27	78.6717	1,072.27	77.5107	1,072.27	78.851	1,072.27	78.4652	1,072.27	78.5704	1,072.27	77.0605	1,072.27	77.0119	1,072.27	71.3544	1,072.27	77.3154	1,072.27	71.5763	1,072.27	79.3435	1,072.27	77.0571	1,072.27	79.8979	1,072.27	78.8242	1,072.27	77.8044	1,072.27	78.3144	1,072.27	73.72	1,072.27	75.7017
1,108.89	87.6707	1,108.89	87.8666	1,108.89	87.0282	1,108.89	87.6554	1,108.89	86.2735	1,108.89	87.265	1,108.89	85.4558	1,108.89	86.4106	1,108.89	84.5897	1,108.89	84.4142	1,108.89	84.1398	1,108.89	81.2162	1,108.89	83.6409	1,108.89	78.7965	1,108.89	81.7	1,108.89	78.6881	1,108.89	79.476	1,108.89	78.2609	1,108.89	79.0403	1,108.89	77.2983	1,108.89	78.3467	1,108.89	78.1947	1,108.89	76.2472	1,108.89	78.827	1,108.89	72.1666	1,108.89	77.4218	1,108.89	71.0488	1,108.89	73.8789	1,108.89	78.9958	1,108.89	72.6769	1,108.89	81.1345	1,108.89	74.5767	1,108.89	78.3129	1,108.89	75.4597	1,108.89	73.3607	1,108.89	74.6404
1,148.44	86.7689	1,148.44	86.8989	1,148.44	86.4851	1,148.44	86.8043	1,148.44	86.0153	1,148.44	86.3112	1,148.44	85.4542	1,148.44	85.4932	1,148.44	84.8691	1,148.44	84.3314	1,148.44	84.2856	1,148.44	82.6123	1,148.44	83.3144	1,148.44	80.234	1,148.44	81.4192	1,148.44	78.5698	1,148.44	79.5823	1,148.44	79.4391	1,148.44	78.6415	1,148.44	78.5368	1,148.44	76.9482	1,148.44	76.7507	1,148.44	75.5325	1,148.44	76.557	1,148.44	76.4605	1,148.44	76.0234	1,148.44	77.3106	1,148.44	74.4478	1,148.44	78.7718	1,148.44	75.5466	1,148.44	79.4759	1,148.44	76.3999	1,148.44	77.1997	1,148.44	75.6831	1,148.44	73.4145	1,148.44	74.0126
1,189.45	86.8071	1,189.45	86.6731	1,189.45	86.6964	1,189.45	86.4968	1,189.45	86.1543	1,189.45	85.9567	1,189.45	85.1572	1,189.45	84.3885	1,189.45	84.139	1,189.45	82.4575	1,189.45	83.4641	1,189.45	81.8299	1,189.45	82.5247	1,189.45	80.8439	1,189.45	81.0646	1,189.45	77.7692	1,189.45	79.0927	1,189.45	77.4078	1,189.45	77.6921	1,189.45	78.9999	1,189.45	76.5501	1,189.45	78.9512	1,189.45	74.7961	1,189.45	77.788	1,189.45	74.8867	1,189.45	76.2225	1,189.45	71.672	1,189.45	71.8395	1,189.45	74.9561	1,189.45	67.7673	1,189.45	79.8568	1,189.45	74.7227	1,189.45	77.3145	1,189.45	77.0922	1,189.45	72.754	1,189.45	76.2616
1,230.47	87.9984	1,230.47	87.8057	1,230.47	87.709	1,230.47	87.2812	1,230.47	86.8397	1,230.47	86.2761	1,230.47	85.5178	1,230.47	84.5396	1,230.47	84.0681	1,230.47	82.7767	1,230.47	83.2195	1,230.47	82.346	1,230.47	82.8598	1,230.47	81.6425	1,230.47	81.5146	1,230.47	77.5367	1,230.47	78.9394	1,230.47	71.8634	1,230.47	76.8494	1,230.47	75.5232	1,230.47	75.8049	1,230.47	78.2706	1,230.47	75.0509	1,230.47	78.0867	1,230.47	72.4717	1,230.47	76.1826	1,230.47	71.2059	1,230.47	73.0631	1,230.47	77.8604	1,230.47	72.6517	1,230.47	78.414	1,230.47	75.5487	1,230.47	74.512	1,230.47	75.6805	1,230.47	71.7476	1,230.47	73.5937
1,274.41	88.4318	1,274.41	88.206	1,274.41	88.0218	1,274.41	87.5111	1,274.41	86.7024	1,274.41	86.184	1,274.41	85.076	1,274.41	84.3713	1,274.41	84.0436	1,274.41	82.908	1,274.41	83.3498	1,274.41	82.5241	1,274.41	82.5736	1,274.41	81.5423	1,274.41	81.5178	1,274.41	78.11	1,274.41	79.4273	1,274.41	73.0765	1,274.41	77.0473	1,274.41	71.5923	1,274.41	74.4402	1,274.41	73.7076	1,274.41	74.2162	1,274.41	75.9039	1,274.41	76.8584	1,274.41	77.0761	1,274.41	76.5355	1,274.41	75.7066	1,274.41	74.1795	1,274.41	70.7343	1,274.41	75.7514	1,274.41	72.7568	1,274.41	74.6143	1,274.41	75.6749	1,274.41	71.8068	1,274.41	74.7014
1,319.82	88.5461	1,319.82	88.6533	1,319.82	87.8932	1,319.82	87.858	1,319.82	86.9608	1,319.82	86.0815	1,319.82	85.5192	1,319.82	84.1692	1,319.82	83.284	1,319.82	83.3721	1,319.82	81.8613	1,319.82	82.006	1,319.82	81.9484	1,319.82	78.242	1,319.82	80.6854	1,319.82	75.5251	1,319.82	78.1637	1,319.82	75.0987	1,319.82	75.9449	1,319.82	73.0562	1,319.82	71.3016	1,319.82	72.5459	1,319.82	72.7839	1,319.82	74.371	1,319.82	73.7285	1,319.82	75.9959	1,319.82	68.6521	1,319.82	76.1582	1,319.82	74.3161	1,319.82	72.1527	1,319.82	77.1945	1,319.82	72.2155	1,319.82	76.356	1,319.82	76.4365	1,319.82	72.995	1,319.82	74.9448
1,366.7	88.1476	1,366.7	88.8573	1,366.7	87.6658	1,366.7	88.427	1,366.7	87.2573	1,366.7	86.3694	1,366.7	86.0484	1,366.7	84.1295	1,366.7	84.2308	1,366.7	82.5247	1,366.7	82.0389	1,366.7	79.9493	1,366.7	80.5684	1,366.7	75.9547	1,366.7	79.9307	1,366.7	72.4188	1,366.7	79.0376	1,366.7	74.5578	1,366.7	77.7779	1,366.7	75.7725	1,366.7	73.8983	1,366.7	73.879	1,366.7	70.5225	1,366.7	71.6147	1,366.7	71.2648	1,366.7	74.6502	1,366.7	64.8677	1,366.7	76.3963	1,366.7	75.8224	1,366.7	75.6205	1,366.7	76.5335	1,366.7	73.9504	1,366.7	76.1044	1,366.7	75.7458	1,366.7	73.2162	1,366.7	74.9621
1,413.57	87.682	1,413.57	88.3815	1,413.57	86.9275	1,413.57	87.809	1,413.57	86.3939	1,413.57	85.654	1,413.57	85.423	1,413.57	83.5874	1,413.57	83.7071	1,413.57	82.8037	1,413.57	81.5809	1,413.57	80.8879	1,413.57	79.8748	1,413.57	75.2621	1,413.57	78.7105	1,413.57	69.4016	1,413.57	77.8299	1,413.57	71.8711	1,413.57	77.5304	1,413.57	72.1471	1,413.57	75.0662	1,413.57	70.9947	1,413.57	71.2943	1,413.57	69.2653	1,413.57	73.8297	1,413.57	71.9198	1,413.57	74.4399	1,413.57	75.8824	1,413.57	71.4083	1,413.57	74.7742	1,413.57	76.3173	1,413.57	71.7634	1,413.57	76.2188	1,413.57	73.5184	1,413.57	68.751	1,413.57	73.717
1,463.38	87.2175	1,463.38	88.2242	1,463.38	86.2421	1,463.38	87.6558	1,463.38	85.5197	1,463.38	86.0002	1,463.38	84.4141	1,463.38	84.718	1,463.38	83.4202	1,463.38	82.4019	1,463.38	81.2917	1,463.38	79.2739	1,463.38	79.0839	1,463.38	76.9834	1,463.38	77.3465	1,463.38	74.374	1,463.38	76.178	1,463.38	69.2217	1,463.38	75.8281	1,463.38	67.7675	1,463.38	72.9405	1,463.38	68.7517	1,463.38	70.4057	1,463.38	70.2584	1,463.38	72.0914	1,463.38	67.7769	1,463.38	72.2877	1,463.38	70.8606	1,463.38	66.8831	1,463.38	72.0975	1,463.38	76.1863	1,463.38	70.2333	1,463.38	74.6175	1,463.38	71.9005	1,463.38	69.4421	1,463.38	71.5451
1,516.11	86.1436	1,516.11	86.7543	1,516.11	85.4164	1,516.11	86.4502	1,516.11	85.0712	1,516.11	85.5147	1,516.11	84.2274	1,516.11	84.3596	1,516.11	82.7715	1,516.11	80.9833	1,516.11	81.1056	1,516.11	75.866	1,516.11	78.9441	1,516.11	76.8746	1,516.11	77.3149	1,516.11	76.3268	1,516.11	76.6855	1,516.11	71.0231	1,516.11	76.7253	1,516.11	73.239	1,516.11	74.0696	1,516.11	75.2338	1,516.11	70.0781	1,516.11	72.6825	1,516.11	72.1538	1,516.11	68.6621	1,516.11	69.2685	1,516.11	70.7911	1,516.11	70.782	1,516.11	72.4988	1,516.11	75.0737	1,516.11	72.0384	1,516.11	73.9463	1,516.11	71.7456	1,516.11	69.5778	1,516.11	69.9407
1,568.85	85.3554	1,568.85	85.0206	1,568.85	84.8249	1,568.85	84.9648	1,568.85	83.7496	1,568.85	85.0452	1,568.85	82.6081	1,568.85	83.4367	1,568.85	81.5049	1,568.85	79.2007	1,568.85	79.9315	1,568.85	75.2254	1,568.85	77.506	1,568.85	75.4381	1,568.85	76.3112	1,568.85	73.3231	1,568.85	74.324	1,568.85	67.0093	1,568.85	74.6976	1,568.85	71.5305	1,568.85	74.7105	1,568.85	74.4767	1,568.85	72.619	1,568.85	73.6765	1,568.85	71.8927	1,568.85	69.8562	1,568.85	69.0391	1,568.85	69.8812	1,568.85	70.148	1,568.85	70.7335	1,568.85	68.4455	1,568.85	68.5612	1,568.85	71.9103	1,568.85	71.1996	1,568.85	68.8068	1,568.85	68.1877
1,624.51	86.0488	1,624.51	84.994	1,624.51	85.5899	1,624.51	83.9891	1,624.51	83.9099	1,624.51	84.315	1,624.51	81.6632	1,624.51	83.1409	1,624.51	80.3078	1,624.51	78.2749	1,624.51	79.0255	1,624.51	75.2002	1,624.51	77.2928	1,624.51	75.7372	1,624.51	75.418	1,624.51	72.5565	1,624.51	73.371	1,624.51	61.9006	1,624.51	73.2134	1,624.51	60.8481	1,624.51	74.218	1,624.51	73.4921	1,624.51	74.0653	1,624.51	74.8625	1,624.51	71.4012	1,624.51	70.7412	1,624.51	72.2344	1,624.51	65.8649	1,624.51	68.3205	1,624.51	68.6501	1,624.51	66.3333	1,624.51	68.9157	1,624.51	72.3331	1,624.51	70.8977	1,624.51	70.1346	1,624.51	69.2463
1,681.64	85.5116	1,681.64	85.3777	1,681.64	85.0314	1,681.64	83.857	1,681.64	82.8813	1,681.64	82.7522	1,681.64	80.5613	1,681.64	81.5329	1,681.64	80.2009	1,681.64	76.4214	1,681.64	79.2343	1,681.64	74.3308	1,681.64	77.1065	1,681.64	68.6446	1,681.64	75.9276	1,681.64	66.7613	1,681.64	76.2488	1,681.64	70.8845	1,681.64	73.9842	1,681.64	66.5958	1,681.64	73.4229	1,681.64	68.4746	1,681.64	75.058	1,681.64	70.8925	1,681.64	74.9864	1,681.64	73.0347	1,681.64	75.3257	1,681.64	68.1905	1,681.64	69.0954	1,681.64	70.6573	1,681.64	71.9276	1,681.64	69.8795	1,681.64	72.5566	1,681.64	64.4854	1,681.64	67.8725	1,681.64	68.2172
1,741.7	85.9561	1,741.7	85.7989	1,741.7	85.6969	1,741.7	85.3982	1,741.7	83.2051	1,741.7	83.9714	1,741.7	79.932	1,741.7	80.8292	1,741.7	79.4279	1,741.7	76.3699	1,741.7	77.5722	1,741.7	75.8491	1,741.7	78.6381	1,741.7	75.539	1,741.7	78.1972	1,741.7	70.1124	1,741.7	75.3856	1,741.7	65.7237	1,741.7	77.177	1,741.7	54.4037	1,741.7	73.0551	1,741.7	51.3529	1,741.7	74.373	1,741.7	65.0927	1,741.7	71.9126	1,741.7	72.5225	1,741.7	74.1973	1,741.7	72.4615	1,741.7	71.5161	1,741.7	70.7929	1,741.7	73.6441	1,741.7	66.5322	1,741.7	76.4994	1,741.7	65.0919	1,741.7	71.4968	1,741.7	69.2247
1,803.22	85.8254	1,803.22	85.9874	1,803.22	85.5242	1,803.22	84.9112	1,803.22	83.7417	1,803.22	81.3481	1,803.22	80.5996	1,803.22	77.3416	1,803.22	80.0383	1,803.22	74.8092	1,803.22	78.8523	1,803.22	72.5697	1,803.22	76.4568	1,803.22	74.032	1,803.22	80.1952	1,803.22	72.6713	1,803.22	79.2876	1,803.22	69.813	1,803.22	76.3697	1,803.22	65.1765	1,803.22	77.3067	1,803.22	62.3113	1,803.22	72.1471	1,803.22	70.8093	1,803.22	72.5155	1,803.22	67.9013	1,803.22	71.7673	1,803.22	71.241	1,803.22	72.3314	1,803.22	65.9639	1,803.22	69.9982	1,803.22	58.248	1,803.22	73.9849	1,803.22	57.6514	1,803.22	74.6388	1,803.22	71.8324
1,866.21	85.5295	1,866.21	85.6631	1,866.21	84.7361	1,866.21	85.1385	1,866.21	82.9988	1,866.21	83.5028	1,866.21	78.5736	1,866.21	76.919	1,866.21	78.9629	1,866.21	74.7157	1,866.21	79.2229	1,866.21	74.5677	1,866.21	81.0088	1,866.21	64.1327	1,866.21	80.1332	1,866.21	69.3014	1,866.21	76.7207	1,866.21	61.7151	1,866.21	75.6361	1,866.21	68.0004	1,866.21	76.3418	1,866.21	62.5415	1,866.21	72.7351	1,866.21	72.5146	1,866.21	75.2319	1,866.21	66.3711	1,866.21	71.7882	1,866.21	77.3086	1,866.21	72.7721	1,866.21	69.7858	1,866.21	73.0427	1,866.21	71.711	1,866.21	72.5939	1,866.21	70.2086	1,866.21	70.9178	1,866.21	69.1023
1,932.13	85.2453	1,932.13	84.9819	1,932.13	84.4836	1,932.13	85.1572	1,932.13	83.3016	1,932.13	82.7674	1,932.13	81.17	1,932.13	76.1266	1,932.13	78.7142	1,932.13	77.8111	1,932.13	82.4869	1,932.13	78.9917	1,932.13	78.0901	1,932.13	77.1279	1,932.13	74.0438	1,932.13	76.7591	1,932.13	77.1659	1,932.13	72.4678	1,932.13	77.6278	1,932.13	64.7895	1,932.13	73.7706	1,932.13	72.4237	1,932.13	63.9374	1,932.13	75.8132	1,932.13	70.8195	1,932.13	66.8378	1,932.13	75.5227	1,932.13	69.0459	1,932.13	71.241	1,932.13	61.0333	1,932.13	73.6729	1,932.13	68.244	1,932.13	73.484	1,932.13	67.3188	1,932.13	73.7705	1,932.13	67.2375
1,999.51	85.2668	1,999.51	85.4775	1,999.51	84.2147	1,999.51	82.2875	1,999.51	83.7325	1,999.51	81.039	1,999.51	76.6998	1,999.51	80.8832	1,999.51	77.8757	1,999.51	78.1557	1,999.51	76.9284	1,999.51	80.0382	1,999.51	75.1108	1,999.51	79.9853	1,999.51	81.0587	1,999.51	75.9265	1,999.51	80.9192	1,999.51	61.6774	1,999.51	80.542	1,999.51	63.5297	1,999.51	78.2643	1,999.51	71.8997	1,999.51	75.6703	1,999.51	76.6875	1,999.51	72.7608	1,999.51	72.1892	1,999.51	72.7857	1,999.51	71.4666	1,999.51	71.9984	1,999.51	70.0497	1,999.51	74.6208	1,999.51	66.9252	1,999.51	71.6528	1,999.51	63.5059	1,999.51	76.6094	1,999.51	67.0598
2,069.82	86.8254	2,069.82	86.2213	2,069.82	84.9224	2,069.82	82.4596	2,069.82	81.4027	2,069.82	80.0926	2,069.82	76.2899	2,069.82	80.3769	2,069.82	78.5443	2,069.82	72.9335	2,069.82	75.3117	2,069.82	70.9705	2,069.82	79.6609	2,069.82	80.2362	2,069.82	83.3428	2,069.82	63.6318	2,069.82	82.7548	2,069.82	65.4435	2,069.82	82.8473	2,069.82	65.5023	2,069.82	79.2494	2,069.82	66.8345	2,069.82	76.4079	2,069.82	75.2681	2,069.82	74.311	2,069.82	76.2576	2,069.82	73.8869	2,069.82	73.113	2,069.82	73.6407	2,069.82	73.4155	2,069.82	74.1066	2,069.82	67.406	2,069.82	73.9707	2,069.82	64.685	2,069.82	75.9718	2,069.82	70.8161
2,143.07	86.7265	2,143.07	85.1207	2,143.07	85.4182	2,143.07	82.7459	2,143.07	80.4327	2,143.07	79.8641	2,143.07	73.0427	2,143.07	78.5	2,143.07	80.5286	2,143.07	72.375	2,143.07	78.4649	2,143.07	70.1254	2,143.07	81.4982	2,143.07	78.9177	2,143.07	83.9893	2,143.07	63.3311	2,143.07	81.3192	2,143.07	72.864	2,143.07	78.9448	2,143.07	65.5724	2,143.07	74.6497	2,143.07	69.989	2,143.07	75.9298	2,143.07	69.7651	2,143.07	76.0021	2,143.07	75.2254	2,143.07	74.0446	2,143.07	75.2119	2,143.07	71.0669	2,143.07	74.6346	2,143.07	71.7334	2,143.07	71.6695	2,143.07	75.6375	2,143.07	65.8143	2,143.07	73.1512	2,143.07	61.4427
2,219.24	85.4148	2,219.24	83.2583	2,219.24	83.963	2,219.24	83.1754	2,219.24	79.5222	2,219.24	76.0086	2,219.24	76.2577	2,219.24	74.4904	2,219.24	81.2918	2,219.24	69.547	2,219.24	83.1332	2,219.24	73.0066	2,219.24	82.2952	2,219.24	79.5105	2,219.24	79.3801	2,219.24	73.5732	2,219.24	77.5211	2,219.24	72.8686	2,219.24	74.1317	2,219.24	63.2991	2,219.24	77.8448	2,219.24	74.7836	2,219.24	78.1801	2,219.24	73.8405	2,219.24	81.1211	2,219.24	70.5948	2,219.24	69.793	2,219.24	53.6997	2,219.24	75.7946	2,219.24	71.3438	2,219.24	71.9092	2,219.24	69.7685	2,219.24	65.7651	2,219.24	71.15	2,219.24	67.6836	2,219.24	70.5801
2,296.88	84.9203	2,296.88	84.1522	2,296.88	84.1218	2,296.88	81.6744	2,296.88	79.7234	2,296.88	77.9682	2,296.88	65.8757	2,296.88	71.6022	2,296.88	82.2685	2,296.88	73.7064	2,296.88	81.4513	2,296.88	78.6132	2,296.88	81.3407	2,296.88	74.6976	2,296.88	79.9074	2,296.88	68.5581	2,296.88	78.7807	2,296.88	72.6242	2,296.88	77.1634	2,296.88	74.5664	2,296.88	77.6899	2,296.88	77.1904	2,296.88	65.7552	2,296.88	75.6078	2,296.88	79.5726	2,296.88	68.333	2,296.88	75.6861	2,296.88	69.1194	2,296.88	76.1811	2,296.88	69.788	2,296.88	67.1729	2,296.88	56.3934	2,296.88	72.2594	2,296.88	57.2039	2,296.88	71.3518	2,296.88	69.0415
2,378.91	86.1905	2,378.91	83.4144	2,378.91	84.4457	2,378.91	80.7233	2,378.91	74.2132	2,378.91	79.3173	2,378.91	73.4132	2,378.91	73.5393	2,378.91	82.5074	2,378.91	76.5619	2,378.91	82.6098	2,378.91	81.2156	2,378.91	80.6869	2,378.91	75.6022	2,378.91	79.8324	2,378.91	74.3602	2,378.91	81.4661	2,378.91	71.3788	2,378.91	80.3035	2,378.91	77.2833	2,378.91	75.9537	2,378.91	79.4608	2,378.91	76.1048	2,378.91	76.231	2,378.91	71.1558	2,378.91	68.0466	2,378.91	77.5158	2,378.91	67.0948	2,378.91	71.1606	2,378.91	69.7547	2,378.91	68.1452	2,378.91	68.7281	2,378.91	74.5009	2,378.91	71.0065	2,378.91	72.4565	2,378.91	65.281
2,462.4	86.9712	2,462.4	85.5856	2,462.4	85.257	2,462.4	82.3465	2,462.4	78.7	2,462.4	77.5342	2,462.4	78.3399	2,462.4	69.849	2,462.4	81.9752	2,462.4	75.7531	2,462.4	83.1005	2,462.4	76.1	2,462.4	82.8725	2,462.4	74.8789	2,462.4	81.4684	2,462.4	76.1035	2,462.4	73.6521	2,462.4	72.4149	2,462.4	74.8401	2,462.4	73.7949	2,462.4	73.9436	2,462.4	71.121	2,462.4	75.4902	2,462.4	70.1525	2,462.4	72.3636	2,462.4	68.7437	2,462.4	74.3563	2,462.4	67.3683	2,462.4	66.9132	2,462.4	63.8876	2,462.4	66.0526	2,462.4	51.6001	2,462.4	64.7982	2,462.4	66.6211	2,462.4	70.0938	2,462.4	70.689
2,548.83	86.4292	2,548.83	86.5387	2,548.83	85.2434	2,548.83	84.0749	2,548.83	78.1295	2,548.83	73.5686	2,548.83	79.7407	2,548.83	71.759	2,548.83	81.589	2,548.83	75.0226	2,548.83	82.6422	2,548.83	75.4478	2,548.83	82.7413	2,548.83	75.3462	2,548.83	79.2548	2,548.83	71.9984	2,548.83	79.6126	2,548.83	75.2602	2,548.83	75.2155	2,548.83	72.7248	2,548.83	68.4375	2,548.83	72.2611	2,548.83	71.2478	2,548.83	71.54	2,548.83	71.0304	2,548.83	66.7873	2,548.83	72.9969	2,548.83	68.1498	2,548.83	71.4205	2,548.83	65.4534	2,548.83	65.2393	2,548.83	48.3485	2,548.83	50.86	2,548.83	66.7036	2,548.83	69.5892	2,548.83	70.685
2,639.65	84.9199	2,639.65	85.1727	2,639.65	83.06	2,639.65	83.2403	2,639.65	74.9197	2,639.65	70.8105	2,639.65	79.018	2,639.65	71.8529	2,639.65	82.9477	2,639.65	75.6463	2,639.65	83.6909	2,639.65	76.4482	2,639.65	82.3468	2,639.65	77.7002	2,639.65	80.7802	2,639.65	76.6443	2,639.65	80.3637	2,639.65	73.629	2,639.65	75.6952	2,639.65	71.2205	2,639.65	71.2104	2,639.65	68.3276	2,639.65	67.1825	2,639.65	69.472	2,639.65	72.1888	2,639.65	69.2649	2,639.65	70.3048	2,639.65	67.3736	2,639.65	73.2065	2,639.65	64.3193	2,639.65	70.3888	2,639.65	55.9953	2,639.65	59.9284	2,639.65	69.1097	2,639.65	70.2894	2,639.65	68.309
2,731.93	84.8358	2,731.93	84.4229	2,731.93	82.503	2,731.93	80.2858	2,731.93	74.8078	2,731.93	73.1945	2,731.93	76.6691	2,731.93	71.8311	2,731.93	81.568	2,731.93	76.9428	2,731.93	83.5987	2,731.93	77.8628	2,731.93	81.9853	2,731.93	75.9251	2,731.93	80.3615	2,731.93	71.7729	2,731.93	79.2785	2,731.93	71.5598	2,731.93	74.8572	2,731.93	69.0736	2,731.93	65.02	2,731.93	71.2658	2,731.93	70.5095	2,731.93	69.3418	2,731.93	72.4855	2,731.93	69.7056	2,731.93	71.8756	2,731.93	66.0963	2,731.93	68.508	2,731.93	65.7233	2,731.93	68.2509	2,731.93	55.3904	2,731.93	59.5328	2,731.93	65.2377	2,731.93	68.7267	2,731.93	66.0697
2,828.61	86.0982	2,828.61	85.4883	2,828.61	82.2689	2,828.61	80.9513	2,828.61	73.9254	2,828.61	71.1224	2,828.61	75.9269	2,828.61	75.3407	2,828.61	81.9473	2,828.61	78.2286	2,828.61	83.6053	2,828.61	78.7702	2,828.61	81.9371	2,828.61	76.0247	2,828.61	80.0095	2,828.61	73.932	2,828.61	80.0508	2,828.61	72.6597	2,828.61	73.3726	2,828.61	73.1421	2,828.61	55.6048	2,828.61	72.2281	2,828.61	62.3997	2,828.61	69.2613	2,828.61	73.9202	2,828.61	70.5831	2,828.61	70.3595	2,828.61	67.324	2,828.61	69.1322	2,828.61	63.1648	2,828.61	65.4874	2,828.61	58.2627	2,828.61	48.7066	2,828.61	67.2986	2,828.61	68.1021	2,828.61	66.6393
2,928.22	86.4463	2,928.22	86.3167	2,928.22	83.5395	2,928.22	82.5329	2,928.22	73.883	2,928.22	69.9777	2,928.22	76.9861	2,928.22	76.5211	2,928.22	82.1037	2,928.22	78.8981	2,928.22	83.7254	2,928.22	78.6258	2,928.22	82.3254	2,928.22	76.777	2,928.22	80.8915	2,928.22	78.413	2,928.22	78.8067	2,928.22	74.6622	2,928.22	67.1865	2,928.22	70.8399	2,928.22	42.726	2,928.22	69.8067	2,928.22	63.279	2,928.22	68.3118	2,928.22	73.2866	2,928.22	70.434	2,928.22	68.1387	2,928.22	69.6611	2,928.22	69.306	2,928.22	65.4649	2,928.22	66.462	2,928.22	59.6849	2,928.22	48.4077	2,928.22	68.0529	2,928.22	68.5599	2,928.22	69.6683
3,030.76	86.3959	3,030.76	86.3443	3,030.76	83.4751	3,030.76	82.3153	3,030.76	74.0888	3,030.76	72.5384	3,030.76	76.3734	3,030.76	76.509	3,030.76	82.9253	3,030.76	79.8811	3,030.76	83.966	3,030.76	79.8736	3,030.76	81.4865	3,030.76	79.2658	3,030.76	80.948	3,030.76	76.2471	3,030.76	78.8849	3,030.76	72.6543	3,030.76	69.6818	3,030.76	71.2498	3,030.76	62.2981	3,030.76	72.0661	3,030.76	67.3396	3,030.76	70.1441	3,030.76	68.1947	3,030.76	69.4789	3,030.76	69.8635	3,030.76	70.597	3,030.76	68.4388	3,030.76	64.9759	3,030.76	59.8402	3,030.76	58.843	3,030.76	52.3883	3,030.76	69.375	3,030.76	69.2961	3,030.76	69.4645
3,137.7	85.9371	3,137.7	85.3517	3,137.7	83.182	3,137.7	81.2	3,137.7	72.7897	3,137.7	73.3974	3,137.7	75.6467	3,137.7	80.3656	3,137.7	81.8182	3,137.7	81.4795	3,137.7	83.9862	3,137.7	81.0969	3,137.7	79.917	3,137.7	77.989	3,137.7	78.6969	3,137.7	74.9451	3,137.7	76.0595	3,137.7	75.1139	3,137.7	71.0346	3,137.7	72.6468	3,137.7	64.1958	3,137.7	71.4892	3,137.7	56.0887	3,137.7	69.624	3,137.7	68.2502	3,137.7	70.5369	3,137.7	69.4578	3,137.7	69.9122	3,137.7	69.2982	3,137.7	67.0642	3,137.7	58.7315	3,137.7	61.2108	3,137.7	58.8145	3,137.7	68.9638	3,137.7	68.9383	3,137.7	70.051
3,249.02	85.2036	3,249.02	84.6702	3,249.02	83.2534	3,249.02	79.2035	3,249.02	72.9465	3,249.02	75.0112	3,249.02	76.9415	3,249.02	81.4724	3,249.02	80.879	3,249.02	81.9721	3,249.02	83.1265	3,249.02	80.6129	3,249.02	80.441	3,249.02	78.2009	3,249.02	78.3982	3,249.02	78.1743	3,249.02	72.4306	3,249.02	74.0475	3,249.02	73.486	3,249.02	70.6683	3,249.02	67.4084	3,249.02	69.2809	3,249.02	64.2947	3,249.02	68.0606	3,249.02	66.2468	3,249.02	68.8785	3,249.02	70.2224	3,249.02	70.2004	3,249.02	69.9087	3,249.02	66.8992	3,249.02	61.4915	3,249.02	60.3635	3,249.02	55.1604	3,249.02	66.1977	3,249.02	68.5977	3,249.02	70.2909
3,363.28	85.2785	3,363.28	84.3437	3,363.28	82.5022	3,363.28	77.8154	3,363.28	74.7974	3,363.28	76.9855	3,363.28	77.7912	3,363.28	82.1092	3,363.28	81.758	3,363.28	82.7958	3,363.28	81.613	3,363.28	80.5748	3,363.28	80.8617	3,363.28	79.3635	3,363.28	79.8613	3,363.28	74.7575	3,363.28	67.0913	3,363.28	71.499	3,363.28	74.2766	3,363.28	70.7508	3,363.28	72.748	3,363.28	69.7002	3,363.28	65.9733	3,363.28	69.4063	3,363.28	62.3001	3,363.28	66.6673	3,363.28	71.176	3,363.28	69.4364	3,363.28	69.7032	3,363.28	66.4861	3,363.28	60.7662	3,363.28	63.41	3,363.28	59.0421	3,363.28	63.5522	3,363.28	65.1488	3,363.28	67.8969
3,481.93	85.0981	3,481.93	85.108	3,481.93	82.497	3,481.93	78.6272	3,481.93	76.6567	3,481.93	79.4031	3,481.93	79.6286	3,481.93	82.8697	3,481.93	82.6459	3,481.93	83.134	3,481.93	80.9771	3,481.93	80.9091	3,481.93	80.623	3,481.93	77.706	3,481.93	80.9375	3,481.93	75.1796	3,481.93	69.8643	3,481.93	74.6765	3,481.93	74.816	3,481.93	68.4569	3,481.93	73.9503	3,481.93	67.8148	3,481.93	71.0792	3,481.93	66.3781	3,481.93	55.2862	3,481.93	66.4224	3,481.93	70.1697	3,481.93	67.9683	3,481.93	68.8006	3,481.93	65.6624	3,481.93	55.1381	3,481.93	63.0385	3,481.93	59.1572	3,481.93	64.6813	3,481.93	64.9016	3,481.93	68.2937
3,604.98	85.39	3,604.98	83.8842	3,604.98	82.2561	3,604.98	77.8565	3,604.98	77.1723	3,604.98	80.7257	3,604.98	81.6853	3,604.98	82.5659	3,604.98	83.2539	3,604.98	82.4776	3,604.98	80.0241	3,604.98	80.4272	3,604.98	82.0157	3,604.98	76.6772	3,604.98	79.4515	3,604.98	75.6545	3,604.98	74.9829	3,604.98	69.7528	3,604.98	75.7725	3,604.98	69.2608	3,604.98	75.0631	3,604.98	67.4757	3,604.98	72.3055	3,604.98	66.0416	3,604.98	66.764	3,604.98	63.5452	3,604.98	70.5067	3,604.98	66.0604	3,604.98	65.6833	3,604.98	65.2467	3,604.98	54.5952	3,604.98	62.4953	3,604.98	58.5383	3,604.98	63.9645	3,604.98	63.4046	3,604.98	68.9554
3,732.42	85.9956	3,732.42	83.5942	3,732.42	83.6371	3,732.42	77.9372	3,732.42	78.5969	3,732.42	81.1777	3,732.42	81.9593	3,732.42	83.6727	3,732.42	83.8308	3,732.42	82.4355	3,732.42	78.7538	3,732.42	79.2875	3,732.42	81.3924	3,732.42	75.9899	3,732.42	78.4379	3,732.42	72.8866	3,732.42	76.4052	3,732.42	69.9016	3,732.42	71.5239	3,732.42	68.9905	3,732.42	75.857	3,732.42	66.3087	3,732.42	71.6225	3,732.42	66.4478	3,732.42	69.387	3,732.42	63.1487	3,732.42	69.4537	3,732.42	64.4941	3,732.42	63.0712	3,732.42	64.6254	3,732.42	57.5791	3,732.42	62.2617	3,732.42	60.8626	3,732.42	65.6608	3,732.42	65.1032	3,732.42	69.6714
3,864.26	85.5397	3,864.26	82.3865	3,864.26	82.8053	3,864.26	80.0301	3,864.26	80.8888	3,864.26	82.0454	3,864.26	82.883	3,864.26	83.7913	3,864.26	83.2348	3,864.26	81.1939	3,864.26	79.342	3,864.26	78.8146	3,864.26	81.5994	3,864.26	74.9849	3,864.26	77.4	3,864.26	74.8941	3,864.26	76.0098	3,864.26	70.4866	3,864.26	68.4244	3,864.26	70.7599	3,864.26	71.3099	3,864.26	66.2311	3,864.26	70.7466	3,864.26	66.3331	3,864.26	68.2196	3,864.26	63.5252	3,864.26	69.7387	3,864.26	62.3265	3,864.26	61.9676	3,864.26	61.8752	3,864.26	56.8524	3,864.26	60.4907	3,864.26	64.6021	3,864.26	64.2589	3,864.26	64.7325	3,864.26	69.658
4,000.49	85.5802	4,000.49	82.6756	4,000.49	82.469	4,000.49	80.0989	4,000.49	80.0557	4,000.49	82.6992	4,000.49	84.3782	4,000.49	82.9367	4,000.49	82.2941	4,000.49	81.4761	4,000.49	79.619	4,000.49	76.9363	4,000.49	80.1067	4,000.49	77.162	4,000.49	74.3954	4,000.49	73.3642	4,000.49	74.7093	4,000.49	69.3236	4,000.49	74.4998	4,000.49	68.6817	4,000.49	57.8642	4,000.49	66.8996	4,000.49	61.3854	4,000.49	66.8654	4,000.49	70.3442	4,000.49	61.3071	4,000.49	67.4362	4,000.49	62.2011	4,000.49	57.6863	4,000.49	63.0249	4,000.49	61.2969	4,000.49	56.2436	4,000.49	62.5731	4,000.49	61.4315	4,000.49	65.8403	4,000.49	67.4253
4,141.11	86.0657	4,141.11	84.2746	4,141.11	84.6047	4,141.11	79.6087	4,141.11	78.9745	4,141.11	83.5445	4,141.11	85.5178	4,141.11	83.7493	4,141.11	82.455	4,141.11	81.3163	4,141.11	80.0746	4,141.11	77.9439	4,141.11	78.9502	4,141.11	75.7183	4,141.11	75.18	4,141.11	71.7055	4,141.11	76.4309	4,141.11	73.818	4,141.11	75.1066	4,141.11	68.7209	4,141.11	65.4961	4,141.11	66.8097	4,141.11	64.5388	4,141.11	64.7025	4,141.11	71.0999	4,141.11	64.4664	4,141.11	66.5043	4,141.11	61.3406	4,141.11	52.4125	4,141.11	62.9046	4,141.11	63.608	4,141.11	55.8513	4,141.11	50.9917	4,141.11	59.2238	4,141.11	65.9499	4,141.11	64.6846
4,287.6	86.1495	4,287.6	83.0226	4,287.6	84.6458	4,287.6	81.6886	4,287.6	80.2593	4,287.6	85.2235	4,287.6	85.4781	4,287.6	82.4211	4,287.6	83.7048	4,287.6	80.0093	4,287.6	80.5345	4,287.6	76.9357	4,287.6	79.7863	4,287.6	74.6397	4,287.6	77.1476	4,287.6	72.9979	4,287.6	76.5347	4,287.6	66.9481	4,287.6	71.8825	4,287.6	67.0862	4,287.6	70.6318	4,287.6	66.7197	4,287.6	70.3951	4,287.6	67.3596	4,287.6	70.6151	4,287.6	63.0693	4,287.6	67.3194	4,287.6	62.7789	4,287.6	63.2437	4,287.6	61.4079	4,287.6	63.2521	4,287.6	61.6899	4,287.6	56.8331	4,287.6	57.7936	4,287.6	65.8557	4,287.6	65.3145
4,438.48	87.1971	4,438.48	83.9019	4,438.48	85.6732	4,438.48	83.4788	4,438.48	82.3913	4,438.48	84.0628	4,438.48	85.0315	4,438.48	82.8061	4,438.48	82.8901	4,438.48	80.8513	4,438.48	80.9151	4,438.48	76.2451	4,438.48	79.731	4,438.48	75.8868	4,438.48	79.6521	4,438.48	73.5849	4,438.48	75.1388	4,438.48	74.4915	4,438.48	60.3972	4,438.48	71.4311	4,438.48	68.0012	4,438.48	69.751	4,438.48	71.6247	4,438.48	67.1431	4,438.48	70.6855	4,438.48	66.53	4,438.48	65.0512	4,438.48	67.0077	4,438.48	65.4007	4,438.48	57.7203	4,438.48	62.0988	4,438.48	64.0833	4,438.48	62.59	4,438.48	61.2559	4,438.48	64.907	4,438.48	64.7677
4,595.21	86.7963	4,595.21	84.7474	4,595.21	85.3766	4,595.21	83.837	4,595.21	83.06	4,595.21	84.2304	4,595.21	85.3354	4,595.21	83.5669	4,595.21	81.8724	4,595.21	80.0163	4,595.21	79.9607	4,595.21	78.738	4,595.21	79.4079	4,595.21	77.6922	4,595.21	79.1541	4,595.21	77.8616	4,595.21	67.4469	4,595.21	72.4179	4,595.21	69.2398	4,595.21	71.2767	4,595.21	67.2533	4,595.21	68.7357	4,595.21	70.771	4,595.21	66.8665	4,595.21	70.0533	4,595.21	68.6547	4,595.21	68.666	4,595.21	65.8733	4,595.21	66.4477	4,595.21	61.1691	4,595.21	60.1076	4,595.21	58.5893	4,595.21	63.0844	4,595.21	58.9955	4,595.21	65.9174	4,595.21	64.028
4,756.35	88.2441	4,756.35	84.3444	4,756.35	86.1331	4,756.35	84.2673	4,756.35	84.3218	4,756.35	85.0375	4,756.35	85.0055	4,756.35	82.9181	4,756.35	82.624	4,756.35	80.5847	4,756.35	77.0187	4,756.35	80.2772	4,756.35	78.4919	4,756.35	79.4547	4,756.35	78.5711	4,756.35	74.5219	4,756.35	70.8357	4,756.35	72.5995	4,756.35	71.7989	4,756.35	68.3983	4,756.35	63.6596	4,756.35	68.2811	4,756.35	60.2467	4,756.35	66.2764	4,756.35	66.9386	4,756.35	67.3848	4,756.35	67.0929	4,756.35	65.1935	4,756.35	65.3814	4,756.35	63.8272	4,756.35	65.2258	4,756.35	60.8008	4,756.35	61.0909	4,756.35	61.4771	4,756.35	63.6024	4,756.35	65.5976
4,924.8	88.5255	4,924.8	85.5003	4,924.8	87.3409	4,924.8	84.6863	4,924.8	84.76	4,924.8	85.5724	4,924.8	84.4574	4,924.8	82.8566	4,924.8	83.5026	4,924.8	81.6991	4,924.8	75.6223	4,924.8	78.5671	4,924.8	77.5564	4,924.8	75.7282	4,924.8	77.5055	4,924.8	72.8825	4,924.8	69.6877	4,924.8	70.9742	4,924.8	68.3813	4,924.8	69.3537	4,924.8	64.0969	4,924.8	67.0736	4,924.8	58.1584	4,924.8	63.0334	4,924.8	67.265	4,924.8	64.6711	4,924.8	68.9947	4,924.8	62.3602	4,924.8	65.6218	4,924.8	60.244	4,924.8	64.5487	4,924.8	54.8056	4,924.8	58.0241	4,924.8	62.3779	4,924.8	63.723	4,924.8	66.1817
5,097.66	88.463	5,097.66	84.2979	5,097.66	87.4845	5,097.66	85.5574	5,097.66	85.4006	5,097.66	86.0578	5,097.66	84.7679	5,097.66	81.8354	5,097.66	83.8645	5,097.66	81.4451	5,097.66	75.4873	5,097.66	77.2345	5,097.66	76.5573	5,097.66	76.0808	5,097.66	72.0933	5,097.66	71.3229	5,097.66	75.4953	5,097.66	70.6664	5,097.66	63.2322	5,097.66	67.3678	5,097.66	66.9973	5,097.66	68.5538	5,097.66	57.8451	5,097.66	64.7314	5,097.66	71.077	5,097.66	67.4222	5,097.66	69.2614	5,097.66	62.1269	5,097.66	62.7623	5,097.66	65.3116	5,097.66	63.0528	5,097.66	57.4063	5,097.66	61.2281	5,097.66	53.3364	5,097.66	66.1147	5,097.66	62.2328
5,277.83	88.3279	5,277.83	85.8716	5,277.83	87.4271	5,277.83	86.6452	5,277.83	85.6258	5,277.83	85.6616	5,277.83	85.8015	5,277.83	82.5616	5,277.83	84.994	5,277.83	81.4745	5,277.83	76.2586	5,277.83	77.6092	5,277.83	74.2773	5,277.83	76.7411	5,277.83	75.161	5,277.83	75.6209	5,277.83	78.0648	5,277.83	70.9388	5,277.83	68.0187	5,277.83	70.1838	5,277.83	72.0833	5,277.83	66.9259	5,277.83	60.2225	5,277.83	67.3365	5,277.83	69.4005	5,277.83	66.3482	5,277.83	66.4947	5,277.83	61.8322	5,277.83	52.8883	5,277.83	65.5001	5,277.83	63.8227	5,277.83	58.4071	5,277.83	60.5123	5,277.83	53.7348	5,277.83	63.2575	5,277.83	62.8312
5,463.87	88.8511	5,463.87	85.4966	5,463.87	86.9948	5,463.87	86.803	5,463.87	86.5725	5,463.87	85.125	5,463.87	87.1565	5,463.87	82.9176	5,463.87	86.8518	5,463.87	80.3224	5,463.87	76.8587	5,463.87	80.0438	5,463.87	72.1167	5,463.87	77.9257	5,463.87	77.676	5,463.87	72.7859	5,463.87	79.576	5,463.87	72.4371	5,463.87	75.3692	5,463.87	68.5965	5,463.87	72.944	5,463.87	66.3991	5,463.87	54.894	5,463.87	65.5979	5,463.87	70.4988	5,463.87	63.4416	5,463.87	66.1926	5,463.87	62.0879	5,463.87	58.1236	5,463.87	65.1718	5,463.87	62.6222	5,463.87	53.4042	5,463.87	55.4706	5,463.87	62.2586	5,463.87	63.9564	5,463.87	61.9822
5,657.23	89.6191	5,657.23	85.6841	5,657.23	87.4459	5,657.23	86.8212	5,657.23	87.5756	5,657.23	85.9508	5,657.23	86.8419	5,657.23	82.1169	5,657.23	86.3864	5,657.23	81.5305	5,657.23	77.6879	5,657.23	79.3912	5,657.23	73.5885	5,657.23	75.9384	5,657.23	78.2086	5,657.23	70.8106	5,657.23	80.8305	5,657.23	64.6968	5,657.23	72.7503	5,657.23	65.5205	5,657.23	74.1032	5,657.23	60.1539	5,657.23	48.6972	5,657.23	64.5215	5,657.23	70.4485	5,657.23	60.5488	5,657.23	63.0666	5,657.23	59.4015	5,657.23	64.6685	5,657.23	61.8967	5,657.23	64.8719	5,657.23	59.5782	5,657.23	64.1696	5,657.23	64.0011	5,657.23	63.8772	5,657.23	58.0238
5,856.45	88.8365	5,856.45	85.5401	5,856.45	88.1108	5,856.45	88.7219	5,856.45	87.2275	5,856.45	85.7394	5,856.45	87.8824	5,856.45	82.0787	5,856.45	85.5981	5,856.45	82.1019	5,856.45	80.6532	5,856.45	73.6204	5,856.45	64.6721	5,856.45	71.1786	5,856.45	78.615	5,856.45	74.1088	5,856.45	80.3649	5,856.45	72.3395	5,856.45	72.4366	5,856.45	69.6013	5,856.45	71.6351	5,856.45	67.723	5,856.45	63.2796	5,856.45	68.4873	5,856.45	66.1011	5,856.45	66.0486	5,856.45	57.1837	5,856.45	67.4088	5,856.45	65.1411	5,856.45	65.7554	5,856.45	60.4619	5,856.45	61.403	5,856.45	65.4801	5,856.45	62.633	5,856.45	64.224	5,856.45	55.9954
6,062.99	88.0044	6,062.99	87.9482	6,062.99	89.1456	6,062.99	88.5551	6,062.99	83.5466	6,062.99	85.1781	6,062.99	87.1661	6,062.99	83.3105	6,062.99	84.4173	6,062.99	80.9573	6,062.99	80.0639	6,062.99	78.8232	6,062.99	71.9456	6,062.99	78.9366	6,062.99	79.6145	6,062.99	75.6677	6,062.99	75.0936	6,062.99	72.8997	6,062.99	73.9385	6,062.99	71.0524	6,062.99	49.4622	6,062.99	66.0018	6,062.99	65.6312	6,062.99	67.8019	6,062.99	64.3172	6,062.99	67.0031	6,062.99	60.3904	6,062.99	66.8316	6,062.99	59.099	6,062.99	65.2591	6,062.99	64.567	6,062.99	63.8074	6,062.99	56.0425	6,062.99	59.7231	6,062.99	61.5218	6,062.99	64.7083
6,276.86	88.3164	6,276.86	88.4295	6,276.86	88.959	6,276.86	87.8148	6,276.86	87.288	6,276.86	84.5407	6,276.86	83.9882	6,276.86	83.7363	6,276.86	83.5498	6,276.86	80.6588	6,276.86	79.91	6,276.86	80.414	6,276.86	73.8835	6,276.86	78.2158	6,276.86	78.8666	6,276.86	75.5188	6,276.86	73.1559	6,276.86	72.0846	6,276.86	73.9658	6,276.86	68.5843	6,276.86	64.7556	6,276.86	65.8583	6,276.86	62.4578	6,276.86	66.0594	6,276.86	60.9498	6,276.86	65.2882	6,276.86	60.966	6,276.86	64.7828	6,276.86	62.5867	6,276.86	64.5937	6,276.86	59.3211	6,276.86	62.6878	6,276.86	61.6387	6,276.86	56.3476	6,276.86	59.2714	6,276.86	62.0484
6,498.05	88.8186	6,498.05	88.8954	6,498.05	88.8505	6,498.05	87.5314	6,498.05	88.6743	6,498.05	84.9301	6,498.05	83.6478	6,498.05	83.5665	6,498.05	82.355	6,498.05	81.057	6,498.05	81.2052	6,498.05	80.2618	6,498.05	72.9402	6,498.05	76.8573	6,498.05	78.2945	6,498.05	72.5968	6,498.05	69.9986	6,498.05	70.6369	6,498.05	72.9252	6,498.05	67.1956	6,498.05	67.2158	6,498.05	66.3136	6,498.05	57.2937	6,498.05	63.7495	6,498.05	47.6445	6,498.05	64.048	6,498.05	60.5744	6,498.05	63.9465	6,498.05	46.6755	6,498.05	62.1827	6,498.05	53.8725	6,498.05	65.45	6,498.05	63.7604	6,498.05	54.7642	6,498.05	55.3636	6,498.05	62.2744
6,726.56	89.1135	6,726.56	88.6934	6,726.56	87.6401	6,726.56	87.1328	6,726.56	86.755	6,726.56	85.2263	6,726.56	85.5034	6,726.56	82.712	6,726.56	81.5722	6,726.56	82.1378	6,726.56	81.9004	6,726.56	78.7199	6,726.56	72.917	6,726.56	75.9993	6,726.56	77.4822	6,726.56	71.6777	6,726.56	73.4354	6,726.56	70.3214	6,726.56	70.2826	6,726.56	65.8524	6,726.56	64.3964	6,726.56	65.8283	6,726.56	54.8468	6,726.56	66.1759	6,726.56	47.5853	6,726.56	64.4134	6,726.56	54.1163	6,726.56	62.8809	6,726.56	59.0359	6,726.56	66.1155	6,726.56	55.9852	6,726.56	65.5297	6,726.56	62.5608	6,726.56	52.0215	6,726.56	58.4876	6,726.56	61.1475
6,963.87	89.5566	6,963.87	88.6727	6,963.87	87.4881	6,963.87	86.7226	6,963.87	85.4267	6,963.87	85.2539	6,963.87	87.5452	6,963.87	82.9729	6,963.87	82.6086	6,963.87	81.9026	6,963.87	83.6162	6,963.87	79.0828	6,963.87	73.5132	6,963.87	75.8337	6,963.87	75.3958	6,963.87	73.9229	6,963.87	73.8407	6,963.87	68.867	6,963.87	70.645	6,963.87	66.9714	6,963.87	63.4363	6,963.87	66.8128	6,963.87	61.8245	6,963.87	64.6641	6,963.87	41.5334	6,963.87	64.4709	6,963.87	57.3681	6,963.87	64.287	6,963.87	62.0443	6,963.87	65.9958	6,963.87	57.387	6,963.87	66.6448	6,963.87	58.2511	6,963.87	53.5468	6,963.87	56.4689	6,963.87	59.5828
7,209.96	89.1362	7,209.96	88.6544	7,209.96	88.983	7,209.96	86.7059	7,209.96	85.641	7,209.96	85.165	7,209.96	87.9314	7,209.96	82.9526	7,209.96	83.6642	7,209.96	81.7936	7,209.96	84.7692	7,209.96	78.9628	7,209.96	73.4729	7,209.96	76.2163	7,209.96	75.4529	7,209.96	72.9899	7,209.96	73.6359	7,209.96	70.5305	7,209.96	66.0159	7,209.96	65.634	7,209.96	60.5229	7,209.96	64.7743	7,209.96	57.6157	7,209.96	64.9767	7,209.96	51.4511	7,209.96	63.3907	7,209.96	58.5056	7,209.96	65.2191	7,209.96	63.636	7,209.96	65.0987	7,209.96	59.2942	7,209.96	66.509	7,209.96	60.7211	7,209.96	58.5406	7,209.96	58.7772	7,209.96	55.2135
7,464.84	88.5743	7,464.84	88.2071	7,464.84	88.2204	7,464.84	86.0697	7,464.84	85.9098	7,464.84	84.9103	7,464.84	86.3399	7,464.84	83.5984	7,464.84	85.1001	7,464.84	80.7702	7,464.84	83.8675	7,464.84	79.7048	7,464.84	77.8486	7,464.84	75.869	7,464.84	74.9878	7,464.84	71.9386	7,464.84	71.2036	7,464.84	67.9233	7,464.84	66.7997	7,464.84	65.9699	7,464.84	60.7671	7,464.84	64.6296	7,464.84	60.7852	7,464.84	62.9976	7,464.84	46.7755	7,464.84	63.3023	7,464.84	56.3967	7,464.84	65.7254	7,464.84	53.6981	7,464.84	63.8616	7,464.84	55.253	7,464.84	66.039	7,464.84	63.0425	7,464.84	61.4214	7,464.84	61.4802	7,464.84	54.056
7,727.05	89.4047	7,727.05	88.2321	7,727.05	88.2319	7,727.05	86.883	7,727.05	85.2871	7,727.05	85.1231	7,727.05	84.7072	7,727.05	83.2227	7,727.05	85.9881	7,727.05	81.4536	7,727.05	83.3945	7,727.05	79.177	7,727.05	79.567	7,727.05	75.332	7,727.05	72.0456	7,727.05	72.0562	7,727.05	69.4752	7,727.05	70.3233	7,727.05	62.0103	7,727.05	65.806	7,727.05	65.3288	7,727.05	64.0791	7,727.05	53.4688	7,727.05	64.176	7,727.05	48.0066	7,727.05	63.011	7,727.05	59.086	7,727.05	65.8675	7,727.05	51.3126	7,727.05	64.2302	7,727.05	55.3286	7,727.05	65.5207	7,727.05	59.4016	7,727.05	59.4126	7,727.05	56.2423	7,727.05	51.0217
7,999.51	89.2751	7,999.51	87.987	7,999.51	89.1067	7,999.51	86.966	7,999.51	86.2734	7,999.51	85.0701	7,999.51	83.4547	7,999.51	83.803	7,999.51	86.2582	7,999.51	81.276	7,999.51	83.5939	7,999.51	79.4508	7,999.51	81.0234	7,999.51	76.3041	7,999.51	70.1906	7,999.51	73.2479	7,999.51	69.9187	7,999.51	68.8205	7,999.51	69.0582	7,999.51	65.2196	7,999.51	64.1245	7,999.51	64.1547	7,999.51	58.1772	7,999.51	63.5284	7,999.51	47.3175	7,999.51	61.897	7,999.51	54.7921	7,999.51	65.5512	7,999.51	53.4139	7,999.51	62.8022	7,999.51	56.2591	7,999.51	65.9279	7,999.51	56.8305	7,999.51	61.5511	7,999.51	55.4242	7,999.51	50.2563
8,282.23	89.2991	8,282.23	88.9073	8,282.23	87.6489	8,282.23	87.5791	8,282.23	88.0433	8,282.23	85.7799	8,282.23	85.5432	8,282.23	83.2467	8,282.23	85.4869	8,282.23	81.7648	8,282.23	84.2499	8,282.23	79.7583	8,282.23	80.9428	8,282.23	76.2554	8,282.23	52.4147	8,282.23	73.0858	8,282.23	71.6554	8,282.23	69.6753	8,282.23	66.8703	8,282.23	66.4518	8,282.23	63.3303	8,282.23	61.6297	8,282.23	59.8158	8,282.23	63.3822	8,282.23	39.068	8,282.23	62.9284	8,282.23	55.5114	8,282.23	64.3403	8,282.23	52.9899	8,282.23	61.3032	8,282.23	57.6018	8,282.23	64.2357	8,282.23	57.3598	8,282.23	61.8629	8,282.23	55.5195	8,282.23	46.0986
8,573.73	89.8152	8,573.73	88.8355	8,573.73	88.9443	8,573.73	87.7189	8,573.73	87.9378	8,573.73	85.5529	8,573.73	87.5211	8,573.73	83.8586	8,573.73	83.9181	8,573.73	81.5848	8,573.73	85.0528	8,573.73	79.6886	8,573.73	75.5342	8,573.73	74.8961	8,573.73	72.254	8,573.73	71.7209	8,573.73	64.2214	8,573.73	67.5865	8,573.73	64.4403	8,573.73	65.3057	8,573.73	63.1605	8,573.73	63.3019	8,573.73	50.5356	8,573.73	61.32	8,573.73	55.1967	8,573.73	60.1714	8,573.73	56.6732	8,573.73	61.78	8,573.73	55.1412	8,573.73	62.7933	8,573.73	49.785	8,573.73	64.9285	8,573.73	56.1931	8,573.73	61.098	8,573.73	56.5643	8,573.73	50.5653
8,876.95	89.5002	8,876.95	89.3557	8,876.95	88.8619	8,876.95	88.3559	8,876.95	87.4128	8,876.95	85.9361	8,876.95	87.295	8,876.95	84.0521	8,876.95	82.153	8,876.95	81.6403	8,876.95	84.6452	8,876.95	79.4016	8,876.95	74.5586	8,876.95	75.5133	8,876.95	72.8047	8,876.95	72.6373	8,876.95	70.5997	8,876.95	68.4054	8,876.95	64.9805	8,876.95	64.6081	8,876.95	60.6943	8,876.95	62.7087	8,876.95	47.798	8,876.95	61.0995	8,876.95	53.3708	8,876.95	62.3743	8,876.95	48.0384	8,876.95	62.9953	8,876.95	52.4771	8,876.95	63.4279	8,876.95	51.8504	8,876.95	65.5384	8,876.95	51.1165	8,876.95	61.0566	8,876.95	56.651	8,876.95	51.6427
9,188.96	89.667	9,188.96	89.5185	9,188.96	89.4856	9,188.96	88.4391	9,188.96	87.9004	9,188.96	86.3024	9,188.96	85.5942	9,188.96	84.1241	9,188.96	81.6789	9,188.96	82.0808	9,188.96	83.2096	9,188.96	79.3575	9,188.96	76.9477	9,188.96	75.6683	9,188.96	75.9978	9,188.96	71.4806	9,188.96	72.0424	9,188.96	67.2688	9,188.96	66.467	9,188.96	65.1431	9,188.96	58.8725	9,188.96	62.0053	9,188.96	54.8157	9,188.96	60.1353	9,188.96	50.5564	9,188.96	63.6118	9,188.96	52.5093	9,188.96	63.0455	9,188.96	53.3373	9,188.96	61.7549	9,188.96	44.4566	9,188.96	64.5762	9,188.96	54.5655	9,188.96	60.1687	9,188.96	56.9113	9,188.96	52.5068
9,514.16	89.8751	9,514.16	90.0262	9,514.16	89.5153	9,514.16	89.0765	9,514.16	89.0523	9,514.16	86.4859	9,514.16	84.5781	9,514.16	84.4951	9,514.16	84.5581	9,514.16	82.0692	9,514.16	80.0615	9,514.16	79.4418	9,514.16	80.4879	9,514.16	75.0635	9,514.16	74.823	9,514.16	72.5465	9,514.16	69.4371	9,514.16	69.3988	9,514.16	61.4463	9,514.16	66.992	9,514.16	55.4198	9,514.16	61.6042	9,514.16	54.5634	9,514.16	62.3851	9,514.16	51.2409	9,514.16	64.8412	9,514.16	55.5741	9,514.16	63.4301	9,514.16	51.6059	9,514.16	63.0818	9,514.16	51.0024	9,514.16	63.4341	9,514.16	53.2124	9,514.16	62.1419	9,514.16	56.0725	9,514.16	54.5031
9,849.61	89.863	9,849.61	90.314	9,849.61	89.6176	9,849.61	89.6679	9,849.61	88.8939	9,849.61	86.7748	9,849.61	86.7003	9,849.61	84.5668	9,849.61	85.8259	9,849.61	81.4315	9,849.61	76.4905	9,849.61	79.5616	9,849.61	81.7848	9,849.61	75.388	9,849.61	69.6557	9,849.61	72.2639	9,849.61	69.1057	9,849.61	68.4753	9,849.61	62.8118	9,849.61	64.6076	9,849.61	58.226	9,849.61	59.1471	9,849.61	58.3659	9,849.61	62.3409	9,849.61	52.9721	9,849.61	64.59	9,849.61	56.4108	9,849.61	63.002	9,849.61	46.3827	9,849.61	62.7232	9,849.61	51.3612	9,849.61	62.0061	9,849.61	55.2323	9,849.61	61.8219	9,849.61	56.8958	9,849.61	54.9247
10,196.8	90.1505	10,196.8	90.4579	10,196.8	89.8292	10,196.8	89.8538	10,196.8	89.0448	10,196.8	87.3891	10,196.8	87.8818	10,196.8	84.1122	10,196.8	85.4008	10,196.8	81.5072	10,196.8	78.824	10,196.8	79.4796	10,196.8	81.0741	10,196.8	75.1239	10,196.8	68.8732	10,196.8	72.1184	10,196.8	66.2727	10,196.8	68.4708	10,196.8	59.2681	10,196.8	63.9897	10,196.8	49.2264	10,196.8	62.2348	10,196.8	56.2485	10,196.8	62.6037	10,196.8	53.1856	10,196.8	64.0874	10,196.8	44.0112	10,196.8	61.5799	10,196.8	48.4518	10,196.8	62.2717	10,196.8	51.6338	10,196.8	61.6453	10,196.8	54.4881	10,196.8	63.3202	10,196.8	57.0761	10,196.8	57.7769
10,555.7	90.227	10,555.7	90.4167	10,555.7	89.9252	10,555.7	90.1766	10,555.7	89.0445	10,555.7	87.3175	10,555.7	88.1164	10,555.7	84.1996	10,555.7	83.0093	10,555.7	80.7462	10,555.7	81.4608	10,555.7	79.559	10,555.7	79.6039	10,555.7	75.3797	10,555.7	72.8192	10,555.7	72.7211	10,555.7	67.7261	10,555.7	68.0861	10,555.7	61.425	10,555.7	62.3539	10,555.7	60.2046	10,555.7	59.8568	10,555.7	56.3124	10,555.7	61.6348	10,555.7	48.8923	10,555.7	62.7022	10,555.7	47.9221	10,555.7	61.3571	10,555.7	53.7035	10,555.7	61.3891	10,555.7	50.8298	10,555.7	61.1824	10,555.7	57.0007	10,555.7	61.6833	10,555.7	54.6883	10,555.7	53.6711
10,927.7	90.352	10,927.7	90.3571	10,927.7	90.23	10,927.7	90.4016	10,927.7	88.8745	10,927.7	87.3809	10,927.7	87.9193	10,927.7	83.9231	10,927.7	81.6404	10,927.7	80.4847	10,927.7	82.4691	10,927.7	79.0965	10,927.7	76.8928	10,927.7	74.3271	10,927.7	76.2007	10,927.7	70.604	10,927.7	67.2475	10,927.7	65.1856	10,927.7	62.2073	10,927.7	63.0941	10,927.7	59.9962	10,927.7	59.0956	10,927.7	47.3894	10,927.7	58.5063	10,927.7	41.9265	10,927.7	61.2788	10,927.7	43.7524	10,927.7	60.5088	10,927.7	55.7788	10,927.7	59.4883	10,927.7	55.1964	10,927.7	58.5585	10,927.7	57.7118	10,927.7	58.954	10,927.7	54.3357	10,927.7	52.0514
11,313	90.2549	11,313	90.3642	11,313	90.1998	11,313	90.4087	11,313	89.489	11,313	87.3096	11,313	85.8623	11,313	83.309	11,313	81.29	11,313	80.146	11,313	82.2173	11,313	78.0882	11,313	76.4057	11,313	73.056	11,313	73.7545	11,313	69.7266	11,313	64.5213	11,313	65.3878	11,313	57.7169	11,313	62.0098	11,313	59.9123	11,313	59.062	11,313	37.9954	11,313	59.2831	11,313	34.6796	11,313	60.4359	11,313	46.7272	11,313	59.0202	11,313	55.7822	11,313	56.5982	11,313	56.0431	11,313	57.3071	11,313	57.8554	11,313	56.4918	11,313	55.3658	11,313	48.9828
11,712.9	90.1961	11,712.9	90.1715	11,712.9	90.0741	11,712.9	90.2908	11,712.9	89.3429	11,712.9	86.943	11,712.9	86.227	11,712.9	82.9847	11,712.9	81.9805	11,712.9	79.3539	11,712.9	80.8023	11,712.9	77.5499	11,712.9	76.2917	11,712.9	71.6171	11,712.9	68.2568	11,712.9	68.8815	11,712.9	63.2575	11,712.9	65.2192	11,712.9	52.318	11,712.9	60.3324	11,712.9	55.8916	11,712.9	53.4139	11,712.9	48.1454	11,712.9	57.1991	11,712.9	45.1827	11,712.9	59.7493	11,712.9	50.3749	11,712.9	58.3728	11,712.9	51.9213	11,712.9	56.3337	11,712.9	56.1407	11,712.9	56.5692	11,712.9	60.4431	11,712.9	56.9634	11,712.9	54.9955	11,712.9	48.3124
12,126	90.0908	12,126	89.7827	12,126	89.4689	12,126	89.9699	12,126	89.1725	12,126	86.4464	12,126	86.8126	12,126	82.2093	12,126	82.1355	12,126	78.7007	12,126	78.0797	12,126	76.5691	12,126	73.9589	12,126	71.3062	12,126	67.0879	12,126	67.4606	12,126	64.98	12,126	62.385	12,126	58.7243	12,126	58.9541	12,126	52.7307	12,126	52.8268	12,126	49.8376	12,126	57.0645	12,126	49.1446	12,126	57.8683	12,126	46.173	12,126	56.8508	12,126	48.5415	12,126	55.4172	12,126	53.772	12,126	53.6878	12,126	58.3027	12,126	55.4884	12,126	55.3691	12,126	48.9311
12,553.7	89.4804	12,553.7	89.4722	12,553.7	89.1973	12,553.7	89.4726	12,553.7	88.63	12,553.7	85.4435	12,553.7	85.6181	12,553.7	81.5731	12,553.7	80.9793	12,553.7	77.5767	12,553.7	75.1404	12,553.7	75.8864	12,553.7	70.8856	12,553.7	69.5728	12,553.7	67.3314	12,553.7	66.207	12,553.7	65.693	12,553.7	62.5873	12,553.7	57.9978	12,553.7	58.6503	12,553.7	56.0182	12,553.7	56.4277	12,553.7	50.9539	12,553.7	57.6466	12,553.7	50.0302	12,553.7	58.4057	12,553.7	45.0868	12,553.7	55.2867	12,553.7	41.5828	12,553.7	56.011	12,553.7	50.0398	12,553.7	55.2068	12,553.7	57.5951	12,553.7	56.6236	12,553.7	57.1203	12,553.7	51.5622
12,996.1	88.7449	12,996.1	89.0305	12,996.1	88.8274	12,996.1	88.9707	12,996.1	88.1122	12,996.1	84.4357	12,996.1	84.2678	12,996.1	80.7897	12,996.1	81.0236	12,996.1	77.0126	12,996.1	76.0288	12,996.1	74.6577	12,996.1	70.7643	12,996.1	69.6297	12,996.1	69.7231	12,996.1	66.1401	12,996.1	65.7548	12,996.1	63.6839	12,996.1	51.8431	12,996.1	58.0445	12,996.1	55.4047	12,996.1	55.8656	12,996.1	52.8473	12,996.1	57.0773	12,996.1	52.6725	12,996.1	57.3949	12,996.1	44.3454	12,996.1	55.5027	12,996.1	45.623	12,996.1	55.7899	12,996.1	47.6522	12,996.1	55.6787	12,996.1	57.3732	12,996.1	57.6045	12,996.1	55.5191	12,996.1	50.5509
13,454.6	87.9735	13,454.6	88.132	13,454.6	88.5554	13,454.6	88.3176	13,454.6	88.1733	13,454.6	84.0189	13,454.6	84.6804	13,454.6	80.6709	13,454.6	81.4043	13,454.6	76.8518	13,454.6	76.6251	13,454.6	74.7616	13,454.6	72.2785	13,454.6	70.1449	13,454.6	70.7648	13,454.6	66.5914	13,454.6	64.1791	13,454.6	64.3397	13,454.6	60.3927	13,454.6	57.315	13,454.6	57.2706	13,454.6	53.5195	13,454.6	46.5952	13,454.6	56.343	13,454.6	45.9239	13,454.6	56.6354	13,454.6	47.6571	13,454.6	56.0624	13,454.6	51.5605	13,454.6	55.7858	13,454.6	51.3405	13,454.6	55.9245	13,454.6	57.4776	13,454.6	56.8981	13,454.6	59.8524	13,454.6	45.4203
13,929.2	87.4079	13,929.2	87.6719	13,929.2	87.7805	13,929.2	87.6672	13,929.2	87.0722	13,929.2	84.0851	13,929.2	85.0674	13,929.2	81.0135	13,929.2	80.1227	13,929.2	76.5279	13,929.2	76.6474	13,929.2	74.8677	13,929.2	70.8414	13,929.2	70.8863	13,929.2	69.6817	13,929.2	66.996	13,929.2	65.6752	13,929.2	64.5444	13,929.2	59.2867	13,929.2	56.2757	13,929.2	55.6423	13,929.2	55.0299	13,929.2	49.3404	13,929.2	56.7287	13,929.2	48.5019	13,929.2	55.546	13,929.2	48.7309	13,929.2	54.3359	13,929.2	55.0474	13,929.2	54.6293	13,929.2	53.3272	13,929.2	55.2229	13,929.2	59.5988	13,929.2	54.4718	13,929.2	59.5855	13,929.2	46.8902
14,419.9	87.5393	14,419.9	87.5131	14,419.9	87.839	14,419.9	87.2499	14,419.9	87.0634	14,419.9	84.5477	14,419.9	84.4571	14,419.9	80.9741	14,419.9	79.4915	14,419.9	75.4625	14,419.9	72.8075	14,419.9	74.1811	14,419.9	70.5959	14,419.9	69.8298	14,419.9	68.7933	14,419.9	65.1214	14,419.9	62.897	14,419.9	62.634	14,419.9	57.9241	14,419.9	53.272	14,419.9	56.5172	14,419.9	55.2029	14,419.9	49.7272	14,419.9	55.7011	14,419.9	46.3977	14,419.9	55.5071	14,419.9	49.857	14,419.9	48.7634	14,419.9	56.3609	14,419.9	51.3197	14,419.9	56.0656	14,419.9	52.3564	14,419.9	59.2246	14,419.9	50.7905	14,419.9	56.5934	14,419.9	51.2405
14,928.2	88.0707	14,928.2	87.9797	14,928.2	88.1206	14,928.2	87.3775	14,928.2	86.6262	14,928.2	84.3729	14,928.2	83.8943	14,928.2	80.0811	14,928.2	78.1456	14,928.2	73.6863	14,928.2	69.2114	14,928.2	72.9927	14,928.2	67.8494	14,928.2	68.0536	14,928.2	67.7513	14,928.2	64.2526	14,928.2	56.9176	14,928.2	61.147	14,928.2	52.3939	14,928.2	50.2582	14,928.2	52.5979	14,928.2	54.4456	14,928.2	37.4643	14,928.2	52.9277	14,928.2	44.2776	14,928.2	54.8401	14,928.2	49.1696	14,928.2	42.9585	14,928.2	56.9585	14,928.2	51.8577	14,928.2	52.2328	14,928.2	48.1199	14,928.2	55.1601	14,928.2	47.8148	14,928.2	52.8759	14,928.2	52.2548
15,455.6	88.1709	15,455.6	88.1471	15,455.6	88.1055	15,455.6	87.2579	15,455.6	86.6694	15,455.6	84.1391	15,455.6	82.903	15,455.6	79.3948	15,455.6	75.0885	15,455.6	72.7928	15,455.6	68.8964	15,455.6	71.8603	15,455.6	67.3621	15,455.6	67.0457	15,455.6	68.0475	15,455.6	63.1708	15,455.6	62.5562	15,455.6	60.5162	15,455.6	57.2229	15,455.6	49.7044	15,455.6	49.83	15,455.6	50.6132	15,455.6	34.2976	15,455.6	51.2218	15,455.6	48.2699	15,455.6	50.7368	15,455.6	48.9568	15,455.6	33.5267	15,455.6	54.6405	15,455.6	49.3317	15,455.6	50.9101	15,455.6	46.9617	15,455.6	51.5788	15,455.6	53.8111	15,455.6	53.5151	15,455.6	53.4489
16,000.5	87.8399	16,000.5	87.8536	16,000.5	87.3478	16,000.5	86.6485	16,000.5	85.7404	16,000.5	83.6286	16,000.5	81.7721	16,000.5	78.3063	16,000.5	72.5703	16,000.5	70.122	16,000.5	71.6329	16,000.5	69.4255	16,000.5	73.169	16,000.5	64.1241	16,000.5	70.2262	16,000.5	58.6086	16,000.5	67.019	16,000.5	56.5084	16,000.5	61.6094	16,000.5	49.6394	16,000.5	56.9853	16,000.5	47.7783	16,000.5	43.0468	16,000.5	49.8497	16,000.5	43.9935	16,000.5	45.6377	16,000.5	45.2916	16,000.5	43.9474	16,000.5	53.4058	16,000.5	45.8534	16,000.5	48.7488	16,000.5	45.0731	16,000.5	45.7377	16,000.5	50.9282	16,000.5	48.8842	16,000.5	50.6799
16,564.5	87.8315	16,564.5	87.3352	16,564.5	86.771	16,564.5	86.1631	16,564.5	84.9988	16,564.5	82.8291	16,564.5	82.3655	16,564.5	76.4733	16,564.5	75.5786	16,564.5	66.848	16,564.5	72.6146	16,564.5	65.8022	16,564.5	74.492	16,564.5	61.075	16,564.5	70.1642	16,564.5	59.3861	16,564.5	66.0546	16,564.5	53.3592	16,564.5	55.9613	16,564.5	53.2552	16,564.5	57.9134	16,564.5	46.3901	16,564.5	46.9279	16,564.5	50.9564	16,564.5	43.4721	16,564.5	45.5236	16,564.5	38.6442	16,564.5	45.4956	16,564.5	49.8913	16,564.5	47.2152	16,564.5	49.6614	16,564.5	43.747	16,564.5	41.0571	16,564.5	46.5785	16,564.5	32.9078	16,564.5	51.2808
17,148.9	88.19	17,148.9	86.929	17,148.9	86.2635	17,148.9	85.8658	17,148.9	84.413	17,148.9	81.8503	17,148.9	82.306	17,148.9	75.3752	17,148.9	75.5643	17,148.9	67.0194	17,148.9	70.4199	17,148.9	66.1051	17,148.9	71.6818	17,148.9	64.7019	17,148.9	68.0144	17,148.9	61.2267	17,148.9	63.9692	17,148.9	55.8981	17,148.9	57.0372	17,148.9	54.6428	17,148.9	53.4013	17,148.9	42.1448	17,148.9	46.1216	17,148.9	50.1038	17,148.9	40.9527	17,148.9	50.2183	17,148.9	44.2105	17,148.9	49.2878	17,148.9	52.8885	17,148.9	50.7127	17,148.9	48.505	17,148.9	49.5697	17,148.9	46.5527	17,148.9	45.5532	17,148.9	43.5949	17,148.9	46.0611
17,752.4	88.5115	17,752.4	86.9348	17,752.4	86.271	17,752.4	85.6771	17,752.4	84.1657	17,752.4	81.6761	17,752.4	81.3879	17,752.4	75.4603	17,752.4	73.553	17,752.4	66.0804	17,752.4	67.5736	17,752.4	65.1576	17,752.4	71.0049	17,752.4	64.1879	17,752.4	64.5472	17,752.4	59.3085	17,752.4	65.6391	17,752.4	53.6871	17,752.4	57.2209	17,752.4	53.7898	17,752.4	58.7061	17,752.4	38.766	17,752.4	48.6962	17,752.4	48.1811	17,752.4	41.1708	17,752.4	50.2723	17,752.4	45.5563	17,752.4	50.0408	17,752.4	52.6231	17,752.4	50.4418	17,752.4	45.3278	17,752.4	50.9209	17,752.4	47.5342	17,752.4	45.7997	17,752.4	46.8125	17,752.4	44.4447
18,379.4	88.7722	18,379.4	87.2728	18,379.4	86.1033	18,379.4	86.0734	18,379.4	83.6855	18,379.4	81.3135	18,379.4	78.3595	18,379.4	74.9027	18,379.4	68.5302	18,379.4	62.0445	18,379.4	66.8703	18,379.4	54.4179	18,379.4	67.2533	18,379.4	62.0598	18,379.4	67.972	18,379.4	57.604	18,379.4	63.0583	18,379.4	50.7711	18,379.4	53.9585	18,379.4	51.7792	18,379.4	56.4705	18,379.4	40.5278	18,379.4	42.2673	18,379.4	47.9034	18,379.4	42.9712	18,379.4	50.8143	18,379.4	46.44	18,379.4	45.5381	18,379.4	38.7611	18,379.4	52.9584	18,379.4	46.0215	18,379.4	45.4352	18,379.4	37.5704	18,379.4	45.7086	18,379.4	52.3452	18,379.4	41.7937
19,026.9	88.6334	19,026.9	87.6842	19,026.9	85.2078	19,026.9	86.7647	19,026.9	82.3933	19,026.9	81.3885	19,026.9	72.8369	19,026.9	74.2539	19,026.9	65.884	19,026.9	65.1297	19,026.9	68.6543	19,026.9	63.3863	19,026.9	69.8312	19,026.9	60.0888	19,026.9	68.0135	19,026.9	55.9294	19,026.9	63.9076	19,026.9	51.231	19,026.9	54.1402	19,026.9	52.4778	19,026.9	50.5816	19,026.9	40.0551	19,026.9	48.1028	19,026.9	46.6669	19,026.9	49.8711	19,026.9	49.9851	19,026.9	47.6172	19,026.9	31.2604	19,026.9	49.4942	19,026.9	51.6903	19,026.9	51.2457	19,026.9	44.0475	19,026.9	42.6329	19,026.9	39.7995	19,026.9	49.6523	19,026.9	44.7013
19,697.8	87.2126	19,697.8	86.9666	19,697.8	83.0505	19,697.8	86.4592	19,697.8	78.5963	19,697.8	80.4049	19,697.8	69.9205	19,697.8	74.3578	19,697.8	73.0406	19,697.8	70.1945	19,697.8	75.7558	19,697.8	69.0962	19,697.8	72.521	19,697.8	64.083	19,697.8	66.819	19,697.8	58.3128	19,697.8	68.2119	19,697.8	53.8956	19,697.8	54.8556	19,697.8	53.1397	19,697.8	55.5682	19,697.8	41.8449	19,697.8	48.9588	19,697.8	43.1044	19,697.8	44.7958	19,697.8	52.4082	19,697.8	46.0155	19,697.8	41.3935	19,697.8	49.8516	19,697.8	49.4471	19,697.8	48.954	19,697.8	53.7293	19,697.8	46.3153	19,697.8	52.1168	19,697.8	49.7771	19,697.8	45.5993
19,999.5	86.4639	19,999.5	86.2013	19,999.5	82.2812	19,999.5	85.6787	19,999.5	77.1392	19,999.5	80.1626	19,999.5	69.3556	19,999.5	74.3461	19,999.5	75.194	19,999.5	70.8214	19,999.5	78.3829	19,999.5	70.7842	19,999.5	69.3047	19,999.5	64.7678	19,999.5	68.3309	19,999.5	56.3332	19,999.5	67.4661	19,999.5	52.3912	19,999.5	55.7224	19,999.5	48.1266	19,999.5	47.5445	19,999.5	50.5075	19,999.5	51.2991	19,999.5	39.3075	19,999.5	55.8097	19,999.5	59.4882	19,999.5	52.8374	19,999.5	46.7692	19,999.5	45.2541	19,999.5	50.2952	19,999.5	53.436	19,999.5	53.349	19,999.5	52.5843	19,999.5	50.4617	19,999.5	41.1015	19,999.5	46.2797
