"SPL Vertical"
"On-Axis"		"10°"		"-10°"		"20°"		"-20°"		"30°"		"-30°"		"40°"		"-40°"		"50°"		"-50°"		"60°"		"-60°"		"70°"		"-70°"		"80°"		"-80°"		"90°"		"-90°"		"100°"		"-100°"		"110°"		"-110°"		"120°"		"-120°"		"130°"		"-130°"		"140°"		"-140°"		"150°"		"-150°"		"160°"		"-160°"		"170°"		"-170°"		"180°"
"Frequency [Hz]"	"Sound Pessure Level [dB]  / [2.83V 1m] "	"Frequency [Hz]"	"Sound Pessure Level [dB]  / [2.83V 1m] "	"Frequency [Hz]"	"Sound Pessure Level [dB]  / [2.83V 1m] "	"Frequency [Hz]"	"Sound Pessure Level [dB]  / [2.83V 1m] "	"Frequency [Hz]"	"Sound Pessure Level [dB]  / [2.83V 1m] "	"Frequency [Hz]"	"Sound Pessure Level [dB]  / [2.83V 1m] "	"Frequency [Hz]"	"Sound Pessure Level [dB]  / [2.83V 1m] "	"Frequency [Hz]"	"Sound Pessure Level [dB]  / [2.83V 1m] "	"Frequency [Hz]"	"Sound Pessure Level [dB]  / [2.83V 1m] "	"Frequency [Hz]"	"Sound Pessure Level [dB]  / [2.83V 1m] "	"Frequency [Hz]"	"Sound Pessure Level [dB]  / [2.83V 1m] "	"Frequency [Hz]"	"Sound Pessure Level [dB]  / [2.83V 1m] "	"Frequency [Hz]"	"Sound Pessure Level [dB]  / [2.83V 1m] "	"Frequency [Hz]"	"Sound Pessure Level [dB]  / [2.83V 1m] "	"Frequency [Hz]"	"Sound Pessure Level [dB]  / [2.83V 1m] "	"Frequency [Hz]"	"Sound Pessure Level [dB]  / [2.83V 1m] "	"Frequency [Hz]"	"Sound Pessure Level [dB]  / [2.83V 1m] "	"Frequency [Hz]"	"Sound Pessure Level [dB]  / [2.83V 1m] "	"Frequency [Hz]"	"Sound Pessure Level [dB]  / [2.83V 1m] "	"Frequency [Hz]"	"Sound Pessure Level [dB]  / [2.83V 1m] "	"Frequency [Hz]"	"Sound Pessure Level [dB]  / [2.83V 1m] "	"Frequency [Hz]"	"Sound Pessure Level [dB]  / [2.83V 1m] "	"Frequency [Hz]"	"Sound Pessure Level [dB]  / [2.83V 1m] "	"Frequency [Hz]"	"Sound Pessure Level [dB]  / [2.83V 1m] "	"Frequency [Hz]"	"Sound Pessure Level [dB]  / [2.83V 1m] "	"Frequency [Hz]"	"Sound Pessure Level [dB]  / [2.83V 1m] "	"Frequency [Hz]"	"Sound Pessure Level [dB]  / [2.83V 1m] "	"Frequency [Hz]"	"Sound Pessure Level [dB]  / [2.83V 1m] "	"Frequency [Hz]"	"Sound Pessure Level [dB]  / [2.83V 1m] "	"Frequency [Hz]"	"Sound Pessure Level [dB]  / [2.83V 1m] "	"Frequency [Hz]"	"Sound Pessure Level [dB]  / [2.83V 1m] "	"Frequency [Hz]"	"Sound Pessure Level [dB]  / [2.83V 1m] "	"Frequency [Hz]"	"Sound Pessure Level [dB]  / [2.83V 1m] "	"Frequency [Hz]"	"Sound Pessure Level [dB]  / [2.83V 1m] "	"Frequency [Hz]"	"Sound Pessure Level [dB]  / [2.83V 1m] "	"Frequency [Hz]"	"Sound Pessure Level [dB]  / [2.83V 1m] "
20.5078	61.717	20.5078	61.6484	20.5078	61.7988	20.5078	61.6007	20.5078	61.8943	20.5078	61.5885	20.5078	62.0134	20.5078	61.6322	20.5078	62.1762	20.5078	61.755	20.5078	62.4117	20.5078	61.9791	20.5078	62.754	20.5078	62.3207	20.5078	63.2318	20.5078	62.785	20.5078	63.8555	20.5078	63.3645	20.5078	64.608	20.5078	64.0396	20.5078	65.4455	20.5078	64.7821	20.5078	66.3089	20.5078	65.5595	20.5078	67.136	20.5078	66.3377	20.5078	67.8721	20.5078	67.083	20.5078	68.4737	20.5078	67.7622	20.5078	68.9099	20.5078	68.3436	20.5078	69.162	20.5078	68.7973	20.5078	69.2233	20.5078	69.0974
21.9727	65.0323	21.9727	64.9917	21.9727	65.0976	21.9727	64.9817	21.9727	65.1868	21.9727	65.0121	21.9727	65.3056	21.9727	65.0954	21.9727	65.467	21.9727	65.2448	21.9727	65.6905	21.9727	65.4723	21.9727	65.9999	21.9727	65.7861	21.9727	66.4161	21.9727	66.1885	21.9727	66.9482	21.9727	66.6752	21.9727	67.5863	21.9727	67.2347	21.9727	68.2998	21.9727	67.8494	21.9727	69.043	21.9727	68.4971	21.9727	69.7643	21.9727	69.1521	21.9727	70.4142	21.9727	69.7864	21.9727	70.9514	21.9727	70.3705	21.9727	71.3451	21.9727	70.8745	21.9727	71.5762	21.9727	71.2698	21.9727	71.637	21.9727	71.5307
23.4375	67.0868	23.4375	67.0564	23.4375	67.1512	23.4375	67.0631	23.4375	67.2505	23.4375	67.1134	23.4375	67.3905	23.4375	67.2162	23.4375	67.582	23.4375	67.3809	23.4375	67.8393	23.4375	67.6162	23.4375	68.1774	23.4375	67.928	23.4375	68.6074	23.4375	68.3178	23.4375	69.1309	23.4375	68.7816	23.4375	69.7358	23.4375	69.3098	23.4375	70.3961	23.4375	69.8871	23.4375	71.0747	23.4375	70.494	23.4375	71.7296	23.4375	71.1072	23.4375	72.3194	23.4375	71.7008	23.4375	72.8079	23.4375	72.2473	23.4375	73.1667	23.4375	72.7185	23.4375	73.3775	23.4375	73.0879	23.4375	73.4319	23.4375	73.3317
24.9023	69.3233	24.9023	69.2847	24.9023	69.3987	24.9023	69.2855	24.9023	69.5114	24.9023	69.331	24.9023	69.6659	24.9023	69.4278	24.9023	69.8701	24.9023	69.5829	24.9023	70.1343	24.9023	69.8021	24.9023	70.4688	24.9023	70.0892	24.9023	70.8805	24.9023	70.4446	24.9023	71.3691	24.9023	70.865	24.9023	71.924	24.9023	71.3429	24.9023	72.5239	24.9023	71.8666	24.9023	73.138	24.9023	72.4206	24.9023	73.7301	24.9023	72.9855	24.9023	74.2628	24.9023	73.5387	24.9023	74.7022	24.9023	74.0549	24.9023	75.0207	24.9023	74.5074	24.9023	75.1998	24.9023	74.8696	24.9023	75.2312	24.9023	75.1173
26.3672	71.2909	26.3672	71.2449	26.3672	71.3745	26.3672	71.2381	26.3672	71.496	26.3672	71.2738	26.3672	71.6582	26.3672	71.3561	26.3672	71.8657	26.3672	71.4899	26.3672	72.1245	26.3672	71.6793	26.3672	72.4406	26.3672	71.9276	26.3672	72.8176	26.3672	72.2359	26.3672	73.2547	26.3672	72.6026	26.3672	73.7436	26.3672	73.0228	26.3672	74.268	26.3672	73.4876	26.3672	74.8035	26.3672	73.9845	26.3672	75.3203	26.3672	74.4966	26.3672	75.7858	26.3672	75.0035	26.3672	76.1691	26.3672	75.4815	26.3672	76.4442	26.3672	75.9052	26.3672	76.5931	26.3672	76.2488	26.3672	76.6075	26.3672	76.4891
27.832	73.2107	27.832	73.1597	27.832	73.2935	27.832	73.1423	27.832	73.408	27.832	73.1615	27.832	73.5559	27.832	73.2213	27.832	73.7407	27.832	73.3259	27.832	73.9673	27.832	73.4795	27.832	74.2408	27.832	73.6854	27.832	74.5652	27.832	73.9455	27.832	74.9408	27.832	74.2595	27.832	75.3623	27.832	74.624	27.832	75.8174	27.832	75.0326	27.832	76.286	27.832	75.4746	27.832	76.7422	27.832	75.9354	27.832	77.1565	27.832	76.396	27.832	77.4996	27.832	76.8345	27.832	77.7462	27.832	77.2263	27.832	77.8782	27.832	77.5466	27.832	77.8866	27.832	77.7726
29.2969	74.545	29.2969	74.4859	29.2969	74.6337	29.2969	74.4581	29.2969	74.7518	29.2969	74.464	29.2969	74.9003	29.2969	74.507	29.2969	75.0815	29.2969	74.5908	29.2969	75.2987	29.2969	74.719	29.2969	75.5552	29.2969	74.8948	29.2969	75.8531	29.2969	75.1203	29.2969	76.1924	29.2969	75.3957	29.2969	76.5684	29.2969	75.719	29.2969	76.971	29.2969	76.085	29.2969	77.3839	29.2969	76.4849	29.2969	77.7848	29.2969	76.9059	29.2969	78.148	29.2969	77.3312	29.2969	78.4471	29.2969	77.7403	29.2969	78.6584	29.2969	78.11	29.2969	78.7648	29.2969	78.4167	29.2969	78.7578	29.2969	78.6384
30.7617	75.7325	30.7617	75.674	30.7617	75.8202	30.7617	75.6456	30.7617	75.937	30.7617	75.6492	30.7617	76.0834	30.7617	75.6871	30.7617	76.261	30.7617	75.7618	30.7617	76.4714	30.7617	75.8762	30.7617	76.7164	30.7617	76.0327	30.7617	76.9967	30.7617	76.2332	30.7617	77.3108	30.7617	76.4781	30.7617	77.6541	30.7617	76.7661	30.7617	78.0176	30.7617	77.0934	30.7617	78.3871	30.7617	77.4532	30.7617	78.7435	30.7617	77.8349	30.7617	79.0643	30.7617	78.2238	30.7617	79.326	30.7617	78.6015	30.7617	79.5073	30.7617	78.9469	30.7617	79.5924	30.7617	79.2373	30.7617	79.5734	30.7617	79.4518
32.2266	76.6595	32.2266	76.586	32.2266	76.7611	32.2266	76.5421	32.2266	76.8896	32.2266	76.5293	32.2266	77.0442	32.2266	76.5496	32.2266	77.2244	32.2266	76.6051	32.2266	77.43	32.2266	76.6978	32.2266	77.6608	32.2266	76.8297	32.2266	77.9165	32.2266	77.0023	32.2266	78.1954	32.2266	77.2163	32.2266	78.494	32.2266	77.4708	32.2266	78.8059	32.2266	77.7633	32.2266	79.1201	32.2266	78.088	32.2266	79.4217	32.2266	78.4359	32.2266	79.6917	32.2266	78.794	32.2266	79.9096	32.2266	79.1455	32.2266	80.0562	32.2266	79.4705	32.2266	80.1167	32.2266	79.7478	32.2266	80.0834	32.2266	79.9574
33.6914	77.4441	33.6914	77.3722	33.6914	77.5398	33.6914	77.3255	33.6914	77.6583	33.6914	77.3058	33.6914	77.7985	33.6914	77.315	33.6914	77.96	33.6914	77.355	33.6914	78.1425	33.6914	77.4278	33.6914	78.3457	33.6914	77.5356	33.6914	78.5693	33.6914	77.6799	33.6914	78.8121	33.6914	77.8616	33.6914	79.0712	33.6914	78.0806	33.6914	79.3414	33.6914	78.3349	33.6914	79.6138	33.6914	78.6203	33.6914	79.8755	33.6914	78.9292	33.6914	80.1101	33.6914	79.2502	33.6914	80.2991	33.6914	79.5682	33.6914	80.4246	33.6914	79.8649	33.6914	80.4728	33.6914	80.1205	33.6914	80.4364	33.6914	80.3161
35.1562	77.8062	35.1562	77.7371	35.1562	77.8984	35.1562	77.6923	35.1562	78.0126	35.1562	77.6731	35.1562	78.1479	35.1562	77.6806	35.1562	78.3032	35.1562	77.7163	35.1562	78.4777	35.1562	77.7817	35.1562	78.6703	35.1562	77.8783	35.1562	78.8798	35.1562	78.0072	35.1562	79.1042	35.1562	78.1693	35.1562	79.3406	35.1562	78.3647	35.1562	79.5839	35.1562	78.5921	35.1562	79.8264	35.1562	78.8479	35.1562	80.057	35.1562	79.1261	35.1562	80.2617	35.1562	79.417	35.1562	80.4241	35.1562	79.7073	35.1562	80.5288	35.1562	79.9804	35.1562	80.5632	35.1562	80.2183	35.1562	80.521	35.1562	80.4033
36.6211	78.2128	36.6211	78.1386	36.6211	78.3085	36.6211	78.0872	36.6211	78.4246	36.6211	78.0596	36.6211	78.5595	36.6211	78.0568	36.6211	78.7116	36.6211	78.0799	36.6211	78.8792	36.6211	78.1301	36.6211	79.0604	36.6211	78.2084	36.6211	79.2531	36.6211	78.3161	36.6211	79.4549	36.6211	78.454	36.6211	79.6629	36.6211	78.6224	36.6211	79.8727	36.6211	78.8205	36.6211	80.0782	36.6211	79.0459	36.6211	80.2702	36.6211	79.2937	36.6211	80.4372	36.6211	79.556	36.6211	80.5655	36.6211	79.8211	36.6211	80.6416	36.6211	80.0743	36.6211	80.6551	36.6211	80.2991	36.6211	80.6004	36.6211	80.479
38.0859	78.4612	38.0859	78.3784	38.0859	78.5639	38.0859	78.317	38.0859	78.6848	38.0859	78.2784	38.0859	78.8219	38.0859	78.2637	38.0859	78.9729	38.0859	78.2741	38.0859	79.1356	38.0859	78.3105	38.0859	79.3074	38.0859	78.374	38.0859	79.486	38.0859	78.4654	38.0859	79.6689	38.0859	78.5854	38.0859	79.8532	38.0859	78.7342	38.0859	80.0354	38.0859	78.9115	38.0859	80.2103	38.0859	79.1153	38.0859	80.3705	38.0859	79.3415	38.0859	80.5063	38.0859	79.5832	38.0859	80.6062	38.0859	79.8304	38.0859	80.6586	38.0859	80.0697	38.0859	80.6541	38.0859	80.2856	38.0859	80.5882	38.0859	80.4627
39.5508	78.7783	39.5508	78.6915	39.5508	78.8829	39.5508	78.6243	39.5508	79.0031	39.5508	78.5781	39.5508	79.1363	39.5508	78.5542	39.5508	79.2799	39.5508	78.5532	39.5508	79.431	39.5508	78.5759	39.5508	79.5867	39.5508	78.6227	39.5508	79.7446	39.5508	78.6942	39.5508	79.9021	39.5508	78.7909	39.5508	80.0566	39.5508	78.9132	39.5508	80.2053	39.5508	79.0607	39.5508	80.3442	39.5508	79.2325	39.5508	80.4675	39.5508	79.4258	39.5508	80.5678	39.5508	79.6355	39.5508	80.6356	39.5508	79.8534	39.5508	80.6617	39.5508	80.0685	39.5508	80.6383	39.5508	80.2673	39.5508	80.5623	39.5508	80.436
41.0156	79.0052	41.0156	78.9195	41.0156	79.1069	41.0156	78.8512	41.0156	79.2222	41.0156	78.8016	41.0156	79.3488	41.0156	78.7715	41.0156	79.4836	41.0156	78.7614	41.0156	79.6237	41.0156	78.7718	41.0156	79.7661	41.0156	78.8031	41.0156	79.908	41.0156	78.8559	41.0156	80.0466	41.0156	78.9307	41.0156	80.1793	41.0156	79.0282	41.0156	80.3034	41.0156	79.1485	41.0156	80.4152	41.0156	79.2913	41.0156	80.51	41.0156	79.4549	41.0156	80.5816	41.0156	79.6357	41.0156	80.6224	41.0156	79.8276	41.0156	80.6249	41.0156	80.0215	41.0156	80.5837	41.0156	80.2059	41.0156	80.497	41.0156	80.3683
42.4805	79.071	42.4805	78.9869	42.4805	79.1719	42.4805	78.9212	42.4805	79.2874	42.4805	78.8748	42.4805	79.4149	42.4805	78.8483	42.4805	79.5511	42.4805	78.8417	42.4805	79.6926	42.4805	78.8549	42.4805	79.8359	42.4805	78.8878	42.4805	79.9775	42.4805	78.9403	42.4805	80.114	42.4805	79.0125	42.4805	80.2424	42.4805	79.1046	42.4805	80.3596	42.4805	79.2169	42.4805	80.4623	42.4805	79.3492	42.4805	80.5462	42.4805	79.5007	42.4805	80.6061	42.4805	79.6687	42.4805	80.6359	42.4805	79.8482	42.4805	80.6293	42.4805	80.0313	42.4805	80.5818	42.4805	80.2075	42.4805	80.4924	42.4805	80.3649
43.9453	79.1177	43.9453	79.0256	43.9453	79.2257	43.9453	78.9513	43.9453	79.3469	43.9453	78.8962	43.9453	79.4781	43.9453	78.8611	43.9453	79.6158	43.9453	78.8461	43.9453	79.7559	43.9453	78.8513	43.9453	79.8946	43.9453	78.8761	43.9453	80.0281	43.9453	78.9203	43.9453	80.1527	43.9453	78.9834	43.9453	80.2653	43.9453	79.0654	43.9453	80.3631	43.9453	79.1661	43.9453	80.4434	43.9453	79.2855	43.9453	80.5032	43.9453	79.4227	43.9453	80.5388	43.9453	79.5758	43.9453	80.5459	43.9453	79.7409	43.9453	80.5201	43.9453	79.9114	43.9453	80.4585	43.9453	80.0786	43.9453	80.361	43.9453	80.2318
45.4102	79.3846	45.4102	79.2941	45.4102	79.4886	45.4102	79.2188	45.4102	79.6038	45.4102	79.1599	45.4102	79.7269	45.4102	79.1181	45.4102	79.8545	45.4102	79.0935	45.4102	79.9826	45.4102	79.0858	45.4102	80.1071	45.4102	79.0949	45.4102	80.224	45.4102	79.1205	45.4102	80.3294	45.4102	79.1624	45.4102	80.4203	45.4102	79.2207	45.4102	80.494	45.4102	79.296	45.4102	80.5482	45.4102	79.3885	45.4102	80.5809	45.4102	79.4987	45.4102	80.5897	45.4102	79.6256	45.4102	80.5722	45.4102	79.7668	45.4102	80.5259	45.4102	79.9174	45.4102	80.4495	45.4102	80.07	45.4102	80.3445	45.4102	80.2154
46.875	79.4737	46.875	79.3846	46.875	79.5761	46.875	79.3106	46.875	79.6895	46.875	79.2527	46.875	79.8109	46.875	79.2112	46.875	79.9366	46.875	79.1862	46.875	80.0626	46.875	79.1773	46.875	80.1848	46.875	79.1843	46.875	80.2988	46.875	79.2067	46.875	80.4009	46.875	79.2445	46.875	80.4876	46.875	79.2978	46.875	80.5562	46.875	79.3672	46.875	80.6043	46.875	79.4532	46.875	80.6302	46.875	79.5562	46.875	80.6318	46.875	79.6757	46.875	80.6075	46.875	79.8095	46.875	80.5555	46.875	79.9534	46.875	80.4756	46.875	80.1003	46.875	80.3695	46.875	80.242
48.3398	79.4876	48.3398	79.3912	48.3398	79.5973	48.3398	79.3103	48.3398	79.7175	48.3398	79.246	48.3398	79.8448	48.3398	79.1992	48.3398	79.9752	48.3398	79.1698	48.3398	80.1045	48.3398	79.1576	48.3398	80.2281	48.3398	79.1621	48.3398	80.3418	48.3398	79.1826	48.3398	80.4415	48.3398	79.2188	48.3398	80.5237	48.3398	79.2706	48.3398	80.5855	48.3398	79.338	48.3398	80.6248	48.3398	79.4216	48.3398	80.64	48.3398	79.5215	48.3398	80.6298	48.3398	79.6375	48.3398	80.5933	48.3398	79.7677	48.3398	80.53	48.3398	79.9086	48.3398	80.4407	48.3398	80.0541	48.3398	80.3278	48.3398	80.1966
51.2695	79.6081	51.2695	79.508	51.2695	79.7221	51.2695	79.4242	51.2695	79.8467	51.2695	79.3583	51.2695	79.9779	51.2695	79.3112	51.2695	80.1111	51.2695	79.2829	51.2695	80.2417	51.2695	79.2726	51.2695	80.3649	51.2695	79.2794	51.2695	80.4761	51.2695	79.302	51.2695	80.571	51.2695	79.3392	51.2695	80.6459	51.2695	79.3902	51.2695	80.6981	51.2695	79.4543	51.2695	80.7254	51.2695	79.5315	51.2695	80.7268	51.2695	79.6219	51.2695	80.702	51.2695	79.7256	51.2695	80.6516	51.2695	79.8419	51.2695	80.5766	51.2695	79.9687	51.2695	80.4795	51.2695	80.102	51.2695	80.3642	51.2695	80.2361
52.7344	79.7768	52.7344	79.6815	52.7344	79.8833	52.7344	79.5996	52.7344	79.9981	52.7344	79.5324	52.7344	80.1179	52.7344	79.4808	52.7344	80.2386	52.7344	79.4449	52.7344	80.3557	52.7344	79.4243	52.7344	80.4647	52.7344	79.4179	52.7344	80.5607	52.7344	79.4248	52.7344	80.6394	52.7344	79.4438	52.7344	80.6968	52.7344	79.4742	52.7344	80.7299	52.7344	79.5156	52.7344	80.7367	52.7344	79.5683	52.7344	80.7163	52.7344	79.633	52.7344	80.6696	52.7344	79.7109	52.7344	80.5983	52.7344	79.8025	52.7344	80.5056	52.7344	79.9078	52.7344	80.396	52.7344	80.0246	52.7344	80.2749	52.7344	80.1489
54.1992	80.1336	54.1992	80.0397	54.1992	80.2344	54.1992	79.9548	54.1992	80.3395	54.1992	79.8806	54.1992	80.446	54.1992	79.8183	54.1992	80.5505	54.1992	79.7683	54.1992	80.6495	54.1992	79.7306	54.1992	80.7388	54.1992	79.7046	54.1992	80.8141	54.1992	79.6895	54.1992	80.8713	54.1992	79.6844	54.1992	80.9063	54.1992	79.6888	54.1992	80.916	54.1992	79.7026	54.1992	80.8984	54.1992	79.7268	54.1992	80.8532	54.1992	79.7629	54.1992	80.7817	54.1992	79.8134	54.1992	80.687	54.1992	79.8805	54.1992	80.5738	54.1992	79.9661	54.1992	80.448	54.1992	80.0697	54.1992	80.317	54.1992	80.1884
55.6641	80.2751	55.6641	80.1836	55.6641	80.3715	55.6641	80.0988	55.6641	80.4708	55.6641	80.0221	55.6641	80.5703	55.6641	79.9544	55.6641	80.667	55.6641	79.8962	55.6641	80.7573	55.6641	79.8476	55.6641	80.8373	55.6641	79.8084	55.6641	80.9026	55.6641	79.7784	55.6641	80.9489	55.6641	79.7573	55.6641	80.9721	55.6641	79.7451	55.6641	80.9693	55.6641	79.7425	55.6641	80.9387	55.6641	79.7511	55.6641	80.8805	55.6641	79.7732	55.6641	80.7966	55.6641	79.8118	55.6641	80.6908	55.6641	79.8698	55.6641	80.5682	55.6641	79.9492	55.6641	80.4352	55.6641	80.0497	55.6641	80.2992	55.6641	80.1682
58.5938	80.3452	58.5938	80.244	58.5938	80.4543	58.5938	80.1528	58.5938	80.5685	58.5938	80.0729	58.5938	80.6842	58.5938	80.0049	58.5938	80.7974	58.5938	79.9489	58.5938	80.903	58.5938	79.9044	58.5938	80.9959	58.5938	79.8708	58.5938	81.0708	58.5938	79.847	58.5938	81.1225	58.5938	79.8324	58.5938	81.1468	58.5938	79.8264	58.5938	81.1407	58.5938	79.8294	58.5938	81.1027	58.5938	79.8425	58.5938	81.0337	58.5938	79.8675	58.5938	80.9365	58.5938	79.9073	58.5938	80.8163	58.5938	79.9648	58.5938	80.6802	58.5938	80.0424	58.5938	80.5364	58.5938	80.1412	58.5938	80.3935	58.5938	80.2596
60.0586	80.4503	60.0586	80.3451	60.0586	80.5637	60.0586	80.2506	60.0586	80.682	60.0586	80.1685	60.0586	80.8013	60.0586	80.0995	60.0586	80.9169	60.0586	80.0438	60.0586	81.0239	60.0586	80.0008	60.0586	81.1167	60.0586	79.9693	60.0586	81.1902	60.0586	79.948	60.0586	81.2391	60.0586	79.9355	60.0586	81.2594	60.0586	79.931	60.0586	81.2479	60.0586	79.9342	60.0586	81.2036	60.0586	79.9459	60.0586	81.1274	60.0586	79.968	60.0586	81.023	60.0586	80.0032	60.0586	80.8961	60.0586	80.055	60.0586	80.7547	60.0586	80.1264	60.0586	80.6079	60.0586	80.2193	60.0586	80.4647	60.0586	80.3331
62.9883	80.7326	62.9883	80.626	62.9883	80.8482	62.9883	80.5308	62.9883	80.9693	62.9883	80.4487	62.9883	81.0917	62.9883	80.3802	62.9883	81.2105	62.9883	80.3252	62.9883	81.3201	62.9883	80.2828	62.9883	81.4147	62.9883	80.2516	62.9883	81.4885	62.9883	80.2298	62.9883	81.5359	62.9883	80.2159	62.9883	81.5524	62.9883	80.2086	62.9883	81.5349	62.9883	80.2076	62.9883	81.482	62.9883	80.2134	62.9883	81.3951	62.9883	80.2277	62.9883	81.2783	62.9883	80.2538	62.9883	81.1386	62.9883	80.2956	62.9883	80.9857	62.9883	80.3573	62.9883	80.8301	62.9883	80.4421	62.9883	80.6823	62.9883	80.5511
64.4531	80.7796	64.4531	80.6696	64.4531	80.8981	64.4531	80.571	64.4531	81.0215	64.4531	80.4855	64.4531	81.1456	64.4531	80.4142	64.4531	81.2653	64.4531	80.3571	64.4531	81.3753	64.4531	80.3136	64.4531	81.4699	64.4531	80.2825	64.4531	81.5435	64.4531	80.2619	64.4531	81.5908	64.4531	80.2502	64.4531	81.6076	64.4531	80.246	64.4531	81.5905	64.4531	80.2484	64.4531	81.5382	64.4531	80.2576	64.4531	81.4519	64.4531	80.2752	64.4531	81.3355	64.4531	80.3038	64.4531	81.1958	64.4531	80.3475	64.4531	81.0425	64.4531	80.4104	64.4531	80.8862	64.4531	80.496	64.4531	80.7377	64.4531	80.6057
67.3828	80.8505	67.3828	80.741	67.3828	80.9683	67.3828	80.6429	67.3828	81.0906	67.3828	80.5587	67.3828	81.2127	67.3828	80.4894	67.3828	81.3299	67.3828	80.4354	67.3828	81.4369	67.3828	80.3959	67.3828	81.5287	67.3828	80.3694	67.3828	81.6002	67.3828	80.3539	67.3828	81.6465	67.3828	80.3473	67.3828	81.6633	67.3828	80.3478	67.3828	81.6476	67.3828	80.354	67.3828	81.5978	67.3828	80.3657	67.3828	81.5146	67.3828	80.3843	67.3828	81.4018	67.3828	80.4123	67.3828	81.2662	67.3828	80.4535	67.3828	81.1173	67.3828	80.5124	67.3828	80.966	67.3828	80.5929	67.3828	80.823	67.3828	80.6969
68.8477	80.96	68.8477	80.8496	68.8477	81.0788	68.8477	80.7509	68.8477	81.2022	68.8477	80.6661	68.8477	81.3256	68.8477	80.5966	68.8477	81.4443	68.8477	80.5425	68.8477	81.5531	68.8477	80.5034	68.8477	81.6469	68.8477	80.4778	68.8477	81.7204	68.8477	80.4638	68.8477	81.7687	68.8477	80.4591	68.8477	81.7873	68.8477	80.4618	68.8477	81.773	68.8477	80.4704	68.8477	81.7238	68.8477	80.4846	68.8477	81.6405	68.8477	80.5051	68.8477	81.5268	68.8477	80.5344	68.8477	81.3898	68.8477	80.5761	68.8477	81.2393	68.8477	80.6347	68.8477	81.0868	68.8477	80.7144	68.8477	80.9433	68.8477	80.8176
71.7773	81.2388	71.7773	81.1249	71.7773	81.3599	71.7773	81.0214	71.7773	81.4839	71.7773	80.9311	71.7773	81.6064	71.7773	80.8556	71.7773	81.7225	71.7773	80.7956	71.7773	81.8272	71.7773	80.7507	71.7773	81.9153	71.7773	80.7199	71.7773	81.9818	71.7773	80.7011	71.7773	82.0221	71.7773	80.6921	71.7773	82.0317	71.7773	80.6907	71.7773	82.0074	71.7773	80.695	71.7773	81.9476	71.7773	80.7042	71.7773	81.8532	71.7773	80.7188	71.7773	81.7283	71.7773	80.7409	71.7773	81.581	71.7773	80.7745	71.7773	81.4219	71.7773	80.8247	71.7773	81.2638	71.7773	80.8969	71.7773	81.1185	71.7773	80.9948
74.707	81.4402	74.707	81.3253	74.707	81.5609	74.707	81.2196	74.707	81.683	74.707	81.1262	74.707	81.802	74.707	81.047	74.707	81.9131	74.707	80.9829	74.707	82.0118	74.707	80.9339	74.707	82.0931	74.707	80.8986	74.707	82.1525	74.707	80.8754	74.707	82.1855	74.707	80.862	74.707	82.1882	74.707	80.8559	74.707	82.1574	74.707	80.8555	74.707	82.0916	74.707	80.8599	74.707	81.9921	74.707	80.8697	74.707	81.8633	74.707	80.8872	74.707	81.713	74.707	80.9166	74.707	81.5525	74.707	80.9631	74.707	81.394	74.707	81.0321	74.707	81.2495	74.707	81.1274
77.6367	81.6175	77.6367	81.5006	77.6367	81.74	77.6367	81.3933	77.6367	81.8636	77.6367	81.2987	77.6367	81.9836	77.6367	81.2188	77.6367	82.0951	77.6367	81.1547	77.6367	82.1934	77.6367	81.1061	77.6367	82.2735	77.6367	81.0717	77.6367	82.3309	77.6367	81.0495	77.6367	82.3609	77.6367	81.0368	77.6367	82.3596	77.6367	81.0312	77.6367	82.3239	77.6367	81.0306	77.6367	82.2526	77.6367	81.0339	77.6367	82.1474	77.6367	81.0415	77.6367	82.013	77.6367	81.0557	77.6367	81.8584	77.6367	81.0807	77.6367	81.6952	77.6367	81.1219	77.6367	81.5363	77.6367	81.1853	77.6367	81.3936	77.6367	81.2755
79.1016	81.7304	79.1016	81.613	79.1016	81.8519	79.1016	81.5036	79.1016	81.973	79.1016	81.4054	79.1016	82.0892	79.1016	81.3207	79.1016	82.1956	79.1016	81.2506	79.1016	82.2877	79.1016	81.195	79.1016	82.3607	79.1016	81.1528	79.1016	82.4103	79.1016	81.1221	79.1016	82.432	79.1016	81.1006	79.1016	82.4219	79.1016	81.0859	79.1016	82.3772	79.1016	81.0762	79.1016	82.2967	79.1016	81.0705	79.1016	82.1821	79.1016	81.0695	79.1016	82.0389	79.1016	81.0757	79.1016	81.876	79.1016	81.0937	79.1016	81.7057	79.1016	81.1292	79.1016	81.5416	79.1016	81.1887	79.1016	81.3958	79.1016	81.277
82.0312	81.7651	82.0312	81.6464	82.0312	81.8865	82.0312	81.5342	82.0312	82.0063	82.0312	81.4316	82.0312	82.12	82.0312	81.3408	82.0312	82.223	82.0312	81.2631	82.0312	82.3106	82.0312	81.1986	82.0312	82.3783	82.0312	81.1466	82.0312	82.4214	82.0312	81.1055	82.0312	82.4355	82.0312	81.0731	82.0312	82.4166	82.0312	81.0475	82.0312	82.3617	82.0312	81.027	82.0312	82.2697	82.0312	81.0112	82.0312	82.1425	82.0312	81.0009	82.0312	81.986	82.0312	80.9989	82.0312	81.8103	82.0312	81.0099	82.0312	81.6286	82.0312	81.04	82.0312	81.4557	82.0312	81.0961	82.0312	81.3045	82.0312	81.1836
84.9609	81.9001	84.9609	81.7854	84.9609	82.0164	84.9609	81.6756	84.9609	82.1309	84.9609	81.5733	84.9609	82.24	84.9609	81.4807	84.9609	82.3402	84.9609	81.3992	84.9609	82.4278	84.9609	81.3292	84.9609	82.4987	84.9609	81.2701	84.9609	82.5484	84.9609	81.2206	84.9609	82.5717	84.9609	81.1789	84.9609	82.5635	84.9609	81.1433	84.9609	82.5189	84.9609	81.1126	84.9609	82.4344	84.9609	81.0868	84.9609	82.3098	84.9609	81.0674	84.9609	82.1494	84.9609	81.0582	84.9609	81.9626	84.9609	81.0652	84.9609	81.7637	84.9609	81.096	84.9609	81.5699	84.9609	81.1584	84.9609	81.3975	84.9609	81.2585
87.8906	81.9738	87.8906	81.8699	87.8906	82.0792	87.8906	81.7709	87.8906	82.1827	87.8906	81.6793	87.8906	82.2811	87.8906	81.5971	87.8906	82.3709	87.8906	81.5253	87.8906	82.4493	87.8906	81.4639	87.8906	82.513	87.8906	81.4119	87.8906	82.5584	87.8906	81.3678	87.8906	82.5814	87.8906	81.3297	87.8906	82.5774	87.8906	81.2958	87.8906	82.5419	87.8906	81.2653	87.8906	82.4713	87.8906	81.2386	87.8906	82.3648	87.8906	81.218	87.8906	82.2249	87.8906	81.208	87.8906	82.0594	87.8906	81.2149	87.8906	81.8802	87.8906	81.2462	87.8906	81.7023	87.8906	81.309	87.8906	81.5407	87.8906	81.4074
90.8203	82.1821	90.8203	82.0689	90.8203	82.2948	90.8203	81.9592	90.8203	82.4031	90.8203	81.8567	90.8203	82.5033	90.8203	81.7644	90.8203	82.5918	90.8203	81.6841	90.8203	82.6654	90.8203	81.6166	90.8203	82.721	90.8203	81.5614	90.8203	82.7551	90.8203	81.5172	90.8203	82.764	90.8203	81.4817	90.8203	82.7441	90.8203	81.4529	90.8203	82.6921	90.8203	81.429	90.8203	82.6062	90.8203	81.4096	90.8203	82.4872	90.8203	81.3958	90.8203	82.3398	90.8203	81.3906	90.8203	82.1729	90.8203	81.399	90.8203	81.999	90.8203	81.4273	90.8203	81.8322	90.8203	81.4817	90.8203	81.6854	90.8203	81.5673
95.2148	82.3097	95.2148	82.1832	95.2148	82.4342	95.2148	82.06	95.2148	82.5515	95.2148	81.9451	95.2148	82.657	95.2148	81.8427	95.2148	82.7468	95.2148	81.7558	95.2148	82.8174	95.2148	81.6855	95.2148	82.8661	95.2148	81.6313	95.2148	82.8904	95.2148	81.591	95.2148	82.8877	95.2148	81.5616	95.2148	82.8557	95.2148	81.5393	95.2148	82.7922	95.2148	81.5213	95.2148	82.6963	95.2148	81.5056	95.2148	82.5691	95.2148	81.4926	95.2148	82.4154	95.2148	81.4851	95.2148	82.2437	95.2148	81.4883	95.2148	82.0666	95.2148	81.5097	95.2148	81.8983	95.2148	81.5573	95.2148	81.7521	95.2148	81.6373
98.1445	82.5599	98.1445	82.434	98.1445	82.6815	98.1445	82.3091	98.1445	82.7934	98.1445	82.1899	98.1445	82.8906	98.1445	82.0801	98.1445	82.9683	98.1445	81.9824	98.1445	83.0224	98.1445	81.8979	98.1445	83.0494	98.1445	81.8264	98.1445	83.0465	98.1445	81.7664	98.1445	83.0118	98.1445	81.7154	98.1445	82.9439	98.1445	81.6709	98.1445	82.8429	98.1445	81.6305	98.1445	82.7105	98.1445	81.5932	98.1445	82.5512	98.1445	81.5595	98.1445	82.3726	98.1445	81.5322	98.1445	82.1858	98.1445	81.5164	98.1445	82.0041	98.1445	81.5189	98.1445	81.8408	98.1445	81.5475	98.1445	81.707	98.1445	81.6089
101.074	82.5071	101.074	82.3697	101.074	82.6399	101.074	82.2335	101.074	82.7618	101.074	82.1041	101.074	82.8671	101.074	81.9859	101.074	82.9504	101.074	81.8819	101.074	83.0076	101.074	81.7939	101.074	83.0352	101.074	81.7218	101.074	83.0306	101.074	81.6641	101.074	82.9923	101.074	81.6185	101.074	82.9195	101.074	81.5818	101.074	82.8129	101.074	81.5514	101.074	82.675	101.074	81.5254	101.074	82.5114	101.074	81.5036	101.074	82.3308	101.074	81.4877	101.074	82.1447	101.074	81.4817	101.074	81.9664	101.074	81.4913	101.074	81.8083	101.074	81.5235	101.074	81.6795	101.074	81.5848
105.469	82.7914	105.469	82.6551	105.469	82.9183	105.469	82.5154	105.469	83.0299	105.469	82.3783	105.469	83.1207	105.469	82.2486	105.469	83.1865	105.469	82.1297	105.469	83.2239	105.469	82.0238	105.469	83.2302	105.469	81.9313	105.469	83.2034	105.469	81.8511	105.469	83.142	105.469	81.7815	105.469	83.045	105.469	81.7203	105.469	82.9128	105.469	81.6655	105.469	82.7482	105.469	81.6162	105.469	82.5575	105.469	81.5727	105.469	82.3515	105.469	81.5371	105.469	82.1442	105.469	81.5133	105.469	81.9515	105.469	81.5067	105.469	81.7872	105.469	81.5244	105.469	81.6603	105.469	81.5736
108.398	83.0728	108.398	82.9465	108.398	83.188	108.398	82.8148	108.398	83.2866	108.398	82.6832	108.398	83.3634	108.398	82.5563	108.398	83.4143	108.398	82.4374	108.398	83.4357	108.398	82.3281	108.398	83.4246	108.398	82.2281	108.398	83.3786	108.398	82.1361	108.398	83.2959	108.398	82.0497	108.398	83.1758	108.398	81.9666	108.398	83.0192	108.398	81.885	108.398	82.83	108.398	81.8049	108.398	82.616	108.398	81.728	108.398	82.3893	108.398	81.6582	108.398	82.1656	108.398	81.6016	108.398	81.9621	108.398	81.5659	108.398	81.7933	108.398	81.5599	108.398	81.6689	108.398	81.592
112.793	83.22	112.793	83.0835	112.793	83.3422	112.793	82.9389	112.793	83.4447	112.793	82.792	112.793	83.5227	112.793	82.6483	112.793	83.5724	112.793	82.5117	112.793	83.5904	112.793	82.3847	112.793	83.574	112.793	82.2678	112.793	83.5204	112.793	82.1598	112.793	83.4271	112.793	82.0581	112.793	83.2918	112.793	81.9599	112.793	83.1138	112.793	81.8627	112.793	82.8958	112.793	81.7655	112.793	82.6453	112.793	81.6694	112.793	82.3764	112.793	81.5784	112.793	82.1086	112.793	81.4994	112.793	81.8648	112.793	81.4425	112.793	81.6652	112.793	81.4195	112.793	81.5233	112.793	81.443
117.188	83.1594	117.188	83.0206	117.188	83.2835	117.188	82.8727	117.188	83.388	117.188	82.7211	117.188	83.4686	117.188	82.5713	117.188	83.5217	117.188	82.4276	117.188	83.5446	117.188	82.2934	117.188	83.5351	117.188	82.1707	117.188	83.4913	117.188	82.0598	117.188	83.4116	117.188	81.96	117.188	83.2946	117.188	81.8697	117.188	83.1402	117.188	81.7874	117.188	82.9506	117.188	81.7121	117.188	82.732	117.188	81.6446	117.188	82.4953	117.188	81.5876	117.188	82.2562	117.188	81.5461	117.188	82.0324	117.188	81.5274	117.188	81.8407	117.188	81.5402	117.188	81.6926	117.188	81.5931
120.117	83.328	120.117	83.1814	120.117	83.4596	120.117	83.0258	120.117	83.57	120.117	82.8668	120.117	83.6537	120.117	82.7092	120.117	83.7058	120.117	82.5566	120.117	83.7222	120.117	82.4112	120.117	83.6995	120.117	82.274	120.117	83.635	120.117	82.1448	120.117	83.5265	120.117	82.0229	120.117	83.3735	120.117	81.9076	120.117	83.1775	120.117	81.7985	120.117	82.9436	120.117	81.6963	120.117	82.6818	120.117	81.6031	120.117	82.4076	120.117	81.5228	120.117	82.1401	120.117	81.461	120.117	81.8992	120.117	81.425	120.117	81.7011	120.117	81.4231	120.117	81.5554	120.117	81.4641
124.512	83.1991	124.512	83.055	124.512	83.3298	124.512	82.9037	124.512	83.4416	124.512	82.7513	124.512	83.5296	124.512	82.6034	124.512	83.5898	124.512	82.464	124.512	83.6186	124.512	82.3353	124.512	83.6126	124.512	82.2172	124.512	83.5683	124.512	82.1081	124.512	83.4818	124.512	82.0051	124.512	83.3498	124.512	81.905	124.512	83.1711	124.512	81.8056	124.512	82.9478	124.512	81.7061	124.512	82.6881	124.512	81.6085	124.512	82.407	124.512	81.5175	124.512	82.1256	124.512	81.4409	124.512	81.8678	124.512	81.3891	124.512	81.6547	124.512	81.3741	124.512	81.4999	124.512	81.4078
128.906	83.0539	128.906	82.9032	128.906	83.1921	128.906	82.7466	128.906	83.3119	128.906	82.5908	128.906	83.4082	128.906	82.4419	128.906	83.4768	128.906	82.3049	128.906	83.5145	128.906	82.1827	128.906	83.5183	128.906	82.0762	128.906	83.4855	128.906	81.9839	128.906	83.4133	128.906	81.9029	128.906	83.299	128.906	81.8294	128.906	83.1413	128.906	81.76	128.906	82.9422	128.906	81.6924	128.906	82.7084	128.906	81.6267	128.906	82.4534	128.906	81.5659	128.906	82.1965	128.906	81.5157	128.906	81.9593	128.906	81.4848	128.906	81.7614	128.906	81.484	128.906	81.6153	128.906	81.5243
133.301	83.1195	133.301	82.9514	133.301	83.2718	133.301	82.7753	133.301	83.4008	133.301	82.5995	133.301	83.5006	133.301	82.4316	133.301	83.5664	133.301	82.2782	133.301	83.5946	133.301	82.144	133.301	83.5828	133.301	82.0312	133.301	83.5299	133.301	81.9394	133.301	83.4352	133.301	81.866	133.301	83.2992	133.301	81.8068	133.301	83.1246	133.301	81.7576	133.301	82.9169	133.301	81.7149	133.301	82.6865	133.301	81.677	133.301	82.4481	133.301	81.6445	133.301	82.2196	133.301	81.6206	133.301	82.0179	133.301	81.6105	133.301	81.8552	133.301	81.6212	133.301	81.7367	133.301	81.6606
139.16	83.3736	139.16	83.1964	139.16	83.5293	139.16	83.0057	139.16	83.6566	139.16	82.8094	139.16	83.7492	139.16	82.6149	139.16	83.8026	139.16	82.4284	139.16	83.8132	139.16	82.2549	139.16	83.7784	139.16	82.0974	139.16	83.6963	139.16	81.9577	139.16	83.5654	139.16	81.8359	139.16	83.3856	139.16	81.7312	139.16	83.1596	139.16	81.6422	139.16	82.895	139.16	81.5676	139.16	82.6062	139.16	81.5064	139.16	82.3139	139.16	81.4588	139.16	82.0424	139.16	81.4255	139.16	81.8129	139.16	81.4091	139.16	81.6377	139.16	81.414	139.16	81.5182	139.16	81.4471
143.555	83.3979	143.555	83.226	143.555	83.5471	143.555	83.0388	143.555	83.6675	143.555	82.8439	143.555	83.7543	143.555	82.6484	143.555	83.804	143.555	82.4585	143.555	83.8142	143.555	82.2783	143.555	83.7828	143.555	82.1103	143.555	83.7076	143.555	81.9553	143.555	83.5855	143.555	81.8132	143.555	83.414	143.555	81.6837	143.555	83.1924	143.555	81.5668	143.555	82.9248	143.555	81.4637	143.555	82.6229	143.555	81.3764	143.555	82.3068	143.555	81.3077	143.555	82.0031	143.555	81.2605	143.555	81.7377	143.555	81.2385	143.555	81.5286	143.555	81.2461	143.555	81.3812	143.555	81.2904
147.949	83.2994	147.949	83.1168	147.949	83.458	147.949	82.9189	147.949	83.5859	147.949	82.715	147.949	83.6782	147.949	82.5144	147.949	83.7319	147.949	82.3248	147.949	83.7456	147.949	82.1516	147.949	83.7182	147.949	81.9971	147.949	83.6483	147.949	81.8608	147.949	83.5337	147.949	81.7402	147.949	83.372	147.949	81.632	147.949	83.162	147.949	81.5333	147.949	82.9067	147.949	81.4432	147.949	82.6164	147.949	81.3628	147.949	82.3093	147.949	81.2957	147.949	82.0102	147.949	81.247	147.949	81.7443	147.949	81.223	147.949	81.5302	147.949	81.2307	147.949	81.3758	147.949	81.2786
153.809	83.2523	153.809	83.0574	153.809	83.4182	153.809	82.8415	153.809	83.549	153.809	82.6143	153.809	83.6411	153.809	82.3867	153.809	83.6927	153.809	82.1693	153.809	83.7035	153.809	81.9717	153.809	83.6739	153.809	81.8007	153.809	83.6036	153.809	81.6596	153.809	83.4918	153.809	81.5481	153.809	83.3365	153.809	81.4628	153.809	83.1371	153.809	81.3987	153.809	82.8968	153.809	81.3509	153.809	82.6252	153.809	81.3163	153.809	82.34	153.809	81.2938	153.809	82.064	153.809	81.2848	153.809	81.8199	153.809	81.2925	153.809	81.6232	153.809	81.3222	153.809	81.4785	153.809	81.3812
159.668	83.5242	159.668	83.3256	159.668	83.6901	159.668	83.1009	159.668	83.8183	159.668	82.8581	159.668	83.9056	159.668	82.6057	159.668	83.9508	159.668	82.3531	159.668	83.9537	159.668	82.1094	159.668	83.9152	159.668	81.8832	159.668	83.8355	159.668	81.6821	159.668	83.7144	159.668	81.5118	159.668	83.5508	159.668	81.376	159.668	83.3449	159.668	81.2763	159.668	83.1003	159.668	81.2124	159.668	82.8268	159.668	81.1827	159.668	82.5406	159.668	81.185	159.668	82.2616	159.668	81.2168	159.668	82.008	159.668	81.2757	159.668	81.7913	159.668	81.3605	159.668	81.6139	159.668	81.4721
165.527	83.635	165.527	83.4691	165.527	83.77	165.527	83.2797	165.527	83.8683	165.527	83.0747	165.527	83.9259	165.527	82.8624	165.527	83.941	165.527	82.6503	165.527	83.9136	165.527	82.4448	165.527	83.845	165.527	82.2511	165.527	83.7366	165.527	82.0731	165.527	83.5899	165.527	81.9137	165.527	83.4062	165.527	81.7754	165.527	83.189	165.527	81.6609	165.527	82.9459	165.527	81.5726	165.527	82.6901	165.527	81.513	165.527	82.4396	165.527	81.4837	165.527	82.2119	165.527	81.4846	165.527	82.0189	165.527	81.5136	165.527	81.8632	165.527	81.5673	165.527	81.74	165.527	81.6428
171.387	83.6644	171.387	83.4866	171.387	83.8085	171.387	83.2826	171.387	83.9128	171.387	83.0608	171.387	83.973	171.387	82.8299	171.387	83.9869	171.387	82.5983	171.387	83.954	171.387	82.3732	171.387	83.8742	171.387	82.1609	171.387	83.7479	171.387	81.966	171.387	83.5748	171.387	81.7925	171.387	83.3554	171.387	81.6435	171.387	83.0935	171.387	81.5223	171.387	82.7997	171.387	81.4317	171.387	82.4941	171.387	81.3737	171.387	82.2039	171.387	81.348	171.387	81.9562	171.387	81.3517	171.387	81.7666	171.387	81.3787	171.387	81.6335	171.387	81.4215	171.387	81.5423	171.387	81.4754
177.246	83.7693	177.246	83.5765	177.246	83.9221	177.246	83.3514	177.246	84.0295	177.246	83.1031	177.246	84.088	177.246	82.8417	177.246	84.0958	177.246	82.5777	177.246	84.0519	177.246	82.3212	177.246	83.9559	177.246	82.0814	177.246	83.807	177.246	81.866	177.246	83.6048	177.246	81.6809	177.246	83.3511	177.246	81.5302	177.246	83.0527	177.246	81.4161	177.246	82.7253	177.246	81.3386	177.246	82.3944	177.246	81.2962	177.246	82.0914	177.246	81.2849	177.246	81.844	177.246	81.2986	177.246	81.6647	177.246	81.3295	177.246	81.5469	177.246	81.3702	177.246	81.4709	177.246	81.4163
183.105	83.6602	183.105	83.496	183.105	83.7935	183.105	83.3063	183.105	83.8916	183.105	83.0967	183.105	83.9513	183.105	82.8725	183.105	83.9708	183.105	82.638	183.105	83.9485	183.105	82.3963	183.105	83.8819	183.105	82.1507	183.105	83.7666	183.105	81.9058	183.105	83.5962	183.105	81.669	183.105	83.365	183.105	81.4515	183.105	83.0729	183.105	81.2673	183.105	82.7321	183.105	81.1305	183.105	82.3716	183.105	81.0508	183.105	82.0329	183.105	81.0297	183.105	81.7556	183.105	81.0584	183.105	81.5585	183.105	81.1202	183.105	81.4313	183.105	81.196	183.105	81.3452	183.105	81.2717
188.965	83.6964	188.965	83.5178	188.965	83.8369	188.965	83.309	188.965	83.9333	188.965	83.0792	188.965	83.9824	188.965	82.8375	188.965	83.9837	188.965	82.5925	188.965	83.939	188.965	82.3511	188.965	83.8507	188.965	82.1184	188.965	83.7197	188.965	81.8979	188.965	83.5437	188.965	81.6931	188.965	83.3188	188.965	81.5079	188.965	83.0438	188.965	81.3488	188.965	82.7276	188.965	81.2244	188.965	82.3944	188.965	81.1437	188.965	82.0815	188.965	81.1127	188.965	81.8253	188.965	81.1301	188.965	81.6418	188.965	81.1862	188.965	81.5194	188.965	81.2642	188.965	81.4298	188.965	81.3478
196.289	83.9992	196.289	83.7998	196.289	84.152	196.289	83.5634	196.289	84.2513	196.289	83.3014	196.289	84.2941	196.289	83.0252	196.289	84.2805	196.289	82.7456	196.289	84.2135	196.289	82.4717	196.289	84.0968	196.289	82.2111	196.289	83.9325	196.289	81.9705	196.289	83.7203	196.289	81.7561	196.289	83.4594	196.289	81.5749	196.289	83.153	196.289	81.4342	196.289	82.8157	196.289	81.3407	196.289	82.4776	196.289	81.2987	196.289	82.1793	196.289	81.3074	196.289	81.9544	196.289	81.3587	196.289	81.8109	196.289	81.4375	196.289	81.7271	196.289	81.5248	196.289	81.6676	196.289	81.6037
203.613	84.0882	203.613	83.9144	203.613	84.2109	203.613	83.6973	203.613	84.2773	203.613	83.4459	203.613	84.2852	203.613	83.1696	203.613	84.2362	203.613	82.8775	203.613	84.1337	203.613	82.5788	203.613	83.9818	203.613	82.2829	203.613	83.7819	203.613	82.0001	203.613	83.5312	203.613	81.7414	203.613	83.224	203.613	81.5178	203.613	82.8586	203.613	81.3394	203.613	82.4476	203.613	81.2138	203.613	82.0279	203.613	81.1441	203.613	81.6584	203.613	81.1273	203.613	81.3971	203.613	81.1517	203.613	81.266	203.613	81.1975	203.613	81.2364	203.613	81.2402	203.613	81.2508	203.613	81.2595
210.938	83.9607	210.938	83.7917	210.938	84.0827	210.938	83.583	210.938	84.1529	210.938	83.3431	210.938	84.17	210.938	83.0805	210.938	84.1358	210.938	82.8019	210.938	84.0535	210.938	82.5125	210.938	83.9258	210.938	82.2168	210.938	83.7519	210.938	81.9207	210.938	83.5266	210.938	81.6331	210.938	83.2408	210.938	81.3664	210.938	82.8886	210.938	81.136	210.938	82.4775	210.938	80.9575	210.938	82.0391	210.938	80.8419	210.938	81.6295	210.938	80.7917	210.938	81.3097	210.938	80.7981	210.938	81.1111	210.938	80.8414	210.938	81.0161	210.938	80.8966	210.938	80.9755	210.938	80.9429
218.262	83.9394	218.262	83.7499	218.262	84.0803	218.262	83.5231	218.262	84.1635	218.262	83.2706	218.262	84.1831	218.262	83.0038	218.262	84.1376	218.262	82.7327	218.262	84.0301	218.262	82.4662	218.262	83.8678	218.262	82.2125	218.262	83.6591	218.262	81.9796	218.262	83.4115	218.262	81.7751	218.262	83.1294	218.262	81.6056	218.262	82.8172	218.262	81.4747	218.262	82.485	218.262	81.3829	218.262	82.1553	218.262	81.3276	218.262	81.8621	218.262	81.3038	218.262	81.6383	218.262	81.3052	218.262	81.4974	218.262	81.3234	218.262	81.4257	218.262	81.3484	218.262	81.3931	218.262	81.3718
225.586	84.2888	225.586	84.0985	225.586	84.422	225.586	83.861	225.586	84.4901	225.586	83.5865	225.586	84.4884	225.586	83.2837	225.586	84.4154	225.586	82.9596	225.586	84.2719	225.586	82.6206	225.586	84.0597	225.586	82.2758	225.586	83.7802	225.586	81.941	225.586	83.4353	225.586	81.6402	225.586	83.0309	225.586	81.4026	225.586	82.5856	225.586	81.2544	225.586	82.1417	225.586	81.2081	225.586	81.7671	225.586	81.2558	225.586	81.5333	225.586	81.3718	225.586	81.471	225.586	81.5202	225.586	81.5431	225.586	81.6638	225.586	81.6692	225.586	81.769	225.586	81.7728	225.586	81.8096
232.91	84.1699	232.91	83.9642	232.91	84.3247	232.91	83.7198	232.91	84.4177	232.91	83.4483	232.91	84.4408	232.91	83.1587	232.91	84.3883	232.91	82.8553	232.91	84.2564	232.91	82.5387	232.91	84.0421	232.91	82.2091	232.91	83.7427	232.91	81.8718	232.91	83.355	232.91	81.5426	232.91	82.8794	232.91	81.2486	232.91	82.3296	232.91	81.0234	232.91	81.7487	232.91	80.895	232.91	81.2207	232.91	80.8713	232.91	80.8542	232.91	80.9349	232.91	80.72	232.91	81.0473	232.91	80.7918	232.91	81.1618	232.91	80.9658	232.91	81.2337	232.91	81.1334	232.91	81.229
241.699	83.9863	241.699	83.7373	241.699	84.1878	241.699	83.4552	241.699	84.3307	241.699	83.1549	241.699	84.4067	241.699	82.8491	241.699	84.4096	241.699	82.5448	241.699	84.3337	241.699	82.2426	241.699	84.171	241.699	81.9392	241.699	83.9097	241.699	81.6329	241.699	83.5338	241.699	81.3305	241.699	83.0285	241.699	81.0511	241.699	82.3918	241.699	80.8243	241.699	81.6579	241.699	80.6806	241.699	80.9235	241.699	80.6357	241.699	80.3494	241.699	80.6791	241.699	80.0843	241.699	80.7733	241.699	80.1411	241.699	80.8647	241.699	80.3846	241.699	80.8985	241.699	80.6496	241.699	80.8319
250.488	84.346	250.488	84.0277	250.488	84.5904	250.488	83.645	250.488	84.7553	250.488	83.2113	250.488	84.8395	250.488	82.7412	250.488	84.8438	250.488	82.2492	250.488	84.7691	250.488	81.748	250.488	84.6124	250.488	81.2499	250.488	84.3638	250.488	80.771	250.488	84.0056	250.488	80.3359	250.488	83.5163	250.488	79.9802	250.488	82.8832	250.488	79.7444	250.488	82.1235	250.488	79.6572	250.488	81.313	250.488	79.7177	250.488	80.5984	250.488	79.888	250.488	80.1457	250.488	80.1048	250.488	80.0194	250.488	80.2992	250.488	80.1247	250.488	80.4132	250.488	80.2974	250.488	80.4122
259.277	84.3103	259.277	84.0671	259.277	84.4955	259.277	83.7721	259.277	84.6207	259.277	83.4338	259.277	84.6874	259.277	83.0614	259.277	84.6988	259.277	82.6625	259.277	84.6566	259.277	82.2414	259.277	84.5552	259.277	81.8002	259.277	84.3777	259.277	81.3432	259.277	84.0947	259.277	80.8833	259.277	83.6701	259.277	80.4491	259.277	83.0768	259.277	80.0863	259.277	82.3231	259.277	79.8478	259.277	81.488	259.277	79.7699	259.277	80.7409	259.277	79.8479	259.277	80.278	259.277	80.0316	259.277	80.1646	259.277	80.2451	259.277	80.2739	259.277	80.4124	259.277	80.4187	259.277	80.4772
268.066	83.9574	268.066	83.7541	268.066	84.0996	268.066	83.4924	268.066	84.1803	268.066	83.1754	268.066	84.2038	268.066	82.8046	268.066	84.1787	268.066	82.3807	268.066	84.1152	268.066	81.9058	268.066	84.0188	268.066	81.3873	268.066	83.8807	268.066	80.8421	268.066	83.6717	268.066	80.3002	268.066	83.3432	268.066	79.8066	268.066	82.841	268.066	79.4169	268.066	82.1336	268.066	79.1842	268.066	81.2567	268.066	79.136	268.066	80.3631	268.066	79.255	268.066	79.7123	268.066	79.4794	268.066	79.4891	268.066	79.7223	268.066	79.6072	268.066	79.8966	268.066	79.8182	268.066	79.9358
276.855	83.843	276.855	83.6627	276.855	83.9779	276.855	83.4424	276.855	84.0639	276.855	83.1845	276.855	84.1016	276.855	82.8835	276.855	84.0943	276.855	82.5237	276.855	84.0441	276.855	82.0843	276.855	83.9476	276.855	81.548	276.855	83.7916	276.855	80.9154	276.855	83.5518	276.855	80.2207	276.855	83.1966	276.855	79.5449	276.855	82.6963	276.855	79.0097	276.855	82.0415	276.855	78.7308	276.855	81.2707	276.855	78.7449	276.855	80.4989	276.855	78.9826	276.855	79.9078	276.855	79.318	276.855	79.6396	276.855	79.6314	276.855	79.6631	276.855	79.8372	276.855	79.804	276.855	79.8914
287.109	83.5964	287.109	83.4305	287.109	83.712	287.109	83.2277	287.109	83.7716	287.109	83.0033	287.109	83.7801	287.109	82.7649	287.109	83.7505	287.109	82.5049	287.109	83.6979	287.109	82.1983	287.109	83.6288	287.109	81.8092	287.109	83.5288	287.109	81.3039	287.109	83.357	287.109	80.6695	287.109	83.0552	287.109	79.9376	287.109	82.5731	287.109	79.2137	287.109	81.908	287.109	78.6837	287.109	81.1516	287.109	78.5352	287.109	80.5079	287.109	78.8027	287.109	80.193	287.109	79.3271	287.109	80.2343	287.109	79.8914	287.109	80.4436	287.109	80.3365	287.109	80.602	287.109	80.5803
297.363	83.9803	297.363	83.7936	297.363	84.1254	297.363	83.5834	297.363	84.2118	297.363	83.3623	297.363	84.2276	297.363	83.1303	297.363	84.168	297.363	82.8713	297.363	84.034	297.363	82.5538	297.363	83.8262	297.363	82.1371	297.363	83.5372	297.363	81.5807	297.363	83.144	297.363	80.8573	297.363	82.609	297.363	79.9726	297.363	81.8959	297.363	79.0012	297.363	81.0062	297.363	78.1338	297.363	80.0422	297.363	77.6614	297.363	79.2567	297.363	77.7713	297.363	78.9424	297.363	78.3293	297.363	79.1254	297.363	79.0131	297.363	79.517	297.363	79.5618	297.363	79.8105	297.363	79.8407
307.617	83.6049	307.617	83.3931	307.617	83.7891	307.617	83.1823	307.617	83.9287	307.617	82.9996	307.617	84.0196	307.617	82.8531	307.617	84.0661	307.617	82.7186	307.617	84.0712	307.617	82.5428	307.617	84.0266	307.617	82.2587	307.617	83.9028	307.617	81.8024	307.617	83.6442	307.617	81.1271	307.617	83.1731	307.617	80.2201	307.617	82.4068	307.617	79.1367	307.617	81.2951	307.617	78.0613	307.617	79.9079	307.617	77.3381	307.617	78.6026	307.617	77.2743	307.617	78.0138	307.617	77.7952	307.617	78.3261	307.617	78.5285	307.617	78.9675	307.617	79.1481	307.617	79.4113	307.617	79.4714
319.336	83.3246	319.336	83.1029	319.336	83.5088	319.336	82.875	319.336	83.6414	319.336	82.6812	319.336	83.7244	319.336	82.5512	319.336	83.7684	319.336	82.4812	319.336	83.7808	319.336	82.4245	319.336	83.7505	319.336	82.3023	319.336	83.6362	319.336	82.0255	319.336	83.3627	319.336	81.5137	319.336	82.8302	319.336	80.713	319.336	81.9316	319.336	79.6292	319.336	80.5867	319.336	78.4063	319.336	78.8469	319.336	77.4406	319.336	77.1884	319.336	77.2409	319.336	76.6474	319.336	77.8251	319.336	77.4474	319.336	78.6747	319.336	78.5697	319.336	79.3345	319.336	79.3369	319.336	79.586
329.59	82.4861	329.59	82.268	329.59	82.6987	329.59	82.0829	329.59	82.8894	329.59	81.9779	329.59	83.0633	329.59	81.9824	329.59	83.238	329.59	82.0806	329.59	83.4254	329.59	82.2042	329.59	83.6118	329.59	82.2505	329.59	83.7426	329.59	82.1079	329.59	83.723	329.59	81.672	329.59	83.428	329.59	80.8515	329.59	82.714	329.59	79.5816	329.59	81.4233	329.59	77.8889	329.59	79.4043	329.59	76.1203	329.59	76.6921	329.59	75.2319	329.59	74.4284	329.59	75.8278	329.59	74.8492	329.59	77.0401	329.59	76.6153	329.59	77.9762	329.59	77.8667	329.59	78.2965
341.309	81.8142	341.309	81.5506	341.309	82.0386	341.309	81.3077	341.309	82.2167	341.309	81.1775	341.309	82.3885	341.309	81.2294	341.309	82.6159	341.309	81.4502	341.309	82.9387	341.309	81.738	341.309	83.3312	341.309	81.9513	341.309	83.6937	341.309	81.9577	341.309	83.8816	341.309	81.6488	341.309	83.7385	341.309	80.9345	341.309	83.1073	341.309	79.7386	341.309	81.8201	341.309	78.0298	341.309	79.6851	341.309	76.0058	341.309	76.5844	341.309	74.5919	341.309	73.5083	341.309	74.9759	341.309	73.8585	341.309	76.4054	341.309	76.1002	341.309	77.5891	341.309	77.5835	341.309	78.0382
353.027	80.936	353.027	80.5647	353.027	81.1709	353.027	80.1536	353.027	81.2768	353.027	79.893	353.027	81.3568	353.027	79.9748	353.027	81.5799	353.027	80.4282	353.027	82.0829	353.027	81.0763	353.027	82.8394	353.027	81.6733	353.027	83.6541	353.027	82.0214	353.027	84.282	353.027	81.982	353.027	84.5141	353.027	81.4398	353.027	84.1759	353.027	80.2592	353.027	83.0838	353.027	78.2339	353.027	80.9638	353.027	75.0492	353.027	77.25	353.027	70.8836	353.027	70.376	353.027	70.5187	353.027	66.1581	353.027	73.9126	353.027	73.168	353.027	76.1616	353.027	76.1105	353.027	76.9042
366.211	82.4822	366.211	82.0627	366.211	82.5425	366.211	81.3101	366.211	82.2572	366.211	80.344	366.211	81.6919	366.211	79.4895	366.211	81.0467	366.211	79.2587	366.211	80.7513	366.211	79.8522	366.211	81.2369	366.211	80.853	366.211	82.3739	366.211	81.749	366.211	83.6098	366.211	82.2557	366.211	84.5113	366.211	82.2363	366.211	84.8482	366.211	81.5846	366.211	84.4749	366.211	80.1453	366.211	83.2371	366.211	77.6054	366.211	80.8884	366.211	73.1567	366.211	76.9252	366.211	63.1135	366.211	70.2841	366.211	62.7375	366.211	66.5567	366.211	70.4356	366.211	71.0218	366.211	72.2846
379.395	83.2577	379.395	82.7631	379.395	83.342	379.395	81.8652	379.395	82.9976	379.395	80.6048	379.395	82.1893	379.395	79.2026	379.395	80.9174	379.395	78.3236	379.395	79.4578	379.395	78.7601	379.395	78.8774	379.395	80.202	379.395	80.1465	379.395	81.742	379.395	82.2203	379.395	82.904	379.395	83.9525	379.395	83.5458	379.395	84.9952	379.395	83.6251	379.395	85.2879	379.395	83.1056	379.395	84.816	379.395	81.9294	379.395	83.5553	379.395	80.0174	379.395	81.4705	379.395	77.318	379.395	78.5609	379.395	74.03	379.395	75.0575	379.395	71.1973	379.395	71.8818	379.395	70.3967
392.578	84.9815	392.578	84.5364	392.578	85.0772	392.578	83.7286	392.578	84.807	392.578	82.5247	392.578	84.1181	392.578	80.9044	392.578	82.9171	392.578	79.0084	392.578	81.0804	392.578	77.5819	392.578	78.6258	392.578	77.8895	392.578	76.748	392.578	79.585	392.578	77.9828	392.578	81.3433	392.578	80.6861	392.578	82.6031	392.578	82.7913	392.578	83.2566	392.578	83.9826	392.578	83.3004	392.578	84.3001	392.578	82.7452	392.578	83.7938	392.578	81.6098	392.578	82.5135	392.578	79.9531	392.578	80.5688	392.578	77.963	392.578	78.2498	392.578	76.1337	392.578	76.1972	392.578	75.3419
405.762	85.2578	405.762	84.9067	405.762	85.3392	405.762	84.2699	405.762	85.1451	405.762	83.3045	405.762	84.6516	405.762	81.941	405.762	83.8152	405.762	80.1145	405.762	82.5721	405.762	77.9292	405.762	80.8747	405.762	76.237	405.762	78.9172	405.762	76.5735	405.762	77.7765	405.762	78.3581	405.762	78.705	405.762	80.0685	405.762	80.5686	405.762	81.2098	405.762	82.0196	405.762	81.7421	405.762	82.6977	405.762	81.7092	405.762	82.5918	405.762	81.1712	405.762	81.7807	405.762	80.2205	405.762	80.4277	405.762	79.0296	405.762	78.8658	405.762	77.9097	405.762	77.6509	405.762	77.316
420.41	84.7954	420.41	84.5035	420.41	84.8881	420.41	83.9986	420.41	84.7835	420.41	83.2576	420.41	84.4651	420.41	82.2517	420.41	83.8906	420.41	80.9664	420.41	82.9977	420.41	79.4734	420.41	81.7456	420.41	78.1029	420.41	80.2725	420.41	77.5286	420.41	79.2451	420.41	78.0724	420.41	79.5873	420.41	79.1415	420.41	80.9094	420.41	80.0714	420.41	82.1351	420.41	80.5729	420.41	82.7656	420.41	80.5754	420.41	82.6945	420.41	80.1036	420.41	81.9498	420.41	79.2588	420.41	80.6512	420.41	78.2487	420.41	79.0779	420.41	77.4063	420.41	77.7319	420.41	77.1355
435.059	84.8701	435.059	84.5818	435.059	84.9881	435.059	84.0927	435.059	84.9405	435.059	83.3545	435.059	84.6973	435.059	82.3084	435.059	84.1867	435.059	80.9102	435.059	83.303	435.059	79.2257	435.059	81.9482	435.059	77.7006	435.059	80.1971	435.059	77.289	435.059	78.8015	435.059	78.2317	435.059	79.1324	435.059	79.5741	435.059	80.7552	435.059	80.6159	435.059	82.2302	435.059	81.1535	435.059	82.9983	435.059	81.1697	435.059	82.9755	435.059	80.7072	435.059	82.2111	435.059	79.8645	435.059	80.8573	435.059	78.8347	435.059	79.2554	435.059	77.928	435.059	77.9783	435.059	77.5303
451.172	85.2918	451.172	84.9862	451.172	85.4512	451.172	84.5221	451.172	85.457	451.172	83.8725	451.172	85.2761	451.172	82.9911	451.172	84.8503	451.172	81.8043	451.172	84.1009	451.172	80.2158	451.172	82.9304	451.172	78.1784	451.172	81.2394	451.172	76.0148	451.172	79.0983	451.172	75.0306	451.172	77.4742	451.172	76.055	451.172	78.0562	451.172	77.677	451.172	79.8096	451.172	78.86	451.172	81.0694	451.172	79.4044	451.172	81.4347	451.172	79.3676	451.172	80.9583	451.172	78.8948	451.172	79.8498	451.172	78.2025	451.172	78.5129	451.172	77.556	451.172	77.5198	451.172	77.2344
465.82	84.701	465.82	84.4257	465.82	84.8126	465.82	83.9934	465.82	84.7506	465.82	83.4003	465.82	84.506	465.82	82.6284	465.82	84.0641	465.82	81.6459	465.82	83.3876	465.82	80.4165	465.82	82.4088	465.82	78.9422	465.82	81.0685	465.82	77.3936	465.82	79.4775	465.82	76.3174	465.82	78.2675	465.82	76.3559	465.82	78.3603	465.82	77.2731	465.82	79.4256	465.82	78.2836	465.82	80.401	465.82	78.9345	465.82	80.7771	465.82	79.1209	465.82	80.4752	465.82	78.9151	465.82	79.64	465.82	78.4825	465.82	78.6267	465.82	78.0242	465.82	77.9129	465.82	77.7537
483.398	85.1184	483.398	84.8529	483.398	85.2104	483.398	84.3939	483.398	85.1538	483.398	83.7339	483.398	84.9579	483.398	82.8734	483.398	84.5915	483.398	81.815	483.398	83.9729	483.398	80.5706	483.398	82.9874	483.398	79.2098	483.398	81.539	483.398	77.9663	483.398	79.7266	483.398	77.2802	483.398	78.3604	483.398	77.4059	483.398	78.7476	483.398	77.9772	483.398	80.2775	483.398	78.4196	483.398	81.5404	483.398	78.3982	483.398	82.0069	483.398	77.8313	483.398	81.571	483.398	76.8387	483.398	80.2548	483.398	75.7353	483.398	78.2577	483.398	74.9602	483.398	76.1863	483.398	74.9782
499.512	84.5012	499.512	84.2323	499.512	84.6617	499.512	83.8502	499.512	84.7171	499.512	83.3474	499.512	84.6603	499.512	82.7032	499.512	84.4617	499.512	81.874	499.512	84.0583	499.512	80.7985	499.512	83.3472	499.512	79.4445	499.512	82.1859	499.512	77.9449	499.512	80.4449	499.512	76.8245	499.512	78.3227	499.512	76.7739	499.512	77.2539	499.512	77.6192	499.512	78.5309	499.512	78.5717	499.512	80.4182	499.512	79.1742	499.512	81.6428	499.512	79.3299	499.512	82.015	499.512	79.1246	499.512	81.6324	499.512	78.7685	499.512	80.7153	499.512	78.5683	499.512	79.6304	499.512	78.8261
517.09	83.8411	517.09	83.5758	517.09	83.9084	517.09	83.1141	517.09	83.8145	517.09	82.5018	517.09	83.6173	517.09	81.8176	517.09	83.3604	517.09	81.136	517.09	83.0333	517.09	80.476	517.09	82.5601	517.09	79.7858	517.09	81.8347	517.09	79.0029	517.09	80.7932	517.09	78.1727	517.09	79.5419	517.09	77.5489	517.09	78.5534	517.09	77.4634	517.09	78.4961	517.09	77.9099	517.09	79.2904	517.09	78.5211	517.09	80.1862	517.09	78.9983	517.09	80.7013	517.09	79.2794	517.09	80.7549	517.09	79.4486	517.09	80.4929	517.09	79.6116	517.09	80.1355	517.09	79.8315
536.133	83.9324	536.133	83.6201	536.133	84.0354	536.133	83.115	536.133	83.9395	536.133	82.4371	536.133	83.6744	536.133	81.5836	536.133	83.2475	536.133	80.5238	536.133	82.6071	536.133	79.2468	536.133	81.6464	536.133	77.8979	536.133	80.2462	536.133	76.9507	536.133	78.4031	536.133	76.9482	536.133	76.7195	536.133	77.7515	536.133	76.7492	536.133	78.7662	536.133	78.4098	536.133	79.6055	536.133	80.0436	536.133	80.1285	536.133	80.9671	536.133	80.3216	536.133	81.1404	536.133	80.2562	536.133	80.7601	536.133	80.062	536.133	80.1915	536.133	79.8641	536.133	79.8154	536.133	79.7458
555.176	83.4303	555.176	83.0746	555.176	83.5756	555.176	82.5298	555.176	83.5611	555.176	81.8833	555.176	83.4636	555.176	81.2224	555.176	83.3204	555.176	80.5442	555.176	83.0913	555.176	79.7227	555.176	82.6618	555.176	78.5795	555.176	81.8553	555.176	77.0335	555.176	80.4367	555.176	75.3932	555.176	78.1789	555.176	74.7039	555.176	75.5294	555.176	75.6035	555.176	75.5028	555.176	77.0943	555.176	78.1488	555.176	78.3196	555.176	80.2655	555.176	79.1229	555.176	81.2708	555.176	79.6204	555.176	81.4106	555.176	79.9564	555.176	81.0863	555.176	80.2098	555.176	80.698	555.176	80.4263
574.219	84.3838	574.219	83.9267	574.219	84.5703	574.219	83.2278	574.219	84.4979	574.219	82.3653	574.219	84.1994	574.219	81.4416	574.219	83.7106	574.219	80.5159	574.219	83.0603	574.219	79.5506	574.219	82.2706	574.219	78.4516	574.219	81.3537	574.219	77.1865	574.219	80.2816	574.219	75.8834	574.219	78.9505	574.219	74.8596	574.219	77.275	574.219	74.5293	574.219	75.7682	574.219	75.0704	574.219	76.015	574.219	76.1878	574.219	77.7486	574.219	77.4453	574.219	79.2071	574.219	78.5966	574.219	79.9403	574.219	79.5442	574.219	80.2546	574.219	80.2041	574.219	80.4552	574.219	80.4966
594.727	84.6272	594.727	84.3584	594.727	84.578	594.727	83.7521	594.727	84.2712	594.727	82.8617	594.727	83.7747	594.727	81.8228	594.727	83.1537	594.727	80.804	594.727	82.4722	594.727	79.866	594.727	81.7648	594.727	78.8646	594.727	80.9889	594.727	77.5811	594.727	80.0397	594.727	75.9922	594.727	78.8512	594.727	74.5643	594.727	77.488	594.727	74.1491	594.727	76.1389	594.727	74.8112	594.727	75.2253	594.727	75.7976	594.727	75.574	594.727	76.7117	594.727	77.1195	594.727	77.5871	594.727	78.6441	594.727	78.4813	594.727	79.5381	594.727	79.2595	594.727	79.8489	594.727	79.7382
615.234	84.4063	615.234	84.1474	615.234	84.4653	615.234	83.6818	615.234	84.3268	615.234	83.0046	615.234	83.9856	615.234	82.1207	615.234	83.4339	615.234	81.0592	615.234	82.6677	615.234	79.8843	615.234	81.6902	615.234	78.6834	615.234	80.5132	615.234	77.5501	615.234	79.1677	615.234	76.6077	615.234	77.7844	615.234	76.0214	615.234	76.8065	615.234	75.8765	615.234	76.8078	615.234	76.0419	615.234	77.433	615.234	76.2982	615.234	77.6961	615.234	76.5872	615.234	77.1331	615.234	77.0109	615.234	76.1839	615.234	77.5497	615.234	76.1072	615.234	77.9241	615.234	77.0256	615.234	77.7928
637.207	84.3818	637.207	84.06	637.207	84.4584	637.207	83.4688	637.207	84.3446	637.207	82.6212	637.207	84.101	637.207	81.5692	637.207	83.7436	637.207	80.3938	637.207	83.209	637.207	79.1823	637.207	82.3938	637.207	78.0141	637.207	81.2342	637.207	76.9753	637.207	79.7283	637.207	76.1488	637.207	77.9342	637.207	75.5743	637.207	76.2293	637.207	75.2721	637.207	75.6743	637.207	75.2635	637.207	76.5118	637.207	75.4914	637.207	77.3773	637.207	75.886	637.207	77.437	637.207	76.5401	637.207	76.9283	637.207	77.4682	637.207	76.9633	637.207	78.2803	637.207	77.8381	637.207	78.4642
659.18	83.816	659.18	83.8155	659.18	83.6206	659.18	83.5697	659.18	83.2816	659.18	83.0522	659.18	82.8251	659.18	82.2605	659.18	82.2585	659.18	81.2113	659.18	81.6145	659.18	79.9451	659.18	80.959	659.18	78.5453	659.18	80.3042	659.18	77.1619	659.18	79.4991	659.18	75.9956	659.18	78.2739	659.18	75.2214	659.18	76.5125	659.18	74.9187	659.18	74.7742	659.18	75.0034	659.18	74.432	659.18	75.2285	659.18	75.4354	659.18	75.4343	659.18	76.3131	659.18	75.7311	659.18	76.3964	659.18	76.2188	659.18	75.9921	659.18	76.6055	659.18	76.0122	659.18	76.4839
682.617	83.6307	682.617	83.647	682.617	83.4336	682.617	83.4226	682.617	83.1423	682.617	82.9277	682.617	82.8141	682.617	82.1438	682.617	82.4217	682.617	81.0677	682.617	81.886	682.617	79.7457	682.617	81.1809	682.617	78.2999	682.617	80.3907	682.617	76.9253	682.617	79.6565	682.617	75.8483	682.617	79.0047	682.617	75.2239	682.617	78.2653	682.617	75.0357	682.617	77.4887	682.617	75.1094	682.617	77.2073	682.617	75.2228	682.617	77.384	682.617	75.3061	682.617	77.146	682.617	75.5976	682.617	76.1745	682.617	76.2713	682.617	75.4299	682.617	76.8789	682.617	75.975	682.617	76.7978
707.52	84.3255	707.52	84.1149	707.52	84.3863	707.52	83.748	707.52	84.2516	707.52	83.2103	707.52	83.8638	707.52	82.5159	707.52	83.2301	707.52	81.6667	707.52	82.4308	707.52	80.5889	707.52	81.5331	707.52	79.1713	707.52	80.5146	707.52	77.4631	707.52	79.3235	707.52	75.8751	707.52	77.9685	707.52	74.8973	707.52	76.4514	707.52	74.4301	707.52	75.0241	707.52	74.0951	707.52	74.9949	707.52	73.8301	707.52	76.3991	707.52	73.8774	707.52	77.3015	707.52	74.6664	707.52	77.2285	707.52	76.2223	707.52	77.2489	707.52	77.725	707.52	77.986	707.52	78.3756
732.422	83.7076	732.422	83.7244	732.422	83.5072	732.422	83.6117	732.422	83.1137	732.422	83.3507	732.422	82.6064	732.422	82.8242	732.422	82.0718	732.422	81.9316	732.422	81.5229	732.422	80.7121	732.422	80.9253	732.422	79.2968	732.422	80.1817	732.422	77.7684	732.422	79.0358	732.422	76.3386	732.422	77.2372	732.422	75.5468	732.422	75.212	732.422	75.5644	732.422	74.5569	732.422	75.6436	732.422	75.2	732.422	75.0625	732.422	75.3118	732.422	73.8285	732.422	74.7478	732.422	73.036	732.422	74.5171	732.422	73.8655	732.422	74.7001	732.422	75.0941	732.422	75.0731	732.422	75.4508
757.324	83.9743	757.324	84.0481	757.324	83.6319	757.324	83.8858	757.324	83.1017	757.324	83.5848	757.324	82.4964	757.324	83.1631	757.324	81.8662	757.324	82.4721	757.324	81.2297	757.324	81.2941	757.324	80.5946	757.324	79.5144	757.324	79.8535	757.324	77.1842	757.324	78.8702	757.324	74.6689	757.324	77.6896	757.324	73.3516	757.324	76.4479	757.324	74.1754	757.324	75.6278	757.324	75.3975	757.324	76.1332	757.324	75.8873	757.324	77.0844	757.324	75.5838	757.324	76.9179	757.324	75.0347	757.324	75.0936	757.324	75.1395	757.324	72.6206	757.324	75.5803	757.324	73.2121	757.324	75.0694
785.156	84.4658	785.156	84.4291	785.156	84.1594	785.156	84.0706	785.156	83.5412	785.156	83.504	785.156	82.6101	785.156	82.8318	785.156	81.5074	785.156	82.0904	785.156	80.6638	785.156	81.3237	785.156	80.245	785.156	80.5501	785.156	79.7514	785.156	79.5768	785.156	78.7562	785.156	78.0126	785.156	77.3691	785.156	75.5158	785.156	75.7646	785.156	72.9134	785.156	73.545	785.156	73.1354	785.156	71.4554	785.156	74.4281	785.156	73.3423	785.156	74.4668	785.156	75.5016	785.156	73.7733	785.156	75.3519	785.156	74.4813	785.156	74.0978	785.156	76.0637	785.156	74.9822	785.156	76.3518
811.523	84.3931	811.523	84.6252	811.523	83.8592	811.523	84.4501	811.523	83.0674	811.523	83.7878	811.523	82.1072	811.523	82.6817	811.523	81.261	811.523	81.3667	811.523	80.6947	811.523	80.192	811.523	80.1871	811.523	79.2908	811.523	79.5504	811.523	78.537	811.523	78.7538	811.523	77.7567	811.523	77.4602	811.523	76.6217	811.523	75.4591	811.523	74.7986	811.523	74.0969	811.523	73.0637	811.523	74.0783	811.523	73.2049	811.523	73.5762	811.523	73.93	811.523	72.9378	811.523	73.7212	811.523	73.9365	811.523	73.1579	811.523	74.7191	811.523	73.368	811.523	74.3927	811.523	73.8734
840.82	84.8083	840.82	84.7654	840.82	84.3605	840.82	84.4159	840.82	83.4445	840.82	83.9528	840.82	82.2638	840.82	83.3071	840.82	80.981	840.82	82.1355	840.82	79.7067	840.82	80.2111	840.82	78.8967	840.82	78.0247	840.82	79.0816	840.82	76.945	840.82	79.7197	840.82	77.342	840.82	79.5814	840.82	77.769	840.82	77.8288	840.82	77.2114	840.82	73.8563	840.82	75.8752	840.82	71.122	840.82	74.9792	840.82	74.7861	840.82	75.1025	840.82	76.0266	840.82	75.2837	840.82	74.3185	840.82	75.3405	840.82	73.0505	840.82	75.732	840.82	74.8768	840.82	75.915
870.117	84.9776	870.117	84.9895	870.117	84.3873	870.117	84.433	870.117	83.343	870.117	83.3921	870.117	82.1386	870.117	81.981	870.117	81.1906	870.117	80.4682	870.117	80.5841	870.117	79.1592	870.117	79.8562	870.117	77.8233	870.117	78.694	870.117	76.0567	870.117	77.587	870.117	74.6984	870.117	77.3423	870.117	74.9578	870.117	77.4283	870.117	75.4343	870.117	76.8708	870.117	75.0426	870.117	75.4429	870.117	74.1225	870.117	73.6396	870.117	73.7551	870.117	72.9891	870.117	74.1727	870.117	72.6481	870.117	74.8188	870.117	69.8289	870.117	75.0358	870.117	69.4973	870.117	73.5751
900.879	85.2192	900.879	85.1307	900.879	84.9254	900.879	84.7929	900.879	84.1042	900.879	84.3006	900.879	82.7116	900.879	83.4763	900.879	81.1985	900.879	81.8613	900.879	80.3292	900.879	79.2165	900.879	79.9833	900.879	76.3716	900.879	79.1761	900.879	75.0798	900.879	77.486	900.879	75.1835	900.879	75.681	900.879	75.4094	900.879	74.7442	900.879	75.806	900.879	73.8636	900.879	76.3269	900.879	74.251	900.879	76.196	900.879	77.0079	900.879	74.7369	900.879	78.1178	900.879	72.5547	900.879	76.4084	900.879	73.1351	900.879	73.2655	900.879	74.8522	900.879	73.6079	900.879	75.0245
933.105	84.8582	933.105	84.9355	933.105	84.2668	933.105	84.5869	933.105	83.3701	933.105	83.7981	933.105	82.5336	933.105	82.3713	933.105	81.5372	933.105	80.342	933.105	80.2493	933.105	78.495	933.105	79.2612	933.105	77.5248	933.105	78.7982	933.105	76.4119	933.105	78.2327	933.105	73.4701	933.105	77.1686	933.105	69.247	933.105	76.0815	933.105	70.8055	933.105	75.58	933.105	74.3273	933.105	74.4196	933.105	75.5846	933.105	71.2273	933.105	74.8711	933.105	71.4005	933.105	73.988	933.105	72.9631	933.105	75.1497	933.105	70.2021	933.105	76.3403	933.105	69.5361	933.105	74.9029
965.332	85.0862	965.332	85.4227	965.332	84.4055	965.332	85.1626	965.332	83.5519	965.332	84.3392	965.332	82.3353	965.332	83.1618	965.332	80.9322	965.332	81.6498	965.332	80.0472	965.332	79.4981	965.332	79.5158	965.332	76.8121	965.332	78.5219	965.332	75.2129	965.332	77.326	965.332	75.5698	965.332	76.8451	965.332	75.6056	965.332	76.0694	965.332	73.6371	965.332	73.5851	965.332	72.2796	965.332	74.5307	965.332	74.0233	965.332	77.4641	965.332	74.6594	965.332	77.547	965.332	72.401	965.332	75.3595	965.332	69.7101	965.332	72.8131	965.332	72.8161	965.332	72.2908	965.332	73.6956
1,000.49	84.2611	1,000.49	84.7718	1,000.49	83.7892	1,000.49	84.8926	1,000.49	83.5052	1,000.49	84.2851	1,000.49	82.9746	1,000.49	82.9571	1,000.49	82.1321	1,000.49	81.0106	1,000.49	81.1951	1,000.49	78.5169	1,000.49	79.5778	1,000.49	75.8855	1,000.49	77.5639	1,000.49	73.6706	1,000.49	77.0707	1,000.49	73.9988	1,000.49	77.8601	1,000.49	73.8646	1,000.49	77.8313	1,000.49	72.4609	1,000.49	76.2316	1,000.49	72.8073	1,000.49	71.8916	1,000.49	74.8997	1,000.49	66.176	1,000.49	75.3691	1,000.49	71.5711	1,000.49	73.9777	1,000.49	73.4613	1,000.49	73.1731	1,000.49	69.9474	1,000.49	74.805	1,000.49	70.2834	1,000.49	74.7019
1,035.64	83.7881	1,035.64	84.7051	1,035.64	83.4081	1,035.64	85.1897	1,035.64	83.219	1,035.64	84.5354	1,035.64	82.5019	1,035.64	82.9034	1,035.64	81.7473	1,035.64	81.4648	1,035.64	80.8352	1,035.64	80.7495	1,035.64	79.0089	1,035.64	79.1838	1,035.64	76.992	1,035.64	75.2472	1,035.64	76.2451	1,035.64	69.2459	1,035.64	77.4554	1,035.64	67.1155	1,035.64	77.9028	1,035.64	69.7864	1,035.64	75.3554	1,035.64	72.3659	1,035.64	74.1825	1,035.64	74.6575	1,035.64	77.6427	1,035.64	75.3683	1,035.64	78.5576	1,035.64	73.7581	1,035.64	76.4717	1,035.64	72.1177	1,035.64	74.4847	1,035.64	73.4425	1,035.64	71.727	1,035.64	72.1011
1,072.27	83.8295	1,072.27	84.329	1,072.27	83.2289	1,072.27	84.4712	1,072.27	82.874	1,072.27	84.307	1,072.27	82.0649	1,072.27	83.3862	1,072.27	81.0114	1,072.27	81.1782	1,072.27	81.1682	1,072.27	78.5989	1,072.27	81.1988	1,072.27	78.188	1,072.27	79.4246	1,072.27	78.1054	1,072.27	77.1291	1,072.27	74.911	1,072.27	74.1764	1,072.27	70.0374	1,072.27	75.0239	1,072.27	71.7299	1,072.27	76.6369	1,072.27	70.0419	1,072.27	73.8599	1,072.27	69.4359	1,072.27	68.6954	1,072.27	75.0765	1,072.27	75.2603	1,072.27	76.9096	1,072.27	77.6832	1,072.27	74.2374	1,072.27	74.4131	1,072.27	69.0541	1,072.27	69.1218	1,072.27	71.0608
1,108.89	82.6307	1,108.89	83.2083	1,108.89	82.6295	1,108.89	83.5718	1,108.89	83.2894	1,108.89	83.3394	1,108.89	83.5092	1,108.89	82.6274	1,108.89	82.9382	1,108.89	81.4078	1,108.89	81.6469	1,108.89	79.8398	1,108.89	79.4363	1,108.89	78.1124	1,108.89	78.2568	1,108.89	77.4525	1,108.89	78.6665	1,108.89	76.8449	1,108.89	77.2873	1,108.89	74.6194	1,108.89	73.8684	1,108.89	71.5616	1,108.89	72.1924	1,108.89	71.3559	1,108.89	72.1552	1,108.89	72.0626	1,108.89	75.3071	1,108.89	73.6648	1,108.89	78.0659	1,108.89	75.162	1,108.89	77.998	1,108.89	74.0955	1,108.89	75.6416	1,108.89	70.8388	1,108.89	69.2173	1,108.89	66.5829
1,148.44	83.1748	1,148.44	83.5444	1,148.44	82.8879	1,148.44	84.1629	1,148.44	82.7533	1,148.44	84.1116	1,148.44	82.7278	1,148.44	82.2035	1,148.44	81.9595	1,148.44	79.8156	1,148.44	80.7342	1,148.44	79.9869	1,148.44	80.2453	1,148.44	79.8351	1,148.44	79.5787	1,148.44	76.7654	1,148.44	77.5039	1,148.44	74.9166	1,148.44	74.4992	1,148.44	75.1618	1,148.44	71.6799	1,148.44	72.6565	1,148.44	72.8762	1,148.44	70.359	1,148.44	75.8827	1,148.44	72.4491	1,148.44	72.4932	1,148.44	73.1951	1,148.44	70.8498	1,148.44	74.2691	1,148.44	77.2541	1,148.44	74.3698	1,148.44	74.5764	1,148.44	72.2288	1,148.44	68.0636	1,148.44	69.5678
1,189.45	83.5198	1,189.45	83.9113	1,189.45	83.2636	1,189.45	83.9944	1,189.45	83.2532	1,189.45	83.5508	1,189.45	83.414	1,189.45	82.5826	1,189.45	83.574	1,189.45	81.1087	1,189.45	82.7944	1,189.45	78.8481	1,189.45	80.1414	1,189.45	76.8198	1,189.45	77.6942	1,189.45	75.8604	1,189.45	78.1193	1,189.45	75.8162	1,189.45	77.6679	1,189.45	75.5964	1,189.45	74.3193	1,189.45	74.2585	1,189.45	70.3855	1,189.45	72.1617	1,189.45	66.7908	1,189.45	67.5042	1,189.45	72.0733	1,189.45	70.8222	1,189.45	76.1988	1,189.45	74.293	1,189.45	76.9587	1,189.45	74.936	1,189.45	75.5583	1,189.45	73.8262	1,189.45	72.2987	1,189.45	71.7363
1,230.47	83.2872	1,230.47	83.8555	1,230.47	82.8034	1,230.47	83.956	1,230.47	82.9801	1,230.47	83.376	1,230.47	83.3704	1,230.47	82.2465	1,230.47	82.8136	1,230.47	80.6418	1,230.47	81.1567	1,230.47	78.5747	1,230.47	79.6908	1,230.47	77.5086	1,230.47	78.5658	1,230.47	75.8701	1,230.47	76.6958	1,230.47	71.1882	1,230.47	75.6331	1,230.47	71.6429	1,230.47	74.8852	1,230.47	75.0053	1,230.47	71.0045	1,230.47	75.3619	1,230.47	73.2164	1,230.47	73.9048	1,230.47	74.341	1,230.47	72.722	1,230.47	69.9056	1,230.47	72.9463	1,230.47	75.224	1,230.47	73.2855	1,230.47	75.3204	1,230.47	72.2039	1,230.47	70.4235	1,230.47	70.084
1,274.41	84.1097	1,274.41	83.8115	1,274.41	83.6826	1,274.41	83.0034	1,274.41	83.4903	1,274.41	82.0006	1,274.41	83.1026	1,274.41	80.9805	1,274.41	81.7408	1,274.41	80.2502	1,274.41	80.3547	1,274.41	78.6822	1,274.41	78.6927	1,274.41	75.7915	1,274.41	77.3604	1,274.41	74.3287	1,274.41	77.1418	1,274.41	73.7294	1,274.41	76.2602	1,274.41	71.3528	1,274.41	74.1173	1,274.41	67.5806	1,274.41	72.1394	1,274.41	70.8917	1,274.41	73.0984	1,274.41	71.7096	1,274.41	70.0442	1,274.41	68.7762	1,274.41	69.1775	1,274.41	69.2831	1,274.41	74.4574	1,274.41	72.183	1,274.41	72.6364	1,274.41	70.8179	1,274.41	71.5435	1,274.41	70.2689
1,319.82	84.3342	1,319.82	84.7718	1,319.82	84.4596	1,319.82	84.0647	1,319.82	84.2602	1,319.82	82.2691	1,319.82	83.6691	1,319.82	81.821	1,319.82	83.1454	1,319.82	81.5153	1,319.82	81.7744	1,319.82	78.857	1,319.82	79.701	1,319.82	75.2572	1,319.82	76.8356	1,319.82	72.2286	1,319.82	75.2255	1,319.82	70.2581	1,319.82	74.667	1,319.82	72.2035	1,319.82	71.0811	1,319.82	71.2954	1,319.82	70.3679	1,319.82	69.0675	1,319.82	69.6831	1,319.82	71.7832	1,319.82	74.4341	1,319.82	72.5965	1,319.82	75.7365	1,319.82	68.4588	1,319.82	72.198	1,319.82	70.745	1,319.82	73.7841	1,319.82	74.2423	1,319.82	70.0421	1,319.82	72.7845
1,366.7	84.32	1,366.7	84.1168	1,366.7	84.2926	1,366.7	83.5729	1,366.7	84.0994	1,366.7	82.4351	1,366.7	83.7224	1,366.7	81.7661	1,366.7	82.6043	1,366.7	81.6328	1,366.7	81.3449	1,366.7	79.5701	1,366.7	78.3508	1,366.7	75.1682	1,366.7	76.3308	1,366.7	72.3183	1,366.7	77.1433	1,366.7	66.7111	1,366.7	76.4334	1,366.7	65.6687	1,366.7	73.5931	1,366.7	73.1399	1,366.7	68.7039	1,366.7	71.4659	1,366.7	68.6227	1,366.7	70.0366	1,366.7	71.782	1,366.7	74.9793	1,366.7	72.2788	1,366.7	74.5701	1,366.7	75.8328	1,366.7	71.074	1,366.7	75.9528	1,366.7	72.1085	1,366.7	72.7542	1,366.7	70.8291
1,413.57	83.5908	1,413.57	83.5927	1,413.57	84.5258	1,413.57	83.3727	1,413.57	85.1853	1,413.57	83.049	1,413.57	84.3741	1,413.57	82.8283	1,413.57	82.1451	1,413.57	81.1653	1,413.57	79.7602	1,413.57	79.1045	1,413.57	78.614	1,413.57	77.3334	1,413.57	77.0763	1,413.57	76.1955	1,413.57	75.374	1,413.57	74.3445	1,413.57	74.3493	1,413.57	68.5175	1,413.57	73.5211	1,413.57	66.1864	1,413.57	69.0601	1,413.57	70.4433	1,413.57	70.2614	1,413.57	67.1424	1,413.57	62.1747	1,413.57	71.8758	1,413.57	70.6192	1,413.57	73.0309	1,413.57	74.5606	1,413.57	69.6031	1,413.57	74.6406	1,413.57	71.6492	1,413.57	72.6805	1,413.57	70.3674
1,463.38	82.9472	1,463.38	82.6884	1,463.38	84.0335	1,463.38	82.8378	1,463.38	84.6924	1,463.38	82.3003	1,463.38	84.4184	1,463.38	82.4766	1,463.38	82.8831	1,463.38	81.4001	1,463.38	80.3921	1,463.38	76.7232	1,463.38	78.2519	1,463.38	76.6085	1,463.38	77.3139	1,463.38	77.5741	1,463.38	75.0755	1,463.38	75.4401	1,463.38	73.796	1,463.38	74.277	1,463.38	73.6081	1,463.38	69.6936	1,463.38	71.0928	1,463.38	67.3738	1,463.38	66.0603	1,463.38	71.5185	1,463.38	64.6345	1,463.38	72.597	1,463.38	68.6035	1,463.38	72.698	1,463.38	72.1709	1,463.38	70.537	1,463.38	73.9607	1,463.38	68.3894	1,463.38	70.9024	1,463.38	68.6853
1,516.11	82.3889	1,516.11	82.1629	1,516.11	83.191	1,516.11	82.4958	1,516.11	84.2101	1,516.11	83.3194	1,516.11	84.4983	1,516.11	81.9695	1,516.11	83.2839	1,516.11	76.9971	1,516.11	80.0365	1,516.11	76.0515	1,516.11	77.2373	1,516.11	77.6533	1,516.11	74.205	1,516.11	74.9907	1,516.11	72.326	1,516.11	73.5084	1,516.11	73.0824	1,516.11	73.6071	1,516.11	70.5533	1,516.11	71.4104	1,516.11	67.5095	1,516.11	71.8184	1,516.11	69.3442	1,516.11	68.5915	1,516.11	70.1434	1,516.11	70.199	1,516.11	69.9454	1,516.11	72.0335	1,516.11	66.7652	1,516.11	67.7223	1,516.11	73.826	1,516.11	65.5454	1,516.11	71.3688	1,516.11	66.4932
1,568.85	82.4194	1,568.85	80.8952	1,568.85	83.6361	1,568.85	80.6239	1,568.85	84.1374	1,568.85	81.586	1,568.85	83.5073	1,568.85	81.1388	1,568.85	82.4107	1,568.85	78.8743	1,568.85	80.0124	1,568.85	77.9383	1,568.85	77.3564	1,568.85	76.9291	1,568.85	75.0155	1,568.85	75.3965	1,568.85	71.6157	1,568.85	73.6001	1,568.85	69.9167	1,568.85	70.6103	1,568.85	71.1632	1,568.85	70.6923	1,568.85	72.5973	1,568.85	73.3226	1,568.85	67.3905	1,568.85	69.441	1,568.85	74.0692	1,568.85	67.5284	1,568.85	68.062	1,568.85	71.4234	1,568.85	69.9095	1,568.85	65.7996	1,568.85	72.931	1,568.85	66.3556	1,568.85	68.3027	1,568.85	67.7859
1,624.51	82.6986	1,624.51	81.1372	1,624.51	83.8492	1,624.51	79.7009	1,624.51	84.3461	1,624.51	80.2853	1,624.51	83.8759	1,624.51	80.1326	1,624.51	81.9789	1,624.51	79.0157	1,624.51	78.8999	1,624.51	79.8311	1,624.51	74.0409	1,624.51	77.6894	1,624.51	70.0107	1,624.51	73.017	1,624.51	73.7101	1,624.51	73.7189	1,624.51	71.6094	1,624.51	72.7598	1,624.51	69.1921	1,624.51	64.6126	1,624.51	65.0928	1,624.51	72.2772	1,624.51	68.4828	1,624.51	73.1941	1,624.51	69.0122	1,624.51	67.1203	1,624.51	66.2103	1,624.51	73.3965	1,624.51	65.2557	1,624.51	70.4446	1,624.51	71.2857	1,624.51	65.1392	1,624.51	67.609	1,624.51	64.3689
1,681.64	83.834	1,681.64	80.941	1,681.64	84.6964	1,681.64	79.5865	1,681.64	84.4005	1,681.64	80.5838	1,681.64	83.3933	1,681.64	80.2955	1,681.64	81.4648	1,681.64	80.8388	1,681.64	77.5239	1,681.64	80.0009	1,681.64	73.5057	1,681.64	76.9058	1,681.64	73.222	1,681.64	76.2772	1,681.64	71.1494	1,681.64	72.5771	1,681.64	72.4015	1,681.64	69.896	1,681.64	61.7253	1,681.64	72.9316	1,681.64	69.6634	1,681.64	67.1457	1,681.64	69.5291	1,681.64	73.2327	1,681.64	66.8941	1,681.64	68.8299	1,681.64	71.5151	1,681.64	70.2235	1,681.64	72.1441	1,681.64	71.2693	1,681.64	66.3772	1,681.64	61.794	1,681.64	68.5093	1,681.64	62.2473
1,741.7	82.9357	1,741.7	80.8023	1,741.7	84.9807	1,741.7	80.2477	1,741.7	85.2672	1,741.7	78.6367	1,741.7	83.8445	1,741.7	77.984	1,741.7	80.7333	1,741.7	79.9559	1,741.7	77.0837	1,741.7	79.3763	1,741.7	74.4341	1,741.7	77.1222	1,741.7	73.6763	1,741.7	75.6007	1,741.7	69.2164	1,741.7	71.1809	1,741.7	73.0381	1,741.7	64.4871	1,741.7	71.8202	1,741.7	68.3565	1,741.7	66.9044	1,741.7	67.4488	1,741.7	64.3804	1,741.7	69.2765	1,741.7	67.9194	1,741.7	68.6214	1,741.7	72.2166	1,741.7	65.5242	1,741.7	59.2986	1,741.7	70.6493	1,741.7	67.9763	1,741.7	66.6786	1,741.7	70.3524	1,741.7	66.2228
1,803.22	82.966	1,803.22	80.7083	1,803.22	84.1811	1,803.22	78.5619	1,803.22	84.3604	1,803.22	78.7825	1,803.22	83.5517	1,803.22	80.4934	1,803.22	79.9971	1,803.22	80.1402	1,803.22	74.7216	1,803.22	78.1656	1,803.22	73.0789	1,803.22	76.7154	1,803.22	71.6571	1,803.22	73.9949	1,803.22	70.2987	1,803.22	73.5589	1,803.22	71.5584	1,803.22	69.3561	1,803.22	68.88	1,803.22	71.7642	1,803.22	67.7526	1,803.22	67.2951	1,803.22	66.7123	1,803.22	70.4444	1,803.22	67.4084	1,803.22	71.0353	1,803.22	66.3782	1,803.22	70.8221	1,803.22	60.8328	1,803.22	68.4218	1,803.22	68.9859	1,803.22	64.2234	1,803.22	68.7677	1,803.22	60.8376
1,866.21	81.9065	1,866.21	79.1726	1,866.21	83.4815	1,866.21	77.9735	1,866.21	83.5801	1,866.21	79.0245	1,866.21	82.89	1,866.21	79.84	1,866.21	80.5634	1,866.21	79.0258	1,866.21	75.8111	1,866.21	77.9461	1,866.21	69.6825	1,866.21	77.6848	1,866.21	71.8622	1,866.21	74.4159	1,866.21	67.6352	1,866.21	73.368	1,866.21	69.4682	1,866.21	72.8084	1,866.21	65.9984	1,866.21	68.3471	1,866.21	60.2768	1,866.21	71.038	1,866.21	63.7651	1,866.21	66.1978	1,866.21	62.3429	1,866.21	68.9803	1,866.21	63.8261	1,866.21	70.246	1,866.21	66.0986	1,866.21	68.0042	1,866.21	69.0689	1,866.21	59.4458	1,866.21	66.7622	1,866.21	40.8005
1,932.13	82.1202	1,932.13	79.3266	1,932.13	83.4233	1,932.13	77.5479	1,932.13	82.8274	1,932.13	79.0002	1,932.13	81.4012	1,932.13	79.1287	1,932.13	79.7802	1,932.13	78.3506	1,932.13	74.6634	1,932.13	78.9363	1,932.13	71.793	1,932.13	75.1749	1,932.13	66.5038	1,932.13	74.2714	1,932.13	71.0168	1,932.13	70.9079	1,932.13	67.9228	1,932.13	68.766	1,932.13	69.6875	1,932.13	69.2135	1,932.13	69.9648	1,932.13	68.5763	1,932.13	58.1102	1,932.13	69.5534	1,932.13	61.061	1,932.13	66.8884	1,932.13	57.2299	1,932.13	70.4884	1,932.13	65.0811	1,932.13	69.1065	1,932.13	67.1186	1,932.13	62.0408	1,932.13	68.4642	1,932.13	59.8732
1,999.51	82.7709	1,999.51	79.0416	1,999.51	84.4632	1,999.51	76.1896	1,999.51	83.4135	1,999.51	78.1584	1,999.51	81.2425	1,999.51	78.5865	1,999.51	78.0054	1,999.51	79.3414	1,999.51	74.4526	1,999.51	78.6335	1,999.51	73.5729	1,999.51	76.6532	1,999.51	69.8455	1,999.51	74.5117	1,999.51	67.5755	1,999.51	72.3525	1,999.51	70.0852	1,999.51	72.7005	1,999.51	68.4093	1,999.51	69.1646	1,999.51	72.344	1,999.51	69.2786	1,999.51	64.766	1,999.51	69.9082	1,999.51	63.3465	1,999.51	68.629	1,999.51	60.1828	1,999.51	69.7693	1,999.51	64.1368	1,999.51	68.0807	1,999.51	66.9321	1,999.51	62.6388	1,999.51	68.351	1,999.51	60.9177
2,069.82	83.5303	2,069.82	80.0549	2,069.82	84.4086	2,069.82	72.3761	2,069.82	83.1193	2,069.82	76.0351	2,069.82	79.1143	2,069.82	79.5132	2,069.82	74.5873	2,069.82	79.5529	2,069.82	74.1817	2,069.82	79.0103	2,069.82	75.3635	2,069.82	77.3744	2,069.82	71.8655	2,069.82	75.1797	2,069.82	67.6638	2,069.82	72.2872	2,069.82	71.2792	2,069.82	70.35	2,069.82	68.73	2,069.82	69.6378	2,069.82	71.4111	2,069.82	67.467	2,069.82	65.81	2,069.82	69.086	2,069.82	64.4687	2,069.82	69.22	2,069.82	62.6099	2,069.82	70.3145	2,069.82	66.9821	2,069.82	67.6331	2,069.82	63.7873	2,069.82	63.9572	2,069.82	70.3063	2,069.82	59.3477
2,143.07	83.5208	2,143.07	80.4651	2,143.07	83.9911	2,143.07	70.7435	2,143.07	83.4338	2,143.07	74.2823	2,143.07	79.2666	2,143.07	79.7706	2,143.07	72.63	2,143.07	79.6509	2,143.07	73.4868	2,143.07	78.7348	2,143.07	75.2681	2,143.07	75.6484	2,143.07	74.35	2,143.07	74.8026	2,143.07	66.8825	2,143.07	73.3372	2,143.07	67.2765	2,143.07	69.5192	2,143.07	68.4413	2,143.07	68.4613	2,143.07	69.6115	2,143.07	66.1889	2,143.07	67.268	2,143.07	67.6936	2,143.07	63.7196	2,143.07	68.9103	2,143.07	62.734	2,143.07	68.0182	2,143.07	64.8971	2,143.07	66.8632	2,143.07	64.5561	2,143.07	56.4482	2,143.07	69.6654	2,143.07	57.3699
2,219.24	82.6051	2,219.24	78.9327	2,219.24	82.5576	2,219.24	73.4482	2,219.24	81.6528	2,219.24	74.4653	2,219.24	78.227	2,219.24	78.3986	2,219.24	73.5219	2,219.24	79.8671	2,219.24	74.4128	2,219.24	77.5923	2,219.24	76.5414	2,219.24	77.4133	2,219.24	74.4014	2,219.24	75.1423	2,219.24	68.6643	2,219.24	73.0031	2,219.24	66.8486	2,219.24	70.0343	2,219.24	66.9339	2,219.24	67.61	2,219.24	68.9787	2,219.24	68.434	2,219.24	66.07	2,219.24	65.7172	2,219.24	64.9585	2,219.24	68.4573	2,219.24	56.7903	2,219.24	67.6623	2,219.24	61.2262	2,219.24	66.9898	2,219.24	60.6627	2,219.24	59.9324	2,219.24	68.0202	2,219.24	58.7609
2,296.88	81.8833	2,296.88	78.2357	2,296.88	82.1145	2,296.88	72.8069	2,296.88	79.9806	2,296.88	74.3072	2,296.88	77.1698	2,296.88	77.9225	2,296.88	73.8787	2,296.88	79.2835	2,296.88	75.4073	2,296.88	77.9442	2,296.88	76.5527	2,296.88	76.2088	2,296.88	75.6174	2,296.88	72.6609	2,296.88	71.9956	2,296.88	69.3988	2,296.88	67.7429	2,296.88	67.2813	2,296.88	69.1397	2,296.88	68.6269	2,296.88	65.4149	2,296.88	66.0683	2,296.88	69.1216	2,296.88	64.6103	2,296.88	64.9334	2,296.88	68.3781	2,296.88	62.3641	2,296.88	67.3441	2,296.88	60.6784	2,296.88	65.7958	2,296.88	56.1273	2,296.88	59.9602	2,296.88	67.3861	2,296.88	46.6386
2,378.91	82.2546	2,378.91	78.824	2,378.91	82.3114	2,378.91	69.8806	2,378.91	76.9814	2,378.91	73.9595	2,378.91	73.0275	2,378.91	77.1688	2,378.91	71.7277	2,378.91	79.3064	2,378.91	76.3482	2,378.91	78.0996	2,378.91	77.1281	2,378.91	76.7301	2,378.91	76.2789	2,378.91	74.359	2,378.91	72.1509	2,378.91	70.7607	2,378.91	70.9425	2,378.91	69.5975	2,378.91	71.5959	2,378.91	64.8941	2,378.91	61.3288	2,378.91	66.6749	2,378.91	67.5807	2,378.91	63.4829	2,378.91	65.2736	2,378.91	66.3388	2,378.91	62.999	2,378.91	65.9307	2,378.91	58.3435	2,378.91	65.4535	2,378.91	58.5148	2,378.91	54.5071	2,378.91	65.1652	2,378.91	53.6542
2,462.4	83.2201	2,462.4	80.0335	2,462.4	83.4282	2,462.4	64.8042	2,462.4	79.064	2,462.4	73.6732	2,462.4	68.5078	2,462.4	78.7507	2,462.4	70.2276	2,462.4	78.5002	2,462.4	77.0587	2,462.4	77.5827	2,462.4	77.0939	2,462.4	75.4847	2,462.4	76.0698	2,462.4	70.5673	2,462.4	70.6879	2,462.4	70.9252	2,462.4	66.5876	2,462.4	66.5353	2,462.4	72.5416	2,462.4	66.5453	2,462.4	70.4511	2,462.4	62.7231	2,462.4	63.6241	2,462.4	63.8727	2,462.4	67.5491	2,462.4	64.3609	2,462.4	62.4136	2,462.4	66.8131	2,462.4	61.6907	2,462.4	66.2636	2,462.4	62.8635	2,462.4	56.1814	2,462.4	65.056	2,462.4	56.2453
2,548.83	82.3777	2,548.83	79.4298	2,548.83	83.1136	2,548.83	64.707	2,548.83	80.7976	2,548.83	74.1872	2,548.83	70.9029	2,548.83	79.3454	2,548.83	72.2293	2,548.83	77.9341	2,548.83	76.28	2,548.83	77.3435	2,548.83	78.2759	2,548.83	72.7017	2,548.83	75.1757	2,548.83	71.9219	2,548.83	72.6563	2,548.83	68.5955	2,548.83	64.8726	2,548.83	65.234	2,548.83	72.7049	2,548.83	63.2733	2,548.83	71.4111	2,548.83	62.3576	2,548.83	68.2584	2,548.83	61.4278	2,548.83	67.3063	2,548.83	63.3447	2,548.83	66.2422	2,548.83	64.1743	2,548.83	53.3845	2,548.83	64.8598	2,548.83	60.8533	2,548.83	56.3941	2,548.83	65.5878	2,548.83	51.784
2,639.65	81.6707	2,639.65	78.536	2,639.65	81.3537	2,639.65	65.7411	2,639.65	79.2485	2,639.65	75.5523	2,639.65	70.2168	2,639.65	79.4661	2,639.65	74.372	2,639.65	78.7511	2,639.65	77.0529	2,639.65	76.6773	2,639.65	78.8959	2,639.65	72.3695	2,639.65	76.9516	2,639.65	71.7211	2,639.65	73.6809	2,639.65	65.8075	2,639.65	70.3937	2,639.65	66.5067	2,639.65	70.4848	2,639.65	63.6377	2,639.65	68.7969	2,639.65	63.7102	2,639.65	69.672	2,639.65	60.4353	2,639.65	62.8348	2,639.65	64.3371	2,639.65	65.7808	2,639.65	62.832	2,639.65	58.4983	2,639.65	65.0014	2,639.65	57.2575	2,639.65	53.1675	2,639.65	64.7478	2,639.65	51.1022
2,731.93	80.9518	2,731.93	76.9929	2,731.93	80.3256	2,731.93	62.0796	2,731.93	76.3762	2,731.93	75.8019	2,731.93	71.1808	2,731.93	78.5232	2,731.93	73.7785	2,731.93	78.6562	2,731.93	76.6299	2,731.93	74.6029	2,731.93	77.4463	2,731.93	73.6126	2,731.93	76.0453	2,731.93	68.7281	2,731.93	74.7545	2,731.93	67.481	2,731.93	71.4769	2,731.93	65.8248	2,731.93	68.7734	2,731.93	63.3952	2,731.93	66.4147	2,731.93	60.0432	2,731.93	63.9935	2,731.93	60.5515	2,731.93	63.3177	2,731.93	60.7618	2,731.93	64.8458	2,731.93	61.0962	2,731.93	56.4158	2,731.93	63.6942	2,731.93	59.7856	2,731.93	53.0938	2,731.93	62.5257	2,731.93	50.219
2,828.61	81.4856	2,828.61	77.3936	2,828.61	81.0785	2,828.61	55.4691	2,828.61	75.7846	2,828.61	76.1939	2,828.61	66.7606	2,828.61	78.9234	2,828.61	72.8991	2,828.61	77.951	2,828.61	77.4346	2,828.61	75.5635	2,828.61	76.3893	2,828.61	71.7578	2,828.61	74.723	2,828.61	69.844	2,828.61	74.3137	2,828.61	67.216	2,828.61	72.175	2,828.61	63.0866	2,828.61	65.2963	2,828.61	59.0559	2,828.61	64.7705	2,828.61	61.591	2,828.61	61.9416	2,828.61	58.0787	2,828.61	64.4672	2,828.61	59.6313	2,828.61	61.241	2,828.61	61.9716	2,828.61	56.9402	2,828.61	62.8518	2,828.61	57.3156	2,828.61	58.1958	2,828.61	61.0564	2,828.61	56.2331
2,928.22	82.2517	2,928.22	77.5484	2,928.22	81.9137	2,928.22	65.0368	2,928.22	77.4538	2,928.22	77.6078	2,928.22	59.1207	2,928.22	79.4042	2,928.22	73.5449	2,928.22	76.9005	2,928.22	77.8675	2,928.22	75.1573	2,928.22	77.2438	2,928.22	70.5045	2,928.22	74.4031	2,928.22	68.654	2,928.22	74.1722	2,928.22	65.9622	2,928.22	69.633	2,928.22	64.9844	2,928.22	60.6735	2,928.22	63.8487	2,928.22	62.5528	2,928.22	61.1908	2,928.22	61.1585	2,928.22	61.5301	2,928.22	64.4761	2,928.22	60.0561	2,928.22	59.2694	2,928.22	60.651	2,928.22	51.919	2,928.22	61.6758	2,928.22	53.4894	2,928.22	56.3635	2,928.22	60.1394	2,928.22	54.124
3,030.76	82.4578	3,030.76	76.8651	3,030.76	82.3744	3,030.76	68.5275	3,030.76	78.1138	3,030.76	78.8634	3,030.76	52.5759	3,030.76	80.0125	3,030.76	73.8205	3,030.76	77.5346	3,030.76	78.1934	3,030.76	74.3482	3,030.76	77.7668	3,030.76	70.8815	3,030.76	74.5694	3,030.76	70.1879	3,030.76	75.4431	3,030.76	69.204	3,030.76	63.4142	3,030.76	66.7481	3,030.76	61.2199	3,030.76	64.8162	3,030.76	63.3821	3,030.76	60.6141	3,030.76	59.4223	3,030.76	61.1084	3,030.76	63.7686	3,030.76	59.0075	3,030.76	56.8683	3,030.76	62.6171	3,030.76	54.7019	3,030.76	63.748	3,030.76	58.1061	3,030.76	56.2154	3,030.76	59.2536	3,030.76	59.2632
3,137.7	82.2321	3,137.7	75.5681	3,137.7	82.8018	3,137.7	71.6869	3,137.7	78.288	3,137.7	80.1668	3,137.7	58.8601	3,137.7	80.3006	3,137.7	74.6128	3,137.7	78.1074	3,137.7	79.0967	3,137.7	75.1276	3,137.7	76.9611	3,137.7	73.4578	3,137.7	75.4637	3,137.7	69.8204	3,137.7	74.3317	3,137.7	65.9986	3,137.7	63.4075	3,137.7	63.7627	3,137.7	56.9842	3,137.7	63.1661	3,137.7	59.677	3,137.7	64.0553	3,137.7	64.786	3,137.7	60.8167	3,137.7	59.0002	3,137.7	59.6762	3,137.7	60.0405	3,137.7	62.7957	3,137.7	47.3235	3,137.7	62.8914	3,137.7	57.6255	3,137.7	58.273	3,137.7	55.3489	3,137.7	60.241
3,249.02	82.0911	3,249.02	76.7709	3,249.02	82.5336	3,249.02	71.9859	3,249.02	78.1449	3,249.02	80.6933	3,249.02	66.0208	3,249.02	80.2063	3,249.02	76.4946	3,249.02	78.2631	3,249.02	77.8624	3,249.02	74.2181	3,249.02	77.2412	3,249.02	71.501	3,249.02	77.3792	3,249.02	68.4382	3,249.02	74.303	3,249.02	69.0417	3,249.02	61.9045	3,249.02	64.7694	3,249.02	64.2765	3,249.02	61.4428	3,249.02	59.4431	3,249.02	60.718	3,249.02	58.669	3,249.02	60.7996	3,249.02	62.1089	3,249.02	58.2835	3,249.02	61.5422	3,249.02	62.675	3,249.02	50.9498	3,249.02	61.4465	3,249.02	56.2319	3,249.02	60.1004	3,249.02	53.1143	3,249.02	57.9416
3,363.28	82.6861	3,363.28	75.1003	3,363.28	82.7746	3,363.28	75.805	3,363.28	78.0054	3,363.28	80.4405	3,363.28	71.579	3,363.28	80.8158	3,363.28	75.7768	3,363.28	77.568	3,363.28	77.3395	3,363.28	74.4966	3,363.28	76.4906	3,363.28	70.0456	3,363.28	78.6975	3,363.28	70.8354	3,363.28	74.9719	3,363.28	64.5836	3,363.28	68.3412	3,363.28	61.9665	3,363.28	71.2302	3,363.28	64.0476	3,363.28	45.2958	3,363.28	60.112	3,363.28	59.4426	3,363.28	59.8428	3,363.28	63.8239	3,363.28	56.4323	3,363.28	61.5791	3,363.28	59.8842	3,363.28	57.1885	3,363.28	57.1871	3,363.28	59.2061	3,363.28	60.9794	3,363.28	54.2526	3,363.28	59.5211
3,481.93	82.8999	3,481.93	75.954	3,481.93	82.7369	3,481.93	78.3236	3,481.93	78.5396	3,481.93	81.7608	3,481.93	74.4474	3,481.93	81.0667	3,481.93	78.3445	3,481.93	77.1881	3,481.93	75.8125	3,481.93	71.926	3,481.93	77.8417	3,481.93	71.3236	3,481.93	80.582	3,481.93	65.2092	3,481.93	74.3689	3,481.93	69.8326	3,481.93	72.2117	3,481.93	66.9846	3,481.93	73.1164	3,481.93	65.233	3,481.93	63.8027	3,481.93	64.5561	3,481.93	56.3136	3,481.93	63.3354	3,481.93	63.1183	3,481.93	58.4993	3,481.93	55.2208	3,481.93	61.1533	3,481.93	55.6211	3,481.93	60.5868	3,481.93	53.6955	3,481.93	61.5939	3,481.93	55.5149	3,481.93	60.5595
3,604.98	83.7152	3,604.98	77.1555	3,604.98	83.1583	3,604.98	79.115	3,604.98	77.0253	3,604.98	82.7532	3,604.98	77.1798	3,604.98	80.3692	3,604.98	78.0161	3,604.98	76.3875	3,604.98	75.2332	3,604.98	72.2483	3,604.98	79.8999	3,604.98	72.4752	3,604.98	79.7599	3,604.98	72.6132	3,604.98	75.0363	3,604.98	70.3238	3,604.98	74.4926	3,604.98	66.3122	3,604.98	74.4525	3,604.98	65.8102	3,604.98	65.4662	3,604.98	63.5199	3,604.98	60.4225	3,604.98	63.0541	3,604.98	61.1344	3,604.98	60.8253	3,604.98	62.0029	3,604.98	61.2796	3,604.98	55.7873	3,604.98	60.2092	3,604.98	55.5889	3,604.98	62.6207	3,604.98	60.4531	3,604.98	61.7442
3,732.42	83.8025	3,732.42	76.8623	3,732.42	84.5684	3,732.42	79.6271	3,732.42	76.9809	3,732.42	82.7342	3,732.42	77.9972	3,732.42	79.6308	3,732.42	76.4726	3,732.42	74.3517	3,732.42	74.5811	3,732.42	74.454	3,732.42	79.222	3,732.42	74.2319	3,732.42	79.0286	3,732.42	71.5809	3,732.42	73.8653	3,732.42	69.3111	3,732.42	73.6222	3,732.42	68.1642	3,732.42	71.9756	3,732.42	65.4533	3,732.42	67.5527	3,732.42	62.5235	3,732.42	65.0112	3,732.42	62.4621	3,732.42	62.1251	3,732.42	63.1248	3,732.42	60.3647	3,732.42	62.2093	3,732.42	55.8694	3,732.42	61.2975	3,732.42	57.3246	3,732.42	61.7667	3,732.42	58.2075	3,732.42	61.4544
3,864.26	82.1837	3,864.26	75.1062	3,864.26	83.2226	3,864.26	81.0401	3,864.26	78.8967	3,864.26	82.2331	3,864.26	77.6784	3,864.26	78.5027	3,864.26	77.2459	3,864.26	75.7371	3,864.26	75.7824	3,864.26	75.0232	3,864.26	79.27	3,864.26	73.8664	3,864.26	75.0965	3,864.26	72.0289	3,864.26	76.0271	3,864.26	68.6982	3,864.26	67.6195	3,864.26	67.5404	3,864.26	68.402	3,864.26	66.0697	3,864.26	68.7737	3,864.26	62.2111	3,864.26	63.5886	3,864.26	65.2007	3,864.26	63.0145	3,864.26	62.2005	3,864.26	48.6861	3,864.26	59.4823	3,864.26	60.1587	3,864.26	63.6484	3,864.26	55.7141	3,864.26	61.9413	3,864.26	55.2755	3,864.26	61.9025
4,000.49	81.4178	4,000.49	76.8168	4,000.49	82.1174	4,000.49	81.619	4,000.49	77.8512	4,000.49	81.2916	4,000.49	79.0975	4,000.49	77.4432	4,000.49	78.4856	4,000.49	75.6793	4,000.49	78.1429	4,000.49	75.9979	4,000.49	77.9929	4,000.49	74.1463	4,000.49	73.294	4,000.49	73.1813	4,000.49	75.1219	4,000.49	68.0515	4,000.49	69.2067	4,000.49	65.9115	4,000.49	72.8277	4,000.49	64.7385	4,000.49	68.4519	4,000.49	65.8173	4,000.49	57.292	4,000.49	62.6661	4,000.49	61.0541	4,000.49	60.1682	4,000.49	53.0837	4,000.49	59.1427	4,000.49	58.7764	4,000.49	61.7931	4,000.49	56.6928	4,000.49	62.2363	4,000.49	60.0756	4,000.49	63.492
4,141.11	80.4154	4,141.11	79.1627	4,141.11	82.1345	4,141.11	81.3471	4,141.11	78.6718	4,141.11	80.0483	4,141.11	79.5098	4,141.11	76.4966	4,141.11	80.2019	4,141.11	77.5323	4,141.11	78.2719	4,141.11	76.5052	4,141.11	78.0547	4,141.11	75.5201	4,141.11	73.4548	4,141.11	69.7556	4,141.11	70.5185	4,141.11	72.6207	4,141.11	69.4471	4,141.11	66.8883	4,141.11	67.2132	4,141.11	65.9881	4,141.11	63.8666	4,141.11	61.2827	4,141.11	59.8264	4,141.11	61.8242	4,141.11	62.9881	4,141.11	61.504	4,141.11	44.5613	4,141.11	59.3318	4,141.11	54.3976	4,141.11	61.0198	4,141.11	56.1345	4,141.11	58.5086	4,141.11	57.6289	4,141.11	64.1205
4,287.6	81.4065	4,287.6	78.4785	4,287.6	80.7181	4,287.6	80.7462	4,287.6	78.4181	4,287.6	80.0901	4,287.6	79.7111	4,287.6	78.096	4,287.6	80.6211	4,287.6	77.7077	4,287.6	78.1577	4,287.6	76.2839	4,287.6	78.4905	4,287.6	72.8421	4,287.6	75.7001	4,287.6	71.8425	4,287.6	73.065	4,287.6	66.3882	4,287.6	70.6698	4,287.6	65.818	4,287.6	66.2536	4,287.6	63.4688	4,287.6	58.0961	4,287.6	61.158	4,287.6	59.2559	4,287.6	61.7274	4,287.6	59.8412	4,287.6	59.7987	4,287.6	50.4479	4,287.6	55.5505	4,287.6	55.8857	4,287.6	59.0678	4,287.6	55.1108	4,287.6	60.8795	4,287.6	53.4838	4,287.6	63.5298
4,438.48	81.8554	4,438.48	79.0665	4,438.48	80.9011	4,438.48	80.9976	4,438.48	77.8483	4,438.48	79.4895	4,438.48	79.6892	4,438.48	77.5601	4,438.48	79.653	4,438.48	77.8668	4,438.48	78.571	4,438.48	74.2599	4,438.48	78.0273	4,438.48	73.7008	4,438.48	77.6495	4,438.48	67.7143	4,438.48	70.2739	4,438.48	69.838	4,438.48	70.4824	4,438.48	64.7393	4,438.48	60.8818	4,438.48	62.0533	4,438.48	61.6825	4,438.48	62.7835	4,438.48	57.4533	4,438.48	61.374	4,438.48	56.4672	4,438.48	60.7789	4,438.48	56.5815	4,438.48	58.2762	4,438.48	55.6314	4,438.48	58.4583	4,438.48	55.6651	4,438.48	59.0727	4,438.48	59.4483	4,438.48	61.5862
4,595.21	80.1619	4,595.21	78.7804	4,595.21	80.6617	4,595.21	80.0387	4,595.21	77.4056	4,595.21	79.0332	4,595.21	80.5135	4,595.21	78.4535	4,595.21	79.6878	4,595.21	77.389	4,595.21	76.0995	4,595.21	75.0708	4,595.21	77.6249	4,595.21	72.7058	4,595.21	76.5484	4,595.21	72.1196	4,595.21	69.9997	4,595.21	68.7067	4,595.21	67.9461	4,595.21	65.9148	4,595.21	62.1687	4,595.21	63.9148	4,595.21	63.6419	4,595.21	63.4441	4,595.21	56.8082	4,595.21	62.2897	4,595.21	55.2269	4,595.21	60.705	4,595.21	54.8262	4,595.21	50.8579	4,595.21	56.8416	4,595.21	57.8207	4,595.21	54.8082	4,595.21	59.0191	4,595.21	56.774	4,595.21	62.1624
4,756.35	80.6194	4,756.35	77.7975	4,756.35	80.8378	4,756.35	80.248	4,756.35	77.2342	4,756.35	78.891	4,756.35	80.5243	4,756.35	77.7984	4,756.35	79.0144	4,756.35	76.322	4,756.35	73.7555	4,756.35	75.2048	4,756.35	75.5724	4,756.35	72.5433	4,756.35	75.6841	4,756.35	67.7586	4,756.35	71.0555	4,756.35	68.5557	4,756.35	65.816	4,756.35	66.0264	4,756.35	65.1899	4,756.35	62.8465	4,756.35	65.1147	4,756.35	58.8316	4,756.35	56.2282	4,756.35	60.716	4,756.35	52.4791	4,756.35	57.8991	4,756.35	52.0944	4,756.35	56.3858	4,756.35	58.2503	4,756.35	56.7646	4,756.35	50.63	4,756.35	56.3523	4,756.35	56.9192	4,756.35	60.8017
4,924.8	80.1445	4,924.8	80.0192	4,924.8	81.6273	4,924.8	80.0978	4,924.8	78.4865	4,924.8	79.1163	4,924.8	80.0587	4,924.8	77.9133	4,924.8	80.4765	4,924.8	77.189	4,924.8	74.6273	4,924.8	72.9616	4,924.8	73.9883	4,924.8	72.5455	4,924.8	73.6072	4,924.8	69.5506	4,924.8	69.2748	4,924.8	64.0595	4,924.8	47.4767	4,924.8	63.2437	4,924.8	69.5462	4,924.8	57.5881	4,924.8	66.3994	4,924.8	59.8199	4,924.8	57.697	4,924.8	58.8703	4,924.8	58.9587	4,924.8	58.5924	4,924.8	49.4809	4,924.8	56.8393	4,924.8	56.5225	4,924.8	56.7722	4,924.8	55.9603	4,924.8	56.3664	4,924.8	58.2951	4,924.8	59.7321
5,097.66	81.6692	5,097.66	80.2602	5,097.66	82.4102	5,097.66	80.8568	5,097.66	81.4724	5,097.66	80.8149	5,097.66	80.1996	5,097.66	78.5103	5,097.66	82.2341	5,097.66	77.2345	5,097.66	76.4489	5,097.66	74.998	5,097.66	72.9695	5,097.66	71.6242	5,097.66	69.1149	5,097.66	70.9168	5,097.66	68.8138	5,097.66	67.8097	5,097.66	65.729	5,097.66	65.5941	5,097.66	64.9887	5,097.66	64.3967	5,097.66	64.5024	5,097.66	62.956	5,097.66	61.0733	5,097.66	57.4739	5,097.66	57.7493	5,097.66	58.4626	5,097.66	46.6111	5,097.66	56.7919	5,097.66	56.4848	5,097.66	26.691	5,097.66	58.4613	5,097.66	56.1114	5,097.66	57.1993	5,097.66	62.4995
5,277.83	82.9592	5,277.83	82.0072	5,277.83	82.7332	5,277.83	82.4011	5,277.83	81.4482	5,277.83	80.8442	5,277.83	80.8939	5,277.83	79.7855	5,277.83	82.4125	5,277.83	77.5821	5,277.83	77.2588	5,277.83	74.1709	5,277.83	69.3501	5,277.83	73.0688	5,277.83	69.6094	5,277.83	67.6108	5,277.83	72.1057	5,277.83	65.9755	5,277.83	65.959	5,277.83	61.2059	5,277.83	67.0117	5,277.83	57.4907	5,277.83	66.0968	5,277.83	55.1209	5,277.83	57.3782	5,277.83	55.6469	5,277.83	37.6075	5,277.83	58.7491	5,277.83	44.521	5,277.83	55.3653	5,277.83	53.1414	5,277.83	51.6001	5,277.83	56.1003	5,277.83	54.3766	5,277.83	58.5739	5,277.83	59.732
5,463.87	83.1813	5,463.87	81.6755	5,463.87	82.5124	5,463.87	82.4068	5,463.87	82.1673	5,463.87	81.3168	5,463.87	81.6719	5,463.87	79.4338	5,463.87	81.992	5,463.87	77.4772	5,463.87	75.248	5,463.87	74.1928	5,463.87	69.2631	5,463.87	70.7295	5,463.87	70.0412	5,463.87	69.1999	5,463.87	71.374	5,463.87	63.9827	5,463.87	64.8686	5,463.87	64.5447	5,463.87	62.6591	5,463.87	61.2251	5,463.87	66.1606	5,463.87	61.4142	5,463.87	46.4201	5,463.87	59.3333	5,463.87	56.3173	5,463.87	57.6988	5,463.87	46.7853	5,463.87	54.3722	5,463.87	55.516	5,463.87	46.3812	5,463.87	45.5829	5,463.87	52.7768	5,463.87	56.9073	5,463.87	59.0266
5,657.23	83.3174	5,657.23	81.569	5,657.23	82.5862	5,657.23	82.3516	5,657.23	83.0114	5,657.23	81.2706	5,657.23	81.0973	5,657.23	79.592	5,657.23	80.6753	5,657.23	76.6298	5,657.23	75.9891	5,657.23	74.049	5,657.23	67.1825	5,657.23	71.366	5,657.23	71.5377	5,657.23	67.8537	5,657.23	70.4742	5,657.23	64.9258	5,657.23	65.8155	5,657.23	61.816	5,657.23	55.6165	5,657.23	58.8372	5,657.23	57.3008	5,657.23	61.2096	5,657.23	52.6546	5,657.23	53.6658	5,657.23	46.8941	5,657.23	57.0672	5,657.23	49.7362	5,657.23	55.2803	5,657.23	53.3963	5,657.23	52.2084	5,657.23	52.5575	5,657.23	55.096	5,657.23	56.2384	5,657.23	57.9349
5,856.45	83.0677	5,856.45	82.2181	5,856.45	82.1557	5,856.45	82.6695	5,856.45	82.3268	5,856.45	81.0811	5,856.45	79.9358	5,856.45	79.1056	5,856.45	79.5367	5,856.45	76.9677	5,856.45	76.1653	5,856.45	73.3049	5,856.45	67.1459	5,856.45	70.3787	5,856.45	73.5372	5,856.45	67.2947	5,856.45	70.615	5,856.45	63.8279	5,856.45	65.473	5,856.45	59.9199	5,856.45	57.425	5,856.45	58.0226	5,856.45	62.5976	5,856.45	54.9905	5,856.45	53.0265	5,856.45	58.6409	5,856.45	51.4836	5,856.45	57.5702	5,856.45	54.9859	5,856.45	53.6688	5,856.45	53.5703	5,856.45	56.1602	5,856.45	54.2934	5,856.45	44.0115	5,856.45	56.2498	5,856.45	56.6179
6,062.99	82.6776	6,062.99	82.4505	6,062.99	82.9326	6,062.99	82.0934	6,062.99	80.3795	6,062.99	81.811	6,062.99	79.8151	6,062.99	78.0934	6,062.99	78.3767	6,062.99	76.2158	6,062.99	75.2881	6,062.99	73.4849	6,062.99	68.7069	6,062.99	69.3253	6,062.99	74.2856	6,062.99	66.712	6,062.99	69.138	6,062.99	60.0153	6,062.99	67.5216	6,062.99	61.732	6,062.99	48.858	6,062.99	56.1459	6,062.99	59.3161	6,062.99	56.4741	6,062.99	54.1608	6,062.99	58.0693	6,062.99	51.2057	6,062.99	55.3203	6,062.99	56.0273	6,062.99	58.2948	6,062.99	51.7617	6,062.99	57.2474	6,062.99	55.9626	6,062.99	48.5943	6,062.99	54.8043	6,062.99	57.5521
6,276.86	82.4758	6,276.86	82.03	6,276.86	82.9629	6,276.86	81.9648	6,276.86	82.6021	6,276.86	81.0807	6,276.86	80.1739	6,276.86	78.0973	6,276.86	78.1344	6,276.86	75.3377	6,276.86	75.0562	6,276.86	72.305	6,276.86	70.1223	6,276.86	67.0199	6,276.86	74.1905	6,276.86	63.9358	6,276.86	64.616	6,276.86	61.5226	6,276.86	66.4332	6,276.86	55.3648	6,276.86	60.804	6,276.86	57.6442	6,276.86	58.6429	6,276.86	56.572	6,276.86	48.4626	6,276.86	53.5361	6,276.86	49.1882	6,276.86	57.3926	6,276.86	52.7398	6,276.86	55.7839	6,276.86	47.3823	6,276.86	55.8877	6,276.86	47.3448	6,276.86	52.2815	6,276.86	50.4684	6,276.86	55.4924
6,498.05	82.5149	6,498.05	82.7524	6,498.05	82.533	6,498.05	82.0622	6,498.05	81.8623	6,498.05	80.9159	6,498.05	80.9901	6,498.05	77.3988	6,498.05	76.8078	6,498.05	74.9093	6,498.05	75.7759	6,498.05	70.9467	6,498.05	68.7783	6,498.05	66.6621	6,498.05	73.1481	6,498.05	64.1616	6,498.05	66.7362	6,498.05	60.9291	6,498.05	66.6861	6,498.05	57.1038	6,498.05	58.08	6,498.05	56.8273	6,498.05	60.2303	6,498.05	54.3847	6,498.05	55.8315	6,498.05	56.3695	6,498.05	45.9448	6,498.05	56.91	6,498.05	55.2821	6,498.05	57.107	6,498.05	53.3192	6,498.05	58.3993	6,498.05	51.5617	6,498.05	49.8923	6,498.05	50.8993	6,498.05	55.1352
6,726.56	82.1575	6,726.56	82.047	6,726.56	82.4127	6,726.56	81.647	6,726.56	79.7253	6,726.56	80.4074	6,726.56	80.5852	6,726.56	77.0668	6,726.56	76.5224	6,726.56	74.3441	6,726.56	74.9291	6,726.56	71.332	6,726.56	70.5409	6,726.56	67.6794	6,726.56	71.433	6,726.56	63.9212	6,726.56	67.6505	6,726.56	62.362	6,726.56	67.0223	6,726.56	58.6333	6,726.56	37.6784	6,726.56	59.411	6,726.56	58.9531	6,726.56	53.9058	6,726.56	57.887	6,726.56	55.5474	6,726.56	50.7171	6,726.56	56.2076	6,726.56	47.1345	6,726.56	58.1724	6,726.56	50.2538	6,726.56	58.4714	6,726.56	54.8603	6,726.56	47.6022	6,726.56	53.984	6,726.56	55.6617
6,963.87	81.5602	6,963.87	81.6698	6,963.87	82.3608	6,963.87	80.5932	6,963.87	80.2859	6,963.87	79.5228	6,963.87	79.7302	6,963.87	77.6466	6,963.87	78.6991	6,963.87	74.148	6,963.87	76.5654	6,963.87	72.8099	6,963.87	71.2682	6,963.87	68.6124	6,963.87	68.7947	6,963.87	65.7432	6,963.87	72.0172	6,963.87	61.9199	6,963.87	70.5493	6,963.87	57.7504	6,963.87	58.882	6,963.87	55.8078	6,963.87	57.4248	6,963.87	58.1458	6,963.87	59.0281	6,963.87	55.2727	6,963.87	52.8098	6,963.87	55.4699	6,963.87	50.7635	6,963.87	60.0511	6,963.87	51.0819	6,963.87	59.1294	6,963.87	55.4672	6,963.87	36.7566	6,963.87	51.2093	6,963.87	54.4188
7,209.96	82.8549	7,209.96	82.5783	7,209.96	82.4769	7,209.96	81.4645	7,209.96	81.4192	7,209.96	80.0053	7,209.96	79.0104	7,209.96	77.5069	7,209.96	80.9807	7,209.96	75.8408	7,209.96	77.9463	7,209.96	72.8555	7,209.96	71.7192	7,209.96	69.7428	7,209.96	70.47	7,209.96	65.8313	7,209.96	72.4517	7,209.96	63.4991	7,209.96	68.0946	7,209.96	59.8591	7,209.96	54.5176	7,209.96	59.0662	7,209.96	55.9564	7,209.96	54.2444	7,209.96	57.9971	7,209.96	55.0593	7,209.96	59.1477	7,209.96	56.9699	7,209.96	52.4203	7,209.96	58.6444	7,209.96	52.0005	7,209.96	52.6292	7,209.96	52.4637	7,209.96	54.1497	7,209.96	53.174	7,209.96	53.8034
7,464.84	85.0051	7,464.84	84.7754	7,464.84	84.4705	7,464.84	83.2865	7,464.84	82.9307	7,464.84	81.2642	7,464.84	80.2933	7,464.84	78.2164	7,464.84	78.4404	7,464.84	74.894	7,464.84	75.2609	7,464.84	70.9535	7,464.84	71.1984	7,464.84	67.3382	7,464.84	66.2637	7,464.84	63.6617	7,464.84	65.06	7,464.84	57.8735	7,464.84	60.8321	7,464.84	57.444	7,464.84	54.0763	7,464.84	46.5265	7,464.84	41.9775	7,464.84	54.8534	7,464.84	50.3154	7,464.84	49.86	7,464.84	55.3368	7,464.84	47.3741	7,464.84	52.7924	7,464.84	53.5931	7,464.84	50.7692	7,464.84	44.0995	7,464.84	54.2506	7,464.84	55.2508	7,464.84	56.6167	7,464.84	54.4747
7,727.05	86.2564	7,727.05	86.0808	7,727.05	85.5113	7,727.05	84.3783	7,727.05	83.1475	7,727.05	81.8705	7,727.05	80.2974	7,727.05	76.9744	7,727.05	74.7312	7,727.05	73.147	7,727.05	72.2466	7,727.05	67.4999	7,727.05	64.3951	7,727.05	59.8167	7,727.05	56.853	7,727.05	53.6052	7,727.05	56.3189	7,727.05	47.105	7,727.05	43.416	7,727.05	45.6124	7,727.05	45.7743	7,727.05	52.9865	7,727.05	52.7753	7,727.05	51.1378	7,727.05	47.8131	7,727.05	22.7516	7,727.05	47.3229	7,727.05	47.1967	7,727.05	52.0224	7,727.05	44.6872	7,727.05	52.2811	7,727.05	53.9104	7,727.05	53.8651	7,727.05	56.4738	7,727.05	54.35	7,727.05	54.7408
7,999.51	85.7335	7,999.51	85.3992	7,999.51	85.3954	7,999.51	83.8953	7,999.51	83.0978	7,999.51	80.353	7,999.51	78.873	7,999.51	75.0517	7,999.51	73.5288	7,999.51	67.4288	7,999.51	69.2601	7,999.51	55.7863	7,999.51	48.3716	7,999.51	58.2042	7,999.51	54.6789	7,999.51	53.1695	7,999.51	54.8762	7,999.51	57.1126	7,999.51	48.4174	7,999.51	52.2314	7,999.51	46.5465	7,999.51	48.416	7,999.51	47.6284	7,999.51	46.028	7,999.51	45.2408	7,999.51	40.535	7,999.51	44.2622	7,999.51	43.2672	7,999.51	51.0896	7,999.51	30.6099	7,999.51	50.8248	7,999.51	51.6992	7,999.51	51.481	7,999.51	57.0795	7,999.51	52.6273	7,999.51	51.6905
8,282.23	85.2639	8,282.23	85.1676	8,282.23	84.4668	8,282.23	83.1716	8,282.23	82.3468	8,282.23	79.8344	8,282.23	77.9229	8,282.23	73.2629	8,282.23	73.0688	8,282.23	64.3598	8,282.23	69.8804	8,282.23	60.0117	8,282.23	66.047	8,282.23	59.9374	8,282.23	54.7947	8,282.23	59.5409	8,282.23	60.3002	8,282.23	55.577	8,282.23	57.048	8,282.23	56.1377	8,282.23	55.6575	8,282.23	54.2209	8,282.23	44.0971	8,282.23	51.3539	8,282.23	51.4159	8,282.23	53.4045	8,282.23	33.5855	8,282.23	50.2428	8,282.23	48.1254	8,282.23	46.5387	8,282.23	46.9296	8,282.23	55.0727	8,282.23	46.6724	8,282.23	56.9438	8,282.23	52.3632	8,282.23	52.0184
8,573.73	84.8333	8,573.73	84.2511	8,573.73	84.5466	8,573.73	81.7114	8,573.73	81.9775	8,573.73	78.527	8,573.73	79.449	8,573.73	71.705	8,573.73	76.8262	8,573.73	63.4025	8,573.73	72.3369	8,573.73	63.5394	8,573.73	65.2548	8,573.73	62.258	8,573.73	52.5251	8,573.73	61.7633	8,573.73	66.6314	8,573.73	57.229	8,573.73	60.0704	8,573.73	55.905	8,573.73	58.9753	8,573.73	52.568	8,573.73	54.0304	8,573.73	55.7957	8,573.73	48.1457	8,573.73	45.9809	8,573.73	23.6652	8,573.73	48.9234	8,573.73	44.6953	8,573.73	50.3499	8,573.73	37.098	8,573.73	54.5363	8,573.73	47.8753	8,573.73	55.3924	8,573.73	50.7073	8,573.73	46.0196
8,876.95	84.6975	8,876.95	83.7316	8,876.95	83.6302	8,876.95	81.057	8,876.95	81.5715	8,876.95	77.3666	8,876.95	79.0768	8,876.95	71.66	8,876.95	75.8901	8,876.95	67.4266	8,876.95	71.089	8,876.95	67.2416	8,876.95	64.9783	8,876.95	64.3277	8,876.95	56.3178	8,876.95	59.4662	8,876.95	67.7195	8,876.95	59.4562	8,876.95	61.4072	8,876.95	53.4731	8,876.95	54.3062	8,876.95	55.68	8,876.95	40.2867	8,876.95	37.5909	8,876.95	44.6669	8,876.95	52.8965	8,876.95	41.9325	8,876.95	51.0342	8,876.95	45.9624	8,876.95	51.7833	8,876.95	47.1315	8,876.95	53.8949	8,876.95	41.8862	8,876.95	54.0413	8,876.95	52.5204	8,876.95	47.6853
9,188.96	83.5289	9,188.96	82.8619	9,188.96	83.1451	9,188.96	80.1787	9,188.96	80.6642	9,188.96	76.933	9,188.96	77.2456	9,188.96	73.2827	9,188.96	74.8591	9,188.96	70.2843	9,188.96	69.3715	9,188.96	67.7533	9,188.96	63.4549	9,188.96	62.8738	9,188.96	62.7954	9,188.96	60.6714	9,188.96	63.3443	9,188.96	50.9309	9,188.96	56.0163	9,188.96	54.1814	9,188.96	57.0452	9,188.96	54.7953	9,188.96	48.5648	9,188.96	54.7094	9,188.96	41.8904	9,188.96	48.7037	9,188.96	43.1614	9,188.96	43.3228	9,188.96	48.7009	9,188.96	49.1068	9,188.96	41.7953	9,188.96	51.5854	9,188.96	49.5886	9,188.96	53.342	9,188.96	51.2689	9,188.96	43.905
9,514.16	83.3659	9,514.16	82.609	9,514.16	82.4161	9,514.16	80.1011	9,514.16	80.6828	9,514.16	77.3027	9,514.16	77.8211	9,514.16	73.5779	9,514.16	74.0716	9,514.16	69.4013	9,514.16	67.7015	9,514.16	65.6052	9,514.16	64.6368	9,514.16	57.6955	9,514.16	58.0834	9,514.16	47.9057	9,514.16	57.8487	9,514.16	52.961	9,514.16	54.1173	9,514.16	46.5249	9,514.16	35.9533	9,514.16	53.0463	9,514.16	48.2731	9,514.16	37.7985	9,514.16	41.2615	9,514.16	50.6789	9,514.16	41.2653	9,514.16	46.7289	9,514.16	49.8401	9,514.16	47.1724	9,514.16	43.8136	9,514.16	47.0466	9,514.16	45.8471	9,514.16	50.0216	9,514.16	51.2004	9,514.16	41.8102
9,849.61	83.7204	9,849.61	82.9649	9,849.61	83.1375	9,849.61	80.427	9,849.61	80.9457	9,849.61	76.7803	9,849.61	78.2504	9,849.61	71.13	9,849.61	72.3458	9,849.61	63.3617	9,849.61	64.5661	9,849.61	56.3876	9,849.61	58.793	9,849.61	50.399	9,849.61	51.5725	9,849.61	40.3278	9,849.61	43.7193	9,849.61	53.9449	9,849.61	39.6269	9,849.61	36.5444	9,849.61	50.0829	9,849.61	53.7665	9,849.61	46.2267	9,849.61	48.5429	9,849.61	39.2248	9,849.61	39.1929	9,849.61	38.517	9,849.61	45.6011	9,849.61	35.1001	9,849.61	43.2445	9,849.61	42.9745	9,849.61	40.3513	9,849.61	48.681	9,849.61	48.8442	9,849.61	48.4765	9,849.61	46.3874
10,196.8	84.4716	10,196.8	83.1408	10,196.8	83.5078	10,196.8	80.0878	10,196.8	81.0198	10,196.8	75.7913	10,196.8	77.6155	10,196.8	69.4466	10,196.8	70.5228	10,196.8	61.3614	10,196.8	56.7337	10,196.8	50.18	10,196.8	51.652	10,196.8	55.2283	10,196.8	55.9205	10,196.8	57.5486	10,196.8	55.8468	10,196.8	49.8726	10,196.8	52.6061	10,196.8	51.8372	10,196.8	51.9271	10,196.8	48.4178	10,196.8	49.5868	10,196.8	50.2967	10,196.8	37.0909	10,196.8	50.2915	10,196.8	41.7583	10,196.8	46.8222	10,196.8	42.9554	10,196.8	42.3374	10,196.8	38.5753	10,196.8	42.6437	10,196.8	43.9352	10,196.8	49.6606	10,196.8	48.0382	10,196.8	47.259
10,555.7	84.2733	10,555.7	83.1991	10,555.7	83.2557	10,555.7	80.2062	10,555.7	80.1589	10,555.7	76.093	10,555.7	76.2576	10,555.7	70.817	10,555.7	68.9377	10,555.7	61.9367	10,555.7	57.5441	10,555.7	57.4353	10,555.7	58.4815	10,555.7	60.2521	10,555.7	62.4837	10,555.7	59.23	10,555.7	59.4872	10,555.7	56.134	10,555.7	57.0836	10,555.7	54.7427	10,555.7	52.9206	10,555.7	52.4444	10,555.7	45.8567	10,555.7	46.9848	10,555.7	36.3182	10,555.7	49.959	10,555.7	40.749	10,555.7	51.1246	10,555.7	29.948	10,555.7	49.8916	10,555.7	38.2823	10,555.7	46.3164	10,555.7	37.5494	10,555.7	51.9007	10,555.7	49.7875	10,555.7	47.5889
10,927.7	83.693	10,927.7	82.6855	10,927.7	82.2287	10,927.7	79.8011	10,927.7	78.5877	10,927.7	76.4039	10,927.7	74.8761	10,927.7	71.4643	10,927.7	68.5044	10,927.7	61.5494	10,927.7	66.9234	10,927.7	61.6794	10,927.7	62.1552	10,927.7	61.8537	10,927.7	66.3325	10,927.7	59.6892	10,927.7	60.1097	10,927.7	57.3561	10,927.7	54.832	10,927.7	49.6783	10,927.7	55.242	10,927.7	53.2365	10,927.7	40.6768	10,927.7	51.6112	10,927.7	43.042	10,927.7	50.7397	10,927.7	43.8755	10,927.7	50.6886	10,927.7	38.5329	10,927.7	50.1141	10,927.7	42.8093	10,927.7	44.5163	10,927.7	41.5887	10,927.7	53.144	10,927.7	48.0429	10,927.7	47.752
11,313	82.8298	11,313	82.2518	11,313	81.5784	11,313	79.3026	11,313	78.3965	11,313	76.2161	11,313	74.1768	11,313	70.874	11,313	71.5336	11,313	60.4383	11,313	66.3822	11,313	60.9572	11,313	60.9173	11,313	59.4635	11,313	64.1356	11,313	55.9419	11,313	52.519	11,313	50.7773	11,313	54.0131	11,313	49.379	11,313	54.42	11,313	49.4785	11,313	43.4729	11,313	41.9129	11,313	45.3485	11,313	48.8362	11,313	43.4415	11,313	48.8856	11,313	33.6313	11,313	47.4698	11,313	41.054	11,313	43.8016	11,313	36.9721	11,313	51.042	11,313	45.7597	11,313	41.8697
11,712.9	82.2866	11,712.9	81.9024	11,712.9	81.3818	11,712.9	79.3308	11,712.9	78.586	11,712.9	76.3001	11,712.9	74.5183	11,712.9	70.2206	11,712.9	70.471	11,712.9	57.201	11,712.9	64.8851	11,712.9	52.1932	11,712.9	59.0997	11,712.9	55.2154	11,712.9	57.6644	11,712.9	50.3529	11,712.9	51.0275	11,712.9	50.1032	11,712.9	50.8141	11,712.9	52.0329	11,712.9	49.1568	11,712.9	52.2779	11,712.9	32.407	11,712.9	46.2349	11,712.9	42.939	11,712.9	45.5256	11,712.9	40.8797	11,712.9	41.6257	11,712.9	36.3446	11,712.9	39.1392	11,712.9	42.3905	11,712.9	18.8825	11,712.9	33.4449	11,712.9	44.9676	11,712.9	43.425	11,712.9	41.01
12,126	82.487	12,126	82.037	12,126	81.3201	12,126	79.5847	12,126	78.4616	12,126	76.2314	12,126	74.3976	12,126	68.9984	12,126	67.5683	12,126	48.3811	12,126	59.9936	12,126	56.4177	12,126	53.0263	12,126	58.2993	12,126	50.9773	12,126	56.1452	12,126	48.4738	12,126	53.5892	12,126	38.965	12,126	53.1059	12,126	40.2068	12,126	48.9169	12,126	32.7019	12,126	46.324	12,126	39.2369	12,126	47.1334	12,126	29.9091	12,126	45.7676	12,126	30.289	12,126	44.409	12,126	33.8818	12,126	36.8954	12,126	25.5486	12,126	42.4805	12,126	36.9944	12,126	42.2187
12,553.7	82.8564	12,553.7	82.7257	12,553.7	81.3324	12,553.7	79.7485	12,553.7	78.2972	12,553.7	75.5497	12,553.7	73.6058	12,553.7	66.9266	12,553.7	65.12	12,553.7	57.4317	12,553.7	46.0234	12,553.7	64.1113	12,553.7	50.1819	12,553.7	63.1761	12,553.7	51.8852	12,553.7	59.9765	12,553.7	42.0255	12,553.7	56.2451	12,553.7	43.2282	12,553.7	46.9322	12,553.7	37.4391	12,553.7	47.702	12,553.7	33.9822	12,553.7	44.2502	12,553.7	35.1241	12,553.7	48.666	12,553.7	33.9216	12,553.7	47.672	12,553.7	38.184	12,553.7	47.2889	12,553.7	36.3383	12,553.7	38.6601	12,553.7	39.0693	12,553.7	44.746	12,553.7	37.1138	12,553.7	39.5882
12,996.1	83.1818	12,996.1	83.0402	12,996.1	81.4936	12,996.1	79.467	12,996.1	77.9236	12,996.1	74.4299	12,996.1	72.9382	12,996.1	62.7474	12,996.1	61.2221	12,996.1	62.5364	12,996.1	54.0253	12,996.1	67.0702	12,996.1	61.0308	12,996.1	64.4997	12,996.1	58.3098	12,996.1	61.3111	12,996.1	52.8155	12,996.1	57.8441	12,996.1	47.5778	12,996.1	54.5583	12,996.1	49.4011	12,996.1	53.1014	12,996.1	25.6637	12,996.1	48.4214	12,996.1	40.1532	12,996.1	49.4552	12,996.1	40.0216	12,996.1	47.0536	12,996.1	42.5514	12,996.1	47.0456	12,996.1	42.3678	12,996.1	39.2965	12,996.1	40.7174	12,996.1	46.8059	12,996.1	39.2054	12,996.1	39.6973
13,454.6	83.2025	13,454.6	82.8044	13,454.6	81.6868	13,454.6	79.3288	13,454.6	77.9412	13,454.6	72.9897	13,454.6	71.3027	13,454.6	56.9262	13,454.6	56.4884	13,454.6	64.8037	13,454.6	56.7182	13,454.6	67.359	13,454.6	64.886	13,454.6	64.2633	13,454.6	58.5083	13,454.6	60.9312	13,454.6	54.3828	13,454.6	57.9647	13,454.6	46.6156	13,454.6	55.698	13,454.6	49.7203	13,454.6	45.1666	13,454.6	46.7853	13,454.6	47.9965	13,454.6	38.6462	13,454.6	50.1848	13,454.6	38.8401	13,454.6	46.6928	13,454.6	36.7474	13,454.6	48.5067	13,454.6	38.6666	13,454.6	40.2563	13,454.6	40.9886	13,454.6	45.77	13,454.6	38.6837	13,454.6	36.758
13,929.2	82.8675	13,929.2	82.4949	13,929.2	81.5409	13,929.2	79.2397	13,929.2	77.4631	13,929.2	71.6489	13,929.2	67.9974	13,929.2	51.8265	13,929.2	49.6928	13,929.2	64.9784	13,929.2	58.6117	13,929.2	67.0584	13,929.2	63.9476	13,929.2	63.7272	13,929.2	57.6703	13,929.2	60.0525	13,929.2	52.6987	13,929.2	55.9016	13,929.2	47.102	13,929.2	50.8615	13,929.2	46.4229	13,929.2	47.5351	13,929.2	45.1316	13,929.2	44.7269	13,929.2	37.5805	13,929.2	47.9366	13,929.2	33.2254	13,929.2	45.6846	13,929.2	37.1428	13,929.2	46.6086	13,929.2	39.8582	13,929.2	38.9183	13,929.2	40.8248	13,929.2	43.604	13,929.2	38.3073	13,929.2	38.2765
14,419.9	82.4081	14,419.9	81.7369	14,419.9	81.2601	14,419.9	78.4214	14,419.9	76.8494	14,419.9	69.4252	14,419.9	66.6378	14,419.9	55.8709	14,419.9	46.7717	14,419.9	64.8663	14,419.9	59.5597	14,419.9	66.1395	14,419.9	62.5062	14,419.9	62.681	14,419.9	54.9731	14,419.9	58.8413	14,419.9	49.0919	14,419.9	53.3319	14,419.9	43.0622	14,419.9	47.4226	14,419.9	42.9711	14,419.9	48.9939	14,419.9	44.0361	14,419.9	44.7084	14,419.9	31.3381	14,419.9	45.7214	14,419.9	35.5032	14,419.9	42.0803	14,419.9	34.9475	14,419.9	43.3008	14,419.9	34.9076	14,419.9	33.4797	14,419.9	37.6975	14,419.9	39.4425	14,419.9	33.6287	14,419.9	35.1223
14,928.2	81.9534	14,928.2	80.7134	14,928.2	80.9108	14,928.2	77.2774	14,928.2	76.0403	14,928.2	66.1308	14,928.2	63.3849	14,928.2	58.2504	14,928.2	54.8697	14,928.2	62.6109	14,928.2	63.4786	14,928.2	63.3876	14,928.2	64.1221	14,928.2	59.4352	14,928.2	56.0265	14,928.2	56.0805	14,928.2	52.4499	14,928.2	48.4718	14,928.2	42.5115	14,928.2	44.0047	14,928.2	45.488	14,928.2	42.6785	14,928.2	48.922	14,928.2	41.7869	14,928.2	33.7378	14,928.2	42.8615	14,928.2	34.7239	14,928.2	37.0454	14,928.2	31.6799	14,928.2	38.47	14,928.2	32.0108	14,928.2	29.0886	14,928.2	28.137	14,928.2	32.6514	14,928.2	27.0405	14,928.2	25.433
15,455.6	81.4865	15,455.6	80.3916	15,455.6	80.5419	15,455.6	76.454	15,455.6	75.529	15,455.6	63.3988	15,455.6	64.72	15,455.6	60.3453	15,455.6	59.1172	15,455.6	62.4217	15,455.6	65.0577	15,455.6	62.4033	15,455.6	65.0117	15,455.6	58.0235	15,455.6	59.4193	15,455.6	52.0109	15,455.6	56.6711	15,455.6	43.6946	15,455.6	47.5397	15,455.6	32.2908	15,455.6	49.6283	15,455.6	36.0144	15,455.6	51.528	15,455.6	27.3523	15,455.6	31.2155	15,455.6	31.5584	15,455.6	33.3159	15,455.6	30.1048	15,455.6	19.6896	15,455.6	36.3395	15,455.6	16.7403	15,455.6	21.4795	15,455.6	23.0237	15,455.6	23.2584	15,455.6	29.3805	15,455.6	26.4969
16,000.5	81.0681	16,000.5	80.2218	16,000.5	80.0558	16,000.5	75.2697	16,000.5	74.6121	16,000.5	58.5157	16,000.5	61.8066	16,000.5	62.4658	16,000.5	59.8169	16,000.5	63.6838	16,000.5	65.2804	16,000.5	61.9829	16,000.5	64.2471	16,000.5	53.5244	16,000.5	56.5454	16,000.5	41.6959	16,000.5	57.1014	16,000.5	23.6243	16,000.5	46.4211	16,000.5	33.7552	16,000.5	49.4183	16,000.5	35.5492	16,000.5	49.3737	16,000.5	32.5026	16,000.5	32.2048	16,000.5	29.8589	16,000.5	29.4379	16,000.5	19.2117	16,000.5	28.0606	16,000.5	26.4506	16,000.5	32.6933	16,000.5	18.2452	16,000.5	32.3682	16,000.5	20.472	16,000.5	33.3859	16,000.5	33.1646
16,564.5	80.9927	16,564.5	80.1113	16,564.5	79.7342	16,564.5	74.3329	16,564.5	73.7907	16,564.5	51.0659	16,564.5	58.1291	16,564.5	63.9239	16,564.5	62.3446	16,564.5	64.2307	16,564.5	63.6377	16,564.5	60.4662	16,564.5	60.6194	16,564.5	37.5077	16,564.5	58.9165	16,564.5	42.9987	16,564.5	53.4514	16,564.5	40.521	16,564.5	40.4857	16,564.5	38.3421	16,564.5	49.1277	16,564.5	33.2104	16,564.5	50.3277	16,564.5	33.1626	16,564.5	38.0709	16,564.5	34.3427	16,564.5	24.0251	16,564.5	25.7548	16,564.5	26.3661	16,564.5	25.7476	16,564.5	29.7597	16,564.5	29.9157	16,564.5	27.7309	16,564.5	31.2013	16,564.5	33.1922	16,564.5	32.3909
17,148.9	81.1316	17,148.9	79.9806	17,148.9	79.3726	17,148.9	73.4158	17,148.9	73.3514	17,148.9	42.9155	17,148.9	55.2552	17,148.9	64.5487	17,148.9	62.2832	17,148.9	63.4902	17,148.9	61.6151	17,148.9	54.0372	17,148.9	58.2319	17,148.9	47.191	17,148.9	59.4721	17,148.9	42.859	17,148.9	53.3983	17,148.9	42.8375	17,148.9	38.1919	17,148.9	34.6966	17,148.9	45.8999	17,148.9	36.7602	17,148.9	49.0704	17,148.9	35.8415	17,148.9	35.3628	17,148.9	34.6865	17,148.9	6.50925	17,148.9	32.3328	17,148.9	15.3899	17,148.9	32.53	17,148.9	33.4997	17,148.9	29.5708	17,148.9	30.8877	17,148.9	33.5388	17,148.9	26.9088	17,148.9	30.6501
17,752.4	80.8546	17,752.4	79.2655	17,752.4	78.8644	17,752.4	72.3921	17,752.4	72.3661	17,752.4	47.5932	17,752.4	49.0178	17,752.4	63.9591	17,752.4	63.9225	17,752.4	60.0979	17,752.4	61.0256	17,752.4	48.9566	17,752.4	58.0644	17,752.4	53.0893	17,752.4	52.007	17,752.4	47.6511	17,752.4	52.8378	17,752.4	46.5784	17,752.4	31.9539	17,752.4	37.9869	17,752.4	44.6517	17,752.4	42.4641	17,752.4	52.0465	17,752.4	39.2099	17,752.4	33.9507	17,752.4	37.2195	17,752.4	18.1441	17,752.4	31.9313	17,752.4	22.437	17,752.4	35.279	17,752.4	32.5283	17,752.4	33.0343	17,752.4	26.817	17,752.4	36.0759	17,752.4	27.6646	17,752.4	28.0061
18,379.4	80.283	18,379.4	78.3045	18,379.4	78.0185	18,379.4	71.4358	18,379.4	71.0806	18,379.4	38.2834	18,379.4	48.8014	18,379.4	62.2736	18,379.4	61.7483	18,379.4	57.8535	18,379.4	60.0581	18,379.4	52.0644	18,379.4	56.201	18,379.4	53.2182	18,379.4	51.1353	18,379.4	49.4983	18,379.4	45.4821	18,379.4	45.2831	18,379.4	17.3015	18,379.4	37.2508	18,379.4	43.1986	18,379.4	41.0007	18,379.4	50.2615	18,379.4	36.4728	18,379.4	33.5297	18,379.4	33.2415	18,379.4	23.5456	18,379.4	25.5134	18,379.4	22.2606	18,379.4	30.8433	18,379.4	20.1349	18,379.4	32.431	18,379.4	21.09	18,379.4	34.9192	18,379.4	25.7426	18,379.4	25.8227
19,026.9	79.6439	19,026.9	77.4347	19,026.9	77.3101	19,026.9	69.7411	19,026.9	68.9286	19,026.9	54.3587	19,026.9	57.1343	19,026.9	60.8106	19,026.9	61.158	19,026.9	56.3449	19,026.9	58.9338	19,026.9	52.7067	19,026.9	50.9004	19,026.9	51.5041	19,026.9	42.3984	19,026.9	46.2027	19,026.9	37.3888	19,026.9	41.9997	19,026.9	29.5867	19,026.9	33.1334	19,026.9	40.7918	19,026.9	37.9091	19,026.9	48.8286	19,026.9	31.728	19,026.9	32.1131	19,026.9	32.1851	19,026.9	23.7962	19,026.9	21.2584	19,026.9	17.1008	19,026.9	27.8402	19,026.9	22.6987	19,026.9	29.3035	19,026.9	26.7207	19,026.9	32.4149	19,026.9	17.9284	19,026.9	19.3963
19,697.8	79.0273	19,697.8	76.8125	19,697.8	76.5567	19,697.8	67.4774	19,697.8	66.2223	19,697.8	58.9625	19,697.8	59.3144	19,697.8	61.9318	19,697.8	61.8584	19,697.8	54.8752	19,697.8	57.7282	19,697.8	50.8767	19,697.8	42.6921	19,697.8	47.17	19,697.8	45.274	19,697.8	40.3537	19,697.8	39.6912	19,697.8	37.0129	19,697.8	37.8263	19,697.8	30.5075	19,697.8	41.8742	19,697.8	33.225	19,697.8	49.3437	19,697.8	26.8451	19,697.8	29.4969	19,697.8	32.4071	19,697.8	16.7703	19,697.8	19.8388	19,697.8	21.2695	19,697.8	24.7325	19,697.8	23.6655	19,697.8	30.2802	19,697.8	30.9369	19,697.8	28.5187	19,697.8	8.03825	19,697.8	19.2169
19,999.5	78.8508	19,999.5	76.5666	19,999.5	76.423	19,999.5	66.5225	19,999.5	64.5966	19,999.5	61.4414	19,999.5	60.6686	19,999.5	62.9201	19,999.5	61.0314	19,999.5	52.9987	19,999.5	58.0334	19,999.5	45.3497	19,999.5	45.4603	19,999.5	42.8411	19,999.5	52.8676	19,999.5	29.2132	19,999.5	38.4203	19,999.5	34.6882	19,999.5	42.402	19,999.5	34.4361	19,999.5	47.0936	19,999.5	33.7388	19,999.5	51.1328	19,999.5	35.9256	19,999.5	32.9492	19,999.5	42.6651	19,999.5	39.8899	19,999.5	38.3349	19,999.5	42.1062	19,999.5	38.5183	19,999.5	46.4257	19,999.5	35.3524	19,999.5	40.202	19,999.5	30.6593	19,999.5	32.4904	19,999.5	34.8278
