"SPL Horizontal"
"On-Axis"		"10°"		"-10°"		"20°"		"-20°"		"30°"		"-30°"		"40°"		"-40°"		"50°"		"-50°"		"60°"		"-60°"		"70°"		"-70°"		"80°"		"-80°"		"90°"		"-90°"		"100°"		"-100°"		"110°"		"-110°"		"120°"		"-120°"		"130°"		"-130°"		"140°"		"-140°"		"150°"		"-150°"		"160°"		"-160°"		"170°"		"-170°"		"180°"
"Frequency [Hz]"	"Sound Pessure Level [dB]  / [2.83V 1m] "	"Frequency [Hz]"	"Sound Pessure Level [dB]  / [2.83V 1m] "	"Frequency [Hz]"	"Sound Pessure Level [dB]  / [2.83V 1m] "	"Frequency [Hz]"	"Sound Pessure Level [dB]  / [2.83V 1m] "	"Frequency [Hz]"	"Sound Pessure Level [dB]  / [2.83V 1m] "	"Frequency [Hz]"	"Sound Pessure Level [dB]  / [2.83V 1m] "	"Frequency [Hz]"	"Sound Pessure Level [dB]  / [2.83V 1m] "	"Frequency [Hz]"	"Sound Pessure Level [dB]  / [2.83V 1m] "	"Frequency [Hz]"	"Sound Pessure Level [dB]  / [2.83V 1m] "	"Frequency [Hz]"	"Sound Pessure Level [dB]  / [2.83V 1m] "	"Frequency [Hz]"	"Sound Pessure Level [dB]  / [2.83V 1m] "	"Frequency [Hz]"	"Sound Pessure Level [dB]  / [2.83V 1m] "	"Frequency [Hz]"	"Sound Pessure Level [dB]  / [2.83V 1m] "	"Frequency [Hz]"	"Sound Pessure Level [dB]  / [2.83V 1m] "	"Frequency [Hz]"	"Sound Pessure Level [dB]  / [2.83V 1m] "	"Frequency [Hz]"	"Sound Pessure Level [dB]  / [2.83V 1m] "	"Frequency [Hz]"	"Sound Pessure Level [dB]  / [2.83V 1m] "	"Frequency [Hz]"	"Sound Pessure Level [dB]  / [2.83V 1m] "	"Frequency [Hz]"	"Sound Pessure Level [dB]  / [2.83V 1m] "	"Frequency [Hz]"	"Sound Pessure Level [dB]  / [2.83V 1m] "	"Frequency [Hz]"	"Sound Pessure Level [dB]  / [2.83V 1m] "	"Frequency [Hz]"	"Sound Pessure Level [dB]  / [2.83V 1m] "	"Frequency [Hz]"	"Sound Pessure Level [dB]  / [2.83V 1m] "	"Frequency [Hz]"	"Sound Pessure Level [dB]  / [2.83V 1m] "	"Frequency [Hz]"	"Sound Pessure Level [dB]  / [2.83V 1m] "	"Frequency [Hz]"	"Sound Pessure Level [dB]  / [2.83V 1m] "	"Frequency [Hz]"	"Sound Pessure Level [dB]  / [2.83V 1m] "	"Frequency [Hz]"	"Sound Pessure Level [dB]  / [2.83V 1m] "	"Frequency [Hz]"	"Sound Pessure Level [dB]  / [2.83V 1m] "	"Frequency [Hz]"	"Sound Pessure Level [dB]  / [2.83V 1m] "	"Frequency [Hz]"	"Sound Pessure Level [dB]  / [2.83V 1m] "	"Frequency [Hz]"	"Sound Pessure Level [dB]  / [2.83V 1m] "	"Frequency [Hz]"	"Sound Pessure Level [dB]  / [2.83V 1m] "	"Frequency [Hz]"	"Sound Pessure Level [dB]  / [2.83V 1m] "	"Frequency [Hz]"	"Sound Pessure Level [dB]  / [2.83V 1m] "	"Frequency [Hz]"	"Sound Pessure Level [dB]  / [2.83V 1m] "
20.5078	61.717	20.5078	61.7319	20.5078	61.7146	20.5078	61.7656	20.5078	61.7276	20.5078	61.8333	20.5078	61.7674	20.5078	61.9585	20.5078	61.8532	20.5078	62.1692	20.5078	62.0092	20.5078	62.4921	20.5078	62.2616	20.5078	62.9445	20.5078	62.6313	20.5078	63.5277	20.5078	63.1277	20.5078	64.2239	20.5078	63.7436	20.5078	64.999	20.5078	64.4548	20.5078	65.809	20.5078	65.2261	20.5078	66.607	20.5078	66.0169	20.5078	67.3487	20.5078	66.7866	20.5078	67.9956	20.5078	67.4967	20.5078	68.5154	20.5078	68.1116	20.5078	68.8828	20.5078	68.5994	20.5078	69.0801	20.5078	68.9341	20.5078	69.0974
21.9727	65.0323	21.9727	65.0533	21.9727	65.0368	21.9727	65.1039	21.9727	65.0683	21.9727	65.1931	21.9727	65.1334	21.9727	65.3351	21.9727	65.2432	21.9727	65.5467	21.9727	65.4123	21.9727	65.8452	21.9727	65.656	21.9727	66.243	21.9727	65.987	21.9727	66.7427	21.9727	66.4116	21.9727	67.334	21.9727	66.9263	21.9727	67.9935	21.9727	67.517	21.9727	68.6876	21.9727	68.1607	21.9727	69.3776	21.9727	68.8279	21.9727	70.0239	21.9727	69.4858	21.9727	70.5899	21.9727	70.1005	21.9727	71.0439	21.9727	70.6395	21.9727	71.3615	21.9727	71.073	21.9727	71.5263	21.9727	71.3761	21.9727	71.5307
23.4375	67.0868	23.4375	67.1321	23.4375	67.0763	23.4375	67.2147	23.4375	67.1021	23.4375	67.341	23.4375	67.1699	23.4375	67.5207	23.4375	67.2882	23.4375	67.7652	23.4375	67.4682	23.4375	68.085	23.4375	67.7206	23.4375	68.4867	23.4375	68.0542	23.4375	68.9697	23.4375	68.4721	23.4375	69.5242	23.4375	68.9697	23.4375	70.1309	23.4375	69.5338	23.4375	70.763	23.4375	70.1436	23.4375	71.3889	23.4375	70.7727	23.4375	71.9752	23.4375	71.3917	23.4375	72.4893	23.4375	71.9701	23.4375	72.902	23.4375	72.4786	23.4375	73.1895	23.4375	72.8896	23.4375	73.3354	23.4375	73.1798	23.4375	73.3317
24.9023	69.3233	24.9023	69.3637	24.9023	69.32	24.9023	69.4434	24.9023	69.3547	24.9023	69.5679	24.9023	69.4316	24.9023	69.745	24.9023	69.5571	24.9023	69.9831	24.9023	69.7388	24.9023	70.2895	24.9023	69.9841	24.9023	70.6679	24.9023	70.2982	24.9023	71.1162	24.9023	70.6828	24.9023	71.6254	24.9023	71.1339	24.9023	72.1794	24.9023	71.642	24.9023	72.7558	24.9023	72.191	24.9023	73.3275	24.9023	72.7597	24.9023	73.8652	24.9023	73.3229	24.9023	74.3388	24.9023	73.853	24.9023	74.7205	24.9023	74.322	24.9023	74.9869	24.9023	74.7036	24.9023	75.1218	24.9023	74.9745	24.9023	75.1173
26.3672	71.2909	26.3672	71.3257	26.3672	71.2933	26.3672	71.3997	26.3672	71.333	26.3672	71.5171	26.3672	71.4122	26.3672	71.6831	26.3672	71.5349	26.3672	71.9036	26.3672	71.706	26.3672	72.1831	26.3672	71.9304	26.3672	72.5233	26.3672	72.2118	26.3672	72.9221	26.3672	72.5516	26.3672	73.3723	26.3672	72.9475	26.3672	73.8614	26.3672	73.3923	26.3672	74.3713	26.3672	73.8738	26.3672	74.8797	26.3672	74.3747	26.3672	75.3604	26.3672	74.8737	26.3672	75.7863	26.3672	75.3465	26.3672	76.1309	26.3672	75.7676	26.3672	76.3722	26.3672	76.1123	26.3672	76.4941	26.3672	76.3585	26.3672	76.4891
27.832	73.2107	27.832	73.2473	27.832	73.2058	27.832	73.3169	27.832	73.2331	27.832	73.4222	27.832	73.2947	27.832	73.5673	27.832	73.3942	27.832	73.7567	27.832	73.5358	27.832	73.9943	27.832	73.7241	27.832	74.2828	27.832	73.9626	27.832	74.6219	27.832	74.2531	27.832	75.0074	27.832	74.5944	27.832	75.4301	27.832	74.9814	27.832	75.8756	27.832	75.4044	27.832	76.3245	27.832	75.8492	27.832	76.7531	27.832	76.2967	27.832	77.136	27.832	76.7246	27.832	77.448	27.832	77.1087	27.832	77.6673	27.832	77.4249	27.832	77.7782	27.832	77.6517	27.832	77.7726
29.2969	74.545	29.2969	74.5806	29.2969	74.5395	29.2969	74.6466	29.2969	74.5646	29.2969	74.7446	29.2969	74.622	29.2969	74.8772	29.2969	74.7142	29.2969	75.0474	29.2969	74.8441	29.2969	75.2583	29.2969	75.0148	29.2969	75.5124	29.2969	75.2289	29.2969	75.8101	29.2969	75.4876	29.2969	76.1488	29.2969	75.7904	29.2969	76.5217	29.2969	76.1334	29.2969	76.9172	29.2969	76.5089	29.2969	77.3187	29.2969	76.9049	29.2969	77.7051	29.2969	77.3051	29.2969	78.0529	29.2969	77.6895	29.2969	78.3382	29.2969	78.036	29.2969	78.5399	29.2969	78.3226	29.2969	78.6425	29.2969	78.5287	29.2969	78.6384
30.7617	75.7325	30.7617	75.764	30.7617	75.7293	30.7617	75.8245	30.7617	75.7547	30.7617	75.9156	30.7617	75.8095	30.7617	76.0392	30.7617	75.8956	30.7617	76.1978	30.7617	76.0149	30.7617	76.3934	30.7617	76.1699	30.7617	76.6273	30.7617	76.3626	30.7617	76.8993	30.7617	76.5942	30.7617	77.2065	30.7617	76.8642	30.7617	77.543	30.7617	77.17	30.7617	77.8989	30.7617	77.5056	30.7617	78.2601	30.7617	77.8614	30.7617	78.6083	30.7617	78.2235	30.7617	78.9227	30.7617	78.574	30.7617	79.1813	30.7617	78.8924	30.7617	79.3645	30.7617	79.1572	30.7617	79.4572	30.7617	79.3489	30.7617	79.4518
32.2266	76.6595	32.2266	76.6883	32.2266	76.6567	32.2266	76.7434	32.2266	76.6802	32.2266	76.8255	32.2266	76.7306	32.2266	76.9359	32.2266	76.8092	32.2266	77.076	32.2266	76.9174	32.2266	77.2472	32.2266	77.0568	32.2266	77.4507	32.2266	77.2289	32.2266	77.6864	32.2266	77.4346	32.2266	77.9527	32.2266	77.6734	32.2266	78.2455	32.2266	77.9433	32.2266	78.557	32.2266	78.2394	32.2266	78.8758	32.2266	78.5532	32.2266	79.1861	32.2266	78.8729	32.2266	79.4687	32.2266	79.1828	32.2266	79.7035	32.2266	79.4646	32.2266	79.8717	32.2266	79.6991	32.2266	79.9588	32.2266	79.8681	32.2266	79.9574
33.6914	77.4441	33.6914	77.4702	33.6914	77.441	33.6914	77.5194	33.6914	77.461	33.6914	77.5923	33.6914	77.5047	33.6914	77.6898	33.6914	77.573	33.6914	77.8126	33.6914	77.6669	33.6914	77.962	33.6914	77.7875	33.6914	78.1387	33.6914	77.9361	33.6914	78.3427	33.6914	78.1132	33.6914	78.5729	33.6914	78.3186	33.6914	78.8261	33.6914	78.5507	33.6914	79.096	33.6914	78.8057	33.6914	79.3729	33.6914	79.0771	33.6914	79.6434	33.6914	79.3551	33.6914	79.8906	33.6914	79.6264	33.6914	80.0964	33.6914	79.875	33.6914	80.2437	33.6914	80.0834	33.6914	80.3192	33.6914	80.2349	33.6914	80.3161
35.1562	77.8062	35.1562	77.8334	35.1562	77.801	35.1562	77.8827	35.1562	77.8181	35.1562	77.9539	35.1562	77.8578	35.1562	78.0476	35.1562	77.9205	35.1562	78.1638	35.1562	78.0068	35.1562	78.3032	35.1562	78.1172	35.1562	78.466	35.1562	78.2522	35.1562	78.652	35.1562	78.4121	35.1562	78.86	35.1562	78.5964	35.1562	79.0873	35.1562	78.8037	35.1562	79.3286	35.1562	79.0311	35.1562	79.5753	35.1562	79.2735	35.1562	79.8158	35.1562	79.5227	35.1562	80.0353	35.1562	79.7674	35.1562	80.2174	35.1562	79.9933	35.1562	80.3465	35.1562	80.1846	35.1562	80.4105	35.1562	80.3254	35.1562	80.4033
36.6211	78.2128	36.6211	78.2363	36.6211	78.209	36.6211	78.2796	36.6211	78.2252	36.6211	78.3426	36.6211	78.2613	36.6211	78.4253	36.6211	78.3175	36.6211	78.5278	36.6211	78.3941	36.6211	78.65	36.6211	78.4913	36.6211	78.7919	36.6211	78.6094	36.6211	78.9532	36.6211	78.7484	36.6211	79.1328	36.6211	78.9081	36.6211	79.3287	36.6211	79.0874	36.6211	79.5367	36.6211	79.2841	36.6211	79.7501	36.6211	79.4941	36.6211	79.9591	36.6211	79.7105	36.6211	80.151	36.6211	79.9236	36.6211	80.3114	36.6211	80.121	36.6211	80.4261	36.6211	80.2884	36.6211	80.484	36.6211	80.4115	36.6211	80.479
38.0859	78.4612	38.0859	78.4832	38.0859	78.4573	38.0859	78.5231	38.0859	78.4719	38.0859	78.5806	38.0859	78.5048	38.0859	78.6552	38.0859	78.5561	38.0859	78.7466	38.0859	78.6257	38.0859	78.8545	38.0859	78.7135	38.0859	78.9787	38.0859	78.8192	38.0859	79.1191	38.0859	78.9425	38.0859	79.275	38.0859	79.0832	38.0859	79.445	38.0859	79.2404	38.0859	79.6259	38.0859	79.4125	38.0859	79.8125	38.0859	79.596	38.0859	79.9963	38.0859	79.7857	38.0859	80.1663	38.0859	79.9731	38.0859	80.3095	38.0859	80.1472	38.0859	80.4128	38.0859	80.295	38.0859	80.4659	38.0859	80.4038	38.0859	80.4627
39.5508	78.7783	39.5508	78.7995	39.5508	78.7729	39.5508	78.8361	39.5508	78.7834	39.5508	78.8875	39.5508	78.8099	39.5508	78.9531	39.5508	78.8522	39.5508	79.0321	39.5508	78.9098	39.5508	79.1239	39.5508	78.9826	39.5508	79.2282	39.5508	79.07	39.5508	79.3444	39.5508	79.1719	39.5508	79.472	39.5508	79.2878	39.5508	79.61	39.5508	79.4172	39.5508	79.7563	39.5508	79.5587	39.5508	79.9069	39.5508	79.7099	39.5508	80.0558	39.5508	79.8665	39.5508	80.1942	39.5508	80.022	39.5508	80.3115	39.5508	80.1676	39.5508	80.3965	39.5508	80.2924	39.5508	80.4398	39.5508	80.385	39.5508	80.436
41.0156	79.0052	41.0156	79.0288	41.0156	78.9954	41.0156	79.0658	41.0156	78.9992	41.0156	79.1161	41.0156	79.0164	41.0156	79.179	41.0156	79.0466	41.0156	79.254	41.0156	79.0893	41.0156	79.3404	41.0156	79.1442	41.0156	79.4373	41.0156	79.2109	41.0156	79.5437	41.0156	79.2892	41.0156	79.6581	41.0156	79.3791	41.0156	79.7785	41.0156	79.4803	41.0156	79.9019	41.0156	79.5923	41.0156	80.0244	41.0156	79.7138	41.0156	80.1404	41.0156	79.8425	41.0156	80.243	41.0156	79.9739	41.0156	80.3241	41.0156	80.1014	41.0156	80.3757	41.0156	80.2159	41.0156	80.3914	41.0156	80.3079	41.0156	80.3683
42.4805	79.071	42.4805	79.0921	42.4805	79.0646	42.4805	79.1275	42.4805	79.073	42.4805	79.1764	42.4805	79.0958	42.4805	79.2378	42.4805	79.1326	42.4805	79.3104	42.4805	79.1824	42.4805	79.3927	42.4805	79.2442	42.4805	79.4836	42.4805	79.3171	42.4805	79.5815	42.4805	79.4	42.4805	79.685	42.4805	79.492	42.4805	79.7926	42.4805	79.5923	42.4805	79.9025	42.4805	79.6997	42.4805	80.012	42.4805	79.8127	42.4805	80.1176	42.4805	79.9289	42.4805	80.2139	42.4805	80.0444	42.4805	80.2938	42.4805	80.1533	42.4805	80.3496	42.4805	80.2483	42.4805	80.3746	42.4805	80.3213	42.4805	80.3649
43.9453	79.1177	43.9453	79.1428	43.9453	79.1066	43.9453	79.181	43.9453	79.1096	43.9453	79.2315	43.9453	79.1264	43.9453	79.2928	43.9453	79.1566	43.9453	79.3634	43.9453	79.1991	43.9453	79.4416	43.9453	79.2528	43.9453	79.5256	43.9453	79.3164	43.9453	79.6137	43.9453	79.3887	43.9453	79.7043	43.9453	79.4686	43.9453	79.7958	43.9453	79.5551	43.9453	79.8864	43.9453	79.6474	43.9453	79.9745	43.9453	79.7443	43.9453	80.0576	43.9453	79.8439	43.9453	80.1318	43.9453	79.9434	43.9453	80.192	43.9453	80.0382	43.9453	80.232	43.9453	80.1224	43.9453	80.2463	43.9453	80.1891	43.9453	80.2318
45.4102	79.3846	45.4102	79.411	45.4102	79.3693	45.4102	79.4475	45.4102	79.3655	45.4102	79.4929	45.4102	79.3732	45.4102	79.5458	45.4102	79.3923	45.4102	79.6045	45.4102	79.4219	45.4102	79.6673	45.4102	79.4611	45.4102	79.7325	45.4102	79.5087	45.4102	79.7987	45.4102	79.5633	45.4102	79.8646	45.4102	79.6238	45.4102	79.9293	45.4102	79.6894	45.4102	79.992	45.4102	79.7592	45.4102	80.0519	45.4102	79.8326	45.4102	80.1079	45.4102	79.9085	45.4102	80.1577	45.4102	79.985	45.4102	80.1977	45.4102	80.0589	45.4102	80.2233	45.4102	80.1256	45.4102	80.2301	45.4102	80.1795	45.4102	80.2154
46.875	79.4737	46.875	79.4948	46.875	79.4632	46.875	79.5257	46.875	79.4636	46.875	79.5655	46.875	79.475	46.875	79.6125	46.875	79.4967	46.875	79.6653	46.875	79.528	46.875	79.7221	46.875	79.5678	46.875	79.7813	46.875	79.6148	46.875	79.8414	46.875	79.6677	46.875	79.9015	46.875	79.7252	46.875	79.9606	46.875	79.7863	46.875	80.0181	46.875	79.8503	46.875	80.0734	46.875	79.9165	46.875	80.1255	46.875	79.9842	46.875	80.1724	46.875	80.0514	46.875	80.2114	46.875	80.1153	46.875	80.2385	46.875	80.1715	46.875	80.2496	46.875	80.2152	46.875	80.242
48.3398	79.4876	48.3398	79.5031	48.3398	79.4829	48.3398	79.5288	48.3398	79.4892	48.3398	79.5639	48.3398	79.506	48.3398	79.607	48.3398	79.5326	48.3398	79.6563	48.3398	79.5678	48.3398	79.7102	48.3398	79.6104	48.3398	79.7667	48.3398	79.6587	48.3398	79.8242	48.3398	79.7111	48.3398	79.8812	48.3398	79.7664	48.3398	79.9365	48.3398	79.8232	48.3398	79.9893	48.3398	79.8809	48.3398	80.039	48.3398	79.9386	48.3398	80.085	48.3398	79.9957	48.3398	80.1264	48.3398	80.0508	48.3398	80.1612	48.3398	80.1018	48.3398	80.1865	48.3398	80.1455	48.3398	80.1992	48.3398	80.1781	48.3398	80.1966
51.2695	79.6081	51.2695	79.626	51.2695	79.6017	51.2695	79.6545	51.2695	79.6067	51.2695	79.6925	51.2695	79.623	51.2695	79.7384	51.2695	79.6496	51.2695	79.7904	51.2695	79.6852	51.2695	79.8463	51.2695	79.7281	51.2695	79.9038	51.2695	79.7764	51.2695	79.9608	51.2695	79.8281	51.2695	80.0153	51.2695	79.8812	51.2695	80.0657	51.2695	79.9341	51.2695	80.111	51.2695	79.9854	51.2695	80.1504	51.2695	80.0341	51.2695	80.1836	51.2695	80.0797	51.2695	80.2103	51.2695	80.1218	51.2695	80.23	51.2695	80.1598	51.2695	80.2415	51.2695	80.1926	51.2695	80.2438	51.2695	80.2187	51.2695	80.2361
52.7344	79.7768	52.7344	79.802	52.7344	79.761	52.7344	79.8355	52.7344	79.7549	52.7344	79.8762	52.7344	79.7586	52.7344	79.922	52.7344	79.7713	52.7344	79.971	52.7344	79.792	52.7344	80.0208	52.7344	79.8191	52.7344	80.0687	52.7344	79.8507	52.7344	80.1124	52.7344	79.8847	52.7344	80.1498	52.7344	79.9193	52.7344	80.1791	52.7344	79.9526	52.7344	80.1994	52.7344	79.9836	52.7344	80.2106	52.7344	80.0117	52.7344	80.2133	52.7344	80.0371	52.7344	80.2091	52.7344	80.0606	52.7344	80.1994	52.7344	80.0832	52.7344	80.1855	52.7344	80.1055	52.7344	80.1685	52.7344	80.1276	52.7344	80.1489
54.1992	80.1336	54.1992	80.154	54.1992	80.119	54.1992	80.1792	54.1992	80.1104	54.1992	80.2079	54.1992	80.1078	54.1992	80.2387	54.1992	80.1106	54.1992	80.2695	54.1992	80.118	54.1992	80.2983	54.1992	80.1284	54.1992	80.3228	54.1992	80.1403	54.1992	80.3412	54.1992	80.1519	54.1992	80.3517	54.1992	80.1616	54.1992	80.3533	54.1992	80.1683	54.1992	80.3457	54.1992	80.1715	54.1992	80.3295	54.1992	80.1715	54.1992	80.3067	54.1992	80.1694	54.1992	80.28	54.1992	80.167	54.1992	80.2526	54.1992	80.1663	54.1992	80.2272	54.1992	80.1691	54.1992	80.2055	54.1992	80.1763	54.1992	80.1884
55.6641	80.2751	55.6641	80.2831	55.6641	80.2697	55.6641	80.2936	55.6641	80.267	55.6641	80.3059	55.6641	80.2667	55.6641	80.3193	55.6641	80.2683	55.6641	80.3326	55.6641	80.2712	55.6641	80.3443	55.6641	80.2743	55.6641	80.3529	55.6641	80.2764	55.6641	80.3566	55.6641	80.2765	55.6641	80.354	55.6641	80.2733	55.6641	80.344	55.6641	80.2662	55.6641	80.3265	55.6641	80.2548	55.6641	80.3022	55.6641	80.2397	55.6641	80.2733	55.6641	80.2222	55.6641	80.243	55.6641	80.2042	55.6641	80.2147	55.6641	80.1878	55.6641	80.1917	55.6641	80.1753	55.6641	80.1759	55.6641	80.1683	55.6641	80.1682
58.5938	80.3452	58.5938	80.3573	58.5938	80.3383	58.5938	80.3743	58.5938	80.3364	58.5938	80.3953	58.5938	80.339	58.5938	80.4189	58.5938	80.3451	58.5938	80.4436	58.5938	80.3533	58.5938	80.4671	58.5938	80.3619	58.5938	80.4871	58.5938	80.3693	58.5938	80.5012	58.5938	80.3735	58.5938	80.5073	58.5938	80.3729	58.5938	80.5035	58.5938	80.3666	58.5938	80.489	58.5938	80.3541	58.5938	80.4639	58.5938	80.336	58.5938	80.4299	58.5938	80.3139	58.5938	80.3899	58.5938	80.2908	58.5938	80.3484	58.5938	80.2703	58.5938	80.3102	58.5938	80.2562	58.5938	80.2795	58.5938	80.252	58.5938	80.2596
60.0586	80.4503	60.0586	80.4612	60.0586	80.4447	60.0586	80.4769	60.0586	80.4446	60.0586	80.4963	60.0586	80.4495	60.0586	80.518	60.0586	80.4587	60.0586	80.5403	60.0586	80.4708	60.0586	80.5611	60.0586	80.484	60.0586	80.5782	60.0586	80.4962	60.0586	80.589	60.0586	80.5052	60.0586	80.5913	60.0586	80.5087	60.0586	80.5831	60.0586	80.5049	60.0586	80.5636	60.0586	80.4926	60.0586	80.5331	60.0586	80.4717	60.0586	80.4941	60.0586	80.4436	60.0586	80.4505	60.0586	80.4112	60.0586	80.4076	60.0586	80.3792	60.0586	80.3708	60.0586	80.3525	60.0586	80.345	60.0586	80.3361	60.0586	80.3331
62.9883	80.7326	62.9883	80.7492	62.9883	80.722	62.9883	80.7709	62.9883	80.7176	62.9883	80.7964	62.9883	80.719	62.9883	80.8238	62.9883	80.7255	62.9883	80.8508	62.9883	80.7355	62.9883	80.8745	62.9883	80.7472	62.9883	80.8918	62.9883	80.7581	62.9883	80.8999	62.9883	80.7658	62.9883	80.896	62.9883	80.7678	62.9883	80.8784	62.9883	80.7617	62.9883	80.8468	62.9883	80.7463	62.9883	80.8027	62.9883	80.7214	62.9883	80.7494	62.9883	80.6882	62.9883	80.6923	62.9883	80.6501	62.9883	80.638	62.9883	80.6119	62.9883	80.5931	62.9883	80.5791	62.9883	80.5631	62.9883	80.5573	62.9883	80.5511
64.4531	80.7796	64.4531	80.7951	64.4531	80.7697	64.4531	80.8155	64.4531	80.7655	64.4531	80.8398	64.4531	80.7666	64.4531	80.8663	64.4531	80.7721	64.4531	80.8929	64.4531	80.7808	64.4531	80.917	64.4531	80.7909	64.4531	80.9357	64.4531	80.8002	64.4531	80.9459	64.4531	80.8065	64.4531	80.9451	64.4531	80.8074	64.4531	80.9311	64.4531	80.801	64.4531	80.9033	64.4531	80.786	64.4531	80.8626	64.4531	80.762	64.4531	80.8117	64.4531	80.7304	64.4531	80.7556	64.4531	80.6942	64.4531	80.7007	64.4531	80.6582	64.4531	80.6538	64.4531	80.6278	64.4531	80.6209	64.4531	80.6088	64.4531	80.6057
67.3828	80.8505	67.3828	80.8531	67.3828	80.8541	67.3828	80.8616	67.3828	80.8639	67.3828	80.8751	67.3828	80.8792	67.3828	80.8923	67.3828	80.8989	67.3828	80.9113	67.3828	80.9212	67.3828	80.93	67.3828	80.9437	67.3828	80.9455	67.3828	80.9637	67.3828	80.9551	67.3828	80.9782	67.3828	80.9559	67.3828	80.9844	67.3828	80.9455	67.3828	80.98	67.3828	80.9228	67.3828	80.9634	67.3828	80.8882	67.3828	80.9345	67.3828	80.8446	67.3828	80.8947	67.3828	80.7969	67.3828	80.8474	67.3828	80.7518	67.3828	80.7975	67.3828	80.7165	67.3828	80.7516	67.3828	80.697	67.3828	80.7162	67.3828	80.6969
68.8477	80.96	68.8477	80.9646	68.8477	80.961	68.8477	80.9746	68.8477	80.9678	68.8477	80.9892	68.8477	80.9799	68.8477	81.0072	68.8477	80.9964	68.8477	81.027	68.8477	81.016	68.8477	81.0463	68.8477	81.0367	68.8477	81.0625	68.8477	81.0562	68.8477	81.0727	68.8477	81.0716	68.8477	81.0738	68.8477	81.0801	68.8477	81.0637	68.8477	81.0791	68.8477	81.0411	68.8477	81.0667	68.8477	81.0066	68.8477	81.0423	68.8477	80.963	68.8477	81.0069	68.8477	80.9155	68.8477	80.9632	68.8477	80.8708	68.8477	80.916	68.8477	80.8361	68.8477	80.8716	68.8477	80.8172	68.8477	80.8369	68.8477	80.8176
71.7773	81.2388	71.7773	81.2441	71.7773	81.2374	71.7773	81.2526	71.7773	81.2401	71.7773	81.2636	71.7773	81.2469	71.7773	81.2759	71.7773	81.2577	71.7773	81.2881	71.7773	81.2716	71.7773	81.2983	71.7773	81.2872	71.7773	81.3041	71.7773	81.3023	71.7773	81.3032	71.7773	81.3143	71.7773	81.2932	71.7773	81.32	71.7773	81.2722	71.7773	81.3163	71.7773	81.2397	71.7773	81.3005	71.7773	81.1968	71.7773	81.2713	71.7773	81.1463	71.7773	81.229	71.7773	81.0936	71.7773	81.1765	71.7773	81.0453	71.7773	81.1192	71.7773	81.0089	71.7773	81.0646	71.7773	80.9908	71.7773	81.0207	71.7773	80.9948
74.707	81.4402	74.707	81.4413	74.707	81.4419	74.707	81.4446	74.707	81.4465	74.707	81.4496	74.707	81.4541	74.707	81.4555	74.707	81.4644	74.707	81.4612	74.707	81.4769	74.707	81.4649	74.707	81.4902	74.707	81.4647	74.707	81.5024	74.707	81.4583	74.707	81.5108	74.707	81.4433	74.707	81.5123	74.707	81.4181	74.707	81.5038	74.707	81.3817	74.707	81.4825	74.707	81.3352	74.707	81.447	74.707	81.2815	74.707	81.3976	74.707	81.2257	74.707	81.3375	74.707	81.1751	74.707	81.2722	74.707	81.1376	74.707	81.2096	74.707	81.1203	74.707	81.1588	74.707	81.1274
77.6367	81.6175	77.6367	81.6186	77.6367	81.6193	77.6367	81.622	77.6367	81.6243	77.6367	81.6269	77.6367	81.6328	77.6367	81.6323	77.6367	81.6445	77.6367	81.6367	77.6367	81.6587	77.6367	81.6385	77.6367	81.6741	77.6367	81.6353	77.6367	81.6885	77.6367	81.6249	77.6367	81.6992	77.6367	81.6051	77.6367	81.7026	77.6367	81.5742	77.6367	81.6953	77.6367	81.532	77.6367	81.6742	77.6367	81.4799	77.6367	81.6373	77.6367	81.4215	77.6367	81.5848	77.6367	81.3627	77.6367	81.5192	77.6367	81.311	77.6367	81.4466	77.6367	81.275	77.6367	81.3753	77.6367	81.2618	77.6367	81.3152	77.6367	81.2755
79.1016	81.7304	79.1016	81.7353	79.1016	81.7276	79.1016	81.7413	79.1016	81.7273	79.1016	81.7472	79.1016	81.7302	79.1016	81.7517	79.1016	81.736	79.1016	81.7532	79.1016	81.7442	79.1016	81.7497	79.1016	81.7534	79.1016	81.739	79.1016	81.7613	79.1016	81.7189	79.1016	81.7652	79.1016	81.6876	79.1016	81.7616	79.1016	81.644	79.1016	81.7469	79.1016	81.5885	79.1016	81.7181	79.1016	81.5233	79.1016	81.6734	79.1016	81.4528	79.1016	81.6129	79.1016	81.3834	79.1016	81.5396	79.1016	81.3232	79.1016	81.46	79.1016	81.2809	79.1016	81.3828	79.1016	81.2642	79.1016	81.3186	79.1016	81.277
82.0312	81.7651	82.0312	81.7732	82.0312	81.758	82.0312	81.7818	82.0312	81.7523	82.0312	81.7901	82.0312	81.748	82.0312	81.7969	82.0312	81.745	82.0312	81.8006	82.0312	81.7426	82.0312	81.7989	82.0312	81.7396	82.0312	81.789	82.0312	81.734	82.0312	81.7677	82.0312	81.7235	82.0312	81.732	82.0312	81.7052	82.0312	81.6801	82.0312	81.6762	82.0312	81.6119	82.0312	81.6343	82.0312	81.5302	82.0312	81.5784	82.0312	81.4407	82.0312	81.5095	82.0312	81.3516	82.0312	81.4312	82.0312	81.2726	82.0312	81.35	82.0312	81.2136	82.0312	81.2749	82.0312	81.1824	82.0312	81.2163	82.0312	81.1836
84.9609	81.9001	84.9609	81.9073	84.9609	81.8941	84.9609	81.9154	84.9609	81.8892	84.9609	81.9241	84.9609	81.885	84.9609	81.9325	84.9609	81.8809	84.9609	81.9391	84.9609	81.8756	84.9609	81.9419	84.9609	81.8674	84.9609	81.9376	84.9609	81.8542	84.9609	81.9226	84.9609	81.8336	84.9609	81.893	84.9609	81.8032	84.9609	81.8457	84.9609	81.7609	84.9609	81.7792	84.9609	81.7058	84.9609	81.6948	84.9609	81.6382	84.9609	81.5976	84.9609	81.5605	84.9609	81.4958	84.9609	81.4776	84.9609	81.4004	84.9609	81.3965	84.9609	81.323	84.9609	81.3266	84.9609	81.2737	84.9609	81.2778	84.9609	81.2585
87.8906	81.9738	87.8906	81.9982	87.8906	81.9475	87.8906	82.0191	87.8906	81.9212	87.8906	82.0356	87.8906	81.8965	87.8906	82.0466	87.8906	81.8748	87.8906	82.0518	87.8906	81.8568	87.8906	82.0503	87.8906	81.8419	87.8906	82.0411	87.8906	81.8285	87.8906	82.0227	87.8906	81.8142	87.8906	81.993	87.8906	81.7955	87.8906	81.9502	87.8906	81.7693	87.8906	81.8929	87.8906	81.733	87.8906	81.8213	87.8906	81.6853	87.8906	81.7379	87.8906	81.6275	87.8906	81.6481	87.8906	81.5636	87.8906	81.5604	87.8906	81.5005	87.8906	81.485	87.8906	81.4474	87.8906	81.4317	87.8906	81.4138	87.8906	81.4074
90.8203	82.1821	90.8203	82.223	90.8203	82.1361	90.8203	82.2581	90.8203	82.0866	90.8203	82.2871	90.8203	82.0354	90.8203	82.3096	90.8203	81.9843	90.8203	82.3255	90.8203	81.9355	90.8203	82.3342	90.8203	81.8902	90.8203	82.3342	90.8203	81.8489	90.8203	82.3235	90.8203	81.8111	90.8203	82.2995	90.8203	81.7754	90.8203	82.2591	90.8203	81.74	90.8203	82.2002	90.8203	81.7033	90.8203	82.1221	90.8203	81.6646	90.8203	82.0268	90.8203	81.6244	90.8203	81.92	90.8203	81.5858	90.8203	81.8104	90.8203	81.5538	90.8203	81.7087	90.8203	81.5355	90.8203	81.6252	90.8203	81.5381	90.8203	81.5673
95.2148	82.3097	95.2148	82.3366	95.2148	82.2776	95.2148	82.3575	95.2148	82.2419	95.2148	82.372	95.2148	82.2043	95.2148	82.3799	95.2148	82.1672	95.2148	82.3811	95.2148	82.1322	95.2148	82.3753	95.2148	82.1003	95.2148	82.3613	95.2148	82.0712	95.2148	82.3375	95.2148	82.0432	95.2148	82.3019	95.2148	82.0136	95.2148	82.2522	95.2148	81.9793	95.2148	82.1868	95.2148	81.9377	95.2148	82.106	95.2148	81.8874	95.2148	82.0126	95.2148	81.8296	95.2148	81.9126	95.2148	81.7681	95.2148	81.8152	95.2148	81.7096	95.2148	81.7309	95.2148	81.6626	95.2148	81.6695	95.2148	81.6361	95.2148	81.6373
98.1445	82.5599	98.1445	82.5818	98.1445	82.5284	98.1445	82.594	98.1445	82.4879	98.1445	82.5968	98.1445	82.4397	98.1445	82.5906	98.1445	82.3856	98.1445	82.5754	98.1445	82.3275	98.1445	82.5507	98.1445	82.2673	98.1445	82.5153	98.1445	82.2063	98.1445	82.4674	98.1445	82.1451	98.1445	82.4051	98.1445	82.0834	98.1445	82.3272	98.1445	82.0205	98.1445	82.2337	98.1445	81.9553	98.1445	82.1268	98.1445	81.8875	98.1445	82.0116	98.1445	81.8179	98.1445	81.8957	98.1445	81.7495	98.1445	81.7887	98.1445	81.6874	98.1445	81.7004	98.1445	81.6384	98.1445	81.639	98.1445	81.61	98.1445	81.6089
101.074	82.5071	101.074	82.5251	101.074	82.4798	101.074	82.5335	101.074	82.4435	101.074	82.5328	101.074	82.3996	101.074	82.5235	101.074	82.3494	101.074	82.5058	101.074	82.2946	101.074	82.4796	101.074	82.2369	101.074	82.4438	101.074	82.1772	101.074	82.3967	101.074	82.1161	101.074	82.3367	101.074	82.0534	101.074	82.2621	101.074	81.9886	101.074	82.1731	101.074	81.9212	101.074	82.0717	101.074	81.8514	101.074	81.9627	101.074	81.781	101.074	81.8536	101.074	81.7137	101.074	81.7534	101.074	81.6544	101.074	81.6712	101.074	81.6092	101.074	81.6137	101.074	81.5843	101.074	81.5848
105.469	82.7914	105.469	82.7968	105.469	82.7748	105.469	82.7912	105.469	82.7473	105.469	82.775	105.469	82.7098	105.469	82.7488	105.469	82.6637	105.469	82.7128	105.469	82.6105	105.469	82.6669	105.469	82.5517	105.469	82.61	105.469	82.4882	105.469	82.5406	105.469	82.4201	105.469	82.4567	105.469	82.3467	105.469	82.357	105.469	82.2666	105.469	82.2413	105.469	82.1783	105.469	82.1126	105.469	82.0812	105.469	81.9768	105.469	81.9764	105.469	81.8439	105.469	81.8679	105.469	81.726	105.469	81.763	105.469	81.6359	105.469	81.6717	105.469	81.5834	105.469	81.6052	105.469	81.5736
108.398	83.0728	108.398	83.0648	108.398	83.0653	108.398	83.0424	108.398	83.0417	108.398	83.0075	108.398	83.0025	108.398	82.9619	108.398	82.9486	108.398	82.9071	108.398	82.8811	108.398	82.8438	108.398	82.8015	108.398	82.7716	108.398	82.7107	108.398	82.6888	108.398	82.6097	108.398	82.5934	108.398	82.4992	108.398	82.4835	108.398	82.38	108.398	82.3585	108.398	82.2537	108.398	82.2202	108.398	82.1228	108.398	82.074	108.398	81.9917	108.398	81.9286	108.398	81.8666	108.398	81.7959	108.398	81.7551	108.398	81.6889	108.398	81.6664	108.398	81.6188	108.398	81.6094	108.398	81.592
112.793	83.22	112.793	83.2333	112.793	83.1879	112.793	83.2277	112.793	83.1383	112.793	83.2035	112.793	83.0729	112.793	83.1616	112.793	82.9937	112.793	83.1034	112.793	82.9029	112.793	83.0297	112.793	82.8022	112.793	82.9409	112.793	82.6927	112.793	82.8366	112.793	82.5747	112.793	82.716	112.793	82.4476	112.793	82.5783	112.793	82.3111	112.793	82.4238	112.793	82.1655	112.793	82.2548	112.793	82.0134	112.793	82.0769	112.793	81.8602	112.793	81.899	112.793	81.715	112.793	81.7335	112.793	81.5891	112.793	81.5943	112.793	81.4951	112.793	81.4944	112.793	81.4439	112.793	81.443
117.188	83.1594	117.188	83.144	117.188	83.1585	117.188	83.1125	117.188	83.1412	117.188	83.0656	117.188	83.1079	117.188	83.004	117.188	83.0592	117.188	82.9286	117.188	82.9961	117.188	82.8404	117.188	82.9192	117.188	82.7403	117.188	82.8294	117.188	82.6292	117.188	82.727	117.188	82.5079	117.188	82.6122	117.188	82.3775	117.188	82.4854	117.188	82.2404	117.188	82.3478	117.188	82.1004	117.188	82.2026	117.188	81.9635	117.188	82.0551	117.188	81.8377	117.188	81.9134	117.188	81.7312	117.188	81.7874	117.188	81.6513	117.188	81.6873	117.188	81.6039	117.188	81.6211	117.188	81.5931
120.117	83.328	120.117	83.3107	120.117	83.3277	120.117	83.276	120.117	83.3094	120.117	83.2243	120.117	83.2735	120.117	83.156	120.117	83.2204	120.117	83.0712	120.117	83.1504	120.117	82.9699	120.117	83.0642	120.117	82.8516	120.117	82.9621	120.117	82.7164	120.117	82.8444	120.117	82.5647	120.117	82.7114	120.117	82.3985	120.117	82.564	120.117	82.2218	120.117	82.404	120.117	82.0418	120.117	82.2349	120.117	81.8682	120.117	82.0621	120.117	81.7127	120.117	81.8936	120.117	81.587	120.117	81.7394	120.117	81.5003	120.117	81.6102	120.117	81.4586	120.117	81.5161	120.117	81.4641
124.512	83.1991	124.512	83.1965	124.512	83.1891	124.512	83.1808	124.512	83.1671	124.512	83.1516	124.512	83.1335	124.512	83.1082	124.512	83.0882	124.512	83.0496	124.512	83.0308	124.512	82.9746	124.512	82.9601	124.512	82.8814	124.512	82.8742	124.512	82.7679	124.512	82.7712	124.512	82.6332	124.512	82.6494	124.512	82.4774	124.512	82.5083	124.512	82.3037	124.512	82.3492	124.512	82.1184	124.512	82.1761	124.512	81.9315	124.512	81.9965	124.512	81.7556	124.512	81.8209	124.512	81.6045	124.512	81.662	124.512	81.4905	124.512	81.5331	124.512	81.4231	124.512	81.4457	124.512	81.4078
128.906	83.0539	128.906	83.0682	128.906	83.0256	128.906	83.0672	128.906	82.9856	128.906	83.05	128.906	82.9363	128.906	83.0162	128.906	82.8802	128.906	82.9653	128.906	82.8189	128.906	82.8968	128.906	82.7527	128.906	82.8098	128.906	82.6805	128.906	82.7034	128.906	82.5997	128.906	82.5774	128.906	82.5074	128.906	82.4331	128.906	82.401	128.906	82.2745	128.906	82.2799	128.906	82.1083	128.906	82.1465	128.906	81.9444	128.906	82.0062	128.906	81.7943	128.906	81.8673	128.906	81.6695	128.906	81.74	128.906	81.5795	128.906	81.6346	128.906	81.5303	128.906	81.5604	128.906	81.5243
133.301	83.1195	133.301	83.1501	133.301	83.0707	133.301	83.162	133.301	83.005	133.301	83.1556	133.301	82.9248	133.301	83.132	133.301	82.8334	133.301	83.0918	133.301	82.7344	133.301	83.0351	133.301	82.6314	133.301	82.9613	133.301	82.527	133.301	82.869	133.301	82.423	133.301	82.757	133.301	82.3199	133.301	82.6253	133.301	82.2174	133.301	82.4765	133.301	82.1151	133.301	82.3163	133.301	82.0136	133.301	82.1541	133.301	81.9153	133.301	82.0011	133.301	81.8247	133.301	81.8684	133.301	81.7477	133.301	81.7647	133.301	81.691	133.301	81.695	133.301	81.6603	133.301	81.6606
139.16	83.3736	139.16	83.3825	139.16	83.3394	139.16	83.367	139.16	83.2802	139.16	83.3283	139.16	83.1972	139.16	83.2683	139.16	83.0922	139.16	83.189	139.16	82.9679	139.16	83.0921	139.16	82.8273	139.16	82.9787	139.16	82.6738	139.16	82.8496	139.16	82.5107	139.16	82.7055	139.16	82.3417	139.16	82.5475	139.16	82.1706	139.16	82.3786	139.16	82.0021	139.16	82.2038	139.16	81.8423	139.16	82.0301	139.16	81.6984	139.16	81.8661	139.16	81.5785	139.16	81.72	139.16	81.4897	139.16	81.5985	139.16	81.4373	139.16	81.5064	139.16	81.4233	139.16	81.4471
143.555	83.3979	143.555	83.3932	143.555	83.3777	143.555	83.3645	143.555	83.3324	143.555	83.3134	143.555	83.2626	143.555	83.2416	143.555	83.1693	143.555	83.1511	143.555	83.054	143.555	83.0434	143.555	82.9182	143.555	82.9197	143.555	82.7637	143.555	82.7807	143.555	82.5923	143.555	82.6271	143.555	82.4068	143.555	82.4601	143.555	82.2109	143.555	82.2826	143.555	82.0106	143.555	82.0993	143.555	81.8143	143.555	81.917	143.555	81.633	143.555	81.7437	143.555	81.4785	143.555	81.5876	143.555	81.3619	143.555	81.456	143.555	81.2907	143.555	81.355	143.555	81.2675	143.555	81.2904
147.949	83.2994	147.949	83.2917	147.949	83.2841	147.949	83.2617	147.949	83.2465	147.949	83.2104	147.949	83.1878	147.949	83.1391	147.949	83.1095	147.949	83.0493	147.949	83.0135	147.949	82.9418	147.949	82.9009	147.949	82.817	147.949	82.7724	147.949	82.6755	147.949	82.628	147.949	82.5184	147.949	82.4678	147.949	82.3484	147.949	82.2926	147.949	82.1701	147.949	82.1055	147.949	81.9901	147.949	81.9128	147.949	81.8165	147.949	81.7248	147.949	81.6569	147.949	81.555	147.949	81.518	147.949	81.4171	147.949	81.4053	147.949	81.3225	147.949	81.3236	147.949	81.2766	147.949	81.2786
153.809	83.2523	153.809	83.2436	153.809	83.2335	153.809	83.2087	153.809	83.1874	153.809	83.15	153.809	83.1157	153.809	83.0703	153.809	83.0209	153.809	82.9725	153.809	82.9067	153.809	82.8587	153.809	82.7766	153.809	82.7302	153.809	82.6339	153.809	82.5878	153.809	82.4814	153.809	82.4333	153.809	82.3215	153.809	82.2707	153.809	82.1565	153.809	82.106	153.809	81.99	153.809	81.9473	153.809	81.8274	153.809	81.8022	153.809	81.6769	153.809	81.6759	153.809	81.5484	153.809	81.5705	153.809	81.4511	153.809	81.4857	153.809	81.391	153.809	81.4218	153.809	81.369	153.809	81.3812
159.668	83.5242	159.668	83.5153	159.668	83.5023	159.668	83.476	159.668	83.4503	159.668	83.4082	159.668	83.3704	159.668	83.3149	159.668	83.2654	159.668	83.1993	159.668	83.1387	159.668	83.0645	159.668	82.9938	159.668	82.913	159.668	82.8337	159.668	82.7468	159.668	82.6613	159.668	82.5684	159.668	82.4797	159.668	82.3823	159.668	82.2925	159.668	82.1963	159.668	82.1052	159.668	82.0204	159.668	81.9256	159.668	81.8652	159.668	81.7635	159.668	81.7373	159.668	81.6298	159.668	81.6379	159.668	81.5329	159.668	81.5631	159.668	81.4768	159.668	81.5082	159.668	81.459	159.668	81.4721
165.527	83.635	165.527	83.6245	165.527	83.6127	165.527	83.5814	165.527	83.5587	165.527	83.5072	165.527	83.4753	165.527	83.4045	165.527	83.3659	165.527	83.2768	165.527	83.2347	165.527	83.1282	165.527	83.0866	165.527	82.9624	165.527	82.9265	165.527	82.7833	165.527	82.7595	165.527	82.5947	165.527	82.5903	165.527	82.4023	165.527	82.4233	165.527	82.2138	165.527	82.2631	165.527	82.0394	165.527	82.1141	165.527	81.8903	165.527	81.9813	165.527	81.775	165.527	81.8687	165.527	81.6966	165.527	81.7792	165.527	81.6525	165.527	81.7129	165.527	81.6365	165.527	81.6681	165.527	81.6428
171.387	83.6644	171.387	83.6439	171.387	83.6515	171.387	83.5904	171.387	83.6058	171.387	83.5052	171.387	83.5286	171.387	83.3906	171.387	83.4223	171.387	83.2493	171.387	83.2893	171.387	83.0844	171.387	83.1319	171.387	82.8996	171.387	82.9529	171.387	82.6999	171.387	82.7548	171.387	82.4919	171.387	82.5416	171.387	82.2845	171.387	82.3195	171.387	82.0887	171.387	82.098	171.387	81.9163	171.387	81.8906	171.387	81.7761	171.387	81.7127	171.387	81.6714	171.387	81.5779	171.387	81.598	171.387	81.4931	171.387	81.5466	171.387	81.4556	171.387	81.5073	171.387	81.4545	171.387	81.4754
177.246	83.7693	177.246	83.7641	177.246	83.7341	177.246	83.7181	177.246	83.6608	177.246	83.6313	177.246	83.5527	177.246	83.5048	177.246	83.4149	177.246	83.3396	177.246	83.2535	177.246	83.1379	177.246	83.0751	177.246	82.9031	177.246	82.8861	177.246	82.6413	177.246	82.6919	177.246	82.3636	177.246	82.4966	177.246	82.0865	177.246	82.3038	177.246	81.8314	177.246	82.1173	177.246	81.6202	177.246	81.9434	177.246	81.469	177.246	81.7896	177.246	81.3822	177.246	81.6633	177.246	81.3509	177.246	81.568	177.246	81.3574	177.246	81.5009	177.246	81.3833	177.246	81.4536	177.246	81.4163
183.105	83.6602	183.105	83.6809	183.105	83.6081	183.105	83.6703	183.105	83.5244	183.105	83.6288	183.105	83.4095	183.105	83.5559	183.105	83.2642	183.105	83.4503	183.105	83.0895	183.105	83.3098	183.105	82.8874	183.105	83.1317	183.105	82.6611	183.105	82.9148	183.105	82.4159	183.105	82.6614	183.105	82.1602	183.105	82.3805	183.105	81.9067	183.105	82.0901	183.105	81.672	183.105	81.816	183.105	81.4745	183.105	81.5867	183.105	81.3305	183.105	81.4231	183.105	81.2474	183.105	81.3296	183.105	81.2198	183.105	81.2909	183.105	81.2296	183.105	81.2801	183.105	81.2532	183.105	81.2717
188.965	83.6964	188.965	83.696	188.965	83.6609	188.965	83.6622	188.965	83.5878	188.965	83.5976	188.965	83.4767	188.965	83.5048	188.965	83.3287	188.965	83.3852	188.965	83.1464	188.965	83.2398	188.965	82.9335	188.965	83.0692	188.965	82.6948	188.965	82.8752	188.965	82.4361	188.965	82.6625	188.965	82.1646	188.965	82.4398	188.965	81.8913	188.965	82.2196	188.965	81.6318	188.965	82.0165	188.965	81.4073	188.965	81.843	188.965	81.2406	188.965	81.705	188.965	81.1483	188.965	81.5989	188.965	81.1323	188.965	81.5133	188.965	81.1775	188.965	81.4332	188.965	81.2577	188.965	81.3478
196.289	83.9992	196.289	83.9724	196.289	83.983	196.289	83.9047	196.289	83.9236	196.289	83.7998	196.289	83.8214	196.289	83.6623	196.289	83.6781	196.289	83.496	196.289	83.4955	196.289	83.3035	196.289	83.2767	196.289	83.0855	196.289	83.026	196.289	82.8432	196.289	82.7505	196.289	82.5824	196.289	82.4599	196.289	82.3177	196.289	82.168	196.289	82.0735	196.289	81.8928	196.289	81.878	196.289	81.6569	196.289	81.7508	196.289	81.4842	196.289	81.6907	196.289	81.3926	196.289	81.6758	196.289	81.3841	196.289	81.6734	196.289	81.4395	196.289	81.6545	196.289	81.5245	196.289	81.6037
203.613	84.0882	203.613	84.0658	203.613	84.0665	203.613	83.9991	203.613	84.0018	203.613	83.8892	203.613	83.8957	203.613	83.7378	203.613	83.7498	203.613	83.5472	203.613	83.5654	203.613	83.3197	203.613	83.3434	203.613	83.0568	203.613	83.0852	203.613	82.7613	203.613	82.7939	203.613	82.4395	203.613	82.4766	203.613	82.1064	203.613	82.1464	203.613	81.789	203.613	81.8242	203.613	81.5234	203.613	81.538	203.613	81.342	203.613	81.3166	203.613	81.2557	203.613	81.1806	203.613	81.2443	203.613	81.1328	203.613	81.2662	203.613	81.1541	203.613	81.2793	203.613	81.2091	203.613	81.2595
210.938	83.9607	210.938	83.9174	210.938	83.9622	210.938	83.834	210.938	83.9213	210.938	83.713	210.938	83.8385	210.938	83.5573	210.938	83.7155	210.938	83.3686	210.938	83.5541	210.938	83.1475	210.938	83.3556	210.938	82.8923	210.938	83.1201	210.938	82.6009	210.938	82.8468	210.938	82.2749	210.938	82.5362	210.938	81.9258	210.938	82.1946	210.938	81.5802	210.938	81.839	210.938	81.2788	210.938	81.5001	210.938	81.0617	210.938	81.2168	210.938	80.9465	210.938	81.0212	210.938	80.9164	210.938	80.9223	210.938	80.9302	210.938	80.9008	210.938	80.9468	210.938	80.9199	210.938	80.9429
218.262	83.9394	218.262	83.9382	218.262	83.8979	218.262	83.8919	218.262	83.8168	218.262	83.7986	218.262	83.6995	218.262	83.6576	218.262	83.5495	218.262	83.4697	218.262	83.3709	218.262	83.2373	218.262	83.1685	218.262	82.9646	218.262	82.9481	218.262	82.6582	218.262	82.716	218.262	82.3287	218.262	82.478	218.262	81.9942	218.262	82.2399	218.262	81.6847	218.262	82.0084	218.262	81.4383	218.262	81.7943	218.262	81.2866	218.262	81.6134	218.262	81.2351	218.262	81.4819	218.262	81.2562	218.262	81.4066	218.262	81.3066	218.262	81.3784	218.262	81.3503	218.262	81.3751	218.262	81.3718
225.586	84.2888	225.586	84.32	225.586	84.2061	225.586	84.3016	225.586	84.0714	225.586	84.2362	225.586	83.8861	225.586	84.1257	225.586	83.6533	225.586	83.9702	225.586	83.3772	225.586	83.7677	225.586	83.0625	225.586	83.5154	225.586	82.7154	225.586	83.2117	225.586	82.3464	225.586	82.8617	225.586	81.9729	225.586	82.4837	225.586	81.6221	225.586	82.1158	225.586	81.3303	225.586	81.8149	225.586	81.1366	225.586	81.6366	225.586	81.0691	225.586	81.6016	225.586	81.1305	225.586	81.6736	225.586	81.2911	225.586	81.7772	225.586	81.497	225.586	81.8376	225.586	81.6869	225.586	81.8096
232.91	84.1699	232.91	84.1428	232.91	84.1444	232.91	84.0676	232.91	84.062	232.91	83.949	232.91	83.9191	232.91	83.7905	232.91	83.7136	232.91	83.5951	232.91	83.4444	232.91	83.3649	232.91	83.1118	232.91	83.1009	232.91	82.7187	232.91	82.8037	232.91	82.2727	232.91	82.476	232.91	81.791	232.91	82.128	232.91	81.305	232.91	81.7851	232.91	80.8638	232.91	81.4904	232.91	80.529	232.91	81.2931	232.91	80.3563	232.91	81.2184	232.91	80.3683	232.91	81.2426	232.91	80.5365	232.91	81.2987	232.91	80.7899	232.91	81.3111	232.91	81.0438	232.91	81.229
241.699	83.9863	241.699	83.9477	241.699	83.982	241.699	83.8666	241.699	83.935	241.699	83.7433	241.699	83.8459	241.699	83.577	241.699	83.7137	241.699	83.3646	241.699	83.534	241.699	83.1014	241.699	83.2978	241.699	82.7832	241.699	82.9928	241.699	82.4104	241.699	82.6078	241.699	81.994	241.699	82.1414	241.699	81.5622	241.699	81.612	241.699	81.1628	241.699	81.0679	241.699	80.8555	241.699	80.5896	241.699	80.6871	241.699	80.2697	241.699	80.6628	241.699	80.1657	241.699	80.7369	241.699	80.259	241.699	80.8336	241.699	80.4649	241.699	80.8804	241.699	80.6816	241.699	80.8319
250.488	84.346	250.488	84.3344	250.488	84.2968	250.488	84.2607	250.488	84.1885	250.488	84.1223	250.488	84.0246	250.488	83.9149	250.488	83.8111	250.488	83.633	250.488	83.5554	250.488	83.2723	250.488	83.2624	250.488	82.8328	250.488	82.9307	250.488	82.3222	250.488	82.5504	250.488	81.7577	250.488	82.1092	250.488	81.1698	250.488	81.6062	250.488	80.6098	250.488	81.0705	250.488	80.1538	250.488	80.571	250.488	79.8845	250.488	80.2014	250.488	79.8406	250.488	80.0318	250.488	79.9773	250.488	80.0577	250.488	80.1859	250.488	80.1987	250.488	80.3542	250.488	80.3463	250.488	80.4122
259.277	84.3103	259.277	84.3368	259.277	84.2344	259.277	84.3147	259.277	84.1091	259.277	84.2438	259.277	83.9357	259.277	84.1202	259.277	83.7159	259.277	83.9337	259.277	83.4516	259.277	83.6679	259.277	83.1427	259.277	83.3053	259.277	82.7854	259.277	82.8357	259.277	82.3723	259.277	82.2682	259.277	81.8962	259.277	81.6418	259.277	81.3627	259.277	81.0296	259.277	80.8104	259.277	80.5261	259.277	80.3237	259.277	80.2106	259.277	80.0117	259.277	80.105	259.277	79.9369	259.277	80.1632	259.277	80.0571	259.277	80.2998	259.277	80.2549	259.277	80.427	259.277	80.4164	259.277	80.4772
268.066	83.9574	268.066	83.9013	268.066	83.9717	268.066	83.8084	268.066	83.9376	268.066	83.6812	268.066	83.8474	268.066	83.517	268.066	83.6918	268.066	83.3063	268.066	83.462	268.066	83.0333	268.066	83.1514	268.066	82.68	268.066	82.7564	268.066	82.2354	268.066	82.274	268.066	81.7056	268.066	81.6963	268.066	81.1269	268.066	81.0125	268.066	80.5738	268.066	80.2309	268.066	80.148	268.066	79.4257	268.066	79.9303	268.066	78.7789	268.066	79.9178	268.066	78.5152	268.066	80.018	268.066	78.6957	268.066	80.1105	268.066	79.1377	268.066	80.1012	268.066	79.5996	268.066	79.9358
276.855	83.843	276.855	83.8792	276.855	83.8025	276.855	83.9058	276.855	83.76	276.855	83.9161	276.855	83.7122	276.855	83.8988	276.855	83.6457	276.855	83.8333	276.855	83.5333	276.855	83.6848	276.855	83.3368	276.855	83.4055	276.855	83.0171	276.855	82.9438	276.855	82.5527	276.855	82.262	276.855	81.9589	276.855	81.364	276.855	81.2982	276.855	80.3387	276.855	80.6647	276.855	79.4068	276.855	80.1443	276.855	78.8688	276.855	79.7858	276.855	78.8546	276.855	79.6067	276.855	79.1759	276.855	79.5991	276.855	79.5477	276.855	79.7091	276.855	79.8016	276.855	79.839	276.855	79.8914
287.109	83.5964	287.109	83.6096	287.109	83.5461	287.109	83.5959	287.109	83.4589	287.109	83.5703	287.109	83.3466	287.109	83.5436	287.109	83.2251	287.109	83.5148	287.109	83.1015	287.109	83.4658	287.109	82.9608	287.109	83.3584	287.109	82.758	287.109	83.1405	287.109	82.4217	287.109	82.7611	287.109	81.8733	287.109	82.1946	287.109	81.0621	287.109	81.4758	287.109	80.0211	287.109	80.7409	287.109	78.9485	287.109	80.2281	287.109	78.2319	287.109	80.1261	287.109	78.1878	287.109	80.361	287.109	78.7082	287.109	80.6548	287.109	79.4394	287.109	80.7634	287.109	80.1126	287.109	80.5803
297.363	83.9803	297.363	83.9145	297.363	84.0152	297.363	83.824	297.363	84.0088	297.363	83.7087	297.363	83.9491	297.363	83.561	297.363	83.8256	297.363	83.3685	297.363	83.6281	297.363	83.119	297.363	83.3442	297.363	82.8089	297.363	82.9565	297.363	82.4468	297.363	82.4394	297.363	82.0469	297.363	81.7543	297.363	81.6159	297.363	80.851	297.363	81.1487	297.363	79.6958	297.363	80.6491	297.363	78.3634	297.363	80.1719	297.363	77.2107	297.363	79.8406	297.363	76.8552	297.363	79.7628	297.363	77.462	297.363	79.8832	297.363	78.4657	297.363	79.9839	297.363	79.3307	297.363	79.8407
307.617	83.6049	307.617	83.5762	307.617	83.6029	307.617	83.5121	307.617	83.5883	307.617	83.4211	307.617	83.5821	307.617	83.3136	307.617	83.5945	307.617	83.1814	307.617	83.6152	307.617	82.9814	307.617	83.6122	307.617	82.6375	307.617	83.5339	307.617	82.0642	307.617	83.3157	307.617	81.2068	307.617	82.8869	307.617	80.1008	307.617	82.1786	307.617	78.958	307.617	81.1383	307.617	78.1904	307.617	79.7704	307.617	78.1167	307.617	78.2588	307.617	78.5786	307.617	77.1609	307.617	79.1645	307.617	77.1231	307.617	79.5857	307.617	77.9312	307.617	79.7091	307.617	78.8488	307.617	79.4714
319.336	83.3246	319.336	83.2216	319.336	83.3963	319.336	83.1037	319.336	83.4305	319.336	82.9879	319.336	83.4345	319.336	82.882	319.336	83.4222	319.336	82.776	319.336	83.3987	319.336	82.6359	319.336	83.3449	319.336	82.3966	319.336	83.213	319.336	81.9587	319.336	82.935	319.336	81.2001	319.336	82.4359	319.336	80.0154	319.336	81.6468	319.336	78.4237	319.336	80.5262	319.336	76.852	319.336	79.1132	319.336	76.3077	319.336	77.6612	319.336	77.1242	319.336	76.7813	319.336	78.3532	319.336	77.0024	319.336	79.2834	319.336	77.967	319.336	79.7049	319.336	78.9604	319.336	79.586
329.59	82.4861	329.59	82.4896	329.59	82.5216	329.59	82.5531	329.59	82.588	329.59	82.6956	329.59	82.6895	329.59	82.9102	329.59	82.8297	329.59	83.1472	329.59	82.9946	329.59	83.3192	329.59	83.1437	329.59	83.3226	329.59	83.2139	329.59	83.0546	329.59	83.1267	329.59	82.4139	329.59	82.7901	329.59	81.2883	329.59	82.098	329.59	79.5521	329.59	80.9329	329.59	77.1546	329.59	79.1943	329.59	74.689	329.59	76.9365	329.59	74.26	329.59	74.8901	329.59	75.9424	329.59	74.6749	329.59	77.5396	329.59	76.0776	329.59	78.3326	329.59	77.4976	329.59	78.2965
341.309	81.8142	341.309	81.8479	341.309	81.7358	341.309	81.8852	341.309	81.613	341.309	81.996	341.309	81.5011	341.309	82.2271	341.309	81.4874	341.309	82.5622	341.309	81.6335	341.309	82.917	341.309	81.9136	341.309	83.1627	341.309	82.2112	341.309	83.1544	341.309	82.3742	341.309	82.7457	341.309	82.2615	341.309	81.7925	341.309	81.7518	341.309	80.1527	341.309	80.7346	341.309	77.7244	341.309	79.1202	341.309	74.8017	341.309	76.971	341.309	73.3427	341.309	75.022	341.309	74.7735	341.309	74.8536	341.309	76.6631	341.309	76.1958	341.309	77.7881	341.309	77.4641	341.309	78.0382
353.027	80.936	353.027	80.7647	353.027	81.0482	353.027	80.6112	353.027	81.1104	353.027	80.6408	353.027	81.1929	353.027	81.0143	353.027	81.3984	353.027	81.7189	353.027	81.8008	353.027	82.5461	353.027	82.3639	353.027	83.244	353.027	82.928	353.027	83.6165	353.027	83.284	353.027	83.5154	353.027	83.2445	353.027	82.7984	353.027	82.6544	353.027	81.2842	353.027	81.3492	353.027	78.6937	353.027	79.0611	353.027	74.6243	353.027	75.1713	353.027	70.1823	353.027	67.7247	353.027	71.9769	353.027	64.9466	353.027	75.1315	353.027	72.5234	353.027	76.7045	353.027	75.717	353.027	76.9042
366.211	82.4822	366.211	82.2421	366.211	82.4117	366.211	81.698	366.211	82.0749	366.211	80.9379	366.211	81.5817	366.211	80.2182	366.211	81.1472	366.211	79.9875	366.211	81.0794	366.211	80.5193	366.211	81.5842	366.211	81.5004	366.211	82.5278	366.211	82.3888	366.211	83.5439	366.211	82.8263	366.211	84.3016	366.211	82.6227	366.211	84.5878	366.211	81.6286	366.211	84.2622	366.211	79.6171	366.211	83.1936	366.211	76.0882	366.211	81.1918	366.211	69.4978	366.211	77.8945	366.211	59.0664	366.211	72.5073	366.211	69.0781	366.211	65.8149	366.211	72.2545	366.211	69.4713	366.211	72.2846
379.395	83.2577	379.395	82.9326	379.395	83.19	379.395	82.2501	379.395	82.698	379.395	81.2767	379.395	81.7772	379.395	80.2226	379.395	80.5542	379.395	79.6212	379.395	79.5372	379.395	80.0848	379.395	79.6166	379.395	81.4225	379.395	80.9139	379.395	82.878	379.395	82.5737	379.395	83.9486	379.395	83.9811	379.395	84.4246	379.395	84.9143	379.395	84.2126	379.395	85.2826	379.395	83.248	379.395	85.0162	379.395	81.4663	379.395	84.0474	379.395	78.8095	379.395	82.3193	379.395	75.335	379.395	79.8069	379.395	71.698	379.395	76.586	379.395	69.7243	379.395	73.0792	379.395	70.3967
392.578	84.9815	392.578	84.6465	392.578	84.9841	392.578	83.9522	392.578	84.6406	392.578	82.8407	392.578	83.8966	392.578	81.2709	392.578	82.6616	392.578	79.4278	392.578	80.8449	392.578	78.3025	392.578	78.5984	392.578	79.1991	392.578	77.2453	392.578	81.2357	392.578	78.5404	392.578	83.0466	392.578	80.8939	392.578	84.1869	392.578	82.7646	392.578	84.5749	392.578	83.8795	392.578	84.2079	392.578	84.2574	392.578	83.1164	392.578	83.9304	392.578	81.3838	392.578	82.9179	392.578	79.1991	392.578	81.258	392.578	76.9632	392.578	79.0937	392.578	75.4052	392.578	76.8449	392.578	75.3419
405.762	85.2578	405.762	85.0886	405.762	85.1943	405.762	84.6374	405.762	84.9097	405.762	83.8214	405.762	84.3755	405.762	82.5275	405.762	83.5251	405.762	80.6321	405.762	82.264	405.762	78.1666	405.762	80.5156	405.762	76.1779	405.762	78.4323	405.762	76.886	405.762	77.0394	405.762	79.1231	405.762	77.7675	405.762	80.937	405.762	79.6544	405.762	81.9389	405.762	81.2698	405.762	82.1581	405.762	82.2032	405.762	81.6755	405.762	82.4168	405.762	80.6242	405.762	81.9571	405.762	79.2568	405.762	80.9317	405.762	77.9763	405.762	79.5571	405.762	77.2333	405.762	78.2006	405.762	77.316
420.41	84.7954	420.41	84.7068	420.41	84.7536	420.41	84.4752	420.41	84.5737	420.41	84.058	420.41	84.2338	420.41	83.3772	420.41	83.6973	420.41	82.3322	420.41	82.9115	420.41	80.8601	420.41	81.8259	420.41	79.1278	420.41	80.4712	420.41	77.9103	420.41	79.1519	420.41	78.1551	420.41	78.5504	420.41	79.3419	420.41	78.9879	420.41	80.4036	420.41	79.8437	420.41	80.8865	420.41	80.4653	420.41	80.7096	420.41	80.6043	420.41	79.9601	420.41	80.2409	420.41	78.8751	420.41	79.472	420.41	77.8303	420.41	78.502	420.41	77.1939	420.41	77.6274	420.41	77.1355
435.059	84.8701	435.059	84.7686	435.059	84.8421	435.059	84.5244	435.059	84.6779	435.059	84.0998	435.059	84.35	435.059	83.4255	435.059	83.8087	435.059	82.4133	435.059	82.9863	435.059	81.0193	435.059	81.8116	435.059	79.4204	435.059	80.2677	435.059	78.2944	435.059	78.6131	435.059	78.3873	435.059	77.7384	435.059	79.264	435.059	78.358	435.059	80.0253	435.059	79.6537	435.059	80.2792	435.059	80.6847	435.059	79.9895	435.059	81.1459	435.059	79.2688	435.059	81.0161	435.059	78.3428	435.059	80.3693	435.059	77.5611	435.059	79.3684	435.059	77.2566	435.059	78.3066	435.059	77.5303
451.172	85.2918	451.172	85.0931	451.172	85.3734	451.172	84.7656	451.172	85.3371	451.172	84.282	451.172	85.1736	451.172	83.6062	451.172	84.8567	451.172	82.7067	451.172	84.328	451.172	81.5852	451.172	83.5016	451.172	80.3615	451.172	82.3129	451.172	79.4241	451.172	80.8286	451.172	79.3071	451.172	79.4201	451.172	79.973	451.172	78.7197	451.172	80.7815	451.172	78.8885	451.172	81.2167	451.172	79.3712	451.172	81.0676	451.172	79.652	451.172	80.3396	451.172	79.5186	451.172	79.2484	451.172	78.9652	451.172	78.1861	451.172	78.1727	451.172	77.4797	451.172	77.4904	451.172	77.2344
465.82	84.701	465.82	84.6034	465.82	84.7156	465.82	84.3983	465.82	84.648	465.82	84.0422	465.82	84.4781	465.82	83.4729	465.82	84.1754	465.82	82.6099	465.82	83.7062	465.82	81.3822	465.82	83.0268	465.82	79.8617	465.82	82.0898	465.82	78.5881	465.82	80.9223	465.82	78.4777	465.82	79.7875	465.82	79.391	465.82	79.1659	465.82	80.3314	465.82	79.1749	465.82	80.787	465.82	79.3572	465.82	80.6853	465.82	79.3323	465.82	80.112	465.82	79.0664	465.82	79.2433	465.82	78.6945	465.82	78.3761	465.82	78.3167	465.82	77.8415	465.82	77.9726	465.82	77.7537
483.398	85.1184	483.398	85.0899	483.398	85.0471	483.398	84.9477	483.398	84.8821	483.398	84.6678	483.398	84.607	483.398	84.1865	483.398	84.1822	483.398	83.3801	483.398	83.5684	483.398	82.0878	483.398	82.7508	483.398	80.2085	483.398	81.7534	483.398	78.0144	483.398	80.6822	483.398	76.7641	483.398	79.824	483.398	77.4105	483.398	79.577	483.398	78.6378	483.398	79.9421	483.398	79.3702	483.398	80.382	483.398	79.3865	483.398	80.3836	483.398	78.7438	483.398	79.7294	483.398	77.6224	483.398	78.4622	483.398	76.3426	483.398	76.8784	483.398	75.3293	483.398	75.5344	483.398	74.9782
499.512	84.5012	499.512	84.5249	499.512	84.4121	499.512	84.4961	499.512	84.2429	499.512	84.396	499.512	83.9968	499.512	84.1658	499.512	83.6709	499.512	83.7083	499.512	83.2115	499.512	82.8906	499.512	82.5099	499.512	81.574	499.512	81.4569	499.512	79.7597	499.512	80.0495	499.512	78.0821	499.512	78.6332	499.512	77.9509	499.512	78.1238	499.512	79.1127	499.512	78.9417	499.512	80.0942	499.512	80.1446	499.512	80.4027	499.512	80.9171	499.512	80.1741	499.512	81.0455	499.512	79.7005	499.512	80.6146	499.512	79.2196	499.512	79.874	499.512	78.8803	499.512	79.1784	499.512	78.8261
517.09	83.8411	517.09	83.9456	517.09	83.7055	517.09	83.9479	517.09	83.5821	517.09	83.7849	517.09	83.4701	517.09	83.4253	517.09	83.3283	517.09	82.856	517.09	83.0728	517.09	82.0203	517.09	82.5745	517.09	80.7673	517.09	81.7073	517.09	78.9352	517.09	80.4719	517.09	76.8998	517.09	79.18	517.09	76.5271	517.09	78.4755	517.09	78.141	517.09	78.705	517.09	79.604	517.09	79.4526	517.09	80.2004	517.09	80.1628	517.09	80.1308	517.09	80.5544	517.09	79.8278	517.09	80.5848	517.09	79.6491	517.09	80.366	517.09	79.6762	517.09	80.0733	517.09	79.8315
536.133	83.9324	536.133	83.8044	536.133	84.031	536.133	83.6886	536.133	84.0739	536.133	83.6195	536.133	84.0278	536.133	83.563	536.133	83.8444	536.133	83.3858	536.133	83.4775	536.133	82.893	536.133	82.8751	536.133	81.8793	536.133	81.9258	536.133	80.1512	536.133	80.4125	536.133	77.5946	536.133	78.0644	536.133	74.8989	536.133	75.0928	536.133	75.0064	536.133	74.2132	536.133	77.4485	536.133	76.5241	536.133	79.3744	536.133	78.6983	536.133	80.2681	536.133	79.9159	536.133	80.3465	536.133	80.3629	536.133	80.0169	536.133	80.3083	536.133	79.7299	536.133	80.0149	536.133	79.7458
555.176	83.4303	555.176	83.3556	555.176	83.4112	555.176	83.2621	555.176	83.2892	555.176	83.2457	555.176	83.1335	555.176	83.3387	555.176	83.0533	555.176	83.4188	555.176	83.1071	555.176	83.241	555.176	83.2156	555.176	82.5613	555.176	83.1612	555.176	81.1913	555.176	82.6721	555.176	78.9708	555.176	81.4858	555.176	75.8364	555.176	79.3391	555.176	72.9201	555.176	76.0918	555.176	73.724	555.176	73.3969	555.176	76.4028	555.176	75.0048	555.176	78.4293	555.176	77.5961	555.176	79.6561	555.176	79.1804	555.176	80.2767	555.176	79.9383	555.176	80.4747	555.176	80.2613	555.176	80.4263
574.219	84.3838	574.219	84.1467	574.219	84.4368	574.219	83.765	574.219	84.2661	574.219	83.2884	574.219	83.8666	574.219	82.8264	574.219	83.318	574.219	82.5738	574.219	82.7929	574.219	82.6428	574.219	82.4662	574.219	82.7905	574.219	82.3495	574.219	82.5252	574.219	82.2313	574.219	81.438	574.219	81.8051	574.219	79.3237	574.219	80.8098	574.219	76.2239	574.219	79.0898	574.219	73.1743	574.219	76.7049	574.219	73.6926	574.219	74.527	574.219	76.5861	574.219	74.6477	574.219	78.7283	574.219	76.7148	574.219	79.8725	574.219	78.7329	574.219	80.4023	574.219	80.007	574.219	80.4966
594.727	84.6272	594.727	84.5973	594.727	84.4544	594.727	84.3218	594.727	84.1468	594.727	83.7902	594.727	83.7553	594.727	83.0286	594.727	83.2685	594.727	82.1435	594.727	82.6315	594.727	81.3699	594.727	81.8577	594.727	80.9492	594.727	81.153	594.727	80.8036	594.727	80.7697	594.727	80.5258	594.727	80.5739	594.727	79.7574	594.727	80.0892	594.727	78.4659	594.727	78.9393	594.727	77.0753	594.727	77.1083	594.727	76.3167	594.727	75.3437	594.727	76.6731	594.727	75.2047	594.727	77.9384	594.727	76.5448	594.727	79.2466	594.727	77.9703	594.727	79.8836	594.727	79.0427	594.727	79.7382
615.234	84.4063	615.234	84.2345	615.234	84.3913	615.234	83.8824	615.234	84.2001	615.234	83.3986	615.234	83.828	615.234	82.8422	615.234	83.2743	615.234	82.2469	615.234	82.6138	615.234	81.6498	615.234	81.9906	615.234	81.0862	615.234	81.4444	615.234	80.4732	615.234	80.8467	615.234	79.593	615.234	80.1203	615.234	78.2922	615.234	79.3104	615.234	76.672	615.234	78.3513	615.234	75.0947	615.234	77.0743	615.234	74.1084	615.234	75.6574	615.234	74.2912	615.234	74.8671	615.234	75.4279	615.234	75.241	615.234	76.6611	615.234	76.3439	615.234	77.5142	615.234	77.3676	615.234	77.7928
637.207	84.3818	637.207	84.2143	637.207	84.3206	637.207	83.8371	637.207	84.0338	637.207	83.283	637.207	83.5495	637.207	82.6044	637.207	82.8856	637.207	81.8554	637.207	82.039	637.207	81.1025	637.207	81.0859	637.207	80.5193	637.207	80.2773	637.207	80.2696	637.207	79.8351	637.207	80.1253	637.207	79.6559	637.207	79.57	637.207	79.4525	637.207	78.1861	637.207	78.9215	637.207	75.8384	637.207	77.7066	637.207	73.3236	637.207	75.5628	637.207	73.2299	637.207	73.1604	637.207	75.399	637.207	73.179	637.207	77.446	637.207	75.3707	637.207	78.5267	637.207	77.3439	637.207	78.4642
659.18	83.816	659.18	83.7191	659.18	83.7983	659.18	83.4696	659.18	83.6337	659.18	82.9665	659.18	83.2879	659.18	82.1835	659.18	82.7641	659.18	81.2959	659.18	82.0829	659.18	80.5415	659.18	81.2711	659.18	79.909	659.18	80.4077	659.18	79.2061	659.18	79.6409	659.18	78.387	659.18	79.0522	659.18	77.5802	659.18	78.517	659.18	76.7349	659.18	77.7783	659.18	75.4787	659.18	76.5834	659.18	73.9237	659.18	74.8389	659.18	73.7894	659.18	73.0723	659.18	75.192	659.18	72.8888	659.18	76.2118	659.18	74.4491	659.18	76.5356	659.18	75.8862	659.18	76.4839
682.617	83.6307	682.617	83.4929	682.617	83.5455	682.617	83.0797	682.617	83.3477	682.617	82.5045	682.617	83.0257	682.617	81.8661	682.617	82.4546	682.617	81.043	682.617	81.5835	682.617	79.9726	682.617	80.5544	682.617	79.0856	682.617	79.5762	682.617	78.7785	682.617	78.7417	682.617	78.5842	682.617	78.1653	682.617	78.0588	682.617	77.9522	682.617	77.3039	682.617	77.7889	682.617	76.325	682.617	77.2172	682.617	74.8927	682.617	76.0537	682.617	73.7081	682.617	74.3869	682.617	74.188	682.617	73.1548	682.617	75.5715	682.617	74.0799	682.617	76.6126	682.617	75.8683	682.617	76.7978
707.52	84.3255	707.52	84.1913	707.52	84.2749	707.52	83.9287	707.52	83.9701	707.52	83.4805	707.52	83.466	707.52	82.7906	707.52	82.8957	707.52	81.9036	707.52	82.2909	707.52	80.7839	707.52	81.5001	707.52	79.3053	707.52	80.3568	707.52	77.9688	707.52	78.9849	707.52	77.8142	707.52	77.9371	707.52	78.0793	707.52	77.6257	707.52	77.4052	707.52	77.5665	707.52	75.2922	707.52	76.9219	707.52	71.7332	707.52	75.0807	707.52	69.5286	707.52	71.9809	707.52	73.2752	707.52	70.3951	707.52	76.8409	707.52	73.4402	707.52	78.4951	707.52	76.6354	707.52	78.3756
732.422	83.7076	732.422	83.5447	732.422	83.7326	732.422	83.2206	732.422	83.5972	732.422	82.7032	732.422	83.2764	732.422	82.0266	732.422	82.772	732.422	81.2933	732.422	82.1174	732.422	80.6089	732.422	81.3915	732.422	80.0389	732.422	80.6564	732.422	79.5825	732.422	79.9025	732.422	79.1438	732.422	79.222	732.422	78.5681	732.422	78.8302	732.422	77.6771	732.422	78.5801	732.422	76.1637	732.422	77.9101	732.422	73.4607	732.422	76.3461	732.422	69.6011	732.422	73.6524	732.422	70.4783	732.422	70.7124	732.422	74.1018	732.422	71.3966	732.422	75.6977	732.422	73.887	732.422	75.4508
757.324	83.9743	757.324	83.7103	757.324	84.0086	757.324	83.2996	757.324	83.7692	757.324	82.7557	757.324	83.3198	757.324	81.9883	757.324	82.7743	757.324	80.9673	757.324	82.088	757.324	79.7681	757.324	81.1049	757.324	78.3824	757.324	79.9078	757.324	77.1239	757.324	78.7739	757.324	77.0349	757.324	77.821	757.324	77.6956	757.324	77.4267	757.324	77.6306	757.324	77.8518	757.324	76.3095	757.324	77.9728	757.324	73.7462	757.324	76.6821	757.324	71.1157	757.324	73.7341	757.324	72.3409	757.324	70.1286	757.324	74.5393	757.324	70.62	757.324	75.3603	757.324	73.5506	757.324	75.0694
785.156	84.4658	785.156	84.3512	785.156	84.2661	785.156	83.7971	785.156	83.8839	785.156	82.877	785.156	83.4086	785.156	82.0144	785.156	82.808	785.156	81.3556	785.156	82.0804	785.156	80.4125	785.156	81.3925	785.156	79.1712	785.156	80.7116	785.156	78.3272	785.156	79.7515	785.156	77.5973	785.156	78.4981	785.156	76.7292	785.156	77.2343	785.156	76.7291	785.156	76.2606	785.156	76.4732	785.156	75.8721	785.156	73.6457	785.156	75.5155	785.156	68.1568	785.156	73.8767	785.156	70.2091	785.156	70.8395	785.156	73.5791	785.156	71.7127	785.156	75.7772	785.156	74.9182	785.156	76.3518
811.523	84.3931	811.523	84.1097	811.523	84.4556	811.523	83.7633	811.523	84.1398	811.523	83.2884	811.523	83.4126	811.523	82.3614	811.523	82.5325	811.523	81.0127	811.523	81.8047	811.523	79.7826	811.523	81.0775	811.523	78.5672	811.523	80.1779	811.523	77.1224	811.523	79.2238	811.523	76.8429	811.523	78.2537	811.523	77.533	811.523	77.4929	811.523	77.3811	811.523	77.3177	811.523	76.549	811.523	77.1499	811.523	75.338	811.523	76.1238	811.523	71.986	811.523	74.0991	811.523	68.293	811.523	71.7374	811.523	72.3301	811.523	71.3584	811.523	74.0466	811.523	72.8956	811.523	73.8734
840.82	84.8083	840.82	84.6081	840.82	84.7481	840.82	84.1161	840.82	84.4653	840.82	83.3808	840.82	83.9866	840.82	82.4874	840.82	83.2689	840.82	81.3611	840.82	82.2605	840.82	80.0397	840.82	81.1002	840.82	78.9353	840.82	80.108	840.82	77.7493	840.82	79.284	840.82	75.7397	840.82	78.1478	840.82	74.8273	840.82	76.7593	840.82	76.1927	840.82	76.2087	840.82	76.2696	840.82	76.2606	840.82	74.1207	840.82	75.4632	840.82	70.8151	840.82	73.2442	840.82	68.3744	840.82	69.9999	840.82	71.394	840.82	69.7724	840.82	75.2586	840.82	73.5652	840.82	75.915
870.117	84.9776	870.117	84.8044	870.117	84.8924	870.117	84.4429	870.117	84.419	870.117	83.677	870.117	83.6543	870.117	82.5096	870.117	82.7691	870.117	81.5527	870.117	81.8662	870.117	80.8397	870.117	81.0271	870.117	79.2643	870.117	80.2033	870.117	76.9504	870.117	79.2523	870.117	76.1451	870.117	78.159	870.117	75.8413	870.117	76.9734	870.117	75.583	870.117	76.4614	870.117	76.9413	870.117	77.2737	870.117	76.5881	870.117	77.4322	870.117	71.7189	870.117	75.1231	870.117	65.9554	870.117	70.2483	870.117	71.4648	870.117	68.957	870.117	73.297	870.117	72.1227	870.117	73.5751
900.879	85.2192	900.879	85.0282	900.879	85.1396	900.879	84.4048	900.879	84.89	900.879	83.5922	900.879	84.2359	900.879	82.7633	900.879	83.1935	900.879	81.5735	900.879	82.0956	900.879	80.1167	900.879	80.8969	900.879	79.3473	900.879	79.6109	900.879	78.6428	900.879	78.7411	900.879	76.1626	900.879	77.8452	900.879	73.6922	900.879	76.5332	900.879	75.6378	900.879	76.3426	900.879	75.7713	900.879	76.7895	900.879	73.6874	900.879	76.0376	900.879	71.3882	900.879	74.6269	900.879	68.7034	900.879	72.852	900.879	70.6897	900.879	71.7409	900.879	74.2637	900.879	73.6646	900.879	75.0245
933.105	84.8582	933.105	84.6792	933.105	84.8131	933.105	84.2565	933.105	84.4442	933.105	83.4835	933.105	83.8191	933.105	82.4609	933.105	82.9597	933.105	81.4147	933.105	81.6264	933.105	80.2475	933.105	80.0321	933.105	78.5891	933.105	78.9408	933.105	77.1454	933.105	78.139	933.105	76.9661	933.105	77.3477	933.105	76.5321	933.105	77.1285	933.105	75.4261	933.105	76.8096	933.105	75.3858	933.105	76.0868	933.105	75.2731	933.105	75.6875	933.105	71.7803	933.105	74.3858	933.105	64.615	933.105	69.7022	933.105	70.6903	933.105	65.7625	933.105	74.524	933.105	71.9005	933.105	74.9029
965.332	85.0862	965.332	84.9217	965.332	84.9781	965.332	84.4541	965.332	84.5601	965.332	83.6729	965.332	83.8582	965.332	82.6358	965.332	82.8949	965.332	81.2186	965.332	81.5754	965.332	79.4543	965.332	79.8481	965.332	78.1696	965.332	78.1384	965.332	77.3781	965.332	77.1569	965.332	75.6525	965.332	76.2815	965.332	73.9494	965.332	74.4568	965.332	74.9206	965.332	73.3475	965.332	75.1842	965.332	75.0179	965.332	74.5583	965.332	75.2321	965.332	72.908	965.332	72.9333	965.332	66.8535	965.332	69.0716	965.332	68.1547	965.332	68.0529	965.332	73.184	965.332	71.7559	965.332	73.6956
1,000.49	84.2611	1,000.49	84.4781	1,000.49	83.7827	1,000.49	84.0675	1,000.49	83.5715	1,000.49	83.2723	1,000.49	83.4082	1,000.49	82.2587	1,000.49	82.6847	1,000.49	81.0163	1,000.49	81.1783	1,000.49	79.5609	1,000.49	79.3351	1,000.49	77.4944	1,000.49	77.7313	1,000.49	75.5048	1,000.49	76.0472	1,000.49	75.6917	1,000.49	74.5912	1,000.49	75.3403	1,000.49	74.594	1,000.49	74.4883	1,000.49	73.9711	1,000.49	76.2005	1,000.49	72.8802	1,000.49	76.6341	1,000.49	74.5048	1,000.49	73.0872	1,000.49	75.0704	1,000.49	67.1377	1,000.49	70.1153	1,000.49	69.6133	1,000.49	62.0503	1,000.49	74.0455	1,000.49	71.0706	1,000.49	74.7019
1,035.64	83.7881	1,035.64	83.1676	1,035.64	84.1052	1,035.64	82.7954	1,035.64	83.5548	1,035.64	82.6173	1,035.64	82.5112	1,035.64	82.1733	1,035.64	81.7606	1,035.64	80.9107	1,035.64	80.9861	1,035.64	79.0618	1,035.64	79.2844	1,035.64	77.7762	1,035.64	76.6833	1,035.64	76.625	1,035.64	74.9502	1,035.64	74.4072	1,035.64	74.4359	1,035.64	73.0445	1,035.64	72.5141	1,035.64	73.1775	1,035.64	69.9447	1,035.64	73.009	1,035.64	71.8752	1,035.64	73.6847	1,035.64	73.8055	1,035.64	73.0596	1,035.64	72.5221	1,035.64	68.0962	1,035.64	69.4247	1,035.64	68.0153	1,035.64	65.5788	1,035.64	72.0428	1,035.64	67.634	1,035.64	72.1011
1,072.27	83.8295	1,072.27	83.5088	1,072.27	83.6029	1,072.27	82.8955	1,072.27	83.1653	1,072.27	82.1656	1,072.27	82.7301	1,072.27	81.1833	1,072.27	82.1506	1,072.27	80.5114	1,072.27	81.1254	1,072.27	80.0274	1,072.27	79.4711	1,072.27	78.3021	1,072.27	77.4611	1,072.27	75.2967	1,072.27	75.2097	1,072.27	72.79	1,072.27	73.0266	1,072.27	71.6401	1,072.27	72.4551	1,072.27	72.1588	1,072.27	71.8159	1,072.27	73.2152	1,072.27	70.7959	1,072.27	73.4848	1,072.27	71.9559	1,072.27	72.2557	1,072.27	72.4671	1,072.27	67.1159	1,072.27	69.543	1,072.27	66.9596	1,072.27	63.3646	1,072.27	70.7904	1,072.27	68.7458	1,072.27	71.0608
1,108.89	82.6307	1,108.89	82.5482	1,108.89	82.8753	1,108.89	82.3231	1,108.89	82.5959	1,108.89	81.4567	1,108.89	81.7203	1,108.89	80.5816	1,108.89	80.7547	1,108.89	79.9637	1,108.89	79.9582	1,108.89	78.728	1,108.89	79.4261	1,108.89	76.8781	1,108.89	78.2762	1,108.89	75.5216	1,108.89	75.5651	1,108.89	74.7757	1,108.89	73.0338	1,108.89	73.6237	1,108.89	72.6967	1,108.89	71.7768	1,108.89	71.0392	1,108.89	71.7671	1,108.89	68.799	1,108.89	72.8688	1,108.89	69.9268	1,108.89	71.5359	1,108.89	70.9194	1,108.89	66.2329	1,108.89	68.0293	1,108.89	60.0475	1,108.89	65.3081	1,108.89	65.6001	1,108.89	57.6309	1,108.89	66.5829
1,148.44	83.1748	1,148.44	82.8108	1,148.44	83.7818	1,148.44	82.4357	1,148.44	83.3191	1,148.44	81.4275	1,148.44	82	1,148.44	80.3375	1,148.44	81.3409	1,148.44	79.2639	1,148.44	80.6513	1,148.44	78.093	1,148.44	79.4205	1,148.44	77.281	1,148.44	78.1667	1,148.44	76.2696	1,148.44	76.4059	1,148.44	74.4976	1,148.44	74.0446	1,148.44	72.055	1,148.44	71.6021	1,148.44	70.0047	1,148.44	71.0475	1,148.44	70.8398	1,148.44	70.9996	1,148.44	71.684	1,148.44	67.7485	1,148.44	72.2535	1,148.44	69.1637	1,148.44	71.057	1,148.44	71.5229	1,148.44	69.5275	1,148.44	69.3809	1,148.44	71.2959	1,148.44	69.1935	1,148.44	69.5678
1,189.45	83.5198	1,189.45	83.3843	1,189.45	83.1506	1,189.45	82.7251	1,189.45	82.8039	1,189.45	81.3235	1,189.45	82.4707	1,189.45	79.4178	1,189.45	81.3512	1,189.45	78.2015	1,189.45	79.7182	1,189.45	77.5109	1,189.45	78.6529	1,189.45	76.3392	1,189.45	77.9729	1,189.45	74.7448	1,189.45	76.5633	1,189.45	71.6537	1,189.45	74.148	1,189.45	69.8589	1,189.45	71.3543	1,189.45	72.0254	1,189.45	69.3909	1,189.45	69.1219	1,189.45	70.2516	1,189.45	67.7427	1,189.45	71.2735	1,189.45	67.9926	1,189.45	70.075	1,189.45	63.54	1,189.45	68.8596	1,189.45	64.6027	1,189.45	60.8721	1,189.45	69.3809	1,189.45	65.767	1,189.45	71.7363
1,230.47	83.2872	1,230.47	82.8136	1,230.47	83.4505	1,230.47	82.6021	1,230.47	82.8469	1,230.47	81.9464	1,230.47	82.0191	1,230.47	80.6272	1,230.47	80.9599	1,230.47	79.1335	1,230.47	79.6747	1,230.47	77.2567	1,230.47	78.8404	1,230.47	75.8694	1,230.47	77.8047	1,230.47	74.7858	1,230.47	76.1452	1,230.47	72.2014	1,230.47	74.3948	1,230.47	71.0099	1,230.47	72.7912	1,230.47	69.4853	1,230.47	71.2344	1,230.47	69.3872	1,230.47	70.1313	1,230.47	70.8151	1,230.47	70.6957	1,230.47	68.1022	1,230.47	70.4975	1,230.47	64.9658	1,230.47	68.4788	1,230.47	67.9383	1,230.47	64.1327	1,230.47	69.8191	1,230.47	68.3807	1,230.47	70.084
1,274.41	84.1097	1,274.41	83.8956	1,274.41	84.2997	1,274.41	83.4072	1,274.41	83.6296	1,274.41	82.1898	1,274.41	82.4061	1,274.41	80.955	1,274.41	81.4124	1,274.41	79.7054	1,274.41	80.6356	1,274.41	78.1262	1,274.41	79.4562	1,274.41	76.5139	1,274.41	77.4867	1,274.41	75.2385	1,274.41	76.5015	1,274.41	74.6121	1,274.41	75.8574	1,274.41	72.2579	1,274.41	72.4948	1,274.41	68.3367	1,274.41	70.8915	1,274.41	68.0947	1,274.41	71.7183	1,274.41	70.842	1,274.41	71.346	1,274.41	71.9455	1,274.41	71.9033	1,274.41	66.4405	1,274.41	69.7011	1,274.41	65.4851	1,274.41	62.1834	1,274.41	70.7062	1,274.41	66.1154	1,274.41	70.2689
1,319.82	84.3342	1,319.82	83.7192	1,319.82	84.0734	1,319.82	82.9751	1,319.82	83.7952	1,319.82	82.6908	1,319.82	83.2689	1,319.82	81.6163	1,319.82	81.8856	1,319.82	79.7611	1,319.82	80.0645	1,319.82	78.0921	1,319.82	78.6379	1,319.82	77.1207	1,319.82	77.813	1,319.82	76.6429	1,319.82	76.8082	1,319.82	75.2412	1,319.82	75.3735	1,319.82	72.1571	1,319.82	73.9083	1,319.82	68.6376	1,319.82	72.0106	1,319.82	68.4918	1,319.82	67.2264	1,319.82	69.5389	1,319.82	67.8812	1,319.82	69.9983	1,319.82	70.7114	1,319.82	67.1411	1,319.82	68.5136	1,319.82	64.8248	1,319.82	63.4274	1,319.82	71.8497	1,319.82	66.1576	1,319.82	72.7845
1,366.7	84.32	1,366.7	84.6795	1,366.7	84.0816	1,366.7	83.8051	1,366.7	83.616	1,366.7	82.3144	1,366.7	82.7394	1,366.7	81.8183	1,366.7	81.5709	1,366.7	80.1727	1,366.7	80.3722	1,366.7	78.0759	1,366.7	78.6563	1,366.7	77.1989	1,366.7	77.0728	1,366.7	76.3638	1,366.7	76.2706	1,366.7	74.9119	1,366.7	74.9096	1,366.7	71.8319	1,366.7	73.168	1,366.7	71.7229	1,366.7	71.4426	1,366.7	71.3166	1,366.7	71.3652	1,366.7	71.2059	1,366.7	68.4047	1,366.7	69.9497	1,366.7	68.4332	1,366.7	58.3064	1,366.7	67.866	1,366.7	62.8543	1,366.7	59.4105	1,366.7	68.6235	1,366.7	65.6976	1,366.7	70.8291
1,413.57	83.5908	1,413.57	83.4801	1,413.57	83.6602	1,413.57	83.1606	1,413.57	83.4901	1,413.57	82.4397	1,413.57	82.3799	1,413.57	80.9147	1,413.57	81.5859	1,413.57	80.3873	1,413.57	79.965	1,413.57	78.5848	1,413.57	78.77	1,413.57	75.6458	1,413.57	77.5134	1,413.57	76.0213	1,413.57	75.1658	1,413.57	74.4388	1,413.57	75.0653	1,413.57	73.0732	1,413.57	71.8825	1,413.57	71.9765	1,413.57	70.7341	1,413.57	70.9139	1,413.57	68.6857	1,413.57	69.138	1,413.57	65.6317	1,413.57	68.8576	1,413.57	71.3169	1,413.57	65.6143	1,413.57	69.2772	1,413.57	62.6258	1,413.57	55.2296	1,413.57	69.4287	1,413.57	65.9609	1,413.57	70.3674
1,463.38	82.9472	1,463.38	82.5423	1,463.38	82.9586	1,463.38	82.2685	1,463.38	81.8619	1,463.38	81.6383	1,463.38	81.0496	1,463.38	80.868	1,463.38	80.5353	1,463.38	79.7321	1,463.38	79.5813	1,463.38	78.4735	1,463.38	77.746	1,463.38	76.484	1,463.38	75.8456	1,463.38	73.9359	1,463.38	74.618	1,463.38	73.5422	1,463.38	72.3426	1,463.38	73.4706	1,463.38	71.2806	1,463.38	72.4591	1,463.38	71.4743	1,463.38	69.5054	1,463.38	70.7998	1,463.38	71.4113	1,463.38	68.9467	1,463.38	70.4072	1,463.38	67.0129	1,463.38	67.5303	1,463.38	71.0732	1,463.38	56.9838	1,463.38	65.808	1,463.38	69.0599	1,463.38	60.997	1,463.38	68.6853
1,516.11	82.3889	1,516.11	81.707	1,516.11	82.7558	1,516.11	81.5922	1,516.11	81.8011	1,516.11	80.8909	1,516.11	81.0024	1,516.11	79.7002	1,516.11	80.6361	1,516.11	79.2108	1,516.11	79.5268	1,516.11	79.0041	1,516.11	77.5472	1,516.11	76.9652	1,516.11	76.6956	1,516.11	74.5859	1,516.11	74.6377	1,516.11	72.9208	1,516.11	73.6305	1,516.11	70.8415	1,516.11	72.3212	1,516.11	69.0967	1,516.11	65.4027	1,516.11	66.5865	1,516.11	63.0462	1,516.11	66.2914	1,516.11	67.5922	1,516.11	72.2906	1,516.11	66.8714	1,516.11	68.1583	1,516.11	67.3909	1,516.11	61.6327	1,516.11	64.9402	1,516.11	62.639	1,516.11	56.5818	1,516.11	66.4932
1,568.85	82.4194	1,568.85	81.8961	1,568.85	81.8077	1,568.85	80.939	1,568.85	81.5714	1,568.85	80.403	1,568.85	80.1572	1,568.85	79.0689	1,568.85	79.9015	1,568.85	77.6077	1,568.85	78.4083	1,568.85	76.0575	1,568.85	77.2203	1,568.85	75.5225	1,568.85	76.3499	1,568.85	74.251	1,568.85	73.6015	1,568.85	74.0061	1,568.85	73.6546	1,568.85	72.8332	1,568.85	72.1643	1,568.85	71.4715	1,568.85	69.9738	1,568.85	70.4656	1,568.85	67.7411	1,568.85	67.8952	1,568.85	64.779	1,568.85	66.8016	1,568.85	67.2975	1,568.85	60.2944	1,568.85	67.9561	1,568.85	58.4745	1,568.85	63.5991	1,568.85	67.1838	1,568.85	54.7149	1,568.85	67.7859
1,624.51	82.6986	1,624.51	81.7648	1,624.51	82.9866	1,624.51	82.2806	1,624.51	82.0092	1,624.51	81.4759	1,624.51	81.3333	1,624.51	79.7539	1,624.51	80.5183	1,624.51	78.4679	1,624.51	78.537	1,624.51	76.3414	1,624.51	78.1709	1,624.51	76.9296	1,624.51	76.1856	1,624.51	75.1573	1,624.51	75.3752	1,624.51	74.1712	1,624.51	72.8052	1,624.51	72.4215	1,624.51	73.0582	1,624.51	66.5374	1,624.51	69.8352	1,624.51	64.7517	1,624.51	72.2628	1,624.51	67.5799	1,624.51	69.9015	1,624.51	71.7266	1,624.51	67.7345	1,624.51	67.9079	1,624.51	69.6197	1,624.51	64.5497	1,624.51	69.319	1,624.51	60.6535	1,624.51	54.6903	1,624.51	64.3689
1,681.64	83.834	1,681.64	83.4415	1,681.64	83.2587	1,681.64	82.8697	1,681.64	82.5507	1,681.64	81.7206	1,681.64	82.6691	1,681.64	80.559	1,681.64	81.1637	1,681.64	78.5942	1,681.64	79.746	1,681.64	78.7314	1,681.64	78.9923	1,681.64	75.4584	1,681.64	78.6214	1,681.64	72.3709	1,681.64	76.5989	1,681.64	72.9359	1,681.64	73.9145	1,681.64	70.5056	1,681.64	74.9786	1,681.64	69.5994	1,681.64	71.6294	1,681.64	71.8769	1,681.64	70.1321	1,681.64	65.0503	1,681.64	66.2165	1,681.64	68.866	1,681.64	66.5955	1,681.64	67.6828	1,681.64	70.2286	1,681.64	56.6689	1,681.64	70.2879	1,681.64	62.5516	1,681.64	60.0885	1,681.64	62.2473
1,741.7	82.9357	1,741.7	83.6667	1,741.7	82.8422	1,741.7	82.9223	1,741.7	82.4694	1,741.7	81.6382	1,741.7	82.161	1,741.7	81.2507	1,741.7	79.8557	1,741.7	80.1185	1,741.7	79.5473	1,741.7	77.6506	1,741.7	78.0016	1,741.7	75.1229	1,741.7	75.8108	1,741.7	74.4595	1,741.7	72.9544	1,741.7	73.5656	1,741.7	72.4775	1,741.7	71.6638	1,741.7	72.1094	1,741.7	71.4571	1,741.7	69.2861	1,741.7	65.3285	1,741.7	66.6108	1,741.7	62.9941	1,741.7	66.2323	1,741.7	69.5773	1,741.7	66.9039	1,741.7	69.6953	1,741.7	68.2438	1,741.7	60.3338	1,741.7	69.0802	1,741.7	62.0092	1,741.7	58.5987	1,741.7	66.2228
1,803.22	82.966	1,803.22	82.7361	1,803.22	82.4834	1,803.22	82.556	1,803.22	81.9103	1,803.22	82.1569	1,803.22	81.1043	1,803.22	81.5351	1,803.22	80.2367	1,803.22	79.9071	1,803.22	78.5445	1,803.22	77.9968	1,803.22	77.2037	1,803.22	76.2795	1,803.22	74.8339	1,803.22	74.4344	1,803.22	73.3503	1,803.22	72.0873	1,803.22	70.5277	1,803.22	72.7929	1,803.22	70.2384	1,803.22	70.4447	1,803.22	69.8282	1,803.22	72.1658	1,803.22	67.1273	1,803.22	68.2879	1,803.22	67.12	1,803.22	67.6822	1,803.22	64.5536	1,803.22	68.1341	1,803.22	68.11	1,803.22	63.9453	1,803.22	66.8287	1,803.22	60.1126	1,803.22	58.0486	1,803.22	60.8376
1,866.21	81.9065	1,866.21	81.6121	1,866.21	81.5962	1,866.21	81.33	1,866.21	81.0309	1,866.21	80.9798	1,866.21	80.2521	1,866.21	80.5415	1,866.21	79.4516	1,866.21	79.9172	1,866.21	78.4695	1,866.21	78.1356	1,866.21	76.9454	1,866.21	76.3903	1,866.21	75.4664	1,866.21	73.2208	1,866.21	73.3892	1,866.21	72.0086	1,866.21	70.5689	1,866.21	72.3017	1,866.21	69.0614	1,866.21	70.2793	1,866.21	68.4866	1,866.21	69.7901	1,866.21	67.018	1,866.21	69.4925	1,866.21	69.0151	1,866.21	70.3174	1,866.21	65.3157	1,866.21	69.6869	1,866.21	61.9282	1,866.21	62.5041	1,866.21	67.5764	1,866.21	54.1726	1,866.21	60.311	1,866.21	40.8005
1,932.13	82.1202	1,932.13	81.8271	1,932.13	82.1126	1,932.13	81.1071	1,932.13	81.4221	1,932.13	80.4448	1,932.13	80.7542	1,932.13	80.4618	1,932.13	79.7342	1,932.13	79.3035	1,932.13	78.5553	1,932.13	76.7815	1,932.13	77.0192	1,932.13	75.8691	1,932.13	75.115	1,932.13	73.4647	1,932.13	74.3018	1,932.13	68.6635	1,932.13	72.0421	1,932.13	70.675	1,932.13	68.3325	1,932.13	68.1483	1,932.13	70.077	1,932.13	69.9147	1,932.13	67.2049	1,932.13	68.9347	1,932.13	67.7093	1,932.13	68.8466	1,932.13	66.798	1,932.13	70.7003	1,932.13	66.509	1,932.13	63.3197	1,932.13	68.6087	1,932.13	63.6884	1,932.13	59.6844	1,932.13	59.8732
1,999.51	82.7709	1,999.51	82.841	1,999.51	82.5016	1,999.51	82.407	1,999.51	82.4029	1,999.51	81.1914	1,999.51	81.5779	1,999.51	79.7342	1,999.51	80.5405	1,999.51	78.772	1,999.51	79.4994	1,999.51	77.1846	1,999.51	78.1742	1,999.51	74.8844	1,999.51	77.0683	1,999.51	73.8137	1,999.51	74.6784	1,999.51	70.5141	1,999.51	73.5301	1,999.51	70.6815	1,999.51	69.0851	1,999.51	68.7962	1,999.51	70.0854	1,999.51	67.2736	1,999.51	65.0217	1,999.51	67.7235	1,999.51	68.1427	1,999.51	65.0392	1,999.51	67.6043	1,999.51	67.7103	1,999.51	63.2077	1,999.51	62.491	1,999.51	67.08	1,999.51	62.1723	1,999.51	63.1668	1,999.51	60.9177
2,069.82	83.5303	2,069.82	83.5419	2,069.82	83.3278	2,069.82	83.2381	2,069.82	82.8172	2,069.82	82.4487	2,069.82	82.2085	2,069.82	80.9592	2,069.82	81.0457	2,069.82	79.294	2,069.82	79.7414	2,069.82	77.9502	2,069.82	78.3856	2,069.82	75.5318	2,069.82	77.314	2,069.82	73.3611	2,069.82	74.7893	2,069.82	70.9822	2,069.82	73.2333	2,069.82	68.7835	2,069.82	69.8625	2,069.82	68.6835	2,069.82	67.3341	2,069.82	63.1076	2,069.82	67.3104	2,069.82	68.9581	2,069.82	65.0288	2,069.82	66.4194	2,069.82	67.3716	2,069.82	69.5925	2,069.82	66.0717	2,069.82	63.3082	2,069.82	64.9785	2,069.82	61.2835	2,069.82	57.7345	2,069.82	59.3477
2,143.07	83.5208	2,143.07	83.8616	2,143.07	83.2477	2,143.07	83.4859	2,143.07	82.4562	2,143.07	82.8736	2,143.07	81.6669	2,143.07	81.5662	2,143.07	80.4097	2,143.07	79.6977	2,143.07	78.9047	2,143.07	78.3712	2,143.07	77.495	2,143.07	76.518	2,143.07	75.4853	2,143.07	74.5229	2,143.07	74.4166	2,143.07	72.7053	2,143.07	72.4736	2,143.07	68.0453	2,143.07	69.4802	2,143.07	69.51	2,143.07	67.9465	2,143.07	66.7613	2,143.07	68.2478	2,143.07	67.296	2,143.07	62.8218	2,143.07	67.7961	2,143.07	66.2763	2,143.07	67.4199	2,143.07	66.6274	2,143.07	65.6963	2,143.07	65.9233	2,143.07	57.4736	2,143.07	58.9796	2,143.07	57.3699
2,219.24	82.6051	2,219.24	82.8087	2,219.24	82.0358	2,219.24	82.8411	2,219.24	81.5481	2,219.24	82.2271	2,219.24	80.8228	2,219.24	81.2477	2,219.24	79.4337	2,219.24	79.8821	2,219.24	78.0343	2,219.24	78.1075	2,219.24	76.1655	2,219.24	76.5323	2,219.24	74.2177	2,219.24	75.6175	2,219.24	72.742	2,219.24	73.0677	2,219.24	70.5092	2,219.24	69.5806	2,219.24	67.8653	2,219.24	69.8111	2,219.24	66.3317	2,219.24	68.5759	2,219.24	66.0421	2,219.24	67.0914	2,219.24	61.4932	2,219.24	67.6845	2,219.24	65.1722	2,219.24	68.9676	2,219.24	60.8609	2,219.24	65.8059	2,219.24	64.42	2,219.24	60.7042	2,219.24	62.7392	2,219.24	58.7609
2,296.88	81.8833	2,296.88	82.1015	2,296.88	81.594	2,296.88	81.85	2,296.88	81.5188	2,296.88	81.4108	2,296.88	80.7761	2,296.88	80.2614	2,296.88	80.1058	2,296.88	78.643	2,296.88	78.4925	2,296.88	77.0538	2,296.88	76.4099	2,296.88	74.987	2,296.88	74.7292	2,296.88	72.5922	2,296.88	72.4686	2,296.88	72.5829	2,296.88	71.0037	2,296.88	69.2841	2,296.88	69.698	2,296.88	68.6099	2,296.88	65.1143	2,296.88	66.5072	2,296.88	67.7551	2,296.88	68.2088	2,296.88	60.6049	2,296.88	67.6315	2,296.88	64.9882	2,296.88	68.8531	2,296.88	62.9276	2,296.88	62.3698	2,296.88	66.7956	2,296.88	54.2211	2,296.88	62.4966	2,296.88	46.6386
2,378.91	82.2546	2,378.91	82.3375	2,378.91	82.4758	2,378.91	82.0372	2,378.91	82.3769	2,378.91	81.3541	2,378.91	82.1238	2,378.91	80.1548	2,378.91	80.9847	2,378.91	78.5413	2,378.91	79.7612	2,378.91	76.6925	2,378.91	77.9752	2,378.91	74.6919	2,378.91	75.9538	2,378.91	72.7021	2,378.91	73.3853	2,378.91	70.6271	2,378.91	71.1367	2,378.91	67.4331	2,378.91	70.1462	2,378.91	66.9229	2,378.91	67.9276	2,378.91	62.474	2,378.91	68.3797	2,378.91	65.0045	2,378.91	64.3469	2,378.91	63.4727	2,378.91	66.5841	2,378.91	64.9659	2,378.91	66.114	2,378.91	61.8426	2,378.91	66.4256	2,378.91	56.7356	2,378.91	65.9618	2,378.91	53.6542
2,462.4	83.2201	2,462.4	83.2052	2,462.4	83.2418	2,462.4	83.0877	2,462.4	82.9606	2,462.4	82.4372	2,462.4	82.4067	2,462.4	81.4188	2,462.4	81.6167	2,462.4	79.718	2,462.4	80.0387	2,462.4	77.8715	2,462.4	77.9313	2,462.4	76.1414	2,462.4	75.395	2,462.4	73.7945	2,462.4	73.4844	2,462.4	71.6658	2,462.4	71.6775	2,462.4	68.6436	2,462.4	69.0253	2,462.4	66.6341	2,462.4	66.9342	2,462.4	65.3814	2,462.4	67.175	2,462.4	66.2721	2,462.4	66.3476	2,462.4	62.3891	2,462.4	63.8303	2,462.4	65.8576	2,462.4	64.0375	2,462.4	65.611	2,462.4	66.2556	2,462.4	60.43	2,462.4	65.4941	2,462.4	56.2453
2,548.83	82.3777	2,548.83	82.7125	2,548.83	82.0034	2,548.83	82.6392	2,548.83	82.0946	2,548.83	82.5403	2,548.83	81.3178	2,548.83	81.1194	2,548.83	80.4934	2,548.83	79.5699	2,548.83	78.6066	2,548.83	78.3081	2,548.83	76.4861	2,548.83	76.3464	2,548.83	74.0197	2,548.83	73.3572	2,548.83	71.8859	2,548.83	72.2759	2,548.83	70.1374	2,548.83	69.5637	2,548.83	67.0368	2,548.83	66.7002	2,548.83	65.2545	2,548.83	68.2622	2,548.83	63.9396	2,548.83	66.1646	2,548.83	65.1307	2,548.83	65.7299	2,548.83	61.0251	2,548.83	64.8759	2,548.83	64.8168	2,548.83	64.6386	2,548.83	64.2447	2,548.83	62.3173	2,548.83	62.2197	2,548.83	51.784
2,639.65	81.6707	2,639.65	81.3639	2,639.65	81.4447	2,639.65	81.6491	2,639.65	81.1613	2,639.65	81.1795	2,639.65	80.7001	2,639.65	80.2607	2,639.65	79.7044	2,639.65	78.5675	2,639.65	78.0474	2,639.65	76.9715	2,639.65	75.9425	2,639.65	74.534	2,639.65	73.4103	2,639.65	71.5065	2,639.65	70.9742	2,639.65	70.9597	2,639.65	68.4479	2,639.65	69.4445	2,639.65	68.2373	2,639.65	66.215	2,639.65	66.2487	2,639.65	67.9055	2,639.65	60.8086	2,639.65	66.567	2,639.65	65.4578	2,639.65	66.2701	2,639.65	61.935	2,639.65	65.0786	2,639.65	64.1906	2,639.65	63.6353	2,639.65	59.5505	2,639.65	64.0612	2,639.65	63.1966	2,639.65	51.1022
2,731.93	80.9518	2,731.93	80.7309	2,731.93	81.5345	2,731.93	81.06	2,731.93	80.9586	2,731.93	80.3745	2,731.93	80.6759	2,731.93	79.7887	2,731.93	79.2549	2,731.93	78.2566	2,731.93	77.6228	2,731.93	75.4221	2,731.93	75.1705	2,731.93	72.086	2,731.93	72.7391	2,731.93	71.4197	2,731.93	71.1299	2,731.93	68.9471	2,731.93	69.0466	2,731.93	67.4345	2,731.93	68.1671	2,731.93	65.204	2,731.93	65.9793	2,731.93	64.9934	2,731.93	63.4481	2,731.93	65.0654	2,731.93	63.2682	2,731.93	65.0559	2,731.93	60.9937	2,731.93	63.3261	2,731.93	64.2454	2,731.93	62.8544	2,731.93	61.1883	2,731.93	59.3463	2,731.93	63.2161	2,731.93	50.219
2,828.61	81.4856	2,828.61	81.442	2,828.61	81.9112	2,828.61	81.1735	2,828.61	81.6163	2,828.61	80.8064	2,828.61	80.7338	2,828.61	80.1155	2,828.61	79.1681	2,828.61	78.8561	2,828.61	77.146	2,828.61	76.1659	2,828.61	74.6282	2,828.61	74.4627	2,828.61	72.2422	2,828.61	72.9739	2,828.61	71.2749	2,828.61	68.1958	2,828.61	68.8429	2,828.61	67.5611	2,828.61	67.27	2,828.61	65.0641	2,828.61	64.5428	2,828.61	64.5542	2,828.61	63.4767	2,828.61	64.5173	2,828.61	63.0064	2,828.61	64.3102	2,828.61	62.8858	2,828.61	61.8585	2,828.61	61.989	2,828.61	57.3738	2,828.61	62.2439	2,828.61	54.9829	2,828.61	63.2338	2,828.61	56.2331
2,928.22	82.2517	2,928.22	82.0658	2,928.22	82.1948	2,928.22	81.7365	2,928.22	82.1803	2,928.22	81.6828	2,928.22	81.0616	2,928.22	80.5821	2,928.22	79.3319	2,928.22	78.8995	2,928.22	77.0123	2,928.22	77.3075	2,928.22	74.9558	2,928.22	75.6114	2,928.22	73.0817	2,928.22	73.0385	2,928.22	70.5501	2,928.22	69.0799	2,928.22	68.1718	2,928.22	67.2206	2,928.22	66.9684	2,928.22	65.7663	2,928.22	66.0383	2,928.22	65.0098	2,928.22	63.8253	2,928.22	64.4469	2,928.22	62.3945	2,928.22	64.4538	2,928.22	64.07	2,928.22	64.7291	2,928.22	63.7557	2,928.22	58.404	2,928.22	61.6762	2,928.22	56.3122	2,928.22	64.6551	2,928.22	54.124
3,030.76	82.4578	3,030.76	82.4016	3,030.76	82.085	3,030.76	82.2063	3,030.76	82.1365	3,030.76	82.0424	3,030.76	80.9856	3,030.76	81.0708	3,030.76	79.4062	3,030.76	79.2208	3,030.76	77.2118	3,030.76	77.7968	3,030.76	75.0143	3,030.76	75.6601	3,030.76	73.3014	3,030.76	72.0925	3,030.76	72.3576	3,030.76	70.69	3,030.76	71.1847	3,030.76	67.4979	3,030.76	68.3066	3,030.76	65.9754	3,030.76	68.0779	3,030.76	66.3816	3,030.76	66.1398	3,030.76	64.3813	3,030.76	64.518	3,030.76	67.434	3,030.76	62.7112	3,030.76	65.1362	3,030.76	66.1059	3,030.76	61.6242	3,030.76	63.3852	3,030.76	61.2368	3,030.76	65.3	3,030.76	59.2632
3,137.7	82.2321	3,137.7	81.9415	3,137.7	82.2986	3,137.7	82.2174	3,137.7	81.8279	3,137.7	82.2026	3,137.7	81.0053	3,137.7	81.2713	3,137.7	79.3752	3,137.7	79.9415	3,137.7	77.7822	3,137.7	78.3975	3,137.7	76.1104	3,137.7	76.0983	3,137.7	74.6665	3,137.7	73.4718	3,137.7	73.3745	3,137.7	71.779	3,137.7	71.5032	3,137.7	69.0735	3,137.7	69.8977	3,137.7	67.1468	3,137.7	68.7001	3,137.7	66.7921	3,137.7	67.1507	3,137.7	64.8762	3,137.7	67.2379	3,137.7	67.8396	3,137.7	63.9142	3,137.7	66.9781	3,137.7	66.6315	3,137.7	62.3951	3,137.7	65.2394	3,137.7	64.096	3,137.7	65.4623	3,137.7	60.241
3,249.02	82.0911	3,249.02	81.8968	3,249.02	82.0716	3,249.02	82.1438	3,249.02	82.1463	3,249.02	81.7753	3,249.02	81.0084	3,249.02	81.1911	3,249.02	79.7296	3,249.02	79.937	3,249.02	78.5546	3,249.02	78.1722	3,249.02	77.4469	3,249.02	75.3905	3,249.02	76.2436	3,249.02	73.3855	3,249.02	74.3457	3,249.02	72.0053	3,249.02	71.5751	3,249.02	69.7508	3,249.02	70.3683	3,249.02	68.2677	3,249.02	68.7433	3,249.02	66.7988	3,249.02	67.5611	3,249.02	65.8143	3,249.02	67.0276	3,249.02	67.056	3,249.02	66.5917	3,249.02	67.7561	3,249.02	66.4331	3,249.02	63.0418	3,249.02	66.2597	3,249.02	63.8233	3,249.02	65.5722	3,249.02	57.9416
3,363.28	82.6861	3,363.28	82.4784	3,363.28	83.3048	3,363.28	82.237	3,363.28	82.1913	3,363.28	81.8944	3,363.28	81.2663	3,363.28	80.7044	3,363.28	79.9117	3,363.28	79.8967	3,363.28	79.1837	3,363.28	77.5343	3,363.28	77.7188	3,363.28	74.7628	3,363.28	77.0862	3,363.28	72.9144	3,363.28	74.9682	3,363.28	70.6342	3,363.28	72.2577	3,363.28	67.5312	3,363.28	70.7515	3,363.28	67.6613	3,363.28	67.9143	3,363.28	66.7889	3,363.28	65.9906	3,363.28	65.1788	3,363.28	65.1547	3,363.28	66.7595	3,363.28	65.1674	3,363.28	66.5138	3,363.28	65.7549	3,363.28	57.9337	3,363.28	67.0146	3,363.28	62.5421	3,363.28	64.4896	3,363.28	59.5211
3,481.93	82.8999	3,481.93	83.1996	3,481.93	82.9951	3,481.93	83.1251	3,481.93	83.0331	3,481.93	82.8304	3,481.93	82.0686	3,481.93	82.5096	3,481.93	80.9954	3,481.93	81.3	3,481.93	79.712	3,481.93	79.2521	3,481.93	78.823	3,481.93	76.6605	3,481.93	77.976	3,481.93	74.6593	3,481.93	75.7394	3,481.93	72.7052	3,481.93	74.239	3,481.93	69.1467	3,481.93	72.111	3,481.93	68.7037	3,481.93	68.9467	3,481.93	67.3843	3,481.93	67.1709	3,481.93	66.8008	3,481.93	67.3151	3,481.93	68.6697	3,481.93	66.0057	3,481.93	67.2755	3,481.93	66.3471	3,481.93	63.2754	3,481.93	65.7484	3,481.93	61.6739	3,481.93	66.6502	3,481.93	60.5595
3,604.98	83.7152	3,604.98	83.5827	3,604.98	83.207	3,604.98	83.2065	3,604.98	83.7519	3,604.98	83.0141	3,604.98	82.9429	3,604.98	82.8127	3,604.98	82.4251	3,604.98	81.4244	3,604.98	81.3923	3,604.98	79.607	3,604.98	80.9553	3,604.98	77.4298	3,604.98	79.4552	3,604.98	75.471	3,604.98	77.3008	3,604.98	72.9292	3,604.98	75.8682	3,604.98	69.8932	3,604.98	74.232	3,604.98	67.8376	3,604.98	71.0624	3,604.98	66.9632	3,604.98	69.8244	3,604.98	66.7199	3,604.98	69.7213	3,604.98	66.7684	3,604.98	67.3075	3,604.98	67.5233	3,604.98	68.5578	3,604.98	65.484	3,604.98	68.1608	3,604.98	61.3649	3,604.98	67.0277	3,604.98	61.7442
3,732.42	83.8025	3,732.42	83.6679	3,732.42	83.3613	3,732.42	83.6967	3,732.42	83.0026	3,732.42	83.7767	3,732.42	82.4603	3,732.42	83.4709	3,732.42	81.7018	3,732.42	81.6111	3,732.42	81.1122	3,732.42	80.3417	3,732.42	80.7032	3,732.42	78.3429	3,732.42	79.0825	3,732.42	76.1408	3,732.42	76.9182	3,732.42	73.2706	3,732.42	75.1765	3,732.42	69.5719	3,732.42	73.5042	3,732.42	68.5431	3,732.42	71.2746	3,732.42	67.7354	3,732.42	67.8487	3,732.42	68.5274	3,732.42	67.7038	3,732.42	67.3152	3,732.42	67.0107	3,732.42	68.4854	3,732.42	68.186	3,732.42	66.8922	3,732.42	68.0428	3,732.42	60.4133	3,732.42	67.2119	3,732.42	61.4544
3,864.26	82.1837	3,864.26	81.7455	3,864.26	82.2884	3,864.26	81.873	3,864.26	80.9708	3,864.26	82.1508	3,864.26	80.5925	3,864.26	81.5142	3,864.26	80.68	3,864.26	80.9737	3,864.26	80.7965	3,864.26	79.967	3,864.26	79.6505	3,864.26	78.3603	3,864.26	77.4443	3,864.26	76.4568	3,864.26	76.1374	3,864.26	72.8739	3,864.26	74.1834	3,864.26	71.2949	3,864.26	72.1331	3,864.26	67.5408	3,864.26	69.8466	3,864.26	68.101	3,864.26	67.8121	3,864.26	68.4317	3,864.26	66.9044	3,864.26	68.522	3,864.26	65.2878	3,864.26	67.5593	3,864.26	64.6182	3,864.26	65.5916	3,864.26	67.266	3,864.26	61.4907	3,864.26	64.3131	3,864.26	61.9025
4,000.49	81.4178	4,000.49	81.0364	4,000.49	81.4159	4,000.49	80.9033	4,000.49	80.6328	4,000.49	80.9452	4,000.49	80.5049	4,000.49	80.5896	4,000.49	80.7734	4,000.49	80.7384	4,000.49	80.8157	4,000.49	78.8821	4,000.49	79.2996	4,000.49	76.8178	4,000.49	77.6828	4,000.49	74.263	4,000.49	76.5768	4,000.49	71.9829	4,000.49	73.9214	4,000.49	68.9754	4,000.49	71.7324	4,000.49	67.6922	4,000.49	69.6119	4,000.49	66.0771	4,000.49	68.3703	4,000.49	66.9642	4,000.49	64.1843	4,000.49	67.277	4,000.49	62.8756	4,000.49	66.3081	4,000.49	66.2386	4,000.49	64.921	4,000.49	67.9376	4,000.49	58.2361	4,000.49	63.6052	4,000.49	63.492
4,141.11	80.4154	4,141.11	81.1998	4,141.11	78.9535	4,141.11	80.2771	4,141.11	79.4214	4,141.11	80.6746	4,141.11	79.6189	4,141.11	82.1698	4,141.11	80.0193	4,141.11	81.6414	4,141.11	79.6175	4,141.11	79.9184	4,141.11	78.1488	4,141.11	77.7128	4,141.11	76.5442	4,141.11	74.6318	4,141.11	75.2561	4,141.11	71.8607	4,141.11	72.4402	4,141.11	69.7807	4,141.11	69.7617	4,141.11	67.5795	4,141.11	68.5667	4,141.11	65.3764	4,141.11	66.9017	4,141.11	65.715	4,141.11	63.1998	4,141.11	66.3749	4,141.11	64.1686	4,141.11	66.6393	4,141.11	65.5342	4,141.11	64.8356	4,141.11	66.1914	4,141.11	47.8731	4,141.11	64.2547	4,141.11	64.1205
4,287.6	81.4065	4,287.6	81.2371	4,287.6	81.1851	4,287.6	80.3316	4,287.6	79.789	4,287.6	80.4082	4,287.6	80.1886	4,287.6	80.8481	4,287.6	79.89	4,287.6	80.2634	4,287.6	79.549	4,287.6	79.1393	4,287.6	78.9831	4,287.6	76.6602	4,287.6	77.7975	4,287.6	74.1517	4,287.6	75.1298	4,287.6	72.3618	4,287.6	73.5502	4,287.6	71.0245	4,287.6	71.2544	4,287.6	66.9686	4,287.6	68.6248	4,287.6	65.2833	4,287.6	66.7885	4,287.6	65.5635	4,287.6	65.3895	4,287.6	67.7024	4,287.6	64.9468	4,287.6	65.0111	4,287.6	61.5788	4,287.6	64.119	4,287.6	67.7169	4,287.6	58.0814	4,287.6	61.796	4,287.6	63.5298
4,438.48	81.8554	4,438.48	81.3497	4,438.48	81.2254	4,438.48	81.378	4,438.48	79.5974	4,438.48	80.2784	4,438.48	79.1173	4,438.48	79.664	4,438.48	80.0409	4,438.48	79.4966	4,438.48	79.9386	4,438.48	78.9766	4,438.48	78.9114	4,438.48	76.6078	4,438.48	77.5455	4,438.48	74.2191	4,438.48	75.2368	4,438.48	69.7172	4,438.48	73.3676	4,438.48	68.4789	4,438.48	71.1787	4,438.48	64.7134	4,438.48	68.6756	4,438.48	64.3212	4,438.48	65.8104	4,438.48	62.64	4,438.48	64.7846	4,438.48	65.2198	4,438.48	62.868	4,438.48	65.142	4,438.48	63.1919	4,438.48	64.2197	4,438.48	68.0447	4,438.48	58.1499	4,438.48	63.5217	4,438.48	61.5862
4,595.21	80.1619	4,595.21	80.5542	4,595.21	78.7485	4,595.21	78.4489	4,595.21	79.1449	4,595.21	78.5899	4,595.21	79.117	4,595.21	78.6872	4,595.21	79.9955	4,595.21	78.7236	4,595.21	80.0883	4,595.21	78.1026	4,595.21	78.8448	4,595.21	76.3343	4,595.21	77.2834	4,595.21	72.9954	4,595.21	75.6719	4,595.21	71.0451	4,595.21	73.4196	4,595.21	66.6274	4,595.21	71.1311	4,595.21	66.2625	4,595.21	67.7344	4,595.21	63.9226	4,595.21	66.3293	4,595.21	62.9799	4,595.21	62.0483	4,595.21	62.3252	4,595.21	64.0939	4,595.21	65.503	4,595.21	64.0654	4,595.21	63.9011	4,595.21	66.977	4,595.21	53.1742	4,595.21	65.384	4,595.21	62.1624
4,756.35	80.6194	4,756.35	80.5918	4,756.35	80.1922	4,756.35	80.8031	4,756.35	78.9198	4,756.35	79.0045	4,756.35	80.463	4,756.35	79.6951	4,756.35	79.7121	4,756.35	79.2675	4,756.35	79.1424	4,756.35	77.0508	4,756.35	79.0318	4,756.35	73.8408	4,756.35	77.897	4,756.35	71.9898	4,756.35	75.5065	4,756.35	69.8264	4,756.35	74.1619	4,756.35	69.1087	4,756.35	71.328	4,756.35	64.8914	4,756.35	68.3245	4,756.35	64.3513	4,756.35	66.2844	4,756.35	64.017	4,756.35	62.6058	4,756.35	64.7971	4,756.35	64.3202	4,756.35	66.0723	4,756.35	63.2052	4,756.35	61.3991	4,756.35	66.6055	4,756.35	50.9648	4,756.35	63.9435	4,756.35	60.8017
4,924.8	80.1445	4,924.8	80.7464	4,924.8	78.3213	4,924.8	80.0109	4,924.8	79.2633	4,924.8	80.0366	4,924.8	79.2136	4,924.8	80.1625	4,924.8	80.3104	4,924.8	80.4926	4,924.8	80.4589	4,924.8	79.0925	4,924.8	79.4559	4,924.8	77.5849	4,924.8	78.2083	4,924.8	74.7835	4,924.8	76.4461	4,924.8	69.871	4,924.8	73.562	4,924.8	68.1067	4,924.8	70.9728	4,924.8	65.1477	4,924.8	68.742	4,924.8	62.2859	4,924.8	66.0944	4,924.8	61.7707	4,924.8	63.5685	4,924.8	62.3546	4,924.8	63.2112	4,924.8	61.1006	4,924.8	62.4405	4,924.8	62.789	4,924.8	65.5228	4,924.8	50.6518	4,924.8	63.1478	4,924.8	59.7321
5,097.66	81.6692	5,097.66	82.1023	5,097.66	81.6296	5,097.66	80.5615	5,097.66	81.5889	5,097.66	80.3594	5,097.66	82.0967	5,097.66	80.4172	5,097.66	82.2714	5,097.66	80.4547	5,097.66	82.2108	5,097.66	80.1087	5,097.66	81.17	5,097.66	78.3727	5,097.66	79.1711	5,097.66	75.6678	5,097.66	77.4936	5,097.66	72.7569	5,097.66	74.5684	5,097.66	68.6008	5,097.66	72.0951	5,097.66	67.8244	5,097.66	70.1865	5,097.66	66.6447	5,097.66	67.5231	5,097.66	66.6842	5,097.66	66.3164	5,097.66	63.9419	5,097.66	64.1851	5,097.66	66.8048	5,097.66	62.6718	5,097.66	64.713	5,097.66	66.6152	5,097.66	58.4242	5,097.66	64.2186	5,097.66	62.4995
5,277.83	82.9592	5,277.83	82.8888	5,277.83	82.6906	5,277.83	83.1668	5,277.83	82.4098	5,277.83	82.3136	5,277.83	82.5669	5,277.83	82.8309	5,277.83	82.3002	5,277.83	82.2348	5,277.83	81.7035	5,277.83	80.7743	5,277.83	81.1293	5,277.83	77.7316	5,277.83	79.5049	5,277.83	74.5415	5,277.83	76.2703	5,277.83	71.6348	5,277.83	74.6845	5,277.83	67.2554	5,277.83	71.9208	5,277.83	64.8835	5,277.83	69.427	5,277.83	64.2826	5,277.83	66.9902	5,277.83	65.2364	5,277.83	62.0898	5,277.83	61.685	5,277.83	61.7779	5,277.83	65.0213	5,277.83	63.5151	5,277.83	59.9767	5,277.83	65.4785	5,277.83	54.1033	5,277.83	64.567	5,277.83	59.732
5,463.87	83.1813	5,463.87	83.4153	5,463.87	82.8363	5,463.87	82.6472	5,463.87	83.0127	5,463.87	82.288	5,463.87	82.3199	5,463.87	81.7348	5,463.87	82.7264	5,463.87	81.8559	5,463.87	82.6287	5,463.87	80.6033	5,463.87	80.8208	5,463.87	78.3074	5,463.87	78.5562	5,463.87	75.9825	5,463.87	77.5069	5,463.87	72.2971	5,463.87	73.9376	5,463.87	69.6285	5,463.87	71.7163	5,463.87	66.5438	5,463.87	68.7486	5,463.87	63.8686	5,463.87	67.6506	5,463.87	64.7714	5,463.87	63.3127	5,463.87	65.4249	5,463.87	62.9653	5,463.87	64.6087	5,463.87	63.2471	5,463.87	60.9397	5,463.87	65.0114	5,463.87	57.8996	5,463.87	63.7761	5,463.87	59.0266
5,657.23	83.3174	5,657.23	83.7676	5,657.23	83.4154	5,657.23	83.3981	5,657.23	82.4481	5,657.23	82.4329	5,657.23	82.4505	5,657.23	81.999	5,657.23	81.9418	5,657.23	81.0935	5,657.23	81.8038	5,657.23	79.3761	5,657.23	80.9497	5,657.23	76.9481	5,657.23	79.3363	5,657.23	72.7852	5,657.23	76.1095	5,657.23	69.9521	5,657.23	73.1433	5,657.23	65.819	5,657.23	71.0048	5,657.23	65.6718	5,657.23	68.5918	5,657.23	64.5947	5,657.23	66.0774	5,657.23	64.245	5,657.23	64.5677	5,657.23	64.9419	5,657.23	62.8953	5,657.23	64.338	5,657.23	61.42	5,657.23	60.4364	5,657.23	63.8711	5,657.23	58.1878	5,657.23	63.2533	5,657.23	57.9349
5,856.45	83.0677	5,856.45	83.1568	5,856.45	82.8061	5,856.45	82.5443	5,856.45	82.7974	5,856.45	81.7554	5,856.45	81.9261	5,856.45	81.4907	5,856.45	81.9473	5,856.45	80.5253	5,856.45	81.5843	5,856.45	78.8913	5,856.45	80.0139	5,856.45	75.7752	5,856.45	77.3918	5,856.45	73.9945	5,856.45	74.9694	5,856.45	70.2737	5,856.45	73.1679	5,856.45	67.4119	5,856.45	69.2966	5,856.45	62.8396	5,856.45	67.9212	5,856.45	60.7967	5,856.45	65.0476	5,856.45	62.2563	5,856.45	63.4586	5,856.45	62.2302	5,856.45	62.9244	5,856.45	61.4365	5,856.45	60.1606	5,856.45	60.3079	5,856.45	63.382	5,856.45	56.0109	5,856.45	62.4843	5,856.45	56.6179
6,062.99	82.6776	6,062.99	83.0434	6,062.99	82.9171	6,062.99	83.0592	6,062.99	82.2514	6,062.99	82.5359	6,062.99	81.6969	6,062.99	81.5179	6,062.99	81.7384	6,062.99	80.6727	6,062.99	81.586	6,062.99	77.9511	6,062.99	79.7016	6,062.99	75.4238	6,062.99	77.45	6,062.99	72.1485	6,062.99	75.662	6,062.99	68.7584	6,062.99	73.0235	6,062.99	66.5548	6,062.99	70.2711	6,062.99	64.0731	6,062.99	68.2085	6,062.99	60.8512	6,062.99	64.3277	6,062.99	60.537	6,062.99	65.8969	6,062.99	63.7006	6,062.99	62.6217	6,062.99	62.5921	6,062.99	59.394	6,062.99	57.6347	6,062.99	62.0023	6,062.99	56.0375	6,062.99	61.5779	6,062.99	57.5521
6,276.86	82.4758	6,276.86	82.759	6,276.86	82.856	6,276.86	82.5993	6,276.86	81.8908	6,276.86	81.4667	6,276.86	81.8328	6,276.86	80.4367	6,276.86	81.4728	6,276.86	79.2922	6,276.86	80.0169	6,276.86	78.1514	6,276.86	78.7078	6,276.86	76.2552	6,276.86	76.6649	6,276.86	73.314	6,276.86	74.3071	6,276.86	70.0731	6,276.86	71.6763	6,276.86	66.6599	6,276.86	69.9656	6,276.86	64.6181	6,276.86	66.7097	6,276.86	59.0777	6,276.86	63.8474	6,276.86	60.7324	6,276.86	61.631	6,276.86	61.0564	6,276.86	60.5819	6,276.86	60.9103	6,276.86	54.2659	6,276.86	59.6833	6,276.86	62.3965	6,276.86	55.8619	6,276.86	62.1372	6,276.86	55.4924
6,498.05	82.5149	6,498.05	82.6662	6,498.05	82.9174	6,498.05	82.7027	6,498.05	82.2967	6,498.05	81.7205	6,498.05	81.8986	6,498.05	80.2993	6,498.05	81.9162	6,498.05	78.9438	6,498.05	80.9188	6,498.05	77.7419	6,498.05	78.5985	6,498.05	74.9349	6,498.05	76.4707	6,498.05	72.2026	6,498.05	75.1363	6,498.05	69.0552	6,498.05	72.4233	6,498.05	66.3677	6,498.05	69.399	6,498.05	63.8636	6,498.05	66.8698	6,498.05	60.8225	6,498.05	65.4971	6,498.05	61.0683	6,498.05	62.7611	6,498.05	62.2312	6,498.05	59.4788	6,498.05	58.6776	6,498.05	59.6787	6,498.05	56.6717	6,498.05	62.6253	6,498.05	56.4217	6,498.05	60.8941	6,498.05	55.1352
6,726.56	82.1575	6,726.56	82.1331	6,726.56	82.4922	6,726.56	82.1348	6,726.56	81.3542	6,726.56	80.877	6,726.56	81.4232	6,726.56	79.3136	6,726.56	80.2463	6,726.56	78.8878	6,726.56	79.4293	6,726.56	77.3425	6,726.56	78.3699	6,726.56	75.1734	6,726.56	76.6915	6,726.56	72.3458	6,726.56	74.2773	6,726.56	68.8934	6,726.56	71.117	6,726.56	65.4853	6,726.56	69.1866	6,726.56	62.7302	6,726.56	66.929	6,726.56	59.2788	6,726.56	64.1522	6,726.56	59.2601	6,726.56	60.6092	6,726.56	61.979	6,726.56	59.4139	6,726.56	61.6207	6,726.56	58.0244	6,726.56	54.3717	6,726.56	61.7249	6,726.56	56.4916	6,726.56	60.8231	6,726.56	55.6617
6,963.87	81.5602	6,963.87	81.298	6,963.87	81.4438	6,963.87	80.9269	6,963.87	81.4969	6,963.87	79.0256	6,963.87	80.3206	6,963.87	76.9264	6,963.87	79.6635	6,963.87	75.481	6,963.87	78.631	6,963.87	74.6794	6,963.87	77.0112	6,963.87	71.9242	6,963.87	75.3386	6,963.87	69.2271	6,963.87	73.0618	6,963.87	66.0451	6,963.87	70.2447	6,963.87	62.3398	6,963.87	68.4715	6,963.87	62.4952	6,963.87	65.0003	6,963.87	59.9128	6,963.87	61.0833	6,963.87	60.5196	6,963.87	60.7757	6,963.87	57.2832	6,963.87	57.9986	6,963.87	57.1629	6,963.87	53.5653	6,963.87	51.0791	6,963.87	59.1184	6,963.87	57.1442	6,963.87	61.3869	6,963.87	54.4188
7,209.96	82.8549	7,209.96	82.0089	7,209.96	83.6384	7,209.96	80.929	7,209.96	82.8106	7,209.96	77.7306	7,209.96	82.293	7,209.96	75.7105	7,209.96	80.937	7,209.96	75.5633	7,209.96	80.5294	7,209.96	74.1437	7,209.96	79.7442	7,209.96	73.1212	7,209.96	78.0345	7,209.96	69.233	7,209.96	75.0065	7,209.96	66.1365	7,209.96	72.5454	7,209.96	62.4226	7,209.96	69.7594	7,209.96	54.9829	7,209.96	66.9222	7,209.96	53.5287	7,209.96	65.2438	7,209.96	52.197	7,209.96	62.9265	7,209.96	60.1405	7,209.96	57.9544	7,209.96	60.2396	7,209.96	56.5282	7,209.96	55.1507	7,209.96	58.9513	7,209.96	55.3865	7,209.96	60.2412	7,209.96	53.8034
7,464.84	85.0051	7,464.84	84.229	7,464.84	84.9252	7,464.84	83.3017	7,464.84	84.3015	7,464.84	81.1148	7,464.84	82.6891	7,464.84	79.8322	7,464.84	81.2691	7,464.84	79.8701	7,464.84	80.529	7,464.84	78.5032	7,464.84	79.4249	7,464.84	76.3349	7,464.84	77.4255	7,464.84	73.5733	7,464.84	75.0996	7,464.84	69.4478	7,464.84	72.7902	7,464.84	66.2605	7,464.84	69.1665	7,464.84	61.6437	7,464.84	66.4675	7,464.84	58.1505	7,464.84	63.4834	7,464.84	59.6208	7,464.84	63.0195	7,464.84	60.3616	7,464.84	58.6303	7,464.84	60.1307	7,464.84	53.6492	7,464.84	56.0771	7,464.84	59.2147	7,464.84	56.5234	7,464.84	60.6218	7,464.84	54.4747
7,727.05	86.2564	7,727.05	85.4192	7,727.05	86.1297	7,727.05	84.1285	7,727.05	85.5254	7,727.05	82.4463	7,727.05	83.649	7,727.05	80.9676	7,727.05	82.2546	7,727.05	80.3728	7,727.05	81.5328	7,727.05	79.1937	7,727.05	80.1434	7,727.05	76.8747	7,727.05	78.5382	7,727.05	74.0973	7,727.05	76.1161	7,727.05	70.6078	7,727.05	73.5609	7,727.05	67.9914	7,727.05	70.3932	7,727.05	63.8574	7,727.05	68.0658	7,727.05	59.7417	7,727.05	65.8666	7,727.05	61.698	7,727.05	61.7856	7,727.05	60.7738	7,727.05	58.8134	7,727.05	58.8009	7,727.05	58.3087	7,727.05	58.5094	7,727.05	59.755	7,727.05	57.0232	7,727.05	61.2983	7,727.05	54.7408
7,999.51	85.7335	7,999.51	84.8801	7,999.51	85.3013	7,999.51	83.3729	7,999.51	84.6596	7,999.51	82.1939	7,999.51	82.5064	7,999.51	81.1579	7,999.51	81.4099	7,999.51	80.9781	7,999.51	80.4184	7,999.51	79.6797	7,999.51	78.9838	7,999.51	77.6192	7,999.51	77.2782	7,999.51	74.6288	7,999.51	75.0721	7,999.51	70.4464	7,999.51	71.9822	7,999.51	66.9397	7,999.51	68.3934	7,999.51	62.5993	7,999.51	66.1229	7,999.51	59.8498	7,999.51	63.4586	7,999.51	60.1901	7,999.51	58.9989	7,999.51	60.7646	7,999.51	56.3454	7,999.51	58.0382	7,999.51	56.712	7,999.51	56.8811	7,999.51	59.3699	7,999.51	56.2293	7,999.51	57.3031	7,999.51	51.6905
8,282.23	85.2639	8,282.23	84.4072	8,282.23	84.9808	8,282.23	82.7735	8,282.23	84.2511	8,282.23	81.8974	8,282.23	82.169	8,282.23	80.499	8,282.23	81.0794	8,282.23	79.8144	8,282.23	79.9491	8,282.23	78.2372	8,282.23	78.8544	8,282.23	75.6375	8,282.23	77.0177	8,282.23	72.3605	8,282.23	73.7918	8,282.23	68.2606	8,282.23	70.7056	8,282.23	65.2099	8,282.23	67.3944	8,282.23	60.9458	8,282.23	65.2388	8,282.23	58.0081	8,282.23	62.6391	8,282.23	58.4355	8,282.23	57.7538	8,282.23	58.9348	8,282.23	54.7884	8,282.23	54.6423	8,282.23	54.0872	8,282.23	56.158	8,282.23	56.9331	8,282.23	56.7716	8,282.23	57.8088	8,282.23	52.0184
8,573.73	84.8333	8,573.73	83.8988	8,573.73	84.4832	8,573.73	82.1344	8,573.73	83.3573	8,573.73	81.254	8,573.73	81.5536	8,573.73	79.3224	8,573.73	80.1886	8,573.73	78.5319	8,573.73	79.3683	8,573.73	77.2105	8,573.73	77.8386	8,573.73	74.5624	8,573.73	75.4619	8,573.73	71.0262	8,573.73	72.1484	8,573.73	66.9003	8,573.73	69.2211	8,573.73	63.8088	8,573.73	66.1548	8,573.73	59.2103	8,573.73	63.7999	8,573.73	58.0473	8,573.73	60.9515	8,573.73	56.9693	8,573.73	55.8234	8,573.73	57.8412	8,573.73	53.269	8,573.73	50.9089	8,573.73	54.3723	8,573.73	54.6813	8,573.73	56.9454	8,573.73	56.7845	8,573.73	55.0506	8,573.73	46.0196
8,876.95	84.6975	8,876.95	83.4055	8,876.95	84.4124	8,876.95	81.1895	8,876.95	83.2502	8,876.95	80.1273	8,876.95	81.6638	8,876.95	78.0615	8,876.95	79.9301	8,876.95	76.8714	8,876.95	79.3032	8,876.95	75.2397	8,876.95	77.4495	8,876.95	71.4978	8,876.95	75.1984	8,876.95	68.3337	8,876.95	72.3039	8,876.95	64.0467	8,876.95	69.5301	8,876.95	61.1502	8,876.95	66.2468	8,876.95	57.7044	8,876.95	63.6611	8,876.95	57.3659	8,876.95	62.1721	8,876.95	56.3907	8,876.95	55.9676	8,876.95	54.1211	8,876.95	54.8805	8,876.95	43.2934	8,876.95	53.6719	8,876.95	48.8632	8,876.95	57.5935	8,876.95	54.5162	8,876.95	55.941	8,876.95	47.6853
9,188.96	83.5289	9,188.96	82.1038	9,188.96	83.3735	9,188.96	80.2481	9,188.96	82.0191	9,188.96	79.1995	9,188.96	80.558	9,188.96	76.7721	9,188.96	78.9268	9,188.96	75.0035	9,188.96	78.362	9,188.96	72.6223	9,188.96	76.4791	9,188.96	69.3295	9,188.96	74.2477	9,188.96	65.1751	9,188.96	71.8022	9,188.96	61.6208	9,188.96	68.409	9,188.96	58.1788	9,188.96	65.1822	9,188.96	53.0483	9,188.96	62.8988	9,188.96	52.2771	9,188.96	59.556	9,188.96	55.3816	9,188.96	55.7135	9,188.96	53.1876	9,188.96	54.898	9,188.96	47.0649	9,188.96	54.1285	9,188.96	44.8273	9,188.96	56.7298	9,188.96	51.2543	9,188.96	54.4767	9,188.96	43.905
9,514.16	83.3659	9,514.16	81.9204	9,514.16	83.3154	9,514.16	80.1216	9,514.16	81.9533	9,514.16	79.0156	9,514.16	80.5596	9,514.16	76.3834	9,514.16	78.8609	9,514.16	74.5924	9,514.16	78.1449	9,514.16	71.4998	9,514.16	75.8264	9,514.16	68.4993	9,514.16	73.1161	9,514.16	65.9464	9,514.16	70.6226	9,514.16	62.8036	9,514.16	67.0169	9,514.16	59.1801	9,514.16	64.2061	9,514.16	56.5291	9,514.16	61.418	9,514.16	53.546	9,514.16	58.9196	9,514.16	51.6299	9,514.16	54.3935	9,514.16	51.418	9,514.16	55.2548	9,514.16	48.8255	9,514.16	51.6027	9,514.16	47.2582	9,514.16	53.2249	9,514.16	51.3208	9,514.16	53.1991	9,514.16	41.8102
9,849.61	83.7204	9,849.61	82.6122	9,849.61	83.5632	9,849.61	81.0849	9,849.61	82.1585	9,849.61	79.8745	9,849.61	80.8901	9,849.61	77.5518	9,849.61	79.1641	9,849.61	75.5529	9,849.61	77.6044	9,849.61	73.2781	9,849.61	75.068	9,849.61	70.6619	9,849.61	72.0445	9,849.61	68.0433	9,849.61	69.372	9,849.61	64.657	9,849.61	66.3498	9,849.61	60.4087	9,849.61	63.5988	9,849.61	58.0074	9,849.61	60.6727	9,849.61	55.5525	9,849.61	57.5802	9,849.61	51.9185	9,849.61	56.0948	9,849.61	51.8566	9,849.61	53.1716	9,849.61	47.7084	9,849.61	51.7223	9,849.61	48.7696	9,849.61	50.3027	9,849.61	50.069	9,849.61	51.777	9,849.61	46.3874
10,196.8	84.4716	10,196.8	83.4132	10,196.8	84.2415	10,196.8	81.879	10,196.8	82.9167	10,196.8	80.2293	10,196.8	81.4268	10,196.8	77.4747	10,196.8	79.3812	10,196.8	75.1176	10,196.8	77.1591	10,196.8	73.2674	10,196.8	74.802	10,196.8	70.988	10,196.8	71.8238	10,196.8	68.2118	10,196.8	69.2249	10,196.8	64.1129	10,196.8	66.5652	10,196.8	60.0501	10,196.8	63.313	10,196.8	58.7261	10,196.8	60.8106	10,196.8	55.1942	10,196.8	57.418	10,196.8	54.2727	10,196.8	55.3234	10,196.8	50.3438	10,196.8	53.8649	10,196.8	39.8882	10,196.8	50.1398	10,196.8	47.9058	10,196.8	51.6313	10,196.8	48.271	10,196.8	50.6435	10,196.8	47.259
10,555.7	84.2733	10,555.7	83.615	10,555.7	84.0397	10,555.7	82.0298	10,555.7	82.8785	10,555.7	80.1476	10,555.7	81.2844	10,555.7	77.2313	10,555.7	78.7424	10,555.7	74.6522	10,555.7	76.0874	10,555.7	73.5422	10,555.7	73.5355	10,555.7	71.7633	10,555.7	71.056	10,555.7	68.22	10,555.7	69.1492	10,555.7	64.1383	10,555.7	66.1777	10,555.7	61.413	10,555.7	62.7233	10,555.7	58.5584	10,555.7	60.4121	10,555.7	54.5028	10,555.7	56.8986	10,555.7	49.9568	10,555.7	56.5164	10,555.7	49.9199	10,555.7	53.8983	10,555.7	38.9213	10,555.7	49.0387	10,555.7	47.7776	10,555.7	52.4727	10,555.7	49.6988	10,555.7	47.1716	10,555.7	47.5889
10,927.7	83.693	10,927.7	83.361	10,927.7	83.7755	10,927.7	81.6559	10,927.7	82.5368	10,927.7	79.7845	10,927.7	81.068	10,927.7	76.4196	10,927.7	77.9607	10,927.7	74.026	10,927.7	75.4661	10,927.7	73.203	10,927.7	73.448	10,927.7	71.7282	10,927.7	71.9645	10,927.7	67.9274	10,927.7	69.5463	10,927.7	63.4725	10,927.7	66.2467	10,927.7	60.5728	10,927.7	63.2361	10,927.7	57.979	10,927.7	60.6601	10,927.7	52.1823	10,927.7	56.8587	10,927.7	48.3178	10,927.7	57.1365	10,927.7	47.8113	10,927.7	53.8128	10,927.7	36.0882	10,927.7	49.4605	10,927.7	46.7186	10,927.7	51.6082	10,927.7	47.4239	10,927.7	48.4144	10,927.7	47.752
11,313	82.8298	11,313	82.5953	11,313	83.1419	11,313	80.9017	11,313	82.1624	11,313	78.5753	11,313	80.7159	11,313	75.0862	11,313	77.5545	11,313	73.1624	11,313	75.1329	11,313	72.1336	11,313	73.4306	11,313	69.692	11,313	71.2086	11,313	65.5526	11,313	68.9192	11,313	61.5022	11,313	65.4184	11,313	58.4703	11,313	61.8241	11,313	55.9089	11,313	58.8289	11,313	51.1021	11,313	55.2007	11,313	45.6862	11,313	54.7091	11,313	43.8224	11,313	52.79	11,313	38.8436	11,313	48.0156	11,313	46.2811	11,313	49.4549	11,313	47.0889	11,313	46.0663	11,313	41.8697
11,712.9	82.2866	11,712.9	82.0447	11,712.9	82.5309	11,712.9	80.1199	11,712.9	81.8579	11,712.9	77.2238	11,712.9	80.1065	11,712.9	74.0811	11,712.9	76.9743	11,712.9	71.7825	11,712.9	74.2966	11,712.9	70.025	11,712.9	72.6189	11,712.9	66.805	11,712.9	70.025	11,712.9	61.9115	11,712.9	66.8031	11,712.9	58.3046	11,712.9	62.8642	11,712.9	53.7065	11,712.9	59.3286	11,712.9	51.0388	11,712.9	56.3529	11,712.9	46.1254	11,712.9	52.4845	11,712.9	29.2638	11,712.9	52.9921	11,712.9	44.8877	11,712.9	50.0863	11,712.9	33.9238	11,712.9	44.6372	11,712.9	42.9336	11,712.9	46.3431	11,712.9	42.8974	11,712.9	42.2528	11,712.9	41.01
12,126	82.487	12,126	81.991	12,126	82.6381	12,126	79.8997	12,126	81.9978	12,126	76.5582	12,126	79.9817	12,126	73.3402	12,126	76.6868	12,126	70.2981	12,126	73.6621	12,126	66.6082	12,126	71.4967	12,126	62.0907	12,126	68.0131	12,126	56.0178	12,126	64.2769	12,126	52.3321	12,126	60.0848	12,126	48.057	12,126	56.4201	12,126	46.2381	12,126	54.1423	12,126	40.0166	12,126	49.5297	12,126	31.8491	12,126	50.0823	12,126	40.0878	12,126	47.4545	12,126	13.887	12,126	44.4273	12,126	37.9704	12,126	46.4913	12,126	32.3911	12,126	35.2241	12,126	42.2187
12,553.7	82.8564	12,553.7	82.2355	12,553.7	82.9671	12,553.7	79.8325	12,553.7	82.0828	12,553.7	76.2495	12,553.7	79.7401	12,553.7	72.6848	12,553.7	76.1381	12,553.7	68.7818	12,553.7	72.6948	12,553.7	63.2562	12,553.7	69.3687	12,553.7	57.8142	12,553.7	64.2202	12,553.7	53.7469	12,553.7	59.1742	12,553.7	50.7892	12,553.7	55.5344	12,553.7	49.6682	12,553.7	53.1478	12,553.7	44.7749	12,553.7	50.5832	12,553.7	39.5508	12,553.7	45.2166	12,553.7	37.6853	12,553.7	47.4686	12,553.7	33.1432	12,553.7	44.452	12,553.7	36.4448	12,553.7	40.9059	12,553.7	35.6291	12,553.7	45.6903	12,553.7	37.4677	12,553.7	26.7984	12,553.7	39.5882
12,996.1	83.1818	12,996.1	82.356	12,996.1	83.1061	12,996.1	79.606	12,996.1	81.8819	12,996.1	75.9135	12,996.1	79.1814	12,996.1	72.3347	12,996.1	75.412	12,996.1	67.9116	12,996.1	71.9866	12,996.1	62.7713	12,996.1	67.4217	12,996.1	61.3011	12,996.1	62.0468	12,996.1	58.9516	12,996.1	60.5746	12,996.1	56.1127	12,996.1	57.5756	12,996.1	52.5928	12,996.1	56.1437	12,996.1	47.9327	12,996.1	51.4449	12,996.1	43.6559	12,996.1	48.985	12,996.1	41.111	12,996.1	49.3888	12,996.1	36.2503	12,996.1	45.1252	12,996.1	40.9351	12,996.1	40.1717	12,996.1	33.6093	12,996.1	48.0826	12,996.1	40.7586	12,996.1	39.1064	12,996.1	39.6973
13,454.6	83.2025	13,454.6	82.252	13,454.6	83.0275	13,454.6	79.1189	13,454.6	81.5509	13,454.6	75.4083	13,454.6	78.542	13,454.6	71.4621	13,454.6	74.8043	13,454.6	66.0716	13,454.6	70.9286	13,454.6	63.67	13,454.6	66.6933	13,454.6	63.1506	13,454.6	63.1644	13,454.6	60.9339	13,454.6	62.4476	13,454.6	57.4055	13,454.6	59.9988	13,454.6	52.8312	13,454.6	58.903	13,454.6	49.8363	13,454.6	52.4857	13,454.6	45.4528	13,454.6	51.276	13,454.6	43.3541	13,454.6	53.1346	13,454.6	35.2086	13,454.6	47.1365	13,454.6	39.2487	13,454.6	45.0445	13,454.6	29.9848	13,454.6	47.6353	13,454.6	37.5731	13,454.6	41.7148	13,454.6	36.758
13,929.2	82.8675	13,929.2	81.8205	13,929.2	82.801	13,929.2	78.5445	13,929.2	81.5083	13,929.2	74.9699	13,929.2	78.5089	13,929.2	69.953	13,929.2	74.807	13,929.2	64.159	13,929.2	70.3773	13,929.2	64.8345	13,929.2	66.7932	13,929.2	63.9346	13,929.2	64.4856	13,929.2	60.7586	13,929.2	63.4388	13,929.2	56.7895	13,929.2	60.4002	13,929.2	53.2424	13,929.2	58.341	13,929.2	48.089	13,929.2	52.1527	13,929.2	44.089	13,929.2	51.8674	13,929.2	42.7213	13,929.2	53.0245	13,929.2	29.88	13,929.2	47.5288	13,929.2	39.9463	13,929.2	43.2356	13,929.2	34.5149	13,929.2	46.8224	13,929.2	36.1352	13,929.2	41.3803	13,929.2	38.2765
14,419.9	82.4081	14,419.9	81.3367	14,419.9	82.5752	14,419.9	78.129	14,419.9	81.3818	14,419.9	74.1633	14,419.9	78.3152	14,419.9	68.4479	14,419.9	74.354	14,419.9	63.7378	14,419.9	69.5222	14,419.9	64.546	14,419.9	65.2124	14,419.9	63.6058	14,419.9	64.2748	14,419.9	59.95	14,419.9	62.2538	14,419.9	56.036	14,419.9	59.3206	14,419.9	53.2905	14,419.9	57.0062	14,419.9	47.5294	14,419.9	51.6736	14,419.9	42.3875	14,419.9	52.1374	14,419.9	40.6938	14,419.9	51.058	14,419.9	32.5347	14,419.9	46.6225	14,419.9	39.6543	14,419.9	42.1024	14,419.9	30.3874	14,419.9	45.4382	14,419.9	33.4958	14,419.9	36.1258	14,419.9	35.1223
14,928.2	81.9534	14,928.2	80.6125	14,928.2	82.0835	14,928.2	77.2652	14,928.2	80.7453	14,928.2	72.9333	14,928.2	77.4424	14,928.2	66.7458	14,928.2	72.9008	14,928.2	64.0627	14,928.2	66.6796	14,928.2	64.8335	14,928.2	64.0659	14,928.2	62.7806	14,928.2	64.5479	14,928.2	58.2754	14,928.2	62.4029	14,928.2	55.1436	14,928.2	59.7934	14,928.2	51.0633	14,928.2	56.579	14,928.2	45.7353	14,928.2	52.0607	14,928.2	41.5863	14,928.2	52.0225	14,928.2	39.2179	14,928.2	50.4141	14,928.2	30.5401	14,928.2	46.7267	14,928.2	36.0682	14,928.2	41.1605	14,928.2	24.5199	14,928.2	44.4454	14,928.2	35.0495	14,928.2	38.016	14,928.2	25.433
15,455.6	81.4865	15,455.6	79.9323	15,455.6	81.3971	15,455.6	76.5404	15,455.6	79.9368	15,455.6	72.2846	15,455.6	76.8568	15,455.6	67.0653	15,455.6	71.6561	15,455.6	64.3096	15,455.6	65.1792	15,455.6	63.9927	15,455.6	65.7631	15,455.6	61.5673	15,455.6	65.86	15,455.6	55.6148	15,455.6	63.1654	15,455.6	53.2171	15,455.6	60.5919	15,455.6	48.6623	15,455.6	55.7166	15,455.6	45.2864	15,455.6	53.6352	15,455.6	41.3934	15,455.6	52.3087	15,455.6	42.951	15,455.6	49.4969	15,455.6	28.7558	15,455.6	45.5174	15,455.6	35.0191	15,455.6	43.6577	15,455.6	29.0361	15,455.6	44.109	15,455.6	37.5294	15,455.6	28.4608	15,455.6	26.4969
16,000.5	81.0681	16,000.5	79.4916	16,000.5	81.0513	16,000.5	76.6112	16,000.5	79.439	16,000.5	71.2663	16,000.5	76.3199	16,000.5	66.4063	16,000.5	71.5292	16,000.5	63.5082	16,000.5	65.6791	16,000.5	60.3748	16,000.5	65.3143	16,000.5	59.3521	16,000.5	64.7699	16,000.5	57.1574	16,000.5	62.1475	16,000.5	52.8598	16,000.5	59.6075	16,000.5	49.5216	16,000.5	54.7787	16,000.5	44.9551	16,000.5	53.1386	16,000.5	37.594	16,000.5	51.0039	16,000.5	38.1053	16,000.5	46.8671	16,000.5	29.185	16,000.5	42.9574	16,000.5	29.9667	16,000.5	40.5769	16,000.5	31.3399	16,000.5	42.8088	16,000.5	34.5766	16,000.5	23.0442	16,000.5	33.1646
16,564.5	80.9927	16,564.5	79.3102	16,564.5	81.1657	16,564.5	76.0213	16,564.5	79.4823	16,564.5	70.1643	16,564.5	76.2638	16,564.5	65.8144	16,564.5	70.9351	16,564.5	61.2497	16,564.5	64.0725	16,564.5	59.5834	16,564.5	62.8957	16,564.5	61.0762	16,564.5	61.9295	16,564.5	58.4836	16,564.5	60.4148	16,564.5	53.9791	16,564.5	58.2689	16,564.5	50.8787	16,564.5	54.6596	16,564.5	42.6025	16,564.5	52.1521	16,564.5	38.3222	16,564.5	49.4108	16,564.5	36.371	16,564.5	44.9025	16,564.5	33.7874	16,564.5	41.5348	16,564.5	25.1513	16,564.5	39.6862	16,564.5	36.0429	16,564.5	42.2193	16,564.5	29.9768	16,564.5	32.2577	16,564.5	32.3909
17,148.9	81.1316	17,148.9	79.5476	17,148.9	80.9996	17,148.9	75.8995	17,148.9	78.9026	17,148.9	70.1044	17,148.9	75.188	17,148.9	64.7441	17,148.9	68.3806	17,148.9	60.3898	17,148.9	61.4413	17,148.9	61.2038	17,148.9	59.4569	17,148.9	62.1536	17,148.9	60.6225	17,148.9	57.9492	17,148.9	59.7501	17,148.9	54.5911	17,148.9	57.0688	17,148.9	49.5052	17,148.9	54.4618	17,148.9	42.0837	17,148.9	49.7386	17,148.9	31.4897	17,148.9	47.9288	17,148.9	36.5849	17,148.9	44.858	17,148.9	29.6824	17,148.9	38.9717	17,148.9	28.1309	17,148.9	36.0428	17,148.9	36.1935	17,148.9	41.9527	17,148.9	17.3856	17,148.9	33.6577	17,148.9	30.6501
17,752.4	80.8546	17,752.4	78.9907	17,752.4	80.6403	17,752.4	75.2452	17,752.4	78.2629	17,752.4	69.5483	17,752.4	73.9835	17,752.4	64.0355	17,752.4	66.4051	17,752.4	59.5886	17,752.4	60.2374	17,752.4	61.5212	17,752.4	57.8095	17,752.4	61.2502	17,752.4	61.3628	17,752.4	57.0959	17,752.4	60.2032	17,752.4	53.0731	17,752.4	56.5357	17,752.4	47.3431	17,752.4	53.0202	17,752.4	42.1115	17,752.4	48.5704	17,752.4	32.9433	17,752.4	47.7605	17,752.4	38.0809	17,752.4	42.4956	17,752.4	28.3234	17,752.4	39.8994	17,752.4	33.7387	17,752.4	37.5378	17,752.4	32.3062	17,752.4	37.2182	17,752.4	25.8934	17,752.4	29.3143	17,752.4	28.0061
18,379.4	80.283	18,379.4	78.3437	18,379.4	80.0047	18,379.4	74.0544	18,379.4	77.3606	18,379.4	68.2635	18,379.4	72.8443	18,379.4	61.3065	18,379.4	65.4485	18,379.4	59.447	18,379.4	58.3387	18,379.4	59.909	18,379.4	59.728	18,379.4	58.7962	18,379.4	62.2728	18,379.4	55.3456	18,379.4	60.3687	18,379.4	51.0261	18,379.4	56.0868	18,379.4	46.3774	18,379.4	52.401	18,379.4	40.1192	18,379.4	48.6879	18,379.4	31.0839	18,379.4	47.2979	18,379.4	34.8831	18,379.4	40.4483	18,379.4	27.8678	18,379.4	38.5564	18,379.4	32.4075	18,379.4	36.4348	18,379.4	30.474	18,379.4	34.2209	18,379.4	26.2034	18,379.4	24.4181	18,379.4	25.8227
19,026.9	79.6439	19,026.9	77.6538	19,026.9	79.4726	19,026.9	73.2465	19,026.9	76.6184	19,026.9	67.6718	19,026.9	71.5848	19,026.9	58.0984	19,026.9	64.4304	19,026.9	59.6611	19,026.9	58.0565	19,026.9	58.6016	19,026.9	60.4358	19,026.9	58.9449	19,026.9	61.535	19,026.9	57.1241	19,026.9	59.6208	19,026.9	51.7997	19,026.9	55.3761	19,026.9	46.6411	19,026.9	51.1848	19,026.9	40.6744	19,026.9	48.892	19,026.9	35.8047	19,026.9	46.5081	19,026.9	37.9757	19,026.9	35.8632	19,026.9	19.628	19,026.9	36.5757	19,026.9	22.6403	19,026.9	33.76	19,026.9	26.8858	19,026.9	32.5733	19,026.9	27.2966	19,026.9	25.351	19,026.9	19.3963
19,697.8	79.0273	19,697.8	77.0773	19,697.8	78.7291	19,697.8	72.5996	19,697.8	75.7379	19,697.8	66.0666	19,697.8	70.1903	19,697.8	56.2459	19,697.8	63.5193	19,697.8	58.7514	19,697.8	58.8757	19,697.8	59.0506	19,697.8	59.8201	19,697.8	60.4597	19,697.8	59.6289	19,697.8	58.2135	19,697.8	58.6578	19,697.8	52.4582	19,697.8	54.8106	19,697.8	47.9369	19,697.8	50.691	19,697.8	41.3973	19,697.8	47.9964	19,697.8	37.14	19,697.8	44.5144	19,697.8	38.6209	19,697.8	26.3422	19,697.8	15.8088	19,697.8	33.524	19,697.8	16.3035	19,697.8	29.2159	19,697.8	13.7022	19,697.8	31.5951	19,697.8	27.0844	19,697.8	24.6281	19,697.8	19.2169
19,999.5	78.8508	19,999.5	77.0147	19,999.5	78.2486	19,999.5	72.0898	19,999.5	75.302	19,999.5	65.2103	19,999.5	69.6539	19,999.5	57.9923	19,999.5	62.3032	19,999.5	58.3046	19,999.5	59.481	19,999.5	58.6333	19,999.5	58.5601	19,999.5	61.2152	19,999.5	58.4486	19,999.5	57.3448	19,999.5	58.4744	19,999.5	52.7831	19,999.5	54.7864	19,999.5	49.7371	19,999.5	52.4808	19,999.5	36.1303	19,999.5	49.1689	19,999.5	36.8314	19,999.5	45.268	19,999.5	30.512	19,999.5	37.518	19,999.5	32.8992	19,999.5	39.822	19,999.5	32.4103	19,999.5	39.0555	19,999.5	37.9037	19,999.5	32.7628	19,999.5	33.6509	19,999.5	33.3929	19,999.5	34.8278
