"SPL Vertical"
"On-Axis"		"10°"		"-10°"		"20°"		"-20°"		"30°"		"-30°"		"40°"		"-40°"		"50°"		"-50°"		"60°"		"-60°"		"70°"		"-70°"		"80°"		"-80°"		"90°"		"-90°"		"100°"		"-100°"		"110°"		"-110°"		"120°"		"-120°"		"130°"		"-130°"		"140°"		"-140°"		"150°"		"-150°"		"160°"		"-160°"		"170°"		"-170°"		"180°"
"Frequency / Hz"	"Sound Pressure Level / dB (re 20 µPa/V)  [2.83  V @ 1. m]"	"Frequency / Hz"	"Sound Pressure Level / dB (re 20 µPa/V)  [2.83  V @ 1. m]"	"Frequency / Hz"	"Sound Pressure Level / dB (re 20 µPa/V)  [2.83  V @ 1. m]"	"Frequency / Hz"	"Sound Pressure Level / dB (re 20 µPa/V)  [2.83  V @ 1. m]"	"Frequency / Hz"	"Sound Pressure Level / dB (re 20 µPa/V)  [2.83  V @ 1. m]"	"Frequency / Hz"	"Sound Pressure Level / dB (re 20 µPa/V)  [2.83  V @ 1. m]"	"Frequency / Hz"	"Sound Pressure Level / dB (re 20 µPa/V)  [2.83  V @ 1. m]"	"Frequency / Hz"	"Sound Pressure Level / dB (re 20 µPa/V)  [2.83  V @ 1. m]"	"Frequency / Hz"	"Sound Pressure Level / dB (re 20 µPa/V)  [2.83  V @ 1. m]"	"Frequency / Hz"	"Sound Pressure Level / dB (re 20 µPa/V)  [2.83  V @ 1. m]"	"Frequency / Hz"	"Sound Pressure Level / dB (re 20 µPa/V)  [2.83  V @ 1. m]"	"Frequency / Hz"	"Sound Pressure Level / dB (re 20 µPa/V)  [2.83  V @ 1. m]"	"Frequency / Hz"	"Sound Pressure Level / dB (re 20 µPa/V)  [2.83  V @ 1. m]"	"Frequency / Hz"	"Sound Pressure Level / dB (re 20 µPa/V)  [2.83  V @ 1. m]"	"Frequency / Hz"	"Sound Pressure Level / dB (re 20 µPa/V)  [2.83  V @ 1. m]"	"Frequency / Hz"	"Sound Pressure Level / dB (re 20 µPa/V)  [2.83  V @ 1. m]"	"Frequency / Hz"	"Sound Pressure Level / dB (re 20 µPa/V)  [2.83  V @ 1. m]"	"Frequency / Hz"	"Sound Pressure Level / dB (re 20 µPa/V)  [2.83  V @ 1. m]"	"Frequency / Hz"	"Sound Pressure Level / dB (re 20 µPa/V)  [2.83  V @ 1. m]"	"Frequency / Hz"	"Sound Pressure Level / dB (re 20 µPa/V)  [2.83  V @ 1. m]"	"Frequency / Hz"	"Sound Pressure Level / dB (re 20 µPa/V)  [2.83  V @ 1. m]"	"Frequency / Hz"	"Sound Pressure Level / dB (re 20 µPa/V)  [2.83  V @ 1. m]"	"Frequency / Hz"	"Sound Pressure Level / dB (re 20 µPa/V)  [2.83  V @ 1. m]"	"Frequency / Hz"	"Sound Pressure Level / dB (re 20 µPa/V)  [2.83  V @ 1. m]"	"Frequency / Hz"	"Sound Pressure Level / dB (re 20 µPa/V)  [2.83  V @ 1. m]"	"Frequency / Hz"	"Sound Pressure Level / dB (re 20 µPa/V)  [2.83  V @ 1. m]"	"Frequency / Hz"	"Sound Pressure Level / dB (re 20 µPa/V)  [2.83  V @ 1. m]"	"Frequency / Hz"	"Sound Pressure Level / dB (re 20 µPa/V)  [2.83  V @ 1. m]"	"Frequency / Hz"	"Sound Pressure Level / dB (re 20 µPa/V)  [2.83  V @ 1. m]"	"Frequency / Hz"	"Sound Pressure Level / dB (re 20 µPa/V)  [2.83  V @ 1. m]"	"Frequency / Hz"	"Sound Pressure Level / dB (re 20 µPa/V)  [2.83  V @ 1. m]"	"Frequency / Hz"	"Sound Pressure Level / dB (re 20 µPa/V)  [2.83  V @ 1. m]"	"Frequency / Hz"	"Sound Pressure Level / dB (re 20 µPa/V)  [2.83  V @ 1. m]"	"Frequency / Hz"	"Sound Pressure Level / dB (re 20 µPa/V)  [2.83  V @ 1. m]"	"Frequency / Hz"	"Sound Pressure Level / dB (re 20 µPa/V)  [2.83  V @ 1. m]"	"Frequency / Hz"	"Sound Pressure Level / dB (re 20 µPa/V)  [2.83  V @ 1. m]"
20.5078	58.1713	20.5078	58.0351	20.5078	58.2994	20.5078	57.8963	20.5078	58.415	20.5078	57.7608	20.5078	58.5146	20.5078	57.6343	20.5078	58.5957	20.5078	57.5219	20.5078	58.657	20.5078	57.4276	20.5078	58.6978	20.5078	57.3542	20.5078	58.718	20.5078	57.3033	20.5078	58.7178	20.5078	57.2756	20.5078	58.698	20.5078	57.271	20.5078	58.6597	20.5078	57.2889	20.5078	58.6042	20.5078	57.328	20.5078	58.5331	20.5078	57.3867	20.5078	58.4479	20.5078	57.463	20.5078	58.3507	20.5078	57.5544	20.5078	58.2436	20.5078	57.6581	20.5078	58.1289	20.5078	57.7708	20.5078	58.0097	20.5078	57.8892
21.9727	58.4269	21.9727	58.3465	21.9727	58.5101	21.9727	58.2738	21.9727	58.5912	21.9727	58.2132	21.9727	58.6656	21.9727	58.1679	21.9727	58.7299	21.9727	58.1397	21.9727	58.7816	21.9727	58.1293	21.9727	58.8196	21.9727	58.1362	21.9727	58.8437	21.9727	58.159	21.9727	58.8552	21.9727	58.1958	21.9727	58.8561	21.9727	58.2443	21.9727	58.8488	21.9727	58.3017	21.9727	58.8361	21.9727	58.3649	21.9727	58.8205	21.9727	58.4307	21.9727	58.8037	21.9727	58.4956	21.9727	58.7866	21.9727	58.5565	21.9727	58.7688	21.9727	58.6109	21.9727	58.749	21.9727	58.6572	21.9727	58.7251	21.9727	58.695
23.4375	57.7171	23.4375	57.6011	23.4375	57.8226	23.4375	57.4778	23.4375	57.9145	23.4375	57.3507	23.4375	57.9901	23.4375	57.2238	23.4375	58.0465	23.4375	57.1007	23.4375	58.0812	23.4375	56.9849	23.4375	58.0916	23.4375	56.8796	23.4375	58.0761	23.4375	56.7869	23.4375	58.0338	23.4375	56.7086	23.4375	57.9651	23.4375	56.6461	23.4375	57.872	23.4375	56.6002	23.4375	57.7577	23.4375	56.5716	23.4375	57.6267	23.4375	56.561	23.4375	57.4844	23.4375	56.5693	23.4375	57.3366	23.4375	56.5975	23.4375	57.1895	23.4375	56.6467	23.4375	57.0491	23.4375	56.7174	23.4375	56.9209	23.4375	56.8093
24.9023	59.4508	24.9023	59.3485	24.9023	59.5485	24.9023	59.2446	24.9023	59.6381	24.9023	59.1423	24.9023	59.7166	24.9023	59.0446	24.9023	59.7808	24.9023	58.954	24.9023	59.8278	24.9023	58.8729	24.9023	59.8553	24.9023	58.8031	24.9023	59.8615	24.9023	58.7461	24.9023	59.8457	24.9023	58.7028	24.9023	59.8083	24.9023	58.674	24.9023	59.751	24.9023	58.6603	24.9023	59.6763	24.9023	58.6619	24.9023	59.5877	24.9023	58.6786	24.9023	59.489	24.9023	58.7105	24.9023	59.3842	24.9023	58.757	24.9023	59.2771	24.9023	58.8174	24.9023	59.1712	24.9023	58.8907	24.9023	59.0697	24.9023	58.9755
26.3672	60.6512	26.3672	60.54	26.3672	60.7563	26.3672	60.4264	26.3672	60.8514	26.3672	60.3145	26.3672	60.9329	26.3672	60.2078	26.3672	60.9977	26.3672	60.1096	26.3672	61.0435	26.3672	60.0223	26.3672	61.0685	26.3672	59.9482	26.3672	61.0717	26.3672	59.889	26.3672	61.0532	26.3672	59.8458	26.3672	61.014	26.3672	59.8194	26.3672	60.956	26.3672	59.8104	26.3672	60.882	26.3672	59.8187	26.3672	60.7953	26.3672	59.8441	26.3672	60.6991	26.3672	59.8857	26.3672	60.5969	26.3672	59.9423	26.3672	60.4918	26.3672	60.0125	26.3672	60.3864	26.3672	60.0942	26.3672	60.2835	26.3672	60.1853
27.832	61.0362	27.832	60.9212	27.832	61.146	27.832	60.805	27.832	61.2469	27.832	60.6913	27.832	61.3349	27.832	60.5836	27.832	61.4064	27.832	60.4847	27.832	61.4584	27.832	60.3973	27.832	61.4886	27.832	60.3235	27.832	61.4957	27.832	60.2651	27.832	61.4794	27.832	60.2234	27.832	61.4408	27.832	60.1992	27.832	61.382	27.832	60.193	27.832	61.3061	27.832	60.2046	27.832	61.2168	27.832	60.2335	27.832	61.1178	27.832	60.2787	27.832	61.0127	27.832	60.3389	27.832	60.9049	27.832	60.4124	27.832	60.797	27.832	60.497	27.832	60.6916	27.832	60.5909
29.2969	62.0353	29.2969	61.9127	29.2969	62.1492	29.2969	61.7855	29.2969	62.25	29.2969	61.6579	29.2969	62.3341	29.2969	61.5338	29.2969	62.3979	29.2969	61.4165	29.2969	62.4387	29.2969	61.3091	29.2969	62.4547	29.2969	61.2139	29.2969	62.445	29.2969	61.133	29.2969	62.4097	29.2969	61.0679	29.2969	62.3503	29.2969	61.0197	29.2969	62.269	29.2969	60.9894	29.2969	62.169	29.2969	60.9777	29.2969	62.0544	29.2969	60.985	29.2969	61.9294	29.2969	61.0116	29.2969	61.7985	29.2969	61.0574	29.2969	61.6663	29.2969	61.122	29.2969	61.5369	29.2969	61.2043	29.2969	61.4145	29.2969	61.3026
30.7617	62.6723	30.7617	62.5722	30.7617	62.765	30.7617	62.468	30.7617	62.8469	30.7617	62.3631	30.7617	62.9148	30.7617	62.2604	30.7617	62.9659	30.7617	62.1628	30.7617	62.9977	30.7617	62.0726	30.7617	63.0084	30.7617	61.992	30.7617	62.9967	30.7617	61.9224	30.7617	62.9627	30.7617	61.8651	30.7617	62.9073	30.7617	61.8211	30.7617	62.8325	30.7617	61.7911	30.7617	62.7414	30.7617	61.7756	30.7617	62.6379	30.7617	61.775	30.7617	62.5265	30.7617	61.7895	30.7617	62.4117	30.7617	61.8195	30.7617	62.298	30.7617	61.8649	30.7617	62.1894	30.7617	61.9255	30.7617	62.0894	30.7617	62.0008
32.2266	63.2249	32.2266	63.1207	32.2266	63.3219	32.2266	63.0129	32.2266	63.4083	32.2266	62.9047	32.2266	63.4808	32.2266	62.7993	32.2266	63.5363	32.2266	62.6997	32.2266	63.572	32.2266	62.6082	32.2266	63.5859	32.2266	62.5272	32.2266	63.5765	32.2266	62.4584	32.2266	63.5437	32.2266	62.4031	32.2266	63.4883	32.2266	62.3621	32.2266	63.4126	32.2266	62.336	32.2266	63.3197	32.2266	62.3249	32.2266	63.214	32.2266	62.3288	32.2266	63.1002	32.2266	62.3476	32.2266	62.9831	32.2266	62.3811	32.2266	62.8676	32.2266	62.4291	32.2266	62.7578	32.2266	62.4914	32.2266	62.657	32.2266	62.5677
33.6914	64.016	33.6914	63.9093	33.6914	64.1153	33.6914	63.7988	33.6914	64.2039	33.6914	63.6874	33.6914	64.2787	33.6914	63.5784	33.6914	64.3363	33.6914	63.4745	33.6914	64.3741	33.6914	63.3782	33.6914	64.3898	33.6914	63.2916	33.6914	64.382	33.6914	63.2167	33.6914	64.3501	33.6914	63.1549	33.6914	64.2948	33.6914	63.1073	33.6914	64.2179	33.6914	63.0748	33.6914	64.1223	33.6914	63.0581	33.6914	64.0119	33.6914	63.0578	33.6914	63.8914	33.6914	63.0741	33.6914	63.7658	33.6914	63.1075	33.6914	63.6404	33.6914	63.1581	33.6914	63.5199	33.6914	63.2257	33.6914	63.4085	33.6914	63.3097
35.1562	64.5106	35.1562	64.405	35.1562	64.6094	35.1562	64.2961	35.1562	64.6978	35.1562	64.1874	35.1562	64.7724	35.1562	64.082	35.1562	64.8299	35.1562	63.9827	35.1562	64.8675	35.1562	63.892	35.1562	64.883	35.1562	63.8119	35.1562	64.8752	35.1562	63.7439	35.1562	64.8437	35.1562	63.6891	35.1562	64.7894	35.1562	63.6484	35.1562	64.7144	35.1562	63.6222	35.1562	64.622	35.1562	63.6107	35.1562	64.5161	35.1562	63.6142	35.1562	64.4015	35.1562	63.6326	35.1562	64.2829	35.1562	63.666	35.1562	64.1652	35.1562	63.7147	35.1562	64.0527	35.1562	63.7785	35.1562	63.949	35.1562	63.8569
36.6211	65.6446	36.6211	65.5365	36.6211	65.7429	36.6211	65.4223	36.6211	65.8279	36.6211	65.3054	36.6211	65.8963	36.6211	65.1894	36.6211	65.9453	36.6211	65.0775	36.6211	65.9724	36.6211	64.9724	36.6211	65.9761	36.6211	64.8767	36.6211	65.9553	36.6211	64.7926	36.6211	65.9103	36.6211	64.7218	36.6211	65.8422	36.6211	64.6657	36.6211	65.7536	36.6211	64.6254	36.6211	65.6477	36.6211	64.6014	36.6211	65.529	36.6211	64.5945	36.6211	65.4024	36.6211	64.6048	36.6211	65.2731	36.6211	64.6326	36.6211	65.146	36.6211	64.678	36.6211	65.0258	36.6211	64.7409	36.6211	64.9164	36.6211	64.8208
38.0859	65.8763	38.0859	65.7679	38.0859	65.9734	38.0859	65.652	38.0859	66.056	38.0859	65.532	38.0859	66.121	38.0859	65.4114	38.0859	66.1658	38.0859	65.2935	38.0859	66.1883	38.0859	65.1811	38.0859	66.1869	38.0859	65.0765	38.0859	66.1609	38.0859	64.982	38.0859	66.1102	38.0859	64.899	38.0859	66.0357	38.0859	64.8291	38.0859	65.9394	38.0859	64.7736	38.0859	65.8242	38.0859	64.7339	38.0859	65.6943	38.0859	64.7112	38.0859	65.5544	38.0859	64.7072	38.0859	65.4101	38.0859	64.7236	38.0859	65.2674	38.0859	64.7618	38.0859	65.1323	38.0859	64.8227	38.0859	65.0104	38.0859	64.9061
39.5508	66.2117	39.5508	66.1067	39.5508	66.3098	39.5508	65.9985	39.5508	66.3973	39.5508	65.8904	39.5508	66.471	39.5508	65.7858	39.5508	66.5276	39.5508	65.6872	39.5508	66.5646	39.5508	65.5971	39.5508	66.58	39.5508	65.5173	39.5508	66.5726	39.5508	65.4492	39.5508	66.5422	39.5508	65.394	39.5508	66.4897	39.5508	65.3525	39.5508	66.417	39.5508	65.3253	39.5508	66.3272	39.5508	65.3131	39.5508	66.224	39.5508	65.316	39.5508	66.1116	39.5508	65.3346	39.5508	65.9947	39.5508	65.369	39.5508	65.8777	39.5508	65.4193	39.5508	65.7649	39.5508	65.4852	39.5508	65.6599	39.5508	65.5659
41.0156	66.9262	41.0156	66.8327	41.0156	67.0159	41.0156	66.7391	41.0156	67.0979	41.0156	66.6485	41.0156	67.1686	41.0156	66.5637	41.0156	67.2248	41.0156	66.4865	41.0156	67.264	41.0156	66.4184	41.0156	67.2841	41.0156	66.3602	41.0156	67.2843	41.0156	66.3125	41.0156	67.2642	41.0156	66.2756	41.0156	67.2246	41.0156	66.2497	41.0156	67.1673	41.0156	66.235	41.0156	67.0948	41.0156	66.2316	41.0156	67.0104	41.0156	66.2398	41.0156	66.9179	41.0156	66.26	41.0156	66.8211	41.0156	66.2925	41.0156	66.724	41.0156	66.3373	41.0156	66.6301	41.0156	66.3944	41.0156	66.5423	41.0156	66.4631
42.4805	67.3893	42.4805	67.2852	42.4805	67.486	42.4805	67.1769	42.4805	67.5719	42.4805	67.0676	42.4805	67.6438	42.4805	66.96	42.4805	67.6984	42.4805	66.8569	42.4805	67.7331	42.4805	66.7605	42.4805	67.7453	42.4805	66.6728	42.4805	67.7337	42.4805	66.5955	42.4805	67.6976	42.4805	66.53	42.4805	67.6375	42.4805	66.4774	42.4805	67.5554	42.4805	66.4385	42.4805	67.4541	42.4805	66.4142	42.4805	67.3379	42.4805	66.4052	42.4805	67.2116	42.4805	66.4123	42.4805	67.0807	42.4805	66.4365	42.4805	66.9509	42.4805	66.4788	42.4805	66.8277	42.4805	66.5396	42.4805	66.7158	42.4805	66.619
43.9453	67.8259	43.9453	67.7252	43.9453	67.9261	43.9453	67.6275	43.9453	68.0222	43.9453	67.5357	43.9453	68.1103	43.9453	67.4527	43.9453	68.1867	43.9453	67.3806	43.9453	68.2483	43.9453	67.3214	43.9453	68.2922	43.9453	67.2763	43.9453	68.3168	43.9453	67.2465	43.9453	68.3213	43.9453	67.2322	43.9453	68.306	43.9453	67.2336	43.9453	68.2725	43.9453	67.25	43.9453	68.223	43.9453	67.2805	43.9453	68.1604	43.9453	67.3236	43.9453	68.0878	43.9453	67.3777	43.9453	68.0082	43.9453	67.4411	43.9453	67.9245	43.9453	67.5119	43.9453	67.8389	43.9453	67.5885	43.9453	67.7533	43.9453	67.6694
45.4102	68.3271	45.4102	68.2116	45.4102	68.4375	45.4102	68.0952	45.4102	68.5388	45.4102	67.9822	45.4102	68.6275	45.4102	67.8769	45.4102	68.7003	45.4102	67.7834	45.4102	68.7547	45.4102	67.7051	45.4102	68.7889	45.4102	67.6449	45.4102	68.802	45.4102	67.6047	45.4102	68.7942	45.4102	67.5854	45.4102	68.7667	45.4102	67.5871	45.4102	68.7217	45.4102	67.6085	45.4102	68.6623	45.4102	67.6478	45.4102	68.592	45.4102	67.7021	45.4102	68.514	45.4102	67.7683	45.4102	68.4315	45.4102	67.8431	45.4102	68.3468	45.4102	67.9232	45.4102	68.2613	45.4102	68.0062	45.4102	68.1759	45.4102	68.0907
46.875	68.9953	46.875	68.8901	46.875	69.0913	46.875	68.7791	46.875	69.1749	46.875	68.6654	46.875	69.2431	46.875	68.5524	46.875	69.2932	46.875	68.4429	46.875	69.3229	46.875	68.34	46.875	69.3306	46.875	68.2462	46.875	69.3155	46.875	68.164	46.875	69.2779	46.875	68.0955	46.875	69.2189	46.875	68.0425	46.875	69.1406	46.875	68.0064	46.875	69.0461	46.875	67.9883	46.875	68.9391	46.875	67.9888	46.875	68.8236	46.875	68.008	46.875	68.7038	46.875	68.0455	46.875	68.5837	46.875	68.1006	46.875	68.4673	46.875	68.1722	46.875	68.3579	46.875	68.2587
48.3398	69.4825	48.3398	69.3775	48.3398	69.5769	48.3398	69.2653	48.3398	69.6576	48.3398	69.1491	48.3398	69.7213	48.3398	69.0321	48.3398	69.7655	48.3398	68.917	48.3398	69.7878	48.3398	68.8067	48.3398	69.7867	48.3398	68.7038	48.3398	69.7613	48.3398	68.6105	48.3398	69.7121	48.3398	68.5293	48.3398	69.6404	48.3398	68.4621	48.3398	69.5485	48.3398	68.4109	48.3398	69.44	48.3398	68.3772	48.3398	69.3191	48.3398	68.3624	48.3398	69.1904	48.3398	68.3675	48.3398	69.0586	48.3398	68.3931	48.3398	68.9285	48.3398	68.4392	48.3398	68.8043	48.3398	68.5051	48.3398	68.6902	48.3398	68.5895
51.2695	70.1723	51.2695	70.0699	51.2695	70.2707	51.2695	69.9672	51.2695	70.3613	51.2695	69.8674	51.2695	70.4401	51.2695	69.7733	51.2695	70.5035	51.2695	69.6873	51.2695	70.548	51.2695	69.6113	51.2695	70.5713	51.2695	69.5467	51.2695	70.5716	51.2695	69.4946	51.2695	70.5485	51.2695	69.4555	51.2695	70.5031	51.2695	69.4299	51.2695	70.4374	51.2695	69.4176	51.2695	70.3547	51.2695	69.4184	51.2695	70.2593	51.2695	69.4318	51.2695	70.156	51.2695	69.4573	51.2695	70.0496	51.2695	69.4944	51.2695	69.9447	51.2695	69.5427	51.2695	69.8452	51.2695	69.6021	51.2695	69.7539	51.2695	69.6726
52.7344	70.4773	52.7344	70.372	52.7344	70.5799	52.7344	70.2679	52.7344	70.6759	52.7344	70.1685	52.7344	70.7616	52.7344	70.0771	52.7344	70.8333	52.7344	69.9966	52.7344	70.8882	52.7344	69.9293	52.7344	70.9241	52.7344	69.8768	52.7344	70.9397	52.7344	69.8403	52.7344	70.9347	52.7344	69.8201	52.7344	70.9098	52.7344	69.8157	52.7344	70.8665	52.7344	69.8263	52.7344	70.8071	52.7344	69.8507	52.7344	70.7345	52.7344	69.8872	52.7344	70.652	52.7344	69.9344	52.7344	70.5629	52.7344	69.9907	52.7344	70.4709	52.7344	70.0552	52.7344	70.3791	52.7344	70.1271	52.7344	70.29	52.7344	70.2056
54.1992	70.7121	54.1992	70.5976	54.1992	70.825	54.1992	70.4858	54.1992	70.932	54.1992	70.3811	54.1992	71.0291	54.1992	70.2872	54.1992	71.113	54.1992	70.2079	54.1992	71.1811	54.1992	70.1459	54.1992	71.2317	54.1992	70.1034	54.1992	71.264	54.1992	70.0816	54.1992	71.2783	54.1992	70.0808	54.1992	71.2755	54.1992	70.1004	54.1992	71.257	54.1992	70.139	54.1992	71.2244	54.1992	70.1945	54.1992	71.1794	54.1992	70.2642	54.1992	71.1233	54.1992	70.3451	54.1992	71.0575	54.1992	70.4341	54.1992	70.983	54.1992	70.5282	54.1992	70.901	54.1992	70.6243	54.1992	70.8129	54.1992	70.72
55.6641	71.2014	55.6641	71.0897	55.6641	71.3065	55.6641	70.9758	55.6641	71.4007	55.6641	70.8643	55.6641	71.4803	55.6641	70.7593	55.6641	71.5424	55.6641	70.6647	55.6641	71.5851	55.6641	70.5838	55.6641	71.6077	55.6641	70.5193	55.6641	71.6104	55.6641	70.4731	55.6641	71.5947	55.6641	70.4465	55.6641	71.563	55.6641	70.4402	55.6641	71.5179	55.6641	70.4538	55.6641	71.4626	55.6641	70.4862	55.6641	71.3997	55.6641	70.5355	55.6641	71.3312	55.6641	70.5991	55.6641	71.2584	55.6641	70.6739	55.6641	71.1817	55.6641	70.7563	55.6641	71.1013	55.6641	70.843	55.6641	71.0175	55.6641	70.9308
58.5938	72.5581	58.5938	72.4655	58.5938	72.6356	58.5938	72.3606	58.5938	72.6956	58.5938	72.2464	58.5938	72.7358	58.5938	72.1261	58.5938	72.7545	58.5938	72.0031	58.5938	72.75	58.5938	71.8811	58.5938	72.7215	58.5938	71.7636	58.5938	72.669	58.5938	71.6542	58.5938	72.5936	58.5938	71.5562	58.5938	72.4977	58.5938	71.4724	58.5938	72.3851	58.5938	71.4053	58.5938	72.2605	58.5938	71.3567	58.5938	72.1293	58.5938	71.3274	58.5938	71.9972	58.5938	71.3179	58.5938	71.8692	58.5938	71.3278	58.5938	71.7494	58.5938	71.3566	58.5938	71.6412	58.5938	71.4032	58.5938	71.5465	58.5938	71.4669
60.0586	72.8479	60.0586	72.749	60.0586	72.9323	60.0586	72.6387	60.0586	72.9994	60.0586	72.5199	60.0586	73.0465	60.0586	72.3956	60.0586	73.0711	60.0586	72.2689	60.0586	73.0712	60.0586	72.143	60.0586	73.0457	60.0586	72.0209	60.0586	72.9942	60.0586	71.9058	60.0586	72.9179	60.0586	71.8008	60.0586	72.8188	60.0586	71.7085	60.0586	72.7005	60.0586	71.6317	60.0586	72.5674	60.0586	71.5725	60.0586	72.4247	60.0586	71.5329	60.0586	72.278	60.0586	71.5145	60.0586	72.133	60.0586	71.5183	60.0586	71.995	60.0586	71.545	60.0586	71.8687	60.0586	71.5943	60.0586	71.7579	60.0586	71.6658
62.9883	73.7524	62.9883	73.6504	62.9883	73.8349	62.9883	73.5323	62.9883	73.8949	62.9883	73.4023	62.9883	73.9302	62.9883	73.2643	62.9883	73.9394	62.9883	73.1227	62.9883	73.9218	62.9883	72.9813	62.9883	73.8775	62.9883	72.8441	62.9883	73.8075	62.9883	72.7146	62.9883	73.7134	62.9883	72.5958	62.9883	73.5978	62.9883	72.4905	62.9883	73.4641	62.9883	72.4012	62.9883	73.3168	62.9883	72.33	62.9883	73.1608	62.9883	72.2786	62.9883	73.0021	62.9883	72.2486	62.9883	72.8466	62.9883	72.2414	62.9883	72.7003	62.9883	72.2581	62.9883	72.5687	62.9883	72.2995	62.9883	72.4561	62.9883	72.3658
64.4531	73.8399	64.4531	73.7446	64.4531	73.9195	64.4531	73.6362	64.4531	73.9812	64.4531	73.5181	64.4531	74.0236	64.4531	73.3942	64.4531	74.0458	64.4531	73.2684	64.4531	74.0472	64.4531	73.1445	64.4531	74.0275	64.4531	73.0261	64.4531	73.9869	64.4531	72.9164	64.4531	73.9256	64.4531	72.8181	64.4531	73.8446	64.4531	72.7334	64.4531	73.7454	64.4531	72.6643	64.4531	73.6303	64.4531	72.6126	64.4531	73.5026	64.4531	72.5797	64.4531	73.3662	64.4531	72.5673	64.4531	73.2263	64.4531	72.5766	64.4531	73.0884	64.4531	72.6087	64.4531	72.9583	64.4531	72.6641	64.4531	72.8414	64.4531	72.7422
67.3828	74.2355	67.3828	74.1411	67.3828	74.3193	67.3828	74.0391	67.3828	74.3902	67.3828	73.9328	67.3828	74.4462	67.3828	73.8258	67.3828	74.4859	67.3828	73.7219	67.3828	74.5079	67.3828	73.6245	67.3828	74.5116	67.3828	73.5369	67.3828	74.4966	67.3828	73.4616	67.3828	74.4632	67.3828	73.4004	67.3828	74.4123	67.3828	73.3549	67.3828	74.3457	67.3828	73.3256	67.3828	74.2653	67.3828	73.313	67.3828	74.1739	67.3828	73.3171	67.3828	74.0744	67.3828	73.3377	67.3828	73.97	67.3828	73.3743	67.3828	73.8642	67.3828	73.4262	67.3828	73.7603	67.3828	73.4924	67.3828	73.6617	67.3828	73.5716
68.8477	74.4807	68.8477	74.3874	68.8477	74.5648	68.8477	74.2878	68.8477	74.6373	68.8477	74.1853	68.8477	74.6958	68.8477	74.0835	68.8477	74.7387	68.8477	73.986	68.8477	74.7644	68.8477	73.896	68.8477	74.7721	68.8477	73.8166	68.8477	74.7614	68.8477	73.7501	68.8477	74.7328	68.8477	73.6982	68.8477	74.6875	68.8477	73.6621	68.8477	74.6274	68.8477	73.6423	68.8477	74.5546	68.8477	73.6386	68.8477	74.4719	68.8477	73.6508	68.8477	74.382	68.8477	73.6782	68.8477	74.2876	68.8477	73.7199	68.8477	74.1913	68.8477	73.7748	68.8477	74.096	68.8477	73.8417	68.8477	74.0043	68.8477	73.9188
71.7773	75.1524	71.7773	75.0519	71.7773	75.2442	71.7773	74.9463	71.7773	75.3236	71.7773	74.8395	71.7773	75.3873	71.7773	74.7353	71.7773	75.4325	71.7773	74.6371	71.7773	75.4572	71.7773	74.548	71.7773	75.4604	71.7773	74.4708	71.7773	75.4421	71.7773	74.4075	71.7773	75.4037	71.7773	74.3597	71.7773	75.3475	71.7773	74.3283	71.7773	75.277	71.7773	74.3134	71.7773	75.1958	71.7773	74.3147	71.7773	75.108	71.7773	74.3314	71.7773	75.0171	71.7773	74.362	71.7773	74.9258	71.7773	74.4051	71.7773	74.8364	71.7773	74.4588	71.7773	74.7502	71.7773	74.5216	71.7773	74.6684	71.7773	74.5919
74.707	75.782	74.707	75.6808	74.707	75.8739	74.707	75.5741	74.707	75.9529	74.707	75.4658	74.707	76.0155	74.707	75.3597	74.707	76.0592	74.707	75.2593	74.707	76.082	74.707	75.1675	74.707	76.0828	74.707	75.087	74.707	76.0616	74.707	75.0196	74.707	76.0195	74.707	74.9666	74.707	75.9586	74.707	74.9288	74.707	75.8819	74.707	74.9065	74.707	75.7931	74.707	74.8995	74.707	75.6962	74.707	74.9072	74.707	75.5952	74.707	74.9289	74.707	75.4937	74.707	74.9636	74.707	75.3949	74.707	75.0104	74.707	75.3013	74.707	75.0685	74.707	75.2149	74.707	75.1369
77.6367	76.2837	77.6367	76.1823	77.6367	76.3756	77.6367	76.0756	77.6367	76.4546	77.6367	75.9676	77.6367	76.5175	77.6367	75.8628	77.6367	76.5622	77.6367	75.765	77.6367	76.5872	77.6367	75.6777	77.6367	76.5922	77.6367	75.604	77.6367	76.5775	77.6367	75.5458	77.6367	76.5448	77.6367	75.5046	77.6367	76.4962	77.6367	75.4809	77.6367	76.4346	77.6367	75.4743	77.6367	76.3631	77.6367	75.4841	77.6367	76.2849	77.6367	75.5088	77.6367	76.2025	77.6367	75.5467	77.6367	76.1183	77.6367	75.596	77.6367	76.034	77.6367	75.6548	77.6367	75.9511	77.6367	75.7211	77.6367	75.8705	77.6367	75.7935
79.1016	76.5456	79.1016	76.4447	79.1016	76.6367	79.1016	76.3382	79.1016	76.7147	79.1016	76.2303	79.1016	76.7766	79.1016	76.1253	79.1016	76.8203	79.1016	76.0273	79.1016	76.8447	79.1016	75.9402	79.1016	76.8495	79.1016	75.867	79.1016	76.8355	79.1016	75.81	79.1016	76.8042	79.1016	75.7707	79.1016	76.7581	79.1016	75.7498	79.1016	76.7002	79.1016	75.747	79.1016	76.6336	79.1016	75.7614	79.1016	76.5612	79.1016	75.7913	79.1016	76.4852	79.1016	75.8347	79.1016	76.4073	79.1016	75.8892	79.1016	76.3287	79.1016	75.9525	79.1016	76.2502	79.1016	76.022	79.1016	76.1723	79.1016	76.0958
82.0312	77.1892	82.0312	77.0906	82.0312	77.2755	82.0312	76.9836	82.0312	77.3464	82.0312	76.8724	82.0312	77.399	82.0312	76.7615	82.0312	77.4315	82.0312	76.6552	82.0312	77.443	82.0312	76.5575	82.0312	77.4334	82.0312	76.4721	82.0312	77.4039	82.0312	76.4016	82.0312	77.3565	82.0312	76.3484	82.0312	77.2945	82.0312	76.3136	82.0312	77.2216	82.0312	76.2976	82.0312	77.1418	82.0312	76.3001	82.0312	77.0588	82.0312	76.3198	82.0312	76.9755	82.0312	76.3546	82.0312	76.8938	82.0312	76.4019	82.0312	76.8145	82.0312	76.459	82.0312	76.7378	82.0312	76.523	82.0312	76.6635	82.0312	76.5917
84.9609	77.5383	84.9609	77.4475	84.9609	77.6221	84.9609	77.3528	84.9609	77.6962	84.9609	77.2571	84.9609	77.7576	84.9609	77.1636	84.9609	77.8038	84.9609	77.0751	84.9609	77.8323	84.9609	76.9942	84.9609	77.8416	84.9609	76.9233	84.9609	77.8308	84.9609	76.8639	84.9609	77.8003	84.9609	76.8174	84.9609	77.7514	84.9609	76.7845	84.9609	77.6867	84.9609	76.7654	84.9609	77.6089	84.9609	76.7602	84.9609	77.5218	84.9609	76.7684	84.9609	77.4288	84.9609	76.7896	84.9609	77.3336	84.9609	76.8231	84.9609	77.2395	84.9609	76.8682	84.9609	77.1494	84.9609	76.9242	84.9609	77.0658	84.9609	76.9903
87.8906	77.9543	87.8906	77.8582	87.8906	78.0406	87.8906	77.7567	87.8906	78.1127	87.8906	77.6549	87.8906	78.1674	87.8906	77.5575	87.8906	78.2026	87.8906	77.4693	87.8906	78.2174	87.8906	77.3942	87.8906	78.213	87.8906	77.3356	87.8906	78.1918	87.8906	77.2956	87.8906	78.1577	87.8906	77.275	87.8906	78.1149	87.8906	77.2737	87.8906	78.0679	87.8906	77.2903	87.8906	78.0198	87.8906	77.3224	87.8906	77.9726	87.8906	77.3672	87.8906	77.9267	87.8906	77.4214	87.8906	77.8809	87.8906	77.4819	87.8906	77.8338	87.8906	77.5455	87.8906	77.7837	87.8906	77.6093	87.8906	77.7296	87.8906	77.6712
90.8203	78.3662	90.8203	78.2742	90.8203	78.4493	90.8203	78.1772	90.8203	78.5196	90.8203	78.0797	90.8203	78.5738	90.8203	77.9861	90.8203	78.6097	90.8203	77.9008	90.8203	78.6259	90.8203	77.8281	90.8203	78.6226	90.8203	77.7716	90.8203	78.6019	90.8203	77.7339	90.8203	78.5672	90.8203	77.7164	90.8203	78.5232	90.8203	77.719	90.8203	78.4748	90.8203	77.7403	90.8203	78.4263	90.8203	77.7777	90.8203	78.3808	90.8203	77.8274	90.8203	78.339	90.8203	77.8856	90.8203	78.3001	90.8203	77.948	90.8203	78.2618	90.8203	78.0109	90.8203	78.2216	90.8203	78.0713	90.8203	78.1771	90.8203	78.1271
95.2148	79.4991	95.2148	79.399	95.2148	79.5753	95.2148	79.2791	95.2148	79.6241	95.2148	79.1439	95.2148	79.643	95.2148	78.9981	95.2148	79.6303	95.2148	78.8467	95.2148	79.5859	95.2148	78.6945	95.2148	79.5107	95.2148	78.5464	95.2148	79.4073	95.2148	78.4073	95.2148	79.2798	95.2148	78.2817	95.2148	79.134	95.2148	78.1737	95.2148	78.9768	95.2148	78.0864	95.2148	78.8164	95.2148	78.022	95.2148	78.6608	95.2148	77.9811	95.2148	78.5172	95.2148	77.9628	95.2148	78.3904	95.2148	77.9648	95.2148	78.2828	95.2148	77.984	95.2148	78.194	95.2148	78.0175	95.2148	78.1217	95.2148	78.0634
98.1445	79.6549	98.1445	79.568	98.1445	79.7259	98.1445	79.4691	98.1445	79.7777	98.1445	79.3624	98.1445	79.8078	98.1445	79.2521	98.1445	79.8147	98.1445	79.1418	98.1445	79.798	98.1445	79.0349	98.1445	79.758	98.1445	78.9341	98.1445	79.6964	98.1445	78.8417	98.1445	79.6157	98.1445	78.7598	98.1445	79.5193	98.1445	78.6901	98.1445	79.4115	98.1445	78.634	98.1445	79.2973	98.1445	78.5928	98.1445	79.1815	98.1445	78.5669	98.1445	79.0692	98.1445	78.5566	98.1445	78.9641	98.1445	78.5614	98.1445	78.8693	98.1445	78.5805	98.1445	78.7864	98.1445	78.6129	98.1445	78.716	98.1445	78.6582
101.074	79.9366	101.074	79.873	101.074	79.9873	101.074	79.7995	101.074	80.0229	101.074	79.7193	101.074	80.0415	101.074	79.6359	101.074	80.0424	101.074	79.5524	101.074	80.0255	101.074	79.4719	101.074	79.9915	101.074	79.3966	101.074	79.9424	101.074	79.3284	101.074	79.8807	101.074	79.2687	101.074	79.8094	101.074	79.2185	101.074	79.7323	101.074	79.1787	101.074	79.6526	101.074	79.1501	101.074	79.5735	101.074	79.133	101.074	79.4975	101.074	79.1275	101.074	79.4266	101.074	79.1334	101.074	79.3619	101.074	79.1498	101.074	79.3041	101.074	79.1759	101.074	79.2536	101.074	79.2107
105.469	80.2415	105.469	80.1685	105.469	80.3028	105.469	80.0884	105.469	80.3482	105.469	80.0061	105.469	80.3746	105.469	79.9264	105.469	80.3799	105.469	79.8534	105.469	80.363	105.469	79.7903	105.469	80.325	105.469	79.739	105.469	80.2681	105.469	79.7001	105.469	80.1965	105.469	79.6732	105.469	80.1157	105.469	79.6569	105.469	80.0322	105.469	79.6493	105.469	79.9523	105.469	79.6483	105.469	79.8813	105.469	79.6521	105.469	79.8228	105.469	79.6591	105.469	79.7779	105.469	79.6678	105.469	79.7457	105.469	79.6772	105.469	79.7236	105.469	79.6868	105.469	79.7083	105.469	79.6968
108.398	80.6946	108.398	80.5996	108.398	80.7758	108.398	80.4962	108.398	80.8383	108.398	80.3899	108.398	80.8781	108.398	80.2859	108.398	80.8923	108.398	80.1889	108.398	80.8794	108.398	80.1026	108.398	80.8396	108.398	80.0297	108.398	80.7751	108.398	79.9712	108.398	80.6897	108.398	79.9274	108.398	80.589	108.398	79.8972	108.398	80.4795	108.398	79.8788	108.398	80.3686	108.398	79.8703	108.398	80.2634	108.398	79.8694	108.398	80.1695	108.398	79.8741	108.398	80.091	108.398	79.8827	108.398	80.0292	108.398	79.8941	108.398	79.9831	108.398	79.9083	108.398	79.9499	108.398	79.9261
112.793	80.9904	112.793	80.9003	112.793	81.0663	112.793	80.8013	112.793	81.1236	112.793	80.6991	112.793	81.1596	112.793	80.5994	112.793	81.1729	112.793	80.5068	112.793	81.1639	112.793	80.425	112.793	81.1343	112.793	80.3558	112.793	81.0866	112.793	80.2997	112.793	81.0236	112.793	80.256	112.793	80.9483	112.793	80.2231	112.793	80.8637	112.793	80.1989	112.793	80.7725	112.793	80.1819	112.793	80.6778	112.793	80.1709	112.793	80.5827	112.793	80.1657	112.793	80.491	112.793	80.1668	112.793	80.4066	112.793	80.176	112.793	80.333	112.793	80.1954	112.793	80.2728	112.793	80.2271
117.188	80.9566	117.188	80.8549	117.188	81.0455	117.188	80.7468	117.188	81.1172	117.188	80.6398	117.188	81.169	117.188	80.5422	117.188	81.1998	117.188	80.4622	117.188	81.2104	117.188	80.4063	117.188	81.2032	117.188	80.3792	117.188	81.1828	117.188	80.382	117.188	81.1552	117.188	80.413	117.188	81.127	117.188	80.4678	117.188	81.1041	117.188	80.5404	117.188	81.0905	117.188	80.6237	117.188	81.0867	117.188	80.711	117.188	81.0902	117.188	80.7966	117.188	81.0962	117.188	80.8758	117.188	81.0991	117.188	80.9453	117.188	81.094	117.188	81.0028	117.188	81.0772	117.188	81.047
120.117	81.4178	120.117	81.2967	120.117	81.5207	120.117	81.164	120.117	81.5995	120.117	81.0273	120.117	81.6494	120.117	80.8944	120.117	81.6669	120.117	80.7735	120.117	81.6504	120.117	80.6722	120.117	81.6012	120.117	80.5969	120.117	81.5238	120.117	80.5516	120.117	81.4259	120.117	80.5374	120.117	81.3181	120.117	80.5525	120.117	81.2125	120.117	80.5922	120.117	81.1203	120.117	80.6498	120.117	81.0499	120.117	80.7173	120.117	81.0045	120.117	80.7869	120.117	80.9822	120.117	80.8513	120.117	80.9762	120.117	80.9049	120.117	80.9776	120.117	80.9441	120.117	80.9772	120.117	80.9676
124.512	81.7633	124.512	81.6457	124.512	81.8561	124.512	81.5093	124.512	81.9189	124.512	81.3604	124.512	81.9474	124.512	81.2056	124.512	81.9389	124.512	81.0519	124.512	81.8928	124.512	80.9061	124.512	81.8111	124.512	80.7744	124.512	81.6982	124.512	80.6618	124.512	81.5611	124.512	80.5719	124.512	81.4086	124.512	80.5058	124.512	81.2508	124.512	80.4629	124.512	81.0976	124.512	80.4405	124.512	80.9577	124.512	80.4349	124.512	80.8373	124.512	80.4417	124.512	80.7393	124.512	80.4568	124.512	80.6633	124.512	80.4773	124.512	80.606	124.512	80.5013	124.512	80.5628	124.512	80.5292
128.906	81.8031	128.906	81.6674	128.906	81.9163	128.906	81.5169	128.906	82	128.906	81.3596	128.906	82.0486	128.906	81.2032	128.906	82.0585	128.906	81.0552	128.906	82.0285	128.906	80.9224	128.906	81.9603	128.906	80.8104	128.906	81.8584	128.906	80.7236	128.906	81.7305	128.906	80.6642	128.906	81.5862	128.906	80.632	128.906	81.4369	128.906	80.6247	128.906	81.2942	128.906	80.6378	128.906	81.1683	128.906	80.6656	128.906	81.0657	128.906	80.7018	128.906	80.9885	128.906	80.741	128.906	80.9339	128.906	80.7786	128.906	80.8959	128.906	80.8119	128.906	80.8671	128.906	80.8407
133.301	82.1455	133.301	82.0376	133.301	82.2249	133.301	81.907	133.301	82.2716	133.301	81.7604	133.301	82.2831	133.301	81.6047	133.301	82.2591	133.301	81.4464	133.301	82.201	133.301	81.2914	133.301	82.1115	133.301	81.1447	133.301	81.994	133.301	81.0105	133.301	81.8528	133.301	80.8921	133.301	81.6926	133.301	80.792	133.301	81.5196	133.301	80.7115	133.301	81.3414	133.301	80.6509	133.301	81.1674	133.301	80.609	133.301	81.0075	133.301	80.5836	133.301	80.8705	133.301	80.5716	133.301	80.7621	133.301	80.5704	133.301	80.6831	133.301	80.5785	133.301	80.63	133.301	80.5971
139.16	81.5802	139.16	81.4543	139.16	81.6853	139.16	81.3139	139.16	81.7662	139.16	81.1684	139.16	81.822	139.16	81.0288	139.16	81.8538	139.16	80.9064	139.16	81.8643	139.16	80.8112	139.16	81.8569	139.16	80.75	139.16	81.8359	139.16	80.7249	139.16	81.8053	139.16	80.7336	139.16	81.7685	139.16	80.7701	139.16	81.7277	139.16	80.826	139.16	81.6835	139.16	80.8928	139.16	81.6351	139.16	80.9629	139.16	81.5816	139.16	81.0312	139.16	81.523	139.16	81.0955	139.16	81.4604	139.16	81.1559	139.16	81.3963	139.16	81.2141	139.16	81.3333	139.16	81.2726
143.555	81.6038	143.555	81.4531	143.555	81.7371	143.555	81.2936	143.555	81.8457	143.555	81.1356	143.555	81.9246	143.555	80.9904	143.555	81.9702	143.555	80.8694	143.555	81.9821	143.555	80.7832	143.555	81.9627	143.555	80.7396	143.555	81.9186	143.555	80.742	143.555	81.8592	143.555	80.7889	143.555	81.7964	143.555	80.8733	143.555	81.7415	143.555	80.9844	143.555	81.7028	143.555	81.1097	143.555	81.6835	143.555	81.2368	143.555	81.6807	143.555	81.356	143.555	81.6877	143.555	81.4603	143.555	81.6956	143.555	81.5459	143.555	81.6967	143.555	81.6116	143.555	81.6853	143.555	81.6577
147.949	82.0876	147.949	81.9456	147.949	82.203	147.949	81.7835	147.949	82.2852	147.949	81.6076	147.949	82.3278	147.949	81.4244	147.949	82.3255	147.949	81.2411	147.949	82.2754	147.949	81.066	147.949	82.178	147.949	80.9083	147.949	82.038	147.949	80.777	147.949	81.8649	147.949	80.68	147.949	81.6729	147.949	80.6217	147.949	81.4789	147.949	80.6028	147.949	81.3009	147.949	80.6186	147.949	81.1542	147.949	80.6607	147.949	81.0476	147.949	80.7184	147.949	80.9815	147.949	80.7804	147.949	80.948	147.949	80.8369	147.949	80.9338	147.949	80.8809	147.949	80.9249	147.949	80.9097
153.809	81.853	153.809	81.7085	153.809	81.9649	153.809	81.5398	153.809	82.0379	153.809	81.3565	153.809	82.0685	153.809	81.1684	153.809	82.0565	153.809	80.9849	153.809	82.0052	153.809	80.8146	153.809	81.9203	153.809	80.6642	153.809	81.8094	153.809	80.5387	153.809	81.6802	153.809	80.4409	153.809	81.5401	153.809	80.3716	153.809	81.3953	153.809	80.3297	153.809	81.2511	153.809	80.3129	153.809	81.1122	153.809	80.3176	153.809	80.9822	153.809	80.3395	153.809	80.8645	153.809	80.3744	153.809	80.7607	153.809	80.4187	153.809	80.6712	153.809	80.4702	153.809	80.5946	153.809	80.5284
159.668	81.8352	159.668	81.673	159.668	81.9624	159.668	81.4822	159.668	82.0505	159.668	81.2711	159.668	82.0971	159.668	81.05	159.668	82.1019	159.668	80.8305	159.668	82.0668	159.668	80.6249	159.668	81.9959	159.668	80.4451	159.668	81.8954	159.668	80.3011	159.668	81.7735	159.668	80.2	159.668	81.6395	159.668	80.1444	159.668	81.5027	159.668	80.133	159.668	81.3713	159.668	80.1606	159.668	81.2509	159.668	80.2197	159.668	81.1438	159.668	80.3014	159.668	81.0486	159.668	80.397	159.668	80.9613	159.668	80.4988	159.668	80.8767	159.668	80.6006	159.668	80.7901	159.668	80.6982
165.527	81.6674	165.527	81.5107	165.527	81.7882	165.527	81.3267	165.527	81.8664	165.527	81.1255	165.527	81.8985	165.527	80.9182	165.527	81.8837	165.527	80.7161	165.527	81.825	165.527	80.5303	165.527	81.7282	165.527	80.3707	165.527	81.6022	165.527	80.2451	165.527	81.4579	165.527	80.1583	165.527	81.3071	165.527	80.1118	165.527	81.1616	165.527	80.1036	165.527	81.0314	165.527	80.1288	165.527	80.9231	165.527	80.1803	165.527	80.8384	165.527	80.25	165.527	80.7737	165.527	80.3298	165.527	80.7217	165.527	80.4122	165.527	80.6736	165.527	80.4908	165.527	80.6218	165.527	80.5613
171.387	81.3752	171.387	81.2133	171.387	81.4994	171.387	81.0235	171.387	81.5792	171.387	80.8176	171.387	81.611	171.387	80.6079	171.387	81.5954	171.387	80.4065	171.387	81.536	171.387	80.2243	171.387	81.4394	171.387	80.0703	171.387	81.314	171.387	79.9511	171.387	81.1698	171.387	79.8707	171.387	81.0177	171.387	79.8302	171.387	80.869	171.387	79.8278	171.387	80.7346	171.387	79.8589	171.387	80.6233	171.387	79.917	171.387	80.5391	171.387	79.9935	171.387	80.48	171.387	80.0795	171.387	80.4383	171.387	80.1659	171.387	80.4029	171.387	80.245	171.387	80.3631	171.387	80.3114
177.246	81.0656	177.246	80.8895	177.246	81.2008	177.246	80.6805	177.246	81.2913	177.246	80.4514	177.246	81.3373	177.246	80.2187	177.246	81.3417	177.246	80.0005	177.246	81.3086	177.246	79.8141	177.246	81.2432	177.246	79.6732	177.246	81.1503	177.246	79.5852	177.246	81.0355	177.246	79.5509	177.246	80.9045	177.246	79.5646	177.246	80.7644	177.246	79.6162	177.246	80.6236	177.246	79.6937	177.246	80.4916	177.246	79.7845	177.246	80.3778	177.246	79.8774	177.246	80.2889	177.246	79.9631	177.246	80.2266	177.246	80.0349	177.246	80.186	177.246	80.0895	177.246	80.1572	177.246	80.1283
183.105	81.0005	183.105	80.823	183.105	81.14	183.105	80.6154	183.105	81.2356	183.105	80.3879	183.105	81.284	183.105	80.1531	183.105	81.2845	183.105	79.9258	183.105	81.2396	183.105	79.7219	183.105	81.1548	183.105	79.557	183.105	81.0386	183.105	79.4442	183.105	80.9015	183.105	79.3914	183.105	80.7553	183.105	79.3993	183.105	80.6117	183.105	79.4608	183.105	80.4816	183.105	79.5622	183.105	80.3734	183.105	79.6863	183.105	80.2923	183.105	79.8156	183.105	80.239	183.105	79.9349	183.105	80.2087	183.105	80.0334	183.105	80.1921	183.105	80.1055	183.105	80.1771	183.105	80.1516
188.965	80.7278	188.965	80.5709	188.965	80.838	188.965	80.3759	188.965	80.8969	188.965	80.155	188.965	80.9051	188.965	79.9229	188.965	80.8679	188.965	79.6952	188.965	80.7947	188.965	79.4875	188.965	80.6974	188.965	79.3129	188.965	80.5882	188.965	79.1815	188.965	80.4771	188.965	79.0987	188.965	80.3707	188.965	79.0648	188.965	80.2714	188.965	79.0757	188.965	80.1784	188.965	79.1237	188.965	80.0896	188.965	79.1985	188.965	80.0036	188.965	79.2886	188.965	79.9209	188.965	79.3834	188.965	79.8428	188.965	79.4746	188.965	79.77	188.965	79.5576	188.965	79.7011	188.965	79.632
196.289	80.6376	196.289	80.4358	196.289	80.795	196.289	80.1987	196.289	80.9019	196.289	79.939	196.289	80.9541	196.289	79.6737	196.289	80.9494	196.289	79.4227	196.289	80.8878	196.289	79.2076	196.289	80.7737	196.289	79.0478	196.289	80.6171	196.289	78.9572	196.289	80.4354	196.289	78.9408	196.289	80.2514	196.289	78.9924	196.289	80.0902	196.289	79.0972	196.289	79.9725	196.289	79.2348	196.289	79.9079	196.289	79.385	196.289	79.8917	196.289	79.5312	196.289	79.9074	196.289	79.6622	196.289	79.9333	196.289	79.7718	196.289	79.9503	196.289	79.8567	196.289	79.9461	196.289	79.9152
203.613	80.4542	203.613	80.3112	203.613	80.5523	203.613	80.1301	203.613	80.6021	203.613	79.92	203.613	80.6045	203.613	79.6914	203.613	80.5638	203.613	79.4553	203.613	80.4874	203.613	79.2226	203.613	80.3841	203.613	79.004	203.613	80.2632	203.613	78.8099	203.613	80.133	203.613	78.6501	203.613	80.0001	203.613	78.5328	203.613	79.8681	203.613	78.4632	203.613	79.7388	203.613	78.4426	203.613	79.6125	203.613	78.4676	203.613	79.4899	203.613	78.5304	203.613	79.3722	203.613	78.6203	203.613	79.2607	203.613	78.7256	203.613	79.1544	203.613	78.836	203.613	79.0504	203.613	78.945
210.938	80.2216	210.938	80.0344	210.938	80.359	210.938	79.8082	210.938	80.4382	210.938	79.5561	210.938	80.454	210.938	79.293	210.938	80.4048	210.938	79.035	210.938	80.2936	210.938	78.7981	210.938	80.1285	210.938	78.5963	210.938	79.9228	210.938	78.4405	210.938	79.6941	210.938	78.3368	210.938	79.4627	210.938	78.2864	210.938	79.2495	210.938	78.2859	210.938	79.0728	210.938	78.3276	210.938	78.9448	210.938	78.4008	210.938	78.8679	210.938	78.4926	210.938	78.8341	210.938	78.5895	210.938	78.8277	210.938	78.679	210.938	78.83	210.938	78.7511	210.938	78.8245	210.938	78.7999
218.262	79.7516	218.262	79.554	218.262	79.8942	218.262	79.3137	218.262	79.9747	218.262	79.0473	218.262	79.9912	218.262	78.7756	218.262	79.9467	218.262	78.5214	218.262	79.849	218.262	78.3072	218.262	79.7103	218.262	78.1517	218.262	79.5465	218.262	78.0665	218.262	79.3765	218.262	78.0532	218.262	79.2201	218.262	78.1043	218.262	79.095	218.262	78.2053	218.262	79.0134	218.262	78.3388	218.262	78.9786	218.262	78.4877	218.262	78.9836	218.262	78.6374	218.262	79.0136	218.262	78.7761	218.262	79.0502	218.262	78.8951	218.262	79.0759	218.262	78.9876	218.262	79.0779	218.262	79.0491
225.586	79.769	225.586	79.5619	225.586	79.9113	225.586	79.3006	225.586	79.9829	225.586	79.0003	225.586	79.9816	225.586	78.6809	225.586	79.9094	225.586	78.3671	225.586	79.7725	225.586	78.086	225.586	79.5815	225.586	77.8641	225.586	79.3521	225.586	77.722	225.586	79.1051	225.586	77.6692	225.586	78.8653	225.586	77.702	225.586	78.6598	225.586	77.8049	225.586	78.5124	225.586	77.9554	225.586	78.4377	225.586	78.1293	225.586	78.4352	225.586	78.3045	225.586	78.4883	225.586	78.4628	225.586	78.5695	225.586	78.5898	225.586	78.6488	225.586	78.6752	225.586	78.7018	225.586	78.7128
232.91	79.6047	232.91	79.3902	232.91	79.7535	232.91	79.1205	232.91	79.8293	232.91	78.8103	232.91	79.829	232.91	78.4784	232.91	79.753	232.91	78.1478	232.91	79.606	232.91	77.8444	232.91	79.3978	232.91	77.5943	232.91	79.1425	232.91	77.4193	232.91	78.8595	232.91	77.3315	232.91	78.5727	232.91	77.3297	232.91	78.3089	232.91	77.4004	232.91	78.0949	232.91	77.5213	232.91	77.9518	232.91	77.6674	232.91	77.888	232.91	77.8155	232.91	77.8953	232.91	77.9464	232.91	77.9507	232.91	78.0456	232.91	78.0238	232.91	78.1036	232.91	78.0858	232.91	78.1162
241.699	79.075	241.699	78.8476	241.699	79.2363	241.699	78.5662	241.699	79.3246	241.699	78.2479	241.699	79.3384	241.699	77.9143	241.699	79.2813	241.699	77.591	241.699	79.1605	241.699	77.3053	241.699	78.9861	241.699	77.0827	241.699	78.7705	241.699	76.9416	241.699	78.5277	241.699	76.888	241.699	78.2739	241.699	76.9137	241.699	78.0275	241.699	76.9995	241.699	77.8081	241.699	77.1206	241.699	77.6343	241.699	77.2529	241.699	77.5191	241.699	77.3762	241.699	77.4656	241.699	77.4758	241.699	77.4644	241.699	77.5427	241.699	77.4963	241.699	77.573	241.699	77.5381	241.699	77.5687
250.488	79.301	250.488	79.0089	250.488	79.5083	250.488	78.6387	250.488	79.6268	250.488	78.2012	250.488	79.6554	250.488	77.7129	250.488	79.5959	250.488	77.1989	250.488	79.454	250.488	76.6964	250.488	79.2398	250.488	76.2544	250.488	78.9681	250.488	75.9268	250.488	78.6581	250.488	75.7558	250.488	78.333	250.488	75.753	250.488	78.0183	250.488	75.8929	250.488	77.7402	250.488	76.1256	250.488	77.5216	250.488	76.3967	250.488	77.3764	250.488	76.6624	250.488	77.3035	250.488	76.8936	250.488	77.2855	250.488	77.0749	250.488	77.2936	250.488	77.2005	250.488	77.2974	250.488	77.2719
259.277	79.1136	259.277	78.8628	259.277	79.2904	259.277	78.5483	259.277	79.3864	259.277	78.1831	259.277	79.3989	259.277	77.7828	259.277	79.3298	259.277	77.3665	259.277	79.1861	259.277	76.9572	259.277	78.9795	259.277	76.583	259.277	78.7252	259.277	76.2757	259.277	78.4406	259.277	76.0653	259.277	78.1441	259.277	75.9714	259.277	77.8547	259.277	75.9947	259.277	77.5916	259.277	76.1153	259.277	77.3737	259.277	76.2987	259.277	77.2156	259.277	76.5065	259.277	77.1219	259.277	76.7046	259.277	77.0833	259.277	76.8686	259.277	77.0774	259.277	76.9849	259.277	77.0756	259.277	77.051
268.066	78.7738	268.066	78.5179	268.066	78.9387	268.066	78.1815	268.066	79.008	268.066	77.779	268.066	78.9841	268.066	77.3288	268.066	78.878	268.066	76.854	268.066	78.7081	268.066	76.384	268.066	78.4976	268.066	75.9557	268.066	78.2698	268.066	75.6109	268.066	78.0431	268.066	75.3875	268.066	77.8272	268.066	75.3069	268.066	77.6233	268.066	75.3641	268.066	77.4281	268.066	75.5284	268.066	77.2414	268.066	75.7557	268.066	77.0706	268.066	76.0015	268.066	76.9288	268.066	76.2303	268.066	76.8258	268.066	76.4191	268.066	76.7583	268.066	76.5579	268.066	76.7082	268.066	76.6494
276.855	78.827	276.855	78.56	276.855	78.9908	276.855	78.1971	276.855	79.0513	276.855	77.7539	276.855	79.0142	276.855	77.2541	276.855	78.8892	276.855	76.7293	276.855	78.6887	276.855	76.2176	276.855	78.4285	276.855	75.7601	276.855	78.1303	276.855	75.396	276.855	77.8244	276.855	75.1554	276.855	77.5474	276.855	75.0518	276.855	77.3323	276.855	75.0792	276.855	77.1944	276.855	75.2132	276.855	77.1233	276.855	75.4195	276.855	77.0878	276.855	75.6632	276.855	77.0517	276.855	75.9157	276.855	76.9885	276.855	76.158	276.855	76.8872	276.855	76.3802	276.855	76.7485	276.855	76.578
287.109	78.3505	287.109	78.1413	287.109	78.468	287.109	77.8444	287.109	78.4947	287.109	77.4688	287.109	78.437	287.109	77.0295	287.109	78.3063	287.109	76.5497	287.109	78.1171	287.109	76.0636	287.109	77.885	287.109	75.6171	287.109	77.6266	287.109	75.2639	287.109	77.3595	287.109	75.0526	287.109	77.1054	287.109	75.0092	287.109	76.8912	287.109	75.125	287.109	76.7451	287.109	75.361	287.109	76.6856	287.109	75.6644	287.109	76.7094	287.109	75.9861	287.109	76.7881	287.109	76.2892	287.109	76.8795	287.109	76.5496	287.109	76.9428	287.109	76.7521	287.109	76.9499	287.109	76.8872
297.363	78.6968	297.363	78.4618	297.363	78.8259	297.363	78.1274	297.363	78.8488	297.363	77.7056	297.363	78.77	297.363	77.2138	297.363	78.5975	297.363	76.6755	297.363	78.3414	297.363	76.1231	297.363	78.0128	297.363	75.6016	297.363	77.6258	297.363	75.1687	297.363	77.1988	297.363	74.8858	297.363	76.7578	297.363	74.7964	297.363	76.341	297.363	74.9041	297.363	76.0026	297.363	75.1674	297.363	75.8034	297.363	75.518	297.363	75.7819	297.363	75.886	297.363	75.9229	297.363	76.2157	297.363	76.1579	297.363	76.4688	297.363	76.4004	297.363	76.621	297.363	76.5807	297.363	76.6591
307.617	78.4531	307.617	78.1831	307.617	78.6257	307.617	77.8253	307.617	78.6956	307.617	77.3941	307.617	78.6608	307.617	76.9084	307.617	78.5226	307.617	76.3917	307.617	78.2871	307.617	75.8711	307.617	77.9664	307.617	75.378	307.617	77.5797	307.617	74.9485	307.617	77.1522	307.617	74.6212	307.617	76.7117	307.617	74.4311	307.617	76.2874	307.617	74.397	307.617	75.9117	307.617	74.5112	307.617	75.6218	307.617	74.738	307.617	75.4533	307.617	75.0241	307.617	75.421	307.617	75.3131	307.617	75.5	307.617	75.5563	307.617	75.6299	307.617	75.7181	307.617	75.7409	307.617	75.7792
319.336	78.3728	319.336	78.1241	319.336	78.5225	319.336	77.7859	319.336	78.5676	319.336	77.3704	319.336	78.508	319.336	76.8909	319.336	78.3492	319.336	76.3617	319.336	78.1009	319.336	75.8013	319.336	77.7763	319.336	75.2381	319.336	77.39	319.336	74.7166	319.336	76.9578	319.336	74.2973	319.336	76.4984	319.336	74.0413	319.336	76.0376	319.336	73.9826	319.336	75.6138	319.336	74.1061	319.336	75.2756	319.336	74.3538	319.336	75.0671	319.336	74.6515	319.336	75.0039	319.336	74.9343	319.336	75.0587	319.336	75.1565	319.336	75.1725	319.336	75.2913	319.336	75.2799	319.336	75.3295
329.59	77.8237	329.59	77.5811	329.59	77.9713	329.59	77.257	329.59	78.0181	329.59	76.871	329.59	77.9664	329.59	76.4458	329.59	77.826	329.59	76.0036	329.59	77.6125	329.59	75.5628	329.59	77.3433	329.59	75.1386	329.59	77.0327	329.59	74.747	329.59	76.6874	329.59	74.4108	329.59	76.3085	329.59	74.1615	329.59	75.8995	329.59	74.0311	329.59	75.4812	329.59	74.0351	329.59	75.1011	329.59	74.159	329.59	74.8239	329.59	74.3599	329.59	74.6953	329.59	74.5821	329.59	74.7068	329.59	74.7742	329.59	74.7983	329.59	74.8991	329.59	74.8947	329.59	74.9381
341.309	77.3845	341.309	77.0868	341.309	77.5763	341.309	76.7001	341.309	77.6562	341.309	76.2512	341.309	77.6282	341.309	75.7734	341.309	77.5048	341.309	75.3	341.309	77.3046	341.309	74.8574	341.309	77.0505	341.309	74.4614	341.309	76.7659	341.309	74.1202	341.309	76.4692	341.309	73.8426	341.309	76.1697	341.309	73.644	341.309	75.8672	341.309	73.5431	341.309	75.5603	341.309	73.552	341.309	75.2581	341.309	73.6636	341.309	74.9869	341.309	73.8497	341.309	74.7812	341.309	74.0679	341.309	74.6602	341.309	74.2749	341.309	74.6093	341.309	74.4369	341.309	74.5847	341.309	74.5379
353.027	77.5465	353.027	77.2386	353.027	77.7392	353.027	76.8296	353.027	77.8096	353.027	76.3398	353.027	77.7596	353.027	75.7961	353.027	77.6018	353.027	75.233	353.027	77.3593	353.027	74.6918	353.027	77.0609	353.027	74.2162	353.027	76.7336	353.027	73.8444	353.027	76.3955	353.027	73.6004	353.027	76.0546	353.027	73.4895	353.027	75.7167	353.027	73.4997	353.027	75.3981	353.027	73.6087	353.027	75.13	353.027	73.7897	353.027	74.946	353.027	74.0142	353.027	74.8578	353.027	74.2532	353.027	74.8422	353.027	74.4772	353.027	74.853	353.027	74.6602	353.027	74.8441	353.027	74.784
366.211	77.4443	366.211	77.2026	366.211	77.5646	366.211	76.8532	366.211	77.56	366.211	76.4161	366.211	77.4396	366.211	75.914	366.211	77.2231	366.211	75.3731	366.211	76.9376	366.211	74.8261	366.211	76.6123	366.211	74.3166	366.211	76.2742	366.211	73.8954	366.211	75.9436	366.211	73.6049	366.211	75.6326	366.211	73.46	366.211	75.3478	366.211	73.44	366.211	75.098	366.211	73.5035	366.211	74.8975	366.211	73.6112	366.211	74.7581	366.211	73.7395	366.211	74.6746	366.211	73.8808	366.211	74.6202	366.211	74.0334	366.211	74.5599	366.211	74.1917	366.211	74.4689	366.211	74.3425
379.395	77.0588	379.395	76.6799	379.395	77.2741	379.395	76.1674	379.395	77.3123	379.395	75.5677	379.395	77.1774	379.395	74.9407	379.395	76.8925	379.395	74.3563	379.395	76.503	379.395	73.8886	379.395	76.0759	379.395	73.6064	379.395	75.6882	379.395	73.5556	379.395	75.4023	379.395	73.7378	379.395	75.242	379.395	74.1013	379.395	75.1934	379.395	74.5606	379.395	75.2302	379.395	75.0305	379.395	75.3359	379.395	75.4502	379.395	75.5034	379.395	75.7905	379.395	75.7177	379.395	76.0462	379.395	75.9464	379.395	76.2226	379.395	76.1479	379.395	76.3236	379.395	76.2873	379.395	76.3467
392.578	78.2551	392.578	77.8722	392.578	78.4437	392.578	77.3132	392.578	78.4268	392.578	76.6054	392.578	78.2006	392.578	75.7883	392.578	77.7722	392.578	74.9168	392.578	77.1652	392.578	74.0648	392.578	76.4257	392.578	73.3306	392.578	75.6267	392.578	72.8386	392.578	74.8676	392.578	72.7115	392.578	74.2611	392.578	72.9976	392.578	73.9072	392.578	73.6173	392.578	73.8637	392.578	74.4062	392.578	74.1286	392.578	75.2057	392.578	74.634	392.578	75.9087	392.578	75.2619	392.578	76.4572	392.578	75.8864	392.578	76.8244	392.578	76.4128	392.578	77.0012	392.578	76.7878	392.578	76.9873
405.762	78.5795	405.762	78.2561	405.762	78.7041	405.762	77.7407	405.762	78.6328	405.762	77.0473	405.762	78.3817	405.762	76.1963	405.762	77.9807	405.762	75.2169	405.762	77.4686	405.762	74.1561	405.762	76.8833	405.762	73.0998	405.762	76.256	405.762	72.2025	405.762	75.6154	405.762	71.6805	405.762	74.9986	405.762	71.6988	405.762	74.4607	405.762	72.2221	405.762	74.0809	405.762	73.0434	405.762	73.9541	405.762	73.945	405.762	74.142	405.762	74.7824	405.762	74.6041	405.762	75.4762	405.762	75.1972	405.762	75.9831	405.762	75.7546	405.762	76.2756	405.762	76.1548	405.762	76.3348
420.41	78.5786	420.41	78.3002	420.41	78.6844	420.41	77.8511	420.41	78.6226	420.41	77.2422	420.41	78.4061	420.41	76.4952	420.41	78.0531	420.41	75.6445	420.41	77.5832	420.41	74.7348	420.41	77.0143	420.41	73.8191	420.41	76.3656	420.41	72.9639	420.41	75.665	420.41	72.2658	420.41	74.9531	420.41	71.8568	420.41	74.2831	420.41	71.8484	420.41	73.7228	420.41	72.2325	420.41	73.3583	420.41	72.8646	420.41	73.2696	420.41	73.5607	420.41	73.4682	420.41	74.178	420.41	73.8636	420.41	74.6294	420.41	74.3109	420.41	74.869	420.41	74.6794	420.41	74.8811
435.059	78.3483	435.059	78.0577	435.059	78.4674	435.059	77.6024	435.059	78.4192	435.059	76.9977	435.059	78.2198	435.059	76.2662	435.059	77.8927	435.059	75.4393	435.059	77.4586	435.059	74.5595	435.059	76.9302	435.059	73.6876	435.059	76.3168	435.059	72.9144	435.059	75.6357	435.059	72.3661	435.059	74.9178	435.059	72.1695	435.059	74.2144	435.059	72.3702	435.059	73.619	435.059	72.8857	435.059	73.2851	435.059	73.5595	435.059	73.3572	435.059	74.2456	435.059	73.8161	435.059	74.8446	435.059	74.4565	435.059	75.2978	435.059	75.049	435.059	75.5682	435.059	75.4554	435.059	75.6278
451.172	78.5556	451.172	78.2841	451.172	78.6519	451.172	77.8426	451.172	78.5788	451.172	77.242	451.172	78.351	451.172	76.4937	451.172	77.9829	451.172	75.6075	451.172	77.4794	451.172	74.5947	451.172	76.8413	451.172	73.4815	451.172	76.0851	451.172	72.3353	451.172	75.2571	451.172	71.3088	451.172	74.4233	451.172	70.6602	451.172	73.6374	451.172	70.6284	451.172	72.9256	451.172	71.1886	451.172	72.3153	451.172	72.0528	451.172	71.8847	451.172	72.919	451.172	71.7618	451.172	73.5973	451.172	72.0259	451.172	73.9902	451.172	72.595	451.172	74.0537	451.172	73.2551	451.172	73.7886
465.82	78.1279	465.82	77.8917	465.82	78.1829	465.82	77.4732	465.82	78.0646	465.82	76.8811	465.82	77.7814	465.82	76.1338	465.82	77.3407	465.82	75.2587	465.82	76.755	465.82	74.2902	465.82	76.057	465.82	73.2723	465.82	75.3084	465.82	72.2718	465.82	74.5892	465.82	71.4067	465.82	73.9647	465.82	70.8623	465.82	73.4553	465.82	70.8162	465.82	73.0447	465.82	71.2705	465.82	72.7372	465.82	72.018	465.82	72.6043	465.82	72.8072	465.82	72.7337	465.82	73.4684	465.82	73.1019	465.82	73.9228	465.82	73.5572	465.82	74.1478	465.82	73.9374	465.82	74.1473
483.398	78.2111	483.398	77.9591	483.398	78.2703	483.398	77.525	483.398	78.1413	483.398	76.9318	483.398	77.8439	483.398	76.2099	483.398	77.4066	483.398	75.3908	483.398	76.8556	483.398	74.4983	483.398	76.2093	483.398	73.5438	483.398	75.485	483.398	72.5379	483.398	74.7179	483.398	71.534	483.398	73.9722	483.398	70.6947	483.398	73.3269	483.398	70.2963	483.398	72.8454	483.398	70.5277	483.398	72.5697	483.398	71.2555	483.398	72.5362	483.398	72.1558	483.398	72.7528	483.398	72.9723	483.398	73.1466	483.398	73.5787	483.398	73.5744	483.398	73.9326	483.398	73.8988	483.398	74.0327
499.512	78.6662	499.512	78.3804	499.512	78.7554	499.512	77.9073	499.512	78.6551	499.512	77.2731	499.512	78.3817	499.512	76.5153	499.512	77.9521	499.512	75.6697	499.512	77.3782	499.512	74.7573	499.512	76.6709	499.512	73.7801	499.512	75.8475	499.512	72.7417	499.512	74.935	499.512	71.6995	499.512	73.9706	499.512	70.8355	499.512	73.0192	499.512	70.4523	499.512	72.2206	499.512	70.7521	499.512	71.8182	499.512	71.5913	499.512	72.013	499.512	72.6289	499.512	72.7109	499.512	73.5961	499.512	73.585	499.512	74.3529	499.512	74.3454	499.512	74.8332	499.512	74.8366	499.512	75.0011
517.09	78.1428	517.09	78.0291	517.09	78.1057	517.09	77.7573	517.09	77.9341	517.09	77.3317	517.09	77.6489	517.09	76.7694	517.09	77.272	517.09	76.0976	517.09	76.822	517.09	75.3454	517.09	76.3101	517.09	74.5333	517.09	75.7408	517.09	73.6661	517.09	75.1142	517.09	72.7391	517.09	74.4213	517.09	71.7761	517.09	73.6299	517.09	70.9289	517.09	72.686	517.09	70.5524	517.09	71.5778	517.09	70.9335	517.09	70.5109	517.09	71.8548	517.09	70.0698	517.09	72.8352	517.09	70.6862	517.09	73.5484	517.09	71.8892	517.09	73.8465	517.09	72.9887	517.09	73.6657
536.133	77.9329	536.133	77.76	536.133	77.9064	536.133	77.4024	536.133	77.6904	536.133	76.8842	536.133	77.3254	536.133	76.2315	536.133	76.8605	536.133	75.4775	536.133	76.3173	536.133	74.6738	536.133	75.6882	536.133	73.8873	536.133	74.9889	536.133	73.1775	536.133	74.3112	536.133	72.5712	536.133	73.8002	536.133	72.074	536.133	73.5315	536.133	71.7235	536.133	73.3975	536.133	71.6283	536.133	73.1695	536.133	71.8987	536.133	72.7026	536.133	72.4949	536.133	72.1474	536.133	73.2026	536.133	71.9835	536.133	73.772	536.133	72.4842	536.133	74.0211	536.133	73.2698	536.133	73.8516
555.176	78.2487	555.176	77.9657	555.176	78.3365	555.176	77.4739	555.176	78.2507	555.176	76.7816	555.176	78.0036	555.176	75.929	555.176	77.5823	555.176	74.9991	555.176	76.9602	555.176	74.1077	555.176	76.1341	555.176	73.3545	555.176	75.149	555.176	72.7543	555.176	74.0814	555.176	72.2272	555.176	73.0127	555.176	71.6877	555.176	72.0752	555.176	71.17	555.176	71.5354	555.176	70.8766	555.176	71.6087	555.176	71.021	555.176	72.0962	555.176	71.5683	555.176	72.5916	555.176	72.2582	555.176	72.9044	555.176	72.8416	555.176	73.0854	555.176	73.1908	555.176	73.2231	555.176	73.2929
574.219	78.7725	574.219	78.4012	574.219	78.9079	574.219	77.8241	574.219	78.7941	574.219	77.0799	574.219	78.4389	574.219	76.2082	574.219	77.8716	574.219	75.2489	574.219	77.143	574.219	74.2549	574.219	76.3255	574.219	73.3068	574.219	75.4968	574.219	72.4976	574.219	74.6903	574.219	71.8724	574.219	73.8547	574.219	71.3967	574.219	72.8957	574.219	71.0431	574.219	71.8032	574.219	70.9296	574.219	70.7839	574.219	71.2594	574.219	70.2374	574.219	72.0071	574.219	70.4216	574.219	72.8606	574.219	71.1895	574.219	73.5096	574.219	72.1806	574.219	73.7868	574.219	73.0662	574.219	73.6341
594.727	78.9702	594.727	78.8365	594.727	78.8121	594.727	78.4047	594.727	78.4228	594.727	77.7151	594.727	77.8911	594.727	76.8335	594.727	77.2753	594.727	75.8233	594.727	76.5719	594.727	74.727	594.727	75.7621	594.727	73.5847	594.727	74.88	594.727	72.4967	594.727	74.0432	594.727	71.6422	594.727	73.4134	594.727	71.1386	594.727	73.0444	594.727	70.9161	594.727	72.7412	594.727	70.8652	594.727	72.1817	594.727	71.0266	594.727	71.2377	594.727	71.5237	594.727	70.363	594.727	72.3024	594.727	70.5213	594.727	73.0777	594.727	71.6783	594.727	73.5433	594.727	72.8475	594.727	73.4971
615.234	78.7246	615.234	78.5561	615.234	78.6721	615.234	78.1503	615.234	78.4389	615.234	77.5312	615.234	78.0429	615.234	76.7472	615.234	77.4463	615.234	75.8366	615.234	76.5971	615.234	74.8079	615.234	75.5169	615.234	73.6736	615.234	74.3409	615.234	72.5179	615.234	73.2526	615.234	71.5307	615.234	72.3736	615.234	70.9415	615.234	71.7902	615.234	70.8535	615.234	71.6798	615.234	71.1782	615.234	72.0928	615.234	71.7641	615.234	72.6469	615.234	72.4659	615.234	72.9185	615.234	73.1225	615.234	72.8778	615.234	73.5728	615.234	72.8537	615.234	73.7021	615.234	73.1104	615.234	73.4963
637.207	78.266	637.207	77.9152	637.207	78.3997	637.207	77.3709	637.207	78.3257	637.207	76.6709	637.207	78.063	637.207	75.8465	637.207	77.6028	637.207	74.9291	637.207	76.9249	637.207	73.9677	637.207	76.0512	637.207	73.0265	637.207	75.0401	637.207	72.1565	637.207	73.9212	637.207	71.3574	637.207	72.6924	637.207	70.5801	637.207	71.4049	637.207	69.8386	637.207	70.2164	637.207	69.4023	637.207	69.3654	637.207	69.7061	637.207	69.0776	637.207	70.7037	637.207	69.3818	637.207	71.8101	637.207	70.0684	637.207	72.5542	637.207	70.9143	637.207	72.7615	637.207	71.7677	637.207	72.4516
659.18	78.4472	659.18	78.1743	659.18	78.4239	659.18	77.6177	659.18	78.1396	659.18	76.8549	659.18	77.6401	659.18	76.0064	659.18	76.962	659.18	75.1853	659.18	76.1474	659.18	74.4393	659.18	75.2748	659.18	73.7239	659.18	74.4524	659.18	72.9522	659.18	73.7272	659.18	72.1089	659.18	73.0443	659.18	71.3222	659.18	72.4177	659.18	70.7426	659.18	71.9524	659.18	70.3917	659.18	71.4514	659.18	70.3335	659.18	70.4819	659.18	70.8008	659.18	69.3313	659.18	71.8023	659.18	69.7593	659.18	72.9352	659.18	71.7227	659.18	73.759	659.18	73.3193	659.18	73.965
682.617	79.437	682.617	79.22	682.617	79.2851	682.617	78.6406	682.617	78.849	682.617	77.797	682.617	78.2504	682.617	76.8257	682.617	77.5562	682.617	75.8123	682.617	76.7469	682.617	74.7632	682.617	75.787	682.617	73.7025	682.617	74.7081	682.617	72.7702	682.617	73.6858	682.617	72.1032	682.617	72.9681	682.617	71.6061	682.617	72.4791	682.617	71.1265	682.617	71.9341	682.617	70.8223	682.617	71.5902	682.617	71.0218	682.617	72.0184	682.617	71.7093	682.617	72.7547	682.617	72.533	682.617	72.9951	682.617	73.1599	682.617	72.7989	682.617	73.3823	682.617	72.8095	682.617	73.1665
707.52	78.9418	707.52	78.7436	707.52	78.7679	707.52	78.0852	707.52	78.3941	707.52	77.0377	707.52	77.9054	707.52	75.8332	707.52	77.2047	707.52	74.7654	707.52	76.2011	707.52	73.9852	707.52	75.0203	707.52	73.3763	707.52	73.8813	707.52	72.7161	707.52	72.7924	707.52	71.9634	707.52	71.6394	707.52	71.3183	707.52	70.5717	707.52	70.931	707.52	69.8873	707.52	70.6861	707.52	69.3485	707.52	70.555	707.52	68.3782	707.52	70.8496	707.52	67.2787	707.52	71.6411	707.52	67.7035	707.52	72.4047	707.52	69.4972	707.52	72.6584	707.52	71.1633	707.52	72.2414
732.422	78.4645	732.422	78.4014	732.422	78.2191	732.422	78.0191	732.422	77.7548	732.422	77.3834	732.422	77.1419	732.422	76.5559	732.422	76.3861	732.422	75.5528	732.422	75.5311	732.422	74.4527	732.422	74.6494	732.422	73.4768	732.422	73.7091	732.422	72.7565	732.422	72.6796	732.422	72.1281	732.422	71.6402	732.422	71.4238	732.422	70.7045	732.422	70.7454	732.422	70.2047	732.422	70.3003	732.422	70.4802	732.422	70.3008	732.422	70.8934	732.422	70.9567	732.422	70.5698	732.422	72.0903	732.422	69.7176	732.422	73.148	732.422	70.1036	732.422	73.6456	732.422	71.8903	732.422	73.2678
757.324	79.1762	757.324	78.8222	757.324	79.2636	757.324	78.2967	757.324	79.0679	757.324	77.7484	757.324	78.5901	757.324	77.2411	757.324	77.8499	757.324	76.6605	757.324	76.9516	757.324	75.8199	757.324	76.0422	757.324	74.6555	757.324	75.1409	757.324	73.3496	757.324	74.0969	757.324	72.2835	757.324	72.7921	757.324	71.6051	757.324	71.2433	757.324	70.9969	757.324	69.61	757.324	70.1796	757.324	68.8089	757.324	69.4515	757.324	69.8167	757.324	69.7102	757.324	71.4355	757.324	71.0324	757.324	72.5135	757.324	72.3951	757.324	72.9362	757.324	73.1336	757.324	73.0718	757.324	73.2246
785.156	79.5032	785.156	79.5984	785.156	78.8934	785.156	78.9943	785.156	78.1545	785.156	77.8283	785.156	77.3863	785.156	76.5059	785.156	76.3492	785.156	75.496	785.156	75.1155	785.156	74.8976	785.156	74.1639	785.156	74.3509	785.156	73.6269	785.156	73.5469	785.156	72.9921	785.156	72.607	785.156	71.9418	785.156	71.9118	785.156	71.0461	785.156	71.6245	785.156	70.8997	785.156	71.6487	785.156	70.5569	785.156	71.8457	785.156	69.0694	785.156	72.1317	785.156	67.9289	785.156	72.502	785.156	69.1085	785.156	72.7491	785.156	70.3787	785.156	72.5117	785.156	71.0668	785.156	71.7969
811.523	78.8519	811.523	78.6163	811.523	79.057	811.523	78.3555	811.523	79.0272	811.523	78.0011	811.523	78.5456	811.523	77.5007	811.523	77.6562	811.523	76.7394	811.523	76.6042	811.523	75.6617	811.523	75.4704	811.523	74.4829	811.523	74.2217	811.523	73.3577	811.523	72.9454	811.523	71.9025	811.523	71.5393	811.523	69.832	811.523	69.6945	811.523	68.6502	811.523	68.2666	811.523	69.8744	811.523	69.3651	811.523	71.6451	811.523	71.185	811.523	73.0091	811.523	71.6762	811.523	74.0443	811.523	70.8593	811.523	74.6783	811.523	70.5404	811.523	74.6317	811.523	72.0495	811.523	73.7321
840.82	79.1067	840.82	78.9792	840.82	79.1323	840.82	78.5612	840.82	79.1102	840.82	77.9143	840.82	78.7059	840.82	77.2695	840.82	77.6823	840.82	76.7594	840.82	76.3531	840.82	76.3237	840.82	75.3037	840.82	75.8236	840.82	74.5534	840.82	75.103	840.82	73.6826	840.82	73.9748	840.82	72.4972	840.82	72.3575	840.82	71.1485	840.82	70.5829	840.82	69.7275	840.82	69.5748	840.82	67.5109	840.82	70.0342	840.82	62.4931	840.82	71.4752	840.82	61.8039	840.82	73.0226	840.82	68.9926	840.82	73.906	840.82	72.1793	840.82	73.8358	840.82	73.125	840.82	73.3748
870.117	80.8074	870.117	80.8204	870.117	80.4131	870.117	80.2441	870.117	79.7757	870.117	79.112	870.117	78.8528	870.117	77.807	870.117	77.7842	870.117	76.9324	870.117	76.9092	870.117	76.5632	870.117	76.1035	870.117	76.2446	870.117	74.7651	870.117	75.945	870.117	72.669	870.117	75.6815	870.117	70.628	870.117	74.934	870.117	70.1612	870.117	73.3335	870.117	71.2452	870.117	71.6772	870.117	72.4934	870.117	71.4894	870.117	72.7585	870.117	72.3765	870.117	70.9528	870.117	73.4955	870.117	67.3421	870.117	74.7897	870.117	70.6288	870.117	75.9293	870.117	74.6732	870.117	76.1666
900.879	81.6973	900.879	81.6485	900.879	81.1389	900.879	80.9474	900.879	80.1851	900.879	79.7883	900.879	78.9905	900.879	78.4796	900.879	77.6459	900.879	77.2098	900.879	76.3542	900.879	75.991	900.879	75.3382	900.879	74.8294	900.879	74.7419	900.879	73.6958	900.879	74.4403	900.879	72.4788	900.879	73.9111	900.879	71.2304	900.879	72.6458	900.879	70.1783	900.879	70.5467	900.879	69.4155	900.879	67.968	900.879	69.0512	900.879	65.9916	900.879	69.9544	900.879	67.1066	900.879	72.1788	900.879	68.8389	900.879	73.9897	900.879	69.0914	900.879	74.248	900.879	69.9873	900.879	72.6268
933.105	81.6075	933.105	81.9099	933.105	81.2198	933.105	81.6225	933.105	81.0373	933.105	80.6223	933.105	80.569	933.105	79.0691	933.105	79.3013	933.105	77.5363	933.105	77.3461	933.105	76.9645	933.105	75.3722	933.105	76.911	933.105	73.8006	933.105	76.3663	933.105	72.3288	933.105	75.4496	933.105	70.7823	933.105	74.8934	933.105	69.5719	933.105	74.4146	933.105	69.5356	933.105	73.0229	933.105	71.3478	933.105	71.0859	933.105	72.7947	933.105	70.9252	933.105	71.8662	933.105	72.4417	933.105	68.6933	933.105	73.956	933.105	69.5711	933.105	74.9307	933.105	73.2067	933.105	74.8957
965.332	82.8135	965.332	82.5062	965.332	82.5589	965.332	81.8661	965.332	81.7248	965.332	81.2199	965.332	80.2475	965.332	80.3764	965.332	78.5583	965.332	78.6747	965.332	77.9691	965.332	76.0301	965.332	77.9921	965.332	73.8348	965.332	77.1992	965.332	73.2287	965.332	75.6721	965.332	73.0482	965.332	74.0905	965.332	71.9355	965.332	72.6528	965.332	70.1259	965.332	71.5292	965.332	69.6496	965.332	70.0293	965.332	70.906	965.332	67.7207	965.332	72.4443	965.332	68.8258	965.332	73.9264	965.332	70.5686	965.332	74.8093	965.332	70.1038	965.332	74.3863	965.332	70.2707	965.332	72.5584
1,000.49	83.3414	1,000.49	83.8767	1,000.49	82.584	1,000.49	83.6845	1,000.49	82.1327	1,000.49	82.7595	1,000.49	81.4356	1,000.49	81.2396	1,000.49	80.1234	1,000.49	79.5307	1,000.49	78.6582	1,000.49	78.165	1,000.49	77.415	1,000.49	77.3867	1,000.49	76.8919	1,000.49	77.3667	1,000.49	77.1286	1,000.49	77.4085	1,000.49	76.8184	1,000.49	76.5807	1,000.49	74.7824	1,000.49	75.0865	1,000.49	71.2524	1,000.49	73.697	1,000.49	72.1415	1,000.49	72.9689	1,000.49	74.7569	1,000.49	73.5914	1,000.49	74.2652	1,000.49	74.4662	1,000.49	69.9815	1,000.49	74.8684	1,000.49	65.194	1,000.49	74.9449	1,000.49	70.8256	1,000.49	74.0433
1,035.64	83.5065	1,035.64	84.1212	1,035.64	82.9215	1,035.64	84.3836	1,035.64	82.0363	1,035.64	84.1802	1,035.64	80.2652	1,035.64	83.2764	1,035.64	79.1212	1,035.64	80.9678	1,035.64	79.8528	1,035.64	77.0211	1,035.64	80.111	1,035.64	73.4455	1,035.64	78.9877	1,035.64	72.0706	1,035.64	77.0979	1,035.64	71.0344	1,035.64	75.5597	1,035.64	70.9921	1,035.64	74.8426	1,035.64	71.6045	1,035.64	74.6519	1,035.64	72.3438	1,035.64	73.7119	1,035.64	72.6026	1,035.64	69.7911	1,035.64	73.8423	1,035.64	66.4773	1,035.64	75.721	1,035.64	69.9894	1,035.64	76.2645	1,035.64	69.7661	1,035.64	74.9981	1,035.64	68.0953	1,035.64	71.6975
1,072.27	84.3592	1,072.27	85.4792	1,072.27	83.427	1,072.27	85.8457	1,072.27	82.7253	1,072.27	85.1692	1,072.27	81.6615	1,072.27	83.7798	1,072.27	80.7902	1,072.27	82.0709	1,072.27	80.2365	1,072.27	80.3303	1,072.27	79.7462	1,072.27	79.1813	1,072.27	79.3538	1,072.27	78.3672	1,072.27	78.7533	1,072.27	77.298	1,072.27	78.3149	1,072.27	76.6642	1,072.27	77.1651	1,072.27	76.6277	1,072.27	72.7892	1,072.27	75.7404	1,072.27	68.5891	1,072.27	73.9513	1,072.27	74.6041	1,072.27	73.7159	1,072.27	76.1456	1,072.27	75.0899	1,072.27	73.8894	1,072.27	76.283	1,072.27	69.1009	1,072.27	76.6822	1,072.27	71.6495	1,072.27	75.5159
1,108.89	84.5282	1,108.89	84.84	1,108.89	84.1987	1,108.89	85.2826	1,108.89	82.8644	1,108.89	85.2096	1,108.89	80.9501	1,108.89	84.1651	1,108.89	80.6824	1,108.89	81.8906	1,108.89	80.8299	1,108.89	78.5645	1,108.89	79.9562	1,108.89	75.884	1,108.89	78.5039	1,108.89	75.6945	1,108.89	77.698	1,108.89	75.5482	1,108.89	77.611	1,108.89	74.0559	1,108.89	76.8671	1,108.89	72.9795	1,108.89	75.8559	1,108.89	73.0881	1,108.89	75.0686	1,108.89	72.3208	1,108.89	72.8386	1,108.89	72.3615	1,108.89	71.8491	1,108.89	75.5331	1,108.89	73.5028	1,108.89	77.1097	1,108.89	72.226	1,108.89	75.8885	1,108.89	68.7212	1,108.89	71.9061
1,148.44	84.3152	1,148.44	85.1121	1,148.44	83.6596	1,148.44	85.5698	1,148.44	83.0254	1,148.44	85.3013	1,148.44	82.3552	1,148.44	84.3692	1,148.44	82.1533	1,148.44	83.1171	1,148.44	82.2215	1,148.44	81.5679	1,148.44	81.8875	1,148.44	79.7102	1,148.44	80.7935	1,148.44	78.4811	1,148.44	79.1682	1,148.44	78.4998	1,148.44	78.331	1,148.44	77.9288	1,148.44	78.1192	1,148.44	76.2285	1,148.44	76.3473	1,148.44	74.4235	1,148.44	72.6262	1,148.44	71.4929	1,148.44	73.1347	1,148.44	70.6983	1,148.44	74.8823	1,148.44	74.1852	1,148.44	74.5053	1,148.44	75.6756	1,148.44	71.2674	1,148.44	75.5657	1,148.44	70.0078	1,148.44	73.9683
1,189.45	84.904	1,189.45	85.5862	1,189.45	84.0218	1,189.45	85.6896	1,189.45	83.164	1,189.45	85.1224	1,189.45	82.9081	1,189.45	83.8566	1,189.45	83.138	1,189.45	81.5416	1,189.45	82.4366	1,189.45	78.6358	1,189.45	80.7347	1,189.45	76.9164	1,189.45	78.4574	1,189.45	76.1947	1,189.45	76.4912	1,189.45	76.4714	1,189.45	76.0839	1,189.45	76.4286	1,189.45	75.4957	1,189.45	75.6798	1,189.45	74.3452	1,189.45	75.5644	1,189.45	74.0555	1,189.45	75.5125	1,189.45	72.53	1,189.45	71.4922	1,189.45	71.2072	1,189.45	71.5288	1,189.45	74.6133	1,189.45	76.0297	1,189.45	74.4705	1,189.45	76.3013	1,189.45	71.5163	1,189.45	73.8812
1,230.47	83.974	1,230.47	85.051	1,230.47	83.6516	1,230.47	85.5768	1,230.47	83.4611	1,230.47	85.0679	1,230.47	82.8654	1,230.47	83.8148	1,230.47	82.7288	1,230.47	82.0368	1,230.47	82.4882	1,230.47	80.3295	1,230.47	81.7463	1,230.47	79.5833	1,230.47	80.0561	1,230.47	77.7999	1,230.47	78.4917	1,230.47	74.2374	1,230.47	77.8762	1,230.47	75.642	1,230.47	76.359	1,230.47	78.119	1,230.47	74.5131	1,230.47	77.6198	1,230.47	72.7776	1,230.47	75.3796	1,230.47	64.1681	1,230.47	72.154	1,230.47	69.9321	1,230.47	70.8741	1,230.47	74.743	1,230.47	73.271	1,230.47	72.2666	1,230.47	74.0505	1,230.47	70.5767	1,230.47	73.9667
1,274.41	83.8751	1,274.41	84.3626	1,274.41	83.5278	1,274.41	84.9775	1,274.41	82.7838	1,274.41	84.8697	1,274.41	82.8778	1,274.41	83.4172	1,274.41	83.1027	1,274.41	81.2297	1,274.41	82.3436	1,274.41	79.8515	1,274.41	81.854	1,274.41	78.8299	1,274.41	81.1294	1,274.41	76.9311	1,274.41	78.7102	1,274.41	73.3644	1,274.41	75.6653	1,274.41	70.8888	1,274.41	75.8333	1,274.41	74.8848	1,274.41	75.52	1,274.41	76.2396	1,274.41	73.541	1,274.41	75.6362	1,274.41	74.7383	1,274.41	72.8225	1,274.41	72.9221	1,274.41	66.7061	1,274.41	72.468	1,274.41	70.3505	1,274.41	75.0475	1,274.41	74.5707	1,274.41	71.4795	1,274.41	73.5882
1,319.82	82.7782	1,319.82	83.4769	1,319.82	82.419	1,319.82	84.5752	1,319.82	81.9949	1,319.82	84.7085	1,319.82	82.8279	1,319.82	82.9882	1,319.82	83.293	1,319.82	80.3254	1,319.82	82.6171	1,319.82	79.1781	1,319.82	81.2929	1,319.82	79.0935	1,319.82	79.1258	1,319.82	78.4395	1,319.82	77.3893	1,319.82	77.3876	1,319.82	75.2598	1,319.82	76.4476	1,319.82	73.0965	1,319.82	76.2224	1,319.82	73.9074	1,319.82	76.3115	1,319.82	75.4261	1,319.82	74.98	1,319.82	75.6738	1,319.82	71.5393	1,319.82	69.3609	1,319.82	67.0724	1,319.82	71.5029	1,319.82	69.9605	1,319.82	74.5171	1,319.82	72.4935	1,319.82	68.619	1,319.82	70.1351
1,366.7	82.0084	1,366.7	83.3966	1,366.7	81.7246	1,366.7	84.4477	1,366.7	82.3377	1,366.7	84.2719	1,366.7	82.3993	1,366.7	82.5243	1,366.7	81.9925	1,366.7	79.9877	1,366.7	81.5987	1,366.7	78.4808	1,366.7	80.8907	1,366.7	77.1988	1,366.7	79.9525	1,366.7	75.6114	1,366.7	77.8018	1,366.7	74.3919	1,366.7	74.6479	1,366.7	73.8822	1,366.7	74.2148	1,366.7	73.3407	1,366.7	74.3572	1,366.7	73.9147	1,366.7	72.0728	1,366.7	75.7544	1,366.7	66.948	1,366.7	74.8602	1,366.7	71.1283	1,366.7	69.7088	1,366.7	72.7162	1,366.7	69.3674	1,366.7	70.5503	1,366.7	72.902	1,366.7	67.1503	1,366.7	71.2803
1,413.57	82.5714	1,413.57	83.1129	1,413.57	82.3777	1,413.57	83.7746	1,413.57	82.2093	1,413.57	83.1559	1,413.57	82.3837	1,413.57	81.4762	1,413.57	81.7952	1,413.57	80.7234	1,413.57	81.2254	1,413.57	79.9492	1,413.57	81.0786	1,413.57	76.9321	1,413.57	80.4205	1,413.57	74.4044	1,413.57	79.3886	1,413.57	74.0059	1,413.57	77.3723	1,413.57	72.0084	1,413.57	74.32	1,413.57	69.4096	1,413.57	71.4826	1,413.57	69.8529	1,413.57	70.0047	1,413.57	73.1184	1,413.57	70.2038	1,413.57	74.74	1,413.57	69.7461	1,413.57	72.0989	1,413.57	67.756	1,413.57	70.9282	1,413.57	73.0434	1,413.57	72.3069	1,413.57	70.6778	1,413.57	67.7758
1,463.38	82.198	1,463.38	82.6509	1,463.38	81.9192	1,463.38	83.2761	1,463.38	82.4247	1,463.38	83.6297	1,463.38	83.0465	1,463.38	82.7411	1,463.38	82.538	1,463.38	81.3914	1,463.38	80.9899	1,463.38	80.1457	1,463.38	79.3698	1,463.38	77.7023	1,463.38	78.7169	1,463.38	74.9838	1,463.38	77.6816	1,463.38	75.4269	1,463.38	75.6633	1,463.38	74.4417	1,463.38	73.4488	1,463.38	71.6645	1,463.38	72.9798	1,463.38	68.5976	1,463.38	73.5374	1,463.38	71.5864	1,463.38	74.0163	1,463.38	73.9389	1,463.38	70.6582	1,463.38	71.3069	1,463.38	71.1626	1,463.38	70.0747	1,463.38	73.2535	1,463.38	71.1218	1,463.38	67.8049	1,463.38	66.0997
1,516.11	82.1539	1,516.11	83.3409	1,516.11	82.294	1,516.11	83.6682	1,516.11	83.1301	1,516.11	83.1135	1,516.11	83.4535	1,516.11	82.2221	1,516.11	82.7191	1,516.11	81.0422	1,516.11	81.4161	1,516.11	78.9444	1,516.11	79.5345	1,516.11	75.2962	1,516.11	77.8407	1,516.11	73.2671	1,516.11	76.9839	1,516.11	74.8387	1,516.11	75.2011	1,516.11	73.9934	1,516.11	72.0022	1,516.11	73.859	1,516.11	71.3025	1,516.11	74.0552	1,516.11	72.8872	1,516.11	70.9832	1,516.11	74.1154	1,516.11	71.431	1,516.11	70.7409	1,516.11	70.8626	1,516.11	67.5433	1,516.11	71.3389	1,516.11	71.9414	1,516.11	72.1158	1,516.11	69.7269	1,516.11	66.4926
1,568.85	81.439	1,568.85	82.4232	1,568.85	82.3183	1,568.85	84.123	1,568.85	82.9548	1,568.85	82.9713	1,568.85	83.7024	1,568.85	81.6782	1,568.85	83.2778	1,568.85	81.2842	1,568.85	81.7521	1,568.85	79.0656	1,568.85	79.6194	1,568.85	78.1955	1,568.85	78.5271	1,568.85	76.4565	1,568.85	78.1706	1,568.85	75.367	1,568.85	77.1781	1,568.85	77.5819	1,568.85	74.4031	1,568.85	77.1111	1,568.85	74.6284	1,568.85	74.4178	1,568.85	73.166	1,568.85	70.0362	1,568.85	69.477	1,568.85	70.524	1,568.85	66.9701	1,568.85	72.403	1,568.85	70.8667	1,568.85	73.4946	1,568.85	69.3248	1,568.85	72.2855	1,568.85	70.4716	1,568.85	65.4802
1,624.51	81.7419	1,624.51	82.2023	1,624.51	82.1204	1,624.51	83.1928	1,624.51	84.1446	1,624.51	83.9002	1,624.51	84.3556	1,624.51	82.9317	1,624.51	83.2474	1,624.51	79.8138	1,624.51	82.1842	1,624.51	77.4206	1,624.51	80.5122	1,624.51	78.1117	1,624.51	78.8822	1,624.51	76.3862	1,624.51	77.4131	1,624.51	72.9325	1,624.51	75.2538	1,624.51	71.062	1,624.51	72.6056	1,624.51	72.9615	1,624.51	70.6965	1,624.51	74.29	1,624.51	69.1747	1,624.51	73.0598	1,624.51	69.0031	1,624.51	71.9984	1,624.51	70.7013	1,624.51	71.8734	1,624.51	67.8071	1,624.51	67.5933	1,624.51	73.8688	1,624.51	68.6556	1,624.51	72.8475	1,624.51	61.0346
1,681.64	82.5405	1,681.64	83.0281	1,681.64	82.2604	1,681.64	82.5562	1,681.64	83.76	1,681.64	83.4292	1,681.64	83.7876	1,681.64	81.866	1,681.64	83.2649	1,681.64	77.7482	1,681.64	81.6779	1,681.64	76.6313	1,681.64	80.4668	1,681.64	74.9868	1,681.64	79.2898	1,681.64	73.4269	1,681.64	78.3894	1,681.64	73.1077	1,681.64	77.3833	1,681.64	70.2129	1,681.64	75.2433	1,681.64	65.951	1,681.64	68.4182	1,681.64	72.4701	1,681.64	71.5692	1,681.64	74.9405	1,681.64	68.109	1,681.64	73.2121	1,681.64	72.841	1,681.64	69.8929	1,681.64	67.425	1,681.64	67.1462	1,681.64	74.4347	1,681.64	69.3796	1,681.64	69.2285	1,681.64	67.7135
1,741.7	83.2164	1,741.7	83.3339	1,741.7	83.4585	1,741.7	83.909	1,741.7	83.6999	1,741.7	83.8882	1,741.7	84.1537	1,741.7	82.3657	1,741.7	82.801	1,741.7	78.2559	1,741.7	80.2631	1,741.7	76.5606	1,741.7	78.4604	1,741.7	77.3566	1,741.7	77.7967	1,741.7	73.6611	1,741.7	78.8151	1,741.7	67.2505	1,741.7	78.6189	1,741.7	66.4478	1,741.7	76.0195	1,741.7	62.2583	1,741.7	70.7789	1,741.7	66.3504	1,741.7	69.9155	1,741.7	73.0248	1,741.7	74.4008	1,741.7	73.5655	1,741.7	68.3129	1,741.7	70.7456	1,741.7	71.2526	1,741.7	68.4486	1,741.7	72.9059	1,741.7	71.3328	1,741.7	73.5246	1,741.7	62.6939
1,803.22	83.717	1,803.22	83.8795	1,803.22	84.304	1,803.22	83.5986	1,803.22	84.4706	1,803.22	82.697	1,803.22	84.5849	1,803.22	82.166	1,803.22	82.6829	1,803.22	79.8952	1,803.22	80.7587	1,803.22	79.8789	1,803.22	79.2617	1,803.22	77.8543	1,803.22	78.4948	1,803.22	71.7135	1,803.22	77.7409	1,803.22	75.3223	1,803.22	76.3928	1,803.22	74.2483	1,803.22	75.999	1,803.22	68.7505	1,803.22	74.1527	1,803.22	66.5498	1,803.22	72.5861	1,803.22	71.0766	1,803.22	74.8448	1,803.22	71.0761	1,803.22	73.3109	1,803.22	74.9965	1,803.22	64.9586	1,803.22	74.7346	1,803.22	72.1307	1,803.22	68.6791	1,803.22	72.0091	1,803.22	65.4493
1,866.21	83.1524	1,866.21	83.4056	1,866.21	84.5647	1,866.21	84.5752	1,866.21	84.7341	1,866.21	83.8985	1,866.21	84.6057	1,866.21	81.3531	1,866.21	83.4743	1,866.21	80.0839	1,866.21	80.7578	1,866.21	80.9615	1,866.21	79.3546	1,866.21	78.3569	1,866.21	76.6162	1,866.21	73.5961	1,866.21	74.6736	1,866.21	76.3915	1,866.21	75.736	1,866.21	72.6869	1,866.21	78.7607	1,866.21	73.9545	1,866.21	77.3487	1,866.21	69.2933	1,866.21	76.3367	1,866.21	70.1347	1,866.21	73.8932	1,866.21	70.7593	1,866.21	73.5366	1,866.21	63.9612	1,866.21	69.3501	1,866.21	69.7795	1,866.21	65.9942	1,866.21	69.5523	1,866.21	71.9457	1,866.21	59.1733
1,932.13	82.2193	1,932.13	82.9832	1,932.13	83.0584	1,932.13	84.6507	1,932.13	84.6664	1,932.13	83.5884	1,932.13	84.0303	1,932.13	80.0687	1,932.13	83.6094	1,932.13	79.5621	1,932.13	81.986	1,932.13	79.1769	1,932.13	79.8962	1,932.13	74.3765	1,932.13	75.7213	1,932.13	66.9914	1,932.13	73.3862	1,932.13	69.7453	1,932.13	72.5062	1,932.13	74.3384	1,932.13	75.4914	1,932.13	75.3958	1,932.13	75.3415	1,932.13	72.8914	1,932.13	74.1958	1,932.13	68.1764	1,932.13	76.5051	1,932.13	71.9633	1,932.13	72.7626	1,932.13	68.8721	1,932.13	70.8131	1,932.13	65.3737	1,932.13	67.2711	1,932.13	68.7042	1,932.13	72.0182	1,932.13	61.4462
1,999.51	83.3574	1,999.51	82.9371	1,999.51	83.6598	1,999.51	82.8522	1,999.51	83.81	1,999.51	82.6578	1,999.51	83.2575	1,999.51	82.203	1,999.51	83.4703	1,999.51	79.7668	1,999.51	82.4252	1,999.51	78.4092	1,999.51	80.8881	1,999.51	76.6889	1,999.51	78.869	1,999.51	72.0578	1,999.51	75.3223	1,999.51	69.6093	1,999.51	73.4233	1,999.51	63.0257	1,999.51	74.4522	1,999.51	71.0686	1,999.51	74.9492	1,999.51	72.8466	1,999.51	70.5433	1,999.51	61.3965	1,999.51	71.7576	1,999.51	71.6052	1,999.51	73.1411	1,999.51	70.2774	1,999.51	71.2054	1,999.51	66.0521	1,999.51	70.9392	1,999.51	66.7869	1,999.51	69.4371	1,999.51	63.3161
2,069.82	83.8246	2,069.82	83.3703	2,069.82	83.6127	2,069.82	82.6872	2,069.82	83.47	2,069.82	82.7961	2,069.82	83.4516	2,069.82	82.0196	2,069.82	84.0083	2,069.82	79.5342	2,069.82	82.4501	2,069.82	77.3233	2,069.82	81.5789	2,069.82	72.5982	2,069.82	79.259	2,069.82	74.3925	2,069.82	77.061	2,069.82	73.4866	2,069.82	76.5276	2,069.82	69.9845	2,069.82	75.3829	2,069.82	67.3563	2,069.82	73.0323	2,069.82	72.1619	2,069.82	69.1542	2,069.82	68.019	2,069.82	68.5609	2,069.82	69.8852	2,069.82	73.1049	2,069.82	72.6196	2,069.82	71.1102	2,069.82	66.7493	2,069.82	70.1675	2,069.82	67.3271	2,069.82	68.8229	2,069.82	61.4906
2,143.07	82.7882	2,143.07	83.1102	2,143.07	83.2396	2,143.07	84.1663	2,143.07	83.4684	2,143.07	83.2417	2,143.07	83.4317	2,143.07	81.2983	2,143.07	83.1104	2,143.07	78.9245	2,143.07	82.5807	2,143.07	77.1658	2,143.07	81.0228	2,143.07	75.1217	2,143.07	78.5428	2,143.07	70.9917	2,143.07	77.7254	2,143.07	69.95	2,143.07	76.8022	2,143.07	68.9087	2,143.07	75.0308	2,143.07	66.6022	2,143.07	73.1676	2,143.07	69.9693	2,143.07	71.8444	2,143.07	70.9337	2,143.07	68.7696	2,143.07	66.8521	2,143.07	71.6328	2,143.07	72.5546	2,143.07	71.6038	2,143.07	67.5288	2,143.07	68.8328	2,143.07	65.6383	2,143.07	67.8978	2,143.07	58.0845
2,219.24	82.4197	2,219.24	82.4914	2,219.24	83.0158	2,219.24	83.8907	2,219.24	83.415	2,219.24	83.6232	2,219.24	83.2724	2,219.24	80.7686	2,219.24	83.2639	2,219.24	78.2293	2,219.24	82.8124	2,219.24	78.4493	2,219.24	80.9273	2,219.24	74.9599	2,219.24	78.6019	2,219.24	74.8005	2,219.24	75.1224	2,219.24	74.1614	2,219.24	76.118	2,219.24	69.5851	2,219.24	74.0249	2,219.24	63.8854	2,219.24	72.4751	2,219.24	66.8995	2,219.24	72.21	2,219.24	72.1776	2,219.24	69.6371	2,219.24	66.9508	2,219.24	71.7346	2,219.24	71.8227	2,219.24	70.5991	2,219.24	68.6278	2,219.24	68.6762	2,219.24	65.434	2,219.24	67.115	2,219.24	61.9966
2,296.88	83.3783	2,296.88	82.7565	2,296.88	83.1845	2,296.88	83.2292	2,296.88	82.6279	2,296.88	83.0183	2,296.88	82.3753	2,296.88	80.6934	2,296.88	83.4074	2,296.88	79.6793	2,296.88	82.3641	2,296.88	78.0981	2,296.88	80.5645	2,296.88	77.5093	2,296.88	77.0964	2,296.88	73.8726	2,296.88	74.8282	2,296.88	65.8055	2,296.88	72.6561	2,296.88	68.892	2,296.88	65.4604	2,296.88	69.6623	2,296.88	66.5347	2,296.88	61.7609	2,296.88	70.4647	2,296.88	71.6703	2,296.88	69.8069	2,296.88	68.5637	2,296.88	70.1691	2,296.88	71.4969	2,296.88	69.4613	2,296.88	69.1189	2,296.88	67.7676	2,296.88	63.6516	2,296.88	66.8367	2,296.88	56.0999
2,378.91	82.7847	2,378.91	83.2665	2,378.91	82.6118	2,378.91	83.1305	2,378.91	82.6528	2,378.91	81.9165	2,378.91	83.1734	2,378.91	81.8058	2,378.91	83.4179	2,378.91	79.7061	2,378.91	82.1497	2,378.91	76.7596	2,378.91	80.1958	2,378.91	72.4101	2,378.91	76.0548	2,378.91	71.533	2,378.91	75.7749	2,378.91	69.008	2,378.91	74.801	2,378.91	63.7936	2,378.91	68.5557	2,378.91	68.8047	2,378.91	66.1336	2,378.91	64.4044	2,378.91	66.7458	2,378.91	68.2382	2,378.91	69.3922	2,378.91	69.1152	2,378.91	69.5727	2,378.91	68.2296	2,378.91	69.3299	2,378.91	69.1294	2,378.91	68.6754	2,378.91	61.4042	2,378.91	67.845	2,378.91	54.1578
2,462.4	82.249	2,462.4	82.8319	2,462.4	81.3605	2,462.4	83.2151	2,462.4	81.7248	2,462.4	82.2366	2,462.4	83.367	2,462.4	80.9608	2,462.4	83.4121	2,462.4	79.2893	2,462.4	82.523	2,462.4	74.2251	2,462.4	80.6942	2,462.4	72.7642	2,462.4	76.7808	2,462.4	70.215	2,462.4	69.7682	2,462.4	61.4696	2,462.4	70.7801	2,462.4	64.5361	2,462.4	67.5277	2,462.4	62.8231	2,462.4	65.5103	2,462.4	65.0428	2,462.4	67.4667	2,462.4	64.1718	2,462.4	70.7145	2,462.4	68.0533	2,462.4	69.9794	2,462.4	68.2819	2,462.4	68.3585	2,462.4	68.3511	2,462.4	69.734	2,462.4	62.8658	2,462.4	66.114	2,462.4	60.0578
2,548.83	82.5956	2,548.83	83.5876	2,548.83	80.9268	2,548.83	83.8159	2,548.83	80.5719	2,548.83	82.6725	2,548.83	82.7745	2,548.83	79.7492	2,548.83	82.3856	2,548.83	75.2844	2,548.83	81.5221	2,548.83	74.4636	2,548.83	80.2506	2,548.83	69.1515	2,548.83	74.0813	2,548.83	68.6272	2,548.83	76.0313	2,548.83	70.0093	2,548.83	72.2719	2,548.83	53.2139	2,548.83	58.6426	2,548.83	61.4849	2,548.83	33.929	2,548.83	65.3279	2,548.83	67.0702	2,548.83	62.0068	2,548.83	68.4287	2,548.83	65.4472	2,548.83	68.4834	2,548.83	68.3808	2,548.83	69.8871	2,548.83	66.5228	2,548.83	69.4211	2,548.83	61.5587	2,548.83	64.2166	2,548.83	61.0258
2,639.65	82.3018	2,639.65	83.5743	2,639.65	80.1259	2,639.65	83.4035	2,639.65	80.4865	2,639.65	82.2635	2,639.65	82.1235	2,639.65	79.0987	2,639.65	81.4972	2,639.65	75.6363	2,639.65	81.4477	2,639.65	73.6701	2,639.65	78.4303	2,639.65	70.8408	2,639.65	74.6383	2,639.65	69.1936	2,639.65	76.4881	2,639.65	64.3003	2,639.65	69.0702	2,639.65	58.7554	2,639.65	68.1883	2,639.65	55.5181	2,639.65	66.3239	2,639.65	63.0941	2,639.65	62.6758	2,639.65	65.4184	2,639.65	66.1083	2,639.65	63.534	2,639.65	69.6212	2,639.65	67.1908	2,639.65	70.1524	2,639.65	66.3948	2,639.65	69.3012	2,639.65	63.6753	2,639.65	62.32	2,639.65	60.8718
2,731.93	82.4361	2,731.93	83.8074	2,731.93	79.7999	2,731.93	83.4774	2,731.93	79.1191	2,731.93	81.2284	2,731.93	81.3468	2,731.93	78.5444	2,731.93	81.5338	2,731.93	74.0676	2,731.93	81.8837	2,731.93	71.9207	2,731.93	77.9793	2,731.93	68.1658	2,731.93	74.9896	2,731.93	62.7301	2,731.93	73.3283	2,731.93	63.474	2,731.93	66.3326	2,731.93	62.4847	2,731.93	73.5005	2,731.93	64.5047	2,731.93	67.457	2,731.93	65.5214	2,731.93	58.8449	2,731.93	65.3212	2,731.93	65.5542	2,731.93	62.7477	2,731.93	68.7732	2,731.93	65.1544	2,731.93	69.342	2,731.93	66.0002	2,731.93	69.0955	2,731.93	64.0797	2,731.93	60.9547	2,731.93	61.4118
2,828.61	83.2333	2,828.61	84.4464	2,828.61	79.8484	2,828.61	83.471	2,828.61	79.2768	2,828.61	80.6484	2,828.61	80.8657	2,828.61	74.908	2,828.61	81.5671	2,828.61	69.5206	2,828.61	82.1636	2,828.61	70.2432	2,828.61	78.1898	2,828.61	68.3199	2,828.61	75.9155	2,828.61	67.9357	2,828.61	73.0205	2,828.61	67.973	2,828.61	67.0218	2,828.61	70.2805	2,828.61	75.3872	2,828.61	67.6164	2,828.61	68.371	2,828.61	66.4525	2,828.61	46.7488	2,828.61	65.8958	2,828.61	61.1749	2,828.61	61.3146	2,828.61	69.0395	2,828.61	61.5573	2,828.61	68.8906	2,828.61	64.6807	2,828.61	70.0057	2,828.61	64.4376	2,828.61	61.6961	2,828.61	59.5969
2,928.22	82.8527	2,928.22	83.963	2,928.22	79.595	2,928.22	83.5724	2,928.22	77.4224	2,928.22	80.2878	2,928.22	79.4611	2,928.22	71.8085	2,928.22	80.826	2,928.22	66.3651	2,928.22	81.6643	2,928.22	70.3409	2,928.22	77.8643	2,928.22	69.5343	2,928.22	74.9072	2,928.22	72.0779	2,928.22	66.867	2,928.22	71.9913	2,928.22	72.4075	2,928.22	68.1948	2,928.22	72.9635	2,928.22	66.2974	2,928.22	63.3331	2,928.22	66.1703	2,928.22	47.7288	2,928.22	66.3815	2,928.22	60.7789	2,928.22	62.435	2,928.22	68.7198	2,928.22	57.7728	2,928.22	69.0551	2,928.22	63.8271	2,928.22	69.6197	2,928.22	66.131	2,928.22	63.8885	2,928.22	65.0832
3,030.76	83.0543	3,030.76	84.6952	3,030.76	79.1286	3,030.76	83.5669	3,030.76	73.9275	3,030.76	77.8021	3,030.76	77.2482	3,030.76	66.5831	3,030.76	80.724	3,030.76	69.3147	3,030.76	80.7149	3,030.76	71.86	3,030.76	77.2295	3,030.76	74.5489	3,030.76	73.245	3,030.76	73.2276	3,030.76	63.9307	3,030.76	70.2747	3,030.76	74.3274	3,030.76	69.5781	3,030.76	67.4827	3,030.76	68.6355	3,030.76	58.9174	3,030.76	67.3056	3,030.76	56.875	3,030.76	68.2468	3,030.76	62.6597	3,030.76	64.9077	3,030.76	67.98	3,030.76	56.3623	3,030.76	68.5123	3,030.76	61.8664	3,030.76	68.3498	3,030.76	66.312	3,030.76	63.2743	3,030.76	65.4781
3,137.7	83.2137	3,137.7	84.4739	3,137.7	79.9395	3,137.7	82.9956	3,137.7	70.5293	3,137.7	75.8706	3,137.7	75.9982	3,137.7	58.9873	3,137.7	79.5814	3,137.7	72.6115	3,137.7	80.3767	3,137.7	74.7697	3,137.7	77.1623	3,137.7	75.2956	3,137.7	72.5689	3,137.7	71.1201	3,137.7	70.7653	3,137.7	72.0805	3,137.7	75.1595	3,137.7	71.4933	3,137.7	58.9295	3,137.7	69.6038	3,137.7	63.5939	3,137.7	68.9692	3,137.7	59.7655	3,137.7	68.4549	3,137.7	65.2573	3,137.7	65.404	3,137.7	67.2295	3,137.7	57.8327	3,137.7	68.8387	3,137.7	61.7724	3,137.7	67.9538	3,137.7	68.1732	3,137.7	63.4696	3,137.7	66.4648
3,249.02	82.1904	3,249.02	83.5726	3,249.02	79.3095	3,249.02	81.7464	3,249.02	65.9126	3,249.02	73.792	3,249.02	74.7074	3,249.02	68.7137	3,249.02	79.0021	3,249.02	74.1031	3,249.02	78.8759	3,249.02	75.9999	3,249.02	76.2355	3,249.02	74.7736	3,249.02	74.4488	3,249.02	74.9626	3,249.02	74.85	3,249.02	73.6337	3,249.02	73.9455	3,249.02	71.4192	3,249.02	53.6198	3,249.02	69.2826	3,249.02	63.608	3,249.02	67.7444	3,249.02	67.0405	3,249.02	68.9754	3,249.02	67.3786	3,249.02	67.543	3,249.02	65.8419	3,249.02	58.497	3,249.02	68.5815	3,249.02	60.7841	3,249.02	66.9984	3,249.02	69.0108	3,249.02	65.1868	3,249.02	67.9437
3,363.28	82.1387	3,363.28	82.8868	3,363.28	78.4305	3,363.28	80.4588	3,363.28	68.5642	3,363.28	71.433	3,363.28	77.2044	3,363.28	73.2425	3,363.28	79.2072	3,363.28	75.6939	3,363.28	77.5291	3,363.28	77.0207	3,363.28	75.8854	3,363.28	77.4492	3,363.28	74.7395	3,363.28	75.5164	3,363.28	77.2527	3,363.28	72.2912	3,363.28	72.5254	3,363.28	71.7951	3,363.28	69.3428	3,363.28	71.0425	3,363.28	68.199	3,363.28	69.474	3,363.28	70.9329	3,363.28	68.662	3,363.28	66.4557	3,363.28	68.5313	3,363.28	65.968	3,363.28	61.0729	3,363.28	68.1191	3,363.28	53.7178	3,363.28	63.0504	3,363.28	68.1073	3,363.28	64.7429	3,363.28	68.1242
3,481.93	82.2229	3,481.93	82.2468	3,481.93	79.0456	3,481.93	79.6855	3,481.93	72.0717	3,481.93	72.3141	3,481.93	79.9718	3,481.93	74.5355	3,481.93	80.5343	3,481.93	77.9472	3,481.93	76.9501	3,481.93	78.5082	3,481.93	76.5807	3,481.93	77.7475	3,481.93	75.1005	3,481.93	75.563	3,481.93	78.6288	3,481.93	74.5844	3,481.93	68.723	3,481.93	72.8633	3,481.93	72.5326	3,481.93	70.8701	3,481.93	73.3334	3,481.93	67.8408	3,481.93	72.295	3,481.93	69.4621	3,481.93	66.6412	3,481.93	67.5637	3,481.93	67.0921	3,481.93	62.396	3,481.93	67.4288	3,481.93	62.4684	3,481.93	62.3789	3,481.93	69.2175	3,481.93	65.5071	3,481.93	67.4149
3,604.98	81.4336	3,604.98	81.9467	3,604.98	79.2942	3,604.98	78.8073	3,604.98	74.9984	3,604.98	72.9887	3,604.98	81.9391	3,604.98	76.6524	3,604.98	80.9901	3,604.98	79.2511	3,604.98	75.6981	3,604.98	79.3313	3,604.98	77.2365	3,604.98	77.7739	3,604.98	77.704	3,604.98	77.0988	3,604.98	76.4029	3,604.98	73.3974	3,604.98	74.2754	3,604.98	71.6321	3,604.98	75.5262	3,604.98	71.1891	3,604.98	73.2112	3,604.98	67.428	3,604.98	71.9188	3,604.98	68.639	3,604.98	67.8085	3,604.98	69.1921	3,604.98	66.5575	3,604.98	63.2401	3,604.98	67.8147	3,604.98	59.7578	3,604.98	59.4823	3,604.98	68.1507	3,604.98	66.6498	3,604.98	68.0346
3,732.42	82.0155	3,732.42	81.6881	3,732.42	79.6926	3,732.42	76.5589	3,732.42	77.3154	3,732.42	73.4317	3,732.42	83.165	3,732.42	77.6306	3,732.42	81.5965	3,732.42	80.2058	3,732.42	74.3299	3,732.42	79.3495	3,732.42	75.9753	3,732.42	78.3727	3,732.42	77.8252	3,732.42	75.8697	3,732.42	77.1012	3,732.42	71.9357	3,732.42	78.8199	3,732.42	72.2613	3,732.42	75.6435	3,732.42	68.9321	3,732.42	67.3718	3,732.42	69.989	3,732.42	69.3343	3,732.42	66.0305	3,732.42	69.201	3,732.42	68.1404	3,732.42	61.8913	3,732.42	64.3544	3,732.42	67.2443	3,732.42	57.3806	3,732.42	57.3888	3,732.42	68.6437	3,732.42	67.3119	3,732.42	68.5282
3,864.26	82.6463	3,864.26	80.5523	3,864.26	79.4559	3,864.26	76.6889	3,864.26	78.2274	3,864.26	75.6338	3,864.26	83.2544	3,864.26	79.8821	3,864.26	81.5912	3,864.26	80.6952	3,864.26	74.7246	3,864.26	79.4558	3,864.26	76.4972	3,864.26	77.7687	3,864.26	76.3738	3,864.26	74.5	3,864.26	77.889	3,864.26	74.6208	3,864.26	78.2156	3,864.26	70.5484	3,864.26	75.1205	3,864.26	69.8772	3,864.26	65.8622	3,864.26	65.0481	3,864.26	72.7009	3,864.26	67.2394	3,864.26	69.6725	3,864.26	67.3555	3,864.26	65.1728	3,864.26	63.6276	3,864.26	64.1428	3,864.26	58.9226	3,864.26	60.2351	3,864.26	67.9205	3,864.26	66.1462	3,864.26	68.7381
4,000.49	82.7515	4,000.49	78.7835	4,000.49	79.9104	4,000.49	78.3259	4,000.49	78.58	4,000.49	77.947	4,000.49	83.422	4,000.49	78.8855	4,000.49	81.5804	4,000.49	80.7203	4,000.49	74.7476	4,000.49	79.7248	4,000.49	77.971	4,000.49	78.2315	4,000.49	76.6666	4,000.49	77.1648	4,000.49	77.0851	4,000.49	74.0547	4,000.49	78.7227	4,000.49	70.4599	4,000.49	72.4028	4,000.49	70.9211	4,000.49	72.0128	4,000.49	66.4858	4,000.49	71.7576	4,000.49	67.6546	4,000.49	71.8639	4,000.49	66.0351	4,000.49	66.5168	4,000.49	62.2592	4,000.49	64.0367	4,000.49	55.5139	4,000.49	59.1593	4,000.49	67.6178	4,000.49	64.3429	4,000.49	69.3914
4,141.11	82.134	4,141.11	81.0551	4,141.11	81.0043	4,141.11	79.1156	4,141.11	79.7482	4,141.11	76.1835	4,141.11	83.5714	4,141.11	80.3253	4,141.11	82.9068	4,141.11	82.2097	4,141.11	76.2895	4,141.11	79.2894	4,141.11	77.6084	4,141.11	79.1517	4,141.11	74.3329	4,141.11	73.7545	4,141.11	79.5851	4,141.11	73.7179	4,141.11	80.3398	4,141.11	70.9191	4,141.11	63.7324	4,141.11	69.5922	4,141.11	74.5367	4,141.11	65.8466	4,141.11	73.9068	4,141.11	65.1273	4,141.11	70.023	4,141.11	64.8232	4,141.11	68.1107	4,141.11	62.4536	4,141.11	63.3631	4,141.11	58.6198	4,141.11	62.1909	4,141.11	64.6364	4,141.11	66.1107	4,141.11	67.7438
4,287.6	82.5187	4,287.6	80.3911	4,287.6	80.5075	4,287.6	78.9473	4,287.6	80.8566	4,287.6	79.7384	4,287.6	83.9876	4,287.6	81.2979	4,287.6	83.9792	4,287.6	81.6089	4,287.6	75.268	4,287.6	80.6186	4,287.6	74.4786	4,287.6	77.4069	4,287.6	76.2081	4,287.6	75.005	4,287.6	81.4041	4,287.6	72.0517	4,287.6	77.3212	4,287.6	68.289	4,287.6	69.8776	4,287.6	69.9033	4,287.6	71.4581	4,287.6	65.7122	4,287.6	72.8517	4,287.6	64.4327	4,287.6	72.159	4,287.6	64.9279	4,287.6	66.3974	4,287.6	61.8535	4,287.6	65.6849	4,287.6	58.1087	4,287.6	64.4396	4,287.6	63.2825	4,287.6	64.8159	4,287.6	64.88
4,438.48	83.4627	4,438.48	82.3483	4,438.48	80.0182	4,438.48	78.9083	4,438.48	81.4968	4,438.48	80.0998	4,438.48	85.046	4,438.48	80.7749	4,438.48	84.277	4,438.48	82.4919	4,438.48	75.5106	4,438.48	76.9666	4,438.48	60.3169	4,438.48	76.1712	4,438.48	79.2771	4,438.48	72.5713	4,438.48	80.9879	4,438.48	72.7332	4,438.48	74.5843	4,438.48	72.1104	4,438.48	72.5622	4,438.48	65.3454	4,438.48	65.0461	4,438.48	66.9932	4,438.48	69.1693	4,438.48	63.5033	4,438.48	71.2851	4,438.48	62.6133	4,438.48	63.6878	4,438.48	64.4137	4,438.48	66.1926	4,438.48	52.7657	4,438.48	66.7695	4,438.48	64.7361	4,438.48	63.6003	4,438.48	67.1017
4,595.21	83.8817	4,595.21	83.5532	4,595.21	80.462	4,595.21	77.83	4,595.21	79.6601	4,595.21	80.391	4,595.21	84.3556	4,595.21	82.5557	4,595.21	84.7996	4,595.21	80.9987	4,595.21	78.1788	4,595.21	78.8797	4,595.21	71.1517	4,595.21	76.324	4,595.21	79.8192	4,595.21	76.9236	4,595.21	78.6352	4,595.21	72.8038	4,595.21	75.4879	4,595.21	71.239	4,595.21	67.8916	4,595.21	70.9706	4,595.21	73.5872	4,595.21	68.2188	4,595.21	68.9322	4,595.21	67.4231	4,595.21	71.1623	4,595.21	66.4015	4,595.21	67.0742	4,595.21	60.8096	4,595.21	60.2647	4,595.21	55.9505	4,595.21	66.454	4,595.21	64.2307	4,595.21	62.3464	4,595.21	68.3012
4,756.35	85.3393	4,756.35	82.8096	4,756.35	81.7131	4,756.35	77.2156	4,756.35	80.3313	4,756.35	82.9523	4,756.35	83.4409	4,756.35	82.2204	4,756.35	85.0716	4,756.35	79.9171	4,756.35	78.4583	4,756.35	78.9149	4,756.35	75.4403	4,756.35	79.3705	4,756.35	79.231	4,756.35	76.757	4,756.35	77.2175	4,756.35	74.3595	4,756.35	78.5712	4,756.35	73.133	4,756.35	68.7867	4,756.35	68.2176	4,756.35	70.1266	4,756.35	68.8278	4,756.35	63.0145	4,756.35	66.2475	4,756.35	68.3221	4,756.35	65.5733	4,756.35	64.7624	4,756.35	64.3692	4,756.35	58.6848	4,756.35	52.8276	4,756.35	65.5788	4,756.35	60.8219	4,756.35	62.1801	4,756.35	64.987
4,924.8	85.5878	4,924.8	81.7477	4,924.8	82.7029	4,924.8	79.6195	4,924.8	80.588	4,924.8	83.2948	4,924.8	83.1203	4,924.8	80.5703	4,924.8	84.0252	4,924.8	80.6365	4,924.8	79.6997	4,924.8	80.4401	4,924.8	73.7602	4,924.8	79.0532	4,924.8	76.5724	4,924.8	75.4885	4,924.8	74.0758	4,924.8	73.2857	4,924.8	76.4046	4,924.8	69.8218	4,924.8	68.1632	4,924.8	69.7566	4,924.8	61.7826	4,924.8	66.675	4,924.8	69.6327	4,924.8	66.4083	4,924.8	64.4371	4,924.8	64.3963	4,924.8	61.6404	4,924.8	62.33	4,924.8	59.4117	4,924.8	60.1971	4,924.8	66.5604	4,924.8	61.9866	4,924.8	62.8566	4,924.8	64.9976
5,097.66	85.487	5,097.66	80.4625	5,097.66	83.6983	5,097.66	82.244	5,097.66	80.8582	5,097.66	83.2346	5,097.66	83.2019	5,097.66	80.9453	5,097.66	82.9778	5,097.66	81.4837	5,097.66	80.1246	5,097.66	79.898	5,097.66	75.0039	5,097.66	77.6668	5,097.66	73.2282	5,097.66	74.5348	5,097.66	71.7384	5,097.66	71.6779	5,097.66	72.0064	5,097.66	69.4153	5,097.66	66.5416	5,097.66	67.8258	5,097.66	55.9749	5,097.66	67.2777	5,097.66	69.7832	5,097.66	61.981	5,097.66	65.9664	5,097.66	64.1511	5,097.66	67.7284	5,097.66	61.3201	5,097.66	56.0062	5,097.66	53.9509	5,097.66	66.5965	5,097.66	62.5212	5,097.66	62.8447	5,097.66	60.6995
5,277.83	84.4733	5,277.83	79.6242	5,277.83	83.6179	5,277.83	83.4335	5,277.83	82.2526	5,277.83	82.6889	5,277.83	83.7185	5,277.83	81.244	5,277.83	82.0325	5,277.83	81.7869	5,277.83	80.0969	5,277.83	78.5206	5,277.83	72.2724	5,277.83	76.1413	5,277.83	69.6928	5,277.83	73.5172	5,277.83	72.379	5,277.83	71.7914	5,277.83	71.542	5,277.83	70.0726	5,277.83	69.3244	5,277.83	66.6405	5,277.83	52.2154	5,277.83	66.2632	5,277.83	66.0428	5,277.83	63.0449	5,277.83	64.8483	5,277.83	64.8501	5,277.83	64.7233	5,277.83	63.6726	5,277.83	53.4253	5,277.83	49.613	5,277.83	65.7124	5,277.83	62.3989	5,277.83	62.3419	5,277.83	63.0182
5,463.87	83.6616	5,463.87	81.6856	5,463.87	82.4452	5,463.87	83.3286	5,463.87	83.0086	5,463.87	81.7826	5,463.87	83.807	5,463.87	81.9848	5,463.87	80.7396	5,463.87	81.3233	5,463.87	81.5408	5,463.87	77.7569	5,463.87	69.8428	5,463.87	77.5738	5,463.87	71.0278	5,463.87	75.4286	5,463.87	72.4995	5,463.87	72.639	5,463.87	72.3065	5,463.87	71.4649	5,463.87	70.7806	5,463.87	68.3608	5,463.87	61.2322	5,463.87	67.0511	5,463.87	63.084	5,463.87	64.0164	5,463.87	66.4108	5,463.87	65.5459	5,463.87	68.0014	5,463.87	63.8048	5,463.87	49.9671	5,463.87	48.8413	5,463.87	66.8073	5,463.87	61.0557	5,463.87	62.6278	5,463.87	64.8288
5,657.23	83.5318	5,657.23	82.3015	5,657.23	82.5093	5,657.23	82.8399	5,657.23	83.2398	5,657.23	82.9247	5,657.23	83.0875	5,657.23	82.3799	5,657.23	80.7509	5,657.23	80.5011	5,657.23	81.1438	5,657.23	79.6805	5,657.23	66.5411	5,657.23	78.5451	5,657.23	70.9257	5,657.23	76.3187	5,657.23	71.587	5,657.23	72.8417	5,657.23	73.3194	5,657.23	71.2289	5,657.23	71.5628	5,657.23	67.1419	5,657.23	67.9213	5,657.23	67.384	5,657.23	61.8398	5,657.23	64.2877	5,657.23	65.9292	5,657.23	62.8774	5,657.23	67.4644	5,657.23	65.1958	5,657.23	61.4054	5,657.23	50.3775	5,657.23	63.0621	5,657.23	61.7936	5,657.23	56.2477	5,657.23	64.2289
5,856.45	84.1582	5,856.45	82.5181	5,856.45	82.6449	5,856.45	82.8745	5,856.45	81.4998	5,856.45	84.3017	5,856.45	82.4215	5,856.45	80.9306	5,856.45	81.8923	5,856.45	80.9117	5,856.45	82.1363	5,856.45	80.4156	5,856.45	74.8927	5,856.45	77.9362	5,856.45	70.8705	5,856.45	73.7168	5,856.45	72.2394	5,856.45	70.0067	5,856.45	71.6967	5,856.45	70.1351	5,856.45	72.2715	5,856.45	65.1837	5,856.45	70.5622	5,856.45	67.2004	5,856.45	59.2244	5,856.45	63.8134	5,856.45	58.5508	5,856.45	60.6765	5,856.45	62.3475	5,856.45	62.5185	5,856.45	60.8718	5,856.45	55.6623	5,856.45	64.9723	5,856.45	62.6087	5,856.45	58.4936	5,856.45	64.5012
6,062.99	82.8425	6,062.99	80.868	6,062.99	81.6405	6,062.99	84.3384	6,062.99	80.1318	6,062.99	83.9243	6,062.99	82.2627	6,062.99	80.1808	6,062.99	83.1153	6,062.99	82.1122	6,062.99	81.1025	6,062.99	79.9233	6,062.99	77.8919	6,062.99	75.6371	6,062.99	72.4807	6,062.99	73.9895	6,062.99	72.8846	6,062.99	71.2578	6,062.99	67.5837	6,062.99	69.9543	6,062.99	72.6255	6,062.99	68.0623	6,062.99	71.6879	6,062.99	67.8656	6,062.99	61.2343	6,062.99	65.1118	6,062.99	62.993	6,062.99	64.8762	6,062.99	57.7918	6,062.99	65.83	6,062.99	60.8078	6,062.99	55.3206	6,062.99	66.3242	6,062.99	58.6959	6,062.99	62.7963	6,062.99	62.3174
6,276.86	82.604	6,276.86	82.2802	6,276.86	82.6284	6,276.86	84.9161	6,276.86	83.7432	6,276.86	80.9227	6,276.86	83.4473	6,276.86	82.2853	6,276.86	81.0458	6,276.86	82.0583	6,276.86	81.099	6,276.86	79.293	6,276.86	78.799	6,276.86	76.9241	6,276.86	74.7692	6,276.86	75.1902	6,276.86	71.7301	6,276.86	72.9526	6,276.86	67.1478	6,276.86	70.8492	6,276.86	69.8754	6,276.86	67.9839	6,276.86	67.9106	6,276.86	67.0147	6,276.86	60.1545	6,276.86	67.5694	6,276.86	58.932	6,276.86	65.3414	6,276.86	56.3955	6,276.86	64.5706	6,276.86	56.787	6,276.86	61.8002	6,276.86	66.115	6,276.86	58.2595	6,276.86	64.568	6,276.86	60.7942
6,498.05	82.8268	6,498.05	83.1677	6,498.05	83.2638	6,498.05	83.2999	6,498.05	83.8024	6,498.05	81.5358	6,498.05	84.906	6,498.05	82.9055	6,498.05	78.1617	6,498.05	80.7805	6,498.05	81.5153	6,498.05	79.3594	6,498.05	79.1391	6,498.05	77.9955	6,498.05	74.3497	6,498.05	75.3922	6,498.05	63.6801	6,498.05	71.6545	6,498.05	66.1327	6,498.05	70.5496	6,498.05	67.559	6,498.05	66.5993	6,498.05	54.1574	6,498.05	65.6412	6,498.05	44.3754	6,498.05	65.7185	6,498.05	61.5476	6,498.05	64.4424	6,498.05	60.4494	6,498.05	63.5807	6,498.05	54.1619	6,498.05	60.9288	6,498.05	63.2183	6,498.05	53.2635	6,498.05	60.4579	6,498.05	64.0329
6,726.56	81.7107	6,726.56	83.2423	6,726.56	81.68	6,726.56	82.3012	6,726.56	76.6855	6,726.56	83.0482	6,726.56	84.5518	6,726.56	81.8179	6,726.56	78.4899	6,726.56	79.6739	6,726.56	81.5126	6,726.56	80.2252	6,726.56	81.032	6,726.56	77.4132	6,726.56	70.9339	6,726.56	73.1271	6,726.56	69.3172	6,726.56	70.0183	6,726.56	64.92	6,726.56	68.0089	6,726.56	68.8183	6,726.56	64.4729	6,726.56	64.21	6,726.56	65.4923	6,726.56	53.9977	6,726.56	62.7399	6,726.56	59.4039	6,726.56	63.0977	6,726.56	59.4983	6,726.56	64.9202	6,726.56	53.5079	6,726.56	62.1476	6,726.56	62.508	6,726.56	53.8661	6,726.56	53.9372	6,726.56	62.8282
6,963.87	82.1604	6,963.87	83.0285	6,963.87	83.9738	6,963.87	82.0443	6,963.87	78.5393	6,963.87	83.2991	6,963.87	83.2132	6,963.87	79.8899	6,963.87	81.71	6,963.87	81.0746	6,963.87	81.6773	6,963.87	79.5837	6,963.87	81.4041	6,963.87	75.1806	6,963.87	65.099	6,963.87	71.0035	6,963.87	71.7401	6,963.87	68.707	6,963.87	58.2829	6,963.87	66.5943	6,963.87	64.813	6,963.87	65.0515	6,963.87	65.406	6,963.87	64.8533	6,963.87	51.781	6,963.87	63.6145	6,963.87	57.7584	6,963.87	60.8467	6,963.87	57.3089	6,963.87	66.7086	6,963.87	56.7308	6,963.87	62.3984	6,963.87	61.9532	6,963.87	57.7515	6,963.87	57.8621	6,963.87	62.7642
7,209.96	81.8494	7,209.96	82.3381	7,209.96	84.651	7,209.96	83.1489	7,209.96	82.5301	7,209.96	81.805	7,209.96	79.7044	7,209.96	81.3104	7,209.96	82.8931	7,209.96	81.0648	7,209.96	81.6554	7,209.96	77.3049	7,209.96	79.3688	7,209.96	74.0396	7,209.96	74.0748	7,209.96	72.6329	7,209.96	73.1731	7,209.96	69.4204	7,209.96	60.7005	7,209.96	67.0886	7,209.96	59.9205	7,209.96	66.1307	7,209.96	63.7238	7,209.96	65.4409	7,209.96	57.9182	7,209.96	63.9174	7,209.96	50.1661	7,209.96	63.197	7,209.96	57.4006	7,209.96	65.9627	7,209.96	54.4394	7,209.96	60.7887	7,209.96	61.8989	7,209.96	55.2765	7,209.96	58.578	7,209.96	61.9902
7,464.84	82.3615	7,464.84	82.8873	7,464.84	82.8505	7,464.84	83.6518	7,464.84	82.5013	7,464.84	80.689	7,464.84	79.5276	7,464.84	81.905	7,464.84	82.4472	7,464.84	79.0344	7,464.84	81.8769	7,464.84	77.1621	7,464.84	76.217	7,464.84	75.3343	7,464.84	77.9648	7,464.84	73.1889	7,464.84	70.8288	7,464.84	69.9726	7,464.84	68.5626	7,464.84	68.1263	7,464.84	51.5067	7,464.84	64.8704	7,464.84	62.1221	7,464.84	64.8496	7,464.84	51.8965	7,464.84	64.8564	7,464.84	56.5383	7,464.84	64.5592	7,464.84	49.0244	7,464.84	64.5869	7,464.84	53.4552	7,464.84	63.0391	7,464.84	59.4918	7,464.84	55.9333	7,464.84	59.4069	7,464.84	60.7831
7,727.05	82.9625	7,727.05	82.4707	7,727.05	82.0838	7,727.05	83.3078	7,727.05	81.5046	7,727.05	81.9672	7,727.05	82.5778	7,727.05	80.4918	7,727.05	79.8792	7,727.05	77.3957	7,727.05	82.4644	7,727.05	78.7444	7,727.05	77.5018	7,727.05	74.4492	7,727.05	77.0396	7,727.05	71.8117	7,727.05	68.9513	7,727.05	67.7549	7,727.05	68.2534	7,727.05	68.1007	7,727.05	59.9564	7,727.05	61.0892	7,727.05	62.963	7,727.05	64.1999	7,727.05	58.9325	7,727.05	63.9731	7,727.05	45.3421	7,727.05	63.8144	7,727.05	41.6134	7,727.05	64.2794	7,727.05	51.0907	7,727.05	64.1873	7,727.05	57.9395	7,727.05	55.8565	7,727.05	55.9879	7,727.05	59.1006
7,999.51	82.483	7,999.51	83.1972	7,999.51	83.5593	7,999.51	82.8256	7,999.51	81.354	7,999.51	82.6667	7,999.51	83.5236	7,999.51	77.9253	7,999.51	80.3667	7,999.51	79.1957	7,999.51	80.192	7,999.51	78.411	7,999.51	81.0457	7,999.51	73.8039	7,999.51	73.5662	7,999.51	72.9531	7,999.51	72.1107	7,999.51	70.4522	7,999.51	65.354	7,999.51	67.423	7,999.51	65.0152	7,999.51	64.1366	7,999.51	62.0992	7,999.51	63.3837	7,999.51	54.4593	7,999.51	60.5845	7,999.51	49.0468	7,999.51	63.4004	7,999.51	53.1184	7,999.51	65.2278	7,999.51	55.5301	7,999.51	64.6664	7,999.51	57.8611	7,999.51	50.6441	7,999.51	56.8076	7,999.51	58.4772
8,282.23	82.1688	8,282.23	82.7956	8,282.23	83.0779	8,282.23	83.3304	8,282.23	81.6238	8,282.23	81.4084	8,282.23	82.8247	8,282.23	79.5437	8,282.23	81.4555	8,282.23	79.506	8,282.23	76.2712	8,282.23	78.2559	8,282.23	81.3929	8,282.23	76.6101	8,282.23	71.4416	8,282.23	73.4584	8,282.23	72.056	8,282.23	71.222	8,282.23	67.2783	8,282.23	64.7361	8,282.23	66.8073	8,282.23	65.8816	8,282.23	63.7649	8,282.23	62.979	8,282.23	55.1301	8,282.23	59.0295	8,282.23	46.269	8,282.23	62.3057	8,282.23	56.5526	8,282.23	66.5538	8,282.23	50.48	8,282.23	64.0815	8,282.23	55.4261	8,282.23	54.3722	8,282.23	54.5462	8,282.23	59.7322
8,573.73	82.302	8,573.73	83.5411	8,573.73	83.422	8,573.73	83.5073	8,573.73	81.6127	8,573.73	80.2318	8,573.73	81.8816	8,573.73	81.0366	8,573.73	80.3483	8,573.73	78.3929	8,573.73	79.5694	8,573.73	79.8288	8,573.73	78.8589	8,573.73	75.906	8,573.73	77.4908	8,573.73	71.8419	8,573.73	70.9013	8,573.73	70.0748	8,573.73	68.0109	8,573.73	64.4652	8,573.73	63.8304	8,573.73	65.4735	8,573.73	63.8278	8,573.73	61.9465	8,573.73	46.1707	8,573.73	61.4872	8,573.73	53.5094	8,573.73	59.9623	8,573.73	55.9164	8,573.73	66.3294	8,573.73	51.7752	8,573.73	64.0203	8,573.73	57.6019	8,573.73	50.0992	8,573.73	53.817	8,573.73	61.1955
8,876.95	83.1696	8,876.95	83.1664	8,876.95	81.7533	8,876.95	83.0207	8,876.95	82.1872	8,876.95	81.6192	8,876.95	81.1831	8,876.95	80.4373	8,876.95	79.2946	8,876.95	79.3407	8,876.95	81.9009	8,876.95	79.3352	8,876.95	74.2433	8,876.95	74.411	8,876.95	78.5751	8,876.95	72.5145	8,876.95	66.9553	8,876.95	69.8762	8,876.95	65.8684	8,876.95	66.7453	8,876.95	58.8615	8,876.95	64.2838	8,876.95	58.0065	8,876.95	63.3458	8,876.95	49.5849	8,876.95	62.9206	8,876.95	52.6889	8,876.95	61.2388	8,876.95	54.9035	8,876.95	65.0057	8,876.95	58.3321	8,876.95	63.7124	8,876.95	53.261	8,876.95	49.9838	8,876.95	47.939	8,876.95	60.0029
9,188.96	83.1556	9,188.96	82.7677	9,188.96	81.6272	9,188.96	82.922	9,188.96	82.8968	9,188.96	81.9186	9,188.96	82.4143	9,188.96	79.7637	9,188.96	79.5766	9,188.96	79.7729	9,188.96	79.9842	9,188.96	78.0254	9,188.96	76.5598	9,188.96	75.2203	9,188.96	74.8816	9,188.96	72.4058	9,188.96	65.8393	9,188.96	70.0474	9,188.96	64.3286	9,188.96	65.9279	9,188.96	43.3282	9,188.96	62.6716	9,188.96	41.8493	9,188.96	62.3921	9,188.96	52.3607	9,188.96	61.217	9,188.96	47.6075	9,188.96	60.8722	9,188.96	51.4258	9,188.96	62.5475	9,188.96	57.2056	9,188.96	63.0027	9,188.96	51.3239	9,188.96	46.2338	9,188.96	50.9528	9,188.96	60.3491
9,514.16	82.3036	9,514.16	82.4718	9,514.16	81.5423	9,514.16	82.6902	9,514.16	82.5419	9,514.16	80.7576	9,514.16	82.5973	9,514.16	80.3493	9,514.16	77.6523	9,514.16	77.933	9,514.16	77.6294	9,514.16	78.3663	9,514.16	76.7259	9,514.16	74.0365	9,514.16	68.0665	9,514.16	70.3143	9,514.16	63.4594	9,514.16	68.7474	9,514.16	61.2418	9,514.16	63.101	9,514.16	55.133	9,514.16	63.1213	9,514.16	57.3034	9,514.16	60.247	9,514.16	49.9475	9,514.16	57.08	9,514.16	47.3735	9,514.16	59.4638	9,514.16	49.4323	9,514.16	61.8428	9,514.16	53.2215	9,514.16	61.9959	9,514.16	51.7581	9,514.16	52.2657	9,514.16	52.9124	9,514.16	59.2972
9,849.61	82.4119	9,849.61	82.1936	9,849.61	81.6461	9,849.61	81.6829	9,849.61	81.8468	9,849.61	80.4964	9,849.61	81.8425	9,849.61	79.7858	9,849.61	76.0064	9,849.61	77.3073	9,849.61	77.3649	9,849.61	77.5105	9,849.61	75.9077	9,849.61	72.5306	9,849.61	70.6348	9,849.61	69.3608	9,849.61	62.8402	9,849.61	68.2777	9,849.61	57.3315	9,849.61	60.6764	9,849.61	57.3849	9,849.61	61.9482	9,849.61	57.7037	9,849.61	59.7101	9,849.61	45.8984	9,849.61	56.6099	9,849.61	46.4235	9,849.61	58.6727	9,849.61	50.7464	9,849.61	61.9277	9,849.61	50.8033	9,849.61	62.0866	9,849.61	53.6671	9,849.61	53.7082	9,849.61	53.2575	9,849.61	56.6035
10,196.8	82.622	10,196.8	82.348	10,196.8	83.0223	10,196.8	81.3418	10,196.8	82.1737	10,196.8	80.2645	10,196.8	80.1798	10,196.8	79.0499	10,196.8	78.8864	10,196.8	77.3141	10,196.8	76.9927	10,196.8	75.8555	10,196.8	74.4498	10,196.8	72.7816	10,196.8	71.788	10,196.8	68.6611	10,196.8	66.8367	10,196.8	66.6878	10,196.8	58.1248	10,196.8	58.9157	10,196.8	55.6399	10,196.8	61.1163	10,196.8	55.8019	10,196.8	57.7882	10,196.8	45.7236	10,196.8	55.3239	10,196.8	49.2807	10,196.8	58.4479	10,196.8	54.1596	10,196.8	61.0809	10,196.8	47.9143	10,196.8	62.385	10,196.8	46.2017	10,196.8	52.8423	10,196.8	51.4991	10,196.8	57.2027
10,555.7	83.1512	10,555.7	82.4821	10,555.7	83.3304	10,555.7	81.3473	10,555.7	81.6962	10,555.7	79.5461	10,555.7	79.7559	10,555.7	79.0075	10,555.7	79.1481	10,555.7	75.9285	10,555.7	75.1507	10,555.7	75.8725	10,555.7	72.6398	10,555.7	71.3032	10,555.7	73.645	10,555.7	67.4884	10,555.7	63.9415	10,555.7	64.5165	10,555.7	55.8315	10,555.7	56.1458	10,555.7	50.7065	10,555.7	60.6644	10,555.7	57.7433	10,555.7	56.0128	10,555.7	49.0621	10,555.7	52.5366	10,555.7	40.3036	10,555.7	58.687	10,555.7	51.9479	10,555.7	61.1868	10,555.7	47.0004	10,555.7	60.3852	10,555.7	54.1468	10,555.7	48.6501	10,555.7	52.0921	10,555.7	55.2984
10,927.7	83.8062	10,927.7	82.8696	10,927.7	83.684	10,927.7	81.6834	10,927.7	80.7294	10,927.7	79.7903	10,927.7	79.8629	10,927.7	78.4025	10,927.7	77.1723	10,927.7	74.8316	10,927.7	73.8271	10,927.7	75.0409	10,927.7	74.0232	10,927.7	70.249	10,927.7	72.284	10,927.7	67.0884	10,927.7	65.3542	10,927.7	64.8199	10,927.7	51.4829	10,927.7	56.9088	10,927.7	43.4196	10,927.7	59.4831	10,927.7	62.6769	10,927.7	54.9921	10,927.7	49.5719	10,927.7	55.3066	10,927.7	47.4043	10,927.7	58.6138	10,927.7	48.2291	10,927.7	59.9653	10,927.7	48.8415	10,927.7	58.2345	10,927.7	54.6874	10,927.7	49.392	10,927.7	45.4149	10,927.7	53.9631
11,313	83.995	11,313	83.4568	11,313	83.8358	11,313	81.9807	11,313	80.6425	11,313	80.2025	11,313	81.0994	11,313	76.9625	11,313	77.3835	11,313	74.9207	11,313	73.1311	11,313	74.586	11,313	75.0694	11,313	69.8208	11,313	70.5609	11,313	66.2162	11,313	68.3803	11,313	63.2432	11,313	56.7873	11,313	56.7034	11,313	53.7546	11,313	59.3632	11,313	65.7574	11,313	54.0799	11,313	56.5462	11,313	55.029	11,313	45.4249	11,313	56.75	11,313	54.3462	11,313	57.7563	11,313	42.2404	11,313	57.1534	11,313	47.6067	11,313	53.9505	11,313	50.7886	11,313	51.4935
11,712.9	84.0839	11,712.9	83.2902	11,712.9	84.5477	11,712.9	82.1361	11,712.9	80.4719	11,712.9	79.9151	11,712.9	80.4624	11,712.9	78.0425	11,712.9	75.7114	11,712.9	74.5195	11,712.9	73.5573	11,712.9	74.544	11,712.9	73.1433	11,712.9	68.2211	11,712.9	70.5958	11,712.9	65.42	11,712.9	68.0712	11,712.9	62.6742	11,712.9	50.1753	11,712.9	58.8613	11,712.9	51.5299	11,712.9	57.7654	11,712.9	64.8078	11,712.9	49.0531	11,712.9	54.0832	11,712.9	57.4685	11,712.9	52.469	11,712.9	56.7924	11,712.9	44.2235	11,712.9	58.9706	11,712.9	44.1319	11,712.9	59.6931	11,712.9	51.8513	11,712.9	55.9707	11,712.9	52.3787	11,712.9	47.8877
12,126	84.045	12,126	82.6105	12,126	83.9655	12,126	82.7262	12,126	80.8529	12,126	79.6634	12,126	78.4988	12,126	78.3812	12,126	76.2276	12,126	75.3269	12,126	73.2488	12,126	74.0724	12,126	72.6453	12,126	68.3217	12,126	71.6956	12,126	66.524	12,126	67.1599	12,126	63.128	12,126	55.9516	12,126	59.0766	12,126	41.4934	12,126	57.2564	12,126	63.5444	12,126	52.5512	12,126	54.5192	12,126	59.3531	12,126	26.1712	12,126	57.5717	12,126	53.83	12,126	58.9197	12,126	45.7801	12,126	58.8514	12,126	45.5856	12,126	53.5719	12,126	46.7239	12,126	52.421
12,553.7	83.411	12,553.7	82.832	12,553.7	82.7598	12,553.7	82.4265	12,553.7	81.0314	12,553.7	79.695	12,553.7	79.9819	12,553.7	79.134	12,553.7	78.2486	12,553.7	75.0552	12,553.7	76.2033	12,553.7	74.4414	12,553.7	73.8693	12,553.7	68.1487	12,553.7	70.3606	12,553.7	66.0683	12,553.7	68.1522	12,553.7	63.4956	12,553.7	56.2857	12,553.7	59.4617	12,553.7	53.1865	12,553.7	52.0483	12,553.7	63.5566	12,553.7	55.2338	12,553.7	53.5708	12,553.7	60.8234	12,553.7	47.8952	12,553.7	57.6603	12,553.7	49.9571	12,553.7	58.7898	12,553.7	39.5882	12,553.7	58.4749	12,553.7	45.6225	12,553.7	52.8397	12,553.7	45.2923	12,553.7	49.6713
12,996.1	82.5049	12,996.1	82.1099	12,996.1	81.481	12,996.1	81.7539	12,996.1	81.2527	12,996.1	79.3132	12,996.1	81.3595	12,996.1	78.865	12,996.1	78.6607	12,996.1	73.9449	12,996.1	76.5598	12,996.1	73.9043	12,996.1	71.0668	12,996.1	68.3812	12,996.1	66.6616	12,996.1	64.9082	12,996.1	66.793	12,996.1	61.88	12,996.1	60.332	12,996.1	56.2592	12,996.1	59.4085	12,996.1	52.7958	12,996.1	62.3727	12,996.1	55.0993	12,996.1	56.5131	12,996.1	57.1065	12,996.1	46.6676	12,996.1	54.97	12,996.1	51.283	12,996.1	56.0994	12,996.1	45.323	12,996.1	56.0697	12,996.1	47.1708	12,996.1	47.6478	12,996.1	46.1746	12,996.1	49.8648
13,454.6	81.929	13,454.6	81.4808	13,454.6	81.4731	13,454.6	81.361	13,454.6	80.9175	13,454.6	78.2811	13,454.6	79.8287	13,454.6	78.7359	13,454.6	78.1307	13,454.6	73.8798	13,454.6	74.5528	13,454.6	72.7832	13,454.6	71.2482	13,454.6	67.8023	13,454.6	64.9274	13,454.6	64.3457	13,454.6	62.7624	13,454.6	61.2558	13,454.6	62.1221	13,454.6	55.4225	13,454.6	57.4057	13,454.6	51.8151	13,454.6	59.2863	13,454.6	53.5899	13,454.6	51.5029	13,454.6	56.7839	13,454.6	28.2966	13,454.6	54.1564	13,454.6	51.4615	13,454.6	54.7982	13,454.6	38.2374	13,454.6	52.5142	13,454.6	36.3796	13,454.6	49.34	13,454.6	41.3322	13,454.6	46.131
13,929.2	81.6623	13,929.2	81.5956	13,929.2	81.1233	13,929.2	81.3253	13,929.2	81.2227	13,929.2	77.627	13,929.2	80.0505	13,929.2	78.2625	13,929.2	76.7637	13,929.2	73.538	13,929.2	75.5294	13,929.2	72.9907	13,929.2	68.0881	13,929.2	67.6091	13,929.2	67.8252	13,929.2	64.2339	13,929.2	63.6951	13,929.2	60.5433	13,929.2	61.7602	13,929.2	56.0185	13,929.2	57.6395	13,929.2	51.8965	13,929.2	61.4567	13,929.2	51.2237	13,929.2	49.3181	13,929.2	54.9483	13,929.2	48.5809	13,929.2	51.3422	13,929.2	51.6303	13,929.2	49.7754	13,929.2	34.3692	13,929.2	49.9981	13,929.2	39.162	13,929.2	37.2382	13,929.2	41.4503	13,929.2	43.9263
14,419.9	82.0801	14,419.9	82.0649	14,419.9	81.1855	14,419.9	81.4725	14,419.9	81.3534	14,419.9	77.555	14,419.9	80.4309	14,419.9	77.4644	14,419.9	77.2594	14,419.9	73.1089	14,419.9	75.0328	14,419.9	73.2089	14,419.9	69.5279	14,419.9	66.1977	14,419.9	67.83	14,419.9	62.3979	14,419.9	66.0185	14,419.9	56.9863	14,419.9	58.193	14,419.9	54.4732	14,419.9	60.9198	14,419.9	48.2509	14,419.9	65.0924	14,419.9	50.0762	14,419.9	54.5166	14,419.9	52.094	14,419.9	44.6855	14,419.9	46.7662	14,419.9	53.5194	14,419.9	48.8025	14,419.9	41.0046	14,419.9	47.8346	14,419.9	26.4758	14,419.9	46.7949	14,419.9	46.7026	14,419.9	41.2548
14,928.2	82.4881	14,928.2	82.4652	14,928.2	82.5439	14,928.2	81.2188	14,928.2	81.36	14,928.2	77.7656	14,928.2	80.0072	14,928.2	76.9716	14,928.2	76.3362	14,928.2	73.0407	14,928.2	73.1901	14,928.2	72.0373	14,928.2	70.7134	14,928.2	64.1132	14,928.2	68.42	14,928.2	61.5441	14,928.2	64.0497	14,928.2	53.3181	14,928.2	57.5632	14,928.2	53.8474	14,928.2	61.2511	14,928.2	25.9258	14,928.2	64.5931	14,928.2	49.3956	14,928.2	51.8115	14,928.2	53.1018	14,928.2	41.6362	14,928.2	41.1013	14,928.2	46.7917	14,928.2	47.3094	14,928.2	28.244	14,928.2	50.6267	14,928.2	44.0556	14,928.2	49.0048	14,928.2	46.8537	14,928.2	37.7821
15,455.6	83.2259	15,455.6	82.9015	15,455.6	83.1435	15,455.6	81.6138	15,455.6	81.3259	15,455.6	77.5411	15,455.6	79.6425	15,455.6	76.7045	15,455.6	76.7065	15,455.6	72.5916	15,455.6	73.1782	15,455.6	71.5571	15,455.6	68.1497	15,455.6	61.9702	15,455.6	67.1727	15,455.6	59.6032	15,455.6	61.1712	15,455.6	54.5685	15,455.6	53.8226	15,455.6	52.1865	15,455.6	61.7837	15,455.6	44.4022	15,455.6	64.9883	15,455.6	50.1264	15,455.6	54.7978	15,455.6	53.2333	15,455.6	45.4993	15,455.6	42.2092	15,455.6	50.3087	15,455.6	46.6182	15,455.6	35.3289	15,455.6	47.3187	15,455.6	39.1117	15,455.6	51.6714	15,455.6	50.7295	15,455.6	42.17
16,000.5	83.7387	16,000.5	83.3029	16,000.5	83.7476	16,000.5	81.8788	16,000.5	81.7281	16,000.5	77.3737	16,000.5	79.937	16,000.5	76.5754	16,000.5	76.3258	16,000.5	71.7211	16,000.5	70.3888	16,000.5	70.3536	16,000.5	68.0141	16,000.5	62.1677	16,000.5	66.2008	16,000.5	58.9624	16,000.5	59.1042	16,000.5	53.4807	16,000.5	45.1148	16,000.5	50.8605	16,000.5	63.08	16,000.5	47.2409	16,000.5	65.7662	16,000.5	49.765	16,000.5	54.3063	16,000.5	51.9942	16,000.5	39.6683	16,000.5	39.9963	16,000.5	48.0949	16,000.5	48.4711	16,000.5	39.5897	16,000.5	47.4247	16,000.5	43.9049	16,000.5	52.996	16,000.5	51.64	16,000.5	41.6029
16,564.5	83.8922	16,564.5	83.1087	16,564.5	83.6682	16,564.5	81.7077	16,564.5	81.5647	16,564.5	77.0426	16,564.5	79.2718	16,564.5	76.3244	16,564.5	74.8384	16,564.5	70.9147	16,564.5	68.9995	16,564.5	69.3533	16,564.5	66.2812	16,564.5	60.8527	16,564.5	61.9475	16,564.5	59.4079	16,564.5	52.8748	16,564.5	53.3082	16,564.5	49.412	16,564.5	49.213	16,564.5	62.7959	16,564.5	49.6497	16,564.5	64.9335	16,564.5	49.7034	16,564.5	51.5905	16,564.5	50.7687	16,564.5	40.3732	16,564.5	41.456	16,564.5	40.5373	16,564.5	45.568	16,564.5	33.199	16,564.5	42.8541	16,564.5	36.8488	16,564.5	52.4297	16,564.5	47.7606	16,564.5	42.5679
17,148.9	83.5716	17,148.9	82.8037	17,148.9	83.5172	17,148.9	81.7546	17,148.9	82.0309	17,148.9	76.5884	17,148.9	79.8349	17,148.9	76.1161	17,148.9	74.1857	17,148.9	70.5925	17,148.9	68.4388	17,148.9	68.801	17,148.9	62.7744	17,148.9	61.7205	17,148.9	58.2137	17,148.9	58.4586	17,148.9	53.9585	17,148.9	53.9446	17,148.9	52.3863	17,148.9	45.1314	17,148.9	65.2287	17,148.9	49.4309	17,148.9	66.1881	17,148.9	49.048	17,148.9	53.8363	17,148.9	47.9142	17,148.9	43.3975	17,148.9	38.5883	17,148.9	39.9609	17,148.9	42.8301	17,148.9	37.2456	17,148.9	42.3631	17,148.9	26.3973	17,148.9	51.1253	17,148.9	46.6448	17,148.9	44.4953
17,752.4	83.8262	17,752.4	82.9336	17,752.4	84.0037	17,752.4	82.1636	17,752.4	82.2638	17,752.4	76.3283	17,752.4	79.6149	17,752.4	75.8278	17,752.4	73.7856	17,752.4	70.4334	17,752.4	67.463	17,752.4	68.1937	17,752.4	61.6342	17,752.4	61.8153	17,752.4	58.5587	17,752.4	58.4006	17,752.4	54.9086	17,752.4	53.5453	17,752.4	54.2571	17,752.4	46.7933	17,752.4	65.4736	17,752.4	46.9147	17,752.4	66.2706	17,752.4	49.1604	17,752.4	52.7444	17,752.4	48.4005	17,752.4	41.857	17,752.4	42.327	17,752.4	42.6964	17,752.4	40.948	17,752.4	34.8694	17,752.4	43.5942	17,752.4	26.1443	17,752.4	51.2669	17,752.4	39.5276	17,752.4	43.4872
18,379.4	84.3774	18,379.4	83.5273	18,379.4	84.2424	18,379.4	82.4075	18,379.4	82.406	18,379.4	75.7351	18,379.4	78.8131	18,379.4	75.3781	18,379.4	73.7237	18,379.4	68.4667	18,379.4	65.9885	18,379.4	65.8625	18,379.4	57.9823	18,379.4	57.7321	18,379.4	56.6468	18,379.4	54.3186	18,379.4	51.1048	18,379.4	50.9194	18,379.4	50.3614	18,379.4	40.1804	18,379.4	64.1959	18,379.4	44.3161	18,379.4	64.618	18,379.4	45.3194	18,379.4	50.6006	18,379.4	46.5135	18,379.4	40.7835	18,379.4	42.8747	18,379.4	42.7561	18,379.4	39.653	18,379.4	32.674	18,379.4	46.9101	18,379.4	30.6551	18,379.4	49.006	18,379.4	38.0712	18,379.4	38.0347
19,026.9	82.56	19,026.9	81.9136	19,026.9	82.5818	19,026.9	80.8209	19,026.9	80.9238	19,026.9	73.5108	19,026.9	77.4547	19,026.9	72.7648	19,026.9	70.5947	19,026.9	65.0154	19,026.9	63.3788	19,026.9	60.294	19,026.9	55.5809	19,026.9	49.7031	19,026.9	53.2329	19,026.9	44.9779	19,026.9	51.5402	19,026.9	47.1139	19,026.9	54.2475	19,026.9	33.8711	19,026.9	64.8601	19,026.9	44.5291	19,026.9	63.8019	19,026.9	43.3657	19,026.9	49.6103	19,026.9	45.6285	19,026.9	42.5725	19,026.9	40.0654	19,026.9	44.9663	19,026.9	41.7004	19,026.9	21.4891	19,026.9	44.1835	19,026.9	40.1353	19,026.9	48.963	19,026.9	40.3403	19,026.9	38.8438
19,697.8	81.3195	19,697.8	80.6459	19,697.8	81.0676	19,697.8	80.0956	19,697.8	79.4949	19,697.8	72.7128	19,697.8	75.8648	19,697.8	72.4977	19,697.8	69.579	19,697.8	65.7403	19,697.8	65.2055	19,697.8	60.3075	19,697.8	54.981	19,697.8	54.672	19,697.8	54.2588	19,697.8	44.1558	19,697.8	49.9177	19,697.8	46.6661	19,697.8	52.8853	19,697.8	37.723	19,697.8	64.6542	19,697.8	47.9554	19,697.8	64.1288	19,697.8	43.1832	19,697.8	49.9556	19,697.8	46.2704	19,697.8	44.1011	19,697.8	40.5153	19,697.8	43.5877	19,697.8	45.0399	19,697.8	35.3956	19,697.8	41.2594	19,697.8	44.5872	19,697.8	46.8094	19,697.8	43.6324	19,697.8	37.4759
19,999.5	81.1447	19,999.5	80.5996	19,999.5	80.7482	19,999.5	80.1466	19,999.5	78.515	19,999.5	72.5517	19,999.5	75.182	19,999.5	72.4901	19,999.5	69.9755	19,999.5	67.1936	19,999.5	65.1212	19,999.5	59.6694	19,999.5	59.5532	19,999.5	55.9403	19,999.5	37.6409	19,999.5	48.3202	19,999.5	49.9458	19,999.5	49.1662	19,999.5	52.9331	19,999.5	44.9779	19,999.5	64.4205	19,999.5	43.0301	19,999.5	63.2984	19,999.5	42.7399	19,999.5	48.1806	19,999.5	37.7017	19,999.5	48.9888	19,999.5	43.7829	19,999.5	45.26	19,999.5	41.9983	19,999.5	49.776	19,999.5	47.3967	19,999.5	46.5358	19,999.5	46.5969	19,999.5	41.7243	19,999.5	42.1373
