"SPL Horizontal"
"On-Axis"		"10°"		"-10°"		"20°"		"-20°"		"30°"		"-30°"		"40°"		"-40°"		"50°"		"-50°"		"60°"		"-60°"		"70°"		"-70°"		"80°"		"-80°"		"90°"		"-90°"		"100°"		"-100°"		"110°"		"-110°"		"120°"		"-120°"		"130°"		"-130°"		"140°"		"-140°"		"150°"		"-150°"		"160°"		"-160°"		"170°"		"-170°"		"180°"
"Frequency / Hz"	"Sound Pressure Level / dB (re 20 µPa/V)  [2.83  V @ 1. m]"	"Frequency / Hz"	"Sound Pressure Level / dB (re 20 µPa/V)  [2.83  V @ 1. m]"	"Frequency / Hz"	"Sound Pressure Level / dB (re 20 µPa/V)  [2.83  V @ 1. m]"	"Frequency / Hz"	"Sound Pressure Level / dB (re 20 µPa/V)  [2.83  V @ 1. m]"	"Frequency / Hz"	"Sound Pressure Level / dB (re 20 µPa/V)  [2.83  V @ 1. m]"	"Frequency / Hz"	"Sound Pressure Level / dB (re 20 µPa/V)  [2.83  V @ 1. m]"	"Frequency / Hz"	"Sound Pressure Level / dB (re 20 µPa/V)  [2.83  V @ 1. m]"	"Frequency / Hz"	"Sound Pressure Level / dB (re 20 µPa/V)  [2.83  V @ 1. m]"	"Frequency / Hz"	"Sound Pressure Level / dB (re 20 µPa/V)  [2.83  V @ 1. m]"	"Frequency / Hz"	"Sound Pressure Level / dB (re 20 µPa/V)  [2.83  V @ 1. m]"	"Frequency / Hz"	"Sound Pressure Level / dB (re 20 µPa/V)  [2.83  V @ 1. m]"	"Frequency / Hz"	"Sound Pressure Level / dB (re 20 µPa/V)  [2.83  V @ 1. m]"	"Frequency / Hz"	"Sound Pressure Level / dB (re 20 µPa/V)  [2.83  V @ 1. m]"	"Frequency / Hz"	"Sound Pressure Level / dB (re 20 µPa/V)  [2.83  V @ 1. m]"	"Frequency / Hz"	"Sound Pressure Level / dB (re 20 µPa/V)  [2.83  V @ 1. m]"	"Frequency / Hz"	"Sound Pressure Level / dB (re 20 µPa/V)  [2.83  V @ 1. m]"	"Frequency / Hz"	"Sound Pressure Level / dB (re 20 µPa/V)  [2.83  V @ 1. m]"	"Frequency / Hz"	"Sound Pressure Level / dB (re 20 µPa/V)  [2.83  V @ 1. m]"	"Frequency / Hz"	"Sound Pressure Level / dB (re 20 µPa/V)  [2.83  V @ 1. m]"	"Frequency / Hz"	"Sound Pressure Level / dB (re 20 µPa/V)  [2.83  V @ 1. m]"	"Frequency / Hz"	"Sound Pressure Level / dB (re 20 µPa/V)  [2.83  V @ 1. m]"	"Frequency / Hz"	"Sound Pressure Level / dB (re 20 µPa/V)  [2.83  V @ 1. m]"	"Frequency / Hz"	"Sound Pressure Level / dB (re 20 µPa/V)  [2.83  V @ 1. m]"	"Frequency / Hz"	"Sound Pressure Level / dB (re 20 µPa/V)  [2.83  V @ 1. m]"	"Frequency / Hz"	"Sound Pressure Level / dB (re 20 µPa/V)  [2.83  V @ 1. m]"	"Frequency / Hz"	"Sound Pressure Level / dB (re 20 µPa/V)  [2.83  V @ 1. m]"	"Frequency / Hz"	"Sound Pressure Level / dB (re 20 µPa/V)  [2.83  V @ 1. m]"	"Frequency / Hz"	"Sound Pressure Level / dB (re 20 µPa/V)  [2.83  V @ 1. m]"	"Frequency / Hz"	"Sound Pressure Level / dB (re 20 µPa/V)  [2.83  V @ 1. m]"	"Frequency / Hz"	"Sound Pressure Level / dB (re 20 µPa/V)  [2.83  V @ 1. m]"	"Frequency / Hz"	"Sound Pressure Level / dB (re 20 µPa/V)  [2.83  V @ 1. m]"	"Frequency / Hz"	"Sound Pressure Level / dB (re 20 µPa/V)  [2.83  V @ 1. m]"	"Frequency / Hz"	"Sound Pressure Level / dB (re 20 µPa/V)  [2.83  V @ 1. m]"	"Frequency / Hz"	"Sound Pressure Level / dB (re 20 µPa/V)  [2.83  V @ 1. m]"	"Frequency / Hz"	"Sound Pressure Level / dB (re 20 µPa/V)  [2.83  V @ 1. m]"	"Frequency / Hz"	"Sound Pressure Level / dB (re 20 µPa/V)  [2.83  V @ 1. m]"
20.5078	58.1713	20.5078	58.1608	20.5078	58.1763	20.5078	58.1477	20.5078	58.1735	20.5078	58.1342	20.5078	58.1615	20.5078	58.1225	20.5078	58.1408	20.5078	58.1145	20.5078	58.1132	20.5078	58.1115	20.5078	58.0819	20.5078	58.1143	20.5078	58.0499	20.5078	58.1219	20.5078	58.0195	20.5078	58.1312	20.5078	57.9918	20.5078	58.1376	20.5078	57.9669	20.5078	58.1359	20.5078	57.9441	20.5078	58.1221	20.5078	57.9226	20.5078	58.095	20.5078	57.9021	20.5078	58.0563	20.5078	57.8835	20.5078	58.0106	20.5078	57.8696	20.5078	57.9636	20.5078	57.8639	20.5078	57.9215	20.5078	57.8698	20.5078	57.8892
21.9727	58.4269	21.9727	58.362	21.9727	58.4973	21.9727	58.3006	21.9727	58.5746	21.9727	58.2407	21.9727	58.6594	21.9727	58.1811	21.9727	58.7508	21.9727	58.1223	21.9727	58.8471	21.9727	58.0668	21.9727	58.9454	21.9727	58.0184	21.9727	59.0412	21.9727	57.9815	21.9727	59.1293	21.9727	57.9599	21.9727	59.2038	21.9727	57.9566	21.9727	59.259	21.9727	57.9738	21.9727	59.2896	21.9727	58.0129	21.9727	59.2914	21.9727	58.0752	21.9727	59.2619	21.9727	58.161	21.9727	59.1999	21.9727	58.2695	21.9727	59.1067	21.9727	58.3983	21.9727	58.9866	21.9727	58.5426	21.9727	58.8463	21.9727	58.695
23.4375	57.7171	23.4375	57.7335	23.4375	57.6878	23.4375	57.7379	23.4375	57.6453	23.4375	57.7317	23.4375	57.5905	23.4375	57.7164	23.4375	57.5252	23.4375	57.6937	23.4375	57.452	23.4375	57.6647	23.4375	57.3741	23.4375	57.6294	23.4375	57.2945	23.4375	57.5869	23.4375	57.2161	23.4375	57.5351	23.4375	57.1407	23.4375	57.472	23.4375	57.0691	23.4375	57.3965	23.4375	57.0016	23.4375	57.3095	23.4375	56.9384	23.4375	57.2141	23.4375	56.8809	23.4375	57.1151	23.4375	56.8321	23.4375	57.0188	23.4375	56.7962	23.4375	56.9318	23.4375	56.778	23.4375	56.8603	23.4375	56.7817	23.4375	56.8093
24.9023	59.4508	24.9023	59.4409	24.9023	59.4537	24.9023	59.4246	24.9023	59.4493	24.9023	59.403	24.9023	59.4374	24.9023	59.3774	24.9023	59.4186	24.9023	59.3492	24.9023	59.3934	24.9023	59.3197	24.9023	59.363	24.9023	59.2897	24.9023	59.3287	24.9023	59.259	24.9023	59.2917	24.9023	59.227	24.9023	59.2534	24.9023	59.1926	24.9023	59.2145	24.9023	59.1555	24.9023	59.1756	24.9023	59.1163	24.9023	59.1371	24.9023	59.0769	24.9023	59.0994	24.9023	59.0404	24.9023	59.0637	24.9023	59.0097	24.9023	59.0315	24.9023	58.9877	24.9023	59.0047	24.9023	58.9761	24.9023	58.9854	24.9023	58.9755
26.3672	60.6512	26.3672	60.649	26.3672	60.6461	26.3672	60.6396	26.3672	60.6337	26.3672	60.6239	26.3672	60.6141	26.3672	60.6025	26.3672	60.5881	26.3672	60.5765	26.3672	60.5567	26.3672	60.5469	26.3672	60.5208	26.3672	60.5149	26.3672	60.4818	26.3672	60.4812	26.3672	60.4407	26.3672	60.4463	26.3672	60.399	26.3672	60.4105	26.3672	60.3579	26.3672	60.374	26.3672	60.3185	26.3672	60.3374	26.3672	60.2821	26.3672	60.3017	26.3672	60.2498	26.3672	60.2682	26.3672	60.2226	26.3672	60.2385	26.3672	60.2018	26.3672	60.214	26.3672	60.1882	26.3672	60.1959	26.3672	60.1826	26.3672	60.1853
27.832	61.0362	27.832	61.0217	27.832	61.0424	27.832	60.9997	27.832	61.0401	27.832	60.971	27.832	61.0291	27.832	60.9368	27.832	61.0098	27.832	60.8984	27.832	60.983	27.832	60.8573	27.832	60.9502	27.832	60.8152	27.832	60.913	27.832	60.7736	27.832	60.8737	27.832	60.734	27.832	60.834	27.832	60.6977	27.832	60.7955	27.832	60.6657	27.832	60.759	27.832	60.6389	27.832	60.7249	27.832	60.6175	27.832	60.6935	27.832	60.6016	27.832	60.6648	27.832	60.591	27.832	60.6395	27.832	60.5856	27.832	60.6182	27.832	60.5855	27.832	60.6018	27.832	60.5909
29.2969	62.0353	29.2969	62.0379	29.2969	62.0224	29.2969	62.03	29.2969	61.9996	29.2969	62.0114	29.2969	61.9676	29.2969	61.9825	29.2969	61.9275	29.2969	61.944	29.2969	61.8805	29.2969	61.8967	29.2969	61.828	29.2969	61.8423	29.2969	61.7717	29.2969	61.7823	29.2969	61.7133	29.2969	61.7184	29.2969	61.6542	29.2969	61.6523	29.2969	61.5957	29.2969	61.5859	29.2969	61.5392	29.2969	61.5215	29.2969	61.4855	29.2969	61.4613	29.2969	61.4359	29.2969	61.4079	29.2969	61.3917	29.2969	61.3637	29.2969	61.3545	29.2969	61.3306	29.2969	61.3261	29.2969	61.31	29.2969	61.3083	29.2969	61.3026
30.7617	62.6723	30.7617	62.6727	30.7617	62.6633	30.7617	62.6644	30.7617	62.6455	30.7617	62.6479	30.7617	62.6195	30.7617	62.6235	30.7617	62.586	30.7617	62.592	30.7617	62.5456	30.7617	62.5542	30.7617	62.4996	30.7617	62.5111	30.7617	62.449	30.7617	62.4635	30.7617	62.395	30.7617	62.4121	30.7617	62.3387	30.7617	62.3576	30.7617	62.2812	30.7617	62.3007	30.7617	62.2241	30.7617	62.2428	30.7617	62.169	30.7617	62.1857	30.7617	62.1179	30.7617	62.1318	30.7617	62.073	30.7617	62.0838	30.7617	62.0369	30.7617	62.0444	30.7617	62.0117	30.7617	62.0161	30.7617	61.9993	30.7617	62.0008
32.2266	63.2249	32.2266	63.2216	32.2266	63.2195	32.2266	63.2098	32.2266	63.2055	32.2266	63.1896	32.2266	63.183	32.2266	63.1615	32.2266	63.1526	32.2266	63.126	32.2266	63.1149	32.2266	63.0838	32.2266	63.071	32.2266	63.0359	32.2266	63.0219	32.2266	62.9835	32.2266	62.9691	32.2266	62.9279	32.2266	62.9139	32.2266	62.8707	32.2266	62.858	32.2266	62.8135	32.2266	62.803	32.2266	62.7577	32.2266	62.7504	32.2266	62.7054	32.2266	62.7016	32.2266	62.6587	32.2266	62.6581	32.2266	62.6196	32.2266	62.6214	32.2266	62.5905	32.2266	62.5931	32.2266	62.5729	32.2266	62.5747	32.2266	62.5677
33.6914	64.016	33.6914	64.0141	33.6914	64.0083	33.6914	64.0028	33.6914	63.991	33.6914	63.9825	33.6914	63.9643	33.6914	63.9534	33.6914	63.9288	33.6914	63.9163	33.6914	63.8854	33.6914	63.872	33.6914	63.8353	33.6914	63.8214	33.6914	63.78	33.6914	63.7657	33.6914	63.7214	33.6914	63.7062	33.6914	63.6614	33.6914	63.6445	33.6914	63.6017	33.6914	63.582	33.6914	63.544	33.6914	63.5208	33.6914	63.4897	33.6914	63.4631	33.6914	63.4401	33.6914	63.4115	33.6914	63.3965	33.6914	63.3686	33.6914	63.3601	33.6914	63.3365	33.6914	63.3326	33.6914	63.3167	33.6914	63.3153	33.6914	63.3097
35.1562	64.5106	35.1562	64.51	35.1562	64.5015	35.1562	64.5	35.1562	64.4828	35.1562	64.4809	35.1562	64.4552	35.1562	64.4537	35.1562	64.4195	35.1562	64.4192	35.1562	64.3768	35.1562	64.3785	35.1562	64.3286	35.1562	64.3328	35.1562	64.2764	35.1562	64.283	35.1562	64.2218	35.1562	64.23	35.1562	64.1664	35.1562	64.1747	35.1562	64.1116	35.1562	64.1181	35.1562	64.059	35.1562	64.0619	35.1562	64.0099	35.1562	64.0082	35.1562	63.9655	35.1562	63.9594	35.1562	63.927	35.1562	63.9182	35.1562	63.8956	35.1562	63.8866	35.1562	63.8726	35.1562	63.866	35.1562	63.8594	35.1562	63.8569
36.6211	65.6446	36.6211	65.6444	36.6211	65.6332	36.6211	65.6325	36.6211	65.6102	36.6211	65.6091	36.6211	65.5762	36.6211	65.5747	36.6211	65.5318	36.6211	65.5298	36.6211	65.4784	36.6211	65.4754	36.6211	65.4173	36.6211	65.4126	36.6211	65.3506	36.6211	65.3433	36.6211	65.2805	36.6211	65.2695	36.6211	65.2095	36.6211	65.1936	36.6211	65.14	36.6211	65.1183	36.6211	65.074	36.6211	65.0464	36.6211	65.0135	36.6211	64.9807	36.6211	64.9596	36.6211	64.9238	36.6211	64.9132	36.6211	64.8782	36.6211	64.8752	36.6211	64.8455	36.6211	64.8464	36.6211	64.8264	36.6211	64.8278	36.6211	64.8208
38.0859	65.8763	38.0859	65.8663	38.0859	65.8742	38.0859	65.8442	38.0859	65.8607	38.0859	65.8097	38.0859	65.8365	38.0859	65.7634	38.0859	65.802	38.0859	65.7058	38.0859	65.758	38.0859	65.6382	38.0859	65.7049	38.0859	65.562	38.0859	65.6432	38.0859	65.4791	38.0859	65.5737	38.0859	65.3918	38.0859	65.4976	38.0859	65.3029	38.0859	65.4166	38.0859	65.2155	38.0859	65.3327	38.0859	65.1326	38.0859	65.2486	38.0859	65.0578	38.0859	65.1672	38.0859	64.9945	38.0859	65.0917	38.0859	64.9457	38.0859	65.025	38.0859	64.9139	38.0859	64.9702	38.0859	64.9006	38.0859	64.9298	38.0859	64.9061
39.5508	66.2117	39.5508	66.1889	39.5508	66.2253	39.5508	66.1573	39.5508	66.2294	39.5508	66.1175	39.5508	66.2243	39.5508	66.0705	39.5508	66.2101	39.5508	66.0173	39.5508	66.1874	39.5508	65.9593	39.5508	66.157	39.5508	65.898	39.5508	66.1194	39.5508	65.8354	39.5508	66.0756	39.5508	65.7736	39.5508	66.0264	39.5508	65.7151	39.5508	65.9727	39.5508	65.662	39.5508	65.9157	39.5508	65.6163	39.5508	65.8569	39.5508	65.5797	39.5508	65.7978	39.5508	65.5536	39.5508	65.7403	39.5508	65.5388	39.5508	65.6864	39.5508	65.536	39.5508	65.6381	39.5508	65.5452	39.5508	65.5974	39.5508	65.5659
41.0156	66.9262	41.0156	66.9156	41.0156	66.9287	41.0156	66.8968	41.0156	66.9235	41.0156	66.8695	41.0156	66.9116	41.0156	66.8341	41.0156	66.8938	41.0156	66.7907	41.0156	66.8716	41.0156	66.7402	41.0156	66.8464	41.0156	66.6836	41.0156	66.82	41.0156	66.6228	41.0156	66.7939	41.0156	66.5602	41.0156	66.7691	41.0156	66.4992	41.0156	66.7461	41.0156	66.4437	41.0156	66.7242	41.0156	66.3979	41.0156	66.7017	41.0156	66.366	41.0156	66.6765	41.0156	66.3513	41.0156	66.6462	41.0156	66.3556	41.0156	66.6089	41.0156	66.3781	41.0156	66.5644	41.0156	66.4156	41.0156	66.5145	41.0156	66.4631
42.4805	67.3893	42.4805	67.3883	42.4805	67.3812	42.4805	67.3779	42.4805	67.3645	42.4805	67.3581	42.4805	67.3393	42.4805	67.3289	42.4805	67.3064	42.4805	67.2904	42.4805	67.2659	42.4805	67.2431	42.4805	67.2185	42.4805	67.1876	42.4805	67.1647	42.4805	67.1252	42.4805	67.1052	42.4805	67.0577	42.4805	67.0412	42.4805	66.9873	42.4805	66.9742	42.4805	66.9165	42.4805	66.9063	42.4805	66.8481	42.4805	66.8402	42.4805	66.7847	42.4805	66.7787	42.4805	66.7288	42.4805	66.7244	42.4805	66.6825	42.4805	66.6797	42.4805	66.6479	42.4805	66.6463	42.4805	66.6264	42.4805	66.6258	42.4805	66.619
43.9453	67.8259	43.9453	67.8339	43.9453	67.8155	43.9453	67.8393	43.9453	67.803	43.9453	67.8418	43.9453	67.7889	43.9453	67.8415	43.9453	67.7736	43.9453	67.838	43.9453	67.7578	43.9453	67.8313	43.9453	67.742	43.9453	67.8214	43.9453	67.7268	43.9453	67.8084	43.9453	67.7126	43.9453	67.7927	43.9453	67.6996	43.9453	67.775	43.9453	67.6883	43.9453	67.7564	43.9453	67.6789	43.9453	67.7378	43.9453	67.6718	43.9453	67.7204	43.9453	67.667	43.9453	67.7049	43.9453	67.6644	43.9453	67.6921	43.9453	67.6636	43.9453	67.682	43.9453	67.6642	43.9453	67.6745	43.9453	67.6661	43.9453	67.6694
45.4102	68.3271	45.4102	68.3214	45.4102	68.3263	45.4102	68.3093	45.4102	68.319	45.4102	68.2913	45.4102	68.3059	45.4102	68.2683	45.4102	68.2878	45.4102	68.2415	45.4102	68.2658	45.4102	68.212	45.4102	68.2414	45.4102	68.1815	45.4102	68.2163	45.4102	68.1514	45.4102	68.1919	45.4102	68.1236	45.4102	68.1699	45.4102	68.0996	45.4102	68.1515	45.4102	68.0807	45.4102	68.1372	45.4102	68.0678	45.4102	68.127	45.4102	68.0612	45.4102	68.1202	45.4102	68.0605	45.4102	68.1154	45.4102	68.0646	45.4102	68.111	45.4102	68.0721	45.4102	68.1059	45.4102	68.0813	45.4102	68.0991	45.4102	68.0907
46.875	68.9953	46.875	68.9914	46.875	68.9883	46.875	68.9767	46.875	68.9705	46.875	68.9515	46.875	68.9424	46.875	68.9164	46.875	68.9047	46.875	68.8724	46.875	68.8585	46.875	68.8206	46.875	68.8051	46.875	68.7624	46.875	68.7461	46.875	68.6996	46.875	68.6834	46.875	68.6341	46.875	68.6191	46.875	68.5681	46.875	68.5554	46.875	68.5038	46.875	68.4942	46.875	68.4436	46.875	68.4375	46.875	68.3895	46.875	68.3868	46.875	68.3431	46.875	68.3432	46.875	68.3061	46.875	68.3078	46.875	68.2793	46.875	68.2814	46.875	68.2634	46.875	68.2648	46.875	68.2587
48.3398	69.4825	48.3398	69.4793	48.3398	69.4742	48.3398	69.4647	48.3398	69.4546	48.3398	69.4389	48.3398	69.424	48.3398	69.402	48.3398	69.3827	48.3398	69.3547	48.3398	69.3314	48.3398	69.2978	48.3398	69.271	48.3398	69.2325	48.3398	69.2026	48.3398	69.1604	48.3398	69.1281	48.3398	69.0837	48.3398	69.0496	48.3398	69.0046	48.3398	68.9697	48.3398	68.9257	48.3398	68.8912	48.3398	68.8498	48.3398	68.8171	48.3398	68.7796	48.3398	68.7499	48.3398	68.7174	48.3398	68.6922	48.3398	68.6657	48.3398	68.6459	48.3398	68.6262	48.3398	68.6126	48.3398	68.6005	48.3398	68.5936	48.3398	68.5895
51.2695	70.1723	51.2695	70.1706	51.2695	70.1676	51.2695	70.1627	51.2695	70.1567	51.2695	70.1486	51.2695	70.1398	51.2695	70.1286	51.2695	70.1171	51.2695	70.1029	51.2695	70.0893	51.2695	70.0721	51.2695	70.0567	51.2695	70.0364	51.2695	70.0203	51.2695	69.9967	51.2695	69.981	51.2695	69.9535	51.2695	69.9396	51.2695	69.908	51.2695	69.8974	51.2695	69.8617	51.2695	69.8556	51.2695	69.8163	51.2695	69.8153	51.2695	69.7741	51.2695	69.7778	51.2695	69.7373	51.2695	69.7444	51.2695	69.7077	51.2695	69.7161	51.2695	69.6867	51.2695	69.6941	51.2695	69.675	51.2695	69.6793	51.2695	69.6726
52.7344	70.4773	52.7344	70.4861	52.7344	70.4635	52.7344	70.4902	52.7344	70.4448	52.7344	70.4901	52.7344	70.4215	52.7344	70.4864	52.7344	70.3944	52.7344	70.4798	52.7344	70.3645	52.7344	70.4706	52.7344	70.3331	52.7344	70.4592	52.7344	70.3019	52.7344	70.4454	52.7344	70.2724	52.7344	70.4289	52.7344	70.2459	52.7344	70.4092	52.7344	70.2234	52.7344	70.3862	52.7344	70.2054	52.7344	70.36	52.7344	70.1921	52.7344	70.3314	52.7344	70.1834	52.7344	70.3017	52.7344	70.1792	52.7344	70.2729	52.7344	70.1792	52.7344	70.2464	52.7344	70.1835	52.7344	70.2237	52.7344	70.1922	52.7344	70.2056
54.1992	70.7121	54.1992	70.7176	54.1992	70.703	54.1992	70.7198	54.1992	70.6903	54.1992	70.7197	54.1992	70.6742	54.1992	70.7183	54.1992	70.6557	54.1992	70.7166	54.1992	70.6361	54.1992	70.7157	54.1992	70.6171	54.1992	70.7162	54.1992	70.6006	54.1992	70.7186	54.1992	70.5883	54.1992	70.7228	54.1992	70.582	54.1992	70.7283	54.1992	70.5825	54.1992	70.7343	54.1992	70.5899	54.1992	70.7397	54.1992	70.6034	54.1992	70.7438	54.1992	70.6216	54.1992	70.7456	54.1992	70.6426	54.1992	70.7446	54.1992	70.6644	54.1992	70.7402	54.1992	70.6854	54.1992	70.732	54.1992	70.7043	54.1992	70.72
55.6641	71.2014	55.6641	71.2115	55.6641	71.183	55.6641	71.2131	55.6641	71.1564	55.6641	71.2068	55.6641	71.1227	55.6641	71.1934	55.6641	71.0831	55.6641	71.1743	55.6641	71.0396	55.6641	71.1508	55.6641	70.9945	55.6641	71.125	55.6641	70.9503	55.6641	71.0989	55.6641	70.9097	55.6641	71.0745	55.6641	70.8752	55.6641	71.0533	55.6641	70.8487	55.6641	71.0362	55.6641	70.8318	55.6641	71.0228	55.6641	70.8249	55.6641	71.0117	55.6641	70.8278	55.6641	71.0009	55.6641	70.8394	55.6641	70.9886	55.6641	70.8577	55.6641	70.973	55.6641	70.8807	55.6641	70.9537	55.6641	70.9058	55.6641	70.9308
58.5938	72.5581	58.5938	72.5241	58.5938	72.5742	58.5938	72.4728	58.5938	72.5725	58.5938	72.4057	58.5938	72.5536	58.5938	72.3247	58.5938	72.5184	58.5938	72.2329	58.5938	72.4684	58.5938	72.1337	58.5938	72.4048	58.5938	72.031	58.5938	72.3296	58.5938	71.9288	58.5938	72.2447	58.5938	71.8308	58.5938	72.1526	58.5938	71.7406	58.5938	72.0559	58.5938	71.6607	58.5938	71.9576	58.5938	71.5928	58.5938	71.8607	58.5938	71.5378	58.5938	71.7683	58.5938	71.4958	58.5938	71.6831	58.5938	71.4671	58.5938	71.6081	58.5938	71.4521	58.5938	71.5458	58.5938	71.4516	58.5938	71.4983	58.5938	71.4669
60.0586	72.8479	60.0586	72.8148	60.0586	72.864	60.0586	72.7645	60.0586	72.8637	60.0586	72.6973	60.0586	72.8477	60.0586	72.6141	60.0586	72.8167	60.0586	72.5164	60.0586	72.7714	60.0586	72.4068	60.0586	72.7129	60.0586	72.2886	60.0586	72.6424	60.0586	72.1659	60.0586	72.5616	60.0586	72.0434	60.0586	72.4725	60.0586	71.9263	60.0586	72.3773	60.0586	71.8201	60.0586	72.2783	60.0586	71.7299	60.0586	72.1778	60.0586	71.66	60.0586	72.0778	60.0586	71.6135	60.0586	71.9805	60.0586	71.5919	60.0586	71.888	60.0586	71.5948	60.0586	71.8029	60.0586	71.6204	60.0586	71.7277	60.0586	71.6658
62.9883	73.7524	62.9883	73.7529	62.9883	73.7323	62.9883	73.7341	62.9883	73.6928	62.9883	73.6968	62.9883	73.6342	62.9883	73.6418	62.9883	73.5579	62.9883	73.5703	62.9883	73.4657	62.9883	73.4837	62.9883	73.3602	62.9883	73.3839	62.9883	73.2446	62.9883	73.2732	62.9883	73.1228	62.9883	73.1544	62.9883	72.9988	62.9883	73.031	62.9883	72.8769	62.9883	72.9069	62.9883	72.7612	62.9883	72.7866	62.9883	72.6554	62.9883	72.6747	62.9883	72.5629	62.9883	72.5755	62.9883	72.4859	62.9883	72.493	62.9883	72.4266	62.9883	72.4296	62.9883	72.3862	62.9883	72.387	62.9883	72.3657	62.9883	72.3658
64.4531	73.8399	64.4531	73.8406	64.4531	73.8239	64.4531	73.826	64.4531	73.7928	64.4531	73.7967	64.4531	73.7473	64.4531	73.7534	64.4531	73.6883	64.4531	73.6975	64.4531	73.6174	64.4531	73.6301	64.4531	73.5364	64.4531	73.5528	64.4531	73.4474	64.4531	73.4677	64.4531	73.353	64.4531	73.3767	64.4531	73.2557	64.4531	73.2824	64.4531	73.1586	64.4531	73.1874	64.4531	73.0648	64.4531	73.0945	64.4531	72.9774	64.4531	73.007	64.4531	72.8997	64.4531	72.9276	64.4531	72.8347	64.4531	72.8592	64.4531	72.7849	64.4531	72.8042	64.4531	72.7523	64.4531	72.7646	64.4531	72.7379	64.4531	72.7422
67.3828	74.2355	67.3828	74.2322	67.3828	74.2272	67.3828	74.2178	67.3828	74.2077	67.3828	74.1928	67.3828	74.1776	67.3828	74.1583	67.3828	74.1379	67.3828	74.1157	67.3828	74.0901	67.3828	74.0667	67.3828	74.0359	67.3828	74.0129	67.3828	73.9773	67.3828	73.9565	67.3828	73.9163	67.3828	73.8993	67.3828	73.8554	67.3828	73.843	67.3828	73.7965	67.3828	73.7893	67.3828	73.7418	67.3828	73.7396	67.3828	73.6929	67.3828	73.695	67.3828	73.6513	67.3828	73.6562	67.3828	73.6178	67.3828	73.624	67.3828	73.593	67.3828	73.5989	67.3828	73.5771	67.3828	73.5813	67.3828	73.5701	67.3828	73.5716
68.8477	74.4807	68.8477	74.4743	68.8477	74.4766	68.8477	74.4579	68.8477	74.4622	68.8477	74.4321	68.8477	74.438	68.8477	74.398	68.8477	74.405	68.8477	74.3571	68.8477	74.3644	68.8477	74.3111	68.8477	74.318	68.8477	74.2619	68.8477	74.2675	68.8477	74.2115	68.8477	74.2151	68.8477	74.1616	68.8477	74.1628	68.8477	74.1142	68.8477	74.1125	68.8477	74.0705	68.8477	74.066	68.8477	74.0318	68.8477	74.0248	68.8477	73.9985	68.8477	73.9899	68.8477	73.9711	68.8477	73.962	68.8477	73.9495	68.8477	73.9411	68.8477	73.9337	68.8477	73.9273	68.8477	73.9234	68.8477	73.92	68.8477	73.9188
71.7773	75.1524	71.7773	75.1367	71.7773	75.157	71.7773	75.1102	71.7773	75.1503	71.7773	75.0742	71.7773	75.1327	71.7773	75.0302	71.7773	75.1049	71.7773	74.98	71.7773	75.0682	71.7773	74.9258	71.7773	75.0242	71.7773	74.8701	71.7773	74.975	71.7773	74.8154	71.7773	74.9225	71.7773	74.7639	71.7773	74.8691	71.7773	74.7177	71.7773	74.8169	71.7773	74.6782	71.7773	74.7679	71.7773	74.6463	71.7773	74.7236	71.7773	74.6223	71.7773	74.6852	71.7773	74.6056	71.7773	74.6536	71.7773	74.5952	71.7773	74.6289	71.7773	74.59	71.7773	74.6109	71.7773	74.589	71.7773	74.5989	71.7773	74.5919
74.707	75.782	74.707	75.7747	74.707	75.7784	74.707	75.7565	74.707	75.764	74.707	75.728	74.707	75.7395	74.707	75.6901	74.707	75.706	74.707	75.6441	74.707	75.6646	74.707	75.5915	74.707	75.617	74.707	75.534	74.707	75.5649	74.707	75.4738	74.707	75.5102	74.707	75.4128	74.707	75.455	74.707	75.3534	74.707	75.401	74.707	75.2978	74.707	75.3497	74.707	75.2481	74.707	75.3025	74.707	75.2062	74.707	75.26	74.707	75.1733	74.707	75.2231	74.707	75.1503	74.707	75.1919	74.707	75.137	74.707	75.167	74.707	75.1328	74.707	75.1485	74.707	75.1369
77.6367	76.2837	77.6367	76.2729	77.6367	76.2835	77.6367	76.2517	77.6367	76.2726	77.6367	76.2209	77.6367	76.2516	77.6367	76.1822	77.6367	76.2218	77.6367	76.1373	77.6367	76.1847	77.6367	76.0885	77.6367	76.1424	77.6367	76.0382	77.6367	76.0971	77.6367	75.9885	77.6367	76.051	77.6367	75.9417	77.6367	76.0062	77.6367	75.8995	77.6367	75.9645	77.6367	75.8632	77.6367	75.9273	77.6367	75.8338	77.6367	75.8951	77.6367	75.8116	77.6367	75.8681	77.6367	75.7966	77.6367	75.846	77.6367	75.7883	77.6367	75.828	77.6367	75.7857	77.6367	75.8136	77.6367	75.7878	77.6367	75.8022	77.6367	75.7935
79.1016	76.5456	79.1016	76.5362	79.1016	76.5437	79.1016	76.5158	79.1016	76.5309	79.1016	76.4853	79.1016	76.5082	79.1016	76.4461	79.1016	76.477	79.1016	76.4002	79.1016	76.4393	79.1016	76.3501	79.1016	76.3971	79.1016	76.2984	79.1016	76.353	79.1016	76.2478	79.1016	76.3092	79.1016	76.201	79.1016	76.2678	79.1016	76.1602	79.1016	76.2306	79.1016	76.1271	79.1016	76.1987	79.1016	76.1026	79.1016	76.1727	79.1016	76.0867	79.1016	76.1521	79.1016	76.0788	79.1016	76.1363	79.1016	76.0775	79.1016	76.1239	79.1016	76.0811	79.1016	76.1137	79.1016	76.0877	79.1016	76.1045	79.1016	76.0958
82.0312	77.1892	82.0312	77.1842	82.0312	77.1801	82.0312	77.1655	82.0312	77.1574	82.0312	77.1341	82.0312	77.1222	82.0312	77.0915	82.0312	77.0761	82.0312	77.0396	82.0312	77.0216	82.0312	76.9809	82.0312	76.9616	82.0312	76.9182	82.0312	76.8994	82.0312	76.8544	82.0312	76.8383	82.0312	76.7926	82.0312	76.7815	82.0312	76.7358	82.0312	76.7315	82.0312	76.6866	82.0312	76.6902	82.0312	76.6469	82.0312	76.6582	82.0312	76.6175	82.0312	76.6351	82.0312	76.5985	82.0312	76.6195	82.0312	76.5885	82.0312	76.6093	82.0312	76.5857	82.0312	76.6023	82.0312	76.5875	82.0312	76.5967	82.0312	76.5917
84.9609	77.5383	84.9609	77.5372	84.9609	77.529	84.9609	77.5262	84.9609	77.5094	84.9609	77.5063	84.9609	77.4801	84.9609	77.4787	84.9609	77.442	84.9609	77.4451	84.9609	77.3966	84.9609	77.407	84.9609	77.3456	84.9609	77.3662	84.9609	77.2913	84.9609	77.3242	84.9609	77.2357	84.9609	77.2819	84.9609	77.1813	84.9609	77.2401	84.9609	77.1301	84.9609	77.1995	84.9609	77.0842	84.9609	77.1602	84.9609	77.0453	84.9609	77.1228	84.9609	77.0146	84.9609	77.0879	84.9609	76.993	84.9609	77.0564	84.9609	76.9804	84.9609	77.0291	84.9609	76.9763	84.9609	77.0069	84.9609	76.9799	84.9609	76.9903
87.8906	77.9543	87.8906	77.9378	87.8906	77.9576	87.8906	77.9086	87.8906	77.9483	87.8906	77.8683	87.8906	77.9279	87.8906	77.8196	87.8906	77.8989	87.8906	77.7661	87.8906	77.8642	87.8906	77.712	87.8906	77.8273	87.8906	77.6617	87.8906	77.7914	87.8906	77.6192	87.8906	77.7592	87.8906	77.5876	87.8906	77.7327	87.8906	77.5687	87.8906	77.713	87.8906	77.5626	87.8906	77.7001	87.8906	77.5676	87.8906	77.693	87.8906	77.5811	87.8906	77.6902	87.8906	77.5997	87.8906	77.6896	87.8906	77.6202	87.8906	77.689	87.8906	77.6401	87.8906	77.6865	87.8906	77.6575	87.8906	77.6808	87.8906	77.6712
90.8203	78.3662	90.8203	78.3503	90.8203	78.3692	90.8203	78.3218	90.8203	78.3598	90.8203	78.282	90.8203	78.3398	90.8203	78.233	90.8203	78.3116	90.8203	78.178	90.8203	78.2785	90.8203	78.1206	90.8203	78.244	90.8203	78.0653	90.8203	78.2118	90.8203	78.0164	90.8203	78.1847	90.8203	77.9783	90.8203	78.1649	90.8203	77.9542	90.8203	78.1532	90.8203	77.9456	90.8203	78.149	90.8203	77.9524	90.8203	78.1507	90.8203	77.972	90.8203	78.1555	90.8203	78.0008	90.8203	78.1604	90.8203	78.0345	90.8203	78.162	90.8203	78.0689	90.8203	78.1579	90.8203	78.1007	90.8203	78.1464	90.8203	78.1271
95.2148	79.4991	95.2148	79.5343	95.2148	79.4388	95.2148	79.5435	95.2148	79.3552	95.2148	79.5262	95.2148	79.2509	95.2148	79.483	95.2148	79.1292	95.2148	79.415	95.2148	78.9944	95.2148	79.3246	95.2148	78.8514	95.2148	79.215	95.2148	78.7059	95.2148	79.0904	95.2148	78.5639	95.2148	78.9562	95.2148	78.4309	95.2148	78.8178	95.2148	78.3123	95.2148	78.6812	95.2148	78.2121	95.2148	78.5513	95.2148	78.133	95.2148	78.4323	95.2148	78.0759	95.2148	78.327	95.2148	78.0397	95.2148	78.2372	95.2148	78.0225	95.2148	78.1635	95.2148	78.0217	95.2148	78.1058	95.2148	78.0355	95.2148	78.0634
98.1445	79.6549	98.1445	79.6869	98.1445	79.604	98.1445	79.7008	98.1445	79.5342	98.1445	79.6977	98.1445	79.4466	98.1445	79.6788	98.1445	79.343	98.1445	79.6457	98.1445	79.2267	98.1445	79.5997	98.1445	79.1023	98.1445	79.5421	98.1445	78.9753	98.1445	79.4745	98.1445	78.8519	98.1445	79.3987	98.1445	78.7386	98.1445	79.3167	98.1445	78.6414	98.1445	79.2309	98.1445	78.5652	98.1445	79.1434	98.1445	78.5133	98.1445	79.0559	98.1445	78.4869	98.1445	78.9697	98.1445	78.4851	98.1445	78.8858	98.1445	78.5051	98.1445	78.8051	98.1445	78.5432	98.1445	78.7287	98.1445	78.5954	98.1445	78.6582
101.074	79.9366	101.074	79.9301	101.074	79.9246	101.074	79.9072	101.074	79.8929	101.074	79.8711	101.074	79.8416	101.074	79.8252	101.074	79.7719	101.074	79.7731	101.074	79.6868	101.074	79.7179	101.074	79.5905	101.074	79.6621	101.074	79.4886	101.074	79.6071	101.074	79.3876	101.074	79.5537	101.074	79.2946	101.074	79.5026	101.074	79.2158	101.074	79.4543	101.074	79.156	101.074	79.4097	101.074	79.1178	101.074	79.3695	101.074	79.101	101.074	79.3338	101.074	79.1032	101.074	79.3019	101.074	79.1201	101.074	79.272	101.074	79.1468	101.074	79.2421	101.074	79.1783	101.074	79.2107
105.469	80.2415	105.469	80.2027	105.469	80.2636	105.469	80.1492	105.469	80.2681	105.469	80.0839	105.469	80.2551	105.469	80.0111	105.469	80.2259	105.469	79.9355	105.469	80.1823	105.469	79.8622	105.469	80.1272	105.469	79.7959	105.469	80.0639	105.469	79.7405	105.469	79.9967	105.469	79.6983	105.469	79.93	105.469	79.67	105.469	79.8682	105.469	79.6544	105.469	79.8152	105.469	79.6494	105.469	79.7734	105.469	79.6522	105.469	79.7436	105.469	79.66	105.469	79.7243	105.469	79.67	105.469	79.7132	105.469	79.6804	105.469	79.7069	105.469	79.6896	105.469	79.7022	105.469	79.6968
108.398	80.6946	108.398	80.6737	108.398	80.6952	108.398	80.6331	108.398	80.6762	108.398	80.5745	108.398	80.6392	108.398	80.501	108.398	80.5867	108.398	80.4166	108.398	80.5219	108.398	80.3267	108.398	80.4482	108.398	80.2368	108.398	80.3696	108.398	80.1525	108.398	80.2897	108.398	80.0788	108.398	80.2125	108.398	80.0191	108.398	80.1412	108.398	79.9747	108.398	80.079	108.398	79.9451	108.398	80.0281	108.398	79.928	108.398	79.9895	108.398	79.9202	108.398	79.9626	108.398	79.9184	108.398	79.9456	108.398	79.9199	108.398	79.9356	108.398	79.9228	108.398	79.9299	108.398	79.9261
112.793	80.9904	112.793	80.9638	112.793	81.0016	112.793	80.9235	112.793	80.9963	112.793	80.8719	112.793	80.9743	112.793	80.8116	112.793	80.9365	112.793	80.7457	112.793	80.8843	112.793	80.677	112.793	80.8206	112.793	80.6081	112.793	80.7487	112.793	80.5409	112.793	80.6726	112.793	80.477	112.793	80.5965	112.793	80.4177	112.793	80.5241	112.793	80.3641	112.793	80.4584	112.793	80.3174	112.793	80.4012	112.793	80.2791	112.793	80.3533	112.793	80.25	112.793	80.3144	112.793	80.2307	112.793	80.2833	112.793	80.2211	112.793	80.2588	112.793	80.2203	112.793	80.2401	112.793	80.2271
117.188	80.9566	117.188	80.9536	117.188	80.9395	117.188	80.9283	117.188	80.9068	117.188	80.8811	117.188	80.8645	117.188	80.8157	117.188	80.8195	117.188	80.7384	117.188	80.7783	117.188	80.6582	117.188	80.7464	117.188	80.5854	117.188	80.7282	117.188	80.5303	117.188	80.7261	117.188	80.5012	117.188	80.7409	117.188	80.503	117.188	80.7717	117.188	80.536	117.188	80.8157	117.188	80.5963	117.188	80.8688	117.188	80.6766	117.188	80.9257	117.188	80.7675	117.188	80.9801	117.188	80.8588	117.188	81.0253	117.188	80.9408	117.188	81.0548	117.188	81.0053	117.188	81.0632	117.188	81.047
120.117	81.4178	120.117	81.4419	120.117	81.3641	120.117	81.4342	120.117	81.2857	120.117	81.3945	120.117	81.1895	120.117	81.3256	120.117	81.0842	120.117	81.2327	120.117	80.9791	120.117	81.1237	120.117	80.8838	120.117	81.0093	120.117	80.8062	120.117	80.9013	120.117	80.7518	120.117	80.8117	120.117	80.723	120.117	80.7504	120.117	80.719	120.117	80.7226	120.117	80.7363	120.117	80.7279	120.117	80.7699	120.117	80.7602	120.117	80.8138	120.117	80.8097	120.117	80.8615	120.117	80.8646	120.117	80.9066	120.117	80.9143	120.117	80.9429	120.117	80.9503	120.117	80.9646	120.117	80.9676
124.512	81.7633	124.512	81.816	124.512	81.6793	124.512	81.8373	124.512	81.5654	124.512	81.8284	124.512	81.4247	124.512	81.7913	124.512	81.2624	124.512	81.7287	124.512	81.0861	124.512	81.6443	124.512	80.9054	124.512	81.5428	124.512	80.7318	124.512	81.4295	124.512	80.5767	124.512	81.3103	124.512	80.4498	124.512	81.1914	124.512	80.3577	124.512	81.0778	124.512	80.3023	124.512	80.9734	124.512	80.2808	124.512	80.8801	124.512	80.2877	124.512	80.7974	124.512	80.316	124.512	80.7234	124.512	80.359	124.512	80.6556	124.512	80.4112	124.512	80.5913	124.512	80.4688	124.512	80.5292
128.906	81.8031	128.906	81.7918	128.906	81.7859	128.906	81.7552	128.906	81.7389	128.906	81.6972	128.906	81.662	128.906	81.6227	128.906	81.5573	128.906	81.5369	128.906	81.4295	128.906	81.4455	128.906	81.2856	128.906	81.354	128.906	81.1349	128.906	81.2674	128.906	80.9888	128.906	81.1898	128.906	80.8587	128.906	81.1235	128.906	80.7549	128.906	81.0696	128.906	80.6841	128.906	81.0271	128.906	80.6482	128.906	80.9937	128.906	80.6443	128.906	80.9659	128.906	80.6654	128.906	80.9399	128.906	80.7031	128.906	80.912	128.906	80.749	128.906	80.8794	128.906	80.7964	128.906	80.8407
133.301	82.1455	133.301	82.1178	133.301	82.1462	133.301	82.0653	133.301	82.1186	133.301	81.9903	133.301	82.0619	133.301	81.8959	133.301	81.9762	133.301	81.7852	133.301	81.863	133.301	81.6622	133.301	81.7255	133.301	81.5313	133.301	81.5684	133.301	81.3976	133.301	81.3988	133.301	81.2659	133.301	81.2256	133.301	81.1413	133.301	81.0588	133.301	81.0276	133.301	80.9086	133.301	80.9275	133.301	80.7833	133.301	80.8421	133.301	80.6878	133.301	80.7708	133.301	80.623	133.301	80.7123	133.301	80.5865	133.301	80.6646	133.301	80.5734	133.301	80.6263	133.301	80.5785	133.301	80.5971
139.16	81.5802	139.16	81.5441	139.16	81.5934	139.16	81.4874	139.16	81.5836	139.16	81.4143	139.16	81.5525	139.16	81.3311	139.16	81.5034	139.16	81.2453	139.16	81.4411	139.16	81.1648	139.16	81.3711	139.16	81.0971	139.16	81.2998	139.16	81.0482	139.16	81.2335	139.16	81.0216	139.16	81.1783	139.16	81.0182	139.16	81.1391	139.16	81.0359	139.16	81.119	139.16	81.0703	139.16	81.1186	139.16	81.1152	139.16	81.1357	139.16	81.1638	139.16	81.1656	139.16	81.2092	139.16	81.2015	139.16	81.2453	139.16	81.2357	139.16	81.2673	139.16	81.2612	139.16	81.2726
143.555	81.6038	143.555	81.5847	143.555	81.5943	143.555	81.5372	143.555	81.5586	143.555	81.4641	143.555	81.5011	143.555	81.3714	143.555	81.4282	143.555	81.2676	143.555	81.3479	143.555	81.1635	143.555	81.2694	143.555	81.0715	143.555	81.2024	143.555	81.0038	143.555	81.1562	143.555	80.9706	143.555	81.1384	143.555	80.978	143.555	81.1531	143.555	81.0261	143.555	81.2001	143.555	81.1094	143.555	81.2743	143.555	81.2172	143.555	81.3661	143.555	81.3358	143.555	81.4631	143.555	81.451	143.555	81.5517	143.555	81.5496	143.555	81.6195	143.555	81.6209	143.555	81.6568	143.555	81.6577
147.949	82.0876	147.949	82.0836	147.949	82.0547	147.949	82.0429	147.949	81.9868	147.949	81.9677	147.949	81.8873	147.949	81.8625	147.949	81.7611	147.949	81.7336	147.949	81.6149	147.949	81.5888	147.949	81.4569	147.949	81.4371	147.949	81.2969	147.949	81.2881	147.949	81.1462	147.949	81.1512	147.949	81.0161	147.949	81.0346	147.949	80.916	147.949	80.9446	147.949	80.8515	147.949	80.8843	147.949	80.8223	147.949	80.8531	147.949	80.8226	147.949	80.8465	147.949	80.8424	147.949	80.8576	147.949	80.8701	147.949	80.8776	147.949	80.8948	147.949	80.8975	147.949	80.9091	147.949	80.9097
153.809	81.853	153.809	81.8361	153.809	81.8358	153.809	81.7867	153.809	81.7851	153.809	81.7083	153.809	81.7033	153.809	81.6063	153.809	81.5944	153.809	81.4877	153.809	81.4631	153.809	81.3608	153.809	81.3151	153.809	81.2338	153.809	81.1567	153.809	81.1147	153.809	80.9951	153.809	81.0101	153.809	80.8382	153.809	80.9237	153.809	80.6946	153.809	80.856	153.809	80.5727	153.809	80.8041	153.809	80.4794	153.809	80.7624	153.809	80.4193	153.809	80.7242	153.809	80.393	153.809	80.6837	153.809	80.3978	153.809	80.6373	153.809	80.4273	153.809	80.5847	153.809	80.4735	153.809	80.5284
159.668	81.8352	159.668	81.8085	159.668	81.82	159.668	81.7405	159.668	81.7654	159.668	81.6343	159.668	81.6762	159.668	81.4966	159.668	81.559	159.668	81.337	159.668	81.4217	159.668	81.168	159.668	81.2727	159.668	81.0036	159.668	81.1205	159.668	80.8582	159.668	80.9733	159.668	80.7437	159.668	80.8391	159.668	80.6678	159.668	80.7251	159.668	80.6317	159.668	80.6372	159.668	80.6303	159.668	80.5794	159.668	80.6524	159.668	80.5525	159.668	80.6843	159.668	80.5541	159.668	80.7125	159.668	80.5785	159.668	80.7268	159.668	80.6174	159.668	80.7219	159.668	80.6606	159.668	80.6982
165.527	81.6674	165.527	81.6665	165.527	81.6312	165.527	81.6274	165.527	81.5604	165.527	81.5508	165.527	81.4586	165.527	81.4393	165.527	81.3315	165.527	81.298	165.527	81.1862	165.527	81.1354	165.527	81.032	165.527	80.9627	165.527	80.8792	165.527	80.7937	165.527	80.7386	165.527	80.6427	165.527	80.6199	165.527	80.523	165.527	80.5304	165.527	80.4431	165.527	80.474	165.527	80.4054	165.527	80.4501	165.527	80.4051	165.527	80.454	165.527	80.4318	165.527	80.4771	165.527	80.4723	165.527	80.509	165.527	80.5136	165.527	80.5392	165.527	80.5455	165.527	80.5585	165.527	80.5613
171.387	81.3752	171.387	81.3666	171.387	81.3472	171.387	81.322	171.387	81.2838	171.387	81.2433	171.387	81.1881	171.387	81.1341	171.387	81.0654	171.387	80.9997	171.387	80.9233	171.387	80.8474	171.387	80.7718	171.387	80.6865	171.387	80.6223	171.387	80.5283	171.387	80.4868	171.387	80.3854	171.387	80.3758	171.387	80.2695	171.387	80.2963	171.387	80.1896	171.387	80.2501	171.387	80.1494	171.387	80.234	171.387	80.146	171.387	80.241	171.387	80.1706	171.387	80.2617	171.387	80.2108	171.387	80.2867	171.387	80.2539	171.387	80.3073	171.387	80.2896	171.387	80.3169	171.387	80.3114
177.246	81.0656	177.246	81.0583	177.246	81.0342	177.246	81.0126	177.246	80.9659	177.246	80.9309	177.246	80.8645	177.246	80.818	177.246	80.736	177.246	80.6812	177.246	80.5887	177.246	80.5304	177.246	80.4335	177.246	80.3773	177.246	80.2826	177.246	80.2352	177.246	80.149	177.246	80.1165	177.246	80.0438	177.246	80.0305	177.246	79.9742	177.246	79.9816	177.246	79.942	177.246	79.968	177.246	79.9434	177.246	79.9825	177.246	79.9702	177.246	80.0149	177.246	80.0118	177.246	80.0543	177.246	80.057	177.246	80.091	177.246	80.0959	177.246	80.1175	177.246	80.121	177.246	80.1283
183.105	81.0005	183.105	80.993	183.105	80.9672	183.105	80.9456	183.105	80.894	183.105	80.8613	183.105	80.7836	183.105	80.745	183.105	80.6405	183.105	80.6039	183.105	80.4714	183.105	80.4472	183.105	80.2851	183.105	80.2863	183.105	80.0944	183.105	80.1344	183.105	79.9156	183.105	80.0058	183.105	79.7675	183.105	79.9137	183.105	79.6677	183.105	79.8672	183.105	79.6274	183.105	79.8686	183.105	79.6474	183.105	79.911	183.105	79.7175	183.105	79.9794	183.105	79.8191	183.105	80.0546	183.105	79.9311	183.105	80.1176	183.105	80.0334	183.105	80.1531	183.105	80.1104	183.105	80.1516
188.965	80.7278	188.965	80.7127	188.965	80.7004	188.965	80.6554	188.965	80.6325	188.965	80.5591	188.965	80.5291	188.965	80.4296	188.965	80.3972	188.965	80.2752	188.965	80.2448	188.965	80.1069	188.965	80.0797	188.965	79.9382	188.965	79.9095	188.965	79.7834	188.965	79.7421	188.965	79.656	188.965	79.5865	188.965	79.5662	188.965	79.454	188.965	79.5188	188.965	79.3564	188.965	79.5124	188.965	79.3031	188.965	79.5388	188.965	79.2975	188.965	79.584	188.965	79.3353	188.965	79.6305	188.965	79.4047	188.965	79.6613	188.965	79.489	188.965	79.6635	188.965	79.5701	188.965	79.632
196.289	80.6376	196.289	80.5915	196.289	80.636	196.289	80.5004	196.289	80.5862	196.289	80.3692	196.289	80.4903	196.289	80.2045	196.289	80.3546	196.289	80.0149	196.289	80.1905	196.289	79.8115	196.289	80.014	196.289	79.608	196.289	79.8447	196.289	79.4212	196.289	79.7019	196.289	79.2697	196.289	79.601	196.289	79.171	196.289	79.5498	196.289	79.1377	196.289	79.5487	196.289	79.1732	196.289	79.5911	196.289	79.2696	196.289	79.6653	196.289	79.4092	196.289	79.7555	196.289	79.5676	196.289	79.8433	196.289	79.7189	196.289	79.9096	196.289	79.8401	196.289	79.9373	196.289	79.9152
203.613	80.4542	203.613	80.44	203.613	80.4118	203.613	80.3696	203.613	80.3167	203.613	80.2478	203.613	80.176	203.613	80.0842	203.613	79.9987	203.613	79.8927	203.613	79.7961	203.613	79.6894	203.613	79.581	203.613	79.4916	203.613	79.3681	203.613	79.3148	203.613	79.1731	203.613	79.1712	203.613	79.0104	203.613	79.0677	203.613	78.8898	203.613	79.0047	203.613	78.814	203.613	78.9765	203.613	78.7786	203.613	78.9725	203.613	78.775	203.613	78.9801	203.613	78.7937	203.613	78.9875	203.613	78.8266	203.613	78.9863	203.613	78.8668	203.613	78.9721	203.613	78.9082	203.613	78.945
210.938	80.2216	210.938	80.1827	210.938	80.2097	210.938	80.0949	210.938	80.1466	210.938	79.9623	210.938	80.0346	210.938	79.7904	210.938	79.8786	210.938	79.5873	210.938	79.6874	210.938	79.3637	210.938	79.4731	210.938	79.1333	210.938	79.2516	210.938	78.9134	210.938	79.0413	210.938	78.7226	210.938	78.8608	210.938	78.5784	210.938	78.7262	210.938	78.4921	210.938	78.6467	210.938	78.4659	210.938	78.6217	210.938	78.4917	210.938	78.6405	210.938	78.5534	210.938	78.6858	210.938	78.6314	210.938	78.7385	210.938	78.7071	210.938	78.782	210.938	78.7662	210.938	78.8046	210.938	78.7999
218.262	79.7516	218.262	79.7143	218.262	79.735	218.262	79.6263	218.262	79.6642	218.262	79.4931	218.262	79.5418	218.262	79.323	218.262	79.3746	218.262	79.1274	218.262	79.174	218.262	78.9209	218.262	78.9566	218.262	78.7208	218.262	78.744	218.262	78.5463	218.262	78.5597	218.262	78.4154	218.262	78.4263	218.262	78.343	218.262	78.3594	218.262	78.3371	218.262	78.3644	218.262	78.3962	218.262	78.4347	218.262	78.5078	218.262	78.553	218.262	78.6503	218.262	78.6955	218.262	78.7979	218.262	78.8368	218.262	78.9256	218.262	78.9536	218.262	79.0135	218.262	79.028	218.262	79.0491
225.586	79.769	225.586	79.7595	225.586	79.7171	225.586	79.688	225.586	79.6068	225.586	79.5559	225.586	79.4429	225.586	79.3685	225.586	79.2327	225.586	79.1359	225.586	78.9871	225.586	78.875	225.586	78.7213	225.586	78.6096	225.586	78.4559	225.586	78.3684	225.586	78.2162	225.586	78.1797	225.586	78.0295	225.586	78.0647	225.586	77.9187	225.586	78.0321	225.586	77.8966	225.586	78.0769	225.586	77.96	225.586	78.1822	225.586	78.0901	225.586	78.3237	225.586	78.2573	225.586	78.4727	225.586	78.4287	225.586	78.6015	225.586	78.575	225.586	78.6866	225.586	78.6742	225.586	78.7128
232.91	79.6047	232.91	79.6006	232.91	79.5424	232.91	79.5302	232.91	79.4164	232.91	79.3966	232.91	79.2317	232.91	79.2059	232.91	78.9961	232.91	78.9686	232.91	78.7202	232.91	78.6994	232.91	78.4192	232.91	78.4194	232.91	78.1137	232.91	78.1552	232.91	77.8298	232.91	77.9362	232.91	77.5961	232.91	77.7872	232.91	77.438	232.91	77.7207	232.91	77.3702	232.91	77.7319	232.91	77.3921	232.91	77.8016	232.91	77.4879	232.91	77.9022	232.91	77.6309	232.91	78.0053	232.91	77.7906	232.91	78.0863	232.91	77.9382	232.91	78.1269	232.91	78.0514	232.91	78.1162
241.699	79.075	241.699	79.0206	241.699	79.0736	241.699	78.9145	241.699	79.0138	241.699	78.7619	241.699	78.8953	241.699	78.5682	241.699	78.7211	241.699	78.3396	241.699	78.498	241.699	78.0852	241.699	78.2366	241.699	77.8199	241.699	77.9527	241.699	77.5674	241.699	77.6666	241.699	77.3582	241.699	77.4034	241.699	77.222	241.699	77.1901	241.699	77.1736	241.699	77.0499	241.699	77.2053	241.699	76.996	241.699	77.2901	241.699	77.0262	241.699	77.3949	241.699	77.1221	241.699	77.4912	241.699	77.2541	241.699	77.5598	241.699	77.3894	241.699	77.588	241.699	77.5002	241.699	77.5687
250.488	79.301	250.488	79.2549	250.488	79.2642	250.488	79.1246	250.488	79.1501	250.488	78.9144	250.488	78.968	250.488	78.6348	250.488	78.7298	250.488	78.3026	250.488	78.4493	250.488	77.9397	250.488	78.1433	250.488	77.5718	250.488	77.8317	250.488	77.2272	250.488	77.5368	250.488	76.937	250.488	77.2807	250.488	76.733	250.488	77.0816	250.488	76.6397	250.488	76.9502	250.488	76.6606	250.488	76.8892	250.488	76.7714	250.488	76.8941	250.488	76.9276	250.488	76.9524	250.488	77.0822	250.488	77.0443	250.488	77.2005	250.488	77.1444	250.488	77.265	250.488	77.2271	250.488	77.2719
259.277	79.1136	259.277	79.0876	259.277	79.0592	259.277	78.9847	259.277	78.9242	259.277	78.8106	259.277	78.7137	259.277	78.573	259.277	78.4384	259.277	78.2819	259.277	78.1152	259.277	77.952	259.277	77.7663	259.277	77.6036	259.277	77.4186	259.277	77.2629	259.277	77.101	259.277	76.9594	259.277	76.8407	259.277	76.7222	259.277	76.6575	259.277	76.5745	259.277	76.5592	259.277	76.5272	259.277	76.5407	259.277	76.5734	259.277	76.5877	259.277	76.6866	259.277	76.681	259.277	76.8269	259.277	76.7986	259.277	76.9528	259.277	76.9159	259.277	77.0329	259.277	77.0075	259.277	77.051
268.066	78.7738	268.066	78.7293	268.066	78.7469	268.066	78.6113	268.066	78.651	268.066	78.4203	268.066	78.4874	268.066	78.1615	268.066	78.2569	268.066	77.8466	268.066	77.9633	268.066	77.4945	268.066	77.617	268.066	77.1313	268.066	77.2406	268.066	76.7883	268.066	76.871	268.066	76.4974	268.066	76.5557	268.066	76.2837	268.066	76.3375	268.066	76.1598	268.066	76.2356	268.066	76.1241	268.066	76.2365	268.066	76.1641	268.066	76.3049	268.066	76.2594	268.066	76.4037	268.066	76.3837	268.066	76.5054	268.066	76.5073	268.066	76.5906	268.066	76.6022	268.066	76.6433	268.066	76.6494
276.855	78.827	276.855	78.7633	276.855	78.7925	276.855	78.6017	276.855	78.6643	276.855	78.3482	276.855	78.4516	276.855	78.0155	276.855	78.1686	276.855	77.6233	276.855	77.8328	276.855	77.1995	276.855	77.4621	276.855	76.7821	276.855	77.0712	276.855	76.4198	276.855	76.6764	276.855	76.1637	276.855	76.3043	276.855	76.0479	276.855	75.998	276.855	76.0679	276.855	75.807	276.855	76.1805	276.855	75.7602	276.855	76.3264	276.855	75.845	276.855	76.4577	276.855	76.0126	276.855	76.5505	276.855	76.2043	276.855	76.6002	276.855	76.3751	276.855	76.6094	276.855	76.5014	276.855	76.578
287.109	78.3505	287.109	78.3109	287.109	78.345	287.109	78.2239	287.109	78.2865	287.109	78.08	287.109	78.1602	287.109	77.8676	287.109	77.9527	287.109	77.5804	287.109	77.6606	287.109	77.2212	287.109	77.2977	287.109	76.8065	287.109	76.8954	287.109	76.3712	287.109	76.4969	287.109	75.9751	287.109	76.1506	287.109	75.6979	287.109	75.9042	287.109	75.6065	287.109	75.7967	287.109	75.7088	287.109	75.8429	287.109	75.9441	287.109	76.0205	287.109	76.2253	287.109	76.2729	287.109	76.4854	287.109	76.5311	287.109	76.6907	287.109	76.7376	287.109	76.8275	287.109	76.8592	287.109	76.8872
297.363	78.6968	297.363	78.7094	297.363	78.5877	297.363	78.6194	297.363	78.3957	297.363	78.433	297.363	78.1337	297.363	78.1676	297.363	77.808	297.363	77.8463	297.363	77.4202	297.363	77.4897	297.363	76.9782	297.363	77.1096	297.363	76.5068	297.363	76.7106	297.363	76.0508	297.363	76.3021	297.363	75.6649	297.363	75.9176	297.363	75.3983	297.363	75.6252	297.363	75.2845	297.363	75.5045	297.363	75.3354	297.363	75.5921	297.363	75.5324	297.363	75.8437	297.363	75.822	297.363	76.1584	297.363	76.1324	297.363	76.4354	297.363	76.4002	297.363	76.6104	297.363	76.5839	297.363	76.6591
307.617	78.4531	307.617	78.4114	307.617	78.3899	307.617	78.2569	307.617	78.2381	307.617	77.9917	307.617	78.0182	307.617	77.6275	307.617	77.7474	307.617	77.186	307.617	77.4347	307.617	76.6998	307.617	77.0801	307.617	76.213	307.617	76.6834	307.617	75.7746	307.617	76.2566	307.617	75.4272	307.617	75.8299	307.617	75.197	307.617	75.4485	307.617	75.0931	307.617	75.1587	307.617	75.1103	307.617	74.9948	307.617	75.227	307.617	74.971	307.617	75.4034	307.617	75.0745	307.617	75.5883	307.617	75.2636	307.617	75.733	307.617	75.4793	307.617	75.8024	307.617	75.6647	307.617	75.7792
319.336	78.3728	319.336	78.3097	319.336	78.3281	319.336	78.1476	319.336	78.1719	319.336	77.8947	319.336	77.9108	319.336	77.5564	319.336	77.5625	319.336	77.1367	319.336	77.1511	319.336	76.644	319.336	76.6996	319.336	76.0984	319.336	76.2274	319.336	75.5376	319.336	75.7564	319.336	75.0169	319.336	75.32	319.336	74.6008	319.336	74.9609	319.336	74.3464	319.336	74.7161	319.336	74.2827	319.336	74.6007	319.336	74.3959	319.336	74.6078	319.336	74.6301	319.336	74.716	319.336	74.906	319.336	74.8918	319.336	75.1465	319.336	75.088	319.336	75.2963	319.336	75.25	319.336	75.3295
329.59	77.8237	329.59	77.7658	329.59	77.8046	329.59	77.6396	329.59	77.6992	329.59	77.4483	329.59	77.5032	329.59	77.1901	329.59	77.2208	329.59	76.8613	329.59	76.8638	329.59	76.4634	329.59	76.4476	329.59	76.0091	329.59	75.9903	329.59	75.5254	329.59	75.5166	329.59	75.0528	329.59	75.0658	329.59	74.6401	329.59	74.6905	329.59	74.335	329.59	74.4385	329.59	74.1724	329.59	74.327	329.59	74.1625	329.59	74.3377	329.59	74.285	329.59	74.436	329.59	74.4907	329.59	74.5871	329.59	74.711	329.59	74.7536	329.59	74.8762	329.59	74.8874	329.59	74.9381
341.309	77.3845	341.309	77.3638	341.309	77.3428	341.309	77.2814	341.309	77.2333	341.309	77.1363	341.309	77.0474	341.309	76.9284	341.309	76.7792	341.309	76.6569	341.309	76.4318	341.309	76.3181	341.309	76.0172	341.309	75.9076	341.309	75.5516	341.309	75.4279	341.309	75.0571	341.309	74.9005	341.309	74.5741	341.309	74.3768	341.309	74.1748	341.309	73.9379	341.309	73.9491	341.309	73.6681	341.309	73.9475	341.309	73.6065	341.309	74.1281	341.309	73.718	341.309	74.3768	341.309	73.9233	341.309	74.5802	341.309	74.1515	341.309	74.675	341.309	74.3632	341.309	74.6525	341.309	74.5379
353.027	77.5465	353.027	77.492	353.027	77.5389	353.027	77.3615	353.027	77.4749	353.027	77.1439	353.027	77.3482	353.027	76.842	353.027	77.1461	353.027	76.4778	353.027	76.8604	353.027	76.0873	353.027	76.4918	353.027	75.7086	353.027	76.0489	353.027	75.3672	353.027	75.544	353.027	75.0687	353.027	74.9972	353.027	74.8031	353.027	74.4476	353.027	74.561	353.027	73.9641	353.027	74.3546	353.027	73.639	353.027	74.2244	353.027	73.5522	353.027	74.2164	353.027	73.7163	353.027	74.3385	353.027	74.0497	353.027	74.5369	353.027	74.4143	353.027	74.7166	353.027	74.6826	353.027	74.784
366.211	77.4443	366.211	77.3297	366.211	77.4575	366.211	77.1244	366.211	77.3725	366.211	76.8483	366.211	77.2009	366.211	76.5186	366.211	76.9527	366.211	76.1449	366.211	76.6342	366.211	75.7356	366.211	76.2581	366.211	75.3088	366.211	75.8551	366.211	74.8955	366.211	75.4728	366.211	74.5325	366.211	75.1532	366.211	74.2527	366.211	74.9059	366.211	74.0803	366.211	74.709	366.211	74.0217	366.211	74.5426	366.211	74.0535	366.211	74.4155	366.211	74.1276	366.211	74.3519	366.211	74.1998	366.211	74.3498	366.211	74.2542	366.211	74.3701	366.211	74.2995	366.211	74.3711	366.211	74.3425
379.395	77.0588	379.395	77.0688	379.395	76.9019	379.395	76.9337	379.395	76.6204	379.395	76.6798	379.395	76.2534	379.395	76.3505	379.395	75.8485	379.395	75.9906	379.395	75.4572	379.395	75.6338	379.395	75.1322	379.395	75.3051	379.395	74.9223	379.395	75.0429	379.395	74.8579	379.395	74.9118	379.395	74.9371	379.395	74.9703	379.395	75.1241	379.395	75.2114	379.395	75.3632	379.395	75.5522	379.395	75.5977	379.395	75.8913	379.395	75.7899	379.395	76.161	379.395	75.9315	379.395	76.3361	379.395	76.0404	379.395	76.4162	379.395	76.1419	379.395	76.4127	379.395	76.2475	379.395	76.3467
392.578	78.2551	392.578	78.1414	392.578	78.1852	392.578	77.846	392.578	77.9307	392.578	77.3744	392.578	77.4924	392.578	76.742	392.578	76.8751	392.578	75.9862	392.578	76.0915	392.578	75.1767	392.578	75.1702	392.578	74.4147	392.578	74.1795	392.578	73.8149	392.578	73.2713	392.578	73.486	392.578	72.6996	392.578	73.5109	392.578	72.6926	392.578	73.9021	392.578	73.2261	392.578	74.5589	392.578	74.0417	392.578	75.308	392.578	74.8803	392.578	75.9947	392.578	75.5982	392.578	76.5261	392.578	76.1518	392.578	76.8646	392.578	76.5532	392.578	77.0101	392.578	76.8288	392.578	76.9873
405.762	78.5795	405.762	78.512	405.762	78.5171	405.762	78.3106	405.762	78.316	405.762	77.9566	405.762	77.9642	405.762	77.4256	405.762	77.4555	405.762	76.7016	405.762	76.7912	405.762	75.791	405.762	75.9764	405.762	74.7349	405.762	75.0221	405.762	73.625	405.762	73.9682	405.762	72.6323	405.762	72.9382	405.762	72.0281	405.762	72.1946	405.762	72.068	405.762	72.0501	405.762	72.7184	405.762	72.5661	405.762	73.6564	405.762	73.4666	405.762	74.5756	405.762	74.4261	405.762	75.3288	405.762	75.2505	405.762	75.8772	405.762	75.8571	405.762	76.2155	405.762	76.2192	405.762	76.3348
420.41	78.5786	420.41	78.5082	420.41	78.5241	420.41	78.3118	420.41	78.3485	420.41	77.9935	420.41	78.0543	420.41	77.5556	420.41	77.6399	420.41	76.9868	420.41	77.1004	420.41	76.2617	420.41	76.4292	420.41	75.3613	420.41	75.6266	420.41	74.3067	420.41	74.7182	420.41	73.1929	420.41	73.7872	420.41	72.2085	420.41	72.9942	420.41	71.6159	420.41	72.5285	420.41	71.6307	420.41	72.4775	420.41	72.2225	420.41	72.7644	420.41	73.1033	420.41	73.2355	420.41	73.9515	420.41	73.7609	420.41	74.5659	420.41	74.2545	420.41	74.8722	420.41	74.6507	420.41	74.8811
435.059	78.3483	435.059	78.3242	435.059	78.245	435.059	78.1694	435.059	78.0178	435.059	77.8804	435.059	77.6725	435.059	77.4538	435.059	77.2151	435.059	76.887	435.059	76.6457	435.059	76.1748	435.059	75.9503	435.059	75.306	435.059	75.1053	435.059	74.2737	435.059	74.1024	435.059	73.1117	435.059	73.0011	435.059	71.9731	435.059	72.0085	435.059	71.2154	435.059	71.5136	435.059	71.2395	435.059	71.8339	435.059	71.999	435.059	72.8042	435.059	73.0353	435.059	73.9435	435.059	73.9912	435.059	74.8871	435.059	74.7463	435.059	75.482	435.059	75.2928	435.059	75.7122	435.059	75.6278
451.172	78.5556	451.172	78.4963	451.172	78.532	451.172	78.3405	451.172	78.41	451.172	78.0595	451.172	78.1528	451.172	77.6327	451.172	77.7231	451.172	77.0618	451.172	77.1047	451.172	76.3687	451.172	76.3079	451.172	75.5808	451.172	75.3584	451.172	74.7236	451.172	74.2859	451.172	73.8272	451.172	73.1413	451.172	72.9488	451.172	72.0609	451.172	72.2087	451.172	71.3022	451.172	71.8102	451.172	71.0707	451.172	71.9318	451.172	71.278	451.172	72.5011	451.172	71.6915	451.172	73.2039	451.172	72.199	451.172	73.7363	451.172	72.7785	451.172	73.9395	451.172	73.356	451.172	73.7886
465.82	78.1279	465.82	78.0856	465.82	78.1347	465.82	78.0032	465.82	78.0798	465.82	77.8433	465.82	77.9198	465.82	77.5515	465.82	77.6138	465.82	77.0811	465.82	77.1364	465.82	76.4127	465.82	76.4789	465.82	75.5578	465.82	75.6419	465.82	74.5571	465.82	74.6354	465.82	73.4899	465.82	73.4932	465.82	72.5132	465.82	72.3169	465.82	71.8735	465.82	71.3501	465.82	71.7679	465.82	70.9578	465.82	72.1429	465.82	71.2981	465.82	72.752	465.82	72.0823	465.82	73.3623	465.82	72.9076	465.82	73.8339	465.82	73.555	465.82	74.1022	465.82	73.9671	465.82	74.1473
483.398	78.2111	483.398	78.1167	483.398	78.1381	483.398	77.8733	483.398	77.9203	483.398	77.5326	483.398	77.5996	483.398	77.1403	483.398	77.2053	483.398	76.6936	483.398	76.7381	483.398	76.1356	483.398	76.1742	483.398	75.3961	483.398	75.4751	483.398	74.4466	483.398	74.603	483.398	73.3322	483.398	73.5529	483.398	72.16	483.398	72.4113	483.398	71.0802	483.398	71.4218	483.398	70.3334	483.398	70.9521	483.398	70.2675	483.398	71.2029	483.398	70.9914	483.398	71.9527	483.398	72.1073	483.398	72.804	483.398	73.1225	483.398	73.4947	483.398	73.781	483.398	73.9198	483.398	74.0327
499.512	78.6662	499.512	78.6117	499.512	78.5409	499.512	78.3764	499.512	78.2604	499.512	77.9809	499.512	77.8615	499.512	77.4522	499.512	77.3719	499.512	76.8028	499.512	76.7888	499.512	76.0195	499.512	76.0795	499.512	75.0741	499.512	75.2153	499.512	73.959	499.512	74.2078	499.512	72.748	499.512	73.1264	499.512	71.6832	499.512	72.1081	499.512	71.1489	499.512	71.3863	499.512	71.3318	499.512	71.2527	499.512	72.0129	499.512	71.7963	499.512	72.8758	499.512	72.7328	499.512	73.7168	499.512	73.6789	499.512	74.4053	499.512	74.4102	499.512	74.8487	499.512	74.8542	499.512	75.0011
517.09	78.1428	517.09	78.0435	517.09	78.1989	517.09	77.9096	517.09	78.1508	517.09	77.6966	517.09	77.9379	517.09	77.3536	517.09	77.5482	517.09	76.8615	517.09	77.013	517.09	76.2255	517.09	76.3522	517.09	75.4388	517.09	75.5358	517.09	74.4633	517.09	74.5106	517.09	73.2605	517.09	73.2688	517.09	71.8776	517.09	71.9253	517.09	70.5939	517.09	70.7868	517.09	69.9797	517.09	70.2371	517.09	70.3678	517.09	70.3554	517.09	71.3427	517.09	70.9166	517.09	72.3484	517.09	71.7297	517.09	73.1275	517.09	72.6135	517.09	73.5882	517.09	73.322	517.09	73.6657
536.133	77.9329	536.133	77.8889	536.133	77.8865	536.133	77.7439	536.133	77.7474	536.133	77.4944	536.133	77.4927	536.133	77.1502	536.133	77.0945	536.133	76.7142	536.133	76.5426	536.133	76.157	536.133	75.8517	536.133	75.4176	536.133	75.0313	536.133	74.4268	536.133	74.0441	536.133	73.142	536.133	72.8061	536.133	71.6098	536.133	71.2682	536.133	70.1121	536.133	69.6251	536.133	69.305	536.133	68.6809	536.133	69.731	536.133	69.3344	536.133	70.9806	536.133	70.9304	536.133	72.2711	536.133	72.3764	536.133	73.1926	536.133	73.303	536.133	73.687	536.133	73.7481	536.133	73.8516
555.176	78.2487	555.176	78.3165	555.176	78.171	555.176	78.3391	555.176	78.0838	555.176	78.2376	555.176	77.9525	555.176	77.9138	555.176	77.7166	555.176	77.319	555.176	77.3262	555.176	76.4925	555.176	76.7643	555.176	75.5067	555.176	76.0263	555.176	74.3711	555.176	75.0871	555.176	73.018	555.176	73.8975	555.176	71.4055	555.176	72.4294	555.176	69.7242	555.176	70.8291	555.176	68.6905	555.176	69.7057	555.176	69.0456	555.176	69.7486	555.176	70.3232	555.176	70.5402	555.176	71.6945	555.176	71.3561	555.176	72.7607	555.176	72.0875	555.176	73.3206	555.176	72.7922	555.176	73.2929
574.219	78.7725	574.219	78.7088	574.219	78.6851	574.219	78.5173	574.219	78.4558	574.219	78.2361	574.219	78.1246	574.219	77.8864	574.219	77.7344	574.219	77.4467	574.219	77.2886	574.219	76.8746	574.219	76.738	574.219	76.1533	574.219	76.0048	574.219	75.2924	574.219	75.0192	574.219	74.2562	574.219	73.7558	574.219	72.9216	574.219	72.2927	574.219	71.1889	574.219	70.8703	574.219	69.2773	574.219	69.8382	574.219	68.1191	574.219	69.5659	574.219	68.6453	574.219	70.3186	574.219	70.1782	574.219	71.7437	574.219	71.7232	574.219	73.0441	574.219	72.9207	574.219	73.7109	574.219	73.6341
594.727	78.9702	594.727	78.7763	594.727	78.983	594.727	78.4782	594.727	78.799	594.727	78.1628	594.727	78.4678	594.727	77.8529	594.727	78.0586	594.727	77.4687	594.727	77.5907	594.727	76.8863	594.727	76.9957	594.727	76.0453	594.727	76.1728	594.727	74.9782	594.727	75.0932	594.727	73.7021	594.727	73.8074	594.727	72.1595	594.727	72.3007	594.727	70.4971	594.727	70.4356	594.727	69.4964	594.727	68.4494	594.727	69.8481	594.727	67.9626	594.727	70.9981	594.727	69.6144	594.727	72.2275	594.727	71.4485	594.727	73.1352	594.727	72.607	594.727	73.5325	594.727	73.2016	594.727	73.4971
615.234	78.7246	615.234	78.6659	615.234	78.7257	615.234	78.482	615.234	78.6716	615.234	78.1324	615.234	78.4949	615.234	77.6754	615.234	78.1406	615.234	77.213	615.234	77.6296	615.234	76.7447	615.234	77.0124	615.234	76.1284	615.234	76.2671	615.234	75.2024	615.234	75.2992	615.234	73.898	615.234	74.0499	615.234	72.2558	615.234	72.5639	615.234	70.4259	615.234	70.9695	615.234	68.9154	615.234	69.5847	615.234	68.7219	615.234	69.1103	615.234	69.8378	615.234	69.8058	615.234	71.2208	615.234	70.9906	615.234	72.3965	615.234	72.1685	615.234	73.223	615.234	73.0966	615.234	73.4963
637.207	78.266	637.207	78.3218	637.207	78.2269	637.207	78.3526	637.207	78.1722	637.207	78.2606	637.207	78.0388	637.207	77.988	637.207	77.7942	637.207	77.5821	637.207	77.4483	637.207	77.1212	637.207	76.9947	637.207	76.5605	637.207	76.3842	637.207	75.7253	637.207	75.5508	637.207	74.509	637.207	74.4045	637.207	73.0182	637.207	72.8341	637.207	71.3814	637.207	70.8299	637.207	69.4956	637.207	68.7962	637.207	67.8184	637.207	67.9817	637.207	68.0831	637.207	69.1125	637.207	69.7794	637.207	70.7983	637.207	71.2023	637.207	71.9599	637.207	72.0483	637.207	72.4567	637.207	72.4516
659.18	78.4472	659.18	78.309	659.18	78.4668	659.18	78.1605	659.18	78.347	659.18	78.0233	659.18	78.159	659.18	77.7721	659.18	77.9314	659.18	77.307	659.18	77.6131	659.18	76.6696	659.18	77.1614	659.18	75.9525	659.18	76.5687	659.18	75.1556	659.18	75.8027	659.18	74.1209	659.18	74.759	659.18	72.6005	659.18	73.272	659.18	70.5262	659.18	71.2225	659.18	68.473	659.18	69.0116	659.18	67.7498	659.18	68.292	659.18	69.0052	659.18	69.4937	659.18	71.2095	659.18	70.9721	659.18	73.0531	659.18	72.2051	659.18	73.9802	659.18	73.2576	659.18	73.965
682.617	79.437	682.617	79.3272	682.617	79.3297	682.617	78.9935	682.617	79.0517	682.617	78.5877	682.617	78.6576	682.617	78.2981	682.617	78.2461	682.617	78.0489	682.617	77.8758	682.617	77.6203	682.617	77.4723	682.617	76.9673	682.617	76.9063	682.617	76.1348	682.617	76.097	682.617	75.0387	682.617	75.0231	682.617	73.5872	682.617	73.7006	682.617	71.7836	682.617	72.1155	682.617	69.6772	682.617	70.2249	682.617	68.1771	682.617	68.6144	682.617	68.9052	682.617	68.836	682.617	70.5674	682.617	70.4606	682.617	71.8407	682.617	72.0005	682.617	72.7178	682.617	72.9532	682.617	73.1665
707.52	78.9418	707.52	78.8722	707.52	78.7931	707.52	78.5676	707.52	78.5386	707.52	78.1258	707.52	78.264	707.52	77.6889	707.52	77.9679	707.52	77.3288	707.52	77.6171	707.52	76.9306	707.52	77.178	707.52	76.298	707.52	76.6052	707.52	75.4061	707.52	75.8241	707.52	74.3606	707.52	74.7342	707.52	73.0628	707.52	73.2836	707.52	71.2655	707.52	71.4895	707.52	69.2188	707.52	69.4153	707.52	68.2463	707.52	67.6635	707.52	69.058	707.52	67.9641	707.52	70.6376	707.52	69.889	707.52	71.8827	707.52	71.3982	707.52	72.3141	707.52	72.0335	707.52	72.2414
732.422	78.4645	732.422	78.5268	732.422	78.4069	732.422	78.5249	732.422	78.2846	732.422	78.3163	732.422	78.0237	732.422	77.8833	732.422	77.6479	732.422	77.3859	732.422	77.2288	732.422	77.0061	732.422	76.7992	732.422	76.7005	732.422	76.3038	732.422	76.1504	732.422	75.5816	732.422	75.0926	732.422	74.4554	732.422	73.5426	732.422	72.8407	732.422	71.4817	732.422	70.8111	732.422	68.5771	732.422	68.7678	732.422	65.8449	732.422	67.3813	732.422	67.0111	732.422	67.3638	732.422	69.5062	732.422	69.0164	732.422	71.4239	732.422	71.1629	732.422	72.7594	732.422	72.7184	732.422	73.2678
757.324	79.1762	757.324	79.0777	757.324	79.09	757.324	78.8711	757.324	78.8644	757.324	78.6344	757.324	78.5962	757.324	78.34	757.324	78.3066	757.324	77.9079	757.324	77.9523	757.324	77.3255	757.324	77.4836	757.324	76.6763	757.324	76.8998	757.324	75.9643	757.324	76.2449	757.324	74.9555	757.324	75.5054	757.324	73.4363	757.324	74.4891	757.324	71.3948	757.324	72.7019	757.324	68.7082	757.324	69.5331	757.324	65.8267	757.324	65.8598	757.324	65.9171	757.324	66.4554	757.324	68.6543	757.324	69.3415	757.324	71.1804	757.324	71.5589	757.324	72.7233	757.324	72.829	757.324	73.2246
785.156	79.5032	785.156	79.2563	785.156	79.3723	785.156	78.7241	785.156	78.8655	785.156	78.1371	785.156	78.1274	785.156	77.728	785.156	77.3957	785.156	77.4809	785.156	76.811	785.156	77.2285	785.156	76.3602	785.156	76.7285	785.156	75.9393	785.156	75.8238	785.156	75.3398	785.156	74.7378	785.156	74.3827	785.156	73.5945	785.156	73.065	785.156	71.7818	785.156	71.4588	785.156	68.7311	785.156	69.4975	785.156	65.2264	785.156	67.3691	785.156	65.408	785.156	67.1894	785.156	68.2777	785.156	68.9463	785.156	70.4768	785.156	70.1583	785.156	71.6854	785.156	71.0529	785.156	71.7969
811.523	78.8519	811.523	78.8792	811.523	78.6122	811.523	78.5842	811.523	78.3219	811.523	78.1587	811.523	78.0185	811.523	77.9068	811.523	77.7251	811.523	77.7269	811.523	77.4517	811.523	77.3742	811.523	77.1337	811.523	76.9955	811.523	76.8193	811.523	76.6634	811.523	76.4852	811.523	75.9473	811.523	75.7319	811.523	74.3017	811.523	74.2404	811.523	71.427	811.523	71.9589	811.523	67.5131	811.523	68.565	811.523	64.4638	811.523	64.5671	811.523	65.8522	811.523	66.5219	811.523	69.7109	811.523	70.6619	811.523	72.091	811.523	73.0903	811.523	73.1581	811.523	73.9126	811.523	73.7321
840.82	79.1067	840.82	79.0086	840.82	79.1003	840.82	78.8033	840.82	78.9588	840.82	78.3286	840.82	78.6273	840.82	77.5442	840.82	78.0844	840.82	76.9891	840.82	77.59	840.82	77.0166	840.82	77.4361	840.82	77.03	840.82	77.4418	840.82	76.6844	840.82	77.1876	840.82	76.1671	840.82	76.4872	840.82	75.4796	840.82	75.4147	840.82	74.1716	840.82	73.8041	840.82	71.4628	840.82	70.854	840.82	66.8024	840.82	66.2131	840.82	63.8715	840.82	65.1078	840.82	68.0942	840.82	68.0446	840.82	71.9573	840.82	70.411	840.82	73.6266	840.82	72.0967	840.82	73.3748
870.117	80.8074	870.117	80.5856	870.117	80.5743	870.117	80.1327	870.117	79.8045	870.117	79.5302	870.117	78.7087	870.117	78.6339	870.117	77.7322	870.117	77.5272	870.117	77.1073	870.117	76.8608	870.117	76.7713	870.117	76.7403	870.117	76.7508	870.117	76.4884	870.117	76.8207	870.117	75.8898	870.117	76.6912	870.117	74.7768	870.117	76.1545	870.117	72.6653	870.117	74.6999	870.117	69.3321	870.117	71.6447	870.117	64.2691	870.117	67.046	870.117	63.7572	870.117	66.3688	870.117	69.3752	870.117	70.5978	870.117	72.8359	870.117	74.0275	870.117	75.036	870.117	75.9131	870.117	76.1666
900.879	81.6973	900.879	81.3301	900.879	81.7046	900.879	80.7187	900.879	81.2251	900.879	79.8811	900.879	80.3129	900.879	78.9197	900.879	79.2289	900.879	78.0386	900.879	78.1122	900.879	77.2814	900.879	76.9751	900.879	76.7559	900.879	76.2446	900.879	76.5353	900.879	75.8999	900.879	76.2322	900.879	75.1319	900.879	75.6313	900.879	73.8886	900.879	74.6869	900.879	72.5389	900.879	72.6939	900.879	70.6425	900.879	68.3393	900.879	66.5063	900.879	61.4441	900.879	60.9356	900.879	64.7364	900.879	65.9912	900.879	69.9322	900.879	68.9136	900.879	72.5407	900.879	70.9299	900.879	72.6268
933.105	81.6075	933.105	81.7356	933.105	81.2456	933.105	81.2663	933.105	80.9176	933.105	80.1918	933.105	80.2627	933.105	78.7698	933.105	78.9759	933.105	77.4036	933.105	77.6684	933.105	76.4303	933.105	76.9188	933.105	75.9294	933.105	76.3554	933.105	75.9348	933.105	76.2701	933.105	75.9864	933.105	76.4926	933.105	75.3619	933.105	76.1011	933.105	73.6916	933.105	74.8663	933.105	70.8471	933.105	72.2696	933.105	66.9979	933.105	66.7983	933.105	65.1262	933.105	64.6143	933.105	68.4311	933.105	68.7939	933.105	71.3299	933.105	72.6505	933.105	73.2343	933.105	74.9853	933.105	74.8957
965.332	82.8135	965.332	82.4847	965.332	82.6422	965.332	82.09	965.332	81.8187	965.332	81.4058	965.332	80.7358	965.332	80.1468	965.332	79.6354	965.332	78.7728	965.332	78.4004	965.332	77.7557	965.332	76.9671	965.332	77.2872	965.332	75.9576	965.332	76.9403	965.332	75.914	965.332	76.4868	965.332	76.0845	965.332	76.3871	965.332	75.9392	965.332	75.897	965.332	75.2235	965.332	74.3595	965.332	73.3802	965.332	70.9275	965.332	69.8407	965.332	63.8485	965.332	60.5685	965.332	64.3857	965.332	66.5957	965.332	70.3665	965.332	71.4508	965.332	72.9169	965.332	72.1497	965.332	72.5584
1,000.49	83.3414	1,000.49	83.1554	1,000.49	83.1115	1,000.49	82.4027	1,000.49	82.5753	1,000.49	81.353	1,000.49	81.5899	1,000.49	80.2534	1,000.49	80.1715	1,000.49	78.5878	1,000.49	78.7204	1,000.49	76.6523	1,000.49	77.4626	1,000.49	76.0899	1,000.49	76.3416	1,000.49	76.1626	1,000.49	75.9809	1,000.49	75.9233	1,000.49	76.2824	1,000.49	75.6617	1,000.49	76.3003	1,000.49	75.0713	1,000.49	75.5601	1,000.49	73.4143	1,000.49	73.6221	1,000.49	70.5251	1,000.49	68.9326	1,000.49	67.9913	1,000.49	62.2779	1,000.49	68.1591	1,000.49	65.2676	1,000.49	71.5221	1,000.49	69.4118	1,000.49	73.4919	1,000.49	72.7141	1,000.49	74.0433
1,035.64	83.5065	1,035.64	83.4797	1,035.64	83.3582	1,035.64	83.3082	1,035.64	82.9297	1,035.64	82.488	1,035.64	82.4051	1,035.64	81.0271	1,035.64	81.5115	1,035.64	79.5444	1,035.64	79.9313	1,035.64	77.7442	1,035.64	78.0056	1,035.64	75.9154	1,035.64	76.3454	1,035.64	75.5454	1,035.64	75.2671	1,035.64	75.8737	1,035.64	75.2852	1,035.64	76.6527	1,035.64	75.7691	1,035.64	76.4146	1,035.64	75.2286	1,035.64	74.6276	1,035.64	74.0864	1,035.64	71.6411	1,035.64	71.89	1,035.64	66.3896	1,035.64	65.2083	1,035.64	65.4299	1,035.64	59.1437	1,035.64	69.7498	1,035.64	69.9566	1,035.64	72.0282	1,035.64	71.7313	1,035.64	71.6975
1,072.27	84.3592	1,072.27	83.8338	1,072.27	84.2881	1,072.27	83.0686	1,072.27	83.6269	1,072.27	82.4468	1,072.27	82.5892	1,072.27	81.4616	1,072.27	81.4257	1,072.27	79.7854	1,072.27	80.015	1,072.27	77.927	1,072.27	78.1266	1,072.27	75.9813	1,072.27	76.2302	1,072.27	75.3667	1,072.27	75.0114	1,072.27	75.1076	1,072.27	74.5443	1,072.27	74.3828	1,072.27	74.7705	1,072.27	74.4282	1,072.27	74.4738	1,072.27	72.9926	1,072.27	73.2697	1,072.27	68.9197	1,072.27	69.9732	1,072.27	63.809	1,072.27	63.6666	1,072.27	67.2575	1,072.27	64.2892	1,072.27	71.3501	1,072.27	70.3123	1,072.27	74.4667	1,072.27	74.1128	1,072.27	75.5159
1,108.89	84.5282	1,108.89	84.3727	1,108.89	84.4534	1,108.89	83.7913	1,108.89	84.202	1,108.89	82.8057	1,108.89	83.5205	1,108.89	81.5799	1,108.89	82.2341	1,108.89	80.2706	1,108.89	80.5399	1,108.89	78.7686	1,108.89	78.8535	1,108.89	76.9676	1,108.89	77.3571	1,108.89	75.3664	1,108.89	75.8018	1,108.89	75.0595	1,108.89	75.2071	1,108.89	75.3337	1,108.89	75.7416	1,108.89	74.9672	1,108.89	75.7754	1,108.89	73.9432	1,108.89	74.3374	1,108.89	71.9931	1,108.89	71.6774	1,108.89	66.371	1,108.89	66.5886	1,108.89	62.9032	1,108.89	58.4021	1,108.89	69.4957	1,108.89	69.5224	1,108.89	72.3529	1,108.89	71.3706	1,108.89	71.9061
1,148.44	84.3152	1,148.44	84.2028	1,148.44	84.1632	1,148.44	83.8926	1,148.44	83.7268	1,148.44	83.2632	1,148.44	83.0486	1,148.44	82.0248	1,148.44	82.0119	1,148.44	80.1815	1,148.44	80.6478	1,148.44	77.9803	1,148.44	79.2019	1,148.44	75.6728	1,148.44	77.4466	1,148.44	74.6251	1,148.44	75.4652	1,148.44	74.0872	1,148.44	74.0014	1,148.44	74.7549	1,148.44	73.4966	1,148.44	75.4033	1,148.44	73.7341	1,148.44	74.0226	1,148.44	73.7323	1,148.44	70.8443	1,148.44	71.7022	1,148.44	64.3122	1,148.44	66.472	1,148.44	53.4007	1,148.44	59.1725	1,148.44	66.9972	1,148.44	65.7592	1,148.44	71.8779	1,148.44	72.7144	1,148.44	73.9683
1,189.45	84.904	1,189.45	84.7031	1,189.45	84.8016	1,189.45	84.3332	1,189.45	84.2961	1,189.45	83.6636	1,189.45	83.6469	1,189.45	82.4255	1,189.45	82.8489	1,189.45	80.8403	1,189.45	81.4735	1,189.45	79.3512	1,189.45	79.8172	1,189.45	77.421	1,189.45	78.3522	1,189.45	75.4139	1,189.45	76.5323	1,189.45	74.5191	1,189.45	75.0742	1,189.45	74.8259	1,189.45	75.4996	1,189.45	75.2622	1,189.45	76.0691	1,189.45	74.9402	1,189.45	76.0513	1,189.45	72.8463	1,189.45	74.718	1,189.45	68.6891	1,189.45	69.9448	1,189.45	65.4925	1,189.45	63.3307	1,189.45	70.0935	1,189.45	70.02	1,189.45	73.3445	1,189.45	73.6027	1,189.45	73.8812
1,230.47	83.974	1,230.47	83.6736	1,230.47	84.1327	1,230.47	83.361	1,230.47	83.869	1,230.47	82.9616	1,230.47	83.1698	1,230.47	81.9784	1,230.47	82.0631	1,230.47	79.9411	1,230.47	80.6697	1,230.47	78.5798	1,230.47	78.9765	1,230.47	77.0309	1,230.47	77.414	1,230.47	73.6495	1,230.47	75.2628	1,230.47	71.7916	1,230.47	73.7051	1,230.47	71.9925	1,230.47	73.6709	1,230.47	74.9371	1,230.47	72.4638	1,230.47	75.2296	1,230.47	71.2369	1,230.47	73.5138	1,230.47	69.3799	1,230.47	68.0784	1,230.47	65.2951	1,230.47	59.9538	1,230.47	60.5711	1,230.47	66.7172	1,230.47	67.2473	1,230.47	72.8462	1,230.47	72.9659	1,230.47	73.9667
1,274.41	83.8751	1,274.41	83.5998	1,274.41	83.7617	1,274.41	83.0752	1,274.41	83.3505	1,274.41	82.4763	1,274.41	82.4975	1,274.41	81.6259	1,274.41	81.2005	1,274.41	80.2617	1,274.41	79.64	1,274.41	78.4074	1,274.41	77.4034	1,274.41	75.6277	1,274.41	75.6855	1,274.41	73.2622	1,274.41	75.0841	1,274.41	71.9386	1,274.41	73.7738	1,274.41	72.4107	1,274.41	72.6263	1,274.41	74.2197	1,274.41	72.4468	1,274.41	74.8084	1,274.41	72.7792	1,274.41	72.5357	1,274.41	70.3928	1,274.41	64.9409	1,274.41	64.7556	1,274.41	61.6943	1,274.41	52.4685	1,274.41	68.512	1,274.41	67.468	1,274.41	71.9688	1,274.41	72.0009	1,274.41	73.5882
1,319.82	82.7782	1,319.82	82.5714	1,319.82	82.7323	1,319.82	81.4712	1,319.82	82.2601	1,319.82	80.7281	1,319.82	81.0697	1,319.82	80.2582	1,319.82	79.7482	1,319.82	78.4246	1,319.82	77.9776	1,319.82	75.9492	1,319.82	75.7924	1,319.82	74.4371	1,319.82	74.336	1,319.82	72.4527	1,319.82	73.0637	1,319.82	71.4914	1,319.82	71.9714	1,319.82	70.8336	1,319.82	71.7158	1,319.82	70.6932	1,319.82	71.2329	1,319.82	71.2335	1,319.82	71.4193	1,319.82	70.7881	1,319.82	72.1735	1,319.82	64.9611	1,319.82	67.7343	1,319.82	46.9092	1,319.82	56.2469	1,319.82	66.0137	1,319.82	61.2158	1,319.82	68.8866	1,319.82	68.9362	1,319.82	70.1351
1,366.7	82.0084	1,366.7	81.7243	1,366.7	81.7907	1,366.7	81.2154	1,366.7	81.4187	1,366.7	80.2946	1,366.7	80.3823	1,366.7	78.3943	1,366.7	78.6973	1,366.7	77.3747	1,366.7	77.1719	1,366.7	75.9893	1,366.7	75.2818	1,366.7	74.1516	1,366.7	72.7066	1,366.7	71.2335	1,366.7	72.265	1,366.7	70.0103	1,366.7	70.5434	1,366.7	69.5483	1,366.7	69.7184	1,366.7	70.9037	1,366.7	70.3453	1,366.7	72.1248	1,366.7	69.9591	1,366.7	69.6943	1,366.7	67.6407	1,366.7	62.4847	1,366.7	67.9398	1,366.7	56.0187	1,366.7	63.528	1,366.7	55.2061	1,366.7	62.4528	1,366.7	69.5312	1,366.7	68.3186	1,366.7	71.2803
1,413.57	82.5714	1,413.57	82.4133	1,413.57	82.3951	1,413.57	81.2861	1,413.57	82.2384	1,413.57	80.4473	1,413.57	81.0345	1,413.57	78.7893	1,413.57	79.2585	1,413.57	77.14	1,413.57	77.4666	1,413.57	76.8231	1,413.57	75.8683	1,413.57	75.2105	1,413.57	73.2203	1,413.57	72.323	1,413.57	70.8802	1,413.57	70.7348	1,413.57	70.3517	1,413.57	66.7711	1,413.57	69.0543	1,413.57	69.278	1,413.57	68.0699	1,413.57	71.2929	1,413.57	68.9794	1,413.57	69.9254	1,413.57	69.0353	1,413.57	64.5257	1,413.57	66.6414	1,413.57	56.337	1,413.57	55.9112	1,413.57	61.6908	1,413.57	64.2175	1,413.57	65.9431	1,413.57	66.2355	1,413.57	67.7758
1,463.38	82.198	1,463.38	81.9976	1,463.38	82.3757	1,463.38	81.7226	1,463.38	81.3029	1,463.38	80.243	1,463.38	80.6108	1,463.38	78.633	1,463.38	79.9733	1,463.38	77.342	1,463.38	77.585	1,463.38	74.4808	1,463.38	75.3615	1,463.38	73.2954	1,463.38	73.104	1,463.38	73.1978	1,463.38	71.071	1,463.38	70.8282	1,463.38	68.8514	1,463.38	67.7146	1,463.38	70.4428	1,463.38	67.4086	1,463.38	71.0034	1,463.38	67.7381	1,463.38	70.5957	1,463.38	70.4018	1,463.38	69.9951	1,463.38	67.3819	1,463.38	70.1878	1,463.38	62.5577	1,463.38	55.7135	1,463.38	49.3305	1,463.38	57.7044	1,463.38	63.8261	1,463.38	66.0999	1,463.38	66.0997
1,516.11	82.1539	1,516.11	81.8064	1,516.11	82.0204	1,516.11	81.4997	1,516.11	81.5127	1,516.11	80.1275	1,516.11	80.162	1,516.11	78.6365	1,516.11	78.2568	1,516.11	77.2655	1,516.11	77.5506	1,516.11	74.6936	1,516.11	76.1186	1,516.11	71.9188	1,516.11	74.3606	1,516.11	71.4512	1,516.11	71.7097	1,516.11	69.1361	1,516.11	65.827	1,516.11	68.0591	1,516.11	66.7602	1,516.11	68.8084	1,516.11	69.2083	1,516.11	68.7523	1,516.11	71.8571	1,516.11	69.6421	1,516.11	69.371	1,516.11	68.9665	1,516.11	66.0998	1,516.11	62.7768	1,516.11	61.0789	1,516.11	51.5582	1,516.11	53.2155	1,516.11	64.9337	1,516.11	60.5461	1,516.11	66.4926
1,568.85	81.439	1,568.85	81.3668	1,568.85	81.435	1,568.85	80.9758	1,568.85	80.6136	1,568.85	80.4762	1,568.85	79.4141	1,568.85	78.7265	1,568.85	78.6526	1,568.85	76.0757	1,568.85	77.1554	1,568.85	74.8324	1,568.85	76.3441	1,568.85	74.1406	1,568.85	74.3917	1,568.85	72.5637	1,568.85	70.0387	1,568.85	70.1077	1,568.85	66.6857	1,568.85	69.655	1,568.85	65.6022	1,568.85	68.1726	1,568.85	68.4889	1,568.85	66.3461	1,568.85	69.1345	1,568.85	69.849	1,568.85	70.9044	1,568.85	69.7101	1,568.85	66.146	1,568.85	59.7962	1,568.85	63.5415	1,568.85	53.3317	1,568.85	56.2363	1,568.85	62.7416	1,568.85	63.668	1,568.85	65.4802
1,624.51	81.7419	1,624.51	81.5251	1,624.51	81.4649	1,624.51	80.6554	1,624.51	81.0686	1,624.51	79.6027	1,624.51	80.7576	1,624.51	78.1234	1,624.51	79.6423	1,624.51	76.65	1,624.51	77.2915	1,624.51	74.4305	1,624.51	73.867	1,624.51	73.0271	1,624.51	72.2311	1,624.51	69.8659	1,624.51	71.9521	1,624.51	67.6829	1,624.51	67.9735	1,624.51	65.4449	1,624.51	64.6654	1,624.51	64.6532	1,624.51	62.4407	1,624.51	67.78	1,624.51	67.0863	1,624.51	69.8435	1,624.51	69.2671	1,624.51	71.1546	1,624.51	69.8896	1,624.51	63.4008	1,624.51	61.4141	1,624.51	43.7607	1,624.51	58.5896	1,624.51	52.0161	1,624.51	64.6387	1,624.51	61.0346
1,681.64	82.5405	1,681.64	81.4402	1,681.64	81.8405	1,681.64	80.9024	1,681.64	80.9079	1,681.64	79.8458	1,681.64	79.8571	1,681.64	77.9761	1,681.64	78.1714	1,681.64	76.1946	1,681.64	76.4803	1,681.64	73.7833	1,681.64	74.3767	1,681.64	72.0568	1,681.64	71.694	1,681.64	70.044	1,681.64	69.2524	1,681.64	68.4474	1,681.64	67.4659	1,681.64	61.0659	1,681.64	65.3954	1,681.64	58.9499	1,681.64	60.9328	1,681.64	68.0634	1,681.64	68.3909	1,681.64	70.4939	1,681.64	70.9038	1,681.64	71.3766	1,681.64	69.2399	1,681.64	70.0005	1,681.64	63.7842	1,681.64	48.7197	1,681.64	55.8215	1,681.64	64.6815	1,681.64	67.5335	1,681.64	67.7135
1,741.7	83.2164	1,741.7	83.4523	1,741.7	82.2118	1,741.7	82.3643	1,741.7	82.1717	1,741.7	80.7043	1,741.7	81.3892	1,741.7	78.758	1,741.7	79.0278	1,741.7	77.5978	1,741.7	78.3064	1,741.7	73.1592	1,741.7	76.8263	1,741.7	74.4092	1,741.7	76.6863	1,741.7	71.1559	1,741.7	71.9834	1,741.7	67.1244	1,741.7	70.8088	1,741.7	67.6049	1,741.7	64.3126	1,741.7	65.8528	1,741.7	67.4073	1,741.7	61.457	1,741.7	70.0539	1,741.7	69.5647	1,741.7	70.3166	1,741.7	69.5328	1,741.7	66.0882	1,741.7	67.2894	1,741.7	66.044	1,741.7	57.5755	1,741.7	59.7124	1,741.7	63.7067	1,741.7	62.2168	1,741.7	62.6939
1,803.22	83.717	1,803.22	83.9521	1,803.22	82.4527	1,803.22	82.7292	1,803.22	82.2668	1,803.22	80.8618	1,803.22	80.4504	1,803.22	79.1906	1,803.22	78.8878	1,803.22	75.7357	1,803.22	78.43	1,803.22	75.2569	1,803.22	77.4447	1,803.22	73.6267	1,803.22	76.1332	1,803.22	69.9852	1,803.22	74.4444	1,803.22	70.1515	1,803.22	73.831	1,803.22	67.9203	1,803.22	68.297	1,803.22	67.9318	1,803.22	68.048	1,803.22	67.4655	1,803.22	62.7429	1,803.22	67.0114	1,803.22	72.0733	1,803.22	68.5075	1,803.22	68.9764	1,803.22	65.5739	1,803.22	70.6504	1,803.22	66.0197	1,803.22	55.1061	1,803.22	56.4762	1,803.22	61.7104	1,803.22	65.4493
1,866.21	83.1524	1,866.21	82.9893	1,866.21	82.3078	1,866.21	81.6963	1,866.21	80.9156	1,866.21	79.927	1,866.21	79.1325	1,866.21	78.4651	1,866.21	78.3067	1,866.21	77.8967	1,866.21	76.5645	1,866.21	74.537	1,866.21	75.8176	1,866.21	74.3857	1,866.21	73.0908	1,866.21	73.2522	1,866.21	74.4061	1,866.21	70.6768	1,866.21	72.3006	1,866.21	70.314	1,866.21	68.8542	1,866.21	67.0076	1,866.21	64.7647	1,866.21	64.2565	1,866.21	67.3342	1,866.21	69.4767	1,866.21	68.8386	1,866.21	71.6503	1,866.21	73.0817	1,866.21	70.7867	1,866.21	65.3397	1,866.21	65.7571	1,866.21	66.9978	1,866.21	65.7376	1,866.21	44.6506	1,866.21	59.1733
1,932.13	82.2193	1,932.13	81.1594	1,932.13	82.4243	1,932.13	79.9782	1,932.13	80.8464	1,932.13	78.6432	1,932.13	79.6283	1,932.13	76.4032	1,932.13	77.9216	1,932.13	75.7259	1,932.13	76.6433	1,932.13	74.52	1,932.13	75.1413	1,932.13	73.4143	1,932.13	72.3673	1,932.13	70.1157	1,932.13	72.0282	1,932.13	71.2221	1,932.13	65.3278	1,932.13	69.6267	1,932.13	65.8399	1,932.13	65.9627	1,932.13	67.1777	1,932.13	59.3764	1,932.13	57.5038	1,932.13	69.2012	1,932.13	66.3083	1,932.13	67.9462	1,932.13	62.948	1,932.13	58.3801	1,932.13	68.7703	1,932.13	54.7761	1,932.13	52.6404	1,932.13	61.8898	1,932.13	63.1063	1,932.13	61.4462
1,999.51	83.3574	1,999.51	83.1263	1,999.51	83.0956	1,999.51	81.6814	1,999.51	82.0117	1,999.51	80.2793	1,999.51	80.0972	1,999.51	78.241	1,999.51	78.4995	1,999.51	75.3669	1,999.51	75.3309	1,999.51	73.4472	1,999.51	74.2763	1,999.51	70.8827	1,999.51	70.8315	1,999.51	69.3098	1,999.51	69.9434	1,999.51	68.7563	1,999.51	69.1537	1,999.51	67.2032	1,999.51	68.5835	1,999.51	66.472	1,999.51	66.6912	1,999.51	55.6569	1,999.51	62.204	1,999.51	62.4108	1,999.51	63.7077	1,999.51	66.1414	1,999.51	68.0107	1,999.51	63.3744	1,999.51	64.5901	1,999.51	55.4336	1,999.51	58.1044	1,999.51	61.7598	1,999.51	60.6405	1,999.51	63.3161
2,069.82	83.8246	2,069.82	83.2938	2,069.82	83.4285	2,069.82	82.2987	2,069.82	82.3232	2,069.82	80.8525	2,069.82	80.8148	2,069.82	79.4375	2,069.82	78.8486	2,069.82	76.6779	2,069.82	75.8877	2,069.82	74.2038	2,069.82	74.2223	2,069.82	71.4539	2,069.82	71.6348	2,069.82	70.2847	2,069.82	69.1882	2,069.82	69.5364	2,069.82	70.4244	2,069.82	69.0096	2,069.82	66.5894	2,069.82	65.6435	2,069.82	67.9698	2,069.82	60.7541	2,069.82	60.9171	2,069.82	63.0374	2,069.82	61.6136	2,069.82	65.5115	2,069.82	66.3269	2,069.82	65.6856	2,069.82	65.3557	2,069.82	57.678	2,069.82	57.0837	2,069.82	63.2867	2,069.82	57.3511	2,069.82	61.4906
2,143.07	82.7882	2,143.07	82.2364	2,143.07	82.5631	2,143.07	81.0839	2,143.07	81.7926	2,143.07	80.0062	2,143.07	80.2386	2,143.07	78.237	2,143.07	78.1985	2,143.07	76.2229	2,143.07	76.1207	2,143.07	74.0129	2,143.07	73.3877	2,143.07	71.1361	2,143.07	71.1989	2,143.07	69.2866	2,143.07	68.5194	2,143.07	65.8581	2,143.07	67.2741	2,143.07	66.7243	2,143.07	65.0588	2,143.07	67.0421	2,143.07	67.2	2,143.07	57.8819	2,143.07	63.0899	2,143.07	58.9659	2,143.07	59.8605	2,143.07	64.4472	2,143.07	65.8784	2,143.07	62.411	2,143.07	65.1845	2,143.07	49.1178	2,143.07	57.1014	2,143.07	53.3599	2,143.07	55.2719	2,143.07	58.0845
2,219.24	82.4197	2,219.24	82.2844	2,219.24	82.5261	2,219.24	80.871	2,219.24	81.6045	2,219.24	79.237	2,219.24	80.0792	2,219.24	77.1814	2,219.24	78.3755	2,219.24	74.5362	2,219.24	75.9568	2,219.24	74.9742	2,219.24	73.8147	2,219.24	71.53	2,219.24	71.292	2,219.24	68.1764	2,219.24	68.7275	2,219.24	65.0425	2,219.24	67.7056	2,219.24	63.797	2,219.24	65.1238	2,219.24	60.4557	2,219.24	66.1757	2,219.24	61.4	2,219.24	62.975	2,219.24	44.453	2,219.24	60.1058	2,219.24	65.1298	2,219.24	64.5184	2,219.24	65.4522	2,219.24	65.8796	2,219.24	56.9471	2,219.24	58.536	2,219.24	56.5253	2,219.24	52.1399	2,219.24	61.9966
2,296.88	83.3783	2,296.88	82.755	2,296.88	82.9258	2,296.88	81.6661	2,296.88	81.9782	2,296.88	80.3419	2,296.88	80.6834	2,296.88	78.2134	2,296.88	78.6346	2,296.88	76.0192	2,296.88	76.5091	2,296.88	71.8248	2,296.88	73.6273	2,296.88	70.7447	2,296.88	71.597	2,296.88	69.3644	2,296.88	68.6757	2,296.88	65.7202	2,296.88	67.2201	2,296.88	64.0876	2,296.88	65.6296	2,296.88	64.9803	2,296.88	66.346	2,296.88	62.0987	2,296.88	63.5073	2,296.88	59.4418	2,296.88	58.7634	2,296.88	62.2306	2,296.88	65.6451	2,296.88	63.285	2,296.88	63.6116	2,296.88	50.63	2,296.88	61.9624	2,296.88	52.9587	2,296.88	54.279	2,296.88	56.0999
2,378.91	82.7847	2,378.91	82.3409	2,378.91	82.2363	2,378.91	81.5326	2,378.91	81.5174	2,378.91	80.349	2,378.91	80.195	2,378.91	77.7977	2,378.91	78.1478	2,378.91	75.9312	2,378.91	75.7935	2,378.91	72.049	2,378.91	72.6481	2,378.91	70.8686	2,378.91	70.1617	2,378.91	67.9041	2,378.91	67.8137	2,378.91	66.0074	2,378.91	67.1173	2,378.91	63.5606	2,378.91	64.0219	2,378.91	65.092	2,378.91	63.4948	2,378.91	63.8382	2,378.91	61.6991	2,378.91	55.3384	2,378.91	60.7423	2,378.91	59.6003	2,378.91	60.1835	2,378.91	58.7748	2,378.91	62.6286	2,378.91	52.2785	2,378.91	53.6933	2,378.91	46.5296	2,378.91	56.0485	2,378.91	54.1578
2,462.4	82.249	2,462.4	81.5006	2,462.4	81.926	2,462.4	80.6103	2,462.4	81.2341	2,462.4	79.4535	2,462.4	79.9336	2,462.4	77.747	2,462.4	78.1811	2,462.4	75.8526	2,462.4	76.0978	2,462.4	71.6285	2,462.4	72.9365	2,462.4	70.4978	2,462.4	70.6231	2,462.4	68.5016	2,462.4	68.4431	2,462.4	66.0935	2,462.4	66.1059	2,462.4	62.1469	2,462.4	64.1568	2,462.4	63.1534	2,462.4	62.2195	2,462.4	63.0072	2,462.4	60.2938	2,462.4	55.5699	2,462.4	56.3894	2,462.4	58.8113	2,462.4	56.8877	2,462.4	60.1461	2,462.4	58.8024	2,462.4	53.9086	2,462.4	57.0771	2,462.4	53.3037	2,462.4	36.6653	2,462.4	60.0578
2,548.83	82.5956	2,548.83	81.5637	2,548.83	82.5024	2,548.83	81.1075	2,548.83	81.546	2,548.83	79.5434	2,548.83	80.3638	2,548.83	78.5429	2,548.83	78.0134	2,548.83	76.2956	2,548.83	76.4341	2,548.83	72.6151	2,548.83	73.6558	2,548.83	68.5778	2,548.83	71.2048	2,548.83	70.1579	2,548.83	68.1635	2,548.83	65.0031	2,548.83	65.2084	2,548.83	62.3744	2,548.83	64.9331	2,548.83	63.314	2,548.83	62.6836	2,548.83	62.8178	2,548.83	62.0814	2,548.83	58.0931	2,548.83	59.6261	2,548.83	54.3923	2,548.83	52.1371	2,548.83	58.3646	2,548.83	55.0051	2,548.83	51.8715	2,548.83	57.7251	2,548.83	53.4863	2,548.83	52.3096	2,548.83	61.0258
2,639.65	82.3018	2,639.65	81.8877	2,639.65	82.1524	2,639.65	80.8834	2,639.65	81.4357	2,639.65	79.6371	2,639.65	80.0096	2,639.65	78.1964	2,639.65	78.5416	2,639.65	77.1071	2,639.65	76.0278	2,639.65	74.204	2,639.65	72.7056	2,639.65	71.9845	2,639.65	69.9517	2,639.65	70.189	2,639.65	67.6728	2,639.65	64.8821	2,639.65	66.6944	2,639.65	63.6699	2,639.65	63.1936	2,639.65	62.2884	2,639.65	60.7915	2,639.65	62.47	2,639.65	62.8071	2,639.65	54.8884	2,639.65	56.1764	2,639.65	56.7082	2,639.65	46.3241	2,639.65	55.1564	2,639.65	56.0271	2,639.65	54.2036	2,639.65	52.6377	2,639.65	54.7584	2,639.65	54.1896	2,639.65	60.8718
2,731.93	82.4361	2,731.93	82.2126	2,731.93	82.3916	2,731.93	80.9914	2,731.93	81.5515	2,731.93	79.7359	2,731.93	80.3036	2,731.93	78.0223	2,731.93	78.8597	2,731.93	77.1821	2,731.93	77.0791	2,731.93	74.8432	2,731.93	74.5108	2,731.93	72.4479	2,731.93	72.0571	2,731.93	68.1536	2,731.93	69.0594	2,731.93	65.3089	2,731.93	66.3748	2,731.93	63.6404	2,731.93	62.2664	2,731.93	62.055	2,731.93	62.5536	2,731.93	61.4653	2,731.93	64.5897	2,731.93	58.228	2,731.93	57.7973	2,731.93	54.7768	2,731.93	49.9211	2,731.93	58.7041	2,731.93	56.3594	2,731.93	52.4266	2,731.93	40.45	2,731.93	57.8217	2,731.93	57.5434	2,731.93	61.4118
2,828.61	83.2333	2,828.61	82.8631	2,828.61	82.8747	2,828.61	81.8072	2,828.61	82.4754	2,828.61	81.1835	2,828.61	80.9916	2,828.61	79.3262	2,828.61	79.6602	2,828.61	77.9727	2,828.61	77.4789	2,828.61	76.5575	2,828.61	75.5854	2,828.61	74.4487	2,828.61	73.2645	2,828.61	71.0996	2,828.61	69.831	2,828.61	67.5812	2,828.61	66.6197	2,828.61	66.3652	2,828.61	64.2724	2,828.61	60.881	2,828.61	62.872	2,828.61	63.367	2,828.61	64.1775	2,828.61	58.6361	2,828.61	61.5843	2,828.61	49.9863	2,828.61	55.6624	2,828.61	59.5889	2,828.61	55.9012	2,828.61	55.3634	2,828.61	55.0255	2,828.61	58.8147	2,828.61	59.9715	2,828.61	59.5969
2,928.22	82.8527	2,928.22	82.6918	2,928.22	82.4519	2,928.22	81.7169	2,928.22	82.234	2,928.22	80.8784	2,928.22	80.8082	2,928.22	79.1464	2,928.22	79.5167	2,928.22	77.5913	2,928.22	78.0141	2,928.22	76.4375	2,928.22	75.6563	2,928.22	74.933	2,928.22	73.2922	2,928.22	69.8954	2,928.22	69.6928	2,928.22	69.9757	2,928.22	68.5527	2,928.22	66.3634	2,928.22	65.043	2,928.22	60.5613	2,928.22	62.283	2,928.22	61.9186	2,928.22	60.7177	2,928.22	60.4985	2,928.22	62.8992	2,928.22	56.2195	2,928.22	49.962	2,928.22	60.4652	2,928.22	59.9509	2,928.22	55.0487	2,928.22	56.1652	2,928.22	63.2528	2,928.22	57.884	2,928.22	65.0832
3,030.76	83.0543	3,030.76	83.0225	3,030.76	82.4312	3,030.76	82.7347	3,030.76	82.5762	3,030.76	81.9905	3,030.76	81.8058	3,030.76	80.4336	3,030.76	80.1991	3,030.76	77.4753	3,030.76	78.6491	3,030.76	76.8834	3,030.76	77.2622	3,030.76	74.213	3,030.76	74.3794	3,030.76	69.3032	3,030.76	71.5566	3,030.76	70.3032	3,030.76	69.4036	3,030.76	67.7285	3,030.76	68.3858	3,030.76	62.0242	3,030.76	62.4062	3,030.76	60.3024	3,030.76	61.7636	3,030.76	63.769	3,030.76	62.9238	3,030.76	57.2152	3,030.76	58.4582	3,030.76	62.1971	3,030.76	61.1013	3,030.76	57.759	3,030.76	56.6306	3,030.76	60.5355	3,030.76	60.6203	3,030.76	65.4781
3,137.7	83.2137	3,137.7	82.9959	3,137.7	83.2501	3,137.7	83.1226	3,137.7	82.8529	3,137.7	82.7487	3,137.7	82.7469	3,137.7	81.2595	3,137.7	81.3912	3,137.7	79.1336	3,137.7	79.7829	3,137.7	77.3839	3,137.7	78.1861	3,137.7	74.4108	3,137.7	76.0677	3,137.7	72.333	3,137.7	73.7507	3,137.7	70.9938	3,137.7	71.5108	3,137.7	69.7732	3,137.7	70.0096	3,137.7	65.8342	3,137.7	64.9106	3,137.7	61.8753	3,137.7	63.6345	3,137.7	65.7841	3,137.7	64.2401	3,137.7	58.8776	3,137.7	61.3632	3,137.7	61.7559	3,137.7	61.7893	3,137.7	61.0784	3,137.7	59.8488	3,137.7	61.0517	3,137.7	62.2294	3,137.7	66.4648
3,249.02	82.1904	3,249.02	81.991	3,249.02	82.7549	3,249.02	82.5438	3,249.02	82.5474	3,249.02	82.3482	3,249.02	82.5705	3,249.02	81.4222	3,249.02	81.6152	3,249.02	80.7553	3,249.02	80.4186	3,249.02	78.5413	3,249.02	78.1502	3,249.02	76.6012	3,249.02	76.315	3,249.02	74.8672	3,249.02	74.3939	3,249.02	72.7172	3,249.02	72.6286	3,249.02	70.256	3,249.02	70.4163	3,249.02	66.5835	3,249.02	66.6297	3,249.02	63.8786	3,249.02	63.6087	3,249.02	66.9888	3,249.02	66.6418	3,249.02	60.6928	3,249.02	63.2577	3,249.02	64.1697	3,249.02	61.6953	3,249.02	63.2267	3,249.02	60.0764	3,249.02	62.7134	3,249.02	59.5643	3,249.02	67.9437
3,363.28	82.1387	3,363.28	82.0886	3,363.28	82.631	3,363.28	82.3943	3,363.28	82.4265	3,363.28	82.4613	3,363.28	82.5081	3,363.28	81.9136	3,363.28	82.04	3,363.28	81.1841	3,363.28	80.9336	3,363.28	79.0861	3,363.28	79.3986	3,363.28	77.1734	3,363.28	77.6163	3,363.28	75.5773	3,363.28	75.6125	3,363.28	73.2535	3,363.28	73.7753	3,363.28	70.9515	3,363.28	71.2725	3,363.28	68.435	3,363.28	68.0668	3,363.28	61.6079	3,363.28	64.6856	3,363.28	67.1267	3,363.28	67.1705	3,363.28	64.4943	3,363.28	66.9752	3,363.28	62.5844	3,363.28	64.7536	3,363.28	63.6995	3,363.28	64.1124	3,363.28	63.7395	3,363.28	62.7931	3,363.28	68.1242
3,481.93	82.2229	3,481.93	82.8053	3,481.93	82.1657	3,481.93	82.7554	3,481.93	82.9981	3,481.93	82.9078	3,481.93	82.9384	3,481.93	82.7783	3,481.93	82.7621	3,481.93	82.2657	3,481.93	81.5013	3,481.93	80.915	3,481.93	80.2436	3,481.93	79.1024	3,481.93	78.5048	3,481.93	76.9451	3,481.93	76.3187	3,481.93	74.0542	3,481.93	73.9341	3,481.93	71.75	3,481.93	72.1631	3,481.93	70.562	3,481.93	70.1123	3,481.93	66.6326	3,481.93	66.4634	3,481.93	65.3418	3,481.93	68.0217	3,481.93	66.5054	3,481.93	67.8945	3,481.93	65.8029	3,481.93	64.0889	3,481.93	66.6458	3,481.93	65.7666	3,481.93	63.1202	3,481.93	63.1843	3,481.93	67.4149
3,604.98	81.4336	3,604.98	81.7708	3,604.98	81.84	3,604.98	82.6078	3,604.98	82.1853	3,604.98	82.6806	3,604.98	82.3563	3,604.98	82.5068	3,604.98	82.2704	3,604.98	81.7938	3,604.98	81.5112	3,604.98	80.8773	3,604.98	80.5401	3,604.98	79.5901	3,604.98	78.9771	3,604.98	77.1647	3,604.98	75.8817	3,604.98	74.1558	3,604.98	74.2105	3,604.98	72.1093	3,604.98	72.2788	3,604.98	71.7355	3,604.98	70.0852	3,604.98	67.7284	3,604.98	67.22	3,604.98	66.6511	3,604.98	67.0256	3,604.98	67.0255	3,604.98	67.1833	3,604.98	65.1887	3,604.98	65.5446	3,604.98	66.7347	3,604.98	67.0968	3,604.98	61.7166	3,604.98	62.6162	3,604.98	68.0346
3,732.42	82.0155	3,732.42	82.4437	3,732.42	81.4316	3,732.42	83.0529	3,732.42	82.2925	3,732.42	82.8911	3,732.42	82.4745	3,732.42	83.4534	3,732.42	81.9757	3,732.42	81.8547	3,732.42	81.2008	3,732.42	80.4753	3,732.42	80.7797	3,732.42	79.3218	3,732.42	79.1757	3,732.42	77.3356	3,732.42	76.639	3,732.42	74.5429	3,732.42	74.0661	3,732.42	72.4629	3,732.42	72.1459	3,732.42	71.4281	3,732.42	70.1397	3,732.42	66.4855	3,732.42	68.2662	3,732.42	68.3775	3,732.42	66.8216	3,732.42	67.0673	3,732.42	67.9043	3,732.42	63.2049	3,732.42	65.7258	3,732.42	67.2507	3,732.42	68.4294	3,732.42	62.9792	3,732.42	63.8327	3,732.42	68.5282
3,864.26	82.6463	3,864.26	82.251	3,864.26	82.3991	3,864.26	81.885	3,864.26	81.9097	3,864.26	82.5148	3,864.26	81.9974	3,864.26	82.1817	3,864.26	81.7862	3,864.26	81.4877	3,864.26	81.2363	3,864.26	79.9418	3,864.26	80.5743	3,864.26	78.2349	3,864.26	78.8741	3,864.26	77.0106	3,864.26	76.1499	3,864.26	73.3164	3,864.26	73.549	3,864.26	73.3138	3,864.26	72.0751	3,864.26	68.6921	3,864.26	70.5206	3,864.26	67.5512	3,864.26	68.6268	3,864.26	65.7692	3,864.26	65.1593	3,864.26	64.3772	3,864.26	68.2329	3,864.26	64.5571	3,864.26	63.7446	3,864.26	67.1454	3,864.26	67.2695	3,864.26	64.8155	3,864.26	63.2808	3,864.26	68.7381
4,000.49	82.7515	4,000.49	82.056	4,000.49	82.9299	4,000.49	82.0627	4,000.49	81.3638	4,000.49	81.798	4,000.49	81.6186	4,000.49	81.5466	4,000.49	81.6444	4,000.49	81.2164	4,000.49	81.662	4,000.49	80.1523	4,000.49	80.2506	4,000.49	78.0947	4,000.49	78.0909	4,000.49	76.7449	4,000.49	77.3161	4,000.49	74.1848	4,000.49	74.6054	4,000.49	71.8346	4,000.49	71.0902	4,000.49	68.0722	4,000.49	69.2279	4,000.49	67.3342	4,000.49	64.854	4,000.49	64.5	4,000.49	66.1407	4,000.49	67.4547	4,000.49	68.0482	4,000.49	61.3982	4,000.49	65.0861	4,000.49	66.7921	4,000.49	65.887	4,000.49	60.6952	4,000.49	62.6334	4,000.49	69.3914
4,141.11	82.134	4,141.11	82.0027	4,141.11	82.1445	4,141.11	81.4286	4,141.11	82.1287	4,141.11	81.1352	4,141.11	81.8781	4,141.11	81.0307	4,141.11	82.8258	4,141.11	80.5535	4,141.11	82.5038	4,141.11	79.8639	4,141.11	80.1471	4,141.11	77.0221	4,141.11	77.3694	4,141.11	74.4564	4,141.11	76.5683	4,141.11	72.9448	4,141.11	73.0946	4,141.11	69.6582	4,141.11	70.1634	4,141.11	71.6616	4,141.11	69.6081	4,141.11	65.3248	4,141.11	67.8496	4,141.11	66.647	4,141.11	64.2249	4,141.11	68.2649	4,141.11	65.6859	4,141.11	58.689	4,141.11	60.5854	4,141.11	65.8217	4,141.11	65.7865	4,141.11	59.3999	4,141.11	62.2176	4,141.11	67.7438
4,287.6	82.5187	4,287.6	82.7862	4,287.6	81.5758	4,287.6	80.8441	4,287.6	81.1747	4,287.6	81.6888	4,287.6	81.3228	4,287.6	82.3641	4,287.6	81.633	4,287.6	81.0694	4,287.6	81.1175	4,287.6	79.6899	4,287.6	78.7696	4,287.6	77.5089	4,287.6	77.4663	4,287.6	74.9264	4,287.6	75.6864	4,287.6	74.5787	4,287.6	72.8731	4,287.6	70.7992	4,287.6	69.9643	4,287.6	67.0262	4,287.6	68.8415	4,287.6	67.6172	4,287.6	64.2393	4,287.6	57.6833	4,287.6	66.4899	4,287.6	66.1013	4,287.6	68.0521	4,287.6	60.2168	4,287.6	61.7829	4,287.6	66.8682	4,287.6	66.1375	4,287.6	60.0205	4,287.6	58.6227	4,287.6	64.88
4,438.48	83.4627	4,438.48	82.6037	4,438.48	82.7411	4,438.48	82.7317	4,438.48	81.5605	4,438.48	81.4719	4,438.48	82.3151	4,438.48	81.3815	4,438.48	80.9091	4,438.48	81.2538	4,438.48	79.3305	4,438.48	77.9184	4,438.48	79.8741	4,438.48	75.3048	4,438.48	78.3867	4,438.48	73.5804	4,438.48	73.3454	4,438.48	70.5745	4,438.48	73.9672	4,438.48	70.1602	4,438.48	71.237	4,438.48	65.1794	4,438.48	68.7207	4,438.48	65.7697	4,438.48	63.8542	4,438.48	65.7039	4,438.48	65.1753	4,438.48	65.047	4,438.48	66.026	4,438.48	59.0579	4,438.48	63.6217	4,438.48	62.8561	4,438.48	66.2117	4,438.48	62.5892	4,438.48	61.5654	4,438.48	67.1017
4,595.21	83.8817	4,595.21	83.9737	4,595.21	82.7302	4,595.21	82.8578	4,595.21	82.1701	4,595.21	82.2282	4,595.21	80.4535	4,595.21	80.477	4,595.21	81.3822	4,595.21	79.6969	4,595.21	80.7509	4,595.21	79.591	4,595.21	78.5188	4,595.21	78.2243	4,595.21	77.2787	4,595.21	73.5762	4,595.21	75.7205	4,595.21	71.4189	4,595.21	72.4678	4,595.21	65.9756	4,595.21	69.1332	4,595.21	70.6413	4,595.21	67.1732	4,595.21	67.2139	4,595.21	66.2088	4,595.21	69.0914	4,595.21	63.0115	4,595.21	64.6057	4,595.21	64.3463	4,595.21	65.7845	4,595.21	64.8861	4,595.21	63.5337	4,595.21	64.8022	4,595.21	58.8268	4,595.21	63.1968	4,595.21	68.3012
4,756.35	85.3393	4,756.35	84.9212	4,756.35	84.8228	4,756.35	82.8229	4,756.35	83.6964	4,756.35	82.3929	4,756.35	82.3352	4,756.35	80.982	4,756.35	81.997	4,756.35	79.3429	4,756.35	81.5244	4,756.35	77.4237	4,756.35	79.1135	4,756.35	75.3062	4,756.35	75.7009	4,756.35	72.2527	4,756.35	73.6569	4,756.35	74.0663	4,756.35	72.6281	4,756.35	72.1949	4,756.35	70.5661	4,756.35	65.8027	4,756.35	69.2276	4,756.35	63.065	4,756.35	65.0358	4,756.35	65.8219	4,756.35	58.5048	4,756.35	65.7413	4,756.35	63.3299	4,756.35	61.9975	4,756.35	62.9885	4,756.35	61.9671	4,756.35	65.1131	4,756.35	61.3942	4,756.35	61.7728	4,756.35	64.987
4,924.8	85.5878	4,924.8	84.5563	4,924.8	85.578	4,924.8	83.2245	4,924.8	83.7185	4,924.8	81.3231	4,924.8	83.0385	4,924.8	80.8035	4,924.8	80.5274	4,924.8	80.0709	4,924.8	78.187	4,924.8	78.3802	4,924.8	76.7631	4,924.8	75.1085	4,924.8	75.285	4,924.8	75.9303	4,924.8	72.7479	4,924.8	70.8087	4,924.8	71.8308	4,924.8	75.2527	4,924.8	70.8159	4,924.8	69.9066	4,924.8	66.2297	4,924.8	64.7744	4,924.8	65.7353	4,924.8	62.278	4,924.8	62.9313	4,924.8	63.0131	4,924.8	61.3972	4,924.8	62.3228	4,924.8	60.8922	4,924.8	63.6385	4,924.8	65.3211	4,924.8	63.2593	4,924.8	61.1379	4,924.8	64.9976
5,097.66	85.487	5,097.66	84.5448	5,097.66	85.5218	5,097.66	83.6022	5,097.66	83.7491	5,097.66	81.5598	5,097.66	82.3536	5,097.66	80.6041	5,097.66	80.2939	5,097.66	79.1616	5,097.66	78.5874	5,097.66	78.2298	5,097.66	76.2891	5,097.66	76.3134	5,097.66	75.4253	5,097.66	76.0751	5,097.66	74.1706	5,097.66	71.5787	5,097.66	70.2618	5,097.66	68.8208	5,097.66	69.7956	5,097.66	66.9665	5,097.66	67.2153	5,097.66	65.6942	5,097.66	64.5922	5,097.66	64.9195	5,097.66	58.0083	5,097.66	54.9859	5,097.66	53.8134	5,097.66	65.9777	5,097.66	62.4193	5,097.66	63.7689	5,097.66	61.3864	5,097.66	59.5504	5,097.66	61.6273	5,097.66	60.6995
5,277.83	84.4733	5,277.83	83.3899	5,277.83	83.4267	5,277.83	81.526	5,277.83	82.8706	5,277.83	80.5048	5,277.83	80.9106	5,277.83	78.4863	5,277.83	80.4915	5,277.83	77.3735	5,277.83	80.0434	5,277.83	76.7192	5,277.83	78.419	5,277.83	77.1388	5,277.83	76.4251	5,277.83	73.3072	5,277.83	74.2706	5,277.83	73.2895	5,277.83	70.1283	5,277.83	65.3454	5,277.83	69.6964	5,277.83	66.5839	5,277.83	68.274	5,277.83	64.2337	5,277.83	64.2392	5,277.83	64.0455	5,277.83	62.0691	5,277.83	62.4884	5,277.83	60.2531	5,277.83	64.6788	5,277.83	56.7858	5,277.83	61.5095	5,277.83	58.1916	5,277.83	59.3248	5,277.83	55.162	5,277.83	63.0182
5,463.87	83.6616	5,463.87	83.3774	5,463.87	83.4004	5,463.87	81.9326	5,463.87	82.4079	5,463.87	80.8963	5,463.87	82.2378	5,463.87	80.1338	5,463.87	80.6404	5,463.87	79.1277	5,463.87	79.3167	5,463.87	77.8198	5,463.87	79.2305	5,463.87	76.2407	5,463.87	77.9023	5,463.87	74.0527	5,463.87	72.2631	5,463.87	72.7917	5,463.87	72.042	5,463.87	72.1231	5,463.87	68.7833	5,463.87	66.8627	5,463.87	64.9597	5,463.87	64.1066	5,463.87	67.1003	5,463.87	58.6104	5,463.87	61.7301	5,463.87	58.8809	5,463.87	62.0507	5,463.87	54.5461	5,463.87	59.7649	5,463.87	50.5943	5,463.87	51.0162	5,463.87	63.3205	5,463.87	60.5843	5,463.87	64.8288
5,657.23	83.5318	5,657.23	83.6471	5,657.23	83.7	5,657.23	82.7626	5,657.23	82.9181	5,657.23	82.485	5,657.23	82.4608	5,657.23	82.0269	5,657.23	81.8473	5,657.23	80.7222	5,657.23	81.1232	5,657.23	79.6358	5,657.23	79.6896	5,657.23	75.8752	5,657.23	76.7959	5,657.23	75.3195	5,657.23	77.1212	5,657.23	69.8883	5,657.23	73.5202	5,657.23	71.0106	5,657.23	70.9352	5,657.23	67.7931	5,657.23	69.0238	5,657.23	66.5122	5,657.23	66.2093	5,657.23	62.1254	5,657.23	61.9459	5,657.23	60.7787	5,657.23	59.2445	5,657.23	61.4739	5,657.23	59.1727	5,657.23	53.1399	5,657.23	53.8789	5,657.23	54.2829	5,657.23	58.7492	5,657.23	64.2289
5,856.45	84.1582	5,856.45	83.5321	5,856.45	83.4955	5,856.45	83.457	5,856.45	83.941	5,856.45	82.4271	5,856.45	82.1984	5,856.45	81.7019	5,856.45	82.2126	5,856.45	80.8072	5,856.45	82.4248	5,856.45	79.9273	5,856.45	81.0245	5,856.45	79.4301	5,856.45	80.3349	5,856.45	74.91	5,856.45	77.6104	5,856.45	73.6819	5,856.45	74.5583	5,856.45	66.5184	5,856.45	71.4954	5,856.45	69.0848	5,856.45	69.76	5,856.45	66.1722	5,856.45	68.4165	5,856.45	64.5009	5,856.45	62.3815	5,856.45	62.724	5,856.45	64.5825	5,856.45	63.0833	5,856.45	62.6578	5,856.45	53.4345	5,856.45	51.1093	5,856.45	57.677	5,856.45	59.339	5,856.45	64.5012
6,062.99	82.8425	6,062.99	82.7063	6,062.99	83.4747	6,062.99	82.4547	6,062.99	82.7359	6,062.99	81.9755	6,062.99	82.8072	6,062.99	80.561	6,062.99	81.2923	6,062.99	81.0848	6,062.99	80.6062	6,062.99	79.0976	6,062.99	80.239	6,062.99	78.9323	6,062.99	78.5114	6,062.99	73.8059	6,062.99	75.4183	6,062.99	72.9139	6,062.99	73.6895	6,062.99	70.4782	6,062.99	70.9871	6,062.99	67.9916	6,062.99	69.1999	6,062.99	66.8018	6,062.99	66.0473	6,062.99	62.7216	6,062.99	65.9971	6,062.99	62.6716	6,062.99	66.0588	6,062.99	58.3145	6,062.99	61.4037	6,062.99	51.9737	6,062.99	53.3118	6,062.99	57.8345	6,062.99	58.5685	6,062.99	62.3174
6,276.86	82.604	6,276.86	83.6271	6,276.86	83.6265	6,276.86	83.7014	6,276.86	82.8038	6,276.86	82.7202	6,276.86	82.2304	6,276.86	82.4498	6,276.86	82.7115	6,276.86	81.7315	6,276.86	82.0764	6,276.86	80.6319	6,276.86	79.6807	6,276.86	75.5244	6,276.86	76.2842	6,276.86	76.3366	6,276.86	76.4846	6,276.86	72.2031	6,276.86	73.3194	6,276.86	71.2836	6,276.86	71.014	6,276.86	69.4385	6,276.86	68.6508	6,276.86	65.9705	6,276.86	65.2638	6,276.86	64.0056	6,276.86	64.5184	6,276.86	61.1631	6,276.86	62.5443	6,276.86	57.056	6,276.86	61.1202	6,276.86	51.0568	6,276.86	58.6286	6,276.86	58.2678	6,276.86	58.1723	6,276.86	60.7942
6,498.05	82.8268	6,498.05	83.62	6,498.05	82.7727	6,498.05	83.2403	6,498.05	83.6898	6,498.05	82.7295	6,498.05	82.6348	6,498.05	82.7318	6,498.05	82.5019	6,498.05	82.5937	6,498.05	83.1545	6,498.05	81.4181	6,498.05	81.3292	6,498.05	78.9754	6,498.05	80.0796	6,498.05	76.7465	6,498.05	77.2206	6,498.05	73.9831	6,498.05	73.3647	6,498.05	70.2416	6,498.05	73.3111	6,498.05	67.9211	6,498.05	69.3922	6,498.05	65.0088	6,498.05	65.987	6,498.05	68.0336	6,498.05	66.4233	6,498.05	56.7831	6,498.05	61.3491	6,498.05	58.5137	6,498.05	59.0347	6,498.05	48.0885	6,498.05	49.976	6,498.05	59.8441	6,498.05	58.6483	6,498.05	64.0329
6,726.56	81.7107	6,726.56	82.1004	6,726.56	82.9917	6,726.56	82.5864	6,726.56	82.4797	6,726.56	83.0033	6,726.56	83.2172	6,726.56	82.555	6,726.56	82.6958	6,726.56	82.7073	6,726.56	82.4963	6,726.56	80.1371	6,726.56	81.7376	6,726.56	78.5807	6,726.56	79.3904	6,726.56	76.5042	6,726.56	76.8267	6,726.56	73.2378	6,726.56	73.5588	6,726.56	71.0331	6,726.56	71.4726	6,726.56	66.1552	6,726.56	68.6762	6,726.56	65.1291	6,726.56	68.2698	6,726.56	64.9111	6,726.56	67.1324	6,726.56	62.7936	6,726.56	63.5563	6,726.56	61.0472	6,726.56	60.1454	6,726.56	54.6174	6,726.56	58.528	6,726.56	57.1474	6,726.56	59.1425	6,726.56	62.8282
6,963.87	82.1604	6,963.87	82.3657	6,963.87	81.4963	6,963.87	82.9743	6,963.87	83.259	6,963.87	82.6453	6,963.87	82.5812	6,963.87	83.3844	6,963.87	83.4338	6,963.87	81.609	6,963.87	83.1255	6,963.87	81.7053	6,963.87	81.5709	6,963.87	79.3012	6,963.87	79.4317	6,963.87	76.0977	6,963.87	76.2592	6,963.87	73.4181	6,963.87	73.971	6,963.87	70.8935	6,963.87	70.4784	6,963.87	68.9544	6,963.87	68.4884	6,963.87	67.1345	6,963.87	67.6365	6,963.87	65.1488	6,963.87	63.8714	6,963.87	62.6347	6,963.87	60.4315	6,963.87	58.38	6,963.87	58.4324	6,963.87	56.053	6,963.87	58.2478	6,963.87	57.4074	6,963.87	60.6735	6,963.87	62.7642
7,209.96	81.8494	7,209.96	82.5268	7,209.96	82.948	7,209.96	82.6022	7,209.96	83.3052	7,209.96	83.945	7,209.96	83.4055	7,209.96	84.2692	7,209.96	83.3649	7,209.96	83.622	7,209.96	83.3273	7,209.96	81.5591	7,209.96	82.0647	7,209.96	79.9149	7,209.96	80.3477	7,209.96	76.2531	7,209.96	76.928	7,209.96	74.5059	7,209.96	74.1701	7,209.96	70.9425	7,209.96	70.5509	7,209.96	70.0702	7,209.96	69.761	7,209.96	67.655	7,209.96	66.423	7,209.96	66.5752	7,209.96	65.877	7,209.96	61.4476	7,209.96	63.5007	7,209.96	60.8837	7,209.96	62.5111	7,209.96	58.7262	7,209.96	60.3186	7,209.96	60.26	7,209.96	58.975	7,209.96	61.9902
7,464.84	82.3615	7,464.84	82.4474	7,464.84	83.1872	7,464.84	83.7418	7,464.84	83.3359	7,464.84	84.6895	7,464.84	84.367	7,464.84	84.0164	7,464.84	83.7833	7,464.84	83.241	7,464.84	82.4775	7,464.84	80.7578	7,464.84	81.3842	7,464.84	78.9099	7,464.84	78.9788	7,464.84	76.7982	7,464.84	77.1915	7,464.84	74.0416	7,464.84	74.1946	7,464.84	71.4334	7,464.84	70.9651	7,464.84	68.9668	7,464.84	69.1953	7,464.84	66.5458	7,464.84	66.3831	7,464.84	65.6052	7,464.84	66.9605	7,464.84	63.4377	7,464.84	62.9344	7,464.84	63.8404	7,464.84	63.3955	7,464.84	60.4413	7,464.84	60.7987	7,464.84	61.4474	7,464.84	59.4785	7,464.84	60.7831
7,727.05	82.9625	7,727.05	82.3239	7,727.05	82.3504	7,727.05	83.8125	7,727.05	83.297	7,727.05	84.8109	7,727.05	83.8667	7,727.05	83.5444	7,727.05	83.7339	7,727.05	81.5537	7,727.05	82.5972	7,727.05	81.0926	7,727.05	80.4964	7,727.05	78.2661	7,727.05	78.1941	7,727.05	76.2705	7,727.05	76.2081	7,727.05	72.2235	7,727.05	72.8745	7,727.05	70.5107	7,727.05	70.7483	7,727.05	67.7768	7,727.05	68.5852	7,727.05	67.0034	7,727.05	66.6637	7,727.05	65.5294	7,727.05	65.8932	7,727.05	62.8644	7,727.05	63.3108	7,727.05	61.4529	7,727.05	59.0298	7,727.05	59.09	7,727.05	52.08	7,727.05	59.2812	7,727.05	62.1189	7,727.05	59.1006
7,999.51	82.483	7,999.51	82.1081	7,999.51	82.3663	7,999.51	83.8807	7,999.51	83.3313	7,999.51	84.2973	7,999.51	84.3725	7,999.51	82.2654	7,999.51	82.1562	7,999.51	81.5018	7,999.51	81.5482	7,999.51	80.2921	7,999.51	80.143	7,999.51	77.9129	7,999.51	78.7289	7,999.51	75.9977	7,999.51	76.6316	7,999.51	71.3884	7,999.51	71.8153	7,999.51	70.3717	7,999.51	70.5668	7,999.51	65.7467	7,999.51	66.4765	7,999.51	65.4969	7,999.51	65.6428	7,999.51	64.2209	7,999.51	66.2085	7,999.51	62.3581	7,999.51	63.3368	7,999.51	64.8055	7,999.51	62.9257	7,999.51	55.6345	7,999.51	53.477	7,999.51	56.3056	7,999.51	59.9302	7,999.51	58.4772
8,282.23	82.1688	8,282.23	82.008	8,282.23	81.7456	8,282.23	83.0161	8,282.23	82.9962	8,282.23	83.5642	8,282.23	83.5974	8,282.23	81.8221	8,282.23	81.8923	8,282.23	81.065	8,282.23	81.5049	8,282.23	79.9076	8,282.23	80.8327	8,282.23	77.1541	8,282.23	78.5552	8,282.23	74.3383	8,282.23	75.0191	8,282.23	71.849	8,282.23	71.0336	8,282.23	68.2096	8,282.23	68.6461	8,282.23	64.415	8,282.23	65.8793	8,282.23	64.9691	8,282.23	66.3225	8,282.23	62.5502	8,282.23	65.0062	8,282.23	58.7194	8,282.23	60.2265	8,282.23	63.2167	8,282.23	59.4056	8,282.23	56.1929	8,282.23	59.7553	8,282.23	56.4269	8,282.23	58.2637	8,282.23	59.7322
8,573.73	82.302	8,573.73	82.7021	8,573.73	82.0345	8,573.73	83.8992	8,573.73	83.8915	8,573.73	83.956	8,573.73	83.2272	8,573.73	82.4287	8,573.73	81.7965	8,573.73	81.295	8,573.73	81.1157	8,573.73	79.6843	8,573.73	80.074	8,573.73	77.8742	8,573.73	77.6569	8,573.73	72.9095	8,573.73	72.5526	8,573.73	71.2338	8,573.73	70.9938	8,573.73	68.432	8,573.73	66.9791	8,573.73	65.8474	8,573.73	65.4659	8,573.73	65.4881	8,573.73	62.9709	8,573.73	62.7257	8,573.73	54.0521	8,573.73	59.6165	8,573.73	59.1807	8,573.73	62.6986	8,573.73	63.4447	8,573.73	59.7716	8,573.73	58.5866	8,573.73	56.361	8,573.73	59.2549	8,573.73	61.1955
8,876.95	83.1696	8,876.95	83.0642	8,876.95	83.1794	8,876.95	83.8576	8,876.95	83.648	8,876.95	83.7022	8,876.95	83.1114	8,876.95	82.1083	8,876.95	81.3755	8,876.95	81.4531	8,876.95	81.0456	8,876.95	79.4005	8,876.95	78.9474	8,876.95	76.8023	8,876.95	75.647	8,876.95	74.2983	8,876.95	72.5125	8,876.95	72.4531	8,876.95	70.5518	8,876.95	69.0173	8,876.95	67.9689	8,876.95	67.5872	8,876.95	65.5801	8,876.95	65.8679	8,876.95	64.6874	8,876.95	63.9438	8,876.95	57.6866	8,876.95	62.3711	8,876.95	60.5574	8,876.95	61.2076	8,876.95	62.9653	8,876.95	58.8612	8,876.95	58.9822	8,876.95	58.6788	8,876.95	54.7854	8,876.95	60.0029
9,188.96	83.1556	9,188.96	83.7	9,188.96	83.4312	9,188.96	83.9858	9,188.96	83.9661	9,188.96	82.9949	9,188.96	81.9195	9,188.96	82.2573	9,188.96	80.3988	9,188.96	81.4073	9,188.96	79.8387	9,188.96	79.5408	9,188.96	77.392	9,188.96	77.5105	9,188.96	75.2923	9,188.96	75.7631	9,188.96	73.9537	9,188.96	71.7666	9,188.96	70.3731	9,188.96	69.6144	9,188.96	67.2784	9,188.96	66.597	9,188.96	65.8912	9,188.96	65.783	9,188.96	64.255	9,188.96	64.4833	9,188.96	58.331	9,188.96	64.1298	9,188.96	61.7655	9,188.96	62.5517	9,188.96	64.058	9,188.96	58.3126	9,188.96	58.6573	9,188.96	59.9693	9,188.96	58.029	9,188.96	60.3491
9,514.16	82.3036	9,514.16	83.2295	9,514.16	83.4615	9,514.16	82.1125	9,514.16	82.1958	9,514.16	82.3114	9,514.16	81.4731	9,514.16	81.9734	9,514.16	80.5781	9,514.16	80.8695	9,514.16	78.5577	9,514.16	79.2688	9,514.16	76.7176	9,514.16	77.594	9,514.16	75.606	9,514.16	75.8241	9,514.16	74.692	9,514.16	72.0999	9,514.16	70.7815	9,514.16	70.7795	9,514.16	67.6894	9,514.16	67.4981	9,514.16	65.6588	9,514.16	64.1912	9,514.16	63.6153	9,514.16	62.0875	9,514.16	61.2295	9,514.16	63.0323	9,514.16	61.8914	9,514.16	62.7029	9,514.16	63.1553	9,514.16	57.9164	9,514.16	59.2319	9,514.16	59.931	9,514.16	57.6547	9,514.16	59.2972
9,849.61	82.4119	9,849.61	83.3886	9,849.61	83.2085	9,849.61	81.4779	9,849.61	81.2847	9,849.61	82.1745	9,849.61	81.0335	9,849.61	81.8189	9,849.61	80.0272	9,849.61	79.8333	9,849.61	77.7947	9,849.61	79.1135	9,849.61	77.1172	9,849.61	77.8491	9,849.61	76.1047	9,849.61	75.7967	9,849.61	74.6702	9,849.61	71.9381	9,849.61	70.9871	9,849.61	69.2588	9,849.61	68.1407	9,849.61	66.0751	9,849.61	65.0571	9,849.61	64.9389	9,849.61	62.3404	9,849.61	60.2303	9,849.61	59.1627	9,849.61	62.8316	9,849.61	61.3192	9,849.61	63.8009	9,849.61	61.6838	9,849.61	58.0749	9,849.61	58.9222	9,849.61	57.9507	9,849.61	58.1177	9,849.61	56.6035
10,196.8	82.622	10,196.8	83.004	10,196.8	83.2676	10,196.8	80.9766	10,196.8	80.6291	10,196.8	81.9689	10,196.8	81.1865	10,196.8	81.1096	10,196.8	79.6705	10,196.8	79.9409	10,196.8	77.7279	10,196.8	79.1652	10,196.8	77.8755	10,196.8	77.8481	10,196.8	76.5899	10,196.8	74.1704	10,196.8	74.4172	10,196.8	70.7145	10,196.8	70.4207	10,196.8	68.5123	10,196.8	67.2117	10,196.8	66.3102	10,196.8	63.9791	10,196.8	63.1565	10,196.8	62.0837	10,196.8	60.6737	10,196.8	57.6427	10,196.8	60.5788	10,196.8	59.6877	10,196.8	61.898	10,196.8	60.1585	10,196.8	57.5185	10,196.8	56.8481	10,196.8	55.8263	10,196.8	53.9899	10,196.8	57.2027
10,555.7	83.1512	10,555.7	83.0684	10,555.7	82.8839	10,555.7	80.7797	10,555.7	80.8654	10,555.7	81.7428	10,555.7	81.1661	10,555.7	80.588	10,555.7	79.621	10,555.7	79.528	10,555.7	78.3332	10,555.7	78.745	10,555.7	77.4422	10,555.7	76.4405	10,555.7	75.9886	10,555.7	73.3069	10,555.7	73.3728	10,555.7	69.1183	10,555.7	69.0635	10,555.7	66.7512	10,555.7	64.6551	10,555.7	63.7529	10,555.7	64.5622	10,555.7	61.2948	10,555.7	60.9714	10,555.7	59.97	10,555.7	56.8519	10,555.7	58.6439	10,555.7	58.4223	10,555.7	60.4184	10,555.7	60.5574	10,555.7	55.7113	10,555.7	57.6848	10,555.7	57.03	10,555.7	55.3458	10,555.7	55.2984
10,927.7	83.8062	10,927.7	82.5495	10,927.7	82.6665	10,927.7	80.7349	10,927.7	80.9274	10,927.7	81.1684	10,927.7	81.0466	10,927.7	80.5784	10,927.7	79.7304	10,927.7	80.1564	10,927.7	78.9003	10,927.7	77.9496	10,927.7	77.2282	10,927.7	75.3833	10,927.7	75.1326	10,927.7	72.5127	10,927.7	71.2405	10,927.7	68.4239	10,927.7	68.3454	10,927.7	65.6652	10,927.7	63.8276	10,927.7	60.7288	10,927.7	63.7794	10,927.7	60.618	10,927.7	60.182	10,927.7	59.466	10,927.7	60.346	10,927.7	59.7951	10,927.7	58.6254	10,927.7	57.2155	10,927.7	60.4768	10,927.7	51.25	10,927.7	55.898	10,927.7	55.2294	10,927.7	53.6685	10,927.7	53.9631
11,313	83.995	11,313	82.0284	11,313	82.0416	11,313	81.2002	11,313	81.212	11,313	81.046	11,313	80.7011	11,313	80.9134	11,313	79.9902	11,313	79.2028	11,313	78.4441	11,313	76.7899	11,313	76.248	11,313	73.6456	11,313	73.4352	11,313	70.2413	11,313	69.1643	11,313	66.7584	11,313	66.3794	11,313	64.3529	11,313	62.5722	11,313	60.5253	11,313	59.9161	11,313	59.2918	11,313	57.2407	11,313	58.6927	11,313	61.3516	11,313	60.9799	11,313	58.0561	11,313	57.6865	11,313	57.9316	11,313	50.1798	11,313	53.4983	11,313	55.8136	11,313	54.9838	11,313	51.4935
11,712.9	84.0839	11,712.9	81.1909	11,712.9	81.5796	11,712.9	81.2216	11,712.9	81.0609	11,712.9	79.8094	11,712.9	79.5279	11,712.9	80.6511	11,712.9	79.941	11,712.9	78.7251	11,712.9	77.1634	11,712.9	75.7821	11,712.9	74.8161	11,712.9	72.905	11,712.9	72.15	11,712.9	69.8709	11,712.9	68.9806	11,712.9	65.7416	11,712.9	65.4894	11,712.9	65.1079	11,712.9	60.6926	11,712.9	60.881	11,712.9	59.3155	11,712.9	60.3193	11,712.9	57.1079	11,712.9	59.9879	11,712.9	59.4033	11,712.9	59.8206	11,712.9	56.2397	11,712.9	55.391	11,712.9	55.9388	11,712.9	49.8898	11,712.9	49.8041	11,712.9	55.129	11,712.9	53.9267	11,712.9	47.8877
12,126	84.045	12,126	81.5458	12,126	81.273	12,126	80.5067	12,126	80.9219	12,126	79.2736	12,126	79.1618	12,126	79.4244	12,126	79.1802	12,126	77.0497	12,126	75.6706	12,126	74.6057	12,126	71.1396	12,126	73.251	12,126	68.4503	12,126	69.4111	12,126	65.6189	12,126	68.1723	12,126	64.3636	12,126	64.9452	12,126	58.1631	12,126	61.3777	12,126	58.1844	12,126	59.8232	12,126	56.207	12,126	61.1046	12,126	57.6293	12,126	57.4761	12,126	55.1035	12,126	56.4418	12,126	54.5017	12,126	43.6377	12,126	46.1856	12,126	52.0123	12,126	52.5398	12,126	52.421
12,553.7	83.411	12,553.7	81.8494	12,553.7	81.4465	12,553.7	81.1597	12,553.7	80.3386	12,553.7	79.0126	12,553.7	78.0815	12,553.7	78.628	12,553.7	77.2063	12,553.7	76.5849	12,553.7	74.8812	12,553.7	75.2053	12,553.7	72.6193	12,553.7	73.327	12,553.7	71.6631	12,553.7	71.2789	12,553.7	67.5896	12,553.7	68.1427	12,553.7	66.193	12,553.7	63.449	12,553.7	61.0002	12,553.7	62.7401	12,553.7	59.2875	12,553.7	58.7159	12,553.7	57.8568	12,553.7	58.6134	12,553.7	55.0592	12,553.7	57.2713	12,553.7	53.9371	12,553.7	55.3058	12,553.7	53.8323	12,553.7	43.0177	12,553.7	36.7348	12,553.7	55.7839	12,553.7	55.8108	12,553.7	49.6713
12,996.1	82.5049	12,996.1	82.5124	12,996.1	82.2262	12,996.1	81.5627	12,996.1	79.645	12,996.1	79.6551	12,996.1	78.7393	12,996.1	77.7867	12,996.1	75.9486	12,996.1	77.8003	12,996.1	75.7846	12,996.1	76.462	12,996.1	74.5608	12,996.1	75.0043	12,996.1	73.2913	12,996.1	71.7366	12,996.1	71.2948	12,996.1	69.0783	12,996.1	68.2299	12,996.1	64.4953	12,996.1	63.4593	12,996.1	63.0056	12,996.1	61.3243	12,996.1	60.6454	12,996.1	58.3164	12,996.1	59.4635	12,996.1	56.0015	12,996.1	54.09	12,996.1	52.8299	12,996.1	51.6027	12,996.1	47.9817	12,996.1	39.2924	12,996.1	51.3118	12,996.1	53.0085	12,996.1	54.2995	12,996.1	49.8648
13,454.6	81.929	13,454.6	83.3721	13,454.6	83.0659	13,454.6	81.6769	13,454.6	80.5417	13,454.6	80.1652	13,454.6	78.8225	13,454.6	78.1265	13,454.6	77.1533	13,454.6	78.7365	13,454.6	78.0244	13,454.6	77.242	13,454.6	76.3371	13,454.6	75.3217	13,454.6	75.0733	13,454.6	71.3851	13,454.6	71.5054	13,454.6	67.0995	13,454.6	68.1155	13,454.6	65.014	13,454.6	63.6499	13,454.6	61.2302	13,454.6	62.5218	13,454.6	59.3295	13,454.6	57.6677	13,454.6	56.6661	13,454.6	53.2561	13,454.6	54.9994	13,454.6	54.0125	13,454.6	50.3595	13,454.6	46.7994	13,454.6	42.2548	13,454.6	50.0457	13,454.6	51.6287	13,454.6	52.6257	13,454.6	46.131
13,929.2	81.6623	13,929.2	83.4943	13,929.2	83.0917	13,929.2	81.6567	13,929.2	81.4683	13,929.2	79.9463	13,929.2	78.8528	13,929.2	79.0662	13,929.2	78.3838	13,929.2	78.3622	13,929.2	77.8512	13,929.2	76.668	13,929.2	76.5391	13,929.2	73.1186	13,929.2	74.1283	13,929.2	69.2331	13,929.2	70.5644	13,929.2	63.6912	13,929.2	65.3707	13,929.2	62.7697	13,929.2	63.8453	13,929.2	57.4757	13,929.2	58.9013	13,929.2	54.7147	13,929.2	57.5358	13,929.2	53.0052	13,929.2	49.6362	13,929.2	51.8576	13,929.2	53.7398	13,929.2	53.906	13,929.2	48.5176	13,929.2	41.4086	13,929.2	44.2868	13,929.2	43.3342	13,929.2	50.9988	13,929.2	43.9263
14,419.9	82.0801	14,419.9	83.4674	14,419.9	83.0473	14,419.9	81.8646	14,419.9	81.7861	14,419.9	80.2054	14,419.9	79.1258	14,419.9	79.2766	14,419.9	78.5862	14,419.9	77.3577	14,419.9	76.7577	14,419.9	74.7218	14,419.9	75.1202	14,419.9	70.7064	14,419.9	72.1308	14,419.9	66.1864	14,419.9	68.3891	14,419.9	60.1753	14,419.9	63.368	14,419.9	61.2661	14,419.9	59.4726	14,419.9	55.0376	14,419.9	54.7723	14,419.9	55.7476	14,419.9	55.5999	14,419.9	49.3335	14,419.9	51.0527	14,419.9	49.3468	14,419.9	50.5636	14,419.9	50.2331	14,419.9	46.2134	14,419.9	38.2646	14,419.9	46.397	14,419.9	34.9003	14,419.9	45.7051	14,419.9	41.2548
14,928.2	82.4881	14,928.2	83.1753	14,928.2	82.9089	14,928.2	81.8971	14,928.2	81.9756	14,928.2	80.1898	14,928.2	79.1567	14,928.2	78.4986	14,928.2	78.1344	14,928.2	76.318	14,928.2	75.9024	14,928.2	72.267	14,928.2	73.0049	14,928.2	69.6993	14,928.2	69.2831	14,928.2	66.8271	14,928.2	65.6007	14,928.2	62.5796	14,928.2	62.5939	14,928.2	60.273	14,928.2	59.5388	14,928.2	56.6619	14,928.2	56.5648	14,928.2	54.8362	14,928.2	56.6891	14,928.2	53.1	14,928.2	53.7406	14,928.2	50.4754	14,928.2	48.4406	14,928.2	50.8134	14,928.2	49.9539	14,928.2	43.0587	14,928.2	43.1275	14,928.2	46.992	14,928.2	42.3804	14,928.2	37.7821
15,455.6	83.2259	15,455.6	83.0607	15,455.6	83.0568	15,455.6	82.4598	15,455.6	82.474	15,455.6	80.6266	15,455.6	79.9987	15,455.6	78.0786	15,455.6	77.8664	15,455.6	75.4496	15,455.6	75.5134	15,455.6	71.7064	15,455.6	72.4049	15,455.6	70.3281	15,455.6	69.9403	15,455.6	67.2055	15,455.6	66.5107	15,455.6	63.8903	15,455.6	64.0228	15,455.6	58.2636	15,455.6	57.8975	15,455.6	58.2719	15,455.6	57.1505	15,455.6	56.6602	15,455.6	56.9686	15,455.6	51.0475	15,455.6	48.252	15,455.6	51.1483	15,455.6	50.9313	15,455.6	50.9213	15,455.6	52.0622	15,455.6	43.7976	15,455.6	47.5534	15,455.6	51.019	15,455.6	45.0604	15,455.6	42.17
16,000.5	83.7387	16,000.5	82.9356	16,000.5	82.9334	16,000.5	82.9684	16,000.5	82.6212	16,000.5	81.0145	16,000.5	80.6104	16,000.5	77.4382	16,000.5	77.5157	16,000.5	75.428	16,000.5	74.9583	16,000.5	72.977	16,000.5	72.3986	16,000.5	71.1613	16,000.5	70.4699	16,000.5	67.2538	16,000.5	67.5518	16,000.5	63.6527	16,000.5	64.1386	16,000.5	58.8861	16,000.5	58.8305	16,000.5	58.6068	16,000.5	57.0798	16,000.5	54.7855	16,000.5	55.6227	16,000.5	51.15	16,000.5	47.8097	16,000.5	48.937	16,000.5	50.5756	16,000.5	49.068	16,000.5	51.234	16,000.5	49.1	16,000.5	50.4371	16,000.5	52.4455	16,000.5	44.6654	16,000.5	41.6029
16,564.5	83.8922	16,564.5	82.8681	16,564.5	82.891	16,564.5	83.2214	16,564.5	82.6298	16,564.5	80.7048	16,564.5	81.0187	16,564.5	77.2679	16,564.5	77.0353	16,564.5	75.4687	16,564.5	74.3953	16,564.5	73.5741	16,564.5	73.2279	16,564.5	70.6784	16,564.5	71.2375	16,564.5	66.9516	16,564.5	67.0927	16,564.5	62.4624	16,564.5	63.6926	16,564.5	58.5464	16,564.5	59.4094	16,564.5	58.7247	16,564.5	57.0123	16,564.5	53.8976	16,564.5	53.3092	16,564.5	49.7063	16,564.5	34.9179	16,564.5	50.1394	16,564.5	49.7875	16,564.5	47.4666	16,564.5	50.3282	16,564.5	49.2694	16,564.5	50.6525	16,564.5	52.1135	16,564.5	45.1352	16,564.5	42.5679
17,148.9	83.5716	17,148.9	82.9542	17,148.9	82.8703	17,148.9	82.8737	17,148.9	82.3418	17,148.9	80.516	17,148.9	80.6677	17,148.9	77.4588	17,148.9	76.5538	17,148.9	75.4729	17,148.9	73.5561	17,148.9	73.0598	17,148.9	72.9405	17,148.9	69.8817	17,148.9	70.5106	17,148.9	66.9107	17,148.9	66.437	17,148.9	62.2436	17,148.9	62.3847	17,148.9	58.3645	17,148.9	58.1364	17,148.9	57.6413	17,148.9	55.0903	17,148.9	51.9954	17,148.9	53.3917	17,148.9	43.8582	17,148.9	44.3852	17,148.9	48.2623	17,148.9	50.1147	17,148.9	41.4784	17,148.9	49.1952	17,148.9	46.7368	17,148.9	49.6282	17,148.9	51.6808	17,148.9	45.8045	17,148.9	44.4953
17,752.4	83.8262	17,752.4	83.45	17,752.4	83.2885	17,752.4	82.3845	17,752.4	82.3117	17,752.4	80.8275	17,752.4	79.5356	17,752.4	77.6954	17,752.4	75.5258	17,752.4	74.8237	17,752.4	71.9485	17,752.4	71.4787	17,752.4	70.4098	17,752.4	69.0502	17,752.4	68.6386	17,752.4	65.2205	17,752.4	64.3463	17,752.4	60.2265	17,752.4	60.7341	17,752.4	56.0767	17,752.4	54.3132	17,752.4	54.7681	17,752.4	52.9089	17,752.4	48.4763	17,752.4	51.4387	17,752.4	32.6233	17,752.4	46.0622	17,752.4	45.7885	17,752.4	48.5223	17,752.4	34.0431	17,752.4	46.6842	17,752.4	37.7824	17,752.4	45.6491	17,752.4	45.5006	17,752.4	44.3602	17,752.4	43.4872
18,379.4	84.3774	18,379.4	83.6411	18,379.4	83.6227	18,379.4	83.0828	18,379.4	82.3875	18,379.4	80.7883	18,379.4	78.1845	18,379.4	76.9189	18,379.4	72.5964	18,379.4	73.0059	18,379.4	63.9496	18,379.4	68.7936	18,379.4	58.9951	18,379.4	63.8051	18,379.4	60.2498	18,379.4	58.3365	18,379.4	59.2701	18,379.4	55.264	18,379.4	56.0447	18,379.4	48.6679	18,379.4	49.0624	18,379.4	51.6734	18,379.4	45.7302	18,379.4	40.9921	18,379.4	45.0884	18,379.4	38.681	18,379.4	45.6904	18,379.4	44.0181	18,379.4	41.3195	18,379.4	40.0476	18,379.4	38.0444	18,379.4	36.6378	18,379.4	24.6166	18,379.4	29.7851	18,379.4	40.6687	18,379.4	38.0347
19,026.9	82.56	19,026.9	82.2035	19,026.9	81.8609	19,026.9	82.2104	19,026.9	80.4497	19,026.9	80.4152	19,026.9	77.0595	19,026.9	76.9753	19,026.9	71.6031	19,026.9	73.1954	19,026.9	61.9044	19,026.9	68.9255	19,026.9	58.0224	19,026.9	65.4181	19,026.9	57.5551	19,026.9	61.19	19,026.9	59.1522	19,026.9	56.97	19,026.9	53.3962	19,026.9	53.1246	19,026.9	50.8342	19,026.9	53.3623	19,026.9	43.8564	19,026.9	43.6099	19,026.9	43.2997	19,026.9	42.9939	19,026.9	43.4737	19,026.9	41.15	19,026.9	31.0961	19,026.9	37.3802	19,026.9	27.6478	19,026.9	36.7858	19,026.9	39.0956	19,026.9	23.9188	19,026.9	39.0643	19,026.9	38.8438
19,697.8	81.3195	19,697.8	81.5869	19,697.8	80.5848	19,697.8	81.2955	19,697.8	78.6108	19,697.8	80.2012	19,697.8	75.9405	19,697.8	76.8215	19,697.8	71.6925	19,697.8	72.0891	19,697.8	64.0728	19,697.8	67.6401	19,697.8	59.1358	19,697.8	63.4021	19,697.8	54.66	19,697.8	57.7569	19,697.8	55.2344	19,697.8	52.3124	19,697.8	47.3207	19,697.8	50.5557	19,697.8	48.5685	19,697.8	50.9122	19,697.8	36.7645	19,697.8	36.4065	19,697.8	33.973	19,697.8	41.2311	19,697.8	44.2464	19,697.8	36.9473	19,697.8	25.1341	19,697.8	40.7858	19,697.8	30.3151	19,697.8	26.8628	19,697.8	32.5251	19,697.8	38.9301	19,697.8	37.3448	19,697.8	37.4759
19,999.5	81.1447	19,999.5	81.4635	19,999.5	80.2861	19,999.5	81.0104	19,999.5	78.4278	19,999.5	80.2844	19,999.5	75.4591	19,999.5	76.7532	19,999.5	70.3092	19,999.5	71.7509	19,999.5	62.176	19,999.5	67.3201	19,999.5	56.7972	19,999.5	60.8499	19,999.5	52.3044	19,999.5	55.17	19,999.5	51.1195	19,999.5	53.3192	19,999.5	47.4233	19,999.5	42.2506	19,999.5	48.0519	19,999.5	54.599	19,999.5	41.8299	19,999.5	40.3019	19,999.5	32.0082	19,999.5	49.9865	19,999.5	26.7219	19,999.5	52.6514	19,999.5	40.5667	19,999.5	45.6482	19,999.5	44.8118	19,999.5	42.1669	19,999.5	41.4962	19,999.5	45.1696	19,999.5	37.3739	19,999.5	42.1373
