"SPL Vertical"
"On-Axis"		"10°"		"-10°"		"20°"		"-20°"		"30°"		"-30°"		"40°"		"-40°"		"50°"		"-50°"		"60°"		"-60°"		"70°"		"-70°"		"80°"		"-80°"		"90°"		"-90°"		"100°"		"-100°"		"110°"		"-110°"		"120°"		"-120°"		"130°"		"-130°"		"140°"		"-140°"		"150°"		"-150°"		"160°"		"-160°"		"170°"		"-170°"		"180°"
"Frequency [Hz]"	"Sound Pessure Level [dB]  / [2.83V 1m] "	"Frequency [Hz]"	"Sound Pessure Level [dB]  / [2.83V 1m] "	"Frequency [Hz]"	"Sound Pessure Level [dB]  / [2.83V 1m] "	"Frequency [Hz]"	"Sound Pessure Level [dB]  / [2.83V 1m] "	"Frequency [Hz]"	"Sound Pessure Level [dB]  / [2.83V 1m] "	"Frequency [Hz]"	"Sound Pessure Level [dB]  / [2.83V 1m] "	"Frequency [Hz]"	"Sound Pessure Level [dB]  / [2.83V 1m] "	"Frequency [Hz]"	"Sound Pessure Level [dB]  / [2.83V 1m] "	"Frequency [Hz]"	"Sound Pessure Level [dB]  / [2.83V 1m] "	"Frequency [Hz]"	"Sound Pessure Level [dB]  / [2.83V 1m] "	"Frequency [Hz]"	"Sound Pessure Level [dB]  / [2.83V 1m] "	"Frequency [Hz]"	"Sound Pessure Level [dB]  / [2.83V 1m] "	"Frequency [Hz]"	"Sound Pessure Level [dB]  / [2.83V 1m] "	"Frequency [Hz]"	"Sound Pessure Level [dB]  / [2.83V 1m] "	"Frequency [Hz]"	"Sound Pessure Level [dB]  / [2.83V 1m] "	"Frequency [Hz]"	"Sound Pessure Level [dB]  / [2.83V 1m] "	"Frequency [Hz]"	"Sound Pessure Level [dB]  / [2.83V 1m] "	"Frequency [Hz]"	"Sound Pessure Level [dB]  / [2.83V 1m] "	"Frequency [Hz]"	"Sound Pessure Level [dB]  / [2.83V 1m] "	"Frequency [Hz]"	"Sound Pessure Level [dB]  / [2.83V 1m] "	"Frequency [Hz]"	"Sound Pessure Level [dB]  / [2.83V 1m] "	"Frequency [Hz]"	"Sound Pessure Level [dB]  / [2.83V 1m] "	"Frequency [Hz]"	"Sound Pessure Level [dB]  / [2.83V 1m] "	"Frequency [Hz]"	"Sound Pessure Level [dB]  / [2.83V 1m] "	"Frequency [Hz]"	"Sound Pessure Level [dB]  / [2.83V 1m] "	"Frequency [Hz]"	"Sound Pessure Level [dB]  / [2.83V 1m] "	"Frequency [Hz]"	"Sound Pessure Level [dB]  / [2.83V 1m] "	"Frequency [Hz]"	"Sound Pessure Level [dB]  / [2.83V 1m] "	"Frequency [Hz]"	"Sound Pessure Level [dB]  / [2.83V 1m] "	"Frequency [Hz]"	"Sound Pessure Level [dB]  / [2.83V 1m] "	"Frequency [Hz]"	"Sound Pessure Level [dB]  / [2.83V 1m] "	"Frequency [Hz]"	"Sound Pessure Level [dB]  / [2.83V 1m] "	"Frequency [Hz]"	"Sound Pessure Level [dB]  / [2.83V 1m] "	"Frequency [Hz]"	"Sound Pessure Level [dB]  / [2.83V 1m] "	"Frequency [Hz]"	"Sound Pessure Level [dB]  / [2.83V 1m] "	"Frequency [Hz]"	"Sound Pessure Level [dB]  / [2.83V 1m] "
20.5078	30.7861	20.5078	30.4899	20.5078	30.97	20.5078	30.083	20.5078	31.0432	20.5078	29.5719	20.5078	31.0095	20.5078	28.971	20.5078	30.8755	20.5078	28.3095	20.5078	30.6507	20.5078	27.6389	20.5078	30.3496	20.5078	27.0406	20.5078	29.993	20.5078	26.6195	20.5078	29.6113	20.5078	26.4706	20.5078	29.2455	20.5078	26.6262	20.5078	28.9452	20.5078	27.0328	20.5078	28.7586	20.5078	27.5834	20.5078	28.7158	20.5078	28.1701	20.5078	28.814	20.5078	28.7121	20.5078	29.0158	20.5078	29.159	20.5078	29.2633	20.5078	29.4835	20.5078	29.4961	20.5078	29.674	20.5078	29.6639	20.5078	29.7306
21.9727	27.5326	21.9727	27.4831	21.9727	27.6403	21.9727	27.5146	21.9727	27.7977	21.9727	27.6601	21.9727	28.0095	21.9727	27.9525	21.9727	28.2894	21.9727	28.4093	21.9727	28.653	21.9727	29.0222	21.9727	29.1111	21.9727	29.757	21.9727	29.6636	21.9727	30.565	21.9727	30.298	21.9727	31.3957	21.9727	30.9905	21.9727	32.2061	21.9727	31.7114	21.9727	32.963	21.9727	32.4291	21.9727	33.6425	21.9727	33.1144	21.9727	34.2281	21.9727	33.7424	21.9727	34.7084	21.9727	34.2925	21.9727	35.0754	21.9727	34.749	21.9727	35.324	21.9727	35.1001	21.9727	35.451	21.9727	35.3373	21.9727	35.4552
23.4375	19.604	23.4375	18.9604	23.4375	20.2272	23.4375	18.7144	23.4375	20.6695	23.4375	19.3902	23.4375	20.9224	23.4375	21.004	23.4375	21.0634	23.4375	23.044	23.4375	21.2434	23.4375	25.0824	23.4375	21.6637	23.4375	26.9409	23.4375	22.4848	23.4375	28.5739	23.4375	23.7084	23.4375	29.9829	23.4375	25.1851	23.4375	31.1812	23.4375	26.7349	23.4375	32.1827	23.4375	28.2295	23.4375	32.9987	23.4375	29.5989	23.4375	33.6377	23.4375	30.8111	23.4375	34.1053	23.4375	31.8539	23.4375	34.4052	23.4375	32.7243	23.4375	34.5394	23.4375	33.4231	23.4375	34.5089	23.4375	33.9521	23.4375	34.3135
24.9023	34.8327	24.9023	34.6865	24.9023	34.9673	24.9023	34.5667	24.9023	35.0664	24.9023	34.5234	24.9023	35.1202	24.9023	34.61	24.9023	35.1325	24.9023	34.8662	24.9023	35.1208	24.9023	35.3013	24.9023	35.1175	24.9023	35.8891	24.9023	35.1678	24.9023	36.5781	24.9023	35.3223	24.9023	37.3097	24.9023	35.6209	24.9023	38.0313	24.9023	36.0757	24.9023	38.7026	24.9023	36.6631	24.9023	39.2945	24.9023	37.3329	24.9023	39.7873	24.9023	38.0266	24.9023	40.1676	24.9023	38.6912	24.9023	40.4265	24.9023	39.2867	24.9023	40.5583	24.9023	39.7854	24.9023	40.5596	24.9023	40.1697	24.9023	40.4295
26.3672	36.1514	26.3672	35.9257	26.3672	36.3224	26.3672	35.6914	26.3672	36.4123	26.3672	35.5162	26.3672	36.4099	26.3672	35.4831	26.3672	36.3177	26.3672	35.6656	26.3672	36.1536	26.3672	36.0933	26.3672	35.9556	26.3672	36.7342	26.3672	35.7871	26.3672	37.5124	26.3672	35.734	26.3672	38.342	26.3672	35.8838	26.3672	39.1517	26.3672	36.2845	26.3672	39.8917	26.3672	36.9151	26.3672	40.53	26.3672	37.6971	26.3672	41.047	26.3672	38.5348	26.3672	41.4308	26.3672	39.3475	26.3672	41.6742	26.3672	40.0799	26.3672	41.7727	26.3672	40.6983	26.3672	41.7241	26.3672	41.184	26.3672	41.5274
27.832	39.2571	27.832	39.0483	27.832	39.4273	27.832	38.8516	27.832	39.528	27.832	38.7371	27.832	39.5459	27.832	38.7817	27.832	39.4831	27.832	39.0429	27.832	39.3587	27.832	39.5305	27.832	39.2114	27.832	40.2008	27.832	39.1027	27.832	40.9792	27.832	39.1113	27.832	41.7894	27.832	39.311	27.832	42.5703	27.832	39.7377	27.832	43.2796	27.832	40.3673	27.832	43.8898	27.832	41.1289	27.832	44.3834	27.832	41.9376	27.832	44.7497	27.832	42.721	27.832	44.9813	27.832	43.4281	27.832	45.0737	27.832	44.0265	27.832	45.0242	27.832	44.4977	27.832	44.8318
29.2969	41.2111	29.2969	41.2153	29.2969	41.2461	29.2969	41.2996	29.2969	41.2886	29.2969	41.5047	29.2969	41.3213	29.2969	41.8573	29.2969	41.343	29.2969	42.359	29.2969	41.3691	29.2969	42.9842	29.2969	41.4311	29.2969	43.6898	29.2969	41.5718	29.2969	44.4275	29.2969	41.8344	29.2969	45.1536	29.2969	42.2464	29.2969	45.8334	29.2969	42.8059	29.2969	46.441	29.2969	43.4807	29.2969	46.9579	29.2969	44.2198	29.2969	47.371	29.2969	44.9695	29.2969	47.6707	29.2969	45.6838	29.2969	47.8507	29.2969	46.3279	29.2969	47.9067	29.2969	46.8779	29.2969	47.8364	29.2969	47.3183	29.2969	47.6395
30.7617	44.8538	30.7617	44.8629	30.7617	44.8738	30.7617	44.9348	30.7617	44.8969	30.7617	45.1038	30.7617	44.9082	30.7617	45.3947	30.7617	44.9063	30.7617	45.814	30.7617	44.9034	30.7617	46.3461	30.7617	44.9253	30.7617	46.9586	30.7617	45.0091	30.7617	47.6109	30.7617	45.1948	30.7617	48.2635	30.7617	45.513	30.7617	48.8822	30.7617	45.9718	30.7617	49.4404	30.7617	46.5514	30.7617	49.9176	30.7617	47.2106	30.7617	50.2989	30.7617	47.8999	30.7617	50.5735	30.7617	48.5725	30.7617	50.7334	30.7617	49.191	30.7617	50.7737	30.7617	49.7276	30.7617	50.6917	30.7617	50.1638	30.7617	50.4874
32.2266	47.7271	32.2266	47.6954	32.2266	47.776	32.2266	47.7146	32.2266	47.8159	32.2266	47.8204	32.2266	47.8317	32.2266	48.041	32.2266	47.82	32.2266	48.3875	32.2266	47.7903	32.2266	48.8496	32.2266	47.7657	32.2266	49.3987	32.2266	47.7814	32.2266	49.9962	32.2266	47.8794	32.2266	50.6026	32.2266	48.0979	32.2266	51.1832	32.2266	48.4565	32.2266	51.7101	32.2266	48.9468	32.2266	52.1619	32.2266	49.5345	32.2266	52.523	32.2266	50.1711	32.2266	52.7816	32.2266	50.8073	32.2266	52.9298	32.2266	51.4017	32.2266	52.9621	32.2266	51.9233	32.2266	52.8758	32.2266	52.3509	32.2266	52.6709
33.6914	50.7178	33.6914	50.7655	33.6914	50.7017	33.6914	50.8681	33.6914	50.6985	33.6914	51.0482	33.6914	50.6978	33.6914	51.3217	33.6914	50.6989	33.6914	51.6917	33.6914	50.7118	33.6914	52.1478	33.6914	50.7571	33.6914	52.6672	33.6914	50.8624	33.6914	53.221	33.6914	51.0567	33.6914	53.7788	33.6914	51.3605	33.6914	54.3128	33.6914	51.7777	33.6914	54.7995	33.6914	52.2918	33.6914	55.22	33.6914	52.8704	33.6914	55.5595	33.6914	53.4738	33.6914	55.8066	33.6914	54.0634	33.6914	55.9533	33.6914	54.6067	33.6914	55.9938	33.6914	55.0792	33.6914	55.9252	33.6914	55.4632	33.6914	55.7474
35.1562	53.266	35.1562	53.365	35.1562	53.2119	35.1562	53.5245	35.1562	53.1894	35.1562	53.7576	35.1562	53.1906	35.1562	54.0713	35.1562	53.2148	35.1562	54.4629	35.1562	53.2695	35.1562	54.9201	35.1562	53.3694	35.1562	55.423	35.1562	53.5336	35.1562	55.9476	35.1562	53.7798	35.1562	56.4692	35.1562	54.1184	35.1562	56.9651	35.1562	54.5472	35.1562	57.4154	35.1562	55.0498	35.1562	57.8035	35.1562	55.5991	35.1562	58.1163	35.1562	56.1632	35.1562	58.3432	35.1562	56.7107	35.1562	58.4766	35.1562	57.2145	35.1562	58.5113	35.1562	57.6531	35.1562	58.4448	35.1562	58.0109	35.1562	58.2769
36.6211	56.5568	36.6211	56.6081	36.6211	56.5347	36.6211	56.7023	36.6211	56.531	36.6211	56.8525	36.6211	56.5391	36.6211	57.0681	36.6211	56.5585	36.6211	57.3519	36.6211	56.5946	36.6211	57.6986	36.6211	56.6589	36.6211	58.0951	36.6211	56.7664	36.6211	58.5229	36.6211	56.933	36.6211	58.9604	36.6211	57.1708	36.6211	59.386	36.6211	57.4834	36.6211	59.7797	36.6211	57.8637	36.6211	60.1242	36.6211	58.294	36.6211	60.4049	36.6211	58.75	36.6211	60.6105	36.6211	59.2047	36.6211	60.7328	36.6211	59.6325	36.6211	60.7661	36.6211	60.0116	36.6211	60.7081	36.6211	60.3248	36.6211	60.5596
38.0859	59.0029	38.0859	59.0559	38.0859	58.9789	38.0859	59.1485	38.0859	58.9749	38.0859	59.2912	38.0859	58.9854	38.0859	59.4913	38.0859	59.0098	38.0859	59.7512	38.0859	59.0522	38.0859	60.0664	38.0859	59.1213	38.0859	60.4262	38.0859	59.2293	38.0859	60.8151	38.0859	59.3886	38.0859	61.2143	38.0859	59.6091	38.0859	61.6046	38.0859	59.894	38.0859	61.9676	38.0859	60.238	38.0859	62.2868	38.0859	60.6268	38.0859	62.5483	38.0859	61.0398	38.0859	62.7407	38.0859	61.4534	38.0859	62.8559	38.0859	61.8446	38.0859	62.8883	38.0859	62.1929	38.0859	62.8356	38.0859	62.4816	38.0859	62.6986
39.5508	61.3255	39.5508	61.3691	39.5508	61.3072	39.5508	61.4475	39.5508	61.3061	39.5508	61.5703	39.5508	61.3175	39.5508	61.7449	39.5508	61.3407	39.5508	61.9741	39.5508	61.3794	39.5508	62.255	39.5508	61.4413	39.5508	62.5789	39.5508	61.5368	39.5508	62.9323	39.5508	61.6774	39.5508	63.2984	39.5508	61.872	39.5508	63.6592	39.5508	62.1246	39.5508	63.997	39.5508	62.4313	39.5508	64.2958	39.5508	62.7807	39.5508	64.5417	39.5508	63.155	39.5508	64.7234	39.5508	63.5329	39.5508	64.8326	39.5508	63.893	39.5508	64.8639	39.5508	64.2156	39.5508	64.815	39.5508	64.4844	39.5508	64.687
41.0156	63.6369	41.0156	63.6714	41.0156	63.6245	41.0156	63.7364	41.0156	63.6275	41.0156	63.8403	41.0156	63.6415	41.0156	63.9897	41.0156	63.6657	41.0156	64.1876	41.0156	63.7029	41.0156	64.4324	41.0156	63.7593	41.0156	64.7171	41.0156	63.8435	41.0156	65.0304	41.0156	63.9651	41.0156	65.3578	41.0156	64.1323	41.0156	65.683	41.0156	64.3492	41.0156	65.9897	41.0156	64.6138	41.0156	66.2626	41.0156	64.9176	41.0156	66.4882	41.0156	65.2461	41.0156	66.6557	41.0156	65.5811	41.0156	66.7566	41.0156	65.9034	41.0156	66.7858	41.0156	66.1945	41.0156	66.7411	41.0156	66.4387	41.0156	66.6238
42.4805	65.5848	42.4805	65.6136	42.4805	65.5762	42.4805	65.6702	42.4805	65.5817	42.4805	65.7626	42.4805	65.5973	42.4805	65.8966	42.4805	65.6222	42.4805	66.0756	42.4805	65.6587	42.4805	66.2984	42.4805	65.7123	42.4805	66.5593	42.4805	65.7907	42.4805	66.8482	42.4805	65.9025	42.4805	67.152	42.4805	66.0552	42.4805	67.4555	42.4805	66.253	42.4805	67.7434	42.4805	66.4947	42.4805	68.001	42.4805	66.7729	42.4805	68.2151	42.4805	67.0749	42.4805	68.375	42.4805	67.3843	42.4805	68.4724	42.4805	67.683	42.4805	68.5021	42.4805	67.9537	42.4805	68.4621	42.4805	68.1812	42.4805	68.3534
43.9453	67.612	43.9453	67.6405	43.9453	67.6026	43.9453	67.6942	43.9453	67.607	43.9453	67.7795	43.9453	67.6221	43.9453	67.9015	43.9453	67.6471	43.9453	68.0629	43.9453	67.6838	43.9453	68.2629	43.9453	67.7367	43.9453	68.497	43.9453	67.812	43.9453	68.7569	43.9453	67.9166	43.9453	69.0311	43.9453	68.0569	43.9453	69.3064	43.9453	68.2362	43.9453	69.5689	43.9453	68.4538	43.9453	69.8049	43.9453	68.7038	43.9453	70.0021	43.9453	68.9754	43.9453	70.1501	43.9453	69.2544	43.9453	70.2409	43.9453	69.5247	43.9453	70.2695	43.9453	69.7706	43.9453	70.2337	43.9453	69.9778	43.9453	70.1349
45.4102	69.3605	45.4102	69.384	45.4102	69.3543	45.4102	69.4305	45.4102	69.3607	45.4102	69.5056	45.4102	69.3769	45.4102	69.6144	45.4102	69.4021	45.4102	69.7594	45.4102	69.438	45.4102	69.9405	45.4102	69.4883	45.4102	70.1538	45.4102	69.5587	45.4102	70.3921	45.4102	69.6552	45.4102	70.6452	45.4102	69.7835	45.4102	70.9008	45.4102	69.9469	45.4102	71.1458	45.4102	70.1448	45.4102	71.3672	45.4102	70.3726	45.4102	71.5532	45.4102	70.6206	45.4102	71.6937	45.4102	70.8762	45.4102	71.7808	45.4102	71.1247	45.4102	71.8096	45.4102	71.3513	45.4102	71.7781	45.4102	71.5426	45.4102	71.6875
46.875	71.0104	46.875	71.0319	46.875	71.005	46.875	71.0745	46.875	71.0116	46.875	71.1433	46.875	71.0276	46.875	71.2426	46.875	71.0525	46.875	71.3751	46.875	71.0875	46.875	71.5404	46.875	71.1359	46.875	71.7356	46.875	71.2024	46.875	71.9541	46.875	71.2924	46.875	72.1869	46.875	71.4106	46.875	72.4228	46.875	71.5602	46.875	72.6496	46.875	71.7408	46.875	72.8554	46.875	71.9483	46.875	73.0286	46.875	72.1747	46.875	73.1599	46.875	72.4085	46.875	73.2415	46.875	72.6366	46.875	73.2688	46.875	72.8452	46.875	73.2398	46.875	73.0219	46.875	73.156
48.3398	72.6412	48.3398	72.6596	48.3398	72.6377	48.3398	72.6973	48.3398	72.6454	48.3398	72.7587	48.3398	72.6622	48.3398	72.8478	48.3398	72.6872	48.3398	72.9667	48.3398	72.7216	48.3398	73.1156	48.3398	72.7679	48.3398	73.2918	48.3398	72.8302	48.3398	73.4898	48.3398	72.9129	48.3398	73.7015	48.3398	73.0202	48.3398	73.9169	48.3398	73.1549	48.3398	74.1249	48.3398	73.317	48.3398	74.3143	48.3398	73.5032	48.3398	74.4744	48.3398	73.7066	48.3398	74.5961	48.3398	73.9173	48.3398	74.6722	48.3398	74.1236	48.3398	74.6982	48.3398	74.313	48.3398	74.6724	48.3398	74.4738	48.3398	74.5961
51.2695	75.4882	51.2695	75.5041	51.2695	75.4856	51.2695	75.5367	51.2695	75.4937	51.2695	75.5892	51.2695	75.5106	51.2695	75.6645	51.2695	75.5356	51.2695	75.7644	51.2695	75.5694	51.2695	75.889	51.2695	75.6136	51.2695	76.0363	51.2695	75.6709	51.2695	76.2022	51.2695	75.7445	51.2695	76.3803	51.2695	75.8372	51.2695	76.5625	51.2695	75.9512	51.2695	76.7395	51.2695	76.0867	51.2695	76.9017	51.2695	76.2411	51.2695	77.0398	51.2695	76.4096	51.2695	77.1454	51.2695	76.5844	51.2695	77.2123	51.2695	76.7562	51.2695	77.2363	51.2695	76.9145	51.2695	77.2157	51.2695	77.0494	51.2695	77.1521
52.7344	76.7268	52.7344	76.7416	52.7344	76.7247	52.7344	76.7721	52.7344	76.7329	52.7344	76.821	52.7344	76.7498	52.7344	76.891	52.7344	76.7747	52.7344	76.9836	52.7344	76.808	52.7344	77.0989	52.7344	76.8511	52.7344	77.2352	52.7344	76.9063	52.7344	77.3886	52.7344	76.9761	52.7344	77.5535	52.7344	77.0633	52.7344	77.7224	52.7344	77.1694	52.7344	77.8869	52.7344	77.2946	52.7344	78.038	52.7344	77.437	52.7344	78.1669	52.7344	77.592	52.7344	78.266	52.7344	77.7528	52.7344	78.329	52.7344	77.9109	52.7344	78.3521	52.7344	78.0567	52.7344	78.3339	52.7344	78.181	52.7344	78.2755
54.1992	77.8884	54.1992	77.9038	54.1992	77.8854	54.1992	77.9341	54.1992	77.8929	54.1992	77.9814	54.1992	77.9094	54.1992	78.0479	54.1992	77.9344	54.1992	78.1347	54.1992	77.9679	54.1992	78.2417	54.1992	78.0112	54.1992	78.3675	54.1992	78.0657	54.1992	78.5086	54.1992	78.1337	54.1992	78.6599	54.1992	78.2169	54.1992	78.815	54.1992	78.3168	54.1992	78.9662	54.1992	78.4333	54.1992	79.1054	54.1992	78.5646	54.1992	79.2245	54.1992	78.7067	54.1992	79.3163	54.1992	78.8536	54.1992	79.3753	54.1992	78.9977	54.1992	79.3976	54.1992	79.1305	54.1992	79.3819	54.1992	79.2436	54.1992	79.3293
55.6641	78.8959	55.6641	78.911	55.6641	78.8925	55.6641	78.9399	55.6641	78.8992	55.6641	78.9845	55.6641	78.9147	55.6641	79.0464	55.6641	78.9386	55.6641	79.1267	55.6641	78.971	55.6641	79.2252	55.6641	79.0126	55.6641	79.3407	55.6641	79.0648	55.6641	79.4701	55.6641	79.1293	55.6641	79.609	55.6641	79.2075	55.6641	79.7514	55.6641	79.3005	55.6641	79.8905	55.6641	79.4082	55.6641	80.0188	55.6641	79.529	55.6641	80.1289	55.6641	79.6592	55.6641	80.2141	55.6641	79.7936	55.6641	80.269	55.6641	79.9254	55.6641	80.2902	55.6641	80.0468	55.6641	80.2764	55.6641	80.1502	55.6641	80.2286
58.5938	80.5478	58.5938	80.5608	58.5938	80.5453	58.5938	80.5856	58.5938	80.552	58.5938	80.6237	58.5938	80.5669	58.5938	80.6761	58.5938	80.5895	58.5938	80.7434	58.5938	80.6198	58.5938	80.8255	58.5938	80.658	58.5938	80.921	58.5938	80.705	58.5938	81.0278	58.5938	80.7616	58.5938	81.1421	58.5938	80.8288	58.5938	81.2594	58.5938	80.9071	58.5938	81.3742	58.5938	80.9962	58.5938	81.4802	58.5938	81.095	58.5938	81.5716	58.5938	81.2006	58.5938	81.6426	58.5938	81.3091	58.5938	81.6889	58.5938	81.4153	58.5938	81.7074	58.5938	81.5131	58.5938	81.6972	58.5938	81.5962	58.5938	81.6591
60.0586	81.2306	60.0586	81.242	60.0586	81.2292	60.0586	81.2643	60.0586	81.2365	60.0586	81.2987	60.0586	81.2518	60.0586	81.346	60.0586	81.2745	60.0586	81.4067	60.0586	81.3044	60.0586	81.4805	60.0586	81.3416	60.0586	81.5663	60.0586	81.3866	60.0586	81.662	60.0586	81.4399	60.0586	81.7647	60.0586	81.5022	60.0586	81.8703	60.0586	81.5737	60.0586	81.9738	60.0586	81.6541	60.0586	82.0699	60.0586	81.7424	60.0586	82.153	60.0586	81.8363	60.0586	82.2182	60.0586	81.9323	60.0586	82.2612	60.0586	82.0259	60.0586	82.2795	60.0586	82.1119	60.0586	82.2719	60.0586	82.1848	60.0586	82.2395
62.9883	82.3126	62.9883	82.3225	62.9883	82.3113	62.9883	82.3418	62.9883	82.318	62.9883	82.3711	62.9883	82.3322	62.9883	82.4107	62.9883	82.3532	62.9883	82.4608	62.9883	82.3808	62.9883	82.5211	62.9883	82.4148	62.9883	82.5908	62.9883	82.4552	62.9883	82.6683	62.9883	82.5021	62.9883	82.7514	62.9883	82.5557	62.9883	82.8368	62.9883	82.6158	62.9883	82.9209	62.9883	82.6821	62.9883	82.9993	62.9883	82.7537	62.9883	83.0677	62.9883	82.8289	62.9883	83.1218	62.9883	82.9051	62.9883	83.1582	62.9883	82.979	62.9883	83.1748	62.9883	83.0466	62.9883	83.1704	62.9883	83.1036	62.9883	83.146
64.4531	82.7164	64.4531	82.7261	64.4531	82.7153	64.4531	82.7448	64.4531	82.7223	64.4531	82.7729	64.4531	82.7367	64.4531	82.8108	64.4531	82.7583	64.4531	82.8583	64.4531	82.7865	64.4531	82.9152	64.4531	82.8212	64.4531	82.9806	64.4531	82.8621	64.4531	83.053	64.4531	82.909	64.4531	83.1305	64.4531	82.9619	64.4531	83.2101	64.4531	83.0203	64.4531	83.2885	64.4531	83.0838	64.4531	83.3618	64.4531	83.1513	64.4531	83.426	64.4531	83.2212	64.4531	83.4774	64.4531	83.2913	64.4531	83.5127	64.4531	83.3586	64.4531	83.5298	64.4531	83.4195	64.4531	83.5278	64.4531	83.4703	64.4531	83.5074
67.3828	83.3639	67.3828	83.3735	67.3828	83.3626	67.3828	83.3917	67.3828	83.3697	67.3828	83.4182	67.3828	83.3846	67.3828	83.4528	67.3828	83.4071	67.3828	83.4952	67.3828	83.4365	67.3828	83.5448	67.3828	83.4723	67.3828	83.6007	67.3828	83.5137	67.3828	83.6618	67.3828	83.5599	67.3828	83.7263	67.3828	83.6104	67.3828	83.7925	67.3828	83.6642	67.3828	83.8576	67.3828	83.7205	67.3828	83.9188	67.3828	83.7784	67.3828	83.973	67.3828	83.8365	67.3828	84.0172	67.3828	83.8931	67.3828	84.049	67.3828	83.9459	67.3828	84.0665	67.3828	83.9925	67.3828	84.0688	67.3828	84.0301	67.3828	84.0563
68.8477	83.6218	68.8477	83.6306	68.8477	83.6211	68.8477	83.6472	68.8477	83.6282	68.8477	83.6713	68.8477	83.6432	68.8477	83.7027	68.8477	83.6655	68.8477	83.7408	68.8477	83.6947	68.8477	83.785	68.8477	83.73	68.8477	83.8346	68.8477	83.7705	68.8477	83.8886	68.8477	83.8154	68.8477	83.9457	68.8477	83.8637	68.8477	84.0041	68.8477	83.9143	68.8477	84.0618	68.8477	83.9663	68.8477	84.1163	68.8477	84.0184	68.8477	84.1651	68.8477	84.0696	68.8477	84.2057	68.8477	84.1183	68.8477	84.2357	68.8477	84.1628	68.8477	84.2536	68.8477	84.2011	68.8477	84.2586	68.8477	84.231	68.8477	84.2507
71.7773	84.0156	71.7773	84.0229	71.7773	84.0158	71.7773	84.0374	71.7773	84.024	71.7773	84.0586	71.7773	84.0398	71.7773	84.0857	71.7773	84.0631	71.7773	84.1181	71.7773	84.0931	71.7773	84.155	71.7773	84.1289	71.7773	84.1957	71.7773	84.1692	71.7773	84.2392	71.7773	84.2127	71.7773	84.2848	71.7773	84.2581	71.7773	84.3312	71.7773	84.304	71.7773	84.3772	71.7773	84.349	71.7773	84.421	71.7773	84.392	71.7773	84.461	71.7773	84.432	71.7773	84.4953	71.7773	84.4679	71.7773	84.5224	71.7773	84.4988	71.7773	84.541	71.7773	84.5235	71.7773	84.5503	71.7773	84.541	71.7773	84.5502
74.707	84.2547	74.707	84.2634	74.707	84.2528	74.707	84.2782	74.707	84.2583	74.707	84.2983	74.707	84.2713	74.707	84.3228	74.707	84.2916	74.707	84.3507	74.707	84.3187	74.707	84.3813	74.707	84.3517	74.707	84.4139	74.707	84.3891	74.707	84.4477	74.707	84.4295	74.707	84.4823	74.707	84.4712	74.707	84.5168	74.707	84.5123	74.707	84.5508	74.707	84.5514	74.707	84.5832	74.707	84.5871	74.707	84.6131	74.707	84.6185	74.707	84.6395	74.707	84.6449	74.707	84.6613	74.707	84.6658	74.707	84.6777	74.707	84.6807	74.707	84.6881	74.707	84.6896	74.707	84.6921
77.6367	84.4595	77.6367	84.4679	77.6367	84.4581	77.6367	84.4823	77.6367	84.4642	77.6367	84.5015	77.6367	84.4782	77.6367	84.5242	77.6367	84.4999	77.6367	84.5492	77.6367	84.5284	77.6367	84.5756	77.6367	84.5625	77.6367	84.6024	77.6367	84.6005	77.6367	84.6291	77.6367	84.6405	77.6367	84.6554	77.6367	84.6803	77.6367	84.681	77.6367	84.7179	77.6367	84.7057	77.6367	84.7516	77.6367	84.7295	77.6367	84.7803	77.6367	84.752	77.6367	84.803	77.6367	84.7728	77.6367	84.8196	77.6367	84.7915	77.6367	84.8302	77.6367	84.8075	77.6367	84.835	77.6367	84.8204	77.6367	84.8346	77.6367	84.8296
79.1016	84.5445	79.1016	84.5524	79.1016	84.5433	79.1016	84.5657	79.1016	84.5494	79.1016	84.5833	79.1016	84.563	79.1016	84.6038	79.1016	84.5841	79.1016	84.626	79.1016	84.6116	79.1016	84.6486	79.1016	84.6444	79.1016	84.671	79.1016	84.6805	79.1016	84.6926	79.1016	84.718	79.1016	84.7133	79.1016	84.7548	79.1016	84.733	79.1016	84.7887	79.1016	84.7519	79.1016	84.8181	79.1016	84.7702	79.1016	84.8418	79.1016	84.7879	79.1016	84.8592	79.1016	84.805	79.1016	84.8701	79.1016	84.8212	79.1016	84.875	79.1016	84.8363	79.1016	84.8746	79.1016	84.8499	79.1016	84.8697	79.1016	84.8612
82.0312	84.6555	82.0312	84.6646	82.0312	84.6524	82.0312	84.6786	82.0312	84.6564	82.0312	84.696	82.0312	84.6678	82.0312	84.7155	82.0312	84.6865	82.0312	84.7356	82.0312	84.712	82.0312	84.7554	82.0312	84.743	82.0312	84.7741	82.0312	84.7777	82.0312	84.7913	82.0312	84.814	82.0312	84.807	82.0312	84.8497	82.0312	84.8215	82.0312	84.8826	82.0312	84.8352	82.0312	84.9107	82.0312	84.8485	82.0312	84.9326	82.0312	84.8621	82.0312	84.9476	82.0312	84.8761	82.0312	84.9556	82.0312	84.8905	82.0312	84.9571	82.0312	84.9052	82.0312	84.953	82.0312	84.9197	82.0312	84.9446	82.0312	84.9331
84.9609	84.6414	84.9609	84.6544	84.9609	84.6355	84.9609	84.6729	84.9609	84.6379	84.9609	84.6954	84.9609	84.6493	84.9609	84.7201	84.9609	84.67	84.9609	84.7455	84.9609	84.6993	84.9609	84.7703	84.9609	84.7362	84.9609	84.7935	84.9609	84.7787	84.9609	84.8146	84.9609	84.8242	84.9609	84.8334	84.9609	84.8699	84.9609	84.8502	84.9609	84.9127	84.9609	84.8657	84.9609	84.9501	84.9609	84.8807	84.9609	84.9799	84.9609	84.8959	84.9609	85.0008	84.9609	84.912	84.9609	85.0124	84.9609	84.9292	84.9609	85.0151	84.9609	84.9474	84.9609	85.0101	84.9609	84.9659	84.9609	84.999	84.9609	84.9836
87.8906	84.7828	87.8906	84.8001	87.8906	84.7747	87.8906	84.8244	87.8906	84.7773	87.8906	84.8531	87.8906	84.7912	87.8906	84.8837	87.8906	84.8161	87.8906	84.9136	87.8906	84.8507	87.8906	84.9407	87.8906	84.8929	87.8906	84.9636	87.8906	84.9399	87.8906	84.9815	87.8906	84.9884	87.8906	84.9945	87.8906	85.035	87.8906	85.0035	87.8906	85.0766	87.8906	85.0098	87.8906	85.1105	87.8906	85.015	87.8906	85.1348	87.8906	85.021	87.8906	85.1487	87.8906	85.0293	87.8906	85.1522	87.8906	85.0409	87.8906	85.1464	87.8906	85.0561	87.8906	85.1334	87.8906	85.0746	87.8906	85.1153	87.8906	85.0949
90.8203	84.8804	90.8203	84.8877	90.8203	84.8748	90.8203	84.8948	90.8203	84.8723	90.8203	84.8998	90.8203	84.8741	90.8203	84.9012	90.8203	84.8808	90.8203	84.8976	90.8203	84.8921	90.8203	84.8883	90.8203	84.9072	90.8203	84.8733	90.8203	84.9246	90.8203	84.8534	90.8203	84.9423	90.8203	84.8299	90.8203	84.9579	90.8203	84.8048	90.8203	84.969	90.8203	84.7806	90.8203	84.9735	90.8203	84.7599	90.8203	84.9697	90.8203	84.7452	90.8203	84.957	90.8203	84.7386	90.8203	84.9357	90.8203	84.7414	90.8203	84.9071	90.8203	84.7541	90.8203	84.8737	90.8203	84.7758	90.8203	84.8385	90.8203	84.8048
95.2148	84.9275	95.2148	84.935	95.2148	84.9242	95.2148	84.9447	95.2148	84.9267	95.2148	84.9547	95.2148	84.936	95.2148	84.9627	95.2148	84.9524	95.2148	84.9672	95.2148	84.9752	95.2148	84.9667	95.2148	85.0029	95.2148	84.9607	95.2148	85.0334	95.2148	84.9493	95.2148	85.0638	95.2148	84.9333	95.2148	85.0909	95.2148	84.9146	95.2148	85.1115	95.2148	84.8954	95.2148	85.1231	95.2148	84.8784	95.2148	85.1238	95.2148	84.8666	95.2148	85.1127	95.2148	84.8624	95.2148	85.0905	95.2148	84.8677	95.2148	85.0591	95.2148	84.8833	95.2148	85.0213	95.2148	84.9088	95.2148	84.9811	95.2148	84.9423
98.1445	84.9331	98.1445	84.9331	98.1445	84.9366	98.1445	84.9349	98.1445	84.9446	98.1445	84.937	98.1445	84.9579	98.1445	84.9379	98.1445	84.9765	98.1445	84.936	98.1445	84.9999	98.1445	84.9303	98.1445	85.0265	98.1445	84.9204	98.1445	85.0542	98.1445	84.9062	98.1445	85.0804	98.1445	84.8885	98.1445	85.1019	98.1445	84.8688	98.1445	85.116	98.1445	84.849	98.1445	85.1202	98.1445	84.8318	98.1445	85.1131	98.1445	84.8197	98.1445	85.0942	98.1445	84.8152	98.1445	85.0645	98.1445	84.8203	98.1445	85.0264	98.1445	84.8359	98.1445	84.9832	98.1445	84.8621	98.1445	84.9388	98.1445	84.8972
101.074	84.821	101.074	84.8255	101.074	84.8236	101.074	84.8351	101.074	84.8346	101.074	84.8478	101.074	84.8548	101.074	84.8614	101.074	84.8839	101.074	84.8737	101.074	84.9212	101.074	84.8831	101.074	84.9645	101.074	84.8884	101.074	85.0111	101.074	84.8893	101.074	85.0577	101.074	84.8861	101.074	85.1003	101.074	84.8802	101.074	85.1352	101.074	84.8737	101.074	85.1592	101.074	84.8689	101.074	85.17	101.074	84.8688	101.074	85.1663	101.074	84.8757	101.074	85.1486	101.074	84.8915	101.074	85.1187	101.074	84.9167	101.074	85.0799	101.074	84.9508	101.074	85.0361	101.074	84.9917
105.469	85.0332	105.469	85.0407	105.469	85.0283	105.469	85.0485	105.469	85.0277	105.469	85.0544	105.469	85.033	105.469	85.0561	105.469	85.0447	105.469	85.052	105.469	85.0628	105.469	85.0407	105.469	85.0861	105.469	85.0219	105.469	85.1126	105.469	84.996	105.469	85.1395	105.469	84.9645	105.469	85.1631	105.469	84.9298	105.469	85.18	105.469	84.8951	105.469	85.1867	105.469	84.8644	105.469	85.1807	105.469	84.8414	105.469	85.1609	105.469	84.8298	105.469	85.1276	105.469	84.832	105.469	85.0831	105.469	84.8494	105.469	85.0311	105.469	84.8812	105.469	84.9766	105.469	84.9249
108.398	84.9716	108.398	84.9762	108.398	84.9706	108.398	84.9825	108.398	84.9751	108.398	84.9884	108.398	84.9862	108.398	84.9917	108.398	85.0045	108.398	84.9908	108.398	85.0296	108.398	84.9843	108.398	85.0605	108.398	84.9717	108.398	85.0951	108.398	84.9532	108.398	85.1302	108.398	84.93	108.398	85.1624	108.398	84.9043	108.398	85.1877	108.398	84.879	108.398	85.2024	108.398	84.8577	108.398	85.2038	108.398	84.844	108.398	85.1902	108.398	84.8411	108.398	85.1618	108.398	84.8514	108.398	85.1205	108.398	84.8757	108.398	85.0699	108.398	84.9131	108.398	85.015	108.398	84.961
112.793	85.1442	112.793	85.1488	112.793	85.1398	112.793	85.1514	112.793	85.1374	112.793	85.1495	112.793	85.1386	112.793	85.1411	112.793	85.1439	112.793	85.1244	112.793	85.1532	112.793	85.0983	112.793	85.1657	112.793	85.0627	112.793	85.1796	112.793	85.0185	112.793	85.1924	112.793	84.968	112.793	85.2012	112.793	84.9142	112.793	85.2026	112.793	84.8614	112.793	85.1938	112.793	84.8142	112.793	85.1725	112.793	84.7774	112.793	85.1378	112.793	84.7553	112.793	85.0905	112.793	84.7508	112.793	85.0331	112.793	84.7653	112.793	84.9695	112.793	84.7981	112.793	84.9053	112.793	84.8463
117.188	85.1972	117.188	85.1912	117.188	85.1995	117.188	85.1801	117.188	85.1998	117.188	85.1624	117.188	85.1994	117.188	85.1368	117.188	85.1996	117.188	85.1025	117.188	85.201	117.188	85.0594	117.188	85.2033	117.188	85.0079	117.188	85.2058	117.188	84.9492	117.188	85.2064	117.188	84.8857	117.188	85.2026	117.188	84.8207	117.188	85.1912	117.188	84.7583	117.188	85.1693	117.188	84.7031	117.188	85.1345	117.188	84.6601	117.188	85.0861	117.188	84.6338	117.188	85.0249	117.188	84.6275	117.188	84.9538	117.188	84.6428	117.188	84.8774	117.188	84.6792	117.188	84.802	117.188	84.7339
120.117	85.1052	120.117	85.1019	120.117	85.1054	120.117	85.0938	120.117	85.1039	120.117	85.0796	120.117	85.1024	120.117	85.0582	120.117	85.1021	120.117	85.0288	120.117	85.1039	120.117	84.9911	120.117	85.1078	120.117	84.9454	120.117	85.1131	120.117	84.8929	120.117	85.1179	120.117	84.8356	120.117	85.1193	120.117	84.7765	120.117	85.1142	120.117	84.7195	120.117	85.0992	120.117	84.6689	120.117	85.0717	120.117	84.6297	120.117	85.0305	120.117	84.606	120.117	84.9762	120.117	84.6012	120.117	84.9114	120.117	84.6168	120.117	84.8405	120.117	84.6522	120.117	84.7695	120.117	84.7047
124.512	85.0845	124.512	85.0843	124.512	85.082	124.512	85.0796	124.512	85.0785	124.512	85.0692	124.512	85.0758	124.512	85.0521	124.512	85.0756	124.512	85.0275	124.512	85.079	124.512	84.9951	124.512	85.0864	124.512	84.9554	124.512	85.097	124.512	84.9092	124.512	85.1088	124.512	84.8585	124.512	85.1188	124.512	84.8061	124.512	85.1231	124.512	84.7555	124.512	85.1179	124.512	84.7112	124.512	85.1001	124.512	84.6776	124.512	85.0679	124.512	84.6587	124.512	85.0214	124.512	84.6578	124.512	84.9629	124.512	84.6762	124.512	84.8969	124.512	84.7132	124.512	84.829	124.512	84.7657
128.906	85.0205	128.906	85.0233	128.906	85.016	128.906	85.0226	128.906	85.0118	128.906	85.0164	128.906	85.01	128.906	85.0036	128.906	85.0123	128.906	84.983	128.906	85.0199	128.906	84.9541	128.906	85.0329	128.906	84.9171	128.906	85.05	128.906	84.8727	128.906	85.0687	128.906	84.8229	128.906	85.0854	128.906	84.7706	128.906	85.0957	128.906	84.7197	128.906	85.0955	128.906	84.6749	128.906	85.0812	128.906	84.6412	128.906	85.0509	128.906	84.6228	128.906	85.0048	128.906	84.6232	128.906	84.9453	128.906	84.6438	128.906	84.8771	128.906	84.6837	128.906	84.8062	128.906	84.7396
133.301	85.0555	133.301	85.0565	133.301	85.0539	133.301	85.0546	133.301	85.0535	133.301	85.0478	133.301	85.0564	133.301	85.0344	133.301	85.0641	133.301	85.0131	133.301	85.0771	133.301	84.983	133.301	85.095	133.301	84.944	133.301	85.1163	133.301	84.897	133.301	85.1379	133.301	84.8438	133.301	85.1558	133.301	84.7874	133.301	85.1653	133.301	84.7321	133.301	85.1619	133.301	84.6829	133.301	85.1423	133.301	84.6451	133.301	85.1048	133.301	84.6238	133.301	85.0499	133.301	84.6229	133.301	84.9807	133.301	84.6442	133.301	84.9027	133.301	84.6872	133.301	84.8228	133.301	84.7486
139.16	85.0828	139.16	85.0796	139.16	85.0852	139.16	85.0737	139.16	85.0885	139.16	85.0634	139.16	85.0946	139.16	85.0474	139.16	85.1048	139.16	85.0244	139.16	85.12	139.16	84.9937	139.16	85.1399	139.16	84.9553	139.16	85.1632	139.16	84.91	139.16	85.1871	139.16	84.8596	139.16	85.2074	139.16	84.8068	139.16	85.2193	139.16	84.7558	139.16	85.2183	139.16	84.7111	139.16	85.2005	139.16	84.6779	139.16	85.164	139.16	84.6611	139.16	85.1092	139.16	84.6643	139.16	85.0393	139.16	84.6895	139.16	84.9597	139.16	84.736	139.16	84.8775	139.16	84.8005
143.555	85.1157	143.555	85.1099	143.555	85.1187	143.555	85.0997	143.555	85.1208	143.555	85.0837	143.555	85.1238	143.555	85.061	143.555	85.1296	143.555	85.0308	143.555	85.1393	143.555	84.9929	143.555	85.1535	143.555	84.9478	143.555	85.1714	143.555	84.8967	143.555	85.1907	143.555	84.8416	143.555	85.2077	143.555	84.7859	143.555	85.2178	143.555	84.7335	143.555	85.2162	143.555	84.6892	143.555	85.1988	143.555	84.6578	143.555	85.1632	143.555	84.6439	143.555	85.1095	143.555	84.6509	143.555	85.0402	143.555	84.68	143.555	84.9605	143.555	84.7303	143.555	84.8771	143.555	84.7979
147.949	85.1796	147.949	85.1671	147.949	85.1857	147.949	85.1471	147.949	85.187	147.949	85.1187	147.949	85.1855	147.949	85.0817	147.949	85.1834	147.949	85.0361	147.949	85.1826	147.949	84.9824	147.949	85.1844	147.949	84.9218	147.949	85.1889	147.949	84.856	147.949	85.1947	147.949	84.7878	147.949	85.1987	147.949	84.7206	147.949	85.1968	147.949	84.6587	147.949	85.1843	147.949	84.6072	147.949	85.1571	147.949	84.5708	147.949	85.1129	147.949	84.5542	147.949	85.0513	147.949	84.5604	147.949	84.9748	147.949	84.5907	147.949	84.8886	147.949	84.6437	147.949	84.7995	147.949	84.7153
153.809	85.1044	153.809	85.0916	153.809	85.1093	153.809	85.0699	153.809	85.1081	153.809	85.0391	153.809	85.1031	153.809	84.9992	153.809	85.0972	153.809	84.951	153.809	85.0932	153.809	84.8955	153.809	85.0933	153.809	84.8344	153.809	85.0986	153.809	84.7699	153.809	85.108	153.809	84.7049	153.809	85.1188	153.809	84.643	153.809	85.1262	153.809	84.5883	153.809	85.125	153.809	84.5454	153.809	85.1101	153.809	84.5189	153.809	85.0777	153.809	84.5126	153.809	85.0265	153.809	84.5287	153.809	84.9581	153.809	84.5678	153.809	84.8769	153.809	84.6278	153.809	84.7896	153.809	84.7039
159.668	85.1729	159.668	85.1599	159.668	85.1782	159.668	85.1385	159.668	85.1776	159.668	85.1079	159.668	85.173	159.668	85.0681	159.668	85.1668	159.668	85.0192	159.668	85.1614	159.668	84.9617	159.668	85.1582	159.668	84.8967	159.668	85.1579	159.668	84.8259	159.668	85.1593	159.668	84.7522	159.668	85.1597	159.668	84.6794	159.668	85.1553	159.668	84.6124	159.668	85.1417	159.668	84.5569	159.668	85.1149	159.668	84.5186	159.668	85.0721	159.668	84.5022	159.668	85.0127	159.668	84.5107	159.668	84.9383	159.668	84.5448	159.668	84.8532	159.668	84.602	159.668	84.7636	159.668	84.6773
165.527	85.278	165.527	85.2661	165.527	85.2836	165.527	85.2469	165.527	85.2843	165.527	85.22	165.527	85.2821	165.527	85.1855	165.527	85.2793	165.527	85.1433	165.527	85.278	165.527	85.0936	165.527	85.2797	165.527	85.037	165.527	85.2844	165.527	84.9746	165.527	85.2904	165.527	84.9083	165.527	85.2943	165.527	84.8412	165.527	85.2916	165.527	84.7775	165.527	85.2776	165.527	84.7222	165.527	85.2486	165.527	84.681	165.527	85.2023	165.527	84.659	165.527	85.1391	165.527	84.6601	165.527	85.0617	165.527	84.686	165.527	84.9754	165.527	84.7354	165.527	84.8871	165.527	84.8045
171.387	85.2247	171.387	85.2144	171.387	85.2271	171.387	85.1953	171.387	85.2235	171.387	85.1671	171.387	85.2164	171.387	85.13	171.387	85.2091	171.387	85.0845	171.387	85.2047	171.387	85.0315	171.387	85.2057	171.387	84.972	171.387	85.2127	171.387	84.9078	171.387	85.2241	171.387	84.8413	171.387	85.2362	171.387	84.7757	171.387	85.2436	171.387	84.7153	171.387	85.2403	171.387	84.6651	171.387	85.2212	171.387	84.6303	171.387	85.1831	171.387	84.6156	171.387	85.1256	171.387	84.6243	171.387	85.0512	171.387	84.6575	171.387	84.9651	171.387	84.7136	171.387	84.8747	171.387	84.7882
177.246	85.2659	177.246	85.2478	177.246	85.2739	177.246	85.2192	177.246	85.2731	177.246	85.1803	177.246	85.2659	177.246	85.132	177.246	85.2553	177.246	85.0752	177.246	85.2446	177.246	85.0114	177.246	85.2365	177.246	84.9419	177.246	85.2322	177.246	84.8689	177.246	85.2312	177.246	84.7946	177.246	85.2305	177.246	84.7224	177.246	85.2253	177.246	84.6564	177.246	85.2104	177.246	84.6014	177.246	85.181	177.246	84.5626	177.246	85.1341	177.246	84.5447	177.246	85.0693	177.246	84.5512	177.246	84.9889	177.246	84.5834	177.246	84.8982	177.246	84.6396	177.246	84.8044	177.246	84.7155
183.105	85.1909	183.105	85.1676	183.105	85.202	183.105	85.132	183.105	85.2023	183.105	85.0851	183.105	85.195	183.105	85.0286	183.105	85.1841	183.105	84.965	183.105	85.1742	183.105	84.8967	183.105	85.1693	183.105	84.8263	183.105	85.1715	183.105	84.7565	183.105	85.1801	183.105	84.69	183.105	85.1918	183.105	84.6298	183.105	85.2005	183.105	84.5791	183.105	85.1996	183.105	84.5415	183.105	85.1829	183.105	84.5207	183.105	85.1463	183.105	84.52	183.105	85.0889	183.105	84.5417	183.105	85.0128	183.105	84.5863	183.105	84.9234	183.105	84.6522	183.105	84.828	183.105	84.7349
188.965	85.2705	188.965	85.2537	188.965	85.2709	188.965	85.2203	188.965	85.2567	188.965	85.171	188.965	85.2313	188.965	85.1077	188.965	85.1994	188.965	85.0326	188.965	85.167	188.965	84.9487	188.965	85.1396	188.965	84.8593	188.965	85.1213	188.965	84.7683	188.965	85.1135	188.965	84.6804	188.965	85.114	188.965	84.6003	188.965	85.1178	188.965	84.5333	188.965	85.1178	188.965	84.4844	188.965	85.1068	188.965	84.458	188.965	85.0788	188.965	84.4571	188.965	85.031	188.965	84.4828	188.965	84.9637	188.965	84.5337	188.965	84.8804	188.965	84.6059	188.965	84.7875	188.965	84.6931
196.289	85.3479	196.289	85.3351	196.289	85.3421	196.289	85.303	196.289	85.3195	196.289	85.2521	196.289	85.2837	196.289	85.1838	196.289	85.2393	196.289	85.1001	196.289	85.1917	196.289	85.0042	196.289	85.1464	196.289	84.8996	196.289	85.1074	196.289	84.7913	196.289	85.0769	196.289	84.6851	196.289	85.0545	196.289	84.5875	196.289	85.0373	196.289	84.5052	196.289	85.0207	196.289	84.4444	196.289	84.9993	196.289	84.4096	196.289	84.968	196.289	84.4035	196.289	84.9233	196.289	84.4258	196.289	84.8638	196.289	84.4738	196.289	84.7908	196.289	84.5418	196.289	84.7083	196.289	84.6227
203.613	85.3437	203.613	85.3207	203.613	85.3448	203.613	85.2759	203.613	85.3254	203.613	85.2107	203.613	85.2888	203.613	85.1276	203.613	85.24	203.613	85.03	203.613	85.1849	203.613	84.9218	203.613	85.1298	203.613	84.8079	203.613	85.0798	203.613	84.6936	203.613	85.0381	203.613	84.585	203.613	85.0053	203.613	84.4885	203.613	84.9792	203.613	84.4101	203.613	84.9557	203.613	84.3552	203.613	84.9298	203.613	84.3275	203.613	84.8965	203.613	84.3284	203.613	84.8521	203.613	84.3568	203.613	84.7946	203.613	84.4092	203.613	84.7245	203.613	84.4796	203.613	84.6447	203.613	84.5607
210.938	85.424	210.938	85.4035	210.938	85.422	210.938	85.3608	210.938	85.3988	210.938	85.2974	210.938	85.3577	210.938	85.2157	210.938	85.3038	210.938	85.1189	210.938	85.2432	210.938	85.0107	210.938	85.1828	210.938	84.8959	210.938	85.1282	210.938	84.7798	210.938	85.083	210.938	84.6684	210.938	85.0483	210.938	84.5682	210.938	85.0219	210.938	84.4857	210.938	84.9994	210.938	84.4262	210.938	84.9753	210.938	84.3937	210.938	84.9441	210.938	84.39	210.938	84.9013	210.938	84.4144	210.938	84.8448	210.938	84.4635	210.938	84.775	210.938	84.5318	210.938	84.6953	210.938	84.6117
218.262	85.4089	218.262	85.3904	218.262	85.4066	218.262	85.3513	218.262	85.3844	218.262	85.2929	218.262	85.3449	218.262	85.2165	218.262	85.2923	218.262	85.1238	218.262	85.2315	218.262	85.0169	218.262	85.1679	218.262	84.899	218.262	85.1058	218.262	84.7748	218.262	85.0479	218.262	84.6509	218.262	84.9953	218.262	84.5357	218.262	84.9481	218.262	84.4386	218.262	84.9053	218.262	84.3681	218.262	84.8657	218.262	84.3302	218.262	84.8272	218.262	84.3267	218.262	84.7868	218.262	84.3548	218.262	84.7409	218.262	84.4078	218.262	84.6866	218.262	84.4763	218.262	84.6226	218.262	84.5507
225.586	85.3536	225.586	85.3302	225.586	85.3571	225.586	85.2873	225.586	85.3417	225.586	85.2272	225.586	85.311	225.586	85.1524	225.586	85.2703	225.586	85.0657	225.586	85.2257	225.586	84.9698	225.586	85.1828	225.586	84.8674	225.586	85.1451	225.586	84.7618	225.586	85.1129	225.586	84.6572	225.586	85.084	225.586	84.5593	225.586	85.0546	225.586	84.4753	225.586	85.0211	225.586	84.4123	225.586	84.9809	225.586	84.3766	225.586	84.9334	225.586	84.3716	225.586	84.8785	225.586	84.3965	225.586	84.8163	225.586	84.4468	225.586	84.747	225.586	84.515	225.586	84.6715	225.586	84.5924
232.91	85.3744	232.91	85.3531	232.91	85.3681	232.91	85.3058	232.91	85.3353	232.91	85.2363	232.91	85.2806	232.91	85.1492	232.91	85.2118	232.91	85.0493	232.91	85.1384	232.91	84.9408	232.91	85.0696	232.91	84.8271	232.91	85.012	232.91	84.7112	232.91	84.9677	232.91	84.5964	232.91	84.9336	232.91	84.4873	232.91	84.9037	232.91	84.3899	232.91	84.871	232.91	84.3112	232.91	84.8302	232.91	84.2581	232.91	84.7791	232.91	84.2355	232.91	84.7178	232.91	84.2446	232.91	84.6481	232.91	84.282	232.91	84.5722	232.91	84.3411	232.91	84.4929	232.91	84.4139
241.699	85.2327	241.699	85.2021	241.699	85.2338	241.699	85.1444	241.699	85.2063	241.699	85.0648	241.699	85.1555	241.699	84.97	241.699	85.0901	241.699	84.8666	241.699	85.0211	241.699	84.7609	241.699	84.9595	241.699	84.6576	241.699	84.9134	241.699	84.5602	241.699	84.8854	241.699	84.471	241.699	84.8724	241.699	84.3922	241.699	84.8666	241.699	84.3265	241.699	84.8586	241.699	84.2774	241.699	84.8403	241.699	84.2487	241.699	84.8068	241.699	84.2439	241.699	84.7567	241.699	84.2643	241.699	84.6916	241.699	84.3086	241.699	84.6153	241.699	84.3724	241.699	84.5326	241.699	84.4494
250.488	85.2605	250.488	85.2229	250.488	85.2605	250.488	85.1506	250.488	85.2239	250.488	85.0497	250.488	85.1567	250.488	84.9282	250.488	85.0693	250.488	84.7946	250.488	84.9753	250.488	84.6568	250.488	84.8891	250.488	84.5215	250.488	84.8219	250.488	84.3935	250.488	84.7788	250.488	84.2764	250.488	84.757	250.488	84.1736	250.488	84.7478	250.488	84.089	250.488	84.7395	250.488	84.0276	250.488	84.7216	250.488	83.9947	250.488	84.6872	250.488	83.9944	250.488	84.6338	250.488	84.0275	250.488	84.5621	250.488	84.0906	250.488	84.475	250.488	84.1762	250.488	84.3773	250.488	84.275
259.277	85.6325	259.277	85.5887	259.277	85.6315	259.277	85.5052	259.277	85.5853	259.277	85.3908	259.277	85.4986	259.277	85.2563	259.277	85.3819	259.277	85.1134	259.277	85.2505	259.277	84.9727	259.277	85.1221	259.277	84.8424	259.277	85.0129	259.277	84.7268	259.277	84.9335	259.277	84.6263	259.277	84.8856	259.277	84.5385	259.277	84.8621	259.277	84.4606	259.277	84.8499	259.277	84.3921	259.277	84.8346	259.277	84.3359	259.277	84.8049	259.277	84.298	259.277	84.7551	259.277	84.2854	259.277	84.6851	259.277	84.3028	259.277	84.6002	259.277	84.35	259.277	84.5088	259.277	84.4218
268.066	85.5767	268.066	85.521	268.066	85.588	268.066	85.4242	268.066	85.5548	268.066	85.2928	268.066	85.4819	268.066	85.1351	268.066	85.3787	268.066	84.9618	268.066	85.2594	268.066	84.7849	268.066	85.1413	268.066	84.6174	268.066	85.0411	268.066	84.4713	268.066	84.9707	268.066	84.3559	268.066	84.9333	268.066	84.2758	268.066	84.923	268.066	84.2308	268.066	84.927	268.066	84.217	268.066	84.9303	268.066	84.2297	268.066	84.9202	268.066	84.2647	268.066	84.8889	268.066	84.3195	268.066	84.8343	268.066	84.3916	268.066	84.759	268.066	84.4777	268.066	84.6691	268.066	84.5726
276.855	85.6298	276.855	85.5726	276.855	85.6463	276.855	85.4775	276.855	85.6212	276.855	85.3492	276.855	85.5563	276.855	85.194	276.855	85.4566	276.855	85.0195	276.855	85.3298	276.855	84.8347	276.855	85.1867	276.855	84.6504	276.855	85.0404	276.855	84.4784	276.855	84.9054	276.855	84.3298	276.855	84.7952	276.855	84.214	276.855	84.7193	276.855	84.1365	276.855	84.6803	276.855	84.0991	276.855	84.672	276.855	84.1005	276.855	84.6807	276.855	84.1372	276.855	84.6892	276.855	84.204	276.855	84.6813	276.855	84.2933	276.855	84.6468	276.855	84.3947	276.855	84.5833	276.855	84.4957
287.109	85.6995	287.109	85.662	287.109	85.6898	287.109	85.5806	287.109	85.6344	287.109	85.4621	287.109	85.5397	287.109	85.3155	287.109	85.4178	287.109	85.1517	287.109	85.285	287.109	84.9816	287.109	85.1593	287.109	84.8162	287.109	85.0556	287.109	84.6653	287.109	84.9823	287.109	84.5368	287.109	84.9384	287.109	84.4365	287.109	84.9153	287.109	84.3672	287.109	84.9007	287.109	84.3295	287.109	84.8839	287.109	84.3218	287.109	84.8582	287.109	84.3411	287.109	84.8213	287.109	84.3831	287.109	84.774	287.109	84.442	287.109	84.7175	287.109	84.5109	287.109	84.6532	287.109	84.5832
297.363	85.9366	297.363	85.9109	297.363	85.9137	297.363	85.8354	297.363	85.8462	297.363	85.7104	297.363	85.7409	297.363	85.5378	297.363	85.6069	297.363	85.3213	297.363	85.4545	297.363	85.0685	297.363	85.294	297.363	84.7936	297.363	85.1364	297.363	84.5198	297.363	84.994	297.363	84.2779	297.363	84.8814	297.363	84.1011	297.363	84.8134	297.363	84.0137	297.363	84.7989	297.363	84.0223	297.363	84.8344	297.363	84.1137	297.363	84.9019	297.363	84.2612	297.363	84.9743	297.363	84.4359	297.363	85.0243	297.363	84.6128	297.363	85.0329	297.363	84.7731	297.363	84.9921	297.363	84.9031
307.617	85.6619	307.617	85.6018	307.617	85.6722	307.617	85.5034	307.617	85.6278	307.617	85.3821	307.617	85.5328	307.617	85.2528	307.617	85.4005	307.617	85.1266	307.617	85.2509	307.617	85.0072	307.617	85.1054	307.617	84.891	307.617	84.9785	307.617	84.7697	307.617	84.873	307.617	84.6356	307.617	84.7802	307.617	84.4879	307.617	84.6887	307.617	84.3357	307.617	84.5933	307.617	84.1982	307.617	84.5008	307.617	84.0985	307.617	84.426	307.617	84.0546	307.617	84.3802	307.617	84.0701	307.617	84.3613	307.617	84.1309	307.617	84.3524	307.617	84.2111	307.617	84.3313	307.617	84.2837
319.336	85.9052	319.336	85.8233	319.336	85.9175	319.336	85.6809	319.336	85.8573	319.336	85.4926	319.336	85.7298	319.336	85.2771	319.336	85.5496	319.336	85.0557	319.336	85.3411	319.336	84.8485	319.336	85.1354	319.336	84.67	319.336	84.9628	319.336	84.5255	319.336	84.8418	319.336	84.4109	319.336	84.7727	319.336	84.3167	319.336	84.7382	319.336	84.2345	319.336	84.7134	319.336	84.1624	319.336	84.6778	319.336	84.1058	319.336	84.6225	319.336	84.074	319.336	84.55	319.336	84.0741	319.336	84.469	319.336	84.1058	319.336	84.387	319.336	84.1616	319.336	84.3075	319.336	84.2313
329.59	85.7129	329.59	85.6409	329.59	85.7175	329.59	85.5061	329.59	85.6546	329.59	85.3168	329.59	85.5297	329.59	85.0853	329.59	85.3552	329.59	84.8277	329.59	85.1495	329.59	84.5648	329.59	84.9361	329.59	84.3196	329.59	84.7389	329.59	84.1139	329.59	84.5774	329.59	83.9624	329.59	84.462	329.59	83.8692	329.59	84.3929	329.59	83.8282	329.59	84.3617	329.59	83.8286	329.59	84.356	329.59	83.8595	329.59	84.3626	329.59	83.9139	329.59	84.3696	329.59	83.9865	329.59	84.3666	329.59	84.0711	329.59	84.346	329.59	84.1589	329.59	84.3035	329.59	84.2394
341.309	85.9081	341.309	85.8257	341.309	85.9128	341.309	85.6697	341.309	85.8429	341.309	85.4504	341.309	85.7091	341.309	85.1843	341.309	85.5289	341.309	84.8923	341.309	85.3256	341.309	84.5978	341.309	85.1249	341.309	84.3245	341.309	84.9495	341.309	84.0924	341.309	84.8136	341.309	83.9152	341.309	84.7199	341.309	83.7985	341.309	84.6624	341.309	83.7416	341.309	84.632	341.309	83.7406	341.309	84.6207	341.309	83.7908	341.309	84.622	341.309	83.8866	341.309	84.628	341.309	84.0184	341.309	84.6272	341.309	84.1706	341.309	84.6052	341.309	84.3226	341.309	84.5494	341.309	84.4537
353.027	86.0494	353.027	85.9336	353.027	86.0808	353.027	85.7424	353.027	86.0234	353.027	85.488	353.027	85.8794	353.027	85.1853	353.027	85.6594	353.027	84.8524	353.027	85.3844	353.027	84.511	353.027	85.0853	353.027	84.1869	353.027	84.7992	353.027	83.9073	353.027	84.5602	353.027	83.6954	353.027	84.3895	353.027	83.5624	353.027	84.2896	353.027	83.5038	353.027	84.2459	353.027	83.5034	353.027	84.2356	353.027	83.5426	353.027	84.2362	353.027	83.6085	353.027	84.2309	353.027	83.6939	353.027	84.2091	353.027	83.7942	353.027	84.1648	353.027	83.9019	353.027	84.0964	353.027	84.0062
366.211	85.826	366.211	85.7301	366.211	85.8326	366.211	85.5549	366.211	85.7482	366.211	85.3173	366.211	85.5806	366.211	85.0392	366.211	85.3493	366.211	84.7457	366.211	85.0853	366.211	84.4615	366.211	84.8279	366.211	84.2068	366.211	84.6155	366.211	83.9933	366.211	84.4716	366.211	83.8234	366.211	84.3954	366.211	83.6928	366.211	84.3651	366.211	83.5964	366.211	84.3512	366.211	83.5328	366.211	84.3313	366.211	83.5061	366.211	84.2965	366.211	83.522	366.211	84.2477	366.211	83.5825	366.211	84.1878	366.211	83.6803	366.211	84.1159	366.211	83.7993	366.211	84.0274	366.211	83.92
379.395	86.4281	379.395	86.3536	379.395	86.4109	379.395	86.1962	379.395	86.2975	379.395	85.967	379.395	86.0902	379.395	85.6781	379.395	85.8009	379.395	85.3433	379.395	85.4513	379.395	84.9804	379.395	85.0722	379.395	84.614	379.395	84.7004	379.395	84.2755	379.395	84.3734	379.395	83.9985	379.395	84.1241	379.395	83.8095	379.395	83.9752	379.395	83.7196	379.395	83.9347	379.395	83.7216	379.395	83.9912	379.395	83.7964	379.395	84.1146	379.395	83.9203	379.395	84.2633	379.395	84.0702	379.395	84.3957	379.395	84.224	379.395	84.4807	379.395	84.3604	379.395	84.5022	379.395	84.4588
392.578	86.3386	392.578	86.2105	392.578	86.3733	392.578	85.999	392.578	86.3098	392.578	85.7174	392.578	86.1502	392.578	85.3822	392.578	85.9058	392.578	85.0121	392.578	85.5975	392.578	84.6285	392.578	85.2558	392.578	84.2557	392.578	84.9145	392.578	83.9201	392.578	84.6026	392.578	83.647	392.578	84.337	392.578	83.4557	392.578	84.1238	392.578	83.3553	392.578	83.9671	392.578	83.344	392.578	83.8753	392.578	83.4111	392.578	83.8574	392.578	83.5396	392.578	83.9085	392.578	83.7059	392.578	84.0017	392.578	83.8802	392.578	84.0938	392.578	84.0288	392.578	84.1426	392.578	84.122
405.762	86.1621	405.762	86.0303	405.762	86.1923	405.762	85.8058	405.762	86.1172	405.762	85.5031	405.762	85.9395	405.762	85.1431	405.762	85.6709	405.762	84.7536	405.762	85.3349	405.762	84.3678	405.762	84.9687	405.762	84.0199	405.762	84.6176	405.762	83.7364	405.762	84.3241	405.762	83.528	405.762	84.1117	405.762	83.3887	405.762	83.9777	405.762	83.3023	405.762	83.9002	405.762	83.2556	405.762	83.8548	405.762	83.2453	405.762	83.8263	405.762	83.2761	405.762	83.8095	405.762	83.3505	405.762	83.7998	405.762	83.4587	405.762	83.7858	405.762	83.5778	405.762	83.7505	405.762	83.6809
420.41	86.4548	420.41	86.3437	420.41	86.4586	420.41	86.1319	420.41	86.3532	420.41	85.8286	420.41	86.1437	420.41	85.4457	420.41	85.8437	420.41	85.0003	420.41	85.477	420.41	84.5191	420.41	85.0766	420.41	84.0432	420.41	84.6796	420.41	83.6264	420.41	84.3208	420.41	83.3208	420.41	84.0244	420.41	83.1537	420.41	83.8022	420.41	83.1137	420.41	83.6567	420.41	83.1616	420.41	83.5854	420.41	83.2549	420.41	83.5808	420.41	83.3655	420.41	83.6259	420.41	83.4803	420.41	83.694	420.41	83.592	420.41	83.7535	420.41	83.6893	420.41	83.7785	420.41	83.7561
435.059	86.0699	435.059	85.9596	435.059	86.0756	435.059	85.7542	435.059	85.9735	435.059	85.4665	435.059	85.7686	435.059	85.1113	435.059	85.4766	435.059	84.7055	435.059	85.1252	435.059	84.2711	435.059	84.7528	435.059	83.8395	435.059	84.402	435.059	83.4523	435.059	84.1076	435.059	83.1549	435.059	83.8869	435.059	82.9815	435.059	83.74	435.059	82.9407	435.059	83.6593	435.059	83.0144	435.059	83.64	435.059	83.1687	435.059	83.6794	435.059	83.3681	435.059	83.7678	435.059	83.581	435.059	83.8814	435.059	83.7789	435.059	83.9844	435.059	83.9349	435.059	84.0406	435.059	84.026
451.172	86.7094	451.172	86.5543	451.172	86.7332	451.172	86.2716	451.172	86.6231	451.172	85.8655	451.172	86.3798	451.172	85.3429	451.172	86.0115	451.172	84.718	451.172	85.5402	451.172	84.0194	451.172	85.0051	451.172	83.298	451.172	84.4608	451.172	82.6309	451.172	83.9645	451.172	82.1112	451.172	83.5567	451.172	81.8161	451.172	83.2513	451.172	81.767	451.172	83.0441	451.172	81.9195	451.172	82.9288	451.172	82.1924	451.172	82.9034	451.172	82.5068	451.172	82.9601	451.172	82.8049	451.172	83.0723	451.172	83.0496	451.172	83.1954	451.172	83.2173	451.172	83.2817	451.172	83.2947
465.82	86.5785	465.82	86.4598	465.82	86.5744	465.82	86.2232	465.82	86.4448	465.82	85.8751	465.82	86.1911	465.82	85.423	465.82	85.8222	465.82	84.8786	465.82	85.359	465.82	84.2619	465.82	84.8374	465.82	83.6085	465.82	84.3074	465.82	82.9754	465.82	83.8241	465.82	82.4376	465.82	83.4328	465.82	82.0695	465.82	83.1578	465.82	81.9146	465.82	83.0028	465.82	81.9679	465.82	82.9594	465.82	82.1832	465.82	83.0127	465.82	82.4955	465.82	83.1386	465.82	82.8383	465.82	83.2996	465.82	83.1518	465.82	83.447	465.82	83.3884	465.82	83.532	465.82	83.5178
483.398	86.7492	483.398	86.618	483.398	86.7446	483.398	86.3537	483.398	86.6042	483.398	85.9611	483.398	86.3319	483.398	85.4485	483.398	85.9398	483.398	84.8309	483.398	85.4523	483.398	84.1338	483.398	84.9098	483.398	83.3993	483.398	84.3647	483.398	82.6895	483.398	83.8683	483.398	82.0853	483.398	83.4549	483.398	81.6695	483.398	83.1401	483.398	81.4982	483.398	82.9354	483.398	81.5768	483.398	82.8615	483.398	81.8613	483.398	82.9354	483.398	82.2792	483.398	83.1386	483.398	82.749	483.398	83.4043	483.398	83.1912	483.398	83.6408	483.398	83.5371	483.398	83.7676	483.398	83.7367
499.512	86.563	499.512	86.4296	499.512	86.5661	499.512	86.1688	499.512	86.4336	499.512	85.7816	499.512	86.1607	499.512	85.2696	499.512	85.748	499.512	84.641	499.512	85.2101	499.512	83.9194	499.512	84.5846	499.512	83.1527	499.512	83.935	499.512	82.4153	499.512	83.3407	499.512	81.7957	499.512	82.8698	499.512	81.3648	499.512	82.5535	499.512	81.1473	499.512	82.3847	499.512	81.1241	499.512	82.3405	499.512	81.2601	499.512	82.4008	499.512	81.5232	499.512	82.5427	499.512	81.8763	499.512	82.723	499.512	82.2624	499.512	82.8754	499.512	82.6073	499.512	82.9305	499.512	82.8426
517.09	86.7768	517.09	86.6481	517.09	86.783	517.09	86.4012	517.09	86.661	517.09	86.0386	517.09	86.406	517.09	85.5603	517.09	86.017	517.09	84.9647	517.09	85.5023	517.09	84.2535	517.09	84.8848	517.09	83.4414	517.09	84.204	517.09	82.5735	517.09	83.511	517.09	81.7419	517.09	82.8589	517.09	81.0838	517.09	82.2977	517.09	80.7319	517.09	81.8807	517.09	80.7357	517.09	81.6706	517.09	81.0351	517.09	81.7163	517.09	81.5135	517.09	82.0006	517.09	82.0541	517.09	82.417	517.09	82.5554	517.09	82.8161	517.09	82.9309	517.09	83.0719	517.09	83.1144
536.133	86.239	536.133	86.0917	536.133	86.2384	536.133	85.7989	536.133	86.0896	536.133	85.3659	536.133	85.7978	536.133	84.8037	536.133	85.3807	536.133	84.1343	536.133	84.8738	536.133	83.3943	536.133	84.328	536.133	82.6377	536.133	83.7939	536.133	81.9345	536.133	83.3003	536.133	81.3587	536.133	82.8459	536.133	80.965	536.133	82.4172	536.133	80.7673	536.133	82.0252	536.133	80.7425	536.133	81.7275	536.133	80.8605	536.133	81.6062	536.133	81.1034	536.133	81.6984	536.133	81.4496	536.133	81.9449	536.133	81.8406	536.133	82.2176	536.133	82.1822	536.133	82.3893	536.133	82.3818
555.176	86.4462	555.176	86.2643	555.176	86.4625	555.176	85.9211	555.176	86.3102	555.176	85.4237	555.176	85.9899	555.176	84.784	555.176	85.5117	555.176	84.0227	555.176	84.9036	555.176	83.1718	555.176	84.2182	555.176	82.279	555.176	83.5297	555.176	81.4151	555.176	82.911	555.176	80.6804	555.176	82.3995	555.176	80.1921	555.176	81.9876	555.176	80.0308	555.176	81.6571	555.176	80.1808	555.176	81.4276	555.176	80.5442	555.176	81.3633	555.176	81.0123	555.176	81.5115	555.176	81.5035	555.176	81.8254	555.176	81.9522	555.176	82.1713	555.176	82.2905	555.176	82.4093	555.176	82.4548
574.219	86.6034	574.219	86.3857	574.219	86.6603	574.219	86.0056	574.219	86.5566	574.219	85.4669	574.219	86.2907	574.219	84.7851	574.219	85.8634	574.219	83.9917	574.219	85.2885	574.219	83.1303	574.219	84.6023	574.219	82.2484	574.219	83.8632	574.219	81.3921	574.219	83.133	574.219	80.6089	574.219	82.4454	574.219	79.959	574.219	81.7924	574.219	79.5184	574.219	81.1584	574.219	79.3618	574.219	80.5914	574.219	79.5264	574.219	80.2497	574.219	79.9771	574.219	80.3079	574.219	80.5974	574.219	80.7424	574.219	81.2209	574.219	81.306	574.219	81.6847	574.219	81.7331	574.219	81.8719
594.727	86.2652	594.727	86.0813	594.727	86.2782	594.727	85.7141	594.727	86.1284	594.727	85.1521	594.727	85.8234	594.727	84.3941	594.727	85.3806	594.727	83.4614	594.727	84.8378	594.727	82.4093	594.727	84.2523	594.727	81.3362	594.727	83.6816	594.727	80.3821	594.727	83.1501	594.727	79.6956	594.727	82.6299	594.727	79.3591	594.727	82.0578	594.727	79.334	594.727	81.3889	594.727	79.5064	594.727	80.6692	594.727	79.7863	594.727	80.09	594.727	80.1464	594.727	79.9185	594.727	80.5773	594.727	80.2295	594.727	81.0201	594.727	80.7802	594.727	81.3549	594.727	81.2512	594.727	81.4551
615.234	86.0238	615.234	85.9073	615.234	85.9678	615.234	85.6166	615.234	85.7385	615.234	85.1479	615.234	85.3399	615.234	84.4994	615.234	84.7948	615.234	83.6758	615.234	84.1614	615.234	82.6903	615.234	83.5389	615.234	81.5734	615.234	83.0316	615.234	80.4005	615.234	82.6735	615.234	79.3341	615.234	82.3882	615.234	78.6026	615.234	82.0391	615.234	78.3321	615.234	81.5107	615.234	78.4167	615.234	80.7674	615.234	78.6614	615.234	79.9025	615.234	78.9612	615.234	79.1715	615.234	79.2937	615.234	78.8825	615.234	79.6162	615.234	79.0871	615.234	79.82	615.234	79.4964	615.234	79.7888
637.207	85.8365	637.207	85.779	637.207	85.7354	637.207	85.5481	637.207	85.4906	637.207	85.1361	637.207	85.1133	637.207	84.549	637.207	84.6143	637.207	83.8049	637.207	84.0161	637.207	82.9234	637.207	83.3734	637.207	81.9147	637.207	82.7828	637.207	80.7841	637.207	82.3422	637.207	79.571	637.207	82.0613	637.207	78.4114	637.207	81.8184	637.207	77.5555	637.207	81.4324	637.207	77.2162	637.207	80.7716	637.207	77.3621	637.207	79.8479	637.207	77.789	637.207	78.9145	637.207	78.32	637.207	78.4264	637.207	78.8286	637.207	78.5705	637.207	79.1801	637.207	78.986	637.207	79.2454
659.18	85.4554	659.18	85.4301	659.18	85.3371	659.18	85.2583	659.18	85.0655	659.18	84.9266	659.18	84.6264	659.18	84.4179	659.18	84.0244	659.18	83.7176	659.18	83.3159	659.18	82.8182	659.18	82.6325	659.18	81.727	659.18	82.1444	659.18	80.4866	659.18	81.946	659.18	79.2115	659.18	81.9663	659.18	78.1124	659.18	82.0155	659.18	77.416	659.18	81.8975	659.18	77.1854	659.18	81.4816	659.18	77.2996	659.18	80.7341	659.18	77.6215	659.18	79.7581	659.18	78.0535	659.18	78.8517	659.18	78.4688	659.18	78.4001	659.18	78.708	659.18	78.4609	659.18	78.6755
682.617	85.7979	682.617	85.7243	682.617	85.7187	682.617	85.5268	682.617	85.4479	682.617	85.2151	682.617	84.9514	682.617	84.7764	682.617	84.2231	682.617	84.1785	682.617	83.3242	682.617	83.3785	682.617	82.4319	682.617	82.3342	682.617	81.8322	682.617	81.0299	682.617	81.732	682.617	79.5446	682.617	82.0212	682.617	78.1675	682.617	82.3682	682.617	77.3589	682.617	82.4942	682.617	77.2692	682.617	82.2701	682.617	77.5435	682.617	81.6849	682.617	77.8542	682.617	80.8244	682.617	78.1478	682.617	79.8987	682.617	78.4588	682.617	79.2171	682.617	78.7279	682.617	78.9359	682.617	78.8636
707.52	85.7	707.52	85.5609	707.52	85.716	707.52	85.3024	707.52	85.5872	707.52	84.9278	707.52	85.2737	707.52	84.4639	707.52	84.7334	707.52	83.9657	707.52	83.9524	707.52	83.4772	707.52	82.9947	707.52	82.9588	707.52	82.0693	707.52	82.2611	707.52	81.5134	707.52	81.1974	707.52	81.5049	707.52	79.684	707.52	81.8011	707.52	77.9384	707.52	81.9916	707.52	76.6281	707.52	81.806	707.52	76.3181	707.52	81.1517	707.52	76.6984	707.52	80.0982	707.52	77.2482	707.52	78.9425	707.52	77.7458	707.52	78.1838	707.52	78.0713	707.52	78.0373	707.52	78.1351
732.422	85.6145	732.422	85.4626	732.422	85.664	732.422	85.2522	732.422	85.5518	732.422	85.0064	732.422	85.2169	732.422	84.7374	732.422	84.6116	732.422	84.4495	732.422	83.7221	732.422	84.1165	732.422	82.6185	732.422	83.6605	732.422	81.5453	732.422	82.9691	732.422	80.9411	732.422	81.9443	732.422	81.0825	732.422	80.5585	732.422	81.6906	732.422	78.9309	732.422	82.2622	732.422	77.4243	732.422	82.4732	732.422	76.568	732.422	82.1972	732.422	76.5692	732.422	81.4423	732.422	77.09	732.422	80.3637	732.422	77.6957	732.422	79.3103	732.422	78.1355	732.422	78.6547	732.422	78.3788
757.324	85.2407	757.324	84.9804	757.324	85.4016	757.324	84.7079	757.324	85.367	757.324	84.483	757.324	85.0521	757.324	84.3225	757.324	84.4076	757.324	84.1888	757.324	83.4513	757.324	83.9906	757.324	82.3143	757.324	83.605	757.324	81.301	757.324	82.9167	757.324	80.8594	757.324	81.8563	757.324	81.2024	757.324	80.4313	757.324	81.9757	757.324	78.7564	757.324	82.652	757.324	77.0867	757.324	82.913	757.324	75.8343	757.324	82.6275	757.324	75.4302	757.324	81.764	757.324	75.8869	757.324	80.4122	757.324	76.6717	757.324	78.9283	757.324	77.2574	757.324	77.9163	757.324	77.537
785.156	84.4188	785.156	83.9926	785.156	84.83	785.156	83.7464	785.156	85.0485	785.156	83.7843	785.156	84.9508	785.156	84.0478	785.156	84.4481	785.156	84.3582	785.156	83.4654	785.156	84.5031	785.156	81.9758	785.156	84.3032	785.156	80.1814	785.156	83.6498	785.156	78.9292	785.156	82.5158	785.156	79.3076	785.156	80.947	785.156	80.7684	785.156	79.052	785.156	82.1295	785.156	77.0044	785.156	82.8882	785.156	75.052	785.156	82.8988	785.156	73.4907	785.156	82.0889	785.156	72.5639	785.156	80.4063	785.156	72.3114	785.156	77.9241	785.156	72.5249	785.156	75.1744	785.156	73.271
811.523	85.1428	811.523	84.3013	811.523	85.8299	811.523	83.5289	811.523	86.2182	811.523	83.1134	811.523	86.1988	811.523	83.2115	811.523	85.6746	811.523	83.6467	811.523	84.561	811.523	84.0471	811.523	82.788	811.523	84.1036	811.523	80.3152	811.523	83.6599	811.523	77.5584	811.523	82.7017	811.523	76.9925	811.523	81.3312	811.523	79.4432	811.523	79.7187	811.523	81.9194	811.523	78.0178	811.523	83.5168	811.523	76.3136	811.523	84.2707	811.523	74.7698	811.523	84.2634	811.523	73.9102	811.523	83.5251	811.523	74.2785	811.523	82.0851	811.523	75.7127	811.523	80.0666	811.523	77.7852
840.82	86.3226	840.82	85.4518	840.82	86.9464	840.82	84.404	840.82	87.294	840.82	83.3725	840.82	87.3297	840.82	82.6959	840.82	87.0079	840.82	82.6267	840.82	86.2798	840.82	83.0195	840.82	85.0733	840.82	83.4694	840.82	83.234	840.82	83.6539	840.82	80.4857	840.82	83.4474	840.82	76.7962	840.82	82.8892	840.82	75.2952	840.82	82.1116	840.82	78.3889	840.82	81.2448	840.82	81.4004	840.82	80.3412	840.82	83.3565	840.82	79.4092	840.82	84.3712	840.82	78.5928	840.82	84.5096	840.82	78.339	840.82	83.8214	840.82	79.0983	840.82	82.4417	840.82	80.6828
870.117	86.6968	870.117	86.0873	870.117	87.0248	870.117	85.1829	870.117	87.1216	870.117	84.0829	870.117	87.0137	870.117	83.0616	870.117	86.6826	870.117	82.5075	870.117	86.0814	870.117	82.5677	870.117	85.1427	870.117	82.8851	870.117	83.748	870.117	82.9729	870.117	81.6977	870.117	82.6112	870.117	78.811	870.117	81.8881	870.117	75.7771	870.117	81.0779	870.117	75.8812	870.117	80.4505	870.117	78.5926	870.117	80.1045	870.117	80.9674	870.117	79.989	870.117	82.5227	870.117	80.0895	870.117	83.3161	870.117	80.5	870.117	83.4325	870.117	81.2531	870.117	82.991	870.117	82.1778
900.879	86.6138	900.879	86.1269	900.879	86.8369	900.879	85.383	900.879	86.824	900.879	84.4328	900.879	86.6121	900.879	83.3713	900.879	86.2226	900.879	82.3661	900.879	85.6435	900.879	81.6601	900.879	84.8182	900.879	81.3402	900.879	83.6364	900.879	81.1554	900.879	81.9419	900.879	80.8465	900.879	79.6024	900.879	80.4273	900.879	76.8436	900.879	80.0684	900.879	75.3596	900.879	79.8758	900.879	76.8462	900.879	79.796	900.879	79.2359	900.879	79.7028	900.879	81.0816	900.879	79.6182	900.879	82.1385	900.879	79.7937	900.879	82.4305	900.879	80.416	900.879	82.08	900.879	81.3027
933.105	86.3589	933.105	86.1296	933.105	86.3056	933.105	85.5917	933.105	86.0354	933.105	84.7589	933.105	85.6175	933.105	83.6706	933.105	85.0897	933.105	82.4412	933.105	84.4625	933.105	81.3438	933.105	83.7292	933.105	80.6643	933.105	82.8445	933.105	80.3866	933.105	81.7191	933.105	80.3124	933.105	80.2645	933.105	80.3176	933.105	78.5091	933.105	80.3223	933.105	76.9202	933.105	80.2243	933.105	76.6585	933.105	79.9142	933.105	77.9715	933.105	79.4039	933.105	79.6231	933.105	79.0285	933.105	80.8779	933.105	79.3158	933.105	81.5721	933.105	80.2353	933.105	81.6689	933.105	81.1729
965.332	86.3519	965.332	86.066	965.332	86.3315	965.332	85.4682	965.332	86.0448	965.332	84.5843	965.332	85.5588	965.332	83.4705	965.332	84.9526	965.332	82.2448	965.332	84.283	965.332	81.1391	965.332	83.5296	965.332	80.3888	965.332	82.5639	965.332	79.9332	965.332	81.2123	965.332	79.4526	965.332	79.4155	965.332	78.7633	965.332	77.45	965.332	78.1073	965.332	76.1482	965.332	78.0529	965.332	76.3956	965.332	78.6248	965.332	77.8652	965.332	79.1818	965.332	79.5413	965.332	79.3783	965.332	80.7682	965.332	79.4398	965.332	81.3043	965.332	79.8133	965.332	81.1597	965.332	80.5302
1,000.49	85.4265	1,000.49	85.1917	1,000.49	85.408	1,000.49	84.7408	1,000.49	85.136	1,000.49	84.1093	1,000.49	84.6642	1,000.49	83.3023	1,000.49	84.0765	1,000.49	82.3299	1,000.49	83.4092	1,000.49	81.2731	1,000.49	82.5957	1,000.49	80.2618	1,000.49	81.5441	1,000.49	79.3859	1,000.49	80.2741	1,000.49	78.6941	1,000.49	78.9536	1,000.49	78.2191	1,000.49	77.7922	1,000.49	77.9552	1,000.49	76.9122	1,000.49	77.8989	1,000.49	76.4013	1,000.49	78.0048	1,000.49	76.5276	1,000.49	78.1294	1,000.49	77.5021	1,000.49	78.2432	1,000.49	78.8604	1,000.49	78.5906	1,000.49	79.915	1,000.49	79.3134	1,000.49	80.3242	1,000.49	80.0502
1,035.64	85.9121	1,035.64	85.9256	1,035.64	85.6538	1,035.64	85.6435	1,035.64	85.2209	1,035.64	85.0038	1,035.64	84.7159	1,035.64	83.9489	1,035.64	84.2144	1,035.64	82.4651	1,035.64	83.6791	1,035.64	80.6063	1,035.64	82.9612	1,035.64	78.6126	1,035.64	81.9345	1,035.64	77.1355	1,035.64	80.6368	1,035.64	76.8355	1,035.64	79.2427	1,035.64	77.4191	1,035.64	77.8768	1,035.64	78.0613	1,035.64	76.6261	1,035.64	78.3386	1,035.64	75.9109	1,035.64	78.3416	1,035.64	76.1523	1,035.64	78.3243	1,035.64	76.852	1,035.64	78.377	1,035.64	77.4765	1,035.64	78.5033	1,035.64	78.0712	1,035.64	78.7171	1,035.64	78.6147	1,035.64	78.8415
1,072.27	85.4583	1,072.27	85.5318	1,072.27	85.1888	1,072.27	85.3289	1,072.27	84.7462	1,072.27	84.6873	1,072.27	84.1325	1,072.27	83.4083	1,072.27	83.362	1,072.27	81.427	1,072.27	82.4983	1,072.27	79.1414	1,072.27	81.6501	1,072.27	77.6208	1,072.27	80.8686	1,072.27	77.5449	1,072.27	80.0505	1,072.27	78.0157	1,072.27	79.0746	1,072.27	77.9556	1,072.27	78.13	1,072.27	77.261	1,072.27	77.5953	1,072.27	76.5928	1,072.27	77.1884	1,072.27	76.4494	1,072.27	76.3432	1,072.27	76.5665	1,072.27	75.6441	1,072.27	76.6336	1,072.27	76.2923	1,072.27	76.7959	1,072.27	77.3972	1,072.27	77.2501	1,072.27	77.9001	1,072.27	77.7548
1,108.89	85.0673	1,108.89	85.1069	1,108.89	84.896	1,108.89	84.9542	1,108.89	84.5838	1,108.89	84.468	1,108.89	84.1077	1,108.89	83.4989	1,108.89	83.4673	1,108.89	82.0268	1,108.89	82.6718	1,108.89	80.2988	1,108.89	81.7229	1,108.89	78.7866	1,108.89	80.6272	1,108.89	77.7657	1,108.89	79.3952	1,108.89	77.0904	1,108.89	78.0349	1,108.89	76.681	1,108.89	76.7061	1,108.89	76.6435	1,108.89	76.0557	1,108.89	76.8727	1,108.89	76.4962	1,108.89	77.1614	1,108.89	77.1942	1,108.89	77.368	1,108.89	77.319	1,108.89	77.3792	1,108.89	76.7878	1,108.89	77.2516	1,108.89	76.3116	1,108.89	77.1874	1,108.89	76.59	1,108.89	77.051
1,148.44	85.135	1,148.44	85.2267	1,148.44	84.8406	1,148.44	84.9934	1,148.44	84.4327	1,148.44	84.2858	1,148.44	83.9536	1,148.44	83.0204	1,148.44	83.3618	1,148.44	81.3858	1,148.44	82.5476	1,148.44	79.9775	1,148.44	81.4222	1,148.44	79.3515	1,148.44	80.007	1,148.44	79.2087	1,148.44	78.4457	1,148.44	78.7162	1,148.44	76.9975	1,148.44	77.5372	1,148.44	76.1268	1,148.44	76.3327	1,148.44	76.232	1,148.44	76.167	1,148.44	76.8912	1,148.44	76.7353	1,148.44	77.2827	1,148.44	76.9841	1,148.44	77.1288	1,148.44	76.6053	1,148.44	76.8808	1,148.44	76.1741	1,148.44	76.9746	1,148.44	76.3746	1,148.44	77.105	1,148.44	76.8826
1,189.45	85.1204	1,189.45	85.0851	1,189.45	84.8581	1,189.45	84.7453	1,189.45	84.327	1,189.45	84.0575	1,189.45	83.6084	1,189.45	83.0006	1,189.45	82.8102	1,189.45	81.768	1,189.45	82.0417	1,189.45	80.7419	1,189.45	81.343	1,189.45	80.0145	1,189.45	80.4998	1,189.45	79.3204	1,189.45	79.0532	1,189.45	78.5926	1,189.45	76.8268	1,189.45	77.9644	1,189.45	74.64	1,189.45	77.3704	1,189.45	73.8993	1,189.45	76.5569	1,189.45	74.5109	1,189.45	75.4466	1,189.45	75.4651	1,189.45	74.8207	1,189.45	75.8829	1,189.45	75.3239	1,189.45	75.2886	1,189.45	75.9913	1,189.45	74.5589	1,189.45	76.1552	1,189.45	75.0036	1,189.45	75.7978
1,230.47	85.6722	1,230.47	85.5169	1,230.47	85.296	1,230.47	84.8327	1,230.47	84.502	1,230.47	83.7424	1,230.47	83.5511	1,230.47	82.5303	1,230.47	82.7535	1,230.47	81.5391	1,230.47	82.1565	1,230.47	80.7785	1,230.47	81.4214	1,230.47	79.8512	1,230.47	80.203	1,230.47	78.6654	1,230.47	78.6409	1,230.47	77.9319	1,230.47	77.2872	1,230.47	77.9348	1,230.47	76.2597	1,230.47	77.8461	1,230.47	75.2677	1,230.47	77.296	1,230.47	75.1898	1,230.47	76.8208	1,230.47	76.3352	1,230.47	76.7023	1,230.47	76.9332	1,230.47	76.349	1,230.47	76.581	1,230.47	75.5303	1,230.47	76.0637	1,230.47	74.8903	1,230.47	75.6104	1,230.47	75.052
1,274.41	85.921	1,274.41	85.6762	1,274.41	85.5387	1,274.41	84.925	1,274.41	84.5556	1,274.41	83.885	1,274.41	83.1755	1,274.41	82.756	1,274.41	81.8026	1,274.41	81.5849	1,274.41	80.8845	1,274.41	80.3028	1,274.41	80.4323	1,274.41	78.9184	1,274.41	79.9574	1,274.41	77.6059	1,274.41	79.0643	1,274.41	76.4666	1,274.41	77.8087	1,274.41	75.5457	1,274.41	76.5354	1,274.41	75.6801	1,274.41	75.345	1,274.41	76.8965	1,274.41	74.5886	1,274.41	77.6492	1,274.41	74.9521	1,274.41	77.0539	1,274.41	75.4829	1,274.41	75.288	1,274.41	75.5478	1,274.41	73.9587	1,274.41	75.5935	1,274.41	74.3184	1,274.41	75.5584	1,274.41	75.1147
1,319.82	86.1073	1,319.82	86.0869	1,319.82	85.6914	1,319.82	85.6421	1,319.82	84.7795	1,319.82	84.6806	1,319.82	83.3383	1,319.82	83.167	1,319.82	81.5131	1,319.82	81.4575	1,319.82	79.8344	1,319.82	80.167	1,319.82	78.8863	1,319.82	79.375	1,319.82	78.361	1,319.82	78.5905	1,319.82	77.603	1,319.82	77.6409	1,319.82	76.8182	1,319.82	76.6788	1,319.82	76.5195	1,319.82	75.8926	1,319.82	75.9696	1,319.82	75.6926	1,319.82	73.9998	1,319.82	76.2929	1,319.82	73.1834	1,319.82	76.6918	1,319.82	75.5455	1,319.82	75.9284	1,319.82	76.7015	1,319.82	74.4071	1,319.82	76.3149	1,319.82	73.8913	1,319.82	75.4523	1,319.82	74.6163
1,366.7	86.0003	1,366.7	86.0401	1,366.7	85.6478	1,366.7	85.7682	1,366.7	84.8915	1,366.7	85.0398	1,366.7	83.7174	1,366.7	83.8299	1,366.7	82.2199	1,366.7	82.4328	1,366.7	80.5429	1,366.7	80.9275	1,366.7	78.8586	1,366.7	79.0219	1,366.7	77.3448	1,366.7	77.4533	1,366.7	76.269	1,366.7	76.7487	1,366.7	76.4002	1,366.7	75.7994	1,366.7	77.5397	1,366.7	74.6418	1,366.7	77.2676	1,366.7	75.0056	1,366.7	74.7369	1,366.7	76.9966	1,366.7	73.9598	1,366.7	78.0981	1,366.7	76.1351	1,366.7	77.7597	1,366.7	76.7784	1,366.7	76.7824	1,366.7	76.8327	1,366.7	76.6497	1,366.7	77.3816	1,366.7	77.308
1,413.57	86.8144	1,413.57	86.785	1,413.57	86.3337	1,413.57	86.1097	1,413.57	85.4216	1,413.57	84.8582	1,413.57	84.2235	1,413.57	83.5592	1,413.57	82.9613	1,413.57	82.6323	1,413.57	81.5305	1,413.57	81.3684	1,413.57	79.9843	1,413.57	78.7411	1,413.57	79.0263	1,413.57	74.3276	1,413.57	78.444	1,413.57	69.9283	1,413.57	76.7715	1,413.57	68.6954	1,413.57	74.6012	1,413.57	71.2846	1,413.57	75.6617	1,413.57	74.4356	1,413.57	75.5961	1,413.57	76.954	1,413.57	72.2764	1,413.57	78.7614	1,413.57	73.8939	1,413.57	79.5515	1,413.57	76.5855	1,413.57	79.3044	1,413.57	76.9265	1,413.57	78.8586	1,413.57	77.8977	1,413.57	78.7402
1,463.38	86.0739	1,463.38	86.1361	1,463.38	85.8628	1,463.38	85.7037	1,463.38	85.6435	1,463.38	84.8342	1,463.38	85.1511	1,463.38	84.0628	1,463.38	84.0483	1,463.38	83.3579	1,463.38	82.3317	1,463.38	81.8111	1,463.38	80.4384	1,463.38	78.8196	1,463.38	78.8528	1,463.38	76.0673	1,463.38	77.8448	1,463.38	76.4358	1,463.38	77.1947	1,463.38	77.2765	1,463.38	76.4661	1,463.38	74.8909	1,463.38	76.3324	1,463.38	71.2072	1,463.38	76.3688	1,463.38	77.0829	1,463.38	74.2757	1,463.38	80.0282	1,463.38	71.9928	1,463.38	79.8973	1,463.38	75.7716	1,463.38	77.8842	1,463.38	77.1007	1,463.38	76.0278	1,463.38	76.2731	1,463.38	75.6802
1,516.11	85.0059	1,516.11	85.1439	1,516.11	84.956	1,516.11	85.0602	1,516.11	84.9636	1,516.11	84.5834	1,516.11	84.6473	1,516.11	83.7303	1,516.11	83.6329	1,516.11	82.4937	1,516.11	82.0447	1,516.11	81.2141	1,516.11	80.4477	1,516.11	79.5835	1,516.11	79.0763	1,516.11	77.9754	1,516.11	78.2389	1,516.11	77.4383	1,516.11	77.8389	1,516.11	79.0667	1,516.11	76.9474	1,516.11	78.5266	1,516.11	75.6683	1,516.11	73.5238	1,516.11	74.7739	1,516.11	69.5495	1,516.11	73.7331	1,516.11	76.3288	1,516.11	74.4731	1,516.11	78.5271	1,516.11	75.7031	1,516.11	77.702	1,516.11	75.1409	1,516.11	76.2801	1,516.11	75.5552	1,516.11	76.2596
1,568.85	84.6394	1,568.85	84.681	1,568.85	84.6226	1,568.85	84.7374	1,568.85	84.6034	1,568.85	84.7794	1,568.85	84.2052	1,568.85	84.345	1,568.85	83.1215	1,568.85	82.8764	1,568.85	81.764	1,568.85	80.9952	1,568.85	80.5283	1,568.85	80.0582	1,568.85	78.7719	1,568.85	79.3895	1,568.85	76.5268	1,568.85	78.4102	1,568.85	75.7828	1,568.85	78.987	1,568.85	76.5275	1,568.85	79.0834	1,568.85	76.8337	1,568.85	76.7212	1,568.85	76.9122	1,568.85	72.591	1,568.85	76.4498	1,568.85	76.7001	1,568.85	74.5682	1,568.85	78.959	1,568.85	72.9579	1,568.85	77.328	1,568.85	72.4231	1,568.85	73.05	1,568.85	70.5831	1,568.85	69.8054
1,624.51	84.9328	1,624.51	84.552	1,624.51	84.8925	1,624.51	84.0084	1,624.51	84.3902	1,624.51	83.9102	1,624.51	83.2359	1,624.51	83.99	1,624.51	81.6879	1,624.51	83.004	1,624.51	80.8645	1,624.51	80.6422	1,624.51	80.9715	1,624.51	78.7605	1,624.51	80.4265	1,624.51	78.2371	1,624.51	77.7412	1,624.51	76.3314	1,624.51	73.9512	1,624.51	74.4908	1,624.51	76.8525	1,624.51	76.5173	1,624.51	77.6918	1,624.51	77.0007	1,624.51	75.1322	1,624.51	75.3438	1,624.51	74.4787	1,624.51	76.0512	1,624.51	73.8326	1,624.51	78.617	1,624.51	72.4272	1,624.51	78.1888	1,624.51	75.3794	1,624.51	75.2314	1,624.51	75.4489	1,624.51	73.8317
1,681.64	85.9778	1,681.64	85.3755	1,681.64	85.8641	1,681.64	84.6454	1,681.64	84.8789	1,681.64	84.4191	1,681.64	83.0446	1,681.64	84.0594	1,681.64	81.0793	1,681.64	82.4375	1,681.64	80.4075	1,681.64	80.1288	1,681.64	80.9919	1,681.64	79.9784	1,681.64	81.2315	1,681.64	80.8965	1,681.64	79.3824	1,681.64	79.1952	1,681.64	75.9049	1,681.64	75.2546	1,681.64	76.3016	1,681.64	75.4955	1,681.64	76.7663	1,681.64	77.0791	1,681.64	74.4634	1,681.64	76.2349	1,681.64	76.2284	1,681.64	78.1717	1,681.64	77.2142	1,681.64	80.1484	1,681.64	71.8373	1,681.64	79.1203	1,681.64	68.0244	1,681.64	76.1594	1,681.64	71.1473	1,681.64	72.7207
1,741.7	86.0274	1,741.7	85.7426	1,741.7	85.5586	1,741.7	85.4015	1,741.7	84.3186	1,741.7	85.3207	1,741.7	83.2263	1,741.7	84.8796	1,741.7	82.8791	1,741.7	83.4351	1,741.7	82.2637	1,741.7	81.4139	1,741.7	81.397	1,741.7	78.9324	1,741.7	81.2849	1,741.7	77.8492	1,741.7	80.0613	1,741.7	76.1784	1,741.7	75.4941	1,741.7	71.4439	1,741.7	73.3601	1,741.7	68.6259	1,741.7	77.7359	1,741.7	71.5032	1,741.7	78.3666	1,741.7	71.5644	1,741.7	76.6123	1,741.7	73.1651	1,741.7	76.9265	1,741.7	76.7204	1,741.7	75.7754	1,741.7	78.6448	1,741.7	72.1957	1,741.7	78.2992	1,741.7	73.7535	1,741.7	76.4104
1,803.22	85.7742	1,803.22	86.1896	1,803.22	85.668	1,803.22	86.6986	1,803.22	85.3357	1,803.22	86.085	1,803.22	84.5376	1,803.22	83.973	1,803.22	83.1131	1,803.22	81.4814	1,803.22	81.4659	1,803.22	80.1423	1,803.22	80.4569	1,803.22	79.2989	1,803.22	79.9441	1,803.22	78.8947	1,803.22	78.8806	1,803.22	80.0902	1,803.22	76.5091	1,803.22	79.9271	1,803.22	73.8455	1,803.22	76.3923	1,803.22	76.8054	1,803.22	69.1527	1,803.22	79.2034	1,803.22	69.8486	1,803.22	79.2073	1,803.22	74.6294	1,803.22	78.1049	1,803.22	77.6951	1,803.22	76.1021	1,803.22	78.8425	1,803.22	73.0603	1,803.22	77.7392	1,803.22	72.1831	1,803.22	74.8941
1,866.21	84.9818	1,866.21	85.9854	1,866.21	85.1512	1,866.21	86.8298	1,866.21	85.5316	1,866.21	85.8445	1,866.21	85.1311	1,866.21	83.0822	1,866.21	83.8988	1,866.21	81.1995	1,866.21	82.4331	1,866.21	81.1132	1,866.21	80.9308	1,866.21	79.7578	1,866.21	79.1462	1,866.21	76.7197	1,866.21	77.4408	1,866.21	76.1061	1,866.21	75.5265	1,866.21	77.1347	1,866.21	73.4643	1,866.21	76.5023	1,866.21	75.936	1,866.21	73.8644	1,866.21	77.7686	1,866.21	68.0428	1,866.21	78.0405	1,866.21	70.5415	1,866.21	78.5742	1,866.21	76.5242	1,866.21	77.3628	1,866.21	78.3308	1,866.21	73.6392	1,866.21	77.0087	1,866.21	71.0532	1,866.21	73.5595
1,932.13	85.1532	1,932.13	86.0473	1,932.13	84.7403	1,932.13	86.1467	1,932.13	85.1536	1,932.13	84.7319	1,932.13	85.3786	1,932.13	83.1989	1,932.13	84.7184	1,932.13	82.8275	1,932.13	83.1417	1,932.13	81.304	1,932.13	81.1849	1,932.13	77.083	1,932.13	79.2193	1,932.13	72.4271	1,932.13	77.4316	1,932.13	73.8789	1,932.13	75.5879	1,932.13	76.5439	1,932.13	72.7408	1,932.13	76.3466	1,932.13	74.8451	1,932.13	74.1822	1,932.13	77.6664	1,932.13	69.4903	1,932.13	77.5941	1,932.13	70.4162	1,932.13	77.9411	1,932.13	74.9384	1,932.13	77.5396	1,932.13	76.3852	1,932.13	74.8352	1,932.13	75.3113	1,932.13	72.1472	1,932.13	72.7929
1,999.51	85.9862	1,999.51	85.9398	1,999.51	85.4726	1,999.51	85.0267	1,999.51	85.4881	1,999.51	83.9379	1,999.51	85.6967	1,999.51	83.4556	1,999.51	84.9596	1,999.51	82.7653	1,999.51	83.2859	1,999.51	81.1168	1,999.51	81.2722	1,999.51	79.0002	1,999.51	78.8927	1,999.51	75.4889	1,999.51	75.9805	1,999.51	71.2058	1,999.51	73.705	1,999.51	74.6408	1,999.51	71.457	1,999.51	77.2719	1,999.51	70.4206	1,999.51	77.0655	1,999.51	75.0169	1,999.51	71.2332	1,999.51	75.7137	1,999.51	66.7317	1,999.51	75.6185	1,999.51	74.145	1,999.51	76.8393	1,999.51	75.1339	1,999.51	75.6488	1,999.51	73.3919	1,999.51	72.6951	1,999.51	71.5075
2,069.82	86.4231	2,069.82	85.7662	2,069.82	85.7878	2,069.82	83.8535	2,069.82	85.0313	2,069.82	82.5656	2,069.82	84.7748	2,069.82	82.7765	2,069.82	84.2943	2,069.82	82.3629	2,069.82	83.0312	2,069.82	79.7891	2,069.82	81.1873	2,069.82	75.3964	2,069.82	79.3789	2,069.82	72.6868	2,069.82	77.291	2,069.82	70.1305	2,069.82	73.6677	2,069.82	67.7159	2,069.82	69.9099	2,069.82	75.2187	2,069.82	69.146	2,069.82	76.9796	2,069.82	72.0757	2,069.82	73.0866	2,069.82	73.4806	2,069.82	63.643	2,069.82	73.588	2,069.82	72.8473	2,069.82	75.2158	2,069.82	73.8281	2,069.82	74.6651	2,069.82	71.6043	2,069.82	72.0638	2,069.82	70.3233
2,143.07	86.5032	2,143.07	85.6425	2,143.07	86.449	2,143.07	84.251	2,143.07	85.7035	2,143.07	83.1139	2,143.07	84.7791	2,143.07	81.9619	2,143.07	83.9285	2,143.07	80.0256	2,143.07	82.7878	2,143.07	77.9603	2,143.07	80.9351	2,143.07	77.3495	2,143.07	78.4874	2,143.07	76.1445	2,143.07	75.8178	2,143.07	72.6619	2,143.07	72.0474	2,143.07	69.7065	2,143.07	65.432	2,143.07	73.2925	2,143.07	66.3914	2,143.07	75.678	2,143.07	70.1335	2,143.07	73.5482	2,143.07	71.5968	2,143.07	62.2142	2,143.07	71.6699	2,143.07	69.7552	2,143.07	74.014	2,143.07	72.8649	2,143.07	74.9019	2,143.07	71.3515	2,143.07	73.0396	2,143.07	70.6519
2,219.24	85.6449	2,219.24	85.0762	2,219.24	86.0154	2,219.24	84.3587	2,219.24	85.8264	2,219.24	83.0704	2,219.24	84.9408	2,219.24	81.1247	2,219.24	83.525	2,219.24	78.959	2,219.24	81.8847	2,219.24	76.7356	2,219.24	79.5334	2,219.24	75.1308	2,219.24	76.6186	2,219.24	74.3381	2,219.24	75.4525	2,219.24	72.449	2,219.24	74.1828	2,219.24	67.0962	2,219.24	68.7837	2,219.24	70.1256	2,219.24	58.2835	2,219.24	73.7612	2,219.24	66.319	2,219.24	72.4189	2,219.24	69.4165	2,219.24	62.8548	2,219.24	70.9378	2,219.24	67.6943	2,219.24	72.8127	2,219.24	70.9434	2,219.24	72.3043	2,219.24	69.6731	2,219.24	70.088	2,219.24	68.5252
2,296.88	84.7683	2,296.88	84.6307	2,296.88	85.1187	2,296.88	84.4949	2,296.88	85.2872	2,296.88	83.3261	2,296.88	84.877	2,296.88	80.7257	2,296.88	83.5763	2,296.88	78.0727	2,296.88	81.1725	2,296.88	76.9854	2,296.88	77.882	2,296.88	75.9765	2,296.88	75.5516	2,296.88	73.2967	2,296.88	74.1701	2,296.88	71.4983	2,296.88	72.0688	2,296.88	68.5885	2,296.88	69.9005	2,296.88	67.0443	2,296.88	68.1346	2,296.88	72.8973	2,296.88	69.6431	2,296.88	73.6776	2,296.88	70.5585	2,296.88	66.2561	2,296.88	65.9647	2,296.88	65.5884	2,296.88	72.6824	2,296.88	70.7236	2,296.88	73.7752	2,296.88	68.6848	2,296.88	70.3204	2,296.88	66.7396
2,378.91	85.2906	2,378.91	84.5183	2,378.91	84.8934	2,378.91	83.2281	2,378.91	84.1819	2,378.91	81.932	2,378.91	83.7089	2,378.91	79.8871	2,378.91	82.47	2,378.91	77.7699	2,378.91	80.0855	2,378.91	77.323	2,378.91	77.2762	2,378.91	76.8039	2,378.91	74.0278	2,378.91	71.6655	2,378.91	67.0909	2,378.91	61.7513	2,378.91	56.4351	2,378.91	65.8426	2,378.91	65.2763	2,378.91	69.1276	2,378.91	67.2885	2,378.91	72.1567	2,378.91	68.6286	2,378.91	73.4588	2,378.91	70.4474	2,378.91	68.5779	2,378.91	61.3003	2,378.91	61.7289	2,378.91	69.484	2,378.91	68.9145	2,378.91	73.1688	2,378.91	68.8833	2,378.91	71.5147	2,378.91	69.4199
2,462.4	87.136	2,462.4	85.6682	2,462.4	86.6533	2,462.4	83.0134	2,462.4	84.4323	2,462.4	80.9417	2,462.4	81.6918	2,462.4	79.4082	2,462.4	79.8096	2,462.4	77.1779	2,462.4	77.6776	2,462.4	75.5514	2,462.4	74.076	2,462.4	74.5979	2,462.4	69.757	2,462.4	72.2315	2,462.4	67.7504	2,462.4	68.3383	2,462.4	69.3942	2,462.4	66.899	2,462.4	63.222	2,462.4	70.0817	2,462.4	60.0713	2,462.4	71.8085	2,462.4	61.2417	2,462.4	72.8554	2,462.4	67.6588	2,462.4	69.2238	2,462.4	63.1908	2,462.4	58.28	2,462.4	64.4737	2,462.4	65.936	2,462.4	71.659	2,462.4	70.3763	2,462.4	72.2294	2,462.4	72.2604
2,548.83	87.4621	2,548.83	85.8788	2,548.83	87.6569	2,548.83	83.6291	2,548.83	85.6645	2,548.83	81.1379	2,548.83	81.2997	2,548.83	79.1212	2,548.83	76.5645	2,548.83	76.6285	2,548.83	73.0056	2,548.83	74.2265	2,548.83	68.9281	2,548.83	73.9603	2,548.83	69.0833	2,548.83	72.3299	2,548.83	70.5061	2,548.83	68.1767	2,548.83	72.0636	2,548.83	66.6771	2,548.83	68.3931	2,548.83	71.9401	2,548.83	63.8768	2,548.83	73.3029	2,548.83	60.2763	2,548.83	72.5385	2,548.83	64.9047	2,548.83	68.7058	2,548.83	69.4631	2,548.83	61.0808	2,548.83	55.0967	2,548.83	65.6352	2,548.83	71.9229	2,548.83	72.054	2,548.83	74.7161	2,548.83	74.8271
2,639.65	86.7318	2,639.65	85.4421	2,639.65	87.1621	2,639.65	83.3399	2,639.65	85.7665	2,639.65	79.9875	2,639.65	81.866	2,639.65	77.5873	2,639.65	74.2367	2,639.65	75.855	2,639.65	55.9237	2,639.65	70.8121	2,639.65	59.3063	2,639.65	69.597	2,639.65	64.2246	2,639.65	72.8526	2,639.65	66.4718	2,639.65	72.4793	2,639.65	69.4181	2,639.65	60.6778	2,639.65	69.2214	2,639.65	70.2371	2,639.65	69.6473	2,639.65	75.1199	2,639.65	70.8025	2,639.65	74.8417	2,639.65	46.38	2,639.65	70.4733	2,639.65	69.4439	2,639.65	67.415	2,639.65	61.2231	2,639.65	69.4071	2,639.65	70.0656	2,639.65	72.2995	2,639.65	74.7468	2,639.65	74.5976
2,731.93	85.6361	2,731.93	84.2063	2,731.93	85.7178	2,731.93	81.468	2,731.93	84.5316	2,731.93	77.4776	2,731.93	81.2711	2,731.93	74.015	2,731.93	73.0971	2,731.93	74.4511	2,731.93	63.039	2,731.93	72.6725	2,731.93	68.9451	2,731.93	70.9552	2,731.93	67.8664	2,731.93	72.7292	2,731.93	65.0023	2,731.93	72.8752	2,731.93	67.9967	2,731.93	68.2272	2,731.93	70.1917	2,731.93	64.093	2,731.93	68.3885	2,731.93	73.1988	2,731.93	69.2177	2,731.93	74.2326	2,731.93	65.4116	2,731.93	68.7033	2,731.93	61.2178	2,731.93	66.2147	2,731.93	57.6183	2,731.93	66.1432	2,731.93	65.3173	2,731.93	65.4918	2,731.93	69.5381	2,731.93	67.3635
2,828.61	85.835	2,828.61	84.0708	2,828.61	85.538	2,828.61	80.4997	2,828.61	83.3138	2,828.61	74.9918	2,828.61	79.3519	2,828.61	72.1565	2,828.61	71.2872	2,828.61	74.6646	2,828.61	65.535	2,828.61	74.3566	2,828.61	73.8822	2,828.61	73.1023	2,828.61	72.7281	2,828.61	71.8823	2,828.61	70.3356	2,828.61	70.9759	2,828.61	69.0321	2,828.61	67.9653	2,828.61	68.132	2,828.61	62.2849	2,828.61	68.9904	2,828.61	71.7219	2,828.61	68.9978	2,828.61	74.057	2,828.61	67.1592	2,828.61	69.4245	2,828.61	62.7165	2,828.61	66.5776	2,828.61	57.867	2,828.61	66.0718	2,828.61	61.5055	2,828.61	65.2103	2,828.61	65.6577	2,828.61	65.0869
2,928.22	86.1535	2,928.22	84.5566	2,928.22	85.8829	2,928.22	80.7023	2,928.22	83.1203	2,928.22	70.653	2,928.22	77.6827	2,928.22	71.6723	2,928.22	70.5485	2,928.22	75.5119	2,928.22	70.6228	2,928.22	76.4823	2,928.22	74.21	2,928.22	75.4521	2,928.22	74.6598	2,928.22	70.3057	2,928.22	74.0818	2,928.22	66.6393	2,928.22	72.6786	2,928.22	69.3018	2,928.22	67.5939	2,928.22	64.9726	2,928.22	67.7235	2,928.22	69.0675	2,928.22	69.8664	2,928.22	73.3834	2,928.22	68.9839	2,928.22	69.7759	2,928.22	65.1997	2,928.22	66.4735	2,928.22	49.6563	2,928.22	65.2137	2,928.22	63.1957	2,928.22	61.0657	2,928.22	65.3681	2,928.22	66.1856
3,030.76	86.2433	3,030.76	84.1557	3,030.76	86.1649	3,030.76	79.378	3,030.76	82.9086	3,030.76	61.3907	3,030.76	75.6567	3,030.76	73.2656	3,030.76	71.7864	3,030.76	76.3747	3,030.76	73.9732	3,030.76	76.7603	3,030.76	76.0183	3,030.76	74.377	3,030.76	76.3442	3,030.76	69.177	3,030.76	74.6343	3,030.76	69.3371	3,030.76	73.6175	3,030.76	71.4826	3,030.76	68.643	3,030.76	66.859	3,030.76	67.338	3,030.76	67.2896	3,030.76	70.205	3,030.76	72.6677	3,030.76	68.6955	3,030.76	69.4152	3,030.76	68.1369	3,030.76	67.1375	3,030.76	55.17	3,030.76	65.6758	3,030.76	63.2974	3,030.76	59.1942	3,030.76	65.6082	3,030.76	66.7141
3,137.7	85.466	3,137.7	83.3141	3,137.7	85.9684	3,137.7	77.7066	3,137.7	83.4177	3,137.7	60.6983	3,137.7	75.548	3,137.7	75.9028	3,137.7	72.4316	3,137.7	77.42	3,137.7	76.6795	3,137.7	76.6729	3,137.7	77.9937	3,137.7	73.7631	3,137.7	78.2193	3,137.7	72.9817	3,137.7	75.3014	3,137.7	71.4119	3,137.7	73.5007	3,137.7	70.3965	3,137.7	69.0574	3,137.7	67.8929	3,137.7	65.2789	3,137.7	63.303	3,137.7	72.0339	3,137.7	71.239	3,137.7	67.9631	3,137.7	69.7034	3,137.7	69.6137	3,137.7	66.396	3,137.7	59.2503	3,137.7	66.6202	3,137.7	63.504	3,137.7	60.5951	3,137.7	67.2041	3,137.7	69.6009
3,249.02	85.0627	3,249.02	82.6747	3,249.02	85.5118	3,249.02	74.2933	3,249.02	83.8664	3,249.02	73.0772	3,249.02	77.924	3,249.02	78.345	3,249.02	73.0965	3,249.02	77.5889	3,249.02	77.9977	3,249.02	76.1873	3,249.02	78.9521	3,249.02	76.1775	3,249.02	78.531	3,249.02	74.1028	3,249.02	73.8622	3,249.02	67.2448	3,249.02	69.7349	3,249.02	66.9782	3,249.02	67.7678	3,249.02	69.5852	3,249.02	64.3545	3,249.02	64.2282	3,249.02	71.8691	3,249.02	70.7378	3,249.02	66.298	3,249.02	70.0336	3,249.02	68.2007	3,249.02	64.8498	3,249.02	60.0904	3,249.02	65.1094	3,249.02	63.4385	3,249.02	59.9197	3,249.02	69.6357	3,249.02	70.5072
3,363.28	84.9416	3,363.28	81.7045	3,363.28	85.4701	3,363.28	72.7261	3,363.28	83.5662	3,363.28	77.7079	3,363.28	78.972	3,363.28	79.5075	3,363.28	76.3791	3,363.28	77.4588	3,363.28	78.8687	3,363.28	76.9216	3,363.28	79.2946	3,363.28	74.5341	3,363.28	77.7833	3,363.28	69.6888	3,363.28	70.9159	3,363.28	70.5898	3,363.28	56.9456	3,363.28	68.8905	3,363.28	48.4108	3,363.28	71.3189	3,363.28	63.7425	3,363.28	67.1906	3,363.28	72.4649	3,363.28	70.0969	3,363.28	67.3934	3,363.28	71.7396	3,363.28	66.1189	3,363.28	64.6293	3,363.28	61.2052	3,363.28	64.3162	3,363.28	65.6573	3,363.28	61.3093	3,363.28	70.6467	3,363.28	71.5289
3,481.93	84.9632	3,481.93	81.3926	3,481.93	85.7582	3,481.93	76.2661	3,481.93	83.9532	3,481.93	81.001	3,481.93	79.2708	3,481.93	80.4245	3,481.93	78.5904	3,481.93	77.862	3,481.93	80.2624	3,481.93	76.8406	3,481.93	78.2242	3,481.93	73.7011	3,481.93	75.5582	3,481.93	75.3412	3,481.93	70.5354	3,481.93	74.1668	3,481.93	66.511	3,481.93	68.3407	3,481.93	65.0906	3,481.93	70.545	3,481.93	62.1663	3,481.93	69.7302	3,481.93	72.5223	3,481.93	68.9508	3,481.93	69.7958	3,481.93	73.9343	3,481.93	53.3845	3,481.93	70.5121	3,481.93	52.2886	3,481.93	69.7584	3,481.93	58.6317	3,481.93	59.5841	3,481.93	68.8794	3,481.93	69.9111
3,604.98	85.1141	3,604.98	81.4464	3,604.98	85.4531	3,604.98	79.3444	3,604.98	84.4995	3,604.98	82.1964	3,604.98	81.4527	3,604.98	80.2375	3,604.98	80.0551	3,604.98	78.4342	3,604.98	81.4611	3,604.98	76.9997	3,604.98	77.6224	3,604.98	76.9281	3,604.98	73.5068	3,604.98	76.4479	3,604.98	69.9954	3,604.98	71.8758	3,604.98	71.7698	3,604.98	68.4051	3,604.98	71.6954	3,604.98	70.8011	3,604.98	65.7735	3,604.98	70.8878	3,604.98	71.7167	3,604.98	67.4661	3,604.98	65.4025	3,604.98	71.4399	3,604.98	65.2798	3,604.98	69.8418	3,604.98	60.3354	3,604.98	69.7087	3,604.98	62.9904	3,604.98	64.8639	3,604.98	70.9038	3,604.98	67.6722
3,732.42	85.9537	3,732.42	81.8059	3,732.42	86.3353	3,732.42	82.2309	3,732.42	83.9028	3,732.42	82.3241	3,732.42	81.6413	3,732.42	80.3221	3,732.42	80.3609	3,732.42	80.0908	3,732.42	80.4504	3,732.42	79.8231	3,732.42	78.9844	3,732.42	78.5434	3,732.42	77.0496	3,732.42	75.0622	3,732.42	74.4846	3,732.42	72.364	3,732.42	75.2754	3,732.42	70.263	3,732.42	73.608	3,732.42	69.2887	3,732.42	66.5781	3,732.42	70.4529	3,732.42	72.4347	3,732.42	70.0009	3,732.42	67.2851	3,732.42	70.5734	3,732.42	61.0517	3,732.42	69.9565	3,732.42	59.0293	3,732.42	67.3785	3,732.42	64.4353	3,732.42	65.2653	3,732.42	72.1001	3,732.42	68.7792
3,864.26	84.6237	3,864.26	82.4853	3,864.26	87.0114	3,864.26	83.1145	3,864.26	85.9299	3,864.26	82.795	3,864.26	82.1048	3,864.26	81.5811	3,864.26	80.7781	3,864.26	81.4079	3,864.26	80.074	3,864.26	80.2312	3,864.26	79.4544	3,864.26	76.3661	3,864.26	78.9451	3,864.26	75.1292	3,864.26	76.815	3,864.26	74.6473	3,864.26	75.3971	3,864.26	70.7657	3,864.26	76.2845	3,864.26	70.1819	3,864.26	67.9852	3,864.26	70.391	3,864.26	71.5368	3,864.26	68.0427	3,864.26	69.9034	3,864.26	70.3728	3,864.26	35.8402	3,864.26	71.4967	3,864.26	56.768	3,864.26	68.9221	3,864.26	66.5551	3,864.26	63.6327	3,864.26	71.8713	3,864.26	67.5887
4,000.49	84.5808	4,000.49	83.1967	4,000.49	85.0958	4,000.49	82.9537	4,000.49	85.788	4,000.49	83.3644	4,000.49	83.6722	4,000.49	82.0076	4,000.49	80.8941	4,000.49	81.611	4,000.49	81.5076	4,000.49	78.5274	4,000.49	80.5812	4,000.49	76.9018	4,000.49	78.205	4,000.49	75.5287	4,000.49	77.5522	4,000.49	71.1809	4,000.49	71.7464	4,000.49	67.4853	4,000.49	73.0173	4,000.49	68.5694	4,000.49	64.6247	4,000.49	70.7307	4,000.49	72.9198	4,000.49	68.0318	4,000.49	70.6845	4,000.49	67.8043	4,000.49	59.1092	4,000.49	69.7904	4,000.49	52.2646	4,000.49	69.3358	4,000.49	65.0098	4,000.49	65.8691	4,000.49	70.9881	4,000.49	64.7432
4,141.11	86.2742	4,141.11	83.9643	4,141.11	85.7049	4,141.11	85.2342	4,141.11	84.2039	4,141.11	83.5476	4,141.11	84.5371	4,141.11	82.5876	4,141.11	81.5882	4,141.11	81.6961	4,141.11	81.2935	4,141.11	78.5725	4,141.11	81.7449	4,141.11	78.1494	4,141.11	79.5026	4,141.11	72.301	4,141.11	79.2236	4,141.11	71.038	4,141.11	73.2547	4,141.11	71.9329	4,141.11	69.8533	4,141.11	65.4133	4,141.11	59.129	4,141.11	69.4231	4,141.11	70.3364	4,141.11	68.8912	4,141.11	70.3737	4,141.11	65.7448	4,141.11	62.3175	4,141.11	68.2066	4,141.11	53.119	4,141.11	70.4518	4,141.11	64.197	4,141.11	67.7434	4,141.11	69.5351	4,141.11	68.2209
4,287.6	85.417	4,287.6	84.8495	4,287.6	86.825	4,287.6	85.8437	4,287.6	84.079	4,287.6	83.5618	4,287.6	83.2366	4,287.6	83.2221	4,287.6	82.7963	4,287.6	81.3971	4,287.6	80.7897	4,287.6	79.4168	4,287.6	80.653	4,287.6	76.87	4,287.6	82.4792	4,287.6	75.736	4,287.6	80.2206	4,287.6	72.7948	4,287.6	71.8233	4,287.6	69.1175	4,287.6	60.7369	4,287.6	69.6326	4,287.6	69.8702	4,287.6	67.897	4,287.6	65.461	4,287.6	71.7209	4,287.6	68.7033	4,287.6	67.2781	4,287.6	63.6013	4,287.6	65.2582	4,287.6	57.8964	4,287.6	67.082	4,287.6	65.8537	4,287.6	69.2178	4,287.6	71.4124	4,287.6	70.3861
4,438.48	84.9268	4,438.48	85.7342	4,438.48	86.6526	4,438.48	85.3064	4,438.48	85.1283	4,438.48	84.2409	4,438.48	82.4486	4,438.48	84.3093	4,438.48	83.064	4,438.48	81.3287	4,438.48	80.7264	4,438.48	78.3746	4,438.48	80.0449	4,438.48	76.3543	4,438.48	82.8571	4,438.48	74.0046	4,438.48	78.9297	4,438.48	71.2676	4,438.48	67.0774	4,438.48	70.2924	4,438.48	64.8089	4,438.48	70.9873	4,438.48	74.3077	4,438.48	64.8484	4,438.48	43.5921	4,438.48	68.7955	4,438.48	69.5669	4,438.48	69.5462	4,438.48	67.9551	4,438.48	67.223	4,438.48	54.5934	4,438.48	62.3128	4,438.48	62.9337	4,438.48	65.4755	4,438.48	71.242	4,438.48	70.7431
4,595.21	85.2752	4,595.21	86.7402	4,595.21	86.8305	4,595.21	85.6447	4,595.21	85.6946	4,595.21	84.4849	4,595.21	81.18	4,595.21	83.5882	4,595.21	81.7811	4,595.21	79.6177	4,595.21	80.8458	4,595.21	78.7713	4,595.21	83.1412	4,595.21	76.735	4,595.21	81.9653	4,595.21	74.3142	4,595.21	73.0857	4,595.21	72.1866	4,595.21	69.3673	4,595.21	67.448	4,595.21	68.8569	4,595.21	70.4255	4,595.21	73.0888	4,595.21	71.2567	4,595.21	64.8659	4,595.21	66.2939	4,595.21	67.4478	4,595.21	67.9851	4,595.21	68.4933	4,595.21	67.8988	4,595.21	58.0537	4,595.21	67.1044	4,595.21	59.7979	4,595.21	62.1275	4,595.21	67.8441	4,595.21	61.3208
4,756.35	85.9539	4,756.35	87.2474	4,756.35	85.5936	4,756.35	85.7131	4,756.35	86.0497	4,756.35	84.9842	4,756.35	82.3746	4,756.35	82.4697	4,756.35	78.8023	4,756.35	80.0782	4,756.35	80.7806	4,756.35	78.1982	4,756.35	83.6669	4,756.35	76.4949	4,756.35	81.018	4,756.35	75.7564	4,756.35	74.0848	4,756.35	71.0244	4,756.35	65.5863	4,756.35	68.5027	4,756.35	65.2201	4,756.35	67.0133	4,756.35	70.7512	4,756.35	68.4967	4,756.35	67.7624	4,756.35	67.3368	4,756.35	67.449	4,756.35	67.2462	4,756.35	63.6526	4,756.35	67.1262	4,756.35	57.6789	4,756.35	65.5621	4,756.35	62.4	4,756.35	64.7206	4,756.35	67.1929	4,756.35	64.8021
4,924.8	86.293	4,924.8	86.3444	4,924.8	85.1975	4,924.8	84.7304	4,924.8	85.5741	4,924.8	83.9431	4,924.8	83.3376	4,924.8	82.2251	4,924.8	77.5608	4,924.8	79.3051	4,924.8	80.9832	4,924.8	76.6673	4,924.8	83.4844	4,924.8	75.4485	4,924.8	77.6175	4,924.8	72.9998	4,924.8	74.0816	4,924.8	70.3703	4,924.8	69.5899	4,924.8	67.8017	4,924.8	56.7624	4,924.8	67.1278	4,924.8	62.1653	4,924.8	68.836	4,924.8	64.9297	4,924.8	68.9857	4,924.8	64.7441	4,924.8	63.4198	4,924.8	59.6006	4,924.8	67.2507	4,924.8	58.1181	4,924.8	65.1807	4,924.8	63.8766	4,924.8	61.3742	4,924.8	66.3587	4,924.8	65.0785
5,097.66	85.2387	5,097.66	85.9238	5,097.66	85.036	5,097.66	85.3046	5,097.66	86.2791	5,097.66	84.4268	5,097.66	82.8896	5,097.66	81.137	5,097.66	77.7694	5,097.66	79.4604	5,097.66	82.3229	5,097.66	77.217	5,097.66	81.2481	5,097.66	73.4539	5,097.66	73.5157	5,097.66	73.3619	5,097.66	73.7787	5,097.66	70.1475	5,097.66	59.8951	5,097.66	65.628	5,097.66	53.1378	5,097.66	65.8106	5,097.66	61.0885	5,097.66	65.0625	5,097.66	60.631	5,097.66	67.207	5,097.66	67.0169	5,097.66	65.647	5,097.66	59.2067	5,097.66	61.6511	5,097.66	60.1275	5,097.66	66.8684	5,097.66	65.804	5,097.66	59.554	5,097.66	65.7493	5,097.66	61.0983
5,277.83	85.5832	5,277.83	85.4126	5,277.83	84.7185	5,277.83	84.3355	5,277.83	85.395	5,277.83	82.5742	5,277.83	82.3253	5,277.83	81.0767	5,277.83	78.5735	5,277.83	78.9623	5,277.83	81.6862	5,277.83	74.2164	5,277.83	79.6977	5,277.83	73.9199	5,277.83	77.0455	5,277.83	69.6821	5,277.83	76.2103	5,277.83	67.6368	5,277.83	69.6917	5,277.83	65.0945	5,277.83	50.3072	5,277.83	62.2421	5,277.83	62.7202	5,277.83	63.848	5,277.83	62.7032	5,277.83	64.2288	5,277.83	64.9494	5,277.83	65.7144	5,277.83	55.0164	5,277.83	61.5319	5,277.83	60.9519	5,277.83	59.8287	5,277.83	67.6198	5,277.83	60.9058	5,277.83	65.6483	5,277.83	65.0673
5,463.87	85.6463	5,463.87	85.3097	5,463.87	83.7692	5,463.87	84.138	5,463.87	83.6236	5,463.87	82.5573	5,463.87	82.6526	5,463.87	80.8118	5,463.87	80.0646	5,463.87	76.6656	5,463.87	80.7965	5,463.87	73.8762	5,463.87	78.2589	5,463.87	70.3172	5,463.87	76.9761	5,463.87	69.5621	5,463.87	74.8685	5,463.87	68.2624	5,463.87	71.008	5,463.87	65.0357	5,463.87	60.903	5,463.87	64.043	5,463.87	66.1055	5,463.87	64.4489	5,463.87	66.6933	5,463.87	64.0973	5,463.87	63.5881	5,463.87	64.2231	5,463.87	63.9121	5,463.87	59.8124	5,463.87	58.4725	5,463.87	61.106	5,463.87	66.8436	5,463.87	55.961	5,463.87	65.6148	5,463.87	64.5057
5,657.23	85.4645	5,657.23	85.3055	5,657.23	83.7727	5,657.23	84.1929	5,657.23	82.2022	5,657.23	82.5196	5,657.23	81.7852	5,657.23	80.157	5,657.23	80.4506	5,657.23	76.117	5,657.23	78.0796	5,657.23	71.4543	5,657.23	76.5512	5,657.23	69.818	5,657.23	78.6968	5,657.23	68.4067	5,657.23	74.6864	5,657.23	64.6689	5,657.23	71.5692	5,657.23	63.6616	5,657.23	66.7981	5,657.23	64.7837	5,657.23	66.9908	5,657.23	63.0364	5,657.23	65.6893	5,657.23	64.3043	5,657.23	65.0449	5,657.23	63.5895	5,657.23	63.2488	5,657.23	60.8209	5,657.23	56.9145	5,657.23	61.1777	5,657.23	66.1626	5,657.23	46.548	5,657.23	66.449	5,657.23	64.7737
5,856.45	84.9117	5,856.45	85.0191	5,856.45	84.3177	5,856.45	83.6412	5,856.45	83.2141	5,856.45	82.5617	5,856.45	80.6428	5,856.45	79.8952	5,856.45	78.2188	5,856.45	75.3626	5,856.45	77.0958	5,856.45	71.3594	5,856.45	78.0824	5,856.45	66.8947	5,856.45	78.7737	5,856.45	70.7814	5,856.45	76.015	5,856.45	66.6702	5,856.45	74.206	5,856.45	61.036	5,856.45	64.1703	5,856.45	64.4582	5,856.45	62.2635	5,856.45	64.7512	5,856.45	59.9676	5,856.45	64.4626	5,856.45	60.2202	5,856.45	65.1093	5,856.45	62.0406	5,856.45	63.4614	5,856.45	63.4164	5,856.45	58.0989	5,856.45	68.0337	5,856.45	37.433	5,856.45	68.356	5,856.45	66.1906
6,062.99	86.2755	6,062.99	85.6171	6,062.99	84.9698	6,062.99	84.6561	6,062.99	83.5414	6,062.99	82.5425	6,062.99	81.1287	6,062.99	78.9833	6,062.99	76.8932	6,062.99	75.7647	6,062.99	75.6577	6,062.99	71.6663	6,062.99	78.0209	6,062.99	69.888	6,062.99	77.4238	6,062.99	69.083	6,062.99	76.4778	6,062.99	69.16	6,062.99	74.4391	6,062.99	61.9194	6,062.99	63.5558	6,062.99	63.9976	6,062.99	67.5541	6,062.99	65.2971	6,062.99	56.8128	6,062.99	66.5058	6,062.99	58.2323	6,062.99	65.2032	6,062.99	62.8984	6,062.99	65.2458	6,062.99	59.8898	6,062.99	63.0935	6,062.99	66.2774	6,062.99	46.4113	6,062.99	67.9771	6,062.99	64.7696
6,276.86	85.7028	6,276.86	85.8319	6,276.86	84.5409	6,276.86	84.3214	6,276.86	83.5214	6,276.86	81.722	6,276.86	82.1675	6,276.86	79.1189	6,276.86	77.4443	6,276.86	75.3658	6,276.86	74.1896	6,276.86	73.7623	6,276.86	76.5046	6,276.86	72.9491	6,276.86	75.3842	6,276.86	72.6464	6,276.86	75.9188	6,276.86	69.5538	6,276.86	70.858	6,276.86	64.7018	6,276.86	70.5671	6,276.86	63.1957	6,276.86	67.878	6,276.86	64.6847	6,276.86	59.9561	6,276.86	65.5553	6,276.86	58.1379	6,276.86	67.2428	6,276.86	64.2126	6,276.86	65.5683	6,276.86	62.031	6,276.86	61.5808	6,276.86	59.7388	6,276.86	56.2991	6,276.86	65.5583	6,276.86	62.2756
6,498.05	85.7258	6,498.05	85.98	6,498.05	83.735	6,498.05	84.0973	6,498.05	83.2649	6,498.05	81.2439	6,498.05	81.7573	6,498.05	78.4474	6,498.05	76.6527	6,498.05	75.0616	6,498.05	75.0865	6,498.05	75.5099	6,498.05	76.1462	6,498.05	72.7767	6,498.05	78.806	6,498.05	68.936	6,498.05	76.3674	6,498.05	68.7422	6,498.05	69.1123	6,498.05	64.934	6,498.05	72.4715	6,498.05	61.3867	6,498.05	66.6741	6,498.05	60.7191	6,498.05	58.4657	6,498.05	64.1518	6,498.05	56.0877	6,498.05	65.7206	6,498.05	49.1793	6,498.05	66.8623	6,498.05	53.7349	6,498.05	62.0728	6,498.05	64.8602	6,498.05	52.4887	6,498.05	65.184	6,498.05	65.4906
6,726.56	86.6917	6,726.56	85.8381	6,726.56	84.3153	6,726.56	83.6396	6,726.56	82.504	6,726.56	81.4697	6,726.56	81.2975	6,726.56	77.7683	6,726.56	78.2455	6,726.56	76.5397	6,726.56	73.1491	6,726.56	75.3693	6,726.56	76.3085	6,726.56	71.2564	6,726.56	80.1048	6,726.56	69.6217	6,726.56	74.3143	6,726.56	67.4052	6,726.56	74.4926	6,726.56	64.5644	6,726.56	73.8309	6,726.56	61.332	6,726.56	66.2577	6,726.56	60.2867	6,726.56	62.7628	6,726.56	60.6127	6,726.56	55.1601	6,726.56	64.4706	6,726.56	61.1536	6,726.56	67.7848	6,726.56	51.7537	6,726.56	62.7831	6,726.56	67.3413	6,726.56	55.7431	6,726.56	67.5377	6,726.56	67.0998
6,963.87	86.184	6,963.87	85.4671	6,963.87	85.0551	6,963.87	84.0911	6,963.87	82.58	6,963.87	81.4196	6,963.87	81.1851	6,963.87	78.4096	6,963.87	79.5809	6,963.87	76.2572	6,963.87	67.6065	6,963.87	74.4537	6,963.87	76.1999	6,963.87	71.3535	6,963.87	79.479	6,963.87	71.7434	6,963.87	72.8209	6,963.87	70.9405	6,963.87	74.9205	6,963.87	66.1906	6,963.87	72.5318	6,963.87	63.456	6,963.87	65.4669	6,963.87	63.918	6,963.87	61.2745	6,963.87	61.3009	6,963.87	46.6044	6,963.87	62.2082	6,963.87	60.748	6,963.87	67.8723	6,963.87	59.4437	6,963.87	66.8182	6,963.87	60.7045	6,963.87	47.9828	6,963.87	65.0007	6,963.87	61.6184
7,209.96	86.2777	7,209.96	85.9235	7,209.96	84.3581	7,209.96	84.4385	7,209.96	81.1825	7,209.96	81.1414	7,209.96	82.1528	7,209.96	78.3525	7,209.96	80.22	7,209.96	76.6676	7,209.96	71.0995	7,209.96	74.3306	7,209.96	76.4884	7,209.96	74.0073	7,209.96	75.1418	7,209.96	71.0127	7,209.96	69.6835	7,209.96	70.224	7,209.96	72.7175	7,209.96	65.5713	7,209.96	70.3926	7,209.96	63.5948	7,209.96	66.3006	7,209.96	65.2721	7,209.96	61.5299	7,209.96	63.0503	7,209.96	50.226	7,209.96	63.1911	7,209.96	65.0278	7,209.96	66.0888	7,209.96	61.174	7,209.96	66.232	7,209.96	60.1292	7,209.96	58.2724	7,209.96	62.6912	7,209.96	60.8019
7,464.84	86.323	7,464.84	85.7382	7,464.84	84.8113	7,464.84	83.8192	7,464.84	81.2515	7,464.84	80.4487	7,464.84	82.1263	7,464.84	78.9382	7,464.84	79.355	7,464.84	76.4737	7,464.84	72.9574	7,464.84	76.3186	7,464.84	75.2652	7,464.84	74.9774	7,464.84	68.431	7,464.84	71.8148	7,464.84	74.1135	7,464.84	69.7285	7,464.84	69.1986	7,464.84	65.1086	7,464.84	69.2669	7,464.84	61.8317	7,464.84	65.8539	7,464.84	62.9818	7,464.84	62.5947	7,464.84	63.7004	7,464.84	47.6172	7,464.84	63.6632	7,464.84	65.8434	7,464.84	67.3857	7,464.84	64.1769	7,464.84	64.2734	7,464.84	60.4235	7,464.84	57.8811	7,464.84	62.6037	7,464.84	61.4384
7,727.05	86.2678	7,727.05	85.7483	7,727.05	85.0413	7,727.05	83.6491	7,727.05	81.5962	7,727.05	80.2474	7,727.05	80.511	7,727.05	78.7338	7,727.05	76.3542	7,727.05	77.8087	7,727.05	73.5886	7,727.05	77.2613	7,727.05	70.3664	7,727.05	73.8688	7,727.05	73.6667	7,727.05	71.9669	7,727.05	76.4309	7,727.05	71.2248	7,727.05	66.936	7,727.05	66.1366	7,727.05	67.1093	7,727.05	59.2094	7,727.05	54.883	7,727.05	61.3375	7,727.05	56.6144	7,727.05	61.8368	7,727.05	55.3961	7,727.05	64.4267	7,727.05	65.0833	7,727.05	67.6006	7,727.05	63.177	7,727.05	65.2842	7,727.05	61.4728	7,727.05	60.1491	7,727.05	62.3167	7,727.05	56.2523
7,999.51	86.2025	7,999.51	85.9572	7,999.51	85.2834	7,999.51	82.9243	7,999.51	82.4109	7,999.51	80.3594	7,999.51	79.2375	7,999.51	79.4735	7,999.51	75.9428	7,999.51	78.6886	7,999.51	73.7095	7,999.51	76.8551	7,999.51	67.2872	7,999.51	74.6286	7,999.51	77.2366	7,999.51	69.8902	7,999.51	77.6271	7,999.51	68.3197	7,999.51	70.9769	7,999.51	65.214	7,999.51	68.2602	7,999.51	55.5279	7,999.51	56.3036	7,999.51	61.1604	7,999.51	45.399	7,999.51	55.292	7,999.51	53.4961	7,999.51	61.0138	7,999.51	63.252	7,999.51	66.5922	7,999.51	61.5945	7,999.51	62.0797	7,999.51	59.6582	7,999.51	61.4464	7,999.51	55.6121	7,999.51	59.265
8,282.23	86.4898	8,282.23	86.0693	8,282.23	85.6027	8,282.23	82.5468	8,282.23	83.3266	8,282.23	81.462	8,282.23	78.4889	8,282.23	79.9228	8,282.23	77.7558	8,282.23	78.8244	8,282.23	75.3952	8,282.23	76.034	8,282.23	71.8373	8,282.23	72.3411	8,282.23	78.9362	8,282.23	68.5349	8,282.23	76.3477	8,282.23	67.128	8,282.23	70.2488	8,282.23	64.5578	8,282.23	68.0815	8,282.23	60.5834	8,282.23	62.4214	8,282.23	58.2445	8,282.23	56.864	8,282.23	58.9051	8,282.23	59.6633	8,282.23	60.8765	8,282.23	57.598	8,282.23	66.3487	8,282.23	58.9893	8,282.23	62.527	8,282.23	62.1659	8,282.23	58.238	8,282.23	54.9059	8,282.23	57.11
8,573.73	86.6841	8,573.73	85.6022	8,573.73	85.6468	8,573.73	82.3733	8,573.73	83.3357	8,573.73	81.6389	8,573.73	79.1984	8,573.73	79.9091	8,573.73	79.991	8,573.73	78.9855	8,573.73	76.367	8,573.73	75.5478	8,573.73	73.6061	8,573.73	72.7013	8,573.73	77.8596	8,573.73	70.9318	8,573.73	74.1515	8,573.73	69.0447	8,573.73	67.5574	8,573.73	63.8808	8,573.73	68.0766	8,573.73	62.1981	8,573.73	67.2224	8,573.73	58.2667	8,573.73	57.9476	8,573.73	60.4266	8,573.73	61.286	8,573.73	64.4004	8,573.73	60.9601	8,573.73	63.3371	8,573.73	57.4787	8,573.73	65.0666	8,573.73	61.0873	8,573.73	56.4388	8,573.73	55.842	8,573.73	56.317
8,876.95	85.8852	8,876.95	85.0858	8,876.95	85.3978	8,876.95	82.3133	8,876.95	83.4698	8,876.95	81.4564	8,876.95	81.0972	8,876.95	80.2117	8,876.95	80.8576	8,876.95	78.9438	8,876.95	74.9306	8,876.95	75.718	8,876.95	70.9293	8,876.95	73.2304	8,876.95	72.5852	8,876.95	69.8676	8,876.95	72.1139	8,876.95	68.9185	8,876.95	68.826	8,876.95	60.5751	8,876.95	69.1149	8,876.95	59.441	8,876.95	66.3934	8,876.95	56.2281	8,876.95	62.9892	8,876.95	58.9339	8,876.95	59.503	8,876.95	64.2394	8,876.95	62.2447	8,876.95	62.1194	8,876.95	57.5999	8,876.95	62.6302	8,876.95	59.3421	8,876.95	54.5335	8,876.95	61.2985	8,876.95	55.7163
9,188.96	85.8302	9,188.96	84.546	9,188.96	85.2979	9,188.96	81.9902	9,188.96	83.2298	9,188.96	81.1419	9,188.96	81.9653	9,188.96	81.1022	9,188.96	79.7404	9,188.96	78.126	9,188.96	75.6009	9,188.96	75.3755	9,188.96	73.1391	9,188.96	71.9758	9,188.96	69.5031	9,188.96	67.4611	9,188.96	74.3902	9,188.96	66.2609	9,188.96	72.1634	9,188.96	62.5725	9,188.96	70.9678	9,188.96	55.34	9,188.96	65.4261	9,188.96	53.3256	9,188.96	61.7508	9,188.96	57.3305	9,188.96	54.7885	9,188.96	60.4413	9,188.96	57.949	9,188.96	65.1379	9,188.96	58.0566	9,188.96	60.8158	9,188.96	57.2766	9,188.96	52.8952	9,188.96	62.3499	9,188.96	52.572
9,514.16	85.7816	9,514.16	84.2047	9,514.16	85.5678	9,514.16	82.067	9,514.16	83.7683	9,514.16	82.0059	9,514.16	83.0682	9,514.16	81.0875	9,514.16	79.2263	9,514.16	78.0379	9,514.16	77.3713	9,514.16	74.9519	9,514.16	72.9141	9,514.16	69.2552	9,514.16	70.8429	9,514.16	65.0141	9,514.16	74.3116	9,514.16	64.8683	9,514.16	70.8998	9,514.16	64.7503	9,514.16	71.1684	9,514.16	53.1264	9,514.16	65.0844	9,514.16	59.3021	9,514.16	59.2939	9,514.16	52.0542	9,514.16	47.5406	9,514.16	56.8947	9,514.16	60.9995	9,514.16	64.0168	9,514.16	56.2627	9,514.16	59.0835	9,514.16	58.5261	9,514.16	56.1873	9,514.16	64.5161	9,514.16	51.958
9,849.61	85.6172	9,849.61	84.1025	9,849.61	85.5427	9,849.61	82.2272	9,849.61	83.9425	9,849.61	82.6406	9,849.61	83.1049	9,849.61	81.0205	9,849.61	79.8555	9,849.61	78.7194	9,849.61	79.4844	9,849.61	74.0234	9,849.61	71.9309	9,849.61	70.9518	9,849.61	70.0568	9,849.61	68.0645	9,849.61	71.5978	9,849.61	67.0422	9,849.61	66.8777	9,849.61	65.5612	9,849.61	67.9248	9,849.61	56.6217	9,849.61	62.0117	9,849.61	57.306	9,849.61	54.8476	9,849.61	55.2698	9,849.61	49.811	9,849.61	60.2387	9,849.61	58.8123	9,849.61	64.2542	9,849.61	57.6908	9,849.61	60.2449	9,849.61	52.1404	9,849.61	53.9955	9,849.61	63.0361	9,849.61	52.5536
10,196.8	85.7231	10,196.8	84.5198	10,196.8	85.2362	10,196.8	82.91	10,196.8	84.1532	10,196.8	83.0925	10,196.8	82.6259	10,196.8	81.2344	10,196.8	81.2009	10,196.8	78.669	10,196.8	80.6525	10,196.8	74.4995	10,196.8	69.015	10,196.8	71.9824	10,196.8	68.8109	10,196.8	67.6242	10,196.8	71.7336	10,196.8	65.7841	10,196.8	67.2328	10,196.8	64.2604	10,196.8	65.0057	10,196.8	57.0934	10,196.8	56.1766	10,196.8	51.4937	10,196.8	41.1998	10,196.8	54.509	10,196.8	54.2853	10,196.8	60.8996	10,196.8	45.3012	10,196.8	63.5097	10,196.8	47.5487	10,196.8	61.2283	10,196.8	56.8163	10,196.8	53.4869	10,196.8	61.5934	10,196.8	49.5081
10,555.7	85.8216	10,555.7	84.6445	10,555.7	85.3773	10,555.7	83.5255	10,555.7	83.9974	10,555.7	83.7167	10,555.7	82.1024	10,555.7	81.6698	10,555.7	82.1099	10,555.7	78.469	10,555.7	80.0247	10,555.7	74.9829	10,555.7	72.6414	10,555.7	71.0339	10,555.7	72.0571	10,555.7	67.0911	10,555.7	71.6508	10,555.7	65.5502	10,555.7	69.3731	10,555.7	63.5562	10,555.7	65.8392	10,555.7	56.7277	10,555.7	61.1362	10,555.7	48.3866	10,555.7	50.1197	10,555.7	54.7838	10,555.7	53.6638	10,555.7	60.5452	10,555.7	56.6312	10,555.7	64.6998	10,555.7	57.5067	10,555.7	61.0751	10,555.7	58.6091	10,555.7	57.9191	10,555.7	60.6483	10,555.7	52.7805
10,927.7	85.6731	10,927.7	84.8103	10,927.7	85.3858	10,927.7	84.1693	10,927.7	85.067	10,927.7	84.1472	10,927.7	82.4929	10,927.7	81.9611	10,927.7	80.9197	10,927.7	78.3455	10,927.7	78.2101	10,927.7	75.1768	10,927.7	74.9057	10,927.7	70.5665	10,927.7	71.4462	10,927.7	68.5261	10,927.7	68.7022	10,927.7	66.4731	10,927.7	70.1149	10,927.7	65.0774	10,927.7	68.4146	10,927.7	53.1985	10,927.7	66.0841	10,927.7	52.4942	10,927.7	58.3618	10,927.7	56.1978	10,927.7	50.4348	10,927.7	61.2009	10,927.7	58.6281	10,927.7	64.7826	10,927.7	60.0026	10,927.7	61.9252	10,927.7	58.7147	10,927.7	58.8746	10,927.7	57.6098	10,927.7	47.602
11,313	85.6298	11,313	85.0241	11,313	86.1373	11,313	84.5683	11,313	85.6894	11,313	84.5317	11,313	82.5175	11,313	81.9841	11,313	81.1277	11,313	78.7852	11,313	77.6037	11,313	75.0748	11,313	74.5245	11,313	71.9761	11,313	62.2988	11,313	67.1161	11,313	59.3795	11,313	65.6147	11,313	66.1611	11,313	64.6411	11,313	66.3512	11,313	56.3266	11,313	64.179	11,313	52.4933	11,313	55.0452	11,313	55.3088	11,313	38.5291	11,313	60.3155	11,313	43.3113	11,313	61.399	11,313	54.7991	11,313	63.9608	11,313	58.1714	11,313	56.949	11,313	57.0122	11,313	50.9133
11,712.9	85.0092	11,712.9	84.9778	11,712.9	85.4149	11,712.9	84.7161	11,712.9	84.7534	11,712.9	84.6017	11,712.9	83.6969	11,712.9	81.8623	11,712.9	82.1806	11,712.9	78.8649	11,712.9	78.7833	11,712.9	74.5629	11,712.9	72.6555	11,712.9	70.3814	11,712.9	65.3358	11,712.9	67.1981	11,712.9	66.6111	11,712.9	65.0263	11,712.9	60.0436	11,712.9	64.2687	11,712.9	61.8667	11,712.9	58.1716	11,712.9	56.6501	11,712.9	55.9271	11,712.9	31.9983	11,712.9	51.9513	11,712.9	50.4841	11,712.9	58.8082	11,712.9	48.5532	11,712.9	62.5674	11,712.9	51.4396	11,712.9	62.52	11,712.9	53.5999	11,712.9	54.1569	11,712.9	58.5451	11,712.9	36.8645
12,126	85.1998	12,126	84.9877	12,126	85.3677	12,126	85.1194	12,126	85.5683	12,126	84.3696	12,126	85.4549	12,126	82.0636	12,126	82.9023	12,126	78.6336	12,126	80.2133	12,126	74.068	12,126	71.8344	12,126	69.984	12,126	68.0134	12,126	67.4706	12,126	65.8604	12,126	64.0892	12,126	65.7523	12,126	63.6399	12,126	58.854	12,126	57.602	12,126	51.9581	12,126	56.0272	12,126	55.6353	12,126	35.7857	12,126	49.2585	12,126	58.263	12,126	39.032	12,126	64.5186	12,126	53.2229	12,126	59.8955	12,126	53.116	12,126	56.1567	12,126	58.5217	12,126	52.4984
12,553.7	85.0841	12,553.7	85.5943	12,553.7	85.1886	12,553.7	85.3448	12,553.7	85.9478	12,553.7	84.6816	12,553.7	84.8641	12,553.7	82.6031	12,553.7	83.0197	12,553.7	78.2992	12,553.7	79.0274	12,553.7	74.4351	12,553.7	72.9514	12,553.7	69.4306	12,553.7	67.9542	12,553.7	66.7248	12,553.7	60.4581	12,553.7	64.7526	12,553.7	63.187	12,553.7	64.1898	12,553.7	60.4974	12,553.7	58.9763	12,553.7	63.4469	12,553.7	55.4643	12,553.7	58.8863	12,553.7	42.3693	12,553.7	55.2426	12,553.7	59.8784	12,553.7	47.4907	12,553.7	61.5952	12,553.7	53.7854	12,553.7	63.3669	12,553.7	53.5028	12,553.7	53.7692	12,553.7	55.7833	12,553.7	55.1266
12,996.1	85.5789	12,996.1	85.8832	12,996.1	85.6222	12,996.1	85.4734	12,996.1	86.0168	12,996.1	85.0303	12,996.1	85.1393	12,996.1	82.4427	12,996.1	82.5072	12,996.1	78.5227	12,996.1	77.1108	12,996.1	73.5356	12,996.1	73.0234	12,996.1	69.9545	12,996.1	63.5462	12,996.1	66.741	12,996.1	55.1899	12,996.1	64.694	12,996.1	61.9115	12,996.1	63.3105	12,996.1	63.7633	12,996.1	59.5922	12,996.1	63.769	12,996.1	56.1476	12,996.1	58.2108	12,996.1	40.2916	12,996.1	55.8357	12,996.1	58.7463	12,996.1	51.6062	12,996.1	61.495	12,996.1	56.7194	12,996.1	63.1611	12,996.1	59.0217	12,996.1	59.2603	12,996.1	58.0198	12,996.1	53.586
13,454.6	85.5424	13,454.6	86.28	13,454.6	85.4182	13,454.6	85.7825	13,454.6	86.4946	13,454.6	85.3872	13,454.6	85.3798	13,454.6	82.6508	13,454.6	81.942	13,454.6	78.1822	13,454.6	78.1797	13,454.6	73.9696	13,454.6	73.5788	13,454.6	70.9736	13,454.6	65.5582	13,454.6	68.1185	13,454.6	60.3876	13,454.6	64.6385	13,454.6	58.7308	13,454.6	62.9708	13,454.6	62.8392	13,454.6	59.2847	13,454.6	63.4321	13,454.6	53.5011	13,454.6	55.4178	13,454.6	35.9701	13,454.6	54.1483	13,454.6	58.8411	13,454.6	57.4563	13,454.6	62.5323	13,454.6	56.2121	13,454.6	60.3923	13,454.6	55.0387	13,454.6	58.4613	13,454.6	58.4175	13,454.6	55.0672
13,929.2	85.3998	13,929.2	86.1384	13,929.2	85.2659	13,929.2	85.6826	13,929.2	86.4275	13,929.2	85.3377	13,929.2	84.6288	13,929.2	82.4145	13,929.2	81.625	13,929.2	77.1018	13,929.2	78.3147	13,929.2	74.0174	13,929.2	72.8336	13,929.2	69.8677	13,929.2	65.7372	13,929.2	66.7659	13,929.2	56.5918	13,929.2	64.4207	13,929.2	56.8507	13,929.2	62.0622	13,929.2	62.0532	13,929.2	59.8937	13,929.2	65.1186	13,929.2	52.7483	13,929.2	52.9813	13,929.2	39.9973	13,929.2	56.41	13,929.2	58.7258	13,929.2	52.1476	13,929.2	59.8615	13,929.2	52.298	13,929.2	62.0689	13,929.2	51.3554	13,929.2	55.0967	13,929.2	57.5619	13,929.2	53.3198
14,419.9	85.4457	14,419.9	85.7992	14,419.9	85.5592	14,419.9	85.3202	14,419.9	86.3237	14,419.9	85.1141	14,419.9	84.3341	14,419.9	81.1294	14,419.9	81.6391	14,419.9	76.1493	14,419.9	75.1421	14,419.9	72.9337	14,419.9	71.5241	14,419.9	69.6088	14,419.9	63.5735	14,419.9	66.101	14,419.9	63.8341	14,419.9	62.5642	14,419.9	52.3996	14,419.9	59.9177	14,419.9	60.2608	14,419.9	58.2142	14,419.9	64.3662	14,419.9	52.8355	14,419.9	49.3539	14,419.9	47.174	14,419.9	54.3806	14,419.9	57.0973	14,419.9	55.0347	14,419.9	58.0603	14,419.9	49.1592	14,419.9	60.3415	14,419.9	51.4226	14,419.9	54.5646	14,419.9	57.0847	14,419.9	50.1054
14,928.2	85.551	14,928.2	85.3419	14,928.2	85.4425	14,928.2	85.1803	14,928.2	85.8083	14,928.2	84.4463	14,928.2	84.2974	14,928.2	79.992	14,928.2	80.1592	14,928.2	75.3997	14,928.2	75.7858	14,928.2	72.5965	14,928.2	71.3743	14,928.2	67.0228	14,928.2	64.7518	14,928.2	62.2112	14,928.2	61.412	14,928.2	59.3336	14,928.2	47.7582	14,928.2	57.0018	14,928.2	59.4167	14,928.2	57.002	14,928.2	65.2947	14,928.2	47.204	14,928.2	55.2951	14,928.2	45.3997	14,928.2	49.6536	14,928.2	52.5382	14,928.2	55.9413	14,928.2	57.2953	14,928.2	48.5122	14,928.2	58.8821	14,928.2	53.7747	14,928.2	50.1682	14,928.2	56.2336	14,928.2	44.7069
15,455.6	85.5066	15,455.6	85.2636	15,455.6	85.1856	15,455.6	85.3896	15,455.6	85.5595	15,455.6	84.0089	15,455.6	83.9656	15,455.6	79.1918	15,455.6	80.4017	15,455.6	75.545	15,455.6	77.032	15,455.6	71.4917	15,455.6	70.1516	15,455.6	65.0527	15,455.6	65.3587	15,455.6	60.6841	15,455.6	61.8888	15,455.6	58.9868	15,455.6	47.8145	15,455.6	54.478	15,455.6	48.8937	15,455.6	57.3765	15,455.6	64.6724	15,455.6	43.1315	15,455.6	54.216	15,455.6	39.6432	15,455.6	50.3995	15,455.6	50.381	15,455.6	53.7972	15,455.6	56.5248	15,455.6	50.1261	15,455.6	58.4916	15,455.6	51.3828	15,455.6	52.1813	15,455.6	54.8317	15,455.6	45.5122
16,000.5	85.378	16,000.5	85.3473	16,000.5	85.4939	16,000.5	85.9988	16,000.5	85.6498	16,000.5	83.8969	16,000.5	83.0222	16,000.5	79.6191	16,000.5	79.6086	16,000.5	75.923	16,000.5	73.3454	16,000.5	71.1026	16,000.5	71.735	16,000.5	64.0351	16,000.5	64.5997	16,000.5	60.7076	16,000.5	62.8905	16,000.5	59.5002	16,000.5	48.6278	16,000.5	55.8583	16,000.5	59.5632	16,000.5	57.6024	16,000.5	67.3259	16,000.5	46.0605	16,000.5	55.4215	16,000.5	41.5925	16,000.5	51.0455	16,000.5	53.6091	16,000.5	53.3374	16,000.5	55.8741	16,000.5	53.2435	16,000.5	56.8958	16,000.5	50.7944	16,000.5	53.6531	16,000.5	56.7727	16,000.5	50.7176
16,564.5	84.9018	16,564.5	85.6795	16,564.5	85.7357	16,564.5	86.3367	16,564.5	86.0166	16,564.5	83.975	16,564.5	82.7401	16,564.5	80.4058	16,564.5	77.6074	16,564.5	76.4699	16,564.5	74.3449	16,564.5	70.6784	16,564.5	70.3548	16,564.5	66.3816	16,564.5	64.0896	16,564.5	62.3541	16,564.5	63.0594	16,564.5	60.213	16,564.5	38.4646	16,564.5	55.7067	16,564.5	63.2593	16,564.5	58.8451	16,564.5	69.8869	16,564.5	44.5643	16,564.5	58.3106	16,564.5	49.1201	16,564.5	52.313	16,564.5	55.0685	16,564.5	54.5529	16,564.5	56.2471	16,564.5	52.328	16,564.5	59.5646	16,564.5	55.853	16,564.5	51.2007	16,564.5	57.2386	16,564.5	44.7401
17,148.9	84.6249	17,148.9	86.1111	17,148.9	85.9938	17,148.9	86.548	17,148.9	86.8183	17,148.9	84.2219	17,148.9	83.5426	17,148.9	81.168	17,148.9	79.4731	17,148.9	76.3866	17,148.9	75.5182	17,148.9	71.3479	17,148.9	69.504	17,148.9	67.2161	17,148.9	66.6222	17,148.9	63.5237	17,148.9	60.7095	17,148.9	60.871	17,148.9	54.5189	17,148.9	55.6214	17,148.9	65.8143	17,148.9	58.6225	17,148.9	72.0834	17,148.9	38.94	17,148.9	58.496	17,148.9	49.4225	17,148.9	56.8447	17,148.9	56.0244	17,148.9	55.1251	17,148.9	57.4018	17,148.9	52.9362	17,148.9	59.6723	17,148.9	57.391	17,148.9	54.5483	17,148.9	56.8878	17,148.9	42.209
17,752.4	84.5535	17,752.4	86.3477	17,752.4	86.379	17,752.4	86.5574	17,752.4	87.0553	17,752.4	84.3626	17,752.4	83.7963	17,752.4	81.5741	17,752.4	79.4861	17,752.4	76.1357	17,752.4	75.7751	17,752.4	71.8118	17,752.4	69.5969	17,752.4	68.194	17,752.4	65.611	17,752.4	63.143	17,752.4	59.8757	17,752.4	60.6423	17,752.4	54.1848	17,752.4	53.992	17,752.4	67.6039	17,752.4	58.3997	17,752.4	74.0368	17,752.4	39.7847	17,752.4	60.3	17,752.4	49.8902	17,752.4	58.806	17,752.4	55.1479	17,752.4	57.5476	17,752.4	57.8463	17,752.4	52.233	17,752.4	59.8723	17,752.4	56.9459	17,752.4	51.8639	17,752.4	57.6437	17,752.4	45.5595
18,379.4	85.1488	18,379.4	87.6784	18,379.4	87.2876	18,379.4	87.3447	18,379.4	88.486	18,379.4	85.7917	18,379.4	85.3632	18,379.4	82.6143	18,379.4	81.5395	18,379.4	77.19	18,379.4	76.1636	18,379.4	73.6258	18,379.4	70.6575	18,379.4	68.968	18,379.4	66.8842	18,379.4	63.7866	18,379.4	62.4199	18,379.4	60.9832	18,379.4	60.9902	18,379.4	53.1927	18,379.4	67.6596	18,379.4	59.4365	18,379.4	75.4923	18,379.4	48.6862	18,379.4	61.0202	18,379.4	52.9099	18,379.4	60.3627	18,379.4	55.7508	18,379.4	58.6773	18,379.4	58.8106	18,379.4	52.5954	18,379.4	60.2247	18,379.4	58.4047	18,379.4	55.045	18,379.4	56.9394	18,379.4	46.1651
19,026.9	85.9236	19,026.9	88.5467	19,026.9	87.382	19,026.9	87.9685	19,026.9	88.9422	19,026.9	86.6954	19,026.9	86.5356	19,026.9	83.3776	19,026.9	81.7551	19,026.9	78.0757	19,026.9	78.8154	19,026.9	74.8295	19,026.9	69.3277	19,026.9	69.8916	19,026.9	70.3195	19,026.9	63.638	19,026.9	60.6112	19,026.9	61.5454	19,026.9	62.6909	19,026.9	53.0689	19,026.9	67.4839	19,026.9	59.0647	19,026.9	76.6214	19,026.9	52.5031	19,026.9	63.8216	19,026.9	51.4819	19,026.9	63.848	19,026.9	56.0259	19,026.9	60.8568	19,026.9	57.1195	19,026.9	53.2369	19,026.9	59.9494	19,026.9	57.6641	19,026.9	54.4614	19,026.9	57.4437	19,026.9	48.2356
19,697.8	85.992	19,697.8	88.3386	19,697.8	86.3792	19,697.8	87.5645	19,697.8	87.879	19,697.8	86.6261	19,697.8	85.4162	19,697.8	83.2211	19,697.8	82.2853	19,697.8	78.8477	19,697.8	78.2436	19,697.8	75.2734	19,697.8	71.0429	19,697.8	69.6089	19,697.8	69.8323	19,697.8	64.3603	19,697.8	59.0439	19,697.8	60.7319	19,697.8	65.0325	19,697.8	52.384	19,697.8	65.5842	19,697.8	58.5491	19,697.8	76.3611	19,697.8	53.5887	19,697.8	63.8934	19,697.8	52.3531	19,697.8	64.1792	19,697.8	56.0687	19,697.8	60.1111	19,697.8	57.7651	19,697.8	54.4789	19,697.8	60.2255	19,697.8	55.6803	19,697.8	49.5896	19,697.8	55.9108	19,697.8	54.8184
19,999.5	85.3025	19,999.5	87.2724	19,999.5	85.6181	19,999.5	86.482	19,999.5	87.0366	19,999.5	85.8059	19,999.5	84.5728	19,999.5	82.5814	19,999.5	81.5699	19,999.5	78.0637	19,999.5	77.5039	19,999.5	74.4067	19,999.5	70.27	19,999.5	68.7103	19,999.5	69.3318	19,999.5	64.2378	19,999.5	60.1742	19,999.5	60.9372	19,999.5	66.217	19,999.5	56.3715	19,999.5	67.4877	19,999.5	57.6106	19,999.5	76.0208	19,999.5	55.3243	19,999.5	63.5046	19,999.5	54.309	19,999.5	62.5069	19,999.5	56.6077	19,999.5	63.9022	19,999.5	58.4025	19,999.5	51.6934	19,999.5	62.3099	19,999.5	42.2897	19,999.5	61.7886	19,999.5	46.3895	19,999.5	56.018
