"SPL Horizontal"
"On-Axis"		"10°"		"-10°"		"20°"		"-20°"		"30°"		"-30°"		"40°"		"-40°"		"50°"		"-50°"		"60°"		"-60°"		"70°"		"-70°"		"80°"		"-80°"		"90°"		"-90°"		"100°"		"-100°"		"110°"		"-110°"		"120°"		"-120°"		"130°"		"-130°"		"140°"		"-140°"		"150°"		"-150°"		"160°"		"-160°"		"170°"		"-170°"		"180°"
"Frequency [Hz]"	"Sound Pessure Level [dB]  / [2.83V 1m] "	"Frequency [Hz]"	"Sound Pessure Level [dB]  / [2.83V 1m] "	"Frequency [Hz]"	"Sound Pessure Level [dB]  / [2.83V 1m] "	"Frequency [Hz]"	"Sound Pessure Level [dB]  / [2.83V 1m] "	"Frequency [Hz]"	"Sound Pessure Level [dB]  / [2.83V 1m] "	"Frequency [Hz]"	"Sound Pessure Level [dB]  / [2.83V 1m] "	"Frequency [Hz]"	"Sound Pessure Level [dB]  / [2.83V 1m] "	"Frequency [Hz]"	"Sound Pessure Level [dB]  / [2.83V 1m] "	"Frequency [Hz]"	"Sound Pessure Level [dB]  / [2.83V 1m] "	"Frequency [Hz]"	"Sound Pessure Level [dB]  / [2.83V 1m] "	"Frequency [Hz]"	"Sound Pessure Level [dB]  / [2.83V 1m] "	"Frequency [Hz]"	"Sound Pessure Level [dB]  / [2.83V 1m] "	"Frequency [Hz]"	"Sound Pessure Level [dB]  / [2.83V 1m] "	"Frequency [Hz]"	"Sound Pessure Level [dB]  / [2.83V 1m] "	"Frequency [Hz]"	"Sound Pessure Level [dB]  / [2.83V 1m] "	"Frequency [Hz]"	"Sound Pessure Level [dB]  / [2.83V 1m] "	"Frequency [Hz]"	"Sound Pessure Level [dB]  / [2.83V 1m] "	"Frequency [Hz]"	"Sound Pessure Level [dB]  / [2.83V 1m] "	"Frequency [Hz]"	"Sound Pessure Level [dB]  / [2.83V 1m] "	"Frequency [Hz]"	"Sound Pessure Level [dB]  / [2.83V 1m] "	"Frequency [Hz]"	"Sound Pessure Level [dB]  / [2.83V 1m] "	"Frequency [Hz]"	"Sound Pessure Level [dB]  / [2.83V 1m] "	"Frequency [Hz]"	"Sound Pessure Level [dB]  / [2.83V 1m] "	"Frequency [Hz]"	"Sound Pessure Level [dB]  / [2.83V 1m] "	"Frequency [Hz]"	"Sound Pessure Level [dB]  / [2.83V 1m] "	"Frequency [Hz]"	"Sound Pessure Level [dB]  / [2.83V 1m] "	"Frequency [Hz]"	"Sound Pessure Level [dB]  / [2.83V 1m] "	"Frequency [Hz]"	"Sound Pessure Level [dB]  / [2.83V 1m] "	"Frequency [Hz]"	"Sound Pessure Level [dB]  / [2.83V 1m] "	"Frequency [Hz]"	"Sound Pessure Level [dB]  / [2.83V 1m] "	"Frequency [Hz]"	"Sound Pessure Level [dB]  / [2.83V 1m] "	"Frequency [Hz]"	"Sound Pessure Level [dB]  / [2.83V 1m] "	"Frequency [Hz]"	"Sound Pessure Level [dB]  / [2.83V 1m] "	"Frequency [Hz]"	"Sound Pessure Level [dB]  / [2.83V 1m] "	"Frequency [Hz]"	"Sound Pessure Level [dB]  / [2.83V 1m] "	"Frequency [Hz]"	"Sound Pessure Level [dB]  / [2.83V 1m] "
20.5078	30.7861	20.5078	30.4883	20.5078	30.9918	20.5078	30.0917	20.5078	31.1083	20.5078	29.5877	20.5078	31.1346	20.5078	28.9702	20.5078	31.0671	20.5078	28.2457	20.5078	30.9018	20.5078	27.4501	20.5078	30.637	20.5078	26.6758	20.5078	30.2759	20.5078	26.0902	20.5078	29.8321	20.5078	25.8927	20.5078	29.3354	20.5078	26.175	20.5078	28.8393	20.5078	26.8272	20.5078	28.4224	20.5078	27.6329	20.5078	28.1729	20.5078	28.4092	20.5078	28.1512	20.5078	29.0503	20.5078	28.352	20.5078	29.5088	20.5078	28.7041	20.5078	29.7705	20.5078	29.1078	20.5078	29.8392	20.5078	29.4721	20.5078	29.7306
21.9727	27.5326	21.9727	27.7709	21.9727	27.3147	21.9727	28.0246	21.9727	27.1418	21.9727	28.306	21.9727	27.0563	21.9727	28.6389	21.9727	27.11	21.9727	29.0491	21.9727	27.3481	21.9727	29.5536	21.9727	27.7906	21.9727	30.1525	21.9727	28.4225	21.9727	30.8283	21.9727	29.1996	21.9727	31.5503	21.9727	30.0642	21.9727	32.2832	21.9727	30.9605	21.9727	32.9929	21.9727	31.8416	21.9727	33.6499	21.9727	32.6712	21.9727	34.2303	21.9727	33.422	21.9727	34.7151	21.9727	34.0739	21.9727	35.0894	21.9727	34.6121	21.9727	35.3424	21.9727	35.0259	21.9727	35.4659	21.9727	35.3082	21.9727	35.4552
23.4375	19.604	23.4375	19.7514	23.4375	19.4856	23.4375	19.7608	23.4375	19.6349	23.4375	19.5809	23.4375	20.2358	23.4375	19.3224	23.4375	21.276	23.4375	19.3422	23.4375	22.584	23.4375	20.142	23.4375	23.982	23.4375	21.8258	23.4375	25.3619	23.4375	23.9513	23.4375	26.6762	23.4375	26.0777	23.4375	27.9094	23.4375	27.9986	23.4375	29.0577	23.4375	29.6524	23.4375	30.1185	23.4375	31.0333	23.4375	31.0863	23.4375	32.1524	23.4375	31.9525	23.4375	33.0242	23.4375	32.7056	23.4375	33.6632	23.4375	33.3322	23.4375	34.0826	23.4375	33.8185	23.4375	34.2952	23.4375	34.1502	23.4375	34.3135
24.9023	34.8327	24.9023	34.8903	24.9023	34.7412	24.9023	34.9231	24.9023	34.6185	24.9023	34.952	24.9023	34.4804	24.9023	35.0075	24.9023	34.3579	24.9023	35.1267	24.9023	34.2964	24.9023	35.3458	24.9023	34.3503	24.9023	35.6886	24.9023	34.5682	24.9023	36.1573	24.9023	34.9727	24.9023	36.7299	24.9023	35.5479	24.9023	37.3667	24.9023	36.2451	24.9023	38.0212	24.9023	37.0009	24.9023	38.6499	24.9023	37.7558	24.9023	39.217	24.9023	38.4624	24.9023	39.6955	24.9023	39.0873	24.9023	40.0665	24.9023	39.6081	24.9023	40.3171	24.9023	40.0106	24.9023	40.4395	24.9023	40.286	24.9023	40.4295
26.3672	36.1514	26.3672	36.1409	26.3672	36.0892	26.3672	36.0599	26.3672	35.965	26.3672	35.9246	26.3672	35.803	26.3672	35.768	26.3672	35.6442	26.3672	35.6429	26.3672	35.5462	26.3672	35.6185	26.3672	35.5764	26.3672	35.7646	26.3672	35.7932	26.3672	36.1235	26.3672	36.2201	26.3672	36.6869	26.3672	36.8325	26.3672	37.399	26.3672	37.5684	26.3672	38.1822	26.3672	38.3538	26.3672	38.9637	26.3672	39.1229	26.3672	39.6879	26.3672	39.8264	26.3672	40.3171	26.3672	40.4305	26.3672	40.8273	26.3672	40.9136	26.3672	41.2041	26.3672	41.2621	26.3672	41.4389	26.3672	41.4681	26.3672	41.5274
27.832	39.2571	27.832	39.2755	27.832	39.1793	27.832	39.2381	27.832	39.0527	27.832	39.1637	27.832	38.9027	27.832	39.0882	27.832	38.7704	27.832	39.0633	27.832	38.711	27.832	39.1499	27.832	38.7844	27.832	39.3997	27.832	39.0378	27.832	39.8334	27.832	39.485	27.832	40.4292	27.832	40.0986	27.832	41.1322	27.832	40.8219	27.832	41.8764	27.832	41.5894	27.832	42.602	27.832	42.3428	27.832	43.2637	27.832	43.0373	27.832	43.8298	27.832	43.6417	27.832	44.2799	27.832	44.1346	27.832	44.6013	27.832	44.5024	27.832	44.7865	27.832	44.7365	27.832	44.8318
29.2969	41.2111	29.2969	41.2355	29.2969	41.1956	29.2969	41.2779	29.2969	41.192	29.2969	41.3581	29.2969	41.2151	29.2969	41.5039	29.2969	41.2903	29.2969	41.7443	29.2969	41.4487	29.2969	42.1007	29.2969	41.7197	29.2969	42.5777	29.2969	42.1199	29.2969	43.1598	29.2969	42.6455	29.2969	43.8145	29.2969	43.2712	29.2969	44.5013	29.2969	43.9574	29.2969	45.1799	29.2969	44.6605	29.2969	45.8155	29.2969	45.341	29.2969	46.3811	29.2969	45.9666	29.2969	46.8565	29.2969	46.5132	29.2969	47.2277	29.2969	46.9637	29.2969	47.4853	29.2969	47.3063	29.2969	47.6235	29.2969	47.5331	29.2969	47.6395
30.7617	44.8538	30.7617	44.9097	30.7617	44.7982	30.7617	44.9715	30.7617	44.7479	30.7617	45.0543	30.7617	44.7193	30.7617	45.1801	30.7617	44.7389	30.7617	45.3734	30.7617	44.8391	30.7617	45.6551	30.7617	45.0502	30.7617	46.035	30.7617	45.3899	30.7617	46.5077	30.7617	45.855	30.7617	47.0527	30.7617	46.4212	30.7617	47.6392	30.7617	47.0502	30.7617	48.2327	30.7617	47.7001	30.7617	48.8005	30.7617	48.3323	30.7617	49.3145	30.7617	48.9162	30.7617	49.7528	30.7617	49.4281	30.7617	50.0987	30.7617	49.8513	30.7617	50.3408	30.7617	50.1737	30.7617	50.4716	30.7617	50.3874	30.7617	50.4874
32.2266	47.7271	32.2266	47.7307	32.2266	47.7134	32.2266	47.7244	32.2266	47.6995	32.2266	47.7188	32.2266	47.7051	32.2266	47.7335	32.2266	47.7572	32.2266	47.7949	32.2266	47.885	32.2266	47.9316	32.2266	48.112	32.2266	48.1669	32.2266	48.4479	32.2266	48.5112	32.2266	48.8841	32.2266	48.9574	32.2266	49.3959	32.2266	49.4817	32.2266	49.9497	32.2266	50.0497	32.2266	50.5106	32.2266	50.6239	32.2266	51.0473	32.2266	51.1692	32.2266	51.5342	32.2266	51.6564	32.2266	51.9515	32.2266	52.0634	32.2266	52.2839	32.2266	52.3741	32.2266	52.5197	32.2266	52.5784	32.2266	52.6506	32.2266	52.6709
33.6914	50.7178	33.6914	50.7025	33.6914	50.7436	33.6914	50.7035	33.6914	50.7824	33.6914	50.7346	33.6914	50.8441	33.6914	50.8155	33.6914	50.9439	33.6914	50.968	33.6914	51.0992	33.6914	51.2102	33.6914	51.3248	33.6914	51.5502	33.6914	51.6292	33.6914	51.9818	33.6914	52.0106	33.6914	52.4848	33.6914	52.4573	33.6914	53.0298	33.6914	52.9491	33.6914	53.5843	33.6914	53.4612	33.6914	54.117	33.6914	53.9678	33.6914	54.6016	33.6914	54.4441	33.6914	55.0173	33.6914	54.8687	33.6914	55.3485	33.6914	55.2237	33.6914	55.5844	33.6914	55.4948	33.6914	55.7184	33.6914	55.6717	33.6914	55.7474
35.1562	53.266	35.1562	53.2842	35.1562	53.2755	35.1562	53.3342	35.1562	53.3146	35.1562	53.4251	35.1562	53.3906	35.1562	53.5691	35.1562	53.5143	35.1562	53.7785	35.1562	53.6977	35.1562	54.0615	35.1562	53.9502	35.1562	54.4189	35.1562	54.2753	35.1562	54.8425	35.1562	54.6686	35.1562	55.3154	35.1562	55.1173	35.1562	55.8152	35.1562	55.6022	35.1562	56.3173	35.1562	56.1004	35.1562	56.7978	35.1562	56.5883	35.1562	57.2352	35.1562	57.0438	35.1562	57.6116	35.1562	57.4474	35.1562	57.9129	35.1562	57.7833	35.1562	58.1284	35.1562	58.039	35.1562	58.251	35.1562	58.2054	35.1562	58.2769
36.6211	56.5568	36.6211	56.5723	36.6211	56.5576	36.6211	56.607	36.6211	56.5769	36.6211	56.6677	36.6211	56.621	36.6211	56.7646	36.6211	56.6995	36.6211	56.9087	36.6211	56.8231	36.6211	57.1092	36.6211	57.0015	36.6211	57.3707	36.6211	57.2403	36.6211	57.6906	36.6211	57.5389	36.6211	58.0591	36.6211	57.8898	36.6211	58.4598	36.6211	58.279	36.6211	58.8726	36.6211	58.6881	36.6211	59.276	36.6211	59.0966	36.6211	59.6496	36.6211	59.4841	36.6211	59.9755	36.6211	59.8321	36.6211	60.2389	36.6211	60.1247	36.6211	60.4286	36.6211	60.3492	36.6211	60.5369	36.6211	60.4962	36.6211	60.5596
38.0859	59.0029	38.0859	59.0214	38.0859	59.0026	38.0859	59.0606	38.0859	59.0216	38.0859	59.1261	38.0859	59.0645	38.0859	59.2261	38.0859	59.1389	38.0859	59.3688	38.0859	59.2533	38.0859	59.561	38.0859	59.4158	38.0859	59.8057	38.0859	59.6316	38.0859	60.1003	38.0859	59.901	38.0859	60.4362	38.0859	60.2182	38.0859	60.7996	38.0859	60.5718	38.0859	61.1735	38.0859	60.9459	38.0859	61.5391	38.0859	61.322	38.0859	61.8782	38.0859	61.6814	38.0859	62.1743	38.0859	62.0063	38.0859	62.4137	38.0859	62.2814	38.0859	62.5853	38.0859	62.4942	38.0859	62.6817	38.0859	62.6352	38.0859	62.6986
39.5508	61.3255	39.5508	61.3433	39.5508	61.3235	39.5508	61.3785	39.5508	61.3388	39.5508	61.436	39.5508	61.3759	39.5508	61.5225	39.5508	61.4416	39.5508	61.6458	39.5508	61.544	39.5508	61.8123	39.5508	61.6903	39.5508	62.0257	39.5508	61.8852	39.5508	62.2849	39.5508	62.1291	39.5508	62.5837	39.5508	62.4171	39.5508	62.9108	39.5508	62.7392	39.5508	63.251	39.5508	63.081	39.5508	63.5873	39.5508	63.4258	39.5508	63.9025	39.5508	63.7561	39.5508	64.1805	39.5508	64.0552	39.5508	64.4074	39.5508	64.3084	39.5508	64.5721	39.5508	64.5037	39.5508	64.6667	39.5508	64.6318	39.5508	64.687
41.0156	63.6369	41.0156	63.6507	41.0156	63.6372	41.0156	63.6806	41.0156	63.6525	41.0156	63.7309	41.0156	63.6862	41.0156	63.8074	41.0156	63.7437	41.0156	63.9168	41.0156	63.8317	41.0156	64.0644	41.0156	63.9565	41.0156	64.2534	41.0156	64.1229	41.0156	64.483	41.0156	64.3321	41.0156	64.7478	41.0156	64.581	41.0156	65.0383	41.0156	64.8618	41.0156	65.3413	41.0156	65.1629	41.0156	65.642	41.0156	65.4697	41.0156	65.9245	41.0156	65.7666	41.0156	66.1741	41.0156	66.0379	41.0156	66.3778	41.0156	66.2697	41.0156	66.5251	41.0156	66.4501	41.0156	66.6085	41.0156	66.5701	41.0156	66.6238
42.4805	65.5848	42.4805	65.5979	42.4805	65.585	42.4805	65.6261	42.4805	65.5992	42.4805	65.673	42.4805	65.6304	42.4805	65.744	42.4805	65.6834	42.4805	65.8447	42.4805	65.7642	42.4805	65.9801	42.4805	65.8786	42.4805	66.1532	42.4805	66.0308	42.4805	66.3636	42.4805	66.2222	42.4805	66.6069	42.4805	66.4503	42.4805	66.8748	42.4805	66.7084	42.4805	67.1554	42.4805	66.9862	42.4805	67.435	42.4805	67.2705	42.4805	67.6987	42.4805	67.5468	42.4805	67.9324	42.4805	67.8005	42.4805	68.1235	42.4805	68.0182	42.4805	68.2617	42.4805	68.1884	42.4805	68.3397	42.4805	68.3021	42.4805	68.3534
43.9453	67.612	43.9453	67.6254	43.9453	67.6117	43.9453	67.6532	43.9453	67.6249	43.9453	67.6985	43.9453	67.6541	43.9453	67.7658	43.9453	67.7035	43.9453	67.8596	43.9453	67.7779	43.9453	67.9842	43.9453	67.8822	43.9453	68.1419	43.9453	68.02	43.9453	68.3325	43.9453	68.1927	43.9453	68.5523	43.9453	68.3982	43.9453	68.7941	43.9453	68.631	43.9453	69.0477	43.9453	68.8822	43.9453	69.3008	43.9453	69.1403	43.9453	69.5401	43.9453	69.392	43.9453	69.7526	43.9453	69.6242	43.9453	69.9267	43.9453	69.8243	43.9453	70.0526	43.9453	69.9813	43.9453	70.1233	43.9453	70.0867	43.9453	70.1349
45.4102	69.3605	45.4102	69.3753	45.4102	69.3578	45.4102	69.4031	45.4102	69.3676	45.4102	69.4468	45.4102	69.3923	45.4102	69.5103	45.4102	69.4355	45.4102	69.5976	45.4102	69.5018	45.4102	69.7126	45.4102	69.5957	45.4102	69.8574	45.4102	69.7205	45.4102	70.032	45.4102	69.8777	45.4102	70.2332	45.4102	70.0658	45.4102	70.4548	45.4102	70.2797	45.4102	70.6876	45.4102	70.5117	45.4102	70.9204	45.4102	70.7511	45.4102	71.141	45.4102	70.9858	45.4102	71.3373	45.4102	71.2033	45.4102	71.498	45.4102	71.3915	45.4102	71.614	45.4102	71.54	45.4102	71.6784	45.4102	71.6405	45.4102	71.6875
46.875	71.0104	46.875	71.0237	46.875	71.0086	46.875	71.0494	46.875	71.019	46.875	71.0898	46.875	71.0435	46.875	71.1483	46.875	71.0854	46.875	71.2282	46.875	71.1484	46.875	71.333	46.875	71.2366	46.875	71.4648	46.875	71.3528	46.875	71.6235	46.875	71.4981	46.875	71.8067	46.875	71.6712	46.875	72.0089	46.875	71.8676	46.875	72.2223	46.875	72.0803	46.875	72.4367	46.875	72.2998	46.875	72.641	46.875	72.5151	46.875	72.8236	46.875	72.7145	46.875	72.9742	46.875	72.8871	46.875	73.0836	46.875	73.023	46.875	73.1455	46.875	73.1144	46.875	73.156
48.3398	72.6412	48.3398	72.6529	48.3398	72.6404	48.3398	72.6764	48.3398	72.6511	48.3398	72.7134	48.3398	72.6749	48.3398	72.7667	48.3398	72.7148	48.3398	72.8395	48.3398	72.7739	48.3398	72.9346	48.3398	72.8554	48.3398	73.0538	48.3398	72.9618	48.3398	73.1974	48.3398	73.094	48.3398	73.3633	48.3398	73.2507	48.3398	73.5467	48.3398	73.4282	48.3398	73.7406	48.3398	73.6204	48.3398	73.9359	48.3398	73.8188	48.3398	74.1225	48.3398	74.0138	48.3398	74.2898	48.3398	74.1947	48.3398	74.428	48.3398	74.3516	48.3398	74.5288	48.3398	74.4753	48.3398	74.586	48.3398	74.5584	48.3398	74.5961
51.2695	75.4882	51.2695	75.4973	51.2695	75.4895	51.2695	75.5175	51.2695	75.5015	51.2695	75.5502	51.2695	75.5255	51.2695	75.5973	51.2695	75.5631	51.2695	75.6612	51.2695	75.6166	51.2695	75.7438	51.2695	75.6881	51.2695	75.8465	51.2695	75.7795	51.2695	75.9691	51.2695	75.8911	51.2695	76.11	51.2695	76.0222	51.2695	76.2653	51.2695	76.17	51.2695	76.4292	51.2695	76.3298	51.2695	76.5943	51.2695	76.4952	51.2695	76.7521	51.2695	76.6582	51.2695	76.8938	51.2695	76.8104	51.2695	77.0108	51.2695	76.943	51.2695	77.096	51.2695	77.0482	51.2695	77.1441	51.2695	77.1194	51.2695	77.1521
52.7344	76.7268	52.7344	76.737	52.7344	76.7269	52.7344	76.7578	52.7344	76.7374	52.7344	76.7904	52.7344	76.7593	52.7344	76.8366	52.7344	76.7941	52.7344	76.8981	52.7344	76.8439	52.7344	76.9766	52.7344	76.9104	52.7344	77.0731	52.7344	76.9952	52.7344	77.1875	52.7344	77.0988	52.7344	77.3182	52.7344	77.2203	52.7344	77.4617	52.7344	77.3573	52.7344	77.6129	52.7344	77.5056	52.7344	77.765	52.7344	77.6593	52.7344	77.9102	52.7344	77.8111	52.7344	78.0405	52.7344	77.9532	52.7344	78.148	52.7344	78.0774	52.7344	78.226	52.7344	78.1763	52.7344	78.2694	52.7344	78.2438	52.7344	78.2755
54.1992	77.8884	54.1992	77.8981	54.1992	77.889	54.1992	77.9185	54.1992	77.9	54.1992	77.9506	54.1992	77.9223	54.1992	77.9957	54.1992	77.957	54.1992	78.0551	54.1992	78.0055	54.1992	78.1301	54.1992	78.0694	54.1992	78.2214	54.1992	78.1497	54.1992	78.3286	54.1992	78.2466	54.1992	78.4502	54.1992	78.3595	54.1992	78.5831	54.1992	78.4859	54.1992	78.7224	54.1992	78.6223	54.1992	78.8622	54.1992	78.7633	54.1992	78.9954	54.1992	78.9026	54.1992	79.1148	54.1992	79.0329	54.1992	79.2131	54.1992	79.1469	54.1992	79.2844	54.1992	79.2378	54.1992	79.324	54.1992	79.2999	54.1992	79.3293
55.6641	78.8959	55.6641	78.9058	55.6641	78.8959	55.6641	78.926	55.6641	78.906	55.6641	78.9573	55.6641	78.9269	55.6641	79.0005	55.6641	78.9596	55.6641	79.0569	55.6641	79.0052	55.6641	79.1275	55.6641	79.0651	55.6641	79.2128	55.6641	79.1399	55.6641	79.3123	55.6641	79.2298	55.6641	79.4245	55.6641	79.3341	55.6641	79.5466	55.6641	79.4506	55.6641	79.6745	55.6641	79.5761	55.6641	79.8025	55.6641	79.7058	55.6641	79.9244	55.6641	79.8339	55.6641	80.0336	55.6641	79.9539	55.6641	80.1235	55.6641	80.0592	55.6641	80.1885	55.6641	80.1432	55.6641	80.2243	55.6641	80.201	55.6641	80.2286
58.5938	80.5478	58.5938	80.5576	58.5938	80.5471	58.5938	80.5766	58.5938	80.5556	58.5938	80.6052	58.5938	80.574	58.5938	80.6439	58.5938	80.6029	58.5938	80.6935	58.5938	80.643	58.5938	80.7542	58.5938	80.695	58.5938	80.8264	58.5938	80.7594	58.5938	80.9095	58.5938	80.836	58.5938	81.0022	58.5938	80.924	58.5938	81.1024	58.5938	81.0214	58.5938	81.2067	58.5938	81.1255	58.5938	81.311	58.5938	81.2325	58.5938	81.4103	58.5938	81.3377	58.5938	81.4992	58.5938	81.4359	58.5938	81.5726	58.5938	81.5217	58.5938	81.6258	58.5938	81.5901	58.5938	81.6553	58.5938	81.6369	58.5938	81.6591
60.0586	81.2306	60.0586	81.2401	60.0586	81.23	60.0586	81.2582	60.0586	81.2383	60.0586	81.2854	60.0586	81.2559	60.0586	81.3218	60.0586	81.2835	60.0586	81.3679	60.0586	81.3214	60.0586	81.4239	60.0586	81.3702	60.0586	81.4899	60.0586	81.43	60.0586	81.5653	60.0586	81.5006	60.0586	81.649	60.0586	81.5809	60.0586	81.739	60.0586	81.6693	60.0586	81.8326	60.0586	81.7633	60.0586	81.926	60.0586	81.8595	60.0586	82.015	60.0586	81.9537	60.0586	82.0948	60.0586	82.0414	60.0586	82.1607	60.0586	82.1179	60.0586	82.2087	60.0586	82.1787	60.0586	82.2356	60.0586	82.2201	60.0586	82.2395
62.9883	82.3126	62.9883	82.3189	62.9883	82.3143	62.9883	82.3333	62.9883	82.3242	62.9883	82.3557	62.9883	82.3424	62.9883	82.3863	62.9883	82.369	62.9883	82.425	62.9883	82.4042	62.9883	82.472	62.9883	82.4478	62.9883	82.5269	62.9883	82.4997	62.9883	82.5893	62.9883	82.5594	62.9883	82.6581	62.9883	82.6259	62.9883	82.732	62.9883	82.6979	62.9883	82.8086	62.9883	82.7734	62.9883	82.8851	62.9883	82.8499	62.9883	82.958	62.9883	82.9244	62.9883	83.0236	62.9883	82.9933	62.9883	83.0781	62.9883	83.0531	62.9883	83.1182	62.9883	83.1003	62.9883	83.1414	62.9883	83.132	62.9883	83.146
64.4531	82.7164	64.4531	82.7235	64.4531	82.7176	64.4531	82.7386	64.4531	82.7269	64.4531	82.7618	64.4531	82.7446	64.4531	82.7928	64.4531	82.7706	64.4531	82.8317	64.4531	82.8049	64.4531	82.8782	64.4531	82.8473	64.4531	82.9319	64.4531	82.8974	64.4531	82.9923	64.4531	82.9546	64.4531	83.0582	64.4531	83.0179	64.4531	83.1281	64.4531	83.086	64.4531	83.2	64.4531	83.157	64.4531	83.2712	64.4531	83.2286	64.4531	83.3385	64.4531	83.2981	64.4531	83.3986	64.4531	83.3625	64.4531	83.4481	64.4531	83.4185	64.4531	83.4841	64.4531	83.463	64.4531	83.5043	64.4531	83.4933	64.4531	83.5074
67.3828	83.3639	67.3828	83.3693	67.3828	83.3667	67.3828	83.383	67.3828	83.3778	67.3828	83.4048	67.3828	83.3968	67.3828	83.4343	67.3828	83.4235	67.3828	83.4712	67.3828	83.4574	67.3828	83.5148	67.3828	83.498	67.3828	83.5645	67.3828	83.5444	67.3828	83.6193	67.3828	83.5958	67.3828	83.678	67.3828	83.6514	67.3828	83.7393	67.3828	83.7097	67.3828	83.8012	67.3828	83.7695	67.3828	83.8617	67.3828	83.8289	67.3828	83.9181	67.3828	83.8859	67.3828	83.968	67.3828	83.9384	67.3828	84.0086	67.3828	83.9838	67.3828	84.0379	67.3828	84.0199	67.3828	84.054	67.3828	84.0446	67.3828	84.0563
68.8477	83.6218	68.8477	83.6252	68.8477	83.6266	68.8477	83.6366	68.8477	83.6391	68.8477	83.656	68.8477	83.6591	68.8477	83.683	68.8477	83.6861	68.8477	83.7171	68.8477	83.7193	68.8477	83.7577	68.8477	83.7581	68.8477	83.8039	68.8477	83.8018	68.8477	83.8548	68.8477	83.8492	68.8477	83.9091	68.8477	83.8996	68.8477	83.9653	68.8477	83.9518	68.8477	84.0218	68.8477	84.0046	68.8477	84.0765	68.8477	84.0565	68.8477	84.1272	68.8477	84.1059	68.8477	84.1717	68.8477	84.1509	68.8477	84.2079	68.8477	84.1897	68.8477	84.2338	68.8477	84.2204	68.8477	84.2483	68.8477	84.2411	68.8477	84.2507
71.7773	84.0156	71.7773	84.0225	71.7773	84.0166	71.7773	84.0374	71.7773	84.0256	71.7773	84.0596	71.7773	84.0422	71.7773	84.0884	71.7773	84.0659	71.7773	84.123	71.7773	84.0959	71.7773	84.1622	71.7773	84.1311	71.7773	84.205	71.7773	84.1706	71.7773	84.2501	71.7773	84.2132	71.7773	84.2962	71.7773	84.2576	71.7773	84.3421	71.7773	84.3029	71.7773	84.3866	71.7773	84.3477	71.7773	84.4283	71.7773	84.391	71.7773	84.4658	71.7773	84.4316	71.7773	84.4979	71.7773	84.4681	71.7773	84.5233	71.7773	84.4995	71.7773	84.5409	71.7773	84.5243	71.7773	84.55	71.7773	84.5415	71.7773	84.5502
74.707	84.2547	74.707	84.2631	74.707	84.2537	74.707	84.2786	74.707	84.2602	74.707	84.3006	74.707	84.2739	74.707	84.3281	74.707	84.2944	74.707	84.3601	74.707	84.3206	74.707	84.3953	74.707	84.3517	74.707	84.4325	74.707	84.3864	74.707	84.4705	74.707	84.4235	74.707	84.5079	74.707	84.4618	74.707	84.5439	74.707	84.5001	74.707	84.5774	74.707	84.5372	74.707	84.6078	74.707	84.5723	74.707	84.6344	74.707	84.6042	74.707	84.6566	74.707	84.6323	74.707	84.6739	74.707	84.6557	74.707	84.6858	74.707	84.6737	74.707	84.692	74.707	84.6859	74.707	84.6921
77.6367	84.4595	77.6367	84.4667	77.6367	84.4601	77.6367	84.4813	77.6367	84.4684	77.6367	84.5025	77.6367	84.484	77.6367	84.5292	77.6367	84.5059	77.6367	84.5599	77.6367	84.5331	77.6367	84.5933	77.6367	84.5641	77.6367	84.6276	77.6367	84.5975	77.6367	84.6615	77.6367	84.6319	77.6367	84.6937	77.6367	84.666	77.6367	84.7231	77.6367	84.6984	77.6367	84.7492	77.6367	84.7282	77.6367	84.7716	77.6367	84.7548	77.6367	84.7903	77.6367	84.7774	77.6367	84.8052	77.6367	84.7959	77.6367	84.8165	77.6367	84.8103	77.6367	84.8243	77.6367	84.8206	77.6367	84.8287	77.6367	84.8269	77.6367	84.8296
79.1016	84.5445	79.1016	84.5509	79.1016	84.5457	79.1016	84.5644	79.1016	84.5542	79.1016	84.5842	79.1016	84.5695	79.1016	84.6092	79.1016	84.5906	79.1016	84.6379	79.1016	84.6164	79.1016	84.6686	79.1016	84.6453	79.1016	84.6998	79.1016	84.6758	79.1016	84.73	79.1016	84.7066	79.1016	84.758	79.1016	84.7362	79.1016	84.7828	79.1016	84.7636	79.1016	84.804	79.1016	84.788	79.1016	84.8214	79.1016	84.8088	79.1016	84.8352	79.1016	84.8257	79.1016	84.8457	79.1016	84.839	79.1016	84.8532	79.1016	84.8487	79.1016	84.8582	79.1016	84.8554	79.1016	84.8608	79.1016	84.8595	79.1016	84.8612
82.0312	84.6555	82.0312	84.6562	82.0312	84.6619	82.0312	84.6641	82.0312	84.6753	82.0312	84.6785	82.0312	84.6947	82.0312	84.6984	82.0312	84.7189	82.0312	84.7225	82.0312	84.7465	82.0312	84.7491	82.0312	84.776	82.0312	84.7768	82.0312	84.8057	82.0312	84.8041	82.0312	84.8342	82.0312	84.8298	82.0312	84.8601	82.0312	84.853	82.0312	84.8825	82.0312	84.873	82.0312	84.9007	82.0312	84.8897	82.0312	84.9146	82.0312	84.9031	82.0312	84.9244	82.0312	84.9135	82.0312	84.9305	82.0312	84.9212	82.0312	84.9338	82.0312	84.9267	82.0312	84.9349	82.0312	84.9306	82.0312	84.9346	82.0312	84.9331
84.9609	84.6414	84.9609	84.6417	84.9609	84.6492	84.9609	84.65	84.9609	84.6644	84.9609	84.6662	84.9609	84.6861	84.9609	84.6893	84.9609	84.7131	84.9609	84.7182	84.9609	84.7436	84.9609	84.7514	84.9609	84.776	84.9609	84.7871	84.9609	84.8086	84.9609	84.8237	84.9609	84.8398	84.9609	84.8592	84.9609	84.8684	84.9609	84.892	84.9609	84.8934	84.9609	84.9209	84.9609	84.9145	84.9609	84.9448	84.9609	84.9317	84.9609	84.9632	84.9609	84.9454	84.9609	84.9761	84.9609	84.9563	84.9609	84.9838	84.9609	84.9652	84.9609	84.987	84.9609	84.9726	84.9609	84.9866	84.9609	84.9788	84.9609	84.9836
87.8906	84.7828	87.8906	84.7971	87.8906	84.7786	87.8906	84.8209	87.8906	84.7844	87.8906	84.853	87.8906	84.7991	87.8906	84.8917	87.8906	84.8214	87.8906	84.9348	87.8906	84.8492	87.8906	84.9795	87.8906	84.8803	87.8906	85.0235	87.8906	84.9123	87.8906	85.0641	87.8906	84.943	87.8906	85.0992	87.8906	84.9707	87.8906	85.1271	87.8906	84.9943	87.8906	85.1466	87.8906	85.0132	87.8906	85.1572	87.8906	85.0278	87.8906	85.1593	87.8906	85.0391	87.8906	85.1539	87.8906	85.0486	87.8906	85.1427	87.8906	85.0577	87.8906	85.1278	87.8906	85.068	87.8906	85.1112	87.8906	85.0803	87.8906	85.0949
90.8203	84.8804	90.8203	84.8964	90.8203	84.8681	90.8203	84.9153	90.8203	84.8599	90.8203	84.9358	90.8203	84.8556	90.8203	84.9566	90.8203	84.8546	90.8203	84.9759	90.8203	84.8561	90.8203	84.9919	90.8203	84.8589	90.8203	85.0031	90.8203	84.8614	90.8203	85.0079	90.8203	84.8624	90.8203	85.0056	90.8203	84.8609	90.8203	84.9957	90.8203	84.856	90.8203	84.9784	90.8203	84.8479	90.8203	84.955	90.8203	84.837	90.8203	84.9272	90.8203	84.8246	90.8203	84.8971	90.8203	84.8125	90.8203	84.8675	90.8203	84.8026	90.8203	84.8409	90.8203	84.797	90.8203	84.8195	90.8203	84.7974	90.8203	84.8048
95.2148	84.9275	95.2148	84.9426	95.2148	84.9181	95.2148	84.9628	95.2148	84.9146	95.2148	84.9868	95.2148	84.9163	95.2148	85.013	95.2148	84.9225	95.2148	85.0393	95.2148	84.9318	95.2148	85.0633	95.2148	84.9426	95.2148	85.0828	95.2148	84.9533	95.2148	85.096	95.2148	84.9625	95.2148	85.1013	95.2148	84.9689	95.2148	85.0982	95.2148	84.9716	95.2148	85.0869	95.2148	84.9706	95.2148	85.0687	95.2148	84.966	95.2148	85.0454	95.2148	84.9588	95.2148	85.0196	95.2148	84.9505	95.2148	84.9941	95.2148	84.9429	95.2148	84.9716	95.2148	84.9378	95.2148	84.9539	95.2148	84.9372	95.2148	84.9423
98.1445	84.9331	98.1445	84.946	98.1445	84.9259	98.1445	84.9637	98.1445	84.9246	98.1445	84.9849	98.1445	84.9286	98.1445	85.008	98.1445	84.9371	98.1445	85.0308	98.1445	84.9487	98.1445	85.0511	98.1445	84.9615	98.1445	85.0667	98.1445	84.9735	98.1445	85.0756	98.1445	84.9828	98.1445	85.0766	98.1445	84.9879	98.1445	85.0691	98.1445	84.9876	98.1445	85.0533	98.1445	84.9815	98.1445	85.0306	98.1445	84.97	98.1445	85.0032	98.1445	84.9544	98.1445	84.974	98.1445	84.9367	98.1445	84.946	98.1445	84.9195	98.1445	84.9224	98.1445	84.9055	98.1445	84.9057	98.1445	84.8975	98.1445	84.8972
101.074	84.821	101.074	84.8348	101.074	84.8158	101.074	84.8562	101.074	84.8194	101.074	84.8837	101.074	84.8314	101.074	84.9154	101.074	84.8507	101.074	84.9488	101.074	84.8758	101.074	84.9814	101.074	84.9043	101.074	85.0109	101.074	84.9341	101.074	85.0349	101.074	84.9625	101.074	85.0518	101.074	84.9873	101.074	85.0608	101.074	85.0066	101.074	85.0619	101.074	85.0194	101.074	85.0559	101.074	85.0251	101.074	85.0445	101.074	85.0243	101.074	85.0302	101.074	85.0185	101.074	85.0155	101.074	85.0098	101.074	85.0029	101.074	85.0008	101.074	84.9946	101.074	84.9941	101.074	84.9917
105.469	85.0332	105.469	85.0396	105.469	85.0306	105.469	85.0494	105.469	85.0317	105.469	85.0619	105.469	85.0359	105.469	85.0758	105.469	85.0425	105.469	85.0897	105.469	85.0502	105.469	85.1018	105.469	85.0577	105.469	85.1103	105.469	85.0636	105.469	85.1135	105.469	85.0663	105.469	85.1101	105.469	85.0645	105.469	85.0993	105.469	85.0574	105.469	85.0813	105.469	85.0445	105.469	85.0572	105.469	85.0265	105.469	85.0288	105.469	85.0046	105.469	84.999	105.469	84.9809	105.469	84.9709	105.469	84.9582	105.469	84.9475	105.469	84.9397	105.469	84.9316	105.469	84.9279	105.469	84.9249
108.398	84.9716	108.398	84.9801	108.398	84.9685	108.398	84.9939	108.398	84.9708	108.398	85.0121	108.398	84.9775	108.398	85.0331	108.398	84.9875	108.398	85.0554	108.398	84.9994	108.398	85.0767	108.398	85.0115	108.398	85.0949	108.398	85.0221	108.398	85.1081	108.398	85.0298	108.398	85.1146	108.398	85.0334	108.398	85.1134	108.398	85.032	108.398	85.1044	108.398	85.0254	108.398	85.0881	108.398	85.0144	108.398	85.0661	108.398	85.0002	108.398	85.0407	108.398	84.9849	108.398	85.0147	108.398	84.971	108.398	84.9911	108.398	84.961	108.398	84.9725	108.398	84.9572	108.398	84.961
112.793	85.1442	112.793	85.1458	112.793	85.1444	112.793	85.1488	112.793	85.1464	112.793	85.1525	112.793	85.1496	112.793	85.1558	112.793	85.1534	112.793	85.1569	112.793	85.1564	112.793	85.1543	112.793	85.1575	112.793	85.1463	112.793	85.1549	112.793	85.1316	112.793	85.1473	112.793	85.1093	112.793	85.1332	112.793	85.0794	112.793	85.1117	112.793	85.043	112.793	85.0827	112.793	85.002	112.793	85.0469	112.793	84.9594	112.793	85.0063	112.793	84.9188	112.793	84.9636	112.793	84.8841	112.793	84.9225	112.793	84.8588	112.793	84.8869	112.793	84.8457	112.793	84.8605	112.793	84.8463
117.188	85.1972	117.188	85.2039	117.188	85.1887	117.188	85.2089	117.188	85.1787	117.188	85.2115	117.188	85.1668	117.188	85.2112	117.188	85.1527	117.188	85.2069	117.188	85.1357	117.188	85.1975	117.188	85.1151	117.188	85.1817	117.188	85.0901	117.188	85.1585	117.188	85.06	117.188	85.1269	117.188	85.0247	117.188	85.087	117.188	84.9845	117.188	85.0395	117.188	84.9403	117.188	84.9863	117.188	84.8939	117.188	84.9302	117.188	84.8479	117.188	84.8747	117.188	84.8054	117.188	84.8239	117.188	84.7698	117.188	84.7814	117.188	84.7445	117.188	84.7507	117.188	84.7319	117.188	84.7339
120.117	85.1052	120.117	85.1126	120.117	85.0967	120.117	85.1183	120.117	85.0872	120.117	85.122	120.117	85.0765	120.117	85.1229	120.117	85.0645	120.117	85.1201	120.117	85.0505	120.117	85.1125	120.117	85.0337	120.117	85.099	120.117	85.0134	120.117	85.0787	120.117	84.9889	120.117	85.0508	120.117	84.9596	120.117	85.0153	120.117	84.9257	120.117	84.973	120.117	84.888	120.117	84.9257	120.117	84.8478	120.117	84.8759	120.117	84.8076	120.117	84.827	120.117	84.7702	120.117	84.7823	120.117	84.7385	120.117	84.7453	120.117	84.7156	120.117	84.7188	120.117	84.7038	120.117	84.7047
124.512	85.0845	124.512	85.0902	124.512	85.0787	124.512	85.0953	124.512	85.0731	124.512	85.0992	124.512	85.0677	124.512	85.101	124.512	85.0622	124.512	85.0997	124.512	85.0559	124.512	85.0945	124.512	85.0477	124.512	85.0841	124.512	85.0364	124.512	85.0678	124.512	85.021	124.512	85.0448	124.512	85.0004	124.512	85.0154	124.512	84.9746	124.512	84.98	124.512	84.9438	124.512	84.9405	124.512	84.9095	124.512	84.8991	124.512	84.8736	124.512	84.8586	124.512	84.8387	124.512	84.8224	124.512	84.8078	124.512	84.7933	124.512	84.7838	124.512	84.7739	124.512	84.7692	124.512	84.7657
128.906	85.0205	128.906	85.0293	128.906	85.0134	128.906	85.039	128.906	85.008	128.906	85.0488	128.906	85.0044	128.906	85.0573	128.906	85.0019	128.906	85.0632	128.906	84.9995	128.906	85.0648	128.906	84.9959	128.906	85.0605	128.906	84.9897	128.906	85.0489	128.906	84.9793	128.906	85.0292	128.906	84.9637	128.906	85.0013	128.906	84.9422	128.906	84.9659	128.906	84.9152	128.906	84.925	128.906	84.8836	128.906	84.8813	128.906	84.8493	128.906	84.8382	128.906	84.8151	128.906	84.7994	128.906	84.784	128.906	84.7684	128.906	84.7592	128.906	84.7479	128.906	84.7437	128.906	84.7396
133.301	85.0555	133.301	85.0646	133.301	85.0485	133.301	85.0751	133.301	85.0434	133.301	85.0861	133.301	85.0401	133.301	85.0963	133.301	85.0377	133.301	85.1041	133.301	85.0351	133.301	85.1075	133.301	85.031	133.301	85.1049	133.301	85.024	133.301	85.0945	133.301	85.0126	133.301	85.0752	133.301	84.9956	133.301	85.0466	133.301	84.9723	133.301	85.0091	133.301	84.9428	133.301	84.9646	133.301	84.9081	133.301	84.9159	133.301	84.8702	133.301	84.8667	133.301	84.8319	133.301	84.8215	133.301	84.797	133.301	84.7846	133.301	84.7692	133.301	84.7595	133.301	84.7522	133.301	84.7486
139.16	85.0828	139.16	85.0913	139.16	85.0764	139.16	85.1013	139.16	85.0722	139.16	85.112	139.16	85.07	139.16	85.1222	139.16	85.0691	139.16	85.1301	139.16	85.0686	139.16	85.1342	139.16	85.0673	139.16	85.1326	139.16	85.0634	139.16	85.1237	139.16	85.0556	139.16	85.1062	139.16	85.0423	139.16	85.0797	139.16	85.0226	139.16	85.0446	139.16	84.9961	139.16	85.0025	139.16	84.9637	139.16	84.9563	139.16	84.9271	139.16	84.9096	139.16	84.8892	139.16	84.8668	139.16	84.8537	139.16	84.8322	139.16	84.8248	139.16	84.8094	139.16	84.8061	139.16	84.8005
143.555	85.1157	143.555	85.116	143.555	85.1152	143.555	85.1163	143.555	85.1142	143.555	85.1165	143.555	85.1123	143.555	85.1164	143.555	85.109	143.555	85.1152	143.555	85.1039	143.555	85.1116	143.555	85.0961	143.555	85.1043	143.555	85.085	143.555	85.0918	143.555	85.0697	143.555	85.0728	143.555	85.0496	143.555	85.0466	143.555	85.0242	143.555	85.0137	143.555	84.9937	143.555	84.9752	143.555	84.9589	143.555	84.9335	143.555	84.9215	143.555	84.8921	143.555	84.884	143.555	84.8544	143.555	84.8498	143.555	84.8243	143.555	84.822	143.555	84.8049	143.555	84.804	143.555	84.7979
147.949	85.1796	147.949	85.1802	147.949	85.1752	147.949	85.1775	147.949	85.167	147.949	85.1718	147.949	85.1549	147.949	85.1634	147.949	85.1391	147.949	85.152	147.949	85.1199	147.949	85.1371	147.949	85.0975	147.949	85.1177	147.949	85.0719	147.949	85.0928	147.949	85.0431	147.949	85.0613	147.949	85.0108	147.949	85.023	147.949	84.9747	147.949	84.9783	147.949	84.9351	147.949	84.9289	147.949	84.8928	147.949	84.8775	147.949	84.8493	147.949	84.8275	147.949	84.8072	147.949	84.7829	147.949	84.7695	147.949	84.7475	147.949	84.7396	147.949	84.7244	147.949	84.7207	147.949	84.7153
153.809	85.1044	153.809	85.1132	153.809	85.0913	153.809	85.1176	153.809	85.0746	153.809	85.1173	153.809	85.055	153.809	85.1124	153.809	85.033	153.809	85.1029	153.809	85.0095	153.809	85.0888	153.809	84.985	153.809	85.0699	153.809	84.9598	153.809	85.0461	153.809	84.934	153.809	85.0169	153.809	84.9072	153.809	84.9826	153.809	84.8793	153.809	84.9434	153.809	84.8499	153.809	84.9006	153.809	84.8193	153.809	84.8561	153.809	84.7883	153.809	84.8124	153.809	84.7587	153.809	84.7726	153.809	84.7328	153.809	84.7397	153.809	84.7134	153.809	84.7162	153.809	84.7032	153.809	84.7039
159.668	85.1729	159.668	85.1772	159.668	85.1638	159.668	85.1768	159.668	85.1502	159.668	85.1717	159.668	85.1322	159.668	85.1617	159.668	85.1103	159.668	85.1466	159.668	85.085	159.668	85.1259	159.668	85.0566	159.668	85.0991	159.668	85.0256	159.668	85.0657	159.668	84.9922	159.668	85.0256	159.668	84.9565	159.668	84.9795	159.668	84.9188	159.668	84.9285	159.668	84.8795	159.668	84.8752	159.668	84.8394	159.668	84.8224	159.668	84.7997	159.668	84.7737	159.668	84.7621	159.668	84.7326	159.668	84.7286	159.668	84.7017	159.668	84.7018	159.668	84.683	159.668	84.684	159.668	84.6773
165.527	85.278	165.527	85.2749	165.527	85.277	165.527	85.2677	165.527	85.2716	165.527	85.2567	165.527	85.2622	165.527	85.2423	165.527	85.2487	165.527	85.2247	165.527	85.2313	165.527	85.2036	165.527	85.2097	165.527	85.1787	165.527	85.1837	165.527	85.1492	165.527	85.153	165.527	85.1145	165.527	85.1175	165.527	85.0744	165.527	85.0775	165.527	85.0298	165.527	85.0341	165.527	84.9822	165.527	84.9889	165.527	84.9345	165.527	84.944	165.527	84.8899	165.527	84.9016	165.527	84.8521	165.527	84.8643	165.527	84.824	165.527	84.8343	165.527	84.8079	165.527	84.8137	165.527	84.8045
171.387	85.2247	171.387	85.2171	171.387	85.227	171.387	85.2042	171.387	85.2241	171.387	85.1867	171.387	85.2166	171.387	85.1653	171.387	85.205	171.387	85.1409	171.387	85.1898	171.387	85.114	171.387	85.1714	171.387	85.0848	171.387	85.1497	171.387	85.0534	171.387	85.1244	171.387	85.0194	171.387	85.0952	171.387	84.9828	171.387	85.062	171.387	84.9442	171.387	85.0251	171.387	84.9049	171.387	84.9852	171.387	84.8669	171.387	84.9438	171.387	84.8331	171.387	84.9028	171.387	84.8063	171.387	84.8643	171.387	84.789	171.387	84.8308	171.387	84.7828	171.387	84.8047	171.387	84.7882
177.246	85.2659	177.246	85.2668	177.246	85.2576	177.246	85.2605	177.246	85.2426	177.246	85.2473	177.246	85.2217	177.246	85.228	177.246	85.1963	177.246	85.2033	177.246	85.1678	177.246	85.174	177.246	85.1372	177.246	85.1404	177.246	85.1052	177.246	85.1026	177.246	85.0719	177.246	85.0603	177.246	85.0369	177.246	85.0136	177.246	84.9997	177.246	84.963	177.246	84.9597	177.246	84.9098	177.246	84.9172	177.246	84.8566	177.246	84.8731	177.246	84.807	177.246	84.8292	177.246	84.7649	177.246	84.7883	177.246	84.7341	177.246	84.7535	177.246	84.7172	177.246	84.7282	177.246	84.7155
183.105	85.1909	183.105	85.2024	183.105	85.1696	183.105	85.2034	183.105	85.1403	183.105	85.1944	183.105	85.1056	183.105	85.1769	183.105	85.0682	183.105	85.1531	183.105	85.0307	183.105	85.1253	183.105	84.9947	183.105	85.0953	183.105	84.9609	183.105	85.0645	183.105	84.9289	183.105	85.0333	183.105	84.898	183.105	85.0013	183.105	84.8671	183.105	84.9678	183.105	84.836	183.105	84.9324	183.105	84.8052	183.105	84.895	183.105	84.7762	183.105	84.8565	183.105	84.7514	183.105	84.8188	183.105	84.7331	183.105	84.7842	183.105	84.7235	183.105	84.7555	183.105	84.724	183.105	84.7349
188.965	85.2705	188.965	85.2759	188.965	85.2515	188.965	85.2681	188.965	85.2191	188.965	85.2485	188.965	85.1752	188.965	85.2192	188.965	85.1222	188.965	85.1824	188.965	85.0636	188.965	85.1405	188.965	85.0033	188.965	85.0955	188.965	84.9445	188.965	85.0493	188.965	84.8899	188.965	85.0032	188.965	84.8411	188.965	84.9581	188.965	84.7988	188.965	84.9145	188.965	84.7629	188.965	84.8726	188.965	84.7332	188.965	84.8329	188.965	84.7097	188.965	84.796	188.965	84.6925	188.965	84.7627	188.965	84.682	188.965	84.7339	188.965	84.6786	188.965	84.7105	188.965	84.6824	188.965	84.6931
196.289	85.3479	196.289	85.3462	196.289	85.3339	196.289	85.3299	196.289	85.3037	196.289	85.3012	196.289	85.2583	196.289	85.2623	196.289	85.1998	196.289	85.2152	196.289	85.1315	196.289	85.162	196.289	85.0575	196.289	85.1043	196.289	84.9821	196.289	85.0438	196.289	84.9091	196.289	84.9824	196.289	84.842	196.289	84.9219	196.289	84.7828	196.289	84.8642	196.289	84.7327	196.289	84.8109	196.289	84.692	196.289	84.7631	196.289	84.6604	196.289	84.7214	196.289	84.6374	196.289	84.6863	196.289	84.6226	196.289	84.6581	196.289	84.6154	196.289	84.6369	196.289	84.6155	196.289	84.6227
203.613	85.3437	203.613	85.3262	203.613	85.3443	203.613	85.2937	203.613	85.3265	203.613	85.2491	203.613	85.2902	203.613	85.1953	203.613	85.2363	203.613	85.135	203.613	85.1675	203.613	85.0708	203.613	85.0876	203.613	85.0046	203.613	85.0017	203.613	84.9381	203.613	84.9156	203.613	84.8727	203.613	84.8348	203.613	84.81	203.613	84.7635	203.613	84.7515	203.613	84.7045	203.613	84.6991	203.613	84.6583	203.613	84.6541	203.613	84.6241	203.613	84.6179	203.613	84.5995	203.613	84.5909	203.613	84.5824	203.613	84.573	203.613	84.5707	203.613	84.5634	203.613	84.5635	203.613	84.5607
210.938	85.424	210.938	85.4044	210.938	85.4234	210.938	85.3649	210.938	85.4037	210.938	85.3076	210.938	85.3669	210.938	85.2354	210.938	85.3162	210.938	85.1524	210.938	85.2554	210.938	85.0632	210.938	85.1879	210.938	84.9726	210.938	85.1172	210.938	84.8851	210.938	85.0458	210.938	84.8048	210.938	84.976	210.938	84.7351	210.938	84.9094	210.938	84.6782	210.938	84.8477	210.938	84.6351	210.938	84.7926	210.938	84.6058	210.938	84.7453	210.938	84.5893	210.938	84.7063	210.938	84.5838	210.938	84.675	210.938	84.5873	210.938	84.65	210.938	84.5973	210.938	84.6293	210.938	84.6117
218.262	85.4089	218.262	85.4037	218.262	85.3964	218.262	85.3819	218.262	85.3657	218.262	85.3452	218.262	85.3168	218.262	85.2949	218.262	85.2509	218.262	85.2324	218.262	85.1696	218.262	85.159	218.262	85.0757	218.262	85.0767	218.262	84.9729	218.262	84.9887	218.262	84.8664	218.262	84.8998	218.262	84.7626	218.262	84.8156	218.262	84.6684	218.262	84.742	218.262	84.5902	218.262	84.683	218.262	84.5329	218.262	84.6402	218.262	84.4985	218.262	84.612	218.262	84.4859	218.262	84.5942	218.262	84.491	218.262	84.5812	218.262	84.5079	218.262	84.5678	218.262	84.5297	218.262	84.5507
225.586	85.3536	225.586	85.3587	225.586	85.3347	225.586	85.3506	225.586	85.3019	225.586	85.3304	225.586	85.2562	225.586	85.2988	225.586	85.1996	225.586	85.2559	225.586	85.1346	225.586	85.2014	225.586	85.064	225.586	85.1352	225.586	84.9907	225.586	85.0588	225.586	84.9173	225.586	84.9754	225.586	84.8462	225.586	84.8904	225.586	84.7799	225.586	84.8103	225.586	84.721	225.586	84.7412	225.586	84.6718	225.586	84.6868	225.586	84.6341	225.586	84.648	225.586	84.6084	225.586	84.6228	225.586	84.5939	225.586	84.6076	225.586	84.5883	225.586	84.5984	225.586	84.5886	225.586	84.5924
232.91	85.3744	232.91	85.3827	232.91	85.3472	232.91	85.3745	232.91	85.3007	232.91	85.3531	232.91	85.2363	232.91	85.3211	232.91	85.1576	232.91	85.2798	232.91	85.0692	232.91	85.2284	232.91	84.9762	232.91	85.1649	232.91	84.8836	232.91	85.0875	232.91	84.7958	232.91	84.9961	232.91	84.7163	232.91	84.894	232.91	84.6474	232.91	84.7874	232.91	84.5898	232.91	84.6845	232.91	84.5427	232.91	84.5936	232.91	84.5048	232.91	84.5205	232.91	84.4744	232.91	84.4678	232.91	84.4502	232.91	84.4346	232.91	84.4318	232.91	84.418	232.91	84.4193	232.91	84.4139
241.699	85.2327	241.699	85.2164	241.699	85.2248	241.699	85.1794	241.699	85.1926	241.699	85.1275	241.699	85.1389	241.699	85.0675	241.699	85.0687	241.699	85.0059	241.699	84.9883	241.699	84.9473	241.699	84.9038	241.699	84.8933	241.699	84.8201	241.699	84.8433	241.699	84.7411	241.699	84.7949	241.699	84.6695	241.699	84.7459	241.699	84.6073	241.699	84.6951	241.699	84.5558	241.699	84.6435	241.699	84.5154	241.699	84.5935	241.699	84.4857	241.699	84.5482	241.699	84.4652	241.699	84.5103	241.699	84.4523	241.699	84.4813	241.699	84.4456	241.699	84.4613	241.699	84.4445	241.699	84.4494
250.488	85.2605	250.488	85.2514	250.488	85.2356	250.488	85.2117	250.488	85.1778	250.488	85.1479	250.488	85.0927	250.488	85.0677	250.488	84.9899	250.488	84.9785	250.488	84.8812	250.488	84.8857	250.488	84.7775	250.488	84.7927	250.488	84.687	250.488	84.7009	250.488	84.6136	250.488	84.6106	250.488	84.5573	250.488	84.5228	250.488	84.5152	250.488	84.4401	250.488	84.4828	250.488	84.3665	250.488	84.4553	250.488	84.3069	250.488	84.4286	250.488	84.2654	250.488	84.4003	250.488	84.2436	250.488	84.3693	250.488	84.2404	250.488	84.3367	250.488	84.2523	250.488	84.3043	250.488	84.275
259.277	85.6325	259.277	85.5926	259.277	85.6273	259.277	85.5146	259.277	85.5745	259.277	85.4088	259.277	85.4769	259.277	85.2871	259.277	85.3427	259.277	85.162	259.277	85.1841	259.277	85.0444	259.277	85.0158	259.277	84.9416	259.277	84.852	259.277	84.8561	259.277	84.7043	259.277	84.7857	259.277	84.5814	259.277	84.7247	259.277	84.4883	259.277	84.6672	259.277	84.427	259.277	84.6098	259.277	84.3958	259.277	84.5531	259.277	84.3888	259.277	84.5014	259.277	84.3969	259.277	84.4605	259.277	84.4099	259.277	84.4345	259.277	84.4195	259.277	84.4232	259.277	84.4227	259.277	84.4218
268.066	85.5767	268.066	85.5284	268.066	85.5806	268.066	85.4441	268.066	85.5337	268.066	85.3326	268.066	85.4339	268.066	85.2029	268.066	85.2856	268.066	85.0648	268.066	85.1014	268.066	84.93	268.066	84.9004	268.066	84.8108	268.066	84.7048	268.066	84.7176	268.066	84.5347	268.066	84.6558	268.066	84.403	268.066	84.6237	268.066	84.3143	268.066	84.6136	268.066	84.2673	268.066	84.6156	268.066	84.258	268.066	84.621	268.066	84.2816	268.066	84.6249	268.066	84.3311	268.066	84.6246	268.066	84.3964	268.066	84.6182	268.066	84.4654	268.066	84.6023	268.066	84.5265	268.066	84.5726
276.855	85.6298	276.855	85.5974	276.855	85.6353	276.855	85.5341	276.855	85.6172	276.855	85.438	276.855	85.576	276.855	85.311	276.855	85.5086	276.855	85.159	276.855	85.4107	276.855	84.9915	276.855	85.28	276.855	84.8202	276.855	85.1199	276.855	84.6583	276.855	84.9425	276.855	84.5182	276.855	84.7684	276.855	84.4084	276.855	84.6223	276.855	84.3318	276.855	84.5253	276.855	84.2866	276.855	84.4862	276.855	84.2688	276.855	84.4962	276.855	84.2756	276.855	84.5321	276.855	84.3062	276.855	84.5658	276.855	84.3587	276.855	84.5749	276.855	84.4263	276.855	84.55	276.855	84.4957
287.109	85.6995	287.109	85.691	287.109	85.6669	287.109	85.6405	287.109	85.5956	287.109	85.5494	287.109	85.49	287.109	85.4233	287.109	85.3568	287.109	85.2739	287.109	85.2055	287.109	85.1198	287.109	85.0461	287.109	84.9831	287.109	84.8871	287.109	84.8833	287.109	84.7331	287.109	84.8301	287.109	84.586	287.109	84.8197	287.109	84.449	287.109	84.8365	287.109	84.3306	287.109	84.86	287.109	84.2447	287.109	84.8717	287.109	84.2056	287.109	84.8603	287.109	84.2197	287.109	84.8224	287.109	84.2808	287.109	84.7603	287.109	84.3731	287.109	84.6789	287.109	84.4785	287.109	84.5832
297.363	85.9366	297.363	85.9699	297.363	85.8542	297.363	85.9532	297.363	85.7257	297.363	85.886	297.363	85.5561	297.363	85.7656	297.363	85.3513	297.363	85.5864	297.363	85.1198	297.363	85.3447	297.363	84.8775	297.363	85.048	297.363	84.6512	297.363	84.7253	297.363	84.4752	297.363	84.4317	297.363	84.3785	297.363	84.235	297.363	84.3686	297.363	84.1829	297.363	84.4263	297.363	84.2719	297.363	84.5166	297.363	84.4493	297.363	84.6079	297.363	84.6448	297.363	84.6843	297.363	84.8029	297.363	84.7464	297.363	84.8963	297.363	84.8022	297.363	84.924	297.363	84.8566	297.363	84.9031
307.617	85.6619	307.617	85.6153	307.617	85.675	307.617	85.5428	307.617	85.6544	307.617	85.4571	307.617	85.6057	307.617	85.3717	307.617	85.5363	307.617	85.2937	307.617	85.4492	307.617	85.2182	307.617	85.3393	307.617	85.1289	307.617	85.1956	307.617	85.0075	307.617	85.01	307.617	84.8442	307.617	84.7873	307.617	84.6465	307.617	84.5494	307.617	84.4392	307.617	84.3307	307.617	84.2596	307.617	84.1653	307.617	84.1436	307.617	84.0742	307.617	84.1095	307.617	84.0586	307.617	84.1455	307.617	84.1021	307.617	84.214	307.617	84.1762	307.617	84.2705	307.617	84.2469	307.617	84.2837
319.336	85.9052	319.336	85.8327	319.336	85.904	319.336	85.6948	319.336	85.8265	319.336	85.505	319.336	85.6775	319.336	85.2816	319.336	85.4717	319.336	85.0464	319.336	85.233	319.336	84.8214	319.336	84.9907	319.336	84.6231	319.336	84.7716	319.336	84.4599	319.336	84.5925	319.336	84.3324	319.336	84.4583	319.336	84.2376	319.336	84.3646	319.336	84.1719	319.336	84.3041	319.336	84.1325	319.336	84.2695	319.336	84.117	319.336	84.2539	319.336	84.1223	319.336	84.2505	319.336	84.1437	319.336	84.2523	319.336	84.1743	319.336	84.2528	319.336	84.2059	319.336	84.2469	319.336	84.2313
329.59	85.7129	329.59	85.6529	329.59	85.7351	329.59	85.5609	329.59	85.7096	329.59	85.4371	329.59	85.6262	329.59	85.2804	329.59	85.4806	329.59	85.0919	329.59	85.2791	329.59	84.8787	329.59	85.0372	329.59	84.6529	329.59	84.7765	329.59	84.4302	329.59	84.5193	329.59	84.2276	329.59	84.2858	329.59	84.0623	329.59	84.0945	329.59	83.9492	329.59	83.9618	329.59	83.8976	329.59	83.8987	329.59	83.9073	329.59	83.905	329.59	83.967	329.59	83.9668	329.59	84.0552	329.59	84.0587	329.59	84.1457	329.59	84.1509	329.59	84.2132	329.59	84.2169	329.59	84.2394
341.309	85.9081	341.309	85.8845	341.309	85.8529	341.309	85.7862	341.309	85.7225	341.309	85.625	341.309	85.5264	341.309	85.4181	341.309	85.2798	341.309	85.1838	341.309	85.0043	341.309	84.9375	341.309	84.7277	341.309	84.6934	341.309	84.4788	341.309	84.4658	341.309	84.2801	341.309	84.2697	341.309	84.1437	341.309	84.1182	341.309	84.073	341.309	84.018	341.309	84.0673	341.309	83.9695	341.309	84.1225	341.309	83.97	341.309	84.2247	341.309	84.0166	341.309	84.3468	341.309	84.1045	341.309	84.4539	341.309	84.222	341.309	84.5155	341.309	84.3474	341.309	84.5151	341.309	84.4537
353.027	86.0494	353.027	86.082	353.027	85.9495	353.027	86.0361	353.027	85.7959	353.027	85.9074	353.027	85.5994	353.027	85.7009	353.027	85.3655	353.027	85.4318	353.027	85.0962	353.027	85.1241	353.027	84.7966	353.027	84.8076	353.027	84.4811	353.027	84.5144	353.027	84.1755	353.027	84.2735	353.027	83.9093	353.027	84.1054	353.027	83.7057	353.027	84.0164	353.027	83.5766	353.027	83.9954	353.027	83.5245	353.027	84.0163	353.027	83.5446	353.027	84.0491	353.027	83.6221	353.027	84.0708	353.027	83.7314	353.027	84.0715	353.027	83.8436	353.027	84.05	353.027	83.9379	353.027	84.0062
366.211	85.826	366.211	85.7074	366.211	85.8672	366.211	85.5218	366.211	85.8298	366.211	85.289	366.211	85.7166	366.211	85.0358	366.211	85.5308	366.211	84.7877	366.211	85.278	366.211	84.5624	366.211	84.9713	366.211	84.3681	366.211	84.6374	366.211	84.2055	366.211	84.3153	366.211	84.0725	366.211	84.0462	366.211	83.9665	366.211	83.857	366.211	83.8856	366.211	83.7515	366.211	83.8299	366.211	83.7152	366.211	83.8014	366.211	83.7268	366.211	83.8016	366.211	83.7673	366.211	83.827	366.211	83.8211	366.211	83.8661	366.211	83.8734	366.211	83.9025	366.211	83.9098	366.211	83.92
379.395	86.4281	379.395	86.3355	379.395	86.4415	379.395	86.1698	379.395	86.3714	379.395	85.9349	379.395	86.22	379.395	85.6338	379.395	85.9962	379.395	85.2738	379.395	85.7113	379.395	84.8727	379.395	85.3754	379.395	84.4612	379.395	84.9988	379.395	84.08	379.395	84.5996	379.395	83.7738	379.395	84.214	379.395	83.5823	379.395	83.8958	379.395	83.5301	379.395	83.7001	379.395	83.6148	379.395	83.6535	379.395	83.8018	379.395	83.7364	379.395	84.0335	379.395	83.8969	379.395	84.2486	379.395	84.0799	379.395	84.4012	379.395	84.2478	379.395	84.4708	379.395	84.3792	379.395	84.4588
392.578	86.3386	392.578	86.2919	392.578	86.3073	392.578	86.1778	392.578	86.1884	392.578	86.0041	392.578	85.9785	392.578	85.774	392.578	85.6852	392.578	85.4873	392.578	85.3297	392.578	85.146	392.578	84.9426	392.578	84.7624	392.578	84.5567	392.578	84.3652	392.578	84.1989	392.578	83.9975	392.578	83.8881	392.578	83.703	392.578	83.6401	392.578	83.5123	392.578	83.4718	392.578	83.4367	392.578	83.3991	392.578	83.4715	392.578	83.4278	392.578	83.5977	392.578	83.5458	392.578	83.7783	392.578	83.7212	392.578	83.9597	392.578	83.908	392.578	84.087	392.578	84.0555	392.578	84.122
405.762	86.1621	405.762	86.1068	405.762	86.1354	405.762	85.9691	405.762	86.0271	405.762	85.7519	405.762	85.837	405.762	85.4657	405.762	85.5674	405.762	85.1293	405.762	85.2277	405.762	84.7695	405.762	84.8369	405.762	84.4183	405.762	84.4217	405.762	84.1088	405.762	84.0139	405.762	83.8678	405.762	83.6511	405.762	83.7069	405.762	83.3763	405.762	83.6175	405.762	83.2281	405.762	83.5781	405.762	83.2172	405.762	83.5676	405.762	83.3109	405.762	83.5748	405.762	83.4478	405.762	83.5958	405.762	83.5708	405.762	83.6263	405.762	83.65	405.762	83.6581	405.762	83.6828	405.762	83.6809
420.41	86.4548	420.41	86.4325	420.41	86.3835	420.41	86.3095	420.41	86.2286	420.41	86.0871	420.41	85.995	420.41	85.775	420.41	85.6811	420.41	85.3865	420.41	85.2841	420.41	84.9352	420.41	84.8129	420.41	84.4404	420.41	84.2959	420.41	83.9402	420.41	83.7799	420.41	83.4993	420.41	83.315	420.41	83.1914	420.41	82.9417	420.41	83.0565	420.41	82.691	420.41	83.0744	420.41	82.5918	420.41	83.1875	420.41	82.661	420.41	83.3419	420.41	82.8767	420.41	83.5036	420.41	83.1702	420.41	83.6472	420.41	83.4545	420.41	83.7428	420.41	83.6608	420.41	83.7561
435.059	86.0699	435.059	86.0234	435.059	86.043	435.059	85.9119	435.059	85.937	435.059	85.7427	435.059	85.7514	435.059	85.5174	435.059	85.4903	435.059	85.231	435.059	85.1612	435.059	84.8743	435.059	84.7741	435.059	84.4425	435.059	84.3437	435.059	83.9513	435.059	83.8923	435.059	83.4536	435.059	83.4532	435.059	83.042	435.059	83.0717	435.059	82.8157	435.059	82.7998	435.059	82.8215	435.059	82.681	435.059	83.0241	435.059	82.7324	435.059	83.3344	435.059	82.9353	435.059	83.6567	435.059	83.2386	435.059	83.9128	435.059	83.5709	435.059	84.046	435.059	83.8551	435.059	84.026
451.172	86.7094	451.172	86.6068	451.172	86.7024	451.172	86.4012	451.172	86.5848	451.172	86.1027	451.172	86.3606	451.172	85.723	451.172	86.0376	451.172	85.2746	451.172	85.6243	451.172	84.7724	451.172	85.1303	451.172	84.2385	451.172	84.5711	451.172	83.7086	451.172	83.9767	451.172	83.2366	451.172	83.4023	451.172	82.8892	451.172	82.9292	451.172	82.7202	451.172	82.6418	451.172	82.7328	451.172	82.5774	451.172	82.8687	451.172	82.6912	451.172	83.0423	451.172	82.8834	451.172	83.186	451.172	83.0633	451.172	83.271	451.172	83.1884	451.172	83.3016	451.172	83.2597	451.172	83.2947
465.82	86.5785	465.82	86.4525	465.82	86.6023	465.82	86.2327	465.82	86.5171	465.82	85.9305	465.82	86.318	465.82	85.5604	465.82	86.0057	465.82	85.1379	465.82	85.5921	465.82	84.676	465.82	85.1009	465.82	84.1853	465.82	84.5612	465.82	83.6794	465.82	83.9967	465.82	83.1891	465.82	83.4226	465.82	82.7736	465.82	82.8671	465.82	82.509	465.82	82.4043	465.82	82.4477	465.82	82.1491	465.82	82.5787	465.82	82.1782	465.82	82.8301	465.82	82.4479	465.82	83.1112	465.82	82.8223	465.82	83.3477	465.82	83.169	465.82	83.4922	465.82	83.4101	465.82	83.5178
483.398	86.7492	483.398	86.6869	483.398	86.6998	483.398	86.5066	483.398	86.5526	483.398	86.2175	483.398	86.3146	483.398	85.8416	483.398	85.9781	483.398	85.4003	483.398	85.5276	483.398	84.9006	483.398	84.9574	483.398	84.334	483.398	84.2905	483.398	83.6958	483.398	83.586	483.398	83.0168	483.398	82.926	483.398	82.3913	483.398	82.3897	483.398	81.9685	483.398	82.0359	483.398	81.8757	483.398	81.9041	483.398	82.1167	483.398	82.0118	483.398	82.5648	483.398	82.3308	483.398	83.0557	483.398	82.7735	483.398	83.4606	483.398	83.2212	483.398	83.7004	483.398	83.5662	483.398	83.7367
499.512	86.563	499.512	86.4715	499.512	86.573	499.512	86.2917	499.512	86.5002	499.512	86.0079	499.512	86.3367	499.512	85.6011	499.512	86.0675	499.512	85.0667	499.512	85.6733	499.512	84.4357	499.512	85.1416	499.512	83.7806	499.512	84.4826	499.512	83.1912	499.512	83.7398	499.512	82.73	499.512	82.9905	499.512	82.4074	499.512	82.3348	499.512	82.2047	499.512	81.8756	499.512	82.1136	499.512	81.6838	499.512	82.1452	499.512	81.7526	499.512	82.2964	499.512	81.9916	499.512	82.517	499.512	82.2831	499.512	82.7225	499.512	82.5443	499.512	82.8405	499.512	82.7373	499.512	82.8426
517.09	86.7768	517.09	86.7192	517.09	86.7421	517.09	86.559	517.09	86.6266	517.09	86.2868	517.09	86.4375	517.09	85.8903	517.09	86.1693	517.09	85.3547	517.09	85.8032	517.09	84.6693	517.09	85.3166	517.09	83.845	517.09	84.6995	517.09	82.942	517.09	83.9694	517.09	82.0956	517.09	83.1797	517.09	81.4946	517.09	82.4215	517.09	81.2676	517.09	81.8161	517.09	81.3807	517.09	81.4883	517.09	81.6969	517.09	81.5041	517.09	82.0952	517.09	81.8096	517.09	82.4968	517.09	82.2545	517.09	82.8378	517.09	82.6816	517.09	83.0586	517.09	82.9851	517.09	83.1144
536.133	86.239	536.133	86.165	536.133	86.2082	536.133	86	536.133	86.0702	536.133	85.7608	536.133	85.833	536.133	85.4557	536.133	85.5064	536.133	85.0765	536.133	85.0922	536.133	84.5953	536.133	84.5813	536.133	83.9728	536.133	83.9588	536.133	83.1821	536.133	83.217	536.133	82.2539	536.133	82.3774	536.133	81.33	536.133	81.5244	536.133	80.6618	536.133	80.8321	536.133	80.46	536.133	80.5092	536.133	80.7023	536.133	80.6264	536.133	81.1829	536.133	81.036	536.133	81.6951	536.133	81.5222	536.133	82.1045	536.133	81.9444	536.133	82.3405	536.133	82.2411	536.133	82.3818
555.176	86.4462	555.176	86.3149	555.176	86.4982	555.176	86.1204	555.176	86.4603	555.176	85.8687	555.176	86.3237	555.176	85.5354	555.176	86.0689	555.176	85.0718	555.176	85.6669	555.176	84.4382	555.176	85.0967	555.176	83.6382	555.176	84.3623	555.176	82.7304	555.176	83.4913	555.176	81.8139	555.176	82.5204	555.176	81.0083	555.176	81.4972	555.176	80.4408	555.176	80.5349	555.176	80.2188	555.176	79.8811	555.176	80.37	555.176	79.8143	555.176	80.8111	555.176	80.3259	555.176	81.3882	555.176	81.0957	555.176	81.9383	555.176	81.8053	555.176	82.3252	555.176	82.2805	555.176	82.4548
574.219	86.6034	574.219	86.5486	574.219	86.5658	574.219	86.3926	574.219	86.4405	574.219	86.1285	574.219	86.2295	574.219	85.7568	574.219	85.9326	574.219	85.282	574.219	85.5395	574.219	84.6979	574.219	85.0225	574.219	83.9718	574.219	84.3448	574.219	83.0515	574.219	83.4877	574.219	81.9139	574.219	82.4881	574.219	80.6617	574.219	81.4563	574.219	79.6234	574.219	80.5462	574.219	79.239	574.219	79.9065	574.219	79.5998	574.219	79.665	574.219	80.34	574.219	79.8778	574.219	81.0757	574.219	80.4281	574.219	81.612	574.219	81.0693	574.219	81.8823	574.219	81.5878	574.219	81.8719
594.727	86.2652	594.727	86.1956	594.727	86.2547	594.727	86.0427	594.727	86.1667	594.727	85.7977	594.727	86.0019	594.727	85.4465	594.727	85.7508	594.727	84.9768	594.727	85.3905	594.727	84.3816	594.727	84.8962	594.727	83.6556	594.727	84.2489	594.727	82.7935	594.727	83.4198	594.727	81.805	594.727	82.3517	594.727	80.7458	594.727	80.9986	594.727	79.754	594.727	79.4788	594.727	79.077	594.727	78.2969	594.727	78.9896	594.727	78.1134	594.727	79.5141	594.727	78.8265	594.727	80.3198	594.727	79.7838	594.727	81.0238	594.727	80.6005	594.727	81.4174	594.727	81.1691	594.727	81.4551
615.234	86.0238	615.234	85.9953	615.234	85.952	615.234	85.8487	615.234	85.833	615.234	85.618	615.234	85.7054	615.234	85.3525	615.234	85.5533	615.234	85.0532	615.234	85.3068	615.234	84.6416	615.234	84.8802	615.234	83.9924	615.234	84.2139	615.234	82.9946	615.234	83.2911	615.234	81.6067	615.234	82.1308	615.234	79.9198	615.234	80.7743	615.234	78.2445	615.234	79.3066	615.234	77.1085	615.234	77.972	615.234	76.8916	615.234	77.2658	615.234	77.4359	615.234	77.4928	615.234	78.2979	615.234	78.2678	615.234	79.1002	615.234	79.0527	615.234	79.6246	615.234	79.5879	615.234	79.7888
637.207	85.8365	637.207	85.8239	637.207	85.829	637.207	85.773	637.207	85.7862	637.207	85.6245	637.207	85.6977	637.207	85.3292	637.207	85.561	637.207	84.9061	637.207	85.3507	637.207	84.4309	637.207	85.017	637.207	83.9436	637.207	84.5244	637.207	83.3641	637.207	83.869	637.207	82.5194	637.207	83.0458	637.207	81.2527	637.207	82.0025	637.207	79.5401	637.207	80.6521	637.207	77.688	637.207	78.9932	637.207	76.5713	637.207	77.3491	637.207	76.8359	637.207	76.493	637.207	77.8125	637.207	76.8678	637.207	78.7045	637.207	77.8713	637.207	79.213	637.207	78.7732	637.207	79.2454
659.18	85.4554	659.18	85.3972	659.18	85.4791	659.18	85.3327	659.18	85.44	659.18	85.2626	659.18	85.3328	659.18	85.1505	659.18	85.1735	659.18	84.9304	659.18	84.9727	659.18	84.5284	659.18	84.7084	659.18	83.8999	659.18	84.3225	659.18	83.0613	659.18	83.7372	659.18	82.0756	659.18	82.8785	659.18	80.9864	659.18	81.7097	659.18	79.7834	659.18	80.2972	659.18	78.5263	659.18	78.901	659.18	77.6034	659.18	77.9142	659.18	77.5569	659.18	77.4897	659.18	78.194	659.18	77.4637	659.18	78.7896	659.18	77.7187	659.18	78.947	659.18	78.1832	659.18	78.6755
682.617	85.7979	682.617	85.8009	682.617	85.6764	682.617	85.6586	682.617	85.5034	682.617	85.4132	682.617	85.3325	682.617	85.1475	682.617	85.1648	682.617	84.9044	682.617	84.9503	682.617	84.6246	682.617	84.6283	682.617	84.1836	682.617	84.1718	682.617	83.477	682.617	83.5836	682.617	82.484	682.617	82.8458	682.617	81.3031	682.617	81.887	682.617	80.1059	682.617	80.6244	682.617	78.9842	682.617	79.0978	682.617	77.9449	682.617	77.6741	682.617	77.2153	682.617	77.0148	682.617	77.2484	682.617	77.3011	682.617	77.9384	682.617	77.9973	682.617	78.6204	682.617	78.6085	682.617	78.8636
707.52	85.7	707.52	85.568	707.52	85.8113	707.52	85.5095	707.52	85.7716	707.52	85.4857	707.52	85.5734	707.52	85.4205	707.52	85.3439	707.52	85.3158	707.52	85.187	707.52	85.2066	707.52	85.0468	707.52	85.022	707.52	84.7736	707.52	84.575	707.52	84.2738	707.52	83.7116	707.52	83.5408	707.52	82.4268	707.52	82.5683	707.52	80.8726	707.52	81.2836	707.52	79.268	707.52	79.6169	707.52	77.782	707.52	77.7281	707.52	76.7313	707.52	76.3018	707.52	76.7077	707.52	76.1126	707.52	77.4876	707.52	76.8194	707.52	78.1097	707.52	77.63	707.52	78.1351
732.422	85.6145	732.422	85.546	732.422	85.5785	732.422	85.3895	732.422	85.4895	732.422	85.2107	732.422	85.4036	732.422	85.0369	732.422	85.3247	732.422	84.8264	732.422	85.2189	732.422	84.5395	732.422	85.0657	732.422	84.1897	732.422	84.8717	732.422	83.7752	732.422	84.6142	732.422	83.1858	732.422	84.1832	732.422	82.2401	732.422	83.4114	732.422	80.8286	732.422	82.1658	732.422	79.0546	732.422	80.4245	732.422	77.4007	732.422	78.3802	732.422	76.7173	732.422	76.6961	732.422	77.2043	732.422	76.2847	732.422	78.0118	732.422	76.9544	732.422	78.4648	732.422	77.812	732.422	78.3788
757.324	85.2407	757.324	85.1184	757.324	85.236	757.324	84.9617	757.324	85.0983	757.324	84.8638	757.324	84.9427	757.324	84.8459	757.324	84.9069	757.324	84.856	757.324	84.985	757.324	84.8365	757.324	85.0331	757.324	84.7483	757.324	84.9247	757.324	84.5176	757.324	84.6256	757.324	84.0039	757.324	84.1347	757.324	83.0536	757.324	83.3993	757.324	81.5773	757.324	82.3106	757.324	79.5945	757.324	80.7727	757.324	77.3478	757.324	78.7775	757.324	75.6228	757.324	76.5233	757.324	75.4921	757.324	74.8512	757.324	76.5705	757.324	75.0901	757.324	77.507	757.324	76.5319	757.324	77.537
785.156	84.4188	785.156	84.3242	785.156	84.5186	785.156	84.2259	785.156	84.5303	785.156	84.0499	785.156	84.3661	785.156	83.8092	785.156	84.0856	785.156	83.6868	785.156	83.9121	785.156	83.8358	785.156	84.0186	785.156	84.13	785.156	84.2853	785.156	84.299	785.156	84.4417	785.156	84.1563	785.156	84.3271	785.156	83.6332	785.156	83.9114	785.156	82.7159	785.156	83.208	785.156	81.3764	785.156	82.2067	785.156	79.5931	785.156	80.8356	785.156	77.5131	785.156	79.0013	785.156	75.5681	785.156	76.7944	785.156	74.1768	785.156	74.7808	785.156	73.4327	785.156	73.6364	785.156	73.271
811.523	85.1428	811.523	84.9867	811.523	85.1041	811.523	84.6212	811.523	84.8606	811.523	84.0414	811.523	84.4144	811.523	83.3282	811.523	83.8524	811.523	82.7136	811.523	83.3466	811.523	82.5055	811.523	83.0578	811.523	82.7615	811.523	83.0595	811.523	83.1741	811.523	83.31	811.523	83.4198	811.523	83.6386	811.523	83.3836	811.523	83.8142	811.523	83.0855	811.523	83.6607	811.523	82.521	811.523	83.1115	811.523	81.6023	811.523	82.2057	811.523	80.2712	811.523	81.064	811.523	78.743	811.523	79.8856	811.523	77.6558	811.523	78.9196	811.523	77.4518	811.523	78.2659	811.523	77.7852
840.82	86.3226	840.82	85.9754	840.82	86.2975	840.82	85.3403	840.82	85.9301	840.82	84.5708	840.82	85.3065	840.82	83.7402	840.82	84.5012	840.82	82.7773	840.82	83.5807	840.82	81.6741	840.82	82.658	840.82	80.8451	840.82	81.9302	840.82	80.9371	840.82	81.6591	840.82	81.7684	840.82	81.9274	840.82	82.5543	840.82	82.392	840.82	82.8652	840.82	82.6468	840.82	82.6963	840.82	82.6022	840.82	82.2692	840.82	82.3643	840.82	81.8149	840.82	82.0198	840.82	81.4165	840.82	81.5972	840.82	81.0698	840.82	81.1456	840.82	80.8007	840.82	80.7986	840.82	80.6828
870.117	86.6968	870.117	86.6666	870.117	86.5755	870.117	86.3892	870.117	86.3278	870.117	85.8148	870.117	85.8749	870.117	84.9673	870.117	85.1656	870.117	83.9078	870.117	84.285	870.117	82.7398	870.117	83.3424	870.117	81.5944	870.117	82.2975	870.117	80.5543	870.117	81.1113	870.117	79.6873	870.117	80.1415	870.117	79.274	870.117	79.9942	870.117	79.6187	870.117	80.5788	870.117	80.4412	870.117	81.2577	870.117	81.1729	870.117	81.6989	870.117	81.5232	870.117	81.9428	870.117	81.606	870.117	82.1312	870.117	81.7008	870.117	82.2877	870.117	81.9226	870.117	82.321	870.117	82.1778
900.879	86.6138	900.879	86.5787	900.879	86.5412	900.879	86.4112	900.879	86.3738	900.879	86.096	900.879	86.0886	900.879	85.5911	900.879	85.6499	900.879	84.8071	900.879	85.0487	900.879	83.6972	900.879	84.2822	900.879	82.3612	900.879	83.3153	900.879	81.0362	900.879	82.1332	900.879	79.9432	900.879	80.8473	900.879	79.133	900.879	79.6841	900.879	78.5809	900.879	78.8676	900.879	78.4244	900.879	78.6033	900.879	78.823	900.879	78.9556	900.879	79.5741	900.879	79.6294	900.879	80.3233	900.879	80.2555	900.879	80.8984	900.879	80.7335	900.879	81.2409	900.879	81.1	900.879	81.3027
933.105	86.3589	933.105	86.109	933.105	86.5303	933.105	85.8433	933.105	86.4887	933.105	85.5127	933.105	86.155	933.105	85.0505	933.105	85.5788	933.105	84.4671	933.105	84.8866	933.105	83.8232	933.105	84.1587	933.105	83.0963	933.105	83.3855	933.105	82.143	933.105	82.552	933.105	80.8652	933.105	81.6623	933.105	79.4376	933.105	80.657	933.105	78.3328	933.105	79.5279	933.105	77.843	933.105	78.6079	933.105	77.8128	933.105	78.3848	933.105	78.2603	933.105	78.7925	933.105	79.2881	933.105	79.3988	933.105	80.4506	933.105	80.0395	933.105	81.1496	933.105	80.6963	933.105	81.1729
965.332	86.3519	965.332	86.3971	965.332	86.0811	965.332	86.1129	965.332	85.7737	965.332	85.6283	965.332	85.4994	965.332	85.1626	965.332	85.1798	965.332	84.7061	965.332	84.7097	965.332	84.041	965.332	84.0524	965.332	83.1192	965.332	83.236	965.332	82.1647	965.332	82.2836	965.332	81.2384	965.332	81.1779	965.332	79.9993	965.332	79.9113	965.332	78.2495	965.332	78.5598	965.332	76.754	965.332	77.3476	965.332	76.7765	965.332	76.8007	965.332	77.6644	965.332	77.4295	965.332	78.506	965.332	78.6847	965.332	79.3287	965.332	79.7693	965.332	80.0964	965.332	80.4196	965.332	80.5302
1,000.49	85.4265	1,000.49	85.5069	1,000.49	85.2862	1,000.49	85.3915	1,000.49	85.1558	1,000.49	85.0217	1,000.49	84.9646	1,000.49	84.5051	1,000.49	84.5975	1,000.49	84.0487	1,000.49	84.0673	1,000.49	83.7282	1,000.49	83.5303	1,000.49	83.3642	1,000.49	83.0638	1,000.49	82.6932	1,000.49	82.4911	1,000.49	81.6037	1,000.49	81.5294	1,000.49	80.2279	1,000.49	80.0144	1,000.49	78.792	1,000.49	78.054	1,000.49	77.3915	1,000.49	76.1308	1,000.49	76.2621	1,000.49	75.0901	1,000.49	76.3081	1,000.49	75.5511	1,000.49	77.6698	1,000.49	76.989	1,000.49	79.1146	1,000.49	78.4691	1,000.49	79.9379	1,000.49	79.5338	1,000.49	80.0502
1,035.64	85.9121	1,035.64	85.5389	1,035.64	86.0547	1,035.64	85.3074	1,035.64	85.6931	1,035.64	85.1172	1,035.64	85.0515	1,035.64	84.6281	1,035.64	84.5285	1,035.64	83.8332	1,035.64	84.0921	1,035.64	83.0076	1,035.64	83.4088	1,035.64	82.2491	1,035.64	82.4681	1,035.64	81.4695	1,035.64	81.5783	1,035.64	80.7217	1,035.64	80.8414	1,035.64	79.98	1,035.64	79.9871	1,035.64	78.8117	1,035.64	78.7423	1,035.64	76.9746	1,035.64	77.0345	1,035.64	75.5058	1,035.64	75.102	1,035.64	75.822	1,035.64	73.9653	1,035.64	76.6548	1,035.64	74.8926	1,035.64	77.3164	1,035.64	76.9332	1,035.64	78.1969	1,035.64	78.4779	1,035.64	78.8415
1,072.27	85.4583	1,072.27	85.3733	1,072.27	85.3024	1,072.27	85.1111	1,072.27	84.9554	1,072.27	84.6666	1,072.27	84.5834	1,072.27	84.0506	1,072.27	84.1362	1,072.27	83.372	1,072.27	83.4082	1,072.27	82.6751	1,072.27	82.554	1,072.27	81.983	1,072.27	81.9971	1,072.27	81.4174	1,072.27	81.6076	1,072.27	80.8585	1,072.27	80.8832	1,072.27	79.9816	1,072.27	79.8022	1,072.27	78.7889	1,072.27	78.7295	1,072.27	77.5659	1,072.27	77.5619	1,072.27	76.2489	1,072.27	75.8707	1,072.27	75.2422	1,072.27	74.2543	1,072.27	75.8352	1,072.27	74.4434	1,072.27	76.942	1,072.27	76.0645	1,072.27	77.5477	1,072.27	77.3604	1,072.27	77.7548
1,108.89	85.0673	1,108.89	85.0811	1,108.89	84.9315	1,108.89	84.8394	1,108.89	84.7529	1,108.89	84.4197	1,108.89	84.3845	1,108.89	83.9132	1,108.89	83.7864	1,108.89	83.2399	1,108.89	83.1512	1,108.89	82.4391	1,108.89	82.5372	1,108.89	81.717	1,108.89	81.7331	1,108.89	80.9696	1,108.89	80.6512	1,108.89	79.9124	1,108.89	79.5698	1,108.89	78.727	1,108.89	78.6848	1,108.89	77.7978	1,108.89	77.5567	1,108.89	76.6282	1,108.89	75.6324	1,108.89	74.7898	1,108.89	73.3271	1,108.89	74.2071	1,108.89	72.5693	1,108.89	76.0406	1,108.89	73.969	1,108.89	77.317	1,108.89	75.6223	1,108.89	77.3914	1,108.89	76.6117	1,108.89	77.051
1,148.44	85.135	1,148.44	84.8094	1,148.44	85.146	1,148.44	84.4377	1,148.44	84.9479	1,148.44	84.0828	1,148.44	84.5805	1,148.44	83.3388	1,148.44	83.85	1,148.44	82.2844	1,148.44	82.9261	1,148.44	81.4718	1,148.44	82.128	1,148.44	80.7245	1,148.44	81.3407	1,148.44	79.6527	1,148.44	80.5127	1,148.44	78.8615	1,148.44	79.772	1,148.44	78.466	1,148.44	79.0074	1,148.44	77.2614	1,148.44	78.0753	1,148.44	74.8997	1,148.44	76.9448	1,148.44	73.221	1,148.44	74.876	1,148.44	72.9855	1,148.44	71.3991	1,148.44	73.4538	1,148.44	70.4472	1,148.44	75.3003	1,148.44	73.3825	1,148.44	76.87	1,148.44	75.6133	1,148.44	76.8826
1,189.45	85.1204	1,189.45	85.1209	1,189.45	84.826	1,189.45	84.7328	1,189.45	84.5775	1,189.45	84.1377	1,189.45	84.3557	1,189.45	83.3627	1,189.45	83.795	1,189.45	82.3112	1,189.45	82.905	1,189.45	81.2099	1,189.45	82.1525	1,189.45	80.4163	1,189.45	81.6389	1,189.45	79.7356	1,189.45	80.9419	1,189.45	78.9262	1,189.45	80.0414	1,189.45	78.2053	1,189.45	79.2779	1,189.45	77.2596	1,189.45	78.352	1,189.45	75.1474	1,189.45	76.7582	1,189.45	71.813	1,189.45	74.3976	1,189.45	69.8136	1,189.45	71.9647	1,189.45	71.8134	1,189.45	70.8846	1,189.45	74.5141	1,189.45	72.6836	1,189.45	75.811	1,189.45	74.799	1,189.45	75.7978
1,230.47	85.6722	1,230.47	85.4709	1,230.47	85.5078	1,230.47	84.9883	1,230.47	85.3243	1,230.47	84.4116	1,230.47	85.0692	1,230.47	83.5985	1,230.47	84.2893	1,230.47	82.5284	1,230.47	83.2206	1,230.47	81.4702	1,230.47	82.4372	1,230.47	80.6583	1,230.47	81.7103	1,230.47	80.0216	1,230.47	80.9015	1,230.47	79.1686	1,230.47	80.4395	1,230.47	78.1327	1,230.47	80.0198	1,230.47	77.2469	1,230.47	79.2145	1,230.47	75.9069	1,230.47	78.1821	1,230.47	73.4913	1,230.47	76.4478	1,230.47	71.5262	1,230.47	73.5158	1,230.47	71.8342	1,230.47	71.6079	1,230.47	73.2932	1,230.47	72.3079	1,230.47	74.796	1,230.47	73.8675	1,230.47	75.052
1,274.41	85.921	1,274.41	85.7785	1,274.41	86.0394	1,274.41	85.5413	1,274.41	85.8382	1,274.41	84.9729	1,274.41	85.3427	1,274.41	84.255	1,274.41	84.7485	1,274.41	83.3953	1,274.41	83.9589	1,274.41	82.0591	1,274.41	82.9426	1,274.41	80.6464	1,274.41	81.8534	1,274.41	79.7888	1,274.41	80.8014	1,274.41	78.8356	1,274.41	79.9797	1,274.41	77.6185	1,274.41	79.3848	1,274.41	77.1512	1,274.41	78.702	1,274.41	76.6641	1,274.41	77.5923	1,274.41	74.6001	1,274.41	76.1942	1,274.41	71.6509	1,274.41	74.4686	1,274.41	70.9455	1,274.41	72.5548	1,274.41	72.8556	1,274.41	73.267	1,274.41	74.6044	1,274.41	74.7207	1,274.41	75.1147
1,319.82	86.1073	1,319.82	85.9487	1,319.82	86.0474	1,319.82	85.5044	1,319.82	85.8806	1,319.82	84.9604	1,319.82	85.4409	1,319.82	84.3175	1,319.82	84.7718	1,319.82	83.5016	1,319.82	83.9646	1,319.82	82.5224	1,319.82	82.8286	1,319.82	81.0571	1,319.82	81.7215	1,319.82	79.2389	1,319.82	81.0822	1,319.82	78.3477	1,319.82	80.2981	1,319.82	78.2793	1,319.82	79.3317	1,319.82	77.8841	1,319.82	78.9934	1,319.82	77.0804	1,319.82	78.6445	1,319.82	76.0801	1,319.82	77.0822	1,319.82	74.5078	1,319.82	74.8572	1,319.82	72.99	1,319.82	72.8418	1,319.82	73.0255	1,319.82	72.0265	1,319.82	73.9113	1,319.82	73.8038	1,319.82	74.6163
1,366.7	86.0003	1,366.7	86.0931	1,366.7	86.097	1,366.7	86.1145	1,366.7	85.9788	1,366.7	85.5223	1,366.7	85.5828	1,366.7	84.5035	1,366.7	85.1066	1,366.7	83.7698	1,366.7	84.441	1,366.7	83.2391	1,366.7	83.3961	1,366.7	82.0885	1,366.7	82.0672	1,366.7	80.3527	1,366.7	80.7335	1,366.7	79.1018	1,366.7	79.8501	1,366.7	78.2435	1,366.7	79.4624	1,366.7	77.3411	1,366.7	78.5594	1,366.7	76.9725	1,366.7	76.9644	1,366.7	75.9788	1,366.7	76.0716	1,366.7	74.0951	1,366.7	75.4038	1,366.7	74.7182	1,366.7	73.9256	1,366.7	76.0726	1,366.7	74.6501	1,366.7	76.6562	1,366.7	76.7987	1,366.7	77.308
1,413.57	86.8144	1,413.57	86.6158	1,413.57	86.6004	1,413.57	85.8183	1,413.57	86.3466	1,413.57	85.3478	1,413.57	85.5221	1,413.57	84.9277	1,413.57	84.2379	1,413.57	83.7466	1,413.57	83.5282	1,413.57	82.8997	1,413.57	83.0375	1,413.57	82.7301	1,413.57	81.6993	1,413.57	81.6627	1,413.57	80.2263	1,413.57	80.0393	1,413.57	79.6642	1,413.57	78.8799	1,413.57	78.6573	1,413.57	76.6603	1,413.57	77.2429	1,413.57	73.8493	1,413.57	76.4249	1,413.57	72.8745	1,413.57	74.1239	1,413.57	71.9317	1,413.57	71.9226	1,413.57	73.4585	1,413.57	73.984	1,413.57	76.9423	1,413.57	75.2576	1,413.57	78.711	1,413.57	77.0973	1,413.57	78.7402
1,463.38	86.0739	1,463.38	86.1661	1,463.38	85.9641	1,463.38	86.0599	1,463.38	85.6053	1,463.38	85.4031	1,463.38	85.0105	1,463.38	84.1765	1,463.38	84.6372	1,463.38	83.1902	1,463.38	83.8032	1,463.38	82.5774	1,463.38	81.9226	1,463.38	81.3319	1,463.38	80.8482	1,463.38	80.1047	1,463.38	80.7465	1,463.38	79.5962	1,463.38	79.4614	1,463.38	78.413	1,463.38	78.218	1,463.38	77.3206	1,463.38	78.0024	1,463.38	77.133	1,463.38	76.7565	1,463.38	75.6114	1,463.38	74.9504	1,463.38	73.3379	1,463.38	73.1453	1,463.38	72.3031	1,463.38	70.1197	1,463.38	72.9887	1,463.38	71.1516	1,463.38	75.4681	1,463.38	73.8064	1,463.38	75.6802
1,516.11	85.0059	1,516.11	84.7079	1,516.11	85.1917	1,516.11	84.6567	1,516.11	84.6544	1,516.11	84.4796	1,516.11	83.7835	1,516.11	83.8685	1,516.11	83.0135	1,516.11	82.6447	1,516.11	81.9513	1,516.11	81.0038	1,516.11	81.1338	1,516.11	79.9225	1,516.11	80.7326	1,516.11	79.3286	1,516.11	79.408	1,516.11	77.973	1,516.11	77.5749	1,516.11	77.22	1,516.11	76.7392	1,516.11	77.7608	1,516.11	75.1592	1,516.11	75.7947	1,516.11	73.4781	1,516.11	69.6826	1,516.11	73.4705	1,516.11	67.1426	1,516.11	71.358	1,516.11	68.5114	1,516.11	67.3688	1,516.11	73.2941	1,516.11	72.4327	1,516.11	76.5194	1,516.11	74.9452	1,516.11	76.2596
1,568.85	84.6394	1,568.85	84.5841	1,568.85	84.337	1,568.85	83.9787	1,568.85	83.9009	1,568.85	82.9843	1,568.85	83.2681	1,568.85	82.183	1,568.85	82.3063	1,568.85	81.5646	1,568.85	81.2081	1,568.85	80.336	1,568.85	80.4475	1,568.85	78.8381	1,568.85	79.6921	1,568.85	78.0858	1,568.85	78.3388	1,568.85	76.9476	1,568.85	77.2349	1,568.85	75.0232	1,568.85	76.7912	1,568.85	74.8809	1,568.85	75.3885	1,568.85	74.8899	1,568.85	74.2312	1,568.85	73.3826	1,568.85	74.1754	1,568.85	71.4199	1,568.85	72.2911	1,568.85	70.4671	1,568.85	69.6942	1,568.85	68.2283	1,568.85	68.6787	1,568.85	68.4824	1,568.85	68.5292	1,568.85	69.8054
1,624.51	84.9328	1,624.51	84.6794	1,624.51	84.8928	1,624.51	84.1575	1,624.51	84.5039	1,624.51	82.944	1,624.51	83.9453	1,624.51	81.3287	1,624.51	83.2943	1,624.51	80.2656	1,624.51	82.3896	1,624.51	79.494	1,624.51	80.6373	1,624.51	78.3782	1,624.51	78.1999	1,624.51	77.1217	1,624.51	77.1874	1,624.51	76.0861	1,624.51	77.6157	1,624.51	75.7643	1,624.51	77.1084	1,624.51	74.6448	1,624.51	75.5991	1,624.51	71.9779	1,624.51	73.8251	1,624.51	67.8024	1,624.51	71.832	1,624.51	62.7294	1,624.51	71.7366	1,624.51	70.6576	1,624.51	70.5523	1,624.51	72.425	1,624.51	69.8478	1,624.51	72.0899	1,624.51	73.4005	1,624.51	73.8317
1,681.64	85.9778	1,681.64	85.4363	1,681.64	85.5865	1,681.64	84.1267	1,681.64	85.4696	1,681.64	83.452	1,681.64	84.8726	1,681.64	82.8051	1,681.64	83.2079	1,681.64	81.6072	1,681.64	81.5622	1,681.64	80.0978	1,681.64	79.6701	1,681.64	78.4689	1,681.64	78.3638	1,681.64	77.1083	1,681.64	78.4963	1,681.64	75.8457	1,681.64	77.8138	1,681.64	75.622	1,681.64	77.811	1,681.64	75.221	1,681.64	78.2785	1,681.64	73.5264	1,681.64	76.5975	1,681.64	73.2286	1,681.64	73.4264	1,681.64	70.933	1,681.64	69.0978	1,681.64	68.6534	1,681.64	68.3021	1,681.64	71.1963	1,681.64	72.1921	1,681.64	72.6253	1,681.64	72.9588	1,681.64	72.7207
1,741.7	86.0274	1,741.7	85.759	1,741.7	86.0104	1,741.7	85.531	1,741.7	85.5047	1,741.7	85.1301	1,741.7	85.0279	1,741.7	84.0827	1,741.7	84.8065	1,741.7	82.6135	1,741.7	83.4021	1,741.7	81.4697	1,741.7	80.6257	1,741.7	80.5915	1,741.7	79.6658	1,741.7	79.0145	1,741.7	79.1069	1,741.7	77.0337	1,741.7	76.41	1,741.7	75.896	1,741.7	75.8158	1,741.7	74.44	1,741.7	76.1371	1,741.7	71.2122	1,741.7	74.7942	1,741.7	68.566	1,741.7	73.653	1,741.7	69.0514	1,741.7	70.4191	1,741.7	70.6259	1,741.7	65.2374	1,741.7	72.2438	1,741.7	67.8266	1,741.7	75.0176	1,741.7	73.6017	1,741.7	76.4104
1,803.22	85.7742	1,803.22	85.7569	1,803.22	85.764	1,803.22	85.4191	1,803.22	85.3305	1,803.22	84.4948	1,803.22	84.6028	1,803.22	83.6298	1,803.22	83.7617	1,803.22	82.6859	1,803.22	82.5458	1,803.22	81.3106	1,803.22	81.0251	1,803.22	79.9349	1,803.22	79.4465	1,803.22	78.534	1,803.22	77.7101	1,803.22	77.4395	1,803.22	76.1772	1,803.22	76.9942	1,803.22	76.0712	1,803.22	76.5872	1,803.22	76.5733	1,803.22	75.9811	1,803.22	76.5019	1,803.22	74.0018	1,803.22	75.1532	1,803.22	68.8544	1,803.22	72.386	1,803.22	63.1768	1,803.22	66.7926	1,803.22	70.3713	1,803.22	68.6688	1,803.22	74.1655	1,803.22	73.0615	1,803.22	74.8941
1,866.21	84.9818	1,866.21	84.9435	1,866.21	84.7854	1,866.21	84.4569	1,866.21	84.412	1,866.21	83.7428	1,866.21	83.5867	1,866.21	82.86	1,866.21	82.5928	1,866.21	81.6826	1,866.21	81.5604	1,866.21	80.7143	1,866.21	80.0631	1,866.21	79.6458	1,866.21	78.5167	1,866.21	78.0122	1,866.21	77.0567	1,866.21	77.0621	1,866.21	75.0451	1,866.21	76.0563	1,866.21	73.7187	1,866.21	75.0032	1,866.21	73.9427	1,866.21	75.3908	1,866.21	74.159	1,866.21	74.4862	1,866.21	73.5848	1,866.21	71.9139	1,866.21	71.3404	1,866.21	67.995	1,866.21	66.7968	1,866.21	68.0189	1,866.21	66.5216	1,866.21	72.5446	1,866.21	71.5587	1,866.21	73.5595
1,932.13	85.1532	1,932.13	84.7647	1,932.13	84.8966	1,932.13	84.1751	1,932.13	84.2286	1,932.13	83.213	1,932.13	83.2764	1,932.13	81.7233	1,932.13	82.2686	1,932.13	80.0729	1,932.13	81.5212	1,932.13	78.2722	1,932.13	79.9952	1,932.13	77.4575	1,932.13	78.2608	1,932.13	77.0667	1,932.13	77.0452	1,932.13	75.7453	1,932.13	74.7773	1,932.13	75.3047	1,932.13	72.9857	1,932.13	75.0348	1,932.13	73.4094	1,932.13	74.1829	1,932.13	73.865	1,932.13	72.367	1,932.13	73.4338	1,932.13	68.1028	1,932.13	71.1259	1,932.13	66.6622	1,932.13	66.9504	1,932.13	69.4886	1,932.13	64.3887	1,932.13	72.2919	1,932.13	70.0284	1,932.13	72.7929
1,999.51	85.9862	1,999.51	85.5754	1,999.51	85.3593	1,999.51	84.511	1,999.51	84.8402	1,999.51	83.7744	1,999.51	84.3607	1,999.51	82.4723	1,999.51	83.317	1,999.51	80.5374	1,999.51	81.9917	1,999.51	78.8197	1,999.51	80.7199	1,999.51	76.9143	1,999.51	79.1584	1,999.51	75.5184	1,999.51	76.9021	1,999.51	74.8244	1,999.51	75.2801	1,999.51	74.0242	1,999.51	74.2174	1,999.51	73.6722	1,999.51	73.0556	1,999.51	73.6942	1,999.51	73.394	1,999.51	72.1196	1,999.51	73.3115	1,999.51	67.2779	1,999.51	70.3673	1,999.51	62.9869	1,999.51	65.3718	1,999.51	67.3713	1,999.51	65.7569	1,999.51	71.023	1,999.51	69.8423	1,999.51	71.5075
2,069.82	86.4231	2,069.82	86.1684	2,069.82	86.299	2,069.82	85.5335	2,069.82	85.6625	2,069.82	84.6088	2,069.82	84.7278	2,069.82	83.3433	2,069.82	83.6538	2,069.82	81.4839	2,069.82	82.3969	2,069.82	79.5403	2,069.82	80.9981	2,069.82	77.7099	2,069.82	79.3682	2,069.82	76.1021	2,069.82	77.7826	2,069.82	74.9719	2,069.82	76.0681	2,069.82	73.957	2,069.82	73.9034	2,069.82	73.8131	2,069.82	73.0433	2,069.82	72.8681	2,069.82	73.5322	2,069.82	71.6577	2,069.82	73.1284	2,069.82	70.4118	2,069.82	71.5692	2,069.82	64.8497	2,069.82	66.838	2,069.82	65.309	2,069.82	63.1048	2,069.82	69.9824	2,069.82	67.4726	2,069.82	70.3233
2,143.07	86.5032	2,143.07	86.2582	2,143.07	86.2716	2,143.07	85.6875	2,143.07	85.682	2,143.07	84.9173	2,143.07	84.8683	2,143.07	83.8755	2,143.07	83.7647	2,143.07	82.4602	2,143.07	82.3368	2,143.07	80.6493	2,143.07	80.6223	2,143.07	78.7093	2,143.07	78.8265	2,143.07	76.769	2,143.07	77.0928	2,143.07	75.1173	2,143.07	75.7202	2,143.07	74.1644	2,143.07	74.6748	2,143.07	73.7451	2,143.07	73.3815	2,143.07	73.472	2,143.07	73.5375	2,143.07	72.3136	2,143.07	73.9068	2,143.07	70.8289	2,143.07	71.7329	2,143.07	67.5968	2,143.07	66.5925	2,143.07	65.4282	2,143.07	59.1766	2,143.07	69.6713	2,143.07	68.1647	2,143.07	70.6519
2,219.24	85.6449	2,219.24	85.3362	2,219.24	85.3608	2,219.24	84.7122	2,219.24	84.7562	2,219.24	83.9951	2,219.24	83.7465	2,219.24	83.0718	2,219.24	82.5264	2,219.24	81.9046	2,219.24	81.2698	2,219.24	80.17	2,219.24	79.469	2,219.24	78.5044	2,219.24	77.548	2,219.24	77.0828	2,219.24	75.9286	2,219.24	74.7198	2,219.24	74.4186	2,219.24	73.5297	2,219.24	72.7192	2,219.24	73.2767	2,219.24	71.1273	2,219.24	72.2159	2,219.24	71.2921	2,219.24	72.5509	2,219.24	72.732	2,219.24	71.5086	2,219.24	72.9886	2,219.24	68.5882	2,219.24	69.8898	2,219.24	65.7717	2,219.24	59.6027	2,219.24	67.7953	2,219.24	61.5159	2,219.24	68.5252
2,296.88	84.7683	2,296.88	84.6121	2,296.88	84.6601	2,296.88	83.9093	2,296.88	84.0548	2,296.88	82.7596	2,296.88	83.3154	2,296.88	81.8239	2,296.88	82.2149	2,296.88	80.6441	2,296.88	80.5556	2,296.88	78.8507	2,296.88	78.9388	2,296.88	76.4876	2,296.88	76.8529	2,296.88	74.9225	2,296.88	75.1303	2,296.88	74.5405	2,296.88	74.2915	2,296.88	73.1067	2,296.88	73.2652	2,296.88	71.7056	2,296.88	71.5783	2,296.88	71.1511	2,296.88	68.4508	2,296.88	69.9888	2,296.88	69.5477	2,296.88	69.9816	2,296.88	71.4719	2,296.88	67.4043	2,296.88	69.9832	2,296.88	67.0408	2,296.88	66.4265	2,296.88	68.2436	2,296.88	63.8852	2,296.88	66.7396
2,378.91	85.2906	2,378.91	84.9172	2,378.91	85.3549	2,378.91	83.9519	2,378.91	85.0095	2,378.91	82.8585	2,378.91	84.1571	2,378.91	81.6126	2,378.91	83.0624	2,378.91	80.0959	2,378.91	81.7715	2,378.91	78.3723	2,378.91	80.292	2,378.91	76.066	2,378.91	78.3777	2,378.91	73.354	2,378.91	76.6377	2,378.91	72.3629	2,378.91	75.165	2,378.91	73.1719	2,378.91	74.1212	2,378.91	71.4047	2,378.91	74.0848	2,378.91	69.856	2,378.91	72.1959	2,378.91	69.8293	2,378.91	69.9976	2,378.91	67.252	2,378.91	70.5752	2,378.91	65.6842	2,378.91	69.7535	2,378.91	66.9023	2,378.91	68.0622	2,378.91	69.6773	2,378.91	68.4303	2,378.91	69.4199
2,462.4	87.136	2,462.4	86.7268	2,462.4	87.068	2,462.4	85.8308	2,462.4	86.5609	2,462.4	84.812	2,462.4	85.5813	2,462.4	83.406	2,462.4	84.4327	2,462.4	82.0529	2,462.4	83.0604	2,462.4	80.6914	2,462.4	81.6566	2,462.4	78.4557	2,462.4	79.9439	2,462.4	75.5974	2,462.4	77.7097	2,462.4	73.3495	2,462.4	76.051	2,462.4	72.7979	2,462.4	75.3777	2,462.4	72.3518	2,462.4	75.1939	2,462.4	71.1154	2,462.4	73.794	2,462.4	70.8958	2,462.4	71.9964	2,462.4	68.5604	2,462.4	71.4807	2,462.4	65.2833	2,462.4	70.229	2,462.4	68.7528	2,462.4	69.7381	2,462.4	71.4452	2,462.4	71.4844	2,462.4	72.2604
2,548.83	87.4621	2,548.83	87.1459	2,548.83	87.2591	2,548.83	86.3467	2,548.83	86.6191	2,548.83	85.1428	2,548.83	85.5701	2,548.83	83.8559	2,548.83	84.2	2,548.83	82.6346	2,548.83	82.7715	2,548.83	81.359	2,548.83	81.451	2,548.83	79.6806	2,548.83	79.856	2,548.83	76.7109	2,548.83	77.2791	2,548.83	73.9118	2,548.83	74.6325	2,548.83	73.5954	2,548.83	73.9543	2,548.83	73.9474	2,548.83	74.4468	2,548.83	73.5419	2,548.83	74.1018	2,548.83	72.0872	2,548.83	72.5808	2,548.83	69.2022	2,548.83	70.766	2,548.83	64.3772	2,548.83	67.556	2,548.83	70.8686	2,548.83	69.058	2,548.83	74.0354	2,548.83	73.565	2,548.83	74.8271
2,639.65	86.7318	2,639.65	86.4637	2,639.65	86.5792	2,639.65	85.7595	2,639.65	86.0201	2,639.65	84.423	2,639.65	84.8982	2,639.65	82.7022	2,639.65	83.3399	2,639.65	81.1136	2,639.65	81.7328	2,639.65	79.8269	2,639.65	80.1076	2,639.65	78.7605	2,639.65	78.9001	2,639.65	77.1238	2,639.65	77.3046	2,639.65	74.1352	2,639.65	74.47	2,639.65	71.6872	2,639.65	71.0573	2,639.65	72.7933	2,639.65	70.2972	2,639.65	74.6878	2,639.65	72.9475	2,639.65	74.6305	2,639.65	73.9797	2,639.65	72.0249	2,639.65	72.4483	2,639.65	61.8312	2,639.65	67.235	2,639.65	67.4134	2,639.65	57.6295	2,639.65	73.6864	2,639.65	71.7653	2,639.65	74.5976
2,731.93	85.6361	2,731.93	85.278	2,731.93	85.5736	2,731.93	84.4966	2,731.93	85.1272	2,731.93	83.3409	2,731.93	84.2614	2,731.93	81.767	2,731.93	83.0544	2,731.93	79.8599	2,731.93	81.6024	2,731.93	77.9255	2,731.93	79.9342	2,731.93	76.2948	2,731.93	78.3687	2,731.93	75.2333	2,731.93	76.6492	2,731.93	73.3303	2,731.93	74.6193	2,731.93	69.9798	2,731.93	72.3605	2,731.93	68.8779	2,731.93	69.9037	2,731.93	71.1506	2,731.93	70.3164	2,731.93	72.8796	2,731.93	72.4695	2,731.93	72.6103	2,731.93	72.8705	2,731.93	67.8329	2,731.93	71.2042	2,731.93	49.5013	2,731.93	64.8287	2,731.93	65.1167	2,731.93	59.0936	2,731.93	67.3635
2,828.61	85.835	2,828.61	85.4118	2,828.61	85.6961	2,828.61	84.4949	2,828.61	85.1613	2,828.61	83.3434	2,828.61	84.1434	2,828.61	81.7751	2,828.61	82.8109	2,828.61	80.1432	2,828.61	81.3755	2,828.61	78.1888	2,828.61	79.8602	2,828.61	76.0375	2,828.61	78.1273	2,828.61	74.396	2,828.61	76.6689	2,828.61	72.6146	2,828.61	75.0275	2,828.61	71.2444	2,828.61	72.2897	2,828.61	69.0261	2,828.61	70.0295	2,828.61	68.4922	2,828.61	70.1216	2,828.61	71.9623	2,828.61	72.4131	2,828.61	72.7812	2,828.61	73.2392	2,828.61	69.7181	2,828.61	71.7365	2,828.61	58.8679	2,828.61	66.2907	2,828.61	62.9921	2,828.61	60.3124	2,828.61	65.0869
2,928.22	86.1535	2,928.22	85.7145	2,928.22	86.0111	2,928.22	84.8233	2,928.22	85.3923	2,928.22	83.6463	2,928.22	84.3022	2,928.22	82.2623	2,928.22	82.7648	2,928.22	80.7966	2,928.22	81.2018	2,928.22	79.1044	2,928.22	79.5113	2,928.22	77.2803	2,928.22	77.877	2,928.22	74.988	2,928.22	76.254	2,928.22	72.6735	2,928.22	74.1145	2,928.22	72.0158	2,928.22	72.1322	2,928.22	70.8917	2,928.22	70.0739	2,928.22	68.7601	2,928.22	68.7166	2,928.22	71.5825	2,928.22	71.0247	2,928.22	73.6755	2,928.22	73.2714	2,928.22	71.0851	2,928.22	72.6701	2,928.22	64.9028	2,928.22	68.7315	2,928.22	63.9738	2,928.22	64.954	2,928.22	66.1856
3,030.76	86.2433	3,030.76	85.8437	3,030.76	86.0045	3,030.76	84.8981	3,030.76	85.3894	3,030.76	83.6732	3,030.76	84.1778	3,030.76	82.07	3,030.76	82.6621	3,030.76	80.736	3,030.76	81.2752	3,030.76	79.4838	3,030.76	79.8846	3,030.76	78.0444	3,030.76	78.4468	3,030.76	76.034	3,030.76	76.8442	3,030.76	73.0004	3,030.76	74.5135	3,030.76	71.7737	3,030.76	72.3811	3,030.76	70.826	3,030.76	71.0337	3,030.76	68.508	3,030.76	68.4495	3,030.76	70.2884	3,030.76	69.0365	3,030.76	72.8767	3,030.76	72.4681	3,030.76	71.9624	3,030.76	73.3009	3,030.76	67.5858	3,030.76	69.8571	3,030.76	66.079	3,030.76	66.5649	3,030.76	66.7141
3,137.7	85.466	3,137.7	85.1798	3,137.7	85.3934	3,137.7	84.3072	3,137.7	84.6867	3,137.7	82.879	3,137.7	83.4974	3,137.7	81.5844	3,137.7	82.107	3,137.7	80.2397	3,137.7	80.5133	3,137.7	78.8961	3,137.7	79.0937	3,137.7	78.4351	3,137.7	78.1825	3,137.7	76.7846	3,137.7	77.4739	3,137.7	73.9713	3,137.7	75.5124	3,137.7	72.429	3,137.7	72.7229	3,137.7	71.4728	3,137.7	71.1302	3,137.7	69.0058	3,137.7	68.6632	3,137.7	68.2985	3,137.7	67.5146	3,137.7	71.6003	3,137.7	70.9185	3,137.7	71.6992	3,137.7	72.7207	3,137.7	68.9983	3,137.7	70.3072	3,137.7	68.465	3,137.7	68.8101	3,137.7	69.6009
3,249.02	85.0627	3,249.02	84.4489	3,249.02	84.9561	3,249.02	83.4309	3,249.02	84.374	3,249.02	82.3279	3,249.02	83.1322	3,249.02	80.574	3,249.02	81.4916	3,249.02	78.7402	3,249.02	79.4798	3,249.02	77.8759	3,249.02	77.7186	3,249.02	77.3205	3,249.02	77.5461	3,249.02	76.2678	3,249.02	77.0514	3,249.02	73.9282	3,249.02	75.2962	3,249.02	70.9619	3,249.02	72.7962	3,249.02	71.7167	3,249.02	71.8292	3,249.02	71.4675	3,249.02	71.0258	3,249.02	68.5568	3,249.02	68.2783	3,249.02	69.772	3,249.02	69.8569	3,249.02	71.3525	3,249.02	71.5131	3,249.02	69.0177	3,249.02	69.0611	3,249.02	69.7531	3,249.02	67.3704	3,249.02	70.5072
3,363.28	84.9416	3,363.28	84.4285	3,363.28	84.9286	3,363.28	83.6482	3,363.28	84.3944	3,363.28	82.6427	3,363.28	83.449	3,363.28	81.028	3,363.28	81.9878	3,363.28	78.7436	3,363.28	79.6492	3,363.28	76.6473	3,363.28	77.2366	3,363.28	76.4867	3,363.28	76.4711	3,363.28	76.6417	3,363.28	77.0475	3,363.28	74.8148	3,363.28	76.1773	3,363.28	71.2685	3,363.28	73.0953	3,363.28	70.3058	3,363.28	70.833	3,363.28	71.0391	3,363.28	71.1299	3,363.28	68.2602	3,363.28	68.8543	3,363.28	68.7436	3,363.28	69.1455	3,363.28	69.5905	3,363.28	71.4801	3,363.28	67.9414	3,363.28	69.6449	3,363.28	69.609	3,363.28	69.3846	3,363.28	71.5289
3,481.93	84.9632	3,481.93	84.7139	3,481.93	84.615	3,481.93	84.1703	3,481.93	84.2129	3,481.93	83.5314	3,481.93	83.6565	3,481.93	82.1602	3,481.93	82.4125	3,481.93	80.0821	3,481.93	80.4512	3,481.93	77.7421	3,481.93	77.7033	3,481.93	76.1794	3,481.93	74.9378	3,481.93	75.8563	3,481.93	74.8764	3,481.93	75.4244	3,481.93	75.7499	3,481.93	73.195	3,481.93	74.8167	3,481.93	69.1685	3,481.93	70.5584	3,481.93	68.7594	3,481.93	67.0485	3,481.93	69.531	3,481.93	67.8971	3,481.93	69.6849	3,481.93	67.7929	3,481.93	69.191	3,481.93	68.9127	3,481.93	63.968	3,481.93	66.5718	3,481.93	66.3336	3,481.93	66.9576	3,481.93	69.9111
3,604.98	85.1141	3,604.98	84.7272	3,604.98	84.7433	3,604.98	84.002	3,604.98	84.3168	3,604.98	83.106	3,604.98	83.9672	3,604.98	81.835	3,604.98	82.8696	3,604.98	80.1829	3,604.98	81.6079	3,604.98	78.3999	3,604.98	79.7531	3,604.98	76.0858	3,604.98	76.5342	3,604.98	75.3033	3,604.98	74.8627	3,604.98	75.3298	3,604.98	75.4851	3,604.98	73.4814	3,604.98	75.2842	3,604.98	72.0695	3,604.98	73.2096	3,604.98	69.528	3,604.98	70.8462	3,604.98	67.3427	3,604.98	69.7407	3,604.98	69.9956	3,604.98	68.4701	3,604.98	70.0379	3,604.98	68.475	3,604.98	66.7292	3,604.98	68.1615	3,604.98	66.6376	3,604.98	63.7859	3,604.98	67.6722
3,732.42	85.9537	3,732.42	85.6565	3,732.42	85.6208	3,732.42	85.017	3,732.42	85.0149	3,732.42	84.039	3,732.42	84.279	3,732.42	82.5056	3,732.42	83.2651	3,732.42	80.6331	3,732.42	82.2917	3,732.42	78.3195	3,732.42	80.6301	3,732.42	76.1797	3,732.42	77.4278	3,732.42	75.9519	3,732.42	74.6778	3,732.42	76.1489	3,732.42	74.5912	3,732.42	74.187	3,732.42	74.6306	3,732.42	71.1685	3,732.42	73.8752	3,732.42	69.1792	3,732.42	72.5962	3,732.42	66.9391	3,732.42	71.8442	3,732.42	69.6217	3,732.42	72.0595	3,732.42	69.0388	3,732.42	71.133	3,732.42	65.5272	3,732.42	67.7225	3,732.42	68.2929	3,732.42	64.4068	3,732.42	68.7792
3,864.26	84.6237	3,864.26	84.5426	3,864.26	84.6344	3,864.26	84.1402	3,864.26	83.7679	3,864.26	83.2755	3,864.26	82.4769	3,864.26	82.5798	3,864.26	81.6979	3,864.26	81.4091	3,864.26	81.105	3,864.26	78.3698	3,864.26	79.9464	3,864.26	75.7235	3,864.26	77.0348	3,864.26	74.585	3,864.26	72.9904	3,864.26	74.8929	3,864.26	72.2264	3,864.26	75.813	3,864.26	72.7814	3,864.26	74.5674	3,864.26	71.4002	3,864.26	71.9387	3,864.26	68.6403	3,864.26	69.104	3,864.26	67.7529	3,864.26	67.472	3,864.26	69.9619	3,864.26	68.7267	3,864.26	71.1524	3,864.26	63.2783	3,864.26	67.9223	3,864.26	65.0181	3,864.26	64.1805	3,864.26	67.5887
4,000.49	84.5808	4,000.49	84.4706	4,000.49	84.5204	4,000.49	83.6814	4,000.49	84.0401	4,000.49	82.0702	4,000.49	83.1795	4,000.49	81.5311	4,000.49	82.1774	4,000.49	80.4929	4,000.49	81.055	4,000.49	77.7725	4,000.49	79.8795	4,000.49	75.7992	4,000.49	78.4246	4,000.49	72.4836	4,000.49	75.7776	4,000.49	71.5464	4,000.49	73.6259	4,000.49	72.7255	4,000.49	73.2658	4,000.49	70.7876	4,000.49	72.2153	4,000.49	70.3549	4,000.49	70.1446	4,000.49	69.8417	4,000.49	68.2898	4,000.49	68.3825	4,000.49	66.9832	4,000.49	68.7466	4,000.49	69.9274	4,000.49	66.4223	4,000.49	68.6934	4,000.49	60.6708	4,000.49	62.627	4,000.49	64.7432
4,141.11	86.2742	4,141.11	86.0749	4,141.11	86.0164	4,141.11	85.0339	4,141.11	85.2827	4,141.11	83.8011	4,141.11	84.5001	4,141.11	82.7797	4,141.11	83.4184	4,141.11	81.0876	4,141.11	82.1396	4,141.11	80.1156	4,141.11	80.9717	4,141.11	77.6669	4,141.11	79.3683	4,141.11	74.5692	4,141.11	76.5461	4,141.11	74.4269	4,141.11	74.4648	4,141.11	72.4646	4,141.11	74.1371	4,141.11	69.9722	4,141.11	72.4879	4,141.11	70.046	4,141.11	71.2619	4,141.11	68.4461	4,141.11	70.1436	4,141.11	67.1551	4,141.11	68.0131	4,141.11	68.3939	4,141.11	69.3544	4,141.11	68.0246	4,141.11	71.5839	4,141.11	66.8198	4,141.11	68.837	4,141.11	68.2209
4,287.6	85.417	4,287.6	85.3713	4,287.6	85.2388	4,287.6	84.8736	4,287.6	85.2288	4,287.6	84.4811	4,287.6	84.4304	4,287.6	82.7903	4,287.6	82.8113	4,287.6	81.2046	4,287.6	81.5435	4,287.6	80.7148	4,287.6	80.1289	4,287.6	78.3569	4,287.6	79.2326	4,287.6	75.4738	4,287.6	76.8492	4,287.6	75.2391	4,287.6	73.902	4,287.6	74.3426	4,287.6	74.9616	4,287.6	72.839	4,287.6	74.5785	4,287.6	72.3674	4,287.6	72.2836	4,287.6	71.0824	4,287.6	70.2239	4,287.6	67.2556	4,287.6	67.779	4,287.6	67.2624	4,287.6	66.239	4,287.6	67.8825	4,287.6	68.5019	4,287.6	69.3694	4,287.6	68.4169	4,287.6	70.3861
4,438.48	84.9268	4,438.48	84.7445	4,438.48	84.6578	4,438.48	84.6452	4,438.48	85.3871	4,438.48	84.7597	4,438.48	85.3053	4,438.48	83.1945	4,438.48	84.0892	4,438.48	81.8825	4,438.48	82.3309	4,438.48	79.8641	4,438.48	80.8105	4,438.48	78.1612	4,438.48	79.8453	4,438.48	76.0545	4,438.48	77.6755	4,438.48	71.5293	4,438.48	73.5461	4,438.48	74.6229	4,438.48	74.4277	4,438.48	74.8717	4,438.48	75.515	4,438.48	68.2135	4,438.48	71.8148	4,438.48	67.7184	4,438.48	68.8958	4,438.48	71.0914	4,438.48	69.3216	4,438.48	69.1732	4,438.48	68.9129	4,438.48	64.6078	4,438.48	65.1176	4,438.48	65.8512	4,438.48	66.5097	4,438.48	70.7431
4,595.21	85.2752	4,595.21	85.0819	4,595.21	84.9962	4,595.21	84.4497	4,595.21	84.7604	4,595.21	83.0702	4,595.21	84.5542	4,595.21	82.9132	4,595.21	83.8047	4,595.21	82.2639	4,595.21	82.708	4,595.21	80.2091	4,595.21	80.3381	4,595.21	79.223	4,595.21	77.9021	4,595.21	76.3788	4,595.21	76.8629	4,595.21	73.0193	4,595.21	73.9527	4,595.21	73.225	4,595.21	72.242	4,595.21	73.6208	4,595.21	73.6212	4,595.21	71.3446	4,595.21	70.7882	4,595.21	68.7115	4,595.21	66.8701	4,595.21	68.9417	4,595.21	66.4489	4,595.21	72.2043	4,595.21	68.1304	4,595.21	68.6376	4,595.21	68.0658	4,595.21	61.9585	4,595.21	54.4167	4,595.21	61.3208
4,756.35	85.9539	4,756.35	85.8278	4,756.35	86.195	4,756.35	85.2263	4,756.35	86.0772	4,756.35	85.0147	4,756.35	85.3972	4,756.35	84.1353	4,756.35	84.7368	4,756.35	81.4482	4,756.35	83.1419	4,756.35	79.7814	4,756.35	80.7008	4,756.35	77.6004	4,756.35	79.1739	4,756.35	74.0013	4,756.35	78.0149	4,756.35	74.2169	4,756.35	75.812	4,756.35	72.9137	4,756.35	72.6674	4,756.35	70.7293	4,756.35	72.6999	4,756.35	69.8158	4,756.35	71.2973	4,756.35	69.9992	4,756.35	67.8349	4,756.35	66.8073	4,756.35	67.7132	4,756.35	70.7897	4,756.35	69.6248	4,756.35	69.0176	4,756.35	69.0659	4,756.35	64.2322	4,756.35	65.5025	4,756.35	64.8021
4,924.8	86.293	4,924.8	85.9401	4,924.8	86.2024	4,924.8	86.0428	4,924.8	85.9231	4,924.8	86.4113	4,924.8	85.4995	4,924.8	84.9206	4,924.8	84.3137	4,924.8	82.4836	4,924.8	82.4715	4,924.8	80.6395	4,924.8	80.9928	4,924.8	78.3371	4,924.8	79.5717	4,924.8	76.7092	4,924.8	77.7718	4,924.8	74.6828	4,924.8	75.4674	4,924.8	72.0511	4,924.8	73.1479	4,924.8	71.8444	4,924.8	72.9411	4,924.8	70.4437	4,924.8	71.0904	4,924.8	69.0117	4,924.8	68.6581	4,924.8	68.7951	4,924.8	67.1485	4,924.8	71.2611	4,924.8	69.4251	4,924.8	71.4121	4,924.8	69.4856	4,924.8	58.8861	4,924.8	61.6649	4,924.8	65.0785
5,097.66	85.2387	5,097.66	84.8879	5,097.66	85.6003	5,097.66	85.0011	5,097.66	85.3658	5,097.66	84.305	5,097.66	84.855	5,097.66	83.2275	5,097.66	84.086	5,097.66	82.3731	5,097.66	82.7834	5,097.66	79.5282	5,097.66	80.6971	5,097.66	78.1934	5,097.66	78.9049	5,097.66	76.8157	5,097.66	76.7232	5,097.66	72.8007	5,097.66	74.6879	5,097.66	73.6521	5,097.66	73.1069	5,097.66	73.979	5,097.66	71.521	5,097.66	70.7331	5,097.66	70.0591	5,097.66	67.3736	5,097.66	67.2528	5,097.66	66.2897	5,097.66	66.8124	5,097.66	69.2111	5,097.66	63.1792	5,097.66	70.6904	5,097.66	70.1753	5,097.66	62.0962	5,097.66	65.0865	5,097.66	61.0983
5,277.83	85.5832	5,277.83	85.6439	5,277.83	85.2712	5,277.83	85.0278	5,277.83	85.4844	5,277.83	84.1272	5,277.83	84.9424	5,277.83	83.5387	5,277.83	83.852	5,277.83	82.2547	5,277.83	82.6168	5,277.83	79.5141	5,277.83	79.8054	5,277.83	77.5509	5,277.83	76.7988	5,277.83	74.9903	5,277.83	75.6953	5,277.83	72.946	5,277.83	73.1806	5,277.83	72.9126	5,277.83	70.0121	5,277.83	70.066	5,277.83	71.4542	5,277.83	64.5616	5,277.83	71.2004	5,277.83	67.6105	5,277.83	66.4529	5,277.83	69.3555	5,277.83	68.7615	5,277.83	63.5478	5,277.83	65.6422	5,277.83	66.3343	5,277.83	66.5454	5,277.83	62.8312	5,277.83	63.4642	5,277.83	65.0673
5,463.87	85.6463	5,463.87	85.5227	5,463.87	85.3778	5,463.87	85.5492	5,463.87	85.2935	5,463.87	85.1686	5,463.87	84.8801	5,463.87	83.4554	5,463.87	83.8001	5,463.87	80.8183	5,463.87	82.4998	5,463.87	79.3546	5,463.87	79.86	5,463.87	77.2929	5,463.87	77.5329	5,463.87	74.9083	5,463.87	76.5613	5,463.87	74.6196	5,463.87	73.9072	5,463.87	71.84	5,463.87	72.0327	5,463.87	68.1098	5,463.87	70.7517	5,463.87	67.9549	5,463.87	68.2358	5,463.87	70.6394	5,463.87	66.8828	5,463.87	69.7358	5,463.87	69.2334	5,463.87	68.1835	5,463.87	67.4502	5,463.87	66.6094	5,463.87	68.4591	5,463.87	59.6608	5,463.87	65.1021	5,463.87	64.5057
5,657.23	85.4645	5,657.23	85.7202	5,657.23	85.5323	5,657.23	85.4857	5,657.23	85.5465	5,657.23	84.7403	5,657.23	84.7772	5,657.23	83.4245	5,657.23	83.6198	5,657.23	81.0121	5,657.23	82.1577	5,657.23	78.3405	5,657.23	80.2889	5,657.23	76.9645	5,657.23	78.1869	5,657.23	74.4571	5,657.23	75.3863	5,657.23	71.107	5,657.23	73.7834	5,657.23	70.5363	5,657.23	72.2959	5,657.23	69.8242	5,657.23	70.4131	5,657.23	67.5443	5,657.23	67.8057	5,657.23	70.6823	5,657.23	66.5949	5,657.23	69.2214	5,657.23	69.5513	5,657.23	67.0559	5,657.23	68.6637	5,657.23	69.4757	5,657.23	69.4456	5,657.23	63.7809	5,657.23	66.267	5,657.23	64.7737
5,856.45	84.9117	5,856.45	85.0212	5,856.45	84.8475	5,856.45	84.4465	5,856.45	85.1757	5,856.45	83.5694	5,856.45	84.8035	5,856.45	82.9175	5,856.45	83.5398	5,856.45	81.3854	5,856.45	81.7947	5,856.45	79.1868	5,856.45	79.5507	5,856.45	77.4073	5,856.45	77.7135	5,856.45	74.6104	5,856.45	75.9657	5,856.45	71.7406	5,856.45	73.8209	5,856.45	71.289	5,856.45	72.61	5,856.45	69.466	5,856.45	70.4653	5,856.45	64.7642	5,856.45	66.8372	5,856.45	69.6723	5,856.45	64.4192	5,856.45	70.8621	5,856.45	69.5135	5,856.45	67.9959	5,856.45	68.5238	5,856.45	68.5112	5,856.45	68.1812	5,856.45	64.3997	5,856.45	60.5715	5,856.45	66.1906
6,062.99	86.2755	6,062.99	86.0135	6,062.99	86.1682	6,062.99	85.9206	6,062.99	86.1652	6,062.99	85.3399	6,062.99	85.691	6,062.99	83.7311	6,062.99	84.4209	6,062.99	81.8865	6,062.99	82.3803	6,062.99	79.2522	6,062.99	79.2052	6,062.99	76.1139	6,062.99	77.3241	6,062.99	74.4495	6,062.99	76.8866	6,062.99	72.0965	6,062.99	73.7238	6,062.99	71.7935	6,062.99	72.2092	6,062.99	68.2087	6,062.99	72.2872	6,062.99	63.0092	6,062.99	68.5943	6,062.99	60.4414	6,062.99	61.4711	6,062.99	67.4009	6,062.99	69.462	6,062.99	68.5611	6,062.99	69.81	6,062.99	69.9963	6,062.99	68.8122	6,062.99	59.2882	6,062.99	63.619	6,062.99	64.7696
6,276.86	85.7028	6,276.86	85.6206	6,276.86	85.872	6,276.86	85.6456	6,276.86	85.8172	6,276.86	84.7111	6,276.86	85.1344	6,276.86	82.8636	6,276.86	83.6536	6,276.86	80.6583	6,276.86	82.087	6,276.86	78.0888	6,276.86	79.595	6,276.86	76.4629	6,276.86	76.7416	6,276.86	74.7957	6,276.86	75.6179	6,276.86	71.9918	6,276.86	72.8374	6,276.86	71.8474	6,276.86	70.4601	6,276.86	69.0282	6,276.86	69.4448	6,276.86	62.1616	6,276.86	64.9766	6,276.86	67.8747	6,276.86	64.5456	6,276.86	70.2702	6,276.86	67.7255	6,276.86	69.4925	6,276.86	68.2006	6,276.86	70.7011	6,276.86	67.9113	6,276.86	64.2277	6,276.86	66.3864	6,276.86	62.2756
6,498.05	85.7258	6,498.05	85.7191	6,498.05	85.8452	6,498.05	85.3388	6,498.05	85.5492	6,498.05	84.1141	6,498.05	84.2635	6,498.05	82.5666	6,498.05	82.7449	6,498.05	80.619	6,498.05	81.7656	6,498.05	77.7979	6,498.05	79.7992	6,498.05	75.9622	6,498.05	76.8316	6,498.05	74.0321	6,498.05	74.5153	6,498.05	70.59	6,498.05	72.4542	6,498.05	70.5492	6,498.05	70.7751	6,498.05	69.5183	6,498.05	70.36	6,498.05	59.5495	6,498.05	65.2005	6,498.05	67.4461	6,498.05	64.1693	6,498.05	69.4908	6,498.05	67.6681	6,498.05	67.9108	6,498.05	68.0601	6,498.05	68.1101	6,498.05	65.3475	6,498.05	61.4982	6,498.05	66.369	6,498.05	65.4906
6,726.56	86.6917	6,726.56	86.3361	6,726.56	86.45	6,726.56	85.8801	6,726.56	86.0284	6,726.56	84.9183	6,726.56	85.3914	6,726.56	82.7894	6,726.56	83.9361	6,726.56	80.5294	6,726.56	81.8227	6,726.56	79.0061	6,726.56	80.2147	6,726.56	76.5419	6,726.56	78.2942	6,726.56	74.5038	6,726.56	75.5139	6,726.56	73.2646	6,726.56	73.2932	6,726.56	70.0979	6,726.56	70.0202	6,726.56	68.7871	6,726.56	69.5986	6,726.56	66.1066	6,726.56	66.1231	6,726.56	60.6513	6,726.56	65.2384	6,726.56	68.8412	6,726.56	65.7615	6,726.56	63.1232	6,726.56	69.904	6,726.56	69.0878	6,726.56	65.565	6,726.56	63.435	6,726.56	65.8166	6,726.56	67.0998
6,963.87	86.184	6,963.87	85.8217	6,963.87	85.9557	6,963.87	84.8267	6,963.87	85.5876	6,963.87	83.9026	6,963.87	84.4224	6,963.87	82.041	6,963.87	82.6955	6,963.87	79.5034	6,963.87	80.3771	6,963.87	77.5013	6,963.87	77.7606	6,963.87	75.7909	6,963.87	75.5443	6,963.87	72.9689	6,963.87	73.559	6,963.87	70.7581	6,963.87	71.836	6,963.87	68.1817	6,963.87	69.8267	6,963.87	65.0616	6,963.87	67.6343	6,963.87	65.3944	6,963.87	63.0179	6,963.87	63.1008	6,963.87	63.171	6,963.87	65.8417	6,963.87	64.6911	6,963.87	65.453	6,963.87	66.008	6,963.87	64.3533	6,963.87	66.7028	6,963.87	58.0814	6,963.87	63.8524	6,963.87	61.6184
7,209.96	86.2777	7,209.96	86.013	7,209.96	86.1026	7,209.96	85.0918	7,209.96	85.6392	7,209.96	83.7076	7,209.96	84.4315	7,209.96	82.4574	7,209.96	82.6235	7,209.96	80.1468	7,209.96	80.814	7,209.96	77.2348	7,209.96	78.2938	7,209.96	74.9721	7,209.96	75.4156	7,209.96	72.6997	7,209.96	73.9034	7,209.96	70.4142	7,209.96	71.4738	7,209.96	68.286	7,209.96	68.8055	7,209.96	65.487	7,209.96	66.7973	7,209.96	63.6753	7,209.96	63.6458	7,209.96	60.8552	7,209.96	61.2858	7,209.96	65.7155	7,209.96	64.5586	7,209.96	65.8328	7,209.96	66.0188	7,209.96	65.5765	7,209.96	65.2806	7,209.96	57.5703	7,209.96	64.4441	7,209.96	60.8019
7,464.84	86.323	7,464.84	85.9675	7,464.84	85.9506	7,464.84	85.2692	7,464.84	85.2633	7,464.84	84.2373	7,464.84	84.2765	7,464.84	82.087	7,464.84	82.6462	7,464.84	79.7558	7,464.84	80.4879	7,464.84	77.339	7,464.84	77.6274	7,464.84	73.931	7,464.84	75.0464	7,464.84	71.9776	7,464.84	73.2851	7,464.84	70.36	7,464.84	70.9511	7,464.84	67.3001	7,464.84	68.5494	7,464.84	65.3605	7,464.84	68.0319	7,464.84	65.1105	7,464.84	65.3113	7,464.84	60.8838	7,464.84	62.6628	7,464.84	64.2059	7,464.84	61.9167	7,464.84	64.3984	7,464.84	64.596	7,464.84	66.5315	7,464.84	65.0862	7,464.84	60.226	7,464.84	65.3102	7,464.84	61.4384
7,727.05	86.2678	7,727.05	85.6945	7,727.05	85.9364	7,727.05	84.7959	7,727.05	85.4671	7,727.05	83.5637	7,727.05	84.337	7,727.05	81.5341	7,727.05	82.8237	7,727.05	79.763	7,727.05	81.5047	7,727.05	77.3991	7,727.05	78.4981	7,727.05	74.5275	7,727.05	76.202	7,727.05	72.4614	7,727.05	74.6387	7,727.05	70.7906	7,727.05	71.9462	7,727.05	68.7779	7,727.05	69.1352	7,727.05	65.6895	7,727.05	66.9635	7,727.05	67.4984	7,727.05	64.6844	7,727.05	64.8667	7,727.05	64.7876	7,727.05	60.0267	7,727.05	61.8832	7,727.05	64.2914	7,727.05	66.5576	7,727.05	63.8619	7,727.05	63.5911	7,727.05	59.7484	7,727.05	64.2411	7,727.05	56.2523
7,999.51	86.2025	7,999.51	85.8246	7,999.51	86.101	7,999.51	84.6992	7,999.51	85.444	7,999.51	83.6317	7,999.51	83.9912	7,999.51	82.8153	7,999.51	83.2813	7,999.51	81.403	7,999.51	81.8568	7,999.51	78.4429	7,999.51	79.2116	7,999.51	75.8668	7,999.51	76.9388	7,999.51	73.8905	7,999.51	74.8018	7,999.51	70.8997	7,999.51	72.7162	7,999.51	69.2669	7,999.51	70.0276	7,999.51	66.5475	7,999.51	68.513	7,999.51	66.1145	7,999.51	65.9822	7,999.51	67.2478	7,999.51	64.8408	7,999.51	63.7925	7,999.51	63.5898	7,999.51	64.7567	7,999.51	64.5946	7,999.51	63.534	7,999.51	63.2598	7,999.51	58.92	7,999.51	63.0714	7,999.51	59.265
8,282.23	86.4898	8,282.23	85.7353	8,282.23	86.1733	8,282.23	85.1034	8,282.23	85.4679	8,282.23	84.2122	8,282.23	84.7506	8,282.23	82.5715	8,282.23	83.3234	8,282.23	80.7974	8,282.23	81.007	8,282.23	78.4594	8,282.23	79.0359	8,282.23	76.2824	8,282.23	76.8863	8,282.23	73.1553	8,282.23	74.0304	8,282.23	70.3332	8,282.23	71.3326	8,282.23	67.5911	8,282.23	69.5724	8,282.23	65.5549	8,282.23	67.0363	8,282.23	64.4007	8,282.23	66.2561	8,282.23	62.4757	8,282.23	65.5498	8,282.23	63.9651	8,282.23	64.4637	8,282.23	63.9609	8,282.23	65.0921	8,282.23	63.8428	8,282.23	61.2772	8,282.23	55.6323	8,282.23	60.0217	8,282.23	57.11
8,573.73	86.6841	8,573.73	86.2842	8,573.73	86.4023	8,573.73	85.3595	8,573.73	85.7794	8,573.73	83.9126	8,573.73	84.7173	8,573.73	82.758	8,573.73	83.2949	8,573.73	80.4011	8,573.73	81.9116	8,573.73	77.4184	8,573.73	79.3097	8,573.73	74.1009	8,573.73	76.0487	8,573.73	72.3413	8,573.73	72.9946	8,573.73	70.4832	8,573.73	71.1788	8,573.73	67.7637	8,573.73	69.4542	8,573.73	66.1902	8,573.73	66.5347	8,573.73	65.0206	8,573.73	64.5542	8,573.73	59.6924	8,573.73	66.2793	8,573.73	60.8046	8,573.73	63.9105	8,573.73	63.1597	8,573.73	64.4597	8,573.73	65.734	8,573.73	62.7394	8,573.73	51.3493	8,573.73	61.1983	8,573.73	56.317
8,876.95	85.8852	8,876.95	85.2398	8,876.95	85.7398	8,876.95	84.3531	8,876.95	85.2572	8,876.95	83.7819	8,876.95	84.1132	8,876.95	81.7965	8,876.95	82.6609	8,876.95	79.0801	8,876.95	80.6184	8,876.95	77.2366	8,876.95	78.3655	8,876.95	75.3128	8,876.95	75.8543	8,876.95	72.1314	8,876.95	73.8897	8,876.95	70.1122	8,876.95	71.9511	8,876.95	68.7684	8,876.95	68.1157	8,876.95	67.212	8,876.95	66.6827	8,876.95	65.9762	8,876.95	66.9256	8,876.95	62.2068	8,876.95	65.1299	8,876.95	58.6284	8,876.95	62.7723	8,876.95	63.6915	8,876.95	65.2443	8,876.95	64.9067	8,876.95	63.428	8,876.95	51.6956	8,876.95	61.8097	8,876.95	55.7163
9,188.96	85.8302	9,188.96	85.2968	9,188.96	85.781	9,188.96	84.5285	9,188.96	85.1563	9,188.96	83.4242	9,188.96	84.1389	9,188.96	82.0478	9,188.96	82.7577	9,188.96	80.2101	9,188.96	81.3115	9,188.96	77.6961	9,188.96	78.993	9,188.96	75.7773	9,188.96	76.6013	9,188.96	72.5963	9,188.96	74.3876	9,188.96	69.431	9,188.96	71.1316	9,188.96	69.6868	9,188.96	68.4001	9,188.96	66.2585	9,188.96	66.7493	9,188.96	66.3431	9,188.96	67.2933	9,188.96	60.5254	9,188.96	64.4333	9,188.96	61.19	9,188.96	62.7393	9,188.96	64.0467	9,188.96	64.8508	9,188.96	64.7255	9,188.96	65.0201	9,188.96	58.1311	9,188.96	62.0662	9,188.96	52.572
9,514.16	85.7816	9,514.16	85.0789	9,514.16	85.4826	9,514.16	84.1174	9,514.16	84.6321	9,514.16	83.4096	9,514.16	83.3667	9,514.16	81.9796	9,514.16	82.4509	9,514.16	80.1842	9,514.16	80.9774	9,514.16	78.1541	9,514.16	78.1842	9,514.16	75.2397	9,514.16	76.3021	9,514.16	71.8528	9,514.16	74.3933	9,514.16	69.1784	9,514.16	70.7939	9,514.16	67.906	9,514.16	68.7789	9,514.16	63.7243	9,514.16	65.9888	9,514.16	63.6722	9,514.16	64.5305	9,514.16	60.7655	9,514.16	61.8122	9,514.16	60.3062	9,514.16	61.7025	9,514.16	63.915	9,514.16	64.7125	9,514.16	63.9269	9,514.16	65.5943	9,514.16	58.7458	9,514.16	62.8002	9,514.16	51.958
9,849.61	85.6172	9,849.61	85.1388	9,849.61	85.4849	9,849.61	84.2939	9,849.61	85.0049	9,849.61	83.1246	9,849.61	83.9306	9,849.61	81.9908	9,849.61	82.9824	9,849.61	80.5748	9,849.61	81.5043	9,849.61	77.7874	9,849.61	78.6125	9,849.61	75.4394	9,849.61	76.832	9,849.61	73.5648	9,849.61	74.3364	9,849.61	69.3125	9,849.61	69.7189	9,849.61	67.6802	9,849.61	68.3434	9,849.61	65.5674	9,849.61	66.3643	9,849.61	63.7598	9,849.61	64.2311	9,849.61	63.92	9,849.61	60.3308	9,849.61	58.7879	9,849.61	62.9946	9,849.61	64.0943	9,849.61	64.6466	9,849.61	62.5298	9,849.61	65.0209	9,849.61	58.7417	9,849.61	63.2722	9,849.61	52.5536
10,196.8	85.7231	10,196.8	85.4593	10,196.8	85.4301	10,196.8	84.8612	10,196.8	84.9923	10,196.8	83.8453	10,196.8	83.9993	10,196.8	82.4163	10,196.8	83.0893	10,196.8	80.6778	10,196.8	81.6067	10,196.8	78.3143	10,196.8	79.1828	10,196.8	75.2915	10,196.8	77.1668	10,196.8	73.8598	10,196.8	74.4918	10,196.8	70.8251	10,196.8	71.518	10,196.8	68.3485	10,196.8	69.5157	10,196.8	67.4366	10,196.8	67.4398	10,196.8	64.5527	10,196.8	65.2791	10,196.8	62.4778	10,196.8	59.2131	10,196.8	56.9514	10,196.8	60.9092	10,196.8	63.6126	10,196.8	65.2859	10,196.8	58.5161	10,196.8	63.8535	10,196.8	57.1382	10,196.8	63.7849	10,196.8	49.5081
10,555.7	85.8216	10,555.7	85.35	10,555.7	85.5358	10,555.7	84.7069	10,555.7	85.0906	10,555.7	83.8607	10,555.7	84.0302	10,555.7	82.4121	10,555.7	82.9966	10,555.7	81.2129	10,555.7	81.8464	10,555.7	79.1762	10,555.7	80.2477	10,555.7	76.7474	10,555.7	77.5711	10,555.7	72.9423	10,555.7	74.6397	10,555.7	69.8207	10,555.7	71.4516	10,555.7	69.1658	10,555.7	68.0376	10,555.7	67.5548	10,555.7	66.5476	10,555.7	63.3844	10,555.7	63.319	10,555.7	63.7919	10,555.7	62.6479	10,555.7	61.5803	10,555.7	61.2647	10,555.7	60.6365	10,555.7	64.4922	10,555.7	60.2182	10,555.7	62.5425	10,555.7	53.1076	10,555.7	61.9598	10,555.7	52.7805
10,927.7	85.6731	10,927.7	85.2226	10,927.7	85.3823	10,927.7	84.6784	10,927.7	84.8814	10,927.7	84.2904	10,927.7	84.0944	10,927.7	83.1422	10,927.7	83.2664	10,927.7	81.1356	10,927.7	82.0416	10,927.7	78.8759	10,927.7	79.9158	10,927.7	76.6492	10,927.7	76.996	10,927.7	72.2439	10,927.7	74.4312	10,927.7	69.8264	10,927.7	72.1787	10,927.7	68.0057	10,927.7	68.9321	10,927.7	65.0445	10,927.7	66.9733	10,927.7	62.6276	10,927.7	65.3707	10,927.7	64.0229	10,927.7	63.132	10,927.7	63.3498	10,927.7	63.6272	10,927.7	62.1421	10,927.7	65.4289	10,927.7	61.4093	10,927.7	62.8559	10,927.7	53.4019	10,927.7	62.2068	10,927.7	47.602
11,313	85.6298	11,313	85.0125	11,313	85.5035	11,313	84.6183	11,313	85.2761	11,313	84.0627	11,313	84.3538	11,313	83.1859	11,313	83.4632	11,313	81.2855	11,313	82.1973	11,313	78.8753	11,313	79.6388	11,313	76.095	11,313	76.7608	11,313	72.703	11,313	75.2126	11,313	69.7984	11,313	71.5998	11,313	68.4752	11,313	68.7647	11,313	64.5649	11,313	66.6824	11,313	62.8308	11,313	66.0776	11,313	61.4559	11,313	62.5633	11,313	62.5291	11,313	63.4829	11,313	62.2692	11,313	63.3803	11,313	62.3287	11,313	62.2419	11,313	57.2686	11,313	60.9621	11,313	50.9133
11,712.9	85.0092	11,712.9	85.0441	11,712.9	85.1234	11,712.9	84.5461	11,712.9	84.9338	11,712.9	84.076	11,712.9	84.108	11,712.9	82.6584	11,712.9	83.1733	11,712.9	80.8553	11,712.9	81.707	11,712.9	78.4778	11,712.9	79.2981	11,712.9	75.7012	11,712.9	77.092	11,712.9	73.691	11,712.9	74.0641	11,712.9	69.9179	11,712.9	70.6524	11,712.9	67.0455	11,712.9	68.7988	11,712.9	63.2838	11,712.9	65.3224	11,712.9	63.6214	11,712.9	62.8796	11,712.9	62.8605	11,712.9	63.7198	11,712.9	60.321	11,712.9	62.874	11,712.9	62.2348	11,712.9	59.6364	11,712.9	61.8744	11,712.9	60.0115	11,712.9	52.0088	11,712.9	58.4078	11,712.9	36.8645
12,126	85.1998	12,126	84.854	12,126	85.0848	12,126	84.4145	12,126	84.7484	12,126	83.6586	12,126	83.7605	12,126	82.243	12,126	83.0083	12,126	80.9946	12,126	81.7113	12,126	78.2941	12,126	79.1311	12,126	75.2491	12,126	76.8422	12,126	71.8308	12,126	73.4083	12,126	68.7176	12,126	70.1688	12,126	65.3509	12,126	67.7971	12,126	62.9639	12,126	64.4548	12,126	63.0496	12,126	62.4442	12,126	62.5224	12,126	62.3449	12,126	57.2049	12,126	60.9741	12,126	59.8313	12,126	60.5527	12,126	60.9765	12,126	59.8744	12,126	52.7565	12,126	59.3132	12,126	52.4984
12,553.7	85.0841	12,553.7	84.7488	12,553.7	85.1065	12,553.7	84.5441	12,553.7	84.756	12,553.7	84.1663	12,553.7	83.9808	12,553.7	82.6003	12,553.7	83.2976	12,553.7	80.7437	12,553.7	81.7235	12,553.7	77.8514	12,553.7	79.2102	12,553.7	75.2755	12,553.7	76.0596	12,553.7	70.7607	12,553.7	72.8288	12,553.7	68.9962	12,553.7	69.7944	12,553.7	66.8278	12,553.7	67.3114	12,553.7	60.9553	12,553.7	63.5285	12,553.7	62.3864	12,553.7	59.9922	12,553.7	61.4991	12,553.7	62.3343	12,553.7	56.9938	12,553.7	57.3396	12,553.7	57.7834	12,553.7	60.3193	12,553.7	56.6765	12,553.7	59.8759	12,553.7	57.4328	12,553.7	59.4081	12,553.7	55.1266
12,996.1	85.5789	12,996.1	85.1052	12,996.1	85.123	12,996.1	84.8829	12,996.1	84.9585	12,996.1	84.4067	12,996.1	84.2974	12,996.1	82.9264	12,996.1	83.3521	12,996.1	80.8829	12,996.1	82.0842	12,996.1	78.0427	12,996.1	79.1352	12,996.1	74.8517	12,996.1	75.85	12,996.1	70.1595	12,996.1	73.0147	12,996.1	68.8403	12,996.1	70.0774	12,996.1	65.4551	12,996.1	66.9758	12,996.1	61.0715	12,996.1	64.5255	12,996.1	61.8371	12,996.1	60.9737	12,996.1	60.9918	12,996.1	62.8972	12,996.1	58.7523	12,996.1	55.7418	12,996.1	58.6903	12,996.1	60.3767	12,996.1	59.8838	12,996.1	61.7572	12,996.1	57.5821	12,996.1	59.2979	12,996.1	53.586
13,454.6	85.5424	13,454.6	85.3855	13,454.6	85.3309	13,454.6	84.7544	13,454.6	85.0686	13,454.6	84.2127	13,454.6	84.2303	13,454.6	83.1565	13,454.6	83.574	13,454.6	80.8954	13,454.6	81.7918	13,454.6	77.8358	13,454.6	78.8144	13,454.6	74.504	13,454.6	75.8233	13,454.6	70.9854	13,454.6	72.8419	13,454.6	68.3001	13,454.6	68.9945	13,454.6	65.4023	13,454.6	66.3768	13,454.6	59.9947	13,454.6	63.9039	13,454.6	62.6588	13,454.6	58.8036	13,454.6	58.3708	13,454.6	62.7022	13,454.6	60.3676	13,454.6	57.5416	13,454.6	58.9651	13,454.6	58.3964	13,454.6	58.9484	13,454.6	60.9502	13,454.6	56.7758	13,454.6	56.7803	13,454.6	55.0672
13,929.2	85.3998	13,929.2	85.238	13,929.2	85.5095	13,929.2	84.9522	13,929.2	85.3402	13,929.2	84.2501	13,929.2	84.2528	13,929.2	82.8111	13,929.2	83.4004	13,929.2	80.4803	13,929.2	81.3939	13,929.2	77.1116	13,929.2	78.2058	13,929.2	74.0378	13,929.2	75.1143	13,929.2	71.1912	13,929.2	71.5426	13,929.2	67.5999	13,929.2	69.3305	13,929.2	64.79	13,929.2	66.069	13,929.2	61.2951	13,929.2	62.1071	13,929.2	61.8293	13,929.2	59.5783	13,929.2	57.9107	13,929.2	62.1507	13,929.2	57.473	13,929.2	59.1648	13,929.2	55.5351	13,929.2	57.2	13,929.2	56.1669	13,929.2	59.1716	13,929.2	55.1896	13,929.2	55.2726	13,929.2	53.3198
14,419.9	85.4457	14,419.9	85.2615	14,419.9	85.4383	14,419.9	84.9811	14,419.9	85.1689	14,419.9	84.2444	14,419.9	84.1905	14,419.9	82.2683	14,419.9	83.0888	14,419.9	80.1262	14,419.9	81.196	14,419.9	76.807	14,419.9	78.2618	14,419.9	73.0725	14,419.9	74.9745	14,419.9	69.0588	14,419.9	70.8204	14,419.9	66.7848	14,419.9	68.5359	14,419.9	64.0493	14,419.9	64.9481	14,419.9	59.8455	14,419.9	62.5166	14,419.9	61.0053	14,419.9	60.9253	14,419.9	53.7932	14,419.9	61.1466	14,419.9	57.1952	14,419.9	58.0813	14,419.9	57.1941	14,419.9	54.3872	14,419.9	50.4255	14,419.9	58.6411	14,419.9	52.1977	14,419.9	52.6318	14,419.9	50.1054
14,928.2	85.551	14,928.2	85.2356	14,928.2	85.346	14,928.2	84.8151	14,928.2	85.0849	14,928.2	84.0766	14,928.2	84.0226	14,928.2	81.977	14,928.2	82.7089	14,928.2	79.2271	14,928.2	80.656	14,928.2	75.8368	14,928.2	77.5944	14,928.2	71.9851	14,928.2	73.6727	14,928.2	67.8476	14,928.2	69.9451	14,928.2	65.0561	14,928.2	67.2675	14,928.2	62.2546	14,928.2	62.7522	14,928.2	59.7195	14,928.2	62.6767	14,928.2	58.4391	14,928.2	59.5989	14,928.2	54.3739	14,928.2	59.3333	14,928.2	52.6825	14,928.2	56.3245	14,928.2	55.6949	14,928.2	52.2509	14,928.2	50.3983	14,928.2	57.8255	14,928.2	46.447	14,928.2	52.0883	14,928.2	44.7069
15,455.6	85.5066	15,455.6	85.075	15,455.6	85.3009	15,455.6	84.653	15,455.6	85.0305	15,455.6	83.8819	15,455.6	83.8748	15,455.6	81.8058	15,455.6	82.5416	15,455.6	79.0284	15,455.6	80.3064	15,455.6	75.2428	15,455.6	76.8722	15,455.6	71.4584	15,455.6	73.2613	15,455.6	67.9332	15,455.6	69.3707	15,455.6	65.293	15,455.6	66.5673	15,455.6	62.4718	15,455.6	63.2138	15,455.6	59.3819	15,455.6	61.3215	15,455.6	57.1887	15,455.6	59.6021	15,455.6	56.3858	15,455.6	58.2278	15,455.6	50.6463	15,455.6	55.6259	15,455.6	55.3313	15,455.6	54.5273	15,455.6	52.9539	15,455.6	55.5778	15,455.6	49.1674	15,455.6	50.1881	15,455.6	45.5122
16,000.5	85.378	16,000.5	85.0489	16,000.5	85.1702	16,000.5	84.6361	16,000.5	85.0183	16,000.5	83.6446	16,000.5	83.9	16,000.5	81.821	16,000.5	82.704	16,000.5	78.8618	16,000.5	80.4687	16,000.5	75.2749	16,000.5	76.641	16,000.5	70.9156	16,000.5	73.1433	16,000.5	68.5414	16,000.5	69.3862	16,000.5	65.4478	16,000.5	67.2825	16,000.5	63.2563	16,000.5	63.8385	16,000.5	59.907	16,000.5	61.5572	16,000.5	57.311	16,000.5	60.3357	16,000.5	53.1337	16,000.5	58.634	16,000.5	50.3267	16,000.5	56.3917	16,000.5	54.824	16,000.5	55.6451	16,000.5	52.5892	16,000.5	57.2996	16,000.5	48.4048	16,000.5	53.4639	16,000.5	50.7176
16,564.5	84.9018	16,564.5	84.6618	16,564.5	84.8656	16,564.5	84.6726	16,564.5	84.9325	16,564.5	83.8834	16,564.5	84.1009	16,564.5	81.6832	16,564.5	82.8499	16,564.5	78.6964	16,564.5	80.4274	16,564.5	75.0618	16,564.5	76.9503	16,564.5	71.6725	16,564.5	73.5963	16,564.5	68.7269	16,564.5	69.6565	16,564.5	65.6318	16,564.5	67.8461	16,564.5	64.0945	16,564.5	63.7735	16,564.5	59.8331	16,564.5	61.2876	16,564.5	56.2663	16,564.5	60.7617	16,564.5	51.263	16,564.5	59.0252	16,564.5	44.7692	16,564.5	56.7461	16,564.5	52.8865	16,564.5	55.4872	16,564.5	55.2193	16,564.5	56.2203	16,564.5	42.541	16,564.5	52.3524	16,564.5	44.7401
17,148.9	84.6249	17,148.9	84.5054	17,148.9	84.6675	17,148.9	84.907	17,148.9	85.0256	17,148.9	84.2014	17,148.9	84.3181	17,148.9	82.0525	17,148.9	83.0803	17,148.9	78.8379	17,148.9	80.8494	17,148.9	75.364	17,148.9	77.4225	17,148.9	71.9116	17,148.9	74.0129	17,148.9	69.0461	17,148.9	70.2806	17,148.9	66.4515	17,148.9	67.8592	17,148.9	63.6055	17,148.9	64.2271	17,148.9	61.179	17,148.9	62.3042	17,148.9	53.8707	17,148.9	59.5084	17,148.9	52.9066	17,148.9	59.4468	17,148.9	52.2853	17,148.9	56.3536	17,148.9	54.3971	17,148.9	57.1937	17,148.9	56.6751	17,148.9	55.01	17,148.9	46.6919	17,148.9	53.2913	17,148.9	42.209
17,752.4	84.5535	17,752.4	84.5225	17,752.4	84.5188	17,752.4	85.196	17,752.4	85.2868	17,752.4	84.5525	17,752.4	84.9072	17,752.4	82.5729	17,752.4	83.6455	17,752.4	78.9242	17,752.4	81.0901	17,752.4	76.0084	17,752.4	77.7588	17,752.4	72.5556	17,752.4	74.7587	17,752.4	69.5882	17,752.4	71.4457	17,752.4	67.0091	17,752.4	68.7858	17,752.4	64.8896	17,752.4	65.2867	17,752.4	60.9779	17,752.4	63.476	17,752.4	57.8591	17,752.4	61.2697	17,752.4	53.7915	17,752.4	59.0721	17,752.4	54.9134	17,752.4	56.811	17,752.4	46.1206	17,752.4	60.8118	17,752.4	57.0435	17,752.4	54.8472	17,752.4	49.0903	17,752.4	57.0618	17,752.4	45.5595
18,379.4	85.1488	18,379.4	85.373	18,379.4	85.2951	18,379.4	86.1935	18,379.4	86.0773	18,379.4	85.5461	18,379.4	85.9787	18,379.4	83.6465	18,379.4	84.7674	18,379.4	80.4097	18,379.4	82.1589	18,379.4	77.8882	18,379.4	79.2745	18,379.4	73.8962	18,379.4	76.1068	18,379.4	70.8912	18,379.4	73.1001	18,379.4	68.6457	18,379.4	70.2533	18,379.4	66.1487	18,379.4	65.9327	18,379.4	63.0404	18,379.4	65.0697	18,379.4	59.6747	18,379.4	62.5391	18,379.4	56.8974	18,379.4	60.2811	18,379.4	58.3367	18,379.4	59.0566	18,379.4	41.4105	18,379.4	60.9731	18,379.4	60.5453	18,379.4	57.5646	18,379.4	51.1282	18,379.4	57.8718	18,379.4	46.1651
19,026.9	85.9236	19,026.9	86.2817	19,026.9	86.4435	19,026.9	87.1133	19,026.9	87.1168	19,026.9	86.5779	19,026.9	86.689	19,026.9	84.3105	19,026.9	85.3184	19,026.9	81.7516	19,026.9	83.2968	19,026.9	79.0383	19,026.9	80.089	19,026.9	75.4959	19,026.9	77.1483	19,026.9	71.7371	19,026.9	73.8614	19,026.9	70.0729	19,026.9	71.8272	19,026.9	65.6609	19,026.9	67.2572	19,026.9	63.7414	19,026.9	65.1348	19,026.9	58.4516	19,026.9	63.9809	19,026.9	56.3212	19,026.9	60.315	19,026.9	58.3926	19,026.9	58.5681	19,026.9	48.1639	19,026.9	61.3061	19,026.9	60.3352	19,026.9	57.3377	19,026.9	55.8311	19,026.9	57.5172	19,026.9	48.2356
19,697.8	85.992	19,697.8	86.2566	19,697.8	86.4862	19,697.8	87.0082	19,697.8	87.2162	19,697.8	86.3595	19,697.8	86.4796	19,697.8	84.017	19,697.8	85.0101	19,697.8	81.3081	19,697.8	82.8647	19,697.8	78.9498	19,697.8	79.445	19,697.8	75.0253	19,697.8	76.723	19,697.8	71.0908	19,697.8	73.3763	19,697.8	69.9937	19,697.8	71.8576	19,697.8	66.1587	19,697.8	67.3574	19,697.8	62.4525	19,697.8	63.9797	19,697.8	56.9777	19,697.8	63.9261	19,697.8	58.4186	19,697.8	58.9026	19,697.8	56.9573	19,697.8	56.6883	19,697.8	54.1219	19,697.8	59.8094	19,697.8	59.0819	19,697.8	54.2149	19,697.8	58.9659	19,697.8	54.3094	19,697.8	54.8184
19,999.5	85.3025	19,999.5	85.5327	19,999.5	85.5423	19,999.5	86.0622	19,999.5	86.213	19,999.5	85.1419	19,999.5	85.3255	19,999.5	82.6841	19,999.5	83.7471	19,999.5	80.5938	19,999.5	81.4755	19,999.5	78.6951	19,999.5	78.7351	19,999.5	75.3279	19,999.5	76.2708	19,999.5	70.5324	19,999.5	72.1585	19,999.5	67.7669	19,999.5	71.5319	19,999.5	63.1435	19,999.5	69.1354	19,999.5	60.2096	19,999.5	60.6025	19,999.5	60.3808	19,999.5	63.2597	19,999.5	51.1449	19,999.5	62.3213	19,999.5	52.2502	19,999.5	54.4848	19,999.5	60.2629	19,999.5	67.707	19,999.5	60.8922	19,999.5	50.501	19,999.5	59.7901	19,999.5	61.8511	19,999.5	56.018
