"SPL Horizontal"
"On-Axis"		"10°"		"-10°"		"20°"		"-20°"		"30°"		"-30°"		"40°"		"-40°"		"50°"		"-50°"		"60°"		"-60°"		"70°"		"-70°"		"80°"		"-80°"		"90°"		"-90°"		"100°"		"-100°"		"110°"		"-110°"		"120°"		"-120°"		"130°"		"-130°"		"140°"		"-140°"		"150°"		"-150°"		"160°"		"-160°"		"170°"		"-170°"		"180°"
"Frequency / Hz"	"Sound Pressure Level / dB (re 20 µPa/V)  [2.83V at 1m]"	"Frequency / Hz"	"Sound Pressure Level / dB (re 20 µPa/V)  [2.83V at 1m]"	"Frequency / Hz"	"Sound Pressure Level / dB (re 20 µPa/V)  [2.83V at 1m]"	"Frequency / Hz"	"Sound Pressure Level / dB (re 20 µPa/V)  [2.83V at 1m]"	"Frequency / Hz"	"Sound Pressure Level / dB (re 20 µPa/V)  [2.83V at 1m]"	"Frequency / Hz"	"Sound Pressure Level / dB (re 20 µPa/V)  [2.83V at 1m]"	"Frequency / Hz"	"Sound Pressure Level / dB (re 20 µPa/V)  [2.83V at 1m]"	"Frequency / Hz"	"Sound Pressure Level / dB (re 20 µPa/V)  [2.83V at 1m]"	"Frequency / Hz"	"Sound Pressure Level / dB (re 20 µPa/V)  [2.83V at 1m]"	"Frequency / Hz"	"Sound Pressure Level / dB (re 20 µPa/V)  [2.83V at 1m]"	"Frequency / Hz"	"Sound Pressure Level / dB (re 20 µPa/V)  [2.83V at 1m]"	"Frequency / Hz"	"Sound Pressure Level / dB (re 20 µPa/V)  [2.83V at 1m]"	"Frequency / Hz"	"Sound Pressure Level / dB (re 20 µPa/V)  [2.83V at 1m]"	"Frequency / Hz"	"Sound Pressure Level / dB (re 20 µPa/V)  [2.83V at 1m]"	"Frequency / Hz"	"Sound Pressure Level / dB (re 20 µPa/V)  [2.83V at 1m]"	"Frequency / Hz"	"Sound Pressure Level / dB (re 20 µPa/V)  [2.83V at 1m]"	"Frequency / Hz"	"Sound Pressure Level / dB (re 20 µPa/V)  [2.83V at 1m]"	"Frequency / Hz"	"Sound Pressure Level / dB (re 20 µPa/V)  [2.83V at 1m]"	"Frequency / Hz"	"Sound Pressure Level / dB (re 20 µPa/V)  [2.83V at 1m]"	"Frequency / Hz"	"Sound Pressure Level / dB (re 20 µPa/V)  [2.83V at 1m]"	"Frequency / Hz"	"Sound Pressure Level / dB (re 20 µPa/V)  [2.83V at 1m]"	"Frequency / Hz"	"Sound Pressure Level / dB (re 20 µPa/V)  [2.83V at 1m]"	"Frequency / Hz"	"Sound Pressure Level / dB (re 20 µPa/V)  [2.83V at 1m]"	"Frequency / Hz"	"Sound Pressure Level / dB (re 20 µPa/V)  [2.83V at 1m]"	"Frequency / Hz"	"Sound Pressure Level / dB (re 20 µPa/V)  [2.83V at 1m]"	"Frequency / Hz"	"Sound Pressure Level / dB (re 20 µPa/V)  [2.83V at 1m]"	"Frequency / Hz"	"Sound Pressure Level / dB (re 20 µPa/V)  [2.83V at 1m]"	"Frequency / Hz"	"Sound Pressure Level / dB (re 20 µPa/V)  [2.83V at 1m]"	"Frequency / Hz"	"Sound Pressure Level / dB (re 20 µPa/V)  [2.83V at 1m]"	"Frequency / Hz"	"Sound Pressure Level / dB (re 20 µPa/V)  [2.83V at 1m]"	"Frequency / Hz"	"Sound Pressure Level / dB (re 20 µPa/V)  [2.83V at 1m]"	"Frequency / Hz"	"Sound Pressure Level / dB (re 20 µPa/V)  [2.83V at 1m]"	"Frequency / Hz"	"Sound Pressure Level / dB (re 20 µPa/V)  [2.83V at 1m]"	"Frequency / Hz"	"Sound Pressure Level / dB (re 20 µPa/V)  [2.83V at 1m]"	"Frequency / Hz"	"Sound Pressure Level / dB (re 20 µPa/V)  [2.83V at 1m]"	"Frequency / Hz"	"Sound Pressure Level / dB (re 20 µPa/V)  [2.83V at 1m]"
20.5078	44.387	20.5078	44.3695	20.5078	44.5869	20.5078	44.5368	20.5078	44.9622	20.5078	44.8859	20.5078	45.4984	20.5078	45.4055	20.5078	46.1718	20.5078	46.0735	20.5078	46.9501	20.5078	46.8571	20.5078	47.7964	20.5078	47.7176	20.5078	48.6741	20.5078	48.6157	20.5078	49.5506	20.5078	49.5157	20.5078	50.399	20.5078	50.388	20.5078	51.1979	20.5078	51.2089	20.5078	51.9307	20.5078	51.9597	20.5078	52.5844	20.5078	52.6257	20.5078	53.1483	20.5078	53.1953	20.5078	53.6135	20.5078	53.6592	20.5078	53.9724	20.5078	54.0105	20.5078	54.2188	20.5078	54.2439	20.5078	54.3479	20.5078	54.3567
21.9727	45.8466	21.9727	45.7882	21.9727	45.8958	21.9727	45.7289	21.9727	45.9491	21.9727	45.6994	21.9727	46.0384	21.9727	45.7506	21.9727	46.2094	21.9727	45.9435	21.9727	46.5087	21.9727	46.3278	21.9727	46.9681	21.9727	46.9183	21.9727	47.5889	21.9727	47.6852	21.9727	48.341	21.9727	48.5671	21.9727	49.1735	21.9727	49.4945	21.9727	50.0315	21.9727	50.4072	21.9727	50.8668	21.9727	51.2599	21.9727	51.6418	21.9727	52.0212	21.9727	52.329	21.9727	52.6701	21.9727	52.9087	21.9727	53.1924	21.9727	53.3666	21.9727	53.5791	21.9727	53.6928	21.9727	53.8241	21.9727	53.8803	21.9727	53.9247
23.4375	46.4963	23.4375	46.448	23.4375	46.4913	23.4375	46.3538	23.4375	46.4503	23.4375	46.2471	23.4375	46.415	23.4375	46.1891	23.4375	46.4497	23.4375	46.2637	23.4375	46.631	23.4375	46.5533	23.4375	47.0213	23.4375	47.1011	23.4375	47.6386	23.4375	47.8838	23.4375	48.4456	23.4375	48.8249	23.4375	49.369	23.4375	49.8324	23.4375	50.3301	23.4375	50.8276	23.4375	51.2639	23.4375	51.7551	23.4375	52.1244	23.4375	52.5792	23.4375	52.8812	23.4375	53.2779	23.4375	53.5146	23.4375	53.8376	23.4375	54.012	23.4375	54.2501	23.4375	54.3647	23.4375	54.5106	23.4375	54.5674	23.4375	54.6165
24.9023	46.6879	24.9023	46.5882	24.9023	46.6455	24.9023	46.3511	24.9023	46.4769	24.9023	46.0074	24.9023	46.2235	24.9023	45.6285	24.9023	45.9648	24.9023	45.3464	24.9023	45.8262	24.9023	45.3452	24.9023	45.9587	24.9023	45.779	24.9023	46.4651	24.9023	46.6533	24.9023	47.3263	24.9023	47.8191	24.9023	48.4163	24.9023	49.0897	24.9023	49.5871	24.9023	50.3276	24.9023	50.7265	24.9023	51.455	24.9023	51.7667	24.9023	52.4335	24.9023	52.6715	24.9023	53.2459	24.9023	53.422	24.9023	53.8847	24.9023	54.0085	24.9023	54.347	24.9023	54.4256	24.9023	54.6318	24.9023	54.6699	24.9023	54.7391
26.3672	48.1244	26.3672	48.0384	26.3672	48.0704	26.3672	47.8239	26.3672	47.8851	26.3672	47.5185	26.3672	47.6015	26.3672	47.1998	26.3672	47.2891	26.3672	46.9981	26.3672	47.0674	26.3672	47.0792	26.3672	47.0962	26.3672	47.5636	26.3672	47.5075	26.3672	48.4363	26.3672	48.3124	26.3672	49.5587	26.3672	49.3914	26.3672	50.7671	26.3672	50.5826	26.3672	51.9403	26.3672	51.758	26.3672	53.0075	26.3672	52.8394	26.3672	53.9322	26.3672	53.7854	26.3672	54.6965	26.3672	54.5753	26.3672	55.292	26.3672	55.1991	26.3672	55.7147	26.3672	55.6519	26.3672	55.9625	26.3672	55.9308	26.3672	56.0346
27.832	49.4942	27.832	49.4386	27.832	49.3771	27.832	49.2177	27.832	49.0927	27.832	48.856	27.832	48.6644	27.832	48.4096	27.832	48.152	27.832	47.9912	27.832	47.6806	27.832	47.7844	27.832	47.4577	27.832	47.9923	27.832	47.706	27.832	48.6978	27.832	48.4943	27.832	49.7868	27.832	49.6686	27.832	51.0503	27.832	50.9947	27.832	52.3146	27.832	52.2967	27.832	53.4777	27.832	53.4794	27.832	54.4896	27.832	54.4998	27.832	55.3281	27.832	55.3405	27.832	55.9844	27.832	55.9954	27.832	56.4549	27.832	56.4629	27.832	56.7383	27.832	56.7425	27.832	56.8343
29.2969	49.6221	29.2969	49.5098	29.2969	49.5543	29.2969	49.228	29.2969	49.3148	29.2969	48.8138	29.2969	48.9372	29.2969	48.3531	29.2969	48.5007	29.2969	48.0094	29.2969	48.16	29.2969	48.015	29.2969	48.1422	29.2969	48.5491	29.2969	48.6376	29.2969	49.5788	29.2969	49.6355	29.2969	50.8931	29.2969	50.9353	29.2969	52.2746	29.2969	52.3151	29.2969	53.5858	29.2969	53.6297	29.2969	54.7589	29.2969	54.8059	29.2969	55.7652	29.2969	55.8125	29.2969	56.5938	29.2969	56.6376	29.2969	57.2412	29.2969	57.2778	29.2969	57.7062	29.2969	57.7325	29.2969	57.9884	29.2969	58.0021	29.2969	58.0872
30.7617	50.7484	30.7617	50.7249	30.7617	50.6478	30.7617	50.5919	30.7617	50.435	30.7617	50.3937	30.7617	50.1542	30.7617	50.2134	30.7617	49.8961	30.7617	50.1755	30.7617	49.8037	30.7617	50.4169	30.7617	50.0373	30.7617	51.0149	30.7617	50.681	30.7617	51.9321	30.7617	51.6761	30.7617	53.0447	30.7617	52.8686	30.7617	54.2178	30.7617	54.1063	30.7617	55.3514	30.7617	55.2858	30.7617	56.3851	30.7617	56.3494	30.7617	57.2854	30.7617	57.2681	30.7617	58.0349	30.7617	58.0281	30.7617	58.6243	30.7617	58.6227	30.7617	59.0484	30.7617	59.0489	30.7617	59.3042	30.7617	59.3048	30.7617	59.3899
32.2266	55.4001	32.2266	55.3914	32.2266	55.3365	32.2266	55.3142	32.2266	55.2115	32.2266	55.1874	32.2266	55.0524	32.2266	55.0476	32.2266	54.9054	32.2266	54.9512	32.2266	54.8355	32.2266	54.9691	32.2266	54.9161	32.2266	55.1688	32.2266	55.2042	32.2266	55.5863	32.2266	55.7132	32.2266	56.2058	32.2266	56.4042	32.2266	56.9668	32.2266	57.2048	32.2266	57.7915	32.2266	58.0381	32.2266	58.6083	32.2266	58.8407	32.2266	59.3634	32.2266	59.5669	32.2266	60.0196	32.2266	60.1862	32.2266	60.553	32.2266	60.6791	32.2266	60.9486	32.2266	61.0328	32.2266	61.1975	32.2266	61.2396	32.2266	61.295
33.6914	56.843	33.6914	56.754	33.6914	56.8036	33.6914	56.5375	33.6914	56.6434	33.6914	56.2044	33.6914	56.3805	33.6914	55.7827	33.6914	56.0501	33.6914	55.3296	33.6914	55.7143	33.6914	54.9457	33.6914	55.4682	33.6914	54.773	33.6914	55.428	33.6914	54.9458	33.6914	55.6861	33.6914	55.5043	33.6914	56.2536	33.6914	56.3608	33.6914	57.0511	33.6914	57.3633	33.6914	57.9579	33.6914	58.376	33.6914	58.8655	33.6914	59.3093	33.6914	59.6982	33.6914	60.1124	33.6914	60.4097	33.6914	60.7588	33.6914	60.9736	33.6914	61.2356	33.6914	61.3749	33.6914	61.5367	33.6914	61.6052	33.6914	61.6599
35.1562	56.0689	35.1562	55.9252	35.1562	56.0445	35.1562	55.6156	35.1562	55.8562	35.1562	55.154	35.1562	55.517	35.1562	54.5785	35.1562	55.057	35.1562	53.9772	35.1562	54.5402	35.1562	53.5171	35.1562	54.0878	35.1562	53.4289	35.1562	53.8817	35.1562	53.8762	35.1562	54.0986	35.1562	54.8052	35.1562	54.7805	35.1562	55.9967	35.1562	55.7958	35.1562	57.2368	35.1562	56.9479	35.1562	58.3929	35.1562	58.0822	35.1562	59.3996	35.1562	59.1078	35.1562	60.229	35.1562	59.9793	35.1562	60.8701	35.1562	60.6754	35.1562	61.3192	35.1562	61.1865	35.1562	61.5752	35.1562	61.508	35.1562	61.638
36.6211	56.9243	36.6211	56.9132	36.6211	56.8913	36.6211	56.8714	36.6211	56.8225	36.6211	56.8333	36.6211	56.7483	36.6211	56.8535	36.6211	56.7217	36.6211	56.9973	36.6211	56.8117	36.6211	57.3218	36.6211	57.0847	36.6211	57.8504	36.6211	57.5761	36.6211	58.5602	36.6211	58.2703	36.6211	59.3923	36.6211	59.1083	36.6211	60.2767	36.6211	60.014	36.6211	61.1507	36.6211	60.9182	36.6211	61.9669	36.6211	61.7685	36.6211	62.6923	36.6211	62.5289	36.6211	63.305	36.6211	63.1761	36.6211	63.7904	36.6211	63.6949	36.6211	64.1388	36.6211	64.0757	36.6211	64.344	36.6211	64.3126	36.6211	64.4023
38.0859	60.2403	38.0859	60.213	38.0859	60.2039	38.0859	60.1286	38.0859	60.1091	38.0859	60.0057	38.0859	59.9734	38.0859	59.8771	38.0859	59.8287	38.0859	59.7902	38.0859	59.7222	38.0859	59.8023	38.0859	59.7128	38.0859	59.967	38.0859	59.8573	38.0859	60.3142	38.0859	60.1894	38.0859	60.8345	38.0859	60.7028	38.0859	61.4829	38.0859	61.3529	38.0859	62.1962	38.0859	62.0747	38.0859	62.9121	38.0859	62.804	38.0859	63.58	38.0859	63.4879	38.0859	64.1629	38.0859	64.0882	38.0859	64.6351	38.0859	64.5787	38.0859	64.9799	38.0859	64.9421	38.0859	65.1868	38.0859	65.1679	38.0859	65.2501
39.5508	61.7837	39.5508	61.7508	39.5508	61.7544	39.5508	61.6613	39.5508	61.6677	39.5508	61.5314	39.5508	61.5389	39.5508	61.39	39.5508	61.396	39.5508	61.2795	39.5508	61.28	39.5508	61.2526	39.5508	61.2432	39.5508	61.3614	39.5508	61.3385	39.5508	61.6401	39.5508	61.6019	39.5508	62.0884	39.5508	62.0365	39.5508	62.6709	39.5508	62.6094	39.5508	63.3301	39.5508	63.2644	39.5508	64.0052	39.5508	63.9406	39.5508	64.6441	39.5508	64.5848	39.5508	65.2074	39.5508	65.1565	39.5508	65.6671	39.5508	65.6271	39.5508	66.0047	39.5508	65.9772	39.5508	66.2086	39.5508	66.1947	39.5508	66.2726
41.0156	63.2182	41.0156	63.1799	41.0156	63.1933	41.0156	63.0839	41.0156	63.1092	41.0156	62.9455	41.0156	62.9797	41.0156	62.7922	41.0156	62.8299	41.0156	62.664	41.0156	62.6978	41.0156	62.6118	41.0156	62.6325	41.0156	62.6873	41.0156	62.6862	41.0156	62.9266	41.0156	62.8983	41.0156	63.3342	41.0156	63.279	41.0156	63.8789	41.0156	63.8029	41.0156	64.5064	41.0156	64.4186	41.0156	65.1566	41.0156	65.0662	41.0156	65.7766	41.0156	65.6915	41.0156	66.3256	41.0156	66.2518	41.0156	66.7747	41.0156	66.7163	41.0156	67.1044	41.0156	67.0641	41.0156	67.3024	41.0156	67.2819	41.0156	67.3622
42.4805	64.4545	42.4805	64.4221	42.4805	64.4302	42.4805	64.3384	42.4805	64.3525	42.4805	64.2186	42.4805	64.2344	42.4805	64.0889	42.4805	64.0992	42.4805	63.9866	42.4805	63.9823	42.4805	63.9576	42.4805	63.9288	42.4805	64.0478	42.4805	63.9862	42.4805	64.2881	42.4805	64.1909	42.4805	64.6815	42.4805	64.5531	42.4805	65.2002	42.4805	65.0511	42.4805	65.7955	42.4805	65.6385	42.4805	66.4124	42.4805	66.26	42.4805	67.0018	42.4805	66.8636	42.4805	67.5244	42.4805	67.4076	42.4805	67.9521	42.4805	67.8612	42.4805	68.2651	42.4805	68.2031	42.4805	68.4512	42.4805	68.4198	42.4805	68.5034
43.9453	65.9936	43.9453	65.9727	43.9453	65.967	43.9453	65.9094	43.9453	65.8961	43.9453	65.8171	43.9453	65.7929	43.9453	65.7188	43.9453	65.6786	43.9453	65.6465	43.9453	65.5845	43.9453	65.6385	43.9453	65.5496	43.9453	65.7326	43.9453	65.6143	43.9453	65.9547	43.9453	65.8091	43.9453	66.3087	43.9453	66.1429	43.9453	66.7737	43.9453	66.5983	43.9453	67.3099	43.9453	67.1364	43.9453	67.8705	43.9453	67.7087	43.9453	68.4108	43.9453	68.2683	43.9453	68.8941	43.9453	68.7758	43.9453	69.292	43.9453	69.2012	43.9453	69.5847	43.9453	69.5234	43.9453	69.759	43.9453	69.7281	43.9453	69.8076
45.4102	67.3162	45.4102	67.2953	45.4102	67.2977	45.4102	67.2397	45.4102	67.2427	45.4102	67.1621	45.4102	67.1619	45.4102	67.0832	45.4102	67.0741	45.4102	67.0313	45.4102	67.0067	45.4102	67.04	45.4102	66.9928	45.4102	67.1413	45.4102	67.0665	45.4102	67.3568	45.4102	67.2533	45.4102	67.6896	45.4102	67.5615	45.4102	68.1218	45.4102	67.9774	45.4102	68.6192	45.4102	68.4691	45.4102	69.1402	45.4102	68.9948	45.4102	69.6443	45.4102	69.5123	45.4102	70.0968	45.4102	69.9849	45.4102	70.4707	45.4102	70.3834	45.4102	70.7463	45.4102	70.6867	45.4102	70.9105	45.4102	70.8803	45.4102	70.9559
46.875	68.7518	46.875	68.7417	46.875	68.7268	46.875	68.7006	46.875	68.6691	46.875	68.639	46.875	68.5876	46.875	68.5741	46.875	68.4983	46.875	68.5289	46.875	68.424	46.875	68.5305	46.875	68.3931	46.875	68.6058	46.875	68.4354	46.875	68.7743	46.875	68.575	46.875	69.0422	46.875	68.8227	46.875	69.3985	46.875	69.171	46.875	69.8179	46.875	69.5952	46.875	70.2662	46.875	70.0598	46.875	70.7074	46.875	70.5262	46.875	71.1088	46.875	70.9589	46.875	71.4434	46.875	71.3286	46.875	71.6907	46.875	71.6133	46.875	71.8367	46.875	71.7978	46.875	71.8733
48.3398	70.1464	48.3398	70.14	48.3398	70.1158	48.3398	70.0995	48.3398	70.0509	48.3398	70.0329	48.3398	69.9601	48.3398	69.9542	48.3398	69.8577	48.3398	69.8831	48.3398	69.7644	48.3398	69.8437	48.3398	69.7057	48.3398	69.8617	48.3398	69.7094	48.3398	69.9594	48.3398	69.7993	48.3398	70.1486	48.3398	69.9886	48.3398	70.4268	48.3398	70.2745	48.3398	70.7758	48.3398	70.6374	48.3398	71.1665	48.3398	71.0462	48.3398	71.5645	48.3398	71.4643	48.3398	71.9364	48.3398	71.8571	48.3398	72.2535	48.3398	72.1948	48.3398	72.4932	48.3398	72.4545	48.3398	72.6394	48.3398	72.6202	48.3398	72.6828
51.2695	71.6121	51.2695	71.5887	51.2695	71.6034	51.2695	71.5355	51.2695	71.5658	51.2695	71.4606	51.2695	71.5078	51.2695	71.3781	51.2695	71.444	51.2695	71.3081	51.2695	71.3937	51.2695	71.2753	51.2695	71.3804	51.2695	71.306	51.2695	71.428	51.2695	71.422	51.2695	71.5557	51.2695	71.6343	51.2695	71.7725	51.2695	71.9383	51.2695	72.073	51.2695	72.314	51.2695	72.4382	51.2695	72.7303	51.2695	72.8391	51.2695	73.1522	51.2695	73.2427	51.2695	73.5459	51.2695	73.6172	51.2695	73.8828	51.2695	73.9352	51.2695	74.1411	51.2695	74.1753	51.2695	74.3052	51.2695	74.3221	51.2695	74.3665
52.7344	72.8708	52.7344	72.8438	52.7344	72.8756	52.7344	72.7975	52.7344	72.86	52.7344	72.7402	52.7344	72.8307	52.7344	72.685	52.7344	72.7994	52.7344	72.6495	52.7344	72.7817	52.7344	72.6544	52.7344	72.7962	52.7344	72.7198	52.7344	72.8617	52.7344	72.8611	52.7344	72.9933	52.7344	73.0838	52.7344	73.1983	52.7344	73.3814	52.7344	73.4731	52.7344	73.7354	52.7344	73.8028	52.7344	74.1191	52.7344	74.1643	52.7344	74.5029	52.7344	74.5299	52.7344	74.858	52.7344	74.8718	52.7344	75.1597	52.7344	75.1652	52.7344	75.3885	52.7344	75.3898	52.7344	75.5309	52.7344	75.5308	52.7344	75.579
54.1992	73.9783	54.1992	73.9619	54.1992	73.9771	54.1992	73.9308	54.1992	73.9597	54.1992	73.8917	54.1992	73.9316	54.1992	73.8558	54.1992	73.9022	54.1992	73.8372	54.1992	73.8848	54.1992	73.8525	54.1992	73.8948	54.1992	73.9173	54.1992	73.9485	54.1992	74.0439	54.1992	74.059	54.1992	74.237	54.1992	74.2335	54.1992	74.492	54.1992	74.4703	54.1992	74.7948	54.1992	74.758	54.1992	75.1242	54.1992	75.0775	54.1992	75.4552	54.1992	75.4047	54.1992	75.7627	54.1992	75.7144	54.1992	76.0245	54.1992	75.9835	54.1992	76.2222	54.1992	76.1926	54.1992	76.3427	54.1992	76.3272	54.1992	76.3784
55.6641	74.7721	55.6641	74.7598	55.6641	74.768	55.6641	74.7335	55.6641	74.7488	55.6641	74.6989	55.6641	74.7194	55.6641	74.6653	55.6641	74.6882	55.6641	74.6452	55.6641	74.6667	55.6641	74.6526	55.6641	74.6688	55.6641	74.7018	55.6641	74.7087	55.6641	74.8042	55.6641	74.7986	55.6641	74.9654	55.6641	74.946	55.6641	75.1832	55.6641	75.1504	55.6641	75.4466	55.6641	75.403	55.6641	75.7376	55.6641	75.6874	55.6641	76.0339	55.6641	75.9821	55.6641	76.3123	55.6641	76.2639	55.6641	76.5512	55.6641	76.5107	55.6641	76.7327	55.6641	76.7036	55.6641	76.8437	55.6641	76.8285	55.6641	76.8764
58.5938	76.1628	58.5938	76.1568	58.5938	76.1565	58.5938	76.1402	58.5938	76.1388	58.5938	76.1177	58.5938	76.1138	58.5938	76.0967	58.5938	76.0884	58.5938	76.0869	58.5938	76.0718	58.5938	76.0993	58.5938	76.0753	58.5938	76.1454	58.5938	76.1103	58.5938	76.2341	58.5938	76.1872	58.5938	76.3704	58.5938	76.3122	58.5938	76.5532	58.5938	76.4858	58.5938	76.7747	58.5938	76.7016	58.5938	77.0207	58.5938	76.9464	58.5938	77.2731	58.5938	77.2024	58.5938	77.512	58.5938	77.4495	58.5938	77.7183	58.5938	77.6679	58.5938	77.8755	58.5938	77.8402	58.5938	77.9711	58.5938	77.953	58.5938	77.9977
60.0586	76.7951	60.0586	76.7911	60.0586	76.7881	60.0586	76.7776	60.0586	76.7712	60.0586	76.7586	60.0586	76.748	60.0586	76.7406	60.0586	76.7246	60.0586	76.7319	60.0586	76.7095	60.0586	76.7424	60.0586	76.7124	60.0586	76.782	60.0586	76.7438	60.0586	76.8592	60.0586	76.8127	60.0586	76.9789	60.0586	76.925	60.0586	77.141	60.0586	77.0815	60.0586	77.339	60.0586	77.2768	60.0586	77.5611	60.0586	77.4994	60.0586	77.7909	60.0586	77.7333	60.0586	78.0103	60.0586	77.9599	60.0586	78.2011	60.0586	78.1608	60.0586	78.3476	60.0586	78.3195	60.0586	78.4376	60.0586	78.4231	60.0586	78.4635
62.9883	77.7266	62.9883	77.722	62.9883	77.7242	62.9883	77.7117	62.9883	77.7158	62.9883	77.6987	62.9883	77.704	62.9883	77.6883	62.9883	77.6936	62.9883	77.687	62.9883	77.691	62.9883	77.7026	62.9883	77.7038	62.9883	77.7428	62.9883	77.74	62.9883	77.8146	62.9883	77.8064	62.9883	77.9218	62.9883	77.9077	62.9883	78.0647	62.9883	78.0447	62.9883	78.2383	62.9883	78.2134	62.9883	78.433	62.9883	78.4049	62.9883	78.6351	62.9883	78.6061	62.9883	78.8291	62.9883	78.8017	62.9883	78.9988	62.9883	78.9756	62.9883	79.1299	62.9883	79.1132	62.9883	79.2114	62.9883	79.2026	62.9883	79.2364
64.4531	78.2032	64.4531	78.199	64.4531	78.2023	64.4531	78.1909	64.4531	78.197	64.4531	78.1816	64.4531	78.1895	64.4531	78.1756	64.4531	78.1841	64.4531	78.1787	64.4531	78.1862	64.4531	78.1976	64.4531	78.2023	64.4531	78.2391	64.4531	78.2392	64.4531	78.309	64.4531	78.3031	64.4531	78.4106	64.4531	78.3979	64.4531	78.5441	64.4531	78.5245	64.4531	78.7049	64.4531	78.6796	64.4531	78.8845	64.4531	78.8552	64.4531	79.0708	64.4531	79.04	64.4531	79.2493	64.4531	79.22	64.4531	79.4055	64.4531	79.3805	64.4531	79.5261	64.4531	79.5079	64.4531	79.6008	64.4531	79.5912	64.4531	79.6232
67.3828	79.0226	67.3828	79.0232	67.3828	79.0199	67.3828	79.0224	67.3828	79.0156	67.3828	79.0223	67.3828	79.0116	67.3828	79.026	67.3828	79.0109	67.3828	79.0377	67.3828	79.0177	67.3828	79.0623	67.3828	79.037	67.3828	79.1047	67.3828	79.0738	67.3828	79.1691	67.3828	79.1327	67.3828	79.2582	67.3828	79.2168	67.3828	79.3719	67.3828	79.3267	67.3828	79.5072	67.3828	79.4598	67.3828	79.6574	67.3828	79.61	67.3828	79.8129	67.3828	79.7681	67.3828	79.9622	67.3828	79.9225	67.3828	80.093	67.3828	80.0609	67.3828	80.194	67.3828	80.1714	67.3828	80.2561	67.3828	80.2444	67.3828	80.2734
68.8477	79.3887	68.8477	79.3906	68.8477	79.3866	68.8477	79.3927	68.8477	79.3846	68.8477	79.3966	68.8477	79.3843	68.8477	79.4049	68.8477	79.3884	68.8477	79.421	68.8477	79.4002	68.8477	79.4487	68.8477	79.4238	68.8477	79.4922	68.8477	79.4632	68.8477	79.555	68.8477	79.5222	68.8477	79.6391	68.8477	79.6033	68.8477	79.7448	68.8477	79.7068	68.8477	79.8693	68.8477	79.8305	68.8477	80.0069	68.8477	79.9688	68.8477	80.1494	68.8477	80.1138	68.8477	80.2862	68.8477	80.255	68.8477	80.4065	68.8477	80.3813	68.8477	80.4997	68.8477	80.4821	68.8477	80.5574	68.8477	80.5483	68.8477	80.5742
71.7773	80.1799	71.7773	80.1817	71.7773	80.1806	71.7773	80.1861	71.7773	80.184	71.7773	80.1942	71.7773	80.191	71.7773	80.2074	71.7773	80.2031	71.7773	80.2278	71.7773	80.2222	71.7773	80.2578	71.7773	80.2509	71.7773	80.3	71.7773	80.2915	71.7773	80.3566	71.7773	80.3465	71.7773	80.4292	71.7773	80.4173	71.7773	80.5177	71.7773	80.5043	71.7773	80.6204	71.7773	80.6058	71.7773	80.7332	71.7773	80.718	71.7773	80.8499	71.7773	80.8349	71.7773	80.9624	71.7773	80.9486	71.7773	81.0618	71.7773	81.0503	71.7773	81.1395	71.7773	81.1312	71.7773	81.1883	71.7773	81.184	71.7773	81.2037
74.707	80.682	74.707	80.685	74.707	80.6832	74.707	80.6923	74.707	80.6888	74.707	80.7043	74.707	80.6992	74.707	80.7218	74.707	80.7153	74.707	80.7457	74.707	80.738	74.707	80.7774	74.707	80.7687	74.707	80.8183	74.707	80.8088	74.707	80.8698	74.707	80.8595	74.707	80.9329	74.707	80.9219	74.707	81.0075	74.707	80.996	74.707	81.0924	74.707	81.0806	74.707	81.1848	74.707	81.173	74.707	81.28	74.707	81.2685	74.707	81.3717	74.707	81.3613	74.707	81.4529	74.707	81.4443	74.707	81.5166	74.707	81.5104	74.707	81.5568	74.707	81.5536	74.707	81.5696
77.6367	81.1623	77.6367	81.1662	77.6367	81.1644	77.6367	81.1762	77.6367	81.1727	77.6367	81.1922	77.6367	81.1872	77.6367	81.2144	77.6367	81.2079	77.6367	81.2428	77.6367	81.235	77.6367	81.2778	77.6367	81.2688	77.6367	81.3199	77.6367	81.3096	77.6367	81.3693	77.6367	81.358	77.6367	81.4265	77.6367	81.4141	77.6367	81.4913	77.6367	81.478	77.6367	81.5626	77.6367	81.5487	77.6367	81.6384	77.6367	81.6243	77.6367	81.7153	77.6367	81.7017	77.6367	81.7888	77.6367	81.7764	77.6367	81.8536	77.6367	81.8432	77.6367	81.9041	77.6367	81.8966	77.6367	81.9357	77.6367	81.9318	77.6367	81.9452
79.1016	81.5303	79.1016	81.5349	79.1016	81.5326	79.1016	81.5463	79.1016	81.5416	79.1016	81.5641	79.1016	81.5573	79.1016	81.5882	79.1016	81.5795	79.1016	81.6183	79.1016	81.6079	79.1016	81.6543	79.1016	81.6424	79.1016	81.696	79.1016	81.683	79.1016	81.7436	79.1016	81.7298	79.1016	81.7971	79.1016	81.7826	79.1016	81.8561	79.1016	81.8413	79.1016	81.92	79.1016	81.9052	79.1016	81.9871	79.1016	81.9726	79.1016	82.0546	79.1016	82.0411	79.1016	82.1188	79.1016	82.1069	79.1016	82.1752	79.1016	82.1655	79.1016	82.2192	79.1016	82.2124	79.1016	82.2468	79.1016	82.2432	79.1016	82.2551
82.0312	82.0599	82.0312	82.0645	82.0312	82.0635	82.0312	82.077	82.0312	82.0752	82.0312	82.097	82.0312	82.0943	82.0312	82.1236	82.0312	82.1202	82.0312	82.1558	82.0312	82.1519	82.0312	82.1927	82.0312	82.1884	82.0312	82.2334	82.0312	82.2288	82.0312	82.2773	82.0312	82.2724	82.0312	82.3238	82.0312	82.3188	82.0312	82.3727	82.0312	82.3674	82.0312	82.4233	82.0312	82.4179	82.0312	82.4747	82.0312	82.4693	82.0312	82.5254	82.0312	82.5201	82.0312	82.5731	82.0312	82.5682	82.0312	82.6148	82.0312	82.6107	82.0312	82.6474	82.0312	82.6444	82.0312	82.668	82.0312	82.6664	82.0312	82.6745
84.9609	82.3712	84.9609	82.3769	84.9609	82.3751	84.9609	82.3918	84.9609	82.3883	84.9609	82.4152	84.9609	82.41	84.9609	82.4456	84.9609	82.4388	84.9609	82.4815	84.9609	82.4733	84.9609	82.5211	84.9609	82.5117	84.9609	82.5629	84.9609	82.5523	84.9609	82.6055	84.9609	82.594	84.9609	82.6479	84.9609	82.6357	84.9609	82.6896	84.9609	82.6769	84.9609	82.7301	84.9609	82.7173	84.9609	82.769	84.9609	82.7564	84.9609	82.8057	84.9609	82.7938	84.9609	82.8391	84.9609	82.8285	84.9609	82.8675	84.9609	82.8588	84.9609	82.8893	84.9609	82.8831	84.9609	82.9025	84.9609	82.8993	84.9609	82.9059
87.8906	82.8986	87.8906	82.9042	87.8906	82.904	87.8906	82.9204	87.8906	82.92	87.8906	82.946	87.8906	82.9456	87.8906	82.9793	87.8906	82.979	87.8906	83.0183	87.8906	83.0182	87.8906	83.0605	87.8906	83.0608	87.8906	83.1038	87.8906	83.1047	87.8906	83.1463	87.8906	83.148	87.8906	83.1867	87.8906	83.1891	87.8906	83.2241	87.8906	83.2272	87.8906	83.2581	87.8906	83.2618	87.8906	83.2888	87.8906	83.2928	87.8906	83.3162	87.8906	83.3202	87.8906	83.3402	87.8906	83.344	87.8906	83.3603	87.8906	83.3635	87.8906	83.3759	87.8906	83.3782	87.8906	83.386	87.8906	83.3872	87.8906	83.3899
90.8203	83.405	90.8203	83.4104	90.8203	83.411	90.8203	83.4266	90.8203	83.4279	90.8203	83.4524	90.8203	83.4545	90.8203	83.4855	90.8203	83.4886	90.8203	83.5235	90.8203	83.5278	90.8203	83.5636	90.8203	83.5692	90.8203	83.6029	90.8203	83.61	90.8203	83.6393	90.8203	83.6478	90.8203	83.6709	90.8203	83.6809	90.8203	83.697	90.8203	83.708	90.8203	83.7173	90.8203	83.729	90.8203	83.7323	90.8203	83.7442	90.8203	83.7432	90.8203	83.7545	90.8203	83.751	90.8203	83.7611	90.8203	83.7566	90.8203	83.7649	90.8203	83.7608	90.8203	83.7667	90.8203	83.7639	90.8203	83.767	90.8203	83.766
95.2148	83.8692	95.2148	83.8754	95.2148	83.875	95.2148	83.893	95.2148	83.8923	95.2148	83.9204	95.2148	83.9196	95.2148	83.9549	95.2148	83.9544	95.2148	83.9936	95.2148	83.9936	95.2148	84.0328	95.2148	84.0337	95.2148	84.0693	95.2148	84.0713	95.2148	84.1001	95.2148	84.1035	95.2148	84.1231	95.2148	84.1279	95.2148	84.1372	95.2148	84.1432	95.2148	84.1423	95.2148	84.1495	95.2148	84.1397	95.2148	84.1475	95.2148	84.1314	95.2148	84.1392	95.2148	84.1198	95.2148	84.1271	95.2148	84.1077	95.2148	84.1138	95.2148	84.0976	95.2148	84.102	95.2148	84.0913	95.2148	84.0935	95.2148	84.0898
98.1445	84.2477	98.1445	84.2552	98.1445	84.2526	98.1445	84.2745	98.1445	84.2695	98.1445	84.3037	98.1445	84.2966	98.1445	84.34	98.1445	84.3313	98.1445	84.3799	98.1445	84.3702	98.1445	84.4197	98.1445	84.4094	98.1445	84.4554	98.1445	84.4453	98.1445	84.484	98.1445	84.4744	98.1445	84.5028	98.1445	84.4943	98.1445	84.5108	98.1445	84.5036	98.1445	84.5078	98.1445	84.5021	98.1445	84.4953	98.1445	84.4911	98.1445	84.4759	98.1445	84.473	98.1445	84.4529	98.1445	84.4511	98.1445	84.4301	98.1445	84.4291	98.1445	84.4109	98.1445	84.4104	98.1445	84.3981	98.1445	84.3979	98.1445	84.3936
101.074	84.6528	101.074	84.6604	101.074	84.6576	101.074	84.6798	101.074	84.6744	101.074	84.7091	101.074	84.7014	101.074	84.7451	101.074	84.7356	101.074	84.7843	101.074	84.7735	101.074	84.8224	101.074	84.811	101.074	84.8555	101.074	84.8441	101.074	84.8799	101.074	84.8691	101.074	84.893	101.074	84.8833	101.074	84.8934	101.074	84.8852	101.074	84.8813	101.074	84.8747	101.074	84.8584	101.074	84.8535	101.074	84.8277	101.074	84.8243	101.074	84.7934	101.074	84.7914	101.074	84.7603	101.074	84.7592	101.074	84.7327	101.074	84.7323	101.074	84.7146	101.074	84.7144	101.074	84.7082
105.469	84.956	105.469	84.9616	105.469	84.9627	105.469	84.9787	105.469	84.981	105.469	85.0054	105.469	85.009	105.469	85.0385	105.469	85.0436	105.469	85.0741	105.469	85.0808	105.469	85.1077	105.469	85.1162	105.469	85.1351	105.469	85.1455	105.469	85.1524	105.469	85.1648	105.469	85.1567	105.469	85.171	105.469	85.1466	105.469	85.1625	105.469	85.1224	105.469	85.1395	105.469	85.0861	105.469	85.1037	105.469	85.0417	105.469	85.0587	105.469	84.9942	105.469	85.0097	105.469	84.9495	105.469	84.9623	105.469	84.9133	105.469	84.9225	105.469	84.8905	105.469	84.8953	105.469	84.8842
108.398	85.2588	108.398	85.2656	108.398	85.2648	108.398	85.2843	108.398	85.2829	108.398	85.3128	108.398	85.311	108.398	85.3479	108.398	85.3461	108.398	85.3854	108.398	85.3839	108.398	85.4208	108.398	85.4201	108.398	85.4494	108.398	85.4499	108.398	85.4672	108.398	85.4693	108.398	85.4711	108.398	85.475	108.398	85.4596	108.398	85.4653	108.398	85.4328	108.398	85.4401	108.398	85.3929	108.398	85.4014	108.398	85.3439	108.398	85.353	108.398	85.2913	108.398	85.3002	108.398	85.2416	108.398	85.2493	108.398	85.201	108.398	85.2067	108.398	85.1749	108.398	85.1779	108.398	85.1668
112.793	85.5316	112.793	85.5391	112.793	85.5376	112.793	85.5592	112.793	85.5563	112.793	85.5898	112.793	85.5857	112.793	85.6273	112.793	85.6226	112.793	85.6675	112.793	85.6625	112.793	85.7055	112.793	85.7007	112.793	85.7363	112.793	85.7323	112.793	85.7554	112.793	85.7526	112.793	85.7594	112.793	85.7582	112.793	85.7463	112.793	85.747	112.793	85.7163	112.793	85.7188	112.793	85.6714	112.793	85.6755	112.793	85.616	112.793	85.6211	112.793	85.5562	112.793	85.5617	112.793	85.4991	112.793	85.5042	112.793	85.4522	112.793	85.4561	112.793	85.4217	112.793	85.4238	112.793	85.4117
117.188	85.6024	117.188	85.6111	117.188	85.607	117.188	85.6322	117.188	85.6243	117.188	85.6636	117.188	85.6522	117.188	85.7017	117.188	85.6873	117.188	85.742	117.188	85.7254	117.188	85.7794	117.188	85.7613	117.188	85.8087	117.188	85.79	117.188	85.8252	117.188	85.8067	117.188	85.8252	117.188	85.8076	117.188	85.8065	117.188	85.7906	117.188	85.7691	117.188	85.7554	117.188	85.7152	117.188	85.704	117.188	85.6497	117.188	85.641	117.188	85.5792	117.188	85.5728	117.188	85.5119	117.188	85.5075	117.188	85.456	117.188	85.4534	117.188	85.419	117.188	85.4177	117.188	85.4056
120.117	85.825	120.117	85.8333	120.117	85.8294	120.117	85.8534	120.117	85.8459	120.117	85.8832	120.117	85.8724	120.117	85.9193	120.117	85.9057	120.117	85.9573	120.117	85.9415	120.117	85.992	120.117	85.9748	120.117	86.0183	120.117	86.0005	120.117	86.0314	120.117	86.0139	120.117	86.0276	120.117	86.0111	120.117	86.0046	120.117	85.9898	120.117	85.9625	120.117	85.9499	120.117	85.9035	120.117	85.8934	120.117	85.8326	120.117	85.8251	120.117	85.7569	120.117	85.7516	120.117	85.6847	120.117	85.6814	120.117	85.6251	120.117	85.6232	120.117	85.5856	120.117	85.5848	120.117	85.5716
124.512	85.9326	124.512	85.9381	124.512	85.9396	124.512	85.9553	124.512	85.9584	124.512	85.9822	124.512	85.987	124.512	86.0154	124.512	86.0222	124.512	86.0505	124.512	86.0598	124.512	86.0827	124.512	86.0947	124.512	86.1068	124.512	86.1216	124.512	86.1179	124.512	86.1358	124.512	86.1123	124.512	86.1332	124.512	86.0878	124.512	86.1114	124.512	86.0442	124.512	86.0698	124.512	85.984	124.512	86.0106	124.512	85.9122	124.512	85.9384	124.512	85.8361	124.512	85.8601	124.512	85.7643	124.512	85.7845	124.512	85.706	124.512	85.7206	124.512	85.6691	124.512	85.6767	124.512	85.6588
128.906	86.027	128.906	86.0329	128.906	86.0325	128.906	86.0494	128.906	86.0488	128.906	86.0745	128.906	86.0739	128.906	86.105	128.906	86.1048	128.906	86.1366	128.906	86.1371	128.906	86.1644	128.906	86.1661	128.906	86.1831	128.906	86.1865	128.906	86.1881	128.906	86.1934	128.906	86.1753	128.906	86.1827	128.906	86.1426	128.906	86.152	128.906	86.0899	128.906	86.101	128.906	86.0197	128.906	86.032	128.906	85.9374	128.906	85.9501	128.906	85.8506	128.906	85.8628	128.906	85.769	128.906	85.7794	128.906	85.7022	128.906	85.7098	128.906	85.659	128.906	85.663	128.906	85.6453
133.301	86.0016	133.301	86.0061	133.301	86.0066	133.301	86.0193	133.301	86.0207	133.301	86.0393	133.301	86.0419	133.301	86.0629	133.301	86.0672	133.301	86.0858	133.301	86.0924	133.301	86.1031	133.301	86.1128	133.301	86.1098	133.301	86.123	133.301	86.1012	133.301	86.1181	133.301	86.0735	133.301	86.0941	133.301	86.0246	133.301	86.0487	133.301	85.9548	133.301	85.9816	133.301	85.8673	133.301	85.8955	133.301	85.7681	133.301	85.7961	133.301	85.6657	133.301	85.6917	133.301	85.5708	133.301	85.5926	133.301	85.4943	133.301	85.5101	133.301	85.4458	133.301	85.4541	133.301	85.4317
139.16	85.766	139.16	85.7748	139.16	85.7679	139.16	85.7935	139.16	85.78	139.16	85.8198	139.16	85.8006	139.16	85.8505	139.16	85.8264	139.16	85.881	139.16	85.8532	139.16	85.906	139.16	85.8759	139.16	85.9199	139.16	85.889	139.16	85.9175	139.16	85.8872	139.16	85.8945	139.16	85.866	139.16	85.8484	139.16	85.8227	139.16	85.7791	139.16	85.757	139.16	85.6898	139.16	85.6716	139.16	85.5865	139.16	85.5724	139.16	85.4783	139.16	85.4681	139.16	85.3765	139.16	85.3695	139.16	85.2926	139.16	85.2884	139.16	85.2371	139.16	85.2352	139.16	85.2172
143.555	85.6091	143.555	85.6127	143.555	85.6155	143.555	85.6255	143.555	85.6313	143.555	85.6459	143.555	85.6548	143.555	85.6707	143.555	85.6831	143.555	85.696	143.555	85.7122	143.555	85.7169	143.555	85.7372	143.555	85.7279	143.555	85.7527	143.555	85.7239	143.555	85.7532	143.555	85.7008	143.555	85.7342	143.555	85.6558	143.555	85.6928	143.555	85.5889	143.555	85.6284	143.555	85.5029	143.555	85.5433	143.555	85.404	143.555	85.4433	143.555	85.3011	143.555	85.3369	143.555	85.2053	143.555	85.235	143.555	85.1279	143.555	85.1493	143.555	85.0792	143.555	85.0904	143.555	85.0661
147.949	85.5107	147.949	85.5196	147.949	85.5097	147.949	85.5358	147.949	85.5164	147.949	85.5576	147.949	85.5298	147.949	85.5825	147.949	85.5476	147.949	85.607	147.949	85.5666	147.949	85.6266	147.949	85.5828	147.949	85.6367	147.949	85.5916	147.949	85.6323	147.949	85.588	147.949	85.6096	147.949	85.5679	147.949	85.5661	147.949	85.5285	147.949	85.5015	147.949	85.4692	147.949	85.4184	147.949	85.392	147.949	85.3226	147.949	85.302	147.949	85.2223	147.949	85.2072	147.949	85.1278	147.949	85.1176	147.949	85.05	147.949	85.0438	147.949	84.9984	147.949	84.9955	147.949	84.9795
153.809	85.4395	153.809	85.4443	153.809	85.4396	153.809	85.4536	153.809	85.4442	153.809	85.4658	153.809	85.452	153.809	85.4787	153.809	85.4606	153.809	85.4888	153.809	85.467	153.809	85.4921	153.809	85.4671	153.809	85.4839	153.809	85.4565	153.809	85.4599	153.809	85.4309	153.809	85.4162	153.809	85.3867	153.809	85.3511	153.809	85.322	153.809	85.2647	153.809	85.2372	153.809	85.1606	153.809	85.1354	153.809	85.0449	153.809	85.0229	153.809	84.9269	153.809	84.9087	153.809	84.8176	153.809	84.8036	153.809	84.7284	153.809	84.7189	153.809	84.6692	153.809	84.6644	153.809	84.6471
159.668	85.0724	159.668	85.0743	159.668	85.0776	159.668	85.0827	159.668	85.0891	159.668	85.0962	159.668	85.1054	159.668	85.112	159.668	85.1236	159.668	85.1262	159.668	85.1398	159.668	85.1337	159.668	85.1492	159.668	85.1288	159.668	85.1461	159.668	85.1059	159.668	85.1251	159.668	85.0603	159.668	85.0814	159.668	84.9893	159.668	85.012	159.668	84.8929	159.668	84.9167	159.668	84.7748	159.668	84.7989	159.668	84.6425	159.668	84.6657	159.668	84.5069	159.668	84.5278	159.668	84.3812	159.668	84.3985	159.668	84.2796	159.668	84.2919	159.668	84.2142	159.668	84.2207	159.668	84.1937
165.527	84.5917	165.527	84.5911	165.527	84.5967	165.527	84.5952	165.527	84.6056	165.527	84.6036	165.527	84.6177	165.527	84.6151	165.527	84.6315	165.527	84.6275	165.527	84.6445	165.527	84.6371	165.527	84.6533	165.527	84.6391	165.527	84.6533	165.527	84.6278	165.527	84.6393	165.527	84.5979	165.527	84.6068	165.527	84.5457	165.527	84.5521	165.527	84.4698	165.527	84.4743	165.527	84.3722	165.527	84.3755	165.527	84.259	165.527	84.2616	165.527	84.1399	165.527	84.142	165.527	84.0272	165.527	84.029	165.527	83.9343	165.527	83.9357	165.527	83.8731	165.527	83.8738	165.527	83.8519
171.387	84.4152	171.387	84.4149	171.387	84.4123	171.387	84.4117	171.387	84.4061	171.387	84.4056	171.387	84.3961	171.387	84.3962	171.387	84.3815	171.387	84.3822	171.387	84.361	171.387	84.3619	171.387	84.3329	171.387	84.3325	171.387	84.2947	171.387	84.2911	171.387	84.2439	171.387	84.2349	171.387	84.1785	171.387	84.1622	171.387	84.0975	171.387	84.073	171.387	84.0019	171.387	83.9697	171.387	83.8954	171.387	83.8573	171.387	83.7838	171.387	83.7434	171.387	83.6756	171.387	83.6372	171.387	83.5803	171.387	83.5486	171.387	83.5074	171.387	83.4865	171.387	83.4648	171.387	83.4575
177.246	84.1445	177.246	84.1395	177.246	84.15	177.246	84.1351	177.246	84.1562	177.246	84.131	177.246	84.1624	177.246	84.126	177.246	84.1679	177.246	84.1185	177.246	84.1705	177.246	84.1055	177.246	84.1673	177.246	84.0832	177.246	84.1539	177.246	84.0475	177.246	84.1257	177.246	83.9947	177.246	84.0784	177.246	83.9227	177.246	84.0091	177.246	83.8318	177.246	83.9176	177.246	83.7253	177.246	83.8068	177.246	83.6099	177.246	83.6833	177.246	83.4948	177.246	83.5567	177.246	83.3909	177.246	83.4389	177.246	83.3091	177.246	83.3418	177.246	83.2591	177.246	83.2756	177.246	83.2472
183.105	84.0083	183.105	83.9995	183.105	84.0124	183.105	83.9867	183.105	84.0117	183.105	83.9704	183.105	84.0059	183.105	83.9508	183.105	83.9949	183.105	83.9271	183.105	83.9778	183.105	83.8976	183.105	83.9532	183.105	83.8591	183.105	83.9186	183.105	83.808	183.105	83.8708	183.105	83.7408	183.105	83.8066	183.105	83.6553	183.105	83.724	183.105	83.5519	183.105	83.6226	183.105	83.4338	183.105	83.505	183.105	83.308	183.105	83.377	183.105	83.1843	183.105	83.2472	183.105	83.074	183.105	83.1265	183.105	82.9885	183.105	83.0265	183.105	82.9373	183.105	82.9573	183.105	82.9265
188.965	83.8879	188.965	83.8808	188.965	83.8897	188.965	83.8686	188.965	83.8859	188.965	83.8519	188.965	83.877	188.965	83.8309	188.965	83.8627	188.965	83.8055	188.965	83.8426	188.965	83.7744	188.965	83.8149	188.965	83.7349	188.965	83.7771	188.965	83.684	188.965	83.7259	188.965	83.6185	188.965	83.6586	188.965	83.5362	188.965	83.5731	188.965	83.4372	188.965	83.47	188.965	83.3244	188.965	83.3525	188.965	83.2038	188.965	83.2269	188.965	83.0842	188.965	83.1023	188.965	82.9761	188.965	82.9894	188.965	82.89	188.965	82.8987	188.965	82.8352	188.965	82.8394	188.965	82.8176
196.289	83.6034	196.289	83.5985	196.289	83.6007	196.289	83.586	196.289	83.5907	196.289	83.5669	196.289	83.5747	196.289	83.5423	196.289	83.5541	196.289	83.5129	196.289	83.5295	196.289	83.4783	196.289	83.5005	196.289	83.437	196.289	83.4653	196.289	83.3864	196.289	83.4211	196.289	83.3239	196.289	83.3646	196.289	83.2478	196.289	83.2936	196.289	83.1581	196.289	83.2074	196.289	83.0577	196.289	83.1081	196.289	82.9522	196.289	83.001	196.289	82.8495	196.289	82.8935	196.289	82.7586	196.289	82.7949	196.289	82.6885	196.289	82.7143	196.289	82.6461	196.289	82.6596	196.289	82.6361
203.613	83.2429	203.613	83.234	203.613	83.2364	203.613	83.2102	203.613	83.2153	203.613	83.173	203.613	83.1815	203.613	83.125	203.613	83.1374	203.613	83.0682	203.613	83.0853	203.613	83.0041	203.613	83.0268	203.613	82.9333	203.613	82.9619	203.613	82.8552	203.613	82.89	203.613	82.7689	203.613	82.8094	203.613	82.674	203.613	82.7194	203.613	82.5718	203.613	82.6203	203.613	82.4655	203.613	82.5148	203.613	82.3603	203.613	82.4077	203.613	82.2631	203.613	82.3054	203.613	82.1808	203.613	82.2152	203.613	82.1194	203.613	82.1438	203.613	82.0836	203.613	82.0961	203.613	82.0756
210.938	83.1835	210.938	83.1744	210.938	83.1717	210.938	83.1443	210.938	83.1405	210.938	83.0945	210.938	83.0926	210.938	83.0271	210.938	83.031	210.938	82.9446	210.938	82.9588	210.938	82.8492	210.938	82.8778	210.938	82.7425	210.938	82.7887	210.938	82.6253	210.938	82.6909	210.938	82.4982	210.938	82.583	210.938	82.3624	210.938	82.4641	210.938	82.2206	210.938	82.3349	210.938	82.0777	210.938	82.1984	210.938	81.941	210.938	82.0604	210.938	81.8188	210.938	81.9285	210.938	81.7196	210.938	81.8111	210.938	81.65	210.938	81.7157	210.938	81.6143	210.938	81.6486	210.938	81.614
218.262	83.1242	218.262	83.1281	218.262	83.1022	218.262	83.114	218.262	83.0626	218.262	83.0828	218.262	83.0069	218.262	83.0356	218.262	82.9369	218.262	82.973	218.262	82.8544	218.262	82.895	218.262	82.7606	218.262	82.8006	218.262	82.6561	218.262	82.6889	218.262	82.5403	218.262	82.5591	218.262	82.4129	218.262	82.4121	218.262	82.2742	218.262	82.2511	218.262	82.1263	218.262	82.0822	218.262	81.974	218.262	81.9141	218.262	81.8245	218.262	81.7572	218.262	81.6868	218.262	81.6218	218.262	81.5702	218.262	81.5168	218.262	81.4832	218.262	81.4482	218.262	81.4317	218.262	81.4196
225.586	82.6873	225.586	82.6901	225.586	82.6681	225.586	82.6777	225.586	82.6329	225.586	82.6523	225.586	82.5837	225.586	82.6168	225.586	82.5233	225.586	82.5731	225.586	82.4548	225.586	82.5219	225.586	82.3804	225.586	82.4622	225.586	82.3012	225.586	82.3919	225.586	82.2169	225.586	82.3083	225.586	82.1267	225.586	82.2101	225.586	82.0297	225.586	82.098	225.586	81.9268	225.586	81.9759	225.586	81.8209	225.586	81.8503	225.586	81.717	225.586	81.7299	225.586	81.6218	225.586	81.6235	225.586	81.5424	225.586	81.5386	225.586	81.4849	225.586	81.4805	225.586	81.4538	225.586	81.452
232.91	82.4336	232.91	82.4094	232.91	82.4307	232.91	82.3601	232.91	82.4006	232.91	82.2901	232.91	82.3457	232.91	82.2048	232.91	82.2696	232.91	82.1099	232.91	82.1767	232.91	82.0101	232.91	82.0707	232.91	81.9084	232.91	81.9551	232.91	81.8057	232.91	81.8319	232.91	81.7015	232.91	81.7031	232.91	81.5951	232.91	81.5712	232.91	81.4869	232.91	81.4399	232.91	81.3789	232.91	81.3146	232.91	81.275	232.91	81.2017	232.91	81.1802	232.91	81.1071	232.91	81.0991	232.91	81.0353	232.91	81.0354	232.91	80.9884	232.91	80.9912	232.91	80.9664	232.91	80.9678
241.699	82.3554	241.699	82.3482	241.699	82.3298	241.699	82.3095	241.699	82.2725	241.699	82.2426	241.699	82.1866	241.699	82.1522	241.699	82.0773	241.699	82.0432	241.699	81.9501	241.699	81.9204	241.699	81.8104	241.699	81.7871	241.699	81.6625	241.699	81.646	241.699	81.5091	241.699	81.4992	241.699	81.3523	241.699	81.3493	241.699	81.195	241.699	81.2002	241.699	81.0412	241.699	81.0571	241.699	80.8974	241.699	80.926	241.699	80.7716	241.699	80.8122	241.699	80.6709	241.699	80.7186	241.699	80.6001	241.699	80.646	241.699	80.5601	241.699	80.5936	241.699	80.5483	241.699	80.5606
250.488	82.0256	250.488	81.9916	250.488	82.021	250.488	81.9223	250.488	81.9766	250.488	81.8232	250.488	81.8936	250.488	81.7006	250.488	81.7756	250.488	81.561	250.488	81.6273	250.488	81.4096	250.488	81.4545	250.488	81.2496	250.488	81.2631	250.488	81.0825	250.488	81.0586	250.488	80.9085	250.488	80.8464	250.488	80.7283	250.488	80.6324	250.488	80.5443	250.488	80.4234	250.488	80.3618	250.488	80.228	250.488	80.1889	250.488	80.0555	250.488	80.0347	250.488	79.9142	250.488	79.9069	250.488	79.8094	250.488	79.8102	250.488	79.7424	250.488	79.7457	250.488	79.7111	250.488	79.7128
259.277	82.2907	259.277	82.2519	259.277	82.2887	259.277	82.1745	259.277	82.2459	259.277	82.0622	259.277	82.164	259.277	81.9205	259.277	82.0462	259.277	81.7551	259.277	81.8961	259.277	81.5712	259.277	81.7173	259.277	81.3733	259.277	81.5133	259.277	81.1646	259.277	81.2876	259.277	80.9482	259.277	81.0444	259.277	80.728	259.277	80.7899	259.277	80.5094	259.277	80.5329	259.277	80.3	259.277	80.2852	259.277	80.108	259.277	80.0606	259.277	79.9408	259.277	79.8722	259.277	79.8037	259.277	79.7298	259.277	79.6991	259.277	79.6371	259.277	79.6279	259.277	79.5926	259.277	79.5913
268.066	82.2305	268.066	82.1943	268.066	82.2339	268.066	82.1267	268.066	82.2063	268.066	82.032	268.066	82.1521	268.066	81.9163	268.066	82.0765	268.066	81.7863	268.066	81.9846	268.066	81.6475	268.066	81.8795	268.066	81.5031	268.066	81.7619	268.066	81.3539	268.066	81.6306	268.066	81.1995	268.066	81.4832	268.066	81.0401	268.066	81.3189	268.066	80.8781	268.066	81.14	268.066	80.7192	268.066	80.953	268.066	80.5714	268.066	80.7682	268.066	80.4432	268.066	80.598	268.066	80.3421	268.066	80.4539	268.066	80.2726	268.066	80.3438	268.066	80.2368	268.066	80.2712	268.066	80.236
276.855	81.7343	276.855	81.7086	276.855	81.7155	276.855	81.64	276.855	81.6542	276.855	81.5332	276.855	81.5554	276.855	81.3954	276.855	81.4271	276.855	81.2354	276.855	81.2788	276.855	81.0623	276.855	81.1203	276.855	80.8848	276.855	80.9601	276.855	80.7095	276.855	80.8039	276.855	80.542	276.855	80.6553	276.855	80.3864	276.855	80.5159	276.855	80.2475	276.855	80.3874	276.855	80.1299	276.855	80.2722	276.855	80.0382	276.855	80.1733	276.855	79.9746	276.855	80.0932	276.855	79.938	276.855	80.0324	276.855	79.9238	276.855	79.9888	276.855	79.9255	276.855	79.9585	276.855	79.9378
287.109	81.5453	287.109	81.4957	287.109	81.5556	287.109	81.4082	287.109	81.5298	287.109	81.2888	287.109	81.4737	287.109	81.1475	287.109	81.3939	287.109	80.9949	287.109	81.295	287.109	80.8395	287.109	81.1779	287.109	80.6846	287.109	81.0399	287.109	80.5276	287.109	80.8758	287.109	80.3619	287.109	80.6809	287.109	80.1816	287.109	80.4546	287.109	79.9859	287.109	80.2033	287.109	79.7815	287.109	79.9415	287.109	79.5826	287.109	79.6899	287.109	79.4062	287.109	79.4704	287.109	79.2663	287.109	79.2994	287.109	79.1692	287.109	79.1832	287.109	79.1138	287.109	79.1182	287.109	79.0969
297.363	81.4786	297.363	81.4695	297.363	81.4301	297.363	81.4038	297.363	81.3269	297.363	81.2861	297.363	81.1775	297.363	81.1249	297.363	80.9955	297.363	80.9328	297.363	80.7998	297.363	80.726	297.363	80.6112	297.363	80.5226	297.363	80.448	297.363	80.3387	297.363	80.3201	297.363	80.1839	297.363	80.2261	297.363	80.058	297.363	80.155	297.363	79.9529	297.363	80.0913	297.363	79.8572	297.363	80.0215	297.363	79.7629	297.363	79.9378	297.363	79.6698	297.363	79.8403	297.363	79.5856	297.363	79.7357	297.363	79.5227	297.363	79.6358	297.363	79.4932	297.363	79.5544	297.363	79.5041
307.617	80.9417	307.617	80.9126	307.617	80.9232	307.617	80.8409	307.617	80.8575	307.617	80.7368	307.617	80.7508	307.617	80.6129	307.617	80.6142	307.617	80.482	307.617	80.4618	307.617	80.3541	307.617	80.3091	307.617	80.2363	307.617	80.1701	307.617	80.1334	307.617	80.0554	307.617	80.05	307.617	79.9705	307.617	79.9909	307.617	79.9158	307.617	79.9604	307.617	79.8882	307.617	79.9598	307.617	79.8833	307.617	79.9848	307.617	79.8977	307.617	80.0256	307.617	79.9285	307.617	80.0687	307.617	79.9719	307.617	80.1009	307.617	80.0214	307.617	80.1129	307.617	80.0677	307.617	80.1009
319.336	80.6444	319.336	80.5868	319.336	80.6188	319.336	80.452	319.336	80.5126	319.336	80.2548	319.336	80.3368	319.336	80.0194	319.336	80.1102	319.336	79.778	319.336	79.8592	319.336	79.5664	319.336	79.6143	319.336	79.4166	319.336	79.4066	319.336	79.3479	319.336	79.2611	319.336	79.3614	319.336	79.1925	319.336	79.4422	319.336	79.2025	319.336	79.5665	319.336	79.2813	319.336	79.7105	319.336	79.4115	319.336	79.8545	319.336	79.5717	319.336	79.984	319.336	79.7405	319.336	80.0885	319.336	79.8989	319.336	80.1601	319.336	80.0316	319.336	80.1927	319.336	80.1282	319.336	80.1825
329.59	81.5013	329.59	81.4271	329.59	81.4604	329.59	81.2409	329.59	81.306	329.59	80.9515	329.59	81.0443	329.59	80.5756	329.59	80.6877	329.59	80.14	329.59	80.2572	329.59	79.6836	329.59	79.786	329.59	79.2573	329.59	79.3221	329.59	78.918	329.59	78.9261	329.59	78.7143	329.59	78.6587	329.59	78.67	329.59	78.56	329.59	78.7743	329.59	78.6319	329.59	78.9873	329.59	78.8375	329.59	79.2568	329.59	79.1197	329.59	79.5334	329.59	79.4207	329.59	79.7788	329.59	79.6952	329.59	79.9664	329.59	79.9121	329.59	80.0798	329.59	80.0533	329.59	80.1099
341.309	81.8626	341.309	81.7665	341.309	81.8612	341.309	81.5727	341.309	81.764	341.309	81.2834	341.309	81.5744	341.309	80.9045	341.309	81.2977	341.309	80.4483	341.309	80.9417	341.309	79.9363	341.309	80.5188	341.309	79.4028	341.309	80.0477	341.309	78.8958	341.309	79.5569	341.309	78.4728	341.309	79.0866	341.309	78.1871	341.309	78.6867	341.309	78.0686	341.309	78.4068	341.309	78.1098	341.309	78.2783	341.309	78.2689	341.309	78.2987	341.309	78.4869	341.309	78.4308	341.309	78.7068	341.309	78.6179	341.309	78.884	341.309	78.8036	341.309	78.9899	341.309	78.9436	341.309	79.01
353.027	81.7859	353.027	81.7151	353.027	81.7538	353.027	81.5404	353.027	81.6207	353.027	81.2618	353.027	81.3898	353.027	80.8812	353.027	81.0658	353.027	80.4045	353.027	80.6568	353.027	79.8449	353.027	80.1763	353.027	79.2282	353.027	79.6461	353.027	78.5996	353.027	79.1002	353.027	78.0271	353.027	78.5877	353.027	77.5949	353.027	78.169	353.027	77.3761	353.027	77.9024	353.027	77.3959	353.027	77.8203	353.027	77.6133	353.027	77.9113	353.027	77.9421	353.027	78.1226	353.027	78.2896	353.027	78.3822	353.027	78.5824	353.027	78.621	353.027	78.774	353.027	78.7859	353.027	78.8424
366.211	81.9385	366.211	81.9095	366.211	81.8846	366.211	81.795	366.211	81.7507	366.211	81.5928	366.211	81.5396	366.211	81.3015	366.211	81.2543	366.211	80.9214	366.211	80.8983	366.211	80.456	366.211	80.4768	366.211	79.9153	366.211	80.0002	366.211	79.3206	366.211	79.4877	366.211	78.7109	366.211	78.9721	366.211	78.1467	366.211	78.5014	366.211	77.7029	366.211	78.132	366.211	77.4449	366.211	77.9098	366.211	77.3945	366.211	77.847	366.211	77.5152	366.211	77.9124	366.211	77.7316	366.211	78.0448	366.211	77.9636	366.211	78.1775	366.211	78.149	366.211	78.2571	366.211	78.251
379.395	81.6752	379.395	81.6514	379.395	81.6078	379.395	81.5387	379.395	81.4483	379.395	81.34	379.395	81.1979	379.395	81.0592	379.395	80.8592	379.395	80.7004	379.395	80.4371	379.395	80.2697	379.395	79.9395	379.395	79.7775	379.395	79.3807	379.395	79.2433	379.395	78.7861	379.395	78.7012	379.395	78.1992	379.395	78.2041	379.395	77.6853	379.395	77.8192	379.395	77.3225	379.395	77.6068	379.395	77.1717	379.395	77.5889	379.395	77.2402	379.395	77.7301	379.395	77.472	379.395	77.9533	379.395	77.7757	379.395	78.1732	379.395	78.0629	379.395	78.3222	379.395	78.2694	379.395	78.3592
392.578	81.6999	392.578	81.6204	392.578	81.6875	392.578	81.4517	392.578	81.5817	392.578	81.1974	392.578	81.3817	392.578	80.8625	392.578	81.0874	392.578	80.4525	392.578	80.6992	392.578	79.974	392.578	80.2194	392.578	79.4358	392.578	79.6547	392.578	78.8535	392.578	79.0203	392.578	78.256	392.578	78.3471	392.578	77.6921	392.578	77.6895	392.578	77.2288	392.578	77.1272	392.578	76.9335	392.578	76.7477	392.578	76.8387	392.578	76.6049	392.578	76.9179	392.578	76.6812	392.578	77.0961	392.578	76.8942	392.578	77.2849	392.578	77.1412	392.578	77.412	392.578	77.3381	392.578	77.4342
405.762	81.5521	405.762	81.4751	405.762	81.5379	405.762	81.3078	405.762	81.4319	405.762	81.0519	405.762	81.2342	405.762	80.7099	405.762	80.9455	405.762	80.2857	405.762	80.5675	405.762	79.7869	405.762	80.1038	405.762	79.228	405.762	79.5635	405.762	78.6364	405.762	78.9654	405.762	78.0579	405.762	78.3452	405.762	77.5588	405.762	77.7609	405.762	77.2136	405.762	77.291	405.762	77.0736	405.762	77.0122	405.762	77.1356	405.762	76.9606	405.762	77.3381	405.762	77.1057	405.762	77.592	405.762	77.3637	405.762	77.8152	405.762	77.6391	405.762	77.9498	405.762	77.8552	405.762	77.9652
420.41	81.3903	420.41	81.3194	420.41	81.363	420.41	81.1479	420.41	81.2409	420.41	80.8754	420.41	81.0282	420.41	80.5035	420.41	80.729	420.41	80.0367	420.41	80.3476	420.41	79.4842	420.41	79.8884	420.41	78.8618	420.41	79.3584	420.41	78.1968	420.41	78.7706	420.41	77.5332	420.41	78.1505	420.41	76.9358	420.41	77.543	420.41	76.4857	420.41	77.0157	420.41	76.2551	420.41	76.647	420.41	76.2663	420.41	76.4932	420.41	76.4688	420.41	76.5508	420.41	76.7619	420.41	76.7513	420.41	77.04	420.41	76.9951	420.41	77.2254	420.41	77.1911	420.41	77.2775
435.059	81.6106	435.059	81.5769	435.059	81.5484	435.059	81.4437	435.059	81.3933	435.059	81.2076	435.059	81.1472	435.059	80.8648	435.059	80.8111	435.059	80.412	435.059	80.3838	435.059	79.8475	435.059	79.8631	435.059	79.1746	435.059	79.2488	435.059	78.4088	435.059	78.549	435.059	77.5909	435.059	77.7932	435.059	76.8038	435.059	77.0499	435.059	76.179	435.059	76.4371	435.059	75.8565	435.059	76.0928	435.059	75.8949	435.059	76.0902	435.059	76.2153	435.059	76.3687	435.059	76.6582	435.059	76.7748	435.059	77.0747	435.059	77.1555	435.059	77.3669	435.059	77.4088	435.059	77.4838
451.172	81.1667	451.172	81.1146	451.172	81.1326	451.172	80.9763	451.172	81.0133	451.172	80.7515	451.172	80.8106	451.172	80.4385	451.172	80.5258	451.172	80.0327	451.172	80.1587	451.172	79.5274	451.172	79.7056	451.172	78.9166	451.172	79.1618	451.172	78.2042	451.172	78.5262	451.172	77.4188	451.172	77.8128	451.172	76.6361	451.172	77.0686	451.172	75.9927	451.172	76.3901	451.172	75.6493	451.172	75.9168	451.172	75.6832	451.172	75.7666	451.172	76.0124	451.172	75.9419	451.172	76.4592	451.172	76.3172	451.172	76.8608	451.172	76.7257	451.172	77.1157	451.172	77.0372	451.172	77.1769
465.82	81.4155	465.82	81.3942	465.82	81.3243	465.82	81.2627	465.82	81.1225	465.82	81.0266	465.82	80.815	465.82	80.6925	465.82	80.409	465.82	80.2649	465.82	79.9113	465.82	79.7433	465.82	79.3268	465.82	79.1217	465.82	78.6578	465.82	78.3927	465.82	77.9078	465.82	77.5602	465.82	77.0911	465.82	76.6627	465.82	76.2525	465.82	75.8032	465.82	75.4901	465.82	75.1581	465.82	74.9551	465.82	74.8996	465.82	74.7812	465.82	75.0481	465.82	74.9706	465.82	75.4398	465.82	75.3769	465.82	75.8608	465.82	75.8107	465.82	76.1576	465.82	76.129	465.82	76.2535
483.398	81.3933	483.398	81.2999	483.398	81.3942	483.398	81.1195	483.398	81.2975	483.398	80.8565	483.398	81.0985	483.398	80.5122	483.398	80.7922	483.398	80.0825	483.398	80.3719	483.398	79.5588	483.398	79.8299	483.398	78.9308	483.398	79.1589	483.398	78.1934	483.398	78.3588	483.398	77.3593	483.398	77.45	483.398	76.4785	483.398	76.4991	483.398	75.6652	483.398	75.6452	483.398	75.1003	483.398	75.0873	483.398	74.9464	483.398	74.9686	483.398	75.2003	483.398	75.2424	483.398	75.6772	483.398	75.7102	483.398	76.1566	483.398	76.1701	483.398	76.4891	483.398	76.4909	483.398	76.6054
499.512	81.3877	499.512	81.3253	499.512	81.3704	499.512	81.1751	499.512	81.2797	499.512	80.9291	499.512	81.1177	499.512	80.5813	499.512	80.8803	499.512	80.1267	499.512	80.5571	499.512	79.5618	499.512	80.1327	499.512	78.8855	499.512	79.5905	499.512	78.1045	499.512	78.9181	499.512	77.2455	499.512	78.1155	499.512	76.375	499.512	77.2112	499.512	75.6141	499.512	76.2885	499.512	75.1201	499.512	75.5114	499.512	75.0013	499.512	75.0882	499.512	75.2255	499.512	75.1208	499.512	75.6367	499.512	75.4869	499.512	76.0563	499.512	75.9444	499.512	76.35	499.512	76.2957	499.512	76.4394
517.09	81.1843	517.09	81.1524	517.09	81.1213	517.09	81.0268	517.09	80.9647	517.09	80.8095	517.09	80.7191	517.09	80.5002	517.09	80.3907	517.09	80.094	517.09	79.9821	517.09	79.5801	517.09	79.4881	517.09	78.9407	517.09	78.8928	517.09	78.1553	517.09	78.1746	517.09	77.2128	517.09	77.3179	517.09	76.1416	517.09	76.3363	517.09	75.0631	517.09	75.3103	517.09	74.235	517.09	74.4293	517.09	73.9445	517.09	73.9602	517.09	74.2221	517.09	74.0453	517.09	74.7909	517.09	74.5317	517.09	75.3432	517.09	75.1183	517.09	75.6976	517.09	75.573	517.09	75.7788
536.133	81.0751	536.133	80.9936	536.133	81.0574	536.133	80.8201	536.133	80.9369	536.133	80.5642	536.133	80.7131	536.133	80.2346	536.133	80.3878	536.133	79.8342	536.133	79.964	536.133	79.3561	536.133	79.4435	536.133	78.7829	536.133	78.8246	536.133	78.0912	536.133	78.1009	536.133	77.2625	536.133	77.2693	536.133	76.305	536.133	76.3554	536.133	75.297	536.133	75.4578	536.133	74.4417	536.133	74.7752	536.133	74.0343	536.133	74.5211	536.133	74.2153	536.133	74.7241	536.133	74.7841	536.133	75.1848	536.133	75.4079	536.133	75.6572	536.133	75.8625	536.133	75.976	536.133	76.056
555.176	81.0245	555.176	80.9887	555.176	80.9672	555.176	80.8579	555.176	80.824	555.176	80.6343	555.176	80.6046	555.176	80.321	555.176	80.3149	555.176	79.9177	555.176	79.9516	555.176	79.4162	555.176	79.4982	555.176	78.7994	555.176	78.9292	555.176	78.0449	555.176	78.2185	555.176	77.1404	555.176	77.353	555.176	76.1158	555.176	76.3512	555.176	75.0938	555.176	75.2988	555.176	74.3231	555.176	74.3989	555.176	74.0712	555.176	73.9526	555.176	74.3695	555.176	74.124	555.176	74.966	555.176	74.7233	555.176	75.5638	555.176	75.3967	555.176	75.97	555.176	75.8901	555.176	76.0895
574.219	81.0971	574.219	81.0254	574.219	81.0468	574.219	80.8366	574.219	80.8769	574.219	80.5407	574.219	80.5969	574.219	80.1493	574.219	80.2225	574.219	79.6706	574.219	79.7699	574.219	79.1031	574.219	79.2481	574.219	78.4318	574.219	78.6491	574.219	77.6282	574.219	77.9418	574.219	76.6595	574.219	77.079	574.219	75.5125	574.219	76.0206	574.219	74.2527	574.219	74.7841	574.219	73.1267	574.219	73.5385	574.219	72.5765	574.219	72.6857	574.219	72.8449	574.219	72.6294	574.219	73.6118	574.219	73.2585	574.219	74.3883	574.219	74.0792	574.219	74.8875	574.219	74.7159	574.219	75.0021
594.727	81.4481	594.727	81.3884	594.727	81.4089	594.727	81.2289	594.727	81.2734	594.727	80.9718	594.727	81.0453	594.727	80.6228	594.727	80.7281	594.727	80.1902	594.727	80.3235	594.727	79.6809	594.727	79.8302	594.727	79.094	594.727	79.2429	594.727	78.4145	594.727	78.5526	594.727	77.6158	594.727	77.7496	594.727	76.6768	594.727	76.8317	594.727	75.6234	594.727	75.8273	594.727	74.5923	594.727	74.8407	594.727	73.8612	594.727	74.0907	594.727	73.6861	594.727	73.8202	594.727	74.0123	594.727	74.0485	594.727	74.5219	594.727	74.513	594.727	74.9245	594.727	74.9123	594.727	75.0682
615.234	81.4401	615.234	81.3568	615.234	81.3712	615.234	81.1273	615.234	81.1565	615.234	80.7684	615.234	80.8122	615.234	80.3032	615.234	80.36	615.234	79.7533	615.234	79.8204	615.234	79.1313	615.234	79.2067	615.234	78.4379	615.234	78.5204	615.234	77.6652	615.234	77.7522	615.234	76.809	615.234	76.8941	615.234	75.8936	615.234	75.9641	615.234	75.0108	615.234	75.0466	615.234	74.3512	615.234	74.3286	615.234	74.1426	615.234	74.0459	615.234	74.4444	615.234	74.2836	615.234	75.0472	615.234	74.8601	615.234	75.6538	615.234	75.4904	615.234	76.0577	615.234	75.9628	615.234	76.1658
637.207	82.2573	637.207	82.2028	637.207	82.209	637.207	82.0412	637.207	82.0584	637.207	81.7646	637.207	81.8028	637.207	81.3636	637.207	81.4362	637.207	80.8304	637.207	80.9506	637.207	80.1612	637.207	80.3372	637.207	79.3569	637.207	79.5905	637.207	78.4218	637.207	78.7092	637.207	77.3612	637.207	77.695	637.207	76.1857	637.207	76.5594	637.207	74.9401	637.207	75.3616	637.207	73.779	637.207	74.2861	637.207	73.0364	637.207	73.6655	637.207	73.035	637.207	73.7248	637.207	73.6637	637.207	74.2716	637.207	74.4735	637.207	74.9007	637.207	75.107	637.207	75.322	637.207	75.4029
659.18	81.6766	659.18	81.6152	659.18	81.6321	659.18	81.455	659.18	81.4848	659.18	81.2099	659.18	81.2434	659.18	80.8923	659.18	80.9151	659.18	80.5017	659.18	80.4967	659.18	80.0182	659.18	79.9695	659.18	79.4033	659.18	79.3022	659.18	78.6107	659.18	78.4628	659.18	77.6099	659.18	77.4382	659.18	76.4342	659.18	76.2668	659.18	75.2656	659.18	75.0956	659.18	74.4857	659.18	74.2379	659.18	74.436	659.18	74.0533	659.18	75.005	659.18	74.5657	659.18	75.7796	659.18	75.4064	659.18	76.4467	659.18	76.1989	659.18	76.8616	659.18	76.7431	659.18	76.9673
682.617	81.6869	682.617	81.5885	682.617	81.6723	682.617	81.3808	682.617	81.5473	682.617	81.0723	682.617	81.3196	682.617	80.6703	682.617	80.9964	682.617	80.1733	682.617	80.577	682.617	79.565	682.617	80.0462	682.617	78.8142	682.617	79.3729	682.617	77.8843	682.617	78.5146	682.617	76.7505	682.617	77.4309	682.617	75.433	682.617	76.1157	682.617	74.0805	682.617	74.6729	682.617	73.1146	682.617	73.4562	682.617	73.1089	682.617	73.0589	682.617	74.0466	682.617	73.6888	682.617	75.2764	682.617	74.8267	682.617	76.2851	682.617	75.9085	682.617	76.8734	682.617	76.6637	682.617	76.9969
707.52	81.9064	707.52	81.8916	707.52	81.8013	707.52	81.7572	707.52	81.5863	707.52	81.5114	707.52	81.2783	707.52	81.1623	707.52	80.892	707.52	80.7085	707.52	80.4298	707.52	80.1309	707.52	79.8765	707.52	79.3908	707.52	79.1989	707.52	78.4311	707.52	78.3465	707.52	77.1796	707.52	77.2473	707.52	75.5615	707.52	75.8123	707.52	73.5673	707.52	73.9939	707.52	71.5341	707.52	72.0435	707.52	70.6245	707.52	71.0308	707.52	71.6041	707.52	71.8829	707.52	73.3069	707.52	73.5412	707.52	74.7393	707.52	74.9256	707.52	75.6407	707.52	75.7449	707.52	75.9781
732.422	81.618	732.422	81.5649	732.422	81.5715	732.422	81.4209	732.422	81.4285	732.422	81.2007	732.422	81.2014	732.422	80.9134	732.422	80.9036	732.422	80.5521	732.422	80.5375	732.422	80.09	732.422	80.0827	732.422	79.4832	732.422	79.4901	732.422	78.6737	732.422	78.6883	732.422	77.5933	732.422	77.6002	732.422	76.1799	732.422	76.1669	732.422	74.4442	732.422	74.4003	732.422	72.6935	732.422	72.554	732.422	71.8356	732.422	71.4436	732.422	72.5088	732.422	71.8952	732.422	73.893	732.422	73.3061	732.422	75.0939	732.422	74.6752	732.422	75.8059	732.422	75.594	732.422	75.974
757.324	81.2494	757.324	81.1575	757.324	81.1985	757.324	80.942	757.324	81.0195	757.324	80.6516	757.324	80.7537	757.324	80.3442	757.324	80.4503	757.324	80.0497	757.324	80.1361	757.324	79.736	757.324	79.7902	757.324	79.307	757.324	79.3421	757.324	78.6311	757.324	78.6916	757.324	77.5709	757.324	77.7272	757.324	76.0006	757.324	76.3361	757.324	73.853	757.324	74.4318	757.324	71.4278	757.324	72.1327	757.324	70.2802	757.324	70.4382	757.324	71.6363	757.324	71.0219	757.324	73.7015	757.324	72.9918	757.324	75.2637	757.324	74.7549	757.324	76.1346	757.324	75.8789	757.324	76.3346
785.156	81.8791	785.156	81.842	785.156	81.77	785.156	81.6636	785.156	81.5226	785.156	81.3614	785.156	81.1593	785.156	80.9615	785.156	80.7148	785.156	80.489	785.156	80.2288	785.156	79.9523	785.156	79.7272	785.156	79.3308	785.156	79.1984	785.156	78.5702	785.156	78.5786	785.156	77.576	785.156	77.7541	785.156	76.1996	785.156	76.5733	785.156	74.2338	785.156	74.8671	785.156	71.524	785.156	72.5364	785.156	68.8818	785.156	70.0691	785.156	69.3613	785.156	69.571	785.156	71.9367	785.156	71.4767	785.156	73.9661	785.156	73.5017	785.156	75.0687	785.156	74.809	785.156	75.3307
811.523	81.4506	811.523	81.3111	811.523	81.4011	811.523	81.012	811.523	81.1787	811.523	80.6186	811.523	80.8413	811.523	80.2069	811.523	80.464	811.523	79.8259	811.523	80.0959	811.523	79.4633	811.523	79.7248	811.523	79.0439	811.523	79.2805	811.523	78.4539	811.523	78.6636	811.523	77.5697	811.523	77.768	811.523	76.2739	811.523	76.4896	811.523	74.4853	811.523	74.7462	811.523	72.3316	811.523	72.6239	811.523	70.7596	811.523	70.9514	811.523	71.2908	811.523	71.3055	811.523	73.1319	811.523	73.1123	811.523	74.7834	811.523	74.7842	811.523	75.8014	811.523	75.8094	811.523	76.1428
840.82	81.7922	840.82	81.6688	840.82	81.7035	840.82	81.3415	840.82	81.4265	840.82	80.8588	840.82	81.0123	840.82	80.3144	840.82	80.5367	840.82	79.8236	840.82	80.0868	840.82	79.4556	840.82	79.7167	840.82	79.1663	840.82	79.3938	840.82	78.8072	840.82	78.9936	840.82	78.1896	840.82	78.3479	840.82	77.1259	840.82	77.2828	840.82	75.4391	840.82	75.6213	840.82	73.0411	840.82	73.2244	840.82	70.5511	840.82	70.4991	840.82	70.4171	840.82	69.9091	840.82	72.6167	840.82	72.1346	840.82	74.6548	840.82	74.3552	840.82	75.8495	840.82	75.7084	840.82	76.1933
870.117	82.2305	870.117	82.1213	870.117	82.12	870.117	81.8043	870.117	81.8134	870.117	81.3243	870.117	81.3713	870.117	80.7549	870.117	80.8811	870.117	80.1791	870.117	80.423	870.117	79.6527	870.117	80.023	870.117	79.1616	870.117	79.6275	870.117	78.6018	870.117	79.1189	870.117	77.7983	870.117	78.3493	870.117	76.5405	870.117	77.1565	870.117	74.5939	870.117	75.3646	870.117	71.7359	870.117	72.8375	870.117	68.4988	870.117	70.0385	870.117	68.6007	870.117	69.5528	870.117	71.6175	870.117	71.8356	870.117	74.0182	870.117	74.0384	870.117	75.37	870.117	75.361	870.117	75.7974
900.879	82.1825	900.879	82.0406	900.879	82.0715	900.879	81.6628	900.879	81.7234	900.879	81.1112	900.879	81.1896	900.879	80.5044	900.879	80.5769	900.879	79.9907	900.879	80.0456	900.879	79.6511	900.879	79.719	900.879	79.4102	900.879	79.5472	900.879	79.076	900.879	79.3185	900.879	78.4422	900.879	78.7929	900.879	77.3143	900.879	77.767	900.879	75.463	900.879	76.0411	900.879	72.5868	900.879	73.376	900.879	68.8414	900.879	69.8691	900.879	68.3005	900.879	68.6955	900.879	71.6934	900.879	71.6381	900.879	74.3643	900.879	74.3026	900.879	75.8309	900.879	75.8038	900.879	76.2871
933.105	83.2386	933.105	83.075	933.105	83.0756	933.105	82.6039	933.105	82.5851	933.105	81.8659	933.105	81.7987	933.105	80.9414	933.105	80.8118	933.105	79.9683	933.105	79.8051	933.105	79.136	933.105	78.999	933.105	78.6005	933.105	78.5048	933.105	78.3292	933.105	78.2199	933.105	78.0569	933.105	77.9068	933.105	77.4208	933.105	77.3029	933.105	76.0571	933.105	76.1296	933.105	73.5523	933.105	74.0493	933.105	69.4951	933.105	70.7825	933.105	66.9501	933.105	68.2082	933.105	70.8169	933.105	70.793	933.105	74.1443	933.105	73.9898	933.105	75.9109	933.105	75.8302	933.105	76.438
965.332	82.8669	965.332	82.7316	965.332	82.6913	965.332	82.2874	965.332	82.219	965.332	81.5566	965.332	81.4843	965.332	80.6049	965.332	80.556	965.332	79.5827	965.332	79.5648	965.332	78.7248	965.332	78.7081	965.332	78.2023	965.332	78.1525	965.332	77.936	965.332	77.8662	965.332	77.6531	965.332	77.6029	965.332	77.0598	965.332	77.0477	965.332	75.8797	965.332	75.9025	965.332	73.7957	965.332	73.8666	965.332	70.5216	965.332	70.7364	965.332	67.7087	965.332	68.1049	965.332	69.9865	965.332	70.0637	965.332	73.0862	965.332	73.0263	965.332	74.8372	965.332	74.7885	965.332	75.3673
1000.49	82.8342	1000.49	82.6818	1000.49	82.6787	1000.49	82.2208	1000.49	82.2181	1000.49	81.4622	1000.49	81.4582	1000.49	80.4489	1000.49	80.4355	1000.49	79.2977	1000.49	79.2736	1000.49	78.2437	1000.49	78.2173	1000.49	77.5616	1000.49	77.5097	1000.49	77.3005	1000.49	77.1458	1000.49	77.1829	1000.49	76.8678	1000.49	76.8347	1000.49	76.3697	1000.49	75.9423	1000.49	75.3737	1000.49	74.2212	1000.49	73.6031	1000.49	71.4394	1000.49	70.8671	1000.49	68.5522	1000.49	68.1359	1000.49	69.5107	1000.49	68.9392	1000.49	72.2337	1000.49	71.6191	1000.49	73.8578	1000.49	73.4811	1000.49	74.2319
1035.64	83.0216	1035.64	82.8828	1035.64	82.9107	1035.64	82.4986	1035.64	82.5434	1035.64	81.8682	1035.64	81.9221	1035.64	81.0006	1035.64	81.0671	1035.64	79.9396	1035.64	80.027	1035.64	78.7828	1035.64	78.8994	1035.64	77.6796	1035.64	77.8307	1035.64	76.7854	1035.64	76.9287	1035.64	76.128	1035.64	76.1518	1035.64	75.4864	1035.64	75.3322	1035.64	74.4762	1035.64	74.238	1035.64	72.7478	1035.64	72.5651	1035.64	70.2451	1035.64	70.0627	1035.64	68.3545	1035.64	67.7022	1035.64	69.6626	1035.64	68.8709	1035.64	72.0926	1035.64	71.685	1035.64	73.6884	1035.64	73.5394	1035.64	74.1819
1072.27	83.1973	1072.27	83.0639	1072.27	82.9919	1072.27	82.5967	1072.27	82.4832	1072.27	81.8671	1072.27	81.7292	1072.27	81.0163	1072.27	80.8205	1072.27	80.1955	1072.27	79.9094	1072.27	79.466	1072.27	79.1636	1072.27	78.7574	1072.27	78.5765	1072.27	77.9053	1072.27	77.8962	1072.27	76.709	1072.27	76.8159	1072.27	75.0161	1072.27	75.1298	1072.27	72.8825	1072.27	72.7973	1072.27	70.8947	1072.27	70.2753	1072.27	70.3061	1072.27	69.3184	1072.27	71.4559	1072.27	70.8405	1072.27	73.1758	1072.27	72.9545	1072.27	74.6318	1072.27	74.584	1072.27	75.556	1072.27	75.5546	1072.27	75.8726
1108.89	84.142	1108.89	83.8947	1108.89	84.0038	1108.89	83.2554	1108.89	83.4778	1108.89	82.2308	1108.89	82.586	1108.89	80.9443	1108.89	81.441	1108.89	79.8018	1108.89	80.2979	1108.89	79.3208	1108.89	79.4703	1108.89	79.3768	1108.89	79.0523	1108.89	79.2856	1108.89	78.7712	1108.89	78.5123	1108.89	78.1785	1108.89	76.6928	1108.89	76.8093	1108.89	73.25	1108.89	74.0642	1108.89	66.5064	1108.89	68.7381	1108.89	64.6852	1108.89	64.4347	1108.89	72.2654	1108.89	71.5498	1108.89	76.1183	1108.89	75.8091	1108.89	78.2495	1108.89	78.1697	1108.89	79.3743	1108.89	79.3814	1108.89	79.7422
1148.44	85.6341	1148.44	85.4607	1148.44	85.373	1148.44	84.8089	1148.44	84.6777	1148.44	83.6041	1148.44	83.5078	1148.44	81.7978	1148.44	81.8336	1148.44	79.6401	1148.44	79.8921	1148.44	78.3619	1148.44	78.7227	1148.44	79.0864	1148.44	79.2317	1148.44	80.4115	1148.44	80.3213	1148.44	81.009	1148.44	80.8278	1148.44	80.4285	1148.44	80.288	1148.44	78.2973	1148.44	78.2912	1148.44	73.5454	1148.44	73.764	1148.44	62.8447	1148.44	62.7697	1148.44	72.4337	1148.44	71.7841	1148.44	77.9303	1148.44	77.5364	1148.44	80.5968	1148.44	80.3133	1148.44	81.857	1148.44	81.699	1148.44	82.177
1189.45	85.4252	1189.45	85.3238	1189.45	85.2267	1189.45	84.8947	1189.45	84.7048	1189.45	84.0369	1189.45	83.7872	1189.45	82.5579	1189.45	82.3306	1189.45	80.1826	1189.45	80.1069	1189.45	76.7922	1189.45	77.0573	1189.45	74.5573	1189.45	75.1852	1189.45	76.9125	1189.45	77.1984	1189.45	79.6071	1189.45	79.517	1189.45	80.8071	1189.45	80.4878	1189.45	80.3574	1189.45	79.9939	1189.45	78.0363	1189.45	77.8862	1189.45	73.5576	1189.45	74.0139	1189.45	72.3851	1189.45	72.4268	1189.45	77.1378	1189.45	76.5724	1189.45	80.2662	1189.45	79.8225	1189.45	81.8358	1189.45	81.611	1189.45	82.2481
1230.47	85.2174	1230.47	85.1817	1230.47	85.1693	1230.47	85.0071	1230.47	84.9864	1230.47	84.5368	1230.47	84.532	1230.47	83.5492	1230.47	83.5899	1230.47	81.7813	1230.47	81.8478	1230.47	78.9325	1230.47	78.8899	1230.47	75.3515	1230.47	74.8704	1230.47	75.3625	1230.47	74.7685	1230.47	78.4712	1230.47	78.1597	1230.47	80.4261	1230.47	80.2364	1230.47	80.8262	1230.47	80.7701	1230.47	79.7467	1230.47	79.8931	1230.47	77.1604	1230.47	77.5473	1230.47	73.9647	1230.47	74.2735	1230.47	75.0946	1230.47	74.7158	1230.47	78.5191	1230.47	78.1737	1230.47	80.6223	1230.47	80.4515	1230.47	81.2394
1274.41	84.6527	1274.41	84.6263	1274.41	84.6017	1274.41	84.5057	1274.41	84.4668	1274.41	84.2323	1274.41	84.1743	1274.41	83.6468	1274.41	83.5788	1274.41	82.4929	1274.41	82.4888	1274.41	80.4418	1274.41	80.6218	1274.41	77.0551	1274.41	77.4928	1274.41	72.7062	1274.41	72.9042	1274.41	73.7799	1274.41	72.7022	1274.41	77.4088	1274.41	76.5832	1274.41	79.1972	1274.41	78.7128	1274.41	79.1871	1274.41	79.0831	1274.41	77.4104	1274.41	77.8102	1274.41	73.732	1274.41	74.7022	1274.41	71.2997	1274.41	71.4958	1274.41	74.812	1274.41	74.3161	1274.41	77.5785	1274.41	77.3796	1274.41	78.414
1319.82	84.2006	1319.82	84.1123	1319.82	84.1827	1319.82	83.9638	1319.82	84.0364	1319.82	83.7427	1319.82	83.7472	1319.82	83.3015	1319.82	83.2294	1319.82	82.3876	1319.82	82.2844	1319.82	80.6768	1319.82	80.6199	1319.82	77.7275	1319.82	77.8498	1319.82	73.4241	1319.82	73.7046	1319.82	72.7329	1319.82	71.7471	1319.82	76.3577	1319.82	75.3035	1319.82	78.5909	1319.82	78.0044	1319.82	79.1339	1319.82	78.907	1319.82	78.0368	1319.82	78.0878	1319.82	75.0061	1319.82	75.4416	1319.82	71.0026	1319.82	71.7831	1319.82	72.942	1319.82	72.7431	1319.82	75.9518	1319.82	75.6932	1319.82	76.828
1366.7	84.6946	1366.7	84.6565	1366.7	84.5342	1366.7	84.3757	1366.7	84.2477	1366.7	83.9082	1366.7	83.8389	1366.7	83.3349	1366.7	83.2344	1366.7	82.5812	1366.7	82.3502	1366.7	81.3648	1366.7	81.0894	1366.7	79.2746	1366.7	79.2167	1366.7	75.7791	1366.7	76.3418	1366.7	71.1748	1366.7	72.9525	1366.7	72.2966	1366.7	73.462	1366.7	75.8156	1366.7	76.3047	1366.7	77.3285	1366.7	77.7544	1366.7	76.9445	1366.7	77.44	1366.7	74.6297	1366.7	75.1695	1366.7	70.2673	1366.7	70.4757	1366.7	68.945	1366.7	67.8693	1366.7	72.3315	1366.7	71.8422	1366.7	73.5011
1413.57	84.8396	1413.57	84.6111	1413.57	84.7684	1413.57	84.1643	1413.57	84.3418	1413.57	83.5711	1413.57	83.5672	1413.57	82.8415	1413.57	82.5846	1413.57	81.9425	1413.57	81.6024	1413.57	80.8275	1413.57	80.5832	1413.57	79.295	1413.57	79.1425	1413.57	76.855	1413.57	76.8399	1413.57	73.2726	1413.57	73.7936	1413.57	72.2711	1413.57	73.0122	1413.57	75.2309	1413.57	75.4589	1413.57	77.0543	1413.57	77.2298	1413.57	77.0857	1413.57	77.3928	1413.57	75.2562	1413.57	75.694	1413.57	70.6497	1413.57	71.0465	1413.57	58.9056	1413.57	56.6081	1413.57	65.7981	1413.57	65.8432	1413.57	69.0684
1463.38	85.0833	1463.38	84.9352	1463.38	84.8204	1463.38	84.386	1463.38	84.2017	1463.38	83.546	1463.38	83.3417	1463.38	82.6164	1463.38	82.3581	1463.38	81.7515	1463.38	81.2713	1463.38	80.8886	1463.38	80.0023	1463.38	79.7483	1463.38	78.4154	1463.38	78.032	1463.38	76.3003	1463.38	75.6842	1463.38	73.6565	1463.38	73.6563	1463.38	72.0934	1463.38	74.0238	1463.38	73.2405	1463.38	75.5097	1463.38	74.6792	1463.38	75.8524	1463.38	74.8987	1463.38	74.0086	1463.38	73.1939	1463.38	68.1453	1463.38	67.5879	1463.38	53.833	1463.38	52.0294	1463.38	68.5178	1463.38	68.5867	1463.38	70.9899
1516.11	85.1331	1516.11	85.0063	1516.11	84.788	1516.11	84.4339	1516.11	84.0273	1516.11	83.5121	1516.11	82.9768	1516.11	82.3739	1516.11	81.76	1516.11	81.1344	1516.11	80.4153	1516.11	79.8288	1516.11	78.8932	1516.11	78.3729	1516.11	77.0844	1516.11	76.6172	1516.11	74.8979	1516.11	74.6102	1516.11	72.6255	1516.11	73.2459	1516.11	71.6866	1516.11	73.7409	1516.11	72.8165	1516.11	74.9321	1516.11	74.0262	1516.11	75.0038	1516.11	73.9008	1516.11	72.8079	1516.11	71.6405	1516.11	66.1581	1516.11	65.0753	1516.11	58.7126	1516.11	57.5466	1516.11	68.8176	1516.11	68.3884	1516.11	70.7214
1568.85	84.3846	1568.85	84.202	1568.85	84.1294	1568.85	83.664	1568.85	83.4149	1568.85	82.8426	1568.85	82.3506	1568.85	81.7833	1568.85	81.1583	1568.85	80.534	1568.85	80.0117	1568.85	79.1706	1568.85	78.8582	1568.85	77.7171	1568.85	77.4658	1568.85	76.0125	1568.85	75.6223	1568.85	74.1059	1568.85	73.3562	1568.85	73.15	1568.85	71.5788	1568.85	73.7843	1568.85	71.7065	1568.85	74.4854	1568.85	72.6689	1568.85	73.9747	1568.85	72.8133	1568.85	71.3223	1568.85	71.1153	1568.85	64.2889	1568.85	65.5547	1568.85	57.333	1568.85	50.5517	1568.85	67.2171	1568.85	66.3986	1568.85	69.0696
1624.51	84.2972	1624.51	84.0351	1624.51	84.0427	1624.51	83.4637	1624.51	83.2243	1624.51	82.6978	1624.51	82.0096	1624.51	81.6502	1624.51	80.6907	1624.51	80.2857	1624.51	79.4394	1624.51	78.7908	1624.51	78.0722	1624.51	77.263	1624.51	76.2588	1624.51	75.4427	1624.51	73.8274	1624.51	73.2319	1624.51	71.3153	1624.51	71.7077	1624.51	70.5358	1624.51	72.4263	1624.51	71.2577	1624.51	73.6935	1624.51	72.071	1624.51	73.4387	1624.51	72.3503	1624.51	70.7617	1624.51	70.9403	1624.51	63.6921	1624.51	65.8004	1624.51	53.5301	1624.51	50.3056	1624.51	65.1435	1624.51	64.3972	1624.51	67.0756
1681.64	84.4756	1681.64	84.2895	1681.64	84.1935	1681.64	83.7751	1681.64	83.3465	1681.64	82.8959	1681.64	82.0557	1681.64	81.5923	1681.64	80.5742	1681.64	80.0791	1681.64	79.0942	1681.64	78.6907	1681.64	77.6311	1681.64	77.3301	1681.64	76.0113	1681.64	75.4313	1681.64	73.9065	1681.64	72.6153	1681.64	70.9037	1681.64	69.9377	1681.64	68.2445	1681.64	70.3322	1681.64	69.4909	1681.64	72.3024	1681.64	71.7851	1681.64	73.0692	1681.64	72.5105	1681.64	71.4306	1681.64	70.8859	1681.64	65.2282	1681.64	65.7521	1681.64	54.0595	1681.64	42.7644	1681.64	66.6727	1681.64	64.1097	1681.64	67.974
1741.7	83.996	1741.7	83.8355	1741.7	83.6588	1741.7	83.2933	1741.7	82.8053	1741.7	82.3425	1741.7	81.5795	1741.7	80.9577	1741.7	80.1204	1741.7	79.4199	1741.7	78.6015	1741.7	78.1267	1741.7	77.2535	1741.7	76.9733	1741.7	76.1006	1741.7	75.3103	1741.7	74.6971	1741.7	72.6865	1741.7	72.252	1741.7	69.918	1741.7	68.6445	1741.7	69.6721	1741.7	67.5923	1741.7	71.3298	1741.7	70.3049	1741.7	72.2647	1741.7	71.9874	1741.7	71.4211	1741.7	71.2051	1741.7	67.1163	1741.7	66.8817	1741.7	48.0287	1741.7	49.7486	1741.7	66.3864	1741.7	64.6608	1741.7	68.6086
1803.22	83.1634	1803.22	82.938	1803.22	82.9368	1803.22	82.366	1803.22	82.2611	1803.22	81.4536	1803.22	81.192	1803.22	80.1215	1803.22	79.8175	1803.22	78.5381	1803.22	78.4233	1803.22	77.1861	1803.22	77.1103	1803.22	76.1476	1803.22	75.7197	1803.22	74.7966	1803.22	74.2283	1803.22	72.7037	1803.22	72.1691	1803.22	70.3635	1803.22	68.8662	1803.22	69.6031	1803.22	66.6475	1803.22	71.1917	1803.22	68.6416	1803.22	72.3309	1803.22	70.407	1803.22	71.2217	1803.22	69.7982	1803.22	65.8951	1803.22	65.5629	1803.22	51.3552	1803.22	50.8679	1803.22	66.4782	1803.22	64.798	1803.22	68.4184
1866.21	82.9774	1866.21	82.9069	1866.21	82.8184	1866.21	82.4504	1866.21	82.3779	1866.21	81.3121	1866.21	81.5336	1866.21	79.609	1866.21	80.245	1866.21	77.9707	1866.21	78.8988	1866.21	76.7975	1866.21	77.8202	1866.21	75.7509	1866.21	76.7919	1866.21	74.3333	1866.21	75.5177	1866.21	72.3279	1866.21	73.7692	1866.21	70.0353	1866.21	71.3551	1866.21	68.7508	1866.21	68.9292	1866.21	70.4375	1866.21	69.559	1866.21	72.1615	1866.21	71.1048	1866.21	71.651	1866.21	69.7132	1866.21	67.0704	1866.21	64.5498	1866.21	49.1845	1866.21	56.528	1866.21	67.9424	1866.21	66.0638	1866.21	69.7281
1932.13	82.9767	1932.13	83.2134	1932.13	82.744	1932.13	82.8354	1932.13	82.5192	1932.13	81.2544	1932.13	81.7938	1932.13	78.9605	1932.13	80.2395	1932.13	77.4472	1932.13	78.5709	1932.13	76.7508	1932.13	77.788	1932.13	75.7896	1932.13	77.2279	1932.13	74.3302	1932.13	75.8587	1932.13	72.4104	1932.13	73.8573	1932.13	70.1923	1932.13	72.0728	1932.13	69.0337	1932.13	70.9149	1932.13	69.972	1932.13	70.7635	1932.13	72.0299	1932.13	70.7476	1932.13	72.8315	1932.13	68.3682	1932.13	69.7818	1932.13	62.0777	1932.13	55.0286	1932.13	53.3966	1932.13	68.7923	1932.13	67.1744	1932.13	70.869
1999.51	82.6853	1999.51	82.6619	1999.51	82.5763	1999.51	81.8717	1999.51	82.384	1999.51	79.9363	1999.51	81.6871	1999.51	77.9518	1999.51	80.1593	1999.51	76.8437	1999.51	78.3695	1999.51	75.6938	1999.51	77.6438	1999.51	74.2458	1999.51	77.4708	1999.51	73.0343	1999.51	76.175	1999.51	71.581	1999.51	74.1012	1999.51	69.3384	1999.51	72.388	1999.51	69.6917	1999.51	71.1905	1999.51	71.0342	1999.51	70.7362	1999.51	72.0969	1999.51	70.4582	1999.51	72.5074	1999.51	69.8014	1999.51	69.3946	1999.51	68.1833	1999.51	52.4231	1999.51	58.4334	1999.51	67.0882	1999.51	62.3354	1999.51	68.54
2069.82	83.4295	2069.82	83.1028	2069.82	83.2236	2069.82	81.972	2069.82	82.8257	2069.82	80.3815	2069.82	82.2075	2069.82	78.9538	2069.82	80.9805	2069.82	77.05	2069.82	78.9693	2069.82	74.382	2069.82	76.9034	2069.82	72.5681	2069.82	75.8137	2069.82	72.859	2069.82	74.7319	2069.82	72.6925	2069.82	73.639	2069.82	69.1615	2069.82	72.5429	2069.82	65.1576	2069.82	70.276	2069.82	69.1049	2069.82	69.1415	2069.82	71.4947	2069.82	71.0353	2069.82	71.5263	2069.82	72.4466	2069.82	67.9199	2069.82	70.3734	2069.82	49.7839	2069.82	56.7941	2069.82	65.8532	2069.82	65.5316	2069.82	68.6431
2143.07	84.5046	2143.07	84.0965	2143.07	84.3966	2143.07	83.1086	2143.07	83.9103	2143.07	81.9379	2143.07	83.1556	2143.07	80.7889	2143.07	82.1092	2143.07	78.9348	2143.07	80.5158	2143.07	76.2429	2143.07	78.5635	2143.07	73.6997	2143.07	77.2103	2143.07	72.6787	2143.07	76.2177	2143.07	72.7432	2143.07	75.1089	2143.07	70.4815	2143.07	73.999	2143.07	63.8245	2143.07	72.3114	2143.07	65.3371	2143.07	70.5354	2143.07	70.1975	2143.07	71.3625	2143.07	71.4615	2143.07	72.7873	2143.07	68.632	2143.07	71.3368	2143.07	55.2653	2143.07	62.5747	2143.07	63.5639	2143.07	60.3345	2143.07	66.2128
2219.24	84.6851	2219.24	84.3436	2219.24	84.5257	2219.24	83.7492	2219.24	83.8218	2219.24	82.8299	2219.24	82.8357	2219.24	81.3979	2219.24	81.5984	2219.24	79.7027	2219.24	79.8404	2219.24	78.2353	2219.24	77.8865	2219.24	76.6821	2219.24	76.5624	2219.24	74.832	2219.24	75.5059	2219.24	73.4808	2219.24	74.6163	2219.24	72.7113	2219.24	73.0492	2219.24	70.3766	2219.24	69.7859	2219.24	66.8731	2219.24	68.7328	2219.24	69.4483	2219.24	70.2935	2219.24	70.7516	2219.24	71.9863	2219.24	68.4501	2219.24	69.8927	2219.24	56.4527	2219.24	58.2549	2219.24	63.0337	2219.24	64.4364	2219.24	67.1897
2296.88	84.0835	2296.88	83.8256	2296.88	83.8704	2296.88	83.1608	2296.88	83.2337	2296.88	82.074	2296.88	82.2553	2296.88	80.6977	2296.88	81.0627	2296.88	79.3731	2296.88	79.696	2296.88	77.9803	2296.88	78.1479	2296.88	76.3608	2296.88	76.4701	2296.88	74.4375	2296.88	74.5905	2296.88	72.8073	2296.88	72.9056	2296.88	71.8084	2296.88	71.4413	2296.88	69.9772	2296.88	69.053	2296.88	67.6514	2296.88	66.8496	2296.88	69.429	2296.88	68.6278	2296.88	71.6552	2296.88	71.2977	2296.88	70.137	2296.88	70.1586	2296.88	62.6666	2296.88	62.3816	2296.88	60.6333	2296.88	60.2209	2296.88	65.1743
2378.91	85.3752	2378.91	85.0584	2378.91	85.1309	2378.91	84.208	2378.91	84.4273	2378.91	83.0569	2378.91	83.2986	2378.91	81.7272	2378.91	82.0363	2378.91	80.1591	2378.91	80.785	2378.91	78.4968	2378.91	79.2984	2378.91	76.8526	2378.91	77.7441	2378.91	74.99	2378.91	76.0719	2378.91	72.7705	2378.91	74.3369	2378.91	71.4787	2378.91	72.8847	2378.91	70.1783	2378.91	70.8116	2378.91	67.3953	2378.91	67.8986	2378.91	68.1003	2378.91	68.0503	2378.91	71.1849	2378.91	70.7415	2378.91	70.3627	2378.91	70.4146	2378.91	63.8257	2378.91	64.7767	2378.91	61.9551	2378.91	61.8106	2378.91	65.9875
2462.4	85.6179	2462.4	85.4708	2462.4	85.316	2462.4	84.8848	2462.4	84.6393	2462.4	84.0134	2462.4	83.6	2462.4	82.7501	2462.4	82.2458	2462.4	81.2131	2462.4	80.5615	2462.4	79.6235	2462.4	78.868	2462.4	78.0972	2462.4	77.527	2462.4	76.5238	2462.4	76.2393	2462.4	74.4408	2462.4	74.603	2462.4	72.7052	2462.4	72.811	2462.4	71.1505	2462.4	70.7672	2462.4	68.3797	2462.4	67.9268	2462.4	67.4516	2462.4	67.2285	2462.4	71.2074	2462.4	71.1071	2462.4	71.431	2462.4	71.3716	2462.4	66.0342	2462.4	65.843	2462.4	63.8213	2462.4	62.2129	2462.4	65.9403
2548.83	84.8263	2548.83	84.5674	2548.83	84.605	2548.83	83.9216	2548.83	83.985	2548.83	83.037	2548.83	83.0205	2548.83	81.8601	2548.83	81.8704	2548.83	80.352	2548.83	80.2287	2548.83	78.6115	2548.83	78.0171	2548.83	76.8453	2548.83	76.366	2548.83	75.7479	2548.83	75.2638	2548.83	74.05	2548.83	73.9979	2548.83	72.4363	2548.83	72.5172	2548.83	71.7251	2548.83	70.871	2548.83	69.0466	2548.83	67.8348	2548.83	66.4932	2548.83	64.8678	2548.83	69.1251	2548.83	68.6514	2548.83	70.1935	2548.83	70.3202	2548.83	65.7439	2548.83	66.1646	2548.83	66.3252	2548.83	62.8397	2548.83	68.0332
2639.65	85.1619	2639.65	84.8142	2639.65	84.9802	2639.65	84.1871	2639.65	84.4026	2639.65	83.307	2639.65	83.5312	2639.65	82.1817	2639.65	82.475	2639.65	80.9107	2639.65	81.1247	2639.65	79.2341	2639.65	79.2501	2639.65	77.4211	2639.65	77.3847	2639.65	75.4331	2639.65	75.7069	2639.65	73.1271	2639.65	73.9887	2639.65	71.4827	2639.65	72.9309	2639.65	71.7877	2639.65	72.3372	2639.65	69.7728	2639.65	70.2728	2639.65	66.2856	2639.65	65.3488	2639.65	69.7846	2639.65	68.6738	2639.65	70.5127	2639.65	70.6326	2639.65	64.7217	2639.65	67.6463	2639.65	62.5418	2639.65	60.9457	2639.65	65.6447
2731.93	85.234	2731.93	84.9595	2731.93	85.0932	2731.93	84.5101	2731.93	84.4745	2731.93	83.7977	2731.93	83.6836	2731.93	82.8074	2731.93	82.7495	2731.93	81.5322	2731.93	81.4727	2731.93	79.921	2731.93	79.6468	2731.93	77.9732	2731.93	77.5092	2731.93	76.4425	2731.93	75.9859	2731.93	74.5227	2731.93	74.1205	2731.93	71.807	2731.93	71.6433	2731.93	72.0211	2731.93	71.8292	2731.93	72.0497	2731.93	72.039	2731.93	66.8892	2731.93	67.4931	2731.93	67.7914	2731.93	67.1978	2731.93	71.2737	2731.93	70.5401	2731.93	68.8377	2731.93	68.5198	2731.93	64.8563	2731.93	66.6538	2731.93	67.8069
2828.61	85.4209	2828.61	85.2336	2828.61	85.2121	2828.61	84.6339	2828.61	84.4719	2828.61	83.7358	2828.61	83.4572	2828.61	82.7065	2828.61	82.5494	2828.61	81.6115	2828.61	81.6211	2828.61	80.1972	2828.61	80.0608	2828.61	77.9981	2828.61	77.5311	2828.61	76.0427	2828.61	75.8494	2828.61	74.9424	2828.61	74.7263	2828.61	71.8665	2828.61	71.114	2828.61	70.6292	2828.61	70.2383	2828.61	73.2737	2828.61	72.2735	2828.61	69.972	2828.61	69.6544	2828.61	67.1355	2828.61	65.0801	2828.61	70.7794	2828.61	69.489	2828.61	69.5905	2828.61	68.8859	2828.61	66.2413	2828.61	65.2106	2828.61	67.4421
2928.22	85.0154	2928.22	84.8061	2928.22	84.855	2928.22	84.1216	2928.22	84.2417	2928.22	83.2633	2928.22	83.2768	2928.22	82.1799	2928.22	82.2979	2928.22	81.1002	2928.22	81.3087	2928.22	79.8532	2928.22	79.9711	2928.22	77.6796	2928.22	77.8558	2928.22	75.5285	2928.22	75.4925	2928.22	74.6627	2928.22	74.7305	2928.22	72.6944	2928.22	72.4915	2928.22	68.9421	2928.22	67.8153	2928.22	71.5275	2928.22	70.4471	2928.22	70.3166	2928.22	70.1006	2928.22	64.5857	2928.22	65.2617	2928.22	69.2544	2928.22	68.4041	2928.22	68.1821	2928.22	68.4386	2928.22	67.8994	2928.22	67.4922	2928.22	69.0952
3030.76	85.3393	3030.76	85.2575	3030.76	85.1282	3030.76	84.8801	3030.76	84.874	3030.76	84.1638	3030.76	84.2135	3030.76	82.9893	3030.76	82.9174	3030.76	81.6328	3030.76	81.3327	3030.76	80.1839	3030.76	79.9805	3030.76	77.8456	3030.76	78.1139	3030.76	75.0448	3030.76	75.373	3030.76	73.7928	3030.76	74.2511	3030.76	72.793	3030.76	72.7568	3030.76	67.7673	3030.76	68.367	3030.76	68.452	3030.76	70.0849	3030.76	70.0882	3030.76	70.8523	3030.76	66.4913	3030.76	66.2965	3030.76	68.5281	3030.76	68.506	3030.76	66.8889	3030.76	68.2602	3030.76	65.9874	3030.76	66.2243	3030.76	68.4489
3137.7	85.4043	3137.7	85.301	3137.7	85.2582	3137.7	85.0252	3137.7	84.8635	3137.7	84.3664	3137.7	84.1573	3137.7	83.3549	3137.7	82.7992	3137.7	81.6881	3137.7	80.9607	3137.7	80.0494	3137.7	79.5864	3137.7	78.2332	3137.7	77.8825	3137.7	75.6139	3137.7	75.1572	3137.7	74.447	3137.7	73.0796	3137.7	73.0074	3137.7	72.8091	3137.7	69.8455	3137.7	69.4389	3137.7	69.3357	3137.7	69.2992	3137.7	70.7177	3137.7	71.0361	3137.7	66.0548	3137.7	66.0152	3137.7	68.4797	3137.7	67.3969	3137.7	67.3473	3137.7	66.7477	3137.7	67.136	3137.7	66.8842	3137.7	69.0642
3249.02	85.7715	3249.02	85.5917	3249.02	85.6434	3249.02	85.0797	3249.02	85.0757	3249.02	84.2709	3249.02	84.3635	3249.02	83.0326	3249.02	83.3133	3249.02	81.1067	3249.02	81.5287	3249.02	79.2534	3249.02	79.6906	3249.02	77.6928	3249.02	77.9697	3249.02	74.6529	3249.02	75.5366	3249.02	71.6769	3249.02	73.2357	3249.02	71.1724	3249.02	72.3515	3249.02	68.1184	3249.02	69.3078	3249.02	68.6547	3249.02	67.9475	3249.02	70.5358	3249.02	71.1099	3249.02	66.8937	3249.02	68.209	3249.02	67.4744	3249.02	67.0262	3249.02	67.2777	3249.02	68.3423	3249.02	66.2692	3249.02	64.4933	3249.02	68.2575
3363.28	85.4118	3363.28	85.3015	3363.28	85.2553	3363.28	85.0159	3363.28	84.8427	3363.28	84.5569	3363.28	84.2605	3363.28	83.5912	3363.28	83.1541	3363.28	81.9065	3363.28	81.4919	3363.28	79.7143	3363.28	79.5028	3363.28	78.0774	3363.28	77.7443	3363.28	75.6346	3363.28	75.628	3363.28	73.1373	3363.28	73.0277	3363.28	72.8249	3363.28	71.7354	3363.28	69.2716	3363.28	69.4838	3363.28	66.7325	3363.28	64.6442	3363.28	70.2991	3363.28	70.0874	3363.28	67.8422	3363.28	68.0802	3363.28	67.5613	3363.28	68.092	3363.28	67.8814	3363.28	68.1129	3363.28	65.6359	3363.28	65.4121	3363.28	68.8866
3481.93	85.4573	3481.93	85.341	3481.93	85.3591	3481.93	85.0717	3481.93	85.0315	3481.93	84.4468	3481.93	84.5479	3481.93	83.4015	3481.93	83.6914	3481.93	81.6565	3481.93	81.9358	3481.93	79.2505	3481.93	79.6166	3481.93	76.8752	3481.93	77.5119	3481.93	74.6099	3481.93	75.8497	3481.93	72.1694	3481.93	73.208	3481.93	72.011	3481.93	71.8677	3481.93	70.2107	3481.93	70.9774	3481.93	63.7521	3481.93	65.4202	3481.93	69.3379	3481.93	69.7399	3481.93	68.1598	3481.93	68.5982	3481.93	68.7055	3481.93	67.1521	3481.93	68.6165	3481.93	69.3946	3481.93	66.3906	3481.93	66.1119	3481.93	68.5074
3604.98	85.5918	3604.98	85.506	3604.98	85.4833	3604.98	85.2943	3604.98	85.1571	3604.98	84.7928	3604.98	84.5591	3604.98	83.8185	3604.98	83.5806	3604.98	82.3681	3604.98	81.8978	3604.98	80.4227	3604.98	79.6528	3604.98	77.9352	3604.98	77.1144	3604.98	75.6326	3604.98	75.0812	3604.98	73.1505	3604.98	72.5824	3604.98	70.7735	3604.98	70.5986	3604.98	70.6803	3604.98	69.8099	3604.98	65.3797	3604.98	65.5616	3604.98	67.3911	3604.98	67.7412	3604.98	67.0313	3604.98	68.0359	3604.98	67.9613	3604.98	66.1735	3604.98	68.6094	3604.98	68.8411	3604.98	66.261	3604.98	67.2143	3604.98	68.3467
3732.42	85.2246	3732.42	85.2111	3732.42	85.19	3732.42	84.9715	3732.42	85.0156	3732.42	84.3856	3732.42	84.6409	3732.42	83.3423	3732.42	83.7227	3732.42	81.8056	3732.42	82.396	3732.42	79.65	3732.42	80.3085	3732.42	77.4983	3732.42	77.9612	3732.42	74.7127	3732.42	75.968	3732.42	72.291	3732.42	73.4083	3732.42	70.4437	3732.42	70.9637	3732.42	70.1763	3732.42	70.1443	3732.42	66.2408	3732.42	66.2713	3732.42	67.2828	3732.42	65.944	3732.42	67.089	3732.42	67.8568	3732.42	67.432	3732.42	66.1549	3732.42	68.965	3732.42	69.2164	3732.42	66.7916	3732.42	65.3391	3732.42	68.1535
3864.26	85.2827	3864.26	85.4534	3864.26	85.3197	3864.26	85.5461	3864.26	85.336	3864.26	85.0895	3864.26	84.8153	3864.26	84.0512	3864.26	83.6641	3864.26	82.5012	3864.26	82.1532	3864.26	80.5414	3864.26	80.1641	3864.26	78.2891	3864.26	77.6951	3864.26	75.7716	3864.26	75.9564	3864.26	73.5692	3864.26	73.7491	3864.26	70.9529	3864.26	71.0904	3864.26	69.8452	3864.26	70.388	3864.26	66.4957	3864.26	67.3029	3864.26	66.3345	3864.26	65.774	3864.26	66.6761	3864.26	66.8339	3864.26	66.6188	3864.26	64.9077	3864.26	68.5251	3864.26	68.5269	3864.26	66.5405	3864.26	67.2363	3864.26	68.6244
4000.49	85.1184	4000.49	85.3453	4000.49	85.3478	4000.49	85.4285	4000.49	85.554	4000.49	85.0367	4000.49	85.21	4000.49	83.6625	4000.49	83.9773	4000.49	81.8659	4000.49	82.1707	4000.49	79.9398	4000.49	80.2199	4000.49	77.1898	4000.49	77.7273	4000.49	75.3666	4000.49	75.6687	4000.49	73.7458	4000.49	73.7604	4000.49	71.055	4000.49	71.272	4000.49	70.1901	4000.49	69.764	4000.49	66.5697	4000.49	67.7626	4000.49	66.7668	4000.49	65.7266	4000.49	67.0347	4000.49	68.4601	4000.49	66.2751	4000.49	64.8922	4000.49	68.295	4000.49	69.1063	4000.49	66.808	4000.49	65.9759	4000.49	68.7434
4141.11	85.4393	4141.11	85.6624	4141.11	85.7538	4141.11	85.9726	4141.11	85.8772	4141.11	85.4954	4141.11	85.606	4141.11	84.2602	4141.11	84.2269	4141.11	82.1984	4141.11	82.1701	4141.11	79.8656	4141.11	79.922	4141.11	77.5423	4141.11	77.7878	4141.11	75.2304	4141.11	75.6461	4141.11	73.3402	4141.11	72.8639	4141.11	70.792	4141.11	70.7351	4141.11	70.0942	4141.11	69.3608	4141.11	67.1916	4141.11	67.7467	4141.11	65.73	4141.11	66.5098	4141.11	68.8524	4141.11	68.5976	4141.11	64.6195	4141.11	63.6671	4141.11	68.6747	4141.11	68.4984	4141.11	68.4052	4141.11	66.6129	4141.11	69.0752
4287.6	85.7268	4287.6	85.7739	4287.6	85.7098	4287.6	85.6214	4287.6	85.7338	4287.6	84.9639	4287.6	85.4137	4287.6	83.9951	4287.6	84.2674	4287.6	81.9882	4287.6	82.4384	4287.6	79.3404	4287.6	80.0184	4287.6	77.1201	4287.6	77.5335	4287.6	74.8723	4287.6	74.8556	4287.6	72.1784	4287.6	72.4805	4287.6	70.1614	4287.6	69.9238	4287.6	68.2119	4287.6	69.3636	4287.6	68.5531	4287.6	68.2244	4287.6	61.7895	4287.6	59.5048	4287.6	68.8065	4287.6	68.821	4287.6	65.8459	4287.6	65.7165	4287.6	67.9409	4287.6	67.0989	4287.6	66.5998	4287.6	68.1041	4287.6	70.3358
4438.48	86.0541	4438.48	86.1665	4438.48	86.2591	4438.48	86.1331	4438.48	86.297	4438.48	85.5046	4438.48	85.5788	4438.48	84.1802	4438.48	84.2457	4438.48	82.3713	4438.48	82.4684	4438.48	80.4221	4438.48	80.3564	4438.48	77.5267	4438.48	77.8726	4438.48	75.6696	4438.48	75.7155	4438.48	73.2246	4438.48	73.9799	4438.48	69.9474	4438.48	71.116	4438.48	68.9392	4438.48	68.5903	4438.48	67.4067	4438.48	68.8137	4438.48	64.1387	4438.48	66.1348	4438.48	67.3135	4438.48	66.972	4438.48	64.9378	4438.48	64.0171	4438.48	65.2308	4438.48	68.4714	4438.48	61.764	4438.48	61.9499	4438.48	66.1687
4595.21	85.3035	4595.21	85.337	4595.21	85.6813	4595.21	85.3603	4595.21	85.6503	4595.21	84.6791	4595.21	85.2312	4595.21	83.3226	4595.21	83.8849	4595.21	81.5929	4595.21	82.1703	4595.21	79.5077	4595.21	79.9108	4595.21	76.8787	4595.21	78.1039	4595.21	74.6142	4595.21	75.6316	4595.21	72.4521	4595.21	73.741	4595.21	70.1313	4595.21	70.4878	4595.21	68.3398	4595.21	69.196	4595.21	67.3788	4595.21	67.2201	4595.21	64.1604	4595.21	63.5795	4595.21	67.7368	4595.21	67.9584	4595.21	64.4284	4595.21	64.4853	4595.21	69.3125	4595.21	67.9392	4595.21	64.1676	4595.21	64.1743	4595.21	66.1022
4756.35	85.4368	4756.35	85.5514	4756.35	85.5301	4756.35	85.2647	4756.35	85.6477	4756.35	84.5452	4756.35	84.8701	4756.35	83.4277	4756.35	83.5582	4756.35	81.7996	4756.35	81.9173	4756.35	79.5811	4756.35	80.0541	4756.35	77.6288	4756.35	77.8495	4756.35	75.2056	4756.35	75.1322	4756.35	72.8459	4756.35	73.25	4756.35	70.4188	4756.35	70.9522	4756.35	68.6245	4756.35	69.5327	4756.35	65.3123	4756.35	66.7996	4756.35	62.6966	4756.35	64.5454	4756.35	67.1545	4756.35	68.3316	4756.35	64.0048	4756.35	66.0734	4756.35	68.3182	4756.35	68.0457	4756.35	63.1893	4756.35	67.8623	4756.35	64.4541
4924.8	85.5434	4924.8	85.5566	4924.8	85.6412	4924.8	85.4392	4924.8	85.6091	4924.8	84.5274	4924.8	84.7704	4924.8	83.2004	4924.8	83.5269	4924.8	81.7069	4924.8	82.1032	4924.8	79.499	4924.8	80.0606	4924.8	77.2505	4924.8	77.7987	4924.8	74.8092	4924.8	75.5803	4924.8	72.2171	4924.8	72.7858	4924.8	69.6518	4924.8	69.8494	4924.8	69.0647	4924.8	68.7713	4924.8	65.785	4924.8	66.2206	4924.8	65.697	4924.8	65.5861	4924.8	67.3667	4924.8	67.4408	4924.8	64.2276	4924.8	65.3709	4924.8	65.1586	4924.8	67.5516	4924.8	61.6096	4924.8	64.2764	4924.8	65.3765
5097.66	85.5037	5097.66	85.4446	5097.66	85.5926	5097.66	85.1454	5097.66	85.2719	5097.66	84.2609	5097.66	84.707	5097.66	82.7947	5097.66	83.0878	5097.66	81.5208	5097.66	81.8182	5097.66	79.6654	5097.66	80.3338	5097.66	77.6513	5097.66	78.0092	5097.66	75.3034	5097.66	75.6713	5097.66	73.1742	5097.66	73.4828	5097.66	70.6943	5097.66	71.2489	5097.66	69.3707	5097.66	69.1394	5097.66	65.4804	5097.66	66.1244	5097.66	66.0138	5097.66	64.8472	5097.66	66.1424	5097.66	65.5676	5097.66	66.2876	5097.66	66.5534	5097.66	68.3621	5097.66	66.0122	5097.66	65.3561	5097.66	61.4616	5097.66	67.5143
5277.83	85.8311	5277.83	85.4764	5277.83	85.5855	5277.83	84.8895	5277.83	85.1837	5277.83	84.1885	5277.83	84.1165	5277.83	83.2097	5277.83	83.2068	5277.83	81.9298	5277.83	81.9439	5277.83	80.4435	5277.83	80.6162	5277.83	77.9955	5277.83	77.7507	5277.83	75.451	5277.83	75.4549	5277.83	71.8147	5277.83	72.0997	5277.83	69.9822	5277.83	70.7032	5277.83	67.5908	5277.83	68.0199	5277.83	66.2645	5277.83	67.1261	5277.83	65.1693	5277.83	64.7499	5277.83	65.9665	5277.83	66.2366	5277.83	66.0868	5277.83	68.2575	5277.83	65.9733	5277.83	66.5758	5277.83	59.5881	5277.83	65.7938	5277.83	60.4391
5463.87	85.9288	5463.87	85.3647	5463.87	85.6432	5463.87	84.7342	5463.87	84.9584	5463.87	84.2806	5463.87	84.4584	5463.87	83.608	5463.87	83.7474	5463.87	82.0722	5463.87	82.5877	5463.87	80.0695	5463.87	80.6104	5463.87	77.4737	5463.87	78.089	5463.87	74.504	5463.87	75.7	5463.87	71.4635	5463.87	72.738	5463.87	69.4414	5463.87	70.3826	5463.87	65.9383	5463.87	68.0478	5463.87	66.0978	5463.87	66.7505	5463.87	66.1669	5463.87	62.7891	5463.87	66.3914	5463.87	62.6018	5463.87	67.1717	5463.87	66.7491	5463.87	66.5673	5463.87	65.7284	5463.87	64.5459	5463.87	63.2783	5463.87	63.5045
5657.23	84.3395	5657.23	84.2684	5657.23	84.428	5657.23	84.4852	5657.23	84.7368	5657.23	84.671	5657.23	84.6202	5657.23	83.8278	5657.23	84.2305	5657.23	81.9748	5657.23	82.4782	5657.23	79.2499	5657.23	80.1644	5657.23	76.4526	5657.23	77.0791	5657.23	74.345	5657.23	74.5011	5657.23	71.3481	5657.23	71.3034	5657.23	70.2579	5657.23	69.4257	5657.23	65.907	5657.23	65.2458	5657.23	66.9475	5657.23	66.5412	5657.23	61.0956	5657.23	62.5152	5657.23	63.2105	5657.23	64.7534	5657.23	65.0871	5657.23	66.8447	5657.23	66.7111	5657.23	65.2049	5657.23	61.3961	5657.23	65.4437	5657.23	59.2817
5856.45	83.7902	5856.45	83.8436	5856.45	83.8286	5856.45	84.5064	5856.45	84.5369	5856.45	84.6752	5856.45	84.6221	5856.45	84.0891	5856.45	84.155	5856.45	82.7184	5856.45	82.8598	5856.45	80.5263	5856.45	80.6374	5856.45	78.3324	5856.45	78.3454	5856.45	75.5667	5856.45	75.7718	5856.45	73.283	5856.45	73.1384	5856.45	69.4507	5856.45	70.3843	5856.45	67.5398	5856.45	67.8366	5856.45	65.1296	5856.45	67.0537	5856.45	61.9632	5856.45	60.8642	5856.45	65.0344	5856.45	65.5225	5856.45	66.7477	5856.45	66.9685	5856.45	66.3849	5856.45	65.2221	5856.45	65.7756	5856.45	67.1819	5856.45	59.3354
6062.99	84.0025	6062.99	84.1308	6062.99	83.9583	6062.99	84.2211	6062.99	84.1383	6062.99	84.7402	6062.99	84.175	6062.99	83.9023	6062.99	83.9802	6062.99	82.9723	6062.99	82.7506	6062.99	80.7269	6062.99	81.0552	6062.99	78.278	6062.99	78.0901	6062.99	75.6116	6062.99	75.6686	6062.99	72.5747	6062.99	72.7299	6062.99	70.5352	6062.99	70.0694	6062.99	67.8044	6062.99	68.1892	6062.99	65.5935	6062.99	63.6382	6062.99	60.3325	6062.99	63.0105	6062.99	63.1165	6062.99	65.3814	6062.99	67.3148	6062.99	66.9694	6062.99	64.9852	6062.99	62.3637	6062.99	65.9193	6062.99	67.5357	6062.99	60.2485
6276.86	84.5755	6276.86	84.0271	6276.86	84.254	6276.86	83.8716	6276.86	84.2191	6276.86	84.042	6276.86	84.3221	6276.86	83.7561	6276.86	83.9058	6276.86	82.457	6276.86	82.6895	6276.86	80.1222	6276.86	80.2086	6276.86	77.5332	6276.86	77.8037	6276.86	74.4582	6276.86	74.5844	6276.86	72.0317	6276.86	71.3484	6276.86	68.1356	6276.86	69.6583	6276.86	67.6795	6276.86	66.4494	6276.86	64.0355	6276.86	63.5249	6276.86	63.9451	6276.86	60.5033	6276.86	62.3565	6276.86	63.3305	6276.86	67.568	6276.86	67.1103	6276.86	64.248	6276.86	62.3937	6276.86	64.4643	6276.86	65.6315	6276.86	59.4109
6498.05	84.5973	6498.05	84.2711	6498.05	84.3655	6498.05	83.5652	6498.05	84.1805	6498.05	83.9186	6498.05	84.2497	6498.05	83.2985	6498.05	83.9831	6498.05	81.93	6498.05	82.5359	6498.05	79.662	6498.05	80.3508	6498.05	76.9039	6498.05	77.3746	6498.05	74.2283	6498.05	75.1516	6498.05	71.436	6498.05	72.6397	6498.05	70.3275	6498.05	69.2827	6498.05	66.6614	6498.05	67.7322	6498.05	63.7961	6498.05	64.4946	6498.05	63.4864	6498.05	65.0229	6498.05	61.5259	6498.05	58.9667	6498.05	67.1098	6498.05	65.4936	6498.05	61.1888	6498.05	60.4201	6498.05	65.6972	6498.05	65.94	6498.05	60.2739
6726.56	84.8455	6726.56	84.0968	6726.56	84.3415	6726.56	83.3241	6726.56	83.8287	6726.56	83.454	6726.56	83.7064	6726.56	82.8966	6726.56	83.5798	6726.56	81.389	6726.56	82.1608	6726.56	78.9268	6726.56	79.8277	6726.56	76.6725	6726.56	77.3248	6726.56	73.5794	6726.56	74.4199	6726.56	70.8817	6726.56	71.9403	6726.56	67.7992	6726.56	69.2121	6726.56	66.7988	6726.56	65.9228	6726.56	64.631	6726.56	64.4132	6726.56	62.0477	6726.56	63.633	6726.56	60.2822	6726.56	60.0737	6726.56	65.1423	6726.56	65.0067	6726.56	61.5147	6726.56	62.1998	6726.56	61.8871	6726.56	64.8645	6726.56	60.6017
6963.87	84.8312	6963.87	84.1711	6963.87	84.2181	6963.87	83.3088	6963.87	83.7589	6963.87	83.1668	6963.87	83.8484	6963.87	82.4715	6963.87	83.3542	6963.87	80.9038	6963.87	81.9361	6963.87	78.6212	6963.87	79.6045	6963.87	75.9504	6963.87	77.0723	6963.87	73.2064	6963.87	74.6266	6963.87	70.7877	6963.87	71.7495	6963.87	68.6087	6963.87	68.5382	6963.87	64.8123	6963.87	67.4294	6963.87	62.756	6963.87	63.8938	6963.87	61.2849	6963.87	63.055	6963.87	59.6858	6963.87	61.2549	6963.87	64.2771	6963.87	64.4961	6963.87	61.5873	6963.87	63.0762	6963.87	63.7414	6963.87	64.9124	6963.87	54.0863
7209.96	84.8226	7209.96	84.2864	7209.96	84.4209	7209.96	83.5287	7209.96	84.0738	7209.96	83.2988	7209.96	83.821	7209.96	82.4386	7209.96	83.4155	7209.96	80.9286	7209.96	81.987	7209.96	78.4959	7209.96	79.6801	7209.96	75.8958	7209.96	77.255	7209.96	72.6824	7209.96	74.0407	7209.96	70.0417	7209.96	71.459	7209.96	66.9806	7209.96	69.1666	7209.96	64.7683	7209.96	66.3684	7209.96	63.3754	7209.96	64.1208	7209.96	61.027	7209.96	61.9725	7209.96	57.0623	7209.96	62.0209	7209.96	62.7391	7209.96	63.2018	7209.96	62.7448	7209.96	63.0525	7209.96	61.9208	7209.96	65.3371	7209.96	56.2596
7464.84	84.8347	7464.84	84.682	7464.84	84.9113	7464.84	84.0177	7464.84	84.4242	7464.84	83.5754	7464.84	84.3047	7464.84	82.5728	7464.84	83.6501	7464.84	81.1153	7464.84	82.1493	7464.84	78.6572	7464.84	79.9367	7464.84	75.7618	7464.84	77.5695	7464.84	72.8111	7464.84	74.3281	7464.84	70.118	7464.84	71.3847	7464.84	67.4054	7464.84	68.1448	7464.84	64.6956	7464.84	67.2259	7464.84	60.8668	7464.84	64.1942	7464.84	61.0903	7464.84	63.6352	7464.84	57.1997	7464.84	57.8111	7464.84	61.7397	7464.84	62.428	7464.84	61.9604	7464.84	63.2678	7464.84	63.3248	7464.84	65.1327	7464.84	54.4901
7727.05	85.3465	7727.05	85.1114	7727.05	85.4781	7727.05	84.5831	7727.05	85.1053	7727.05	83.6598	7727.05	84.6212	7727.05	82.6348	7727.05	83.7006	7727.05	80.9776	7727.05	82.2913	7727.05	78.7675	7727.05	80.246	7727.05	75.596	7727.05	77.4992	7727.05	72.855	7727.05	74.8652	7727.05	69.7033	7727.05	71.6722	7727.05	66.9388	7727.05	68.5796	7727.05	65.1241	7727.05	66.6697	7727.05	61.0242	7727.05	63.129	7727.05	60.6047	7727.05	62.1143	7727.05	57.5643	7727.05	57.4511	7727.05	61.4784	7727.05	62.3078	7727.05	61.7599	7727.05	63.4433	7727.05	62.7434	7727.05	64.4981	7727.05	52.379
7999.51	85.8121	7999.51	85.6431	7999.51	85.9642	7999.51	84.876	7999.51	85.5594	7999.51	83.6404	7999.51	84.69	7999.51	82.6075	7999.51	83.7361	7999.51	80.9466	7999.51	82.5518	7999.51	78.4503	7999.51	80.3213	7999.51	75.1895	7999.51	77.5146	7999.51	72.2654	7999.51	74.3149	7999.51	69.14	7999.51	70.9549	7999.51	66.9928	7999.51	68.4467	7999.51	65.0095	7999.51	66.5537	7999.51	60.5741	7999.51	63.1596	7999.51	59.4546	7999.51	61.6459	7999.51	56.8223	7999.51	57.7682	7999.51	60.1579	7999.51	60.6896	7999.51	61.8381	7999.51	64.1335	7999.51	61.1626	7999.51	63.5222	7999.51	54.2771
8282.23	86.2081	8282.23	86.0762	8282.23	86.4809	8282.23	85.2123	8282.23	85.8263	8282.23	83.8555	8282.23	85.1063	8282.23	82.4313	8282.23	83.904	8282.23	80.754	8282.23	82.6903	8282.23	77.9101	8282.23	80.0613	8282.23	74.4781	8282.23	77.1729	8282.23	71.5674	8282.23	74.0522	8282.23	68.6209	8282.23	70.7641	8282.23	66.4563	8282.23	68.1257	8282.23	63.0386	8282.23	66.131	8282.23	60.6779	8282.23	62.9799	8282.23	56.9143	8282.23	60.8078	8282.23	53.7934	8282.23	58.2347	8282.23	57.5558	8282.23	59.595	8282.23	62.0933	8282.23	64.1326	8282.23	60.0626	8282.23	62.6994	8282.23	54.6635
8573.73	86.3395	8573.73	86.2673	8573.73	86.6432	8573.73	85.5024	8573.73	86.1991	8573.73	83.9217	8573.73	85.1564	8573.73	82.4077	8573.73	84.0537	8573.73	80.4697	8573.73	82.6178	8573.73	77.5649	8573.73	79.8877	8573.73	73.602	8573.73	76.9918	8573.73	71.0379	8573.73	73.5396	8573.73	67.4595	8573.73	70.0375	8573.73	65.4069	8573.73	67.6887	8573.73	63.0464	8573.73	65.7821	8573.73	61.0238	8573.73	62.9576	8573.73	56.2418	8573.73	61.1674	8573.73	52.0824	8573.73	56.9626	8573.73	57.3821	8573.73	59.1942	8573.73	61.0236	8573.73	64.0998	8573.73	59.4622	8573.73	62.4741	8573.73	52.7011
8876.95	86.4759	8876.95	86.4663	8876.95	86.9256	8876.95	85.5853	8876.95	86.2684	8876.95	83.8101	8876.95	85.1708	8876.95	82.374	8876.95	84.0491	8876.95	80.1743	8876.95	82.5032	8876.95	77.0042	8876.95	79.585	8876.95	73.0365	8876.95	76.6682	8876.95	70.4902	8876.95	73.0038	8876.95	67.1661	8876.95	69.7588	8876.95	65.3567	8876.95	67.3407	8876.95	62.245	8876.95	65.1088	8876.95	59.9307	8876.95	62.9648	8876.95	56.8544	8876.95	60.3004	8876.95	52.7602	8876.95	57.2687	8876.95	56.3411	8876.95	59.3876	8876.95	61.1446	8876.95	62.963	8876.95	57.9094	8876.95	60.7586	8876.95	52.7184
9188.96	86.9295	9188.96	86.8574	9188.96	87.3043	9188.96	85.7254	9188.96	86.5132	9188.96	83.7885	9188.96	85.3992	9188.96	82.2223	9188.96	84.1377	9188.96	79.6889	9188.96	82.3804	9188.96	76.4114	9188.96	79.277	9188.96	72.7212	9188.96	76.1141	9188.96	70.3345	9188.96	72.7993	9188.96	67.0624	9188.96	69.8273	9188.96	65.0859	9188.96	67.0862	9188.96	62.4755	9188.96	64.8365	9188.96	60.3547	9188.96	62.7518	9188.96	55.9799	9188.96	59.2111	9188.96	52.3297	9188.96	55.9442	9188.96	56.7268	9188.96	59.9802	9188.96	60.1609	9188.96	62.6188	9188.96	55.0324	9188.96	58.9587	9188.96	54.7719
9514.16	87.5672	9514.16	87.3367	9514.16	87.7793	9514.16	86.0956	9514.16	86.8372	9514.16	84.1542	9514.16	85.7102	9514.16	82.3451	9514.16	84.327	9514.16	79.4471	9514.16	82.1357	9514.16	76.2263	9514.16	79.0086	9514.16	72.2887	9514.16	76.0663	9514.16	70.0808	9514.16	72.7859	9514.16	66.8116	9514.16	69.6073	9514.16	64.5922	9514.16	67.1668	9514.16	61.7344	9514.16	64.3942	9514.16	60.7287	9514.16	62.3869	9514.16	54.623	9514.16	60.0919	9514.16	52.9214	9514.16	56.6187	9514.16	56.4251	9514.16	60.1984	9514.16	59.228	9514.16	61.255	9514.16	55.953	9514.16	59.077	9514.16	54.7235
9849.61	88.0354	9849.61	87.8005	9849.61	88.2512	9849.61	86.4971	9849.61	87.2804	9849.61	84.5497	9849.61	86.1081	9849.61	82.286	9849.61	84.4901	9849.61	79.1075	9849.61	82.0209	9849.61	75.9872	9849.61	79.082	9849.61	71.8898	9849.61	76.108	9849.61	69.0575	9849.61	72.6196	9849.61	65.2116	9849.61	69.3836	9849.61	62.8396	9849.61	66.2986	9849.61	59.6513	9849.61	63.2095	9849.61	58.6043	9849.61	61.9206	9849.61	55.3333	9849.61	59.0553	9849.61	53.7259	9849.61	56.6086	9849.61	54.5136	9849.61	58.6733	9849.61	56.9466	9849.61	60.8448	9849.61	55.1532	9849.61	58.6196	9849.61	51.385
10196.8	88.704	10196.8	88.3232	10196.8	88.7823	10196.8	86.8881	10196.8	87.8542	10196.8	84.7089	10196.8	86.4989	10196.8	82.0957	10196.8	84.5049	10196.8	78.4448	10196.8	81.7904	10196.8	74.6339	10196.8	78.4638	10196.8	69.7915	10196.8	75.296	10196.8	66.4709	10196.8	71.2134	10196.8	62.3676	10196.8	67.2506	10196.8	60.3464	10196.8	64.6691	10196.8	56.991	10196.8	61.5716	10196.8	56.0738	10196.8	59.9139	10196.8	53.7126	10196.8	57.7688	10196.8	50.0088	10196.8	54.7102	10196.8	53.6424	10196.8	56.5642	10196.8	55.4084	10196.8	59.8136	10196.8	54.1987	10196.8	57.011	10196.8	50.2958
10555.7	89.1635	10555.7	88.7943	10555.7	89.194	10555.7	87.2849	10555.7	88.051	10555.7	84.9382	10555.7	86.7052	10555.7	82.0917	10555.7	84.3099	10555.7	77.6839	10555.7	81.0303	10555.7	72.9495	10555.7	77.4143	10555.7	67.3262	10555.7	73.7172	10555.7	64.4629	10555.7	69.2202	10555.7	61.1529	10555.7	64.453	10555.7	59.2193	10555.7	62.3113	10555.7	56.4818	10555.7	59.8906	10555.7	54.5182	10555.7	58.4392	10555.7	53.4687	10555.7	55.4437	10555.7	49.1941	10555.7	52.0616	10555.7	53.8134	10555.7	55.1433	10555.7	54.9937	10555.7	58.2185	10555.7	52.7248	10555.7	56.2133	10555.7	51.0793
10927.7	89.3577	10927.7	88.8727	10927.7	89.3032	10927.7	87.3298	10927.7	88.1198	10927.7	84.8008	10927.7	86.5898	10927.7	81.5509	10927.7	83.7654	10927.7	76.5723	10927.7	79.8419	10927.7	71.9689	10927.7	76.1679	10927.7	67.1901	10927.7	71.7102	10927.7	65.2347	10927.7	67.6635	10927.7	62.326	10927.7	64.8428	10927.7	60.648	10927.7	62.3763	10927.7	56.9053	10927.7	58.9846	10927.7	54.5791	10927.7	57.9913	10927.7	52.9722	10927.7	55.2546	10927.7	50.2569	10927.7	45.8644	10927.7	51.3755	10927.7	53.5302	10927.7	54.5674	10927.7	58.0894	10927.7	51.1853	10927.7	54.9121	10927.7	48.6744
11313	89.3383	11313	88.7597	11313	89.3784	11313	87.1581	11313	88.1908	11313	84.1623	11313	86.2284	11313	80.2091	11313	82.9598	11313	75.3035	11313	79.091	11313	69.4533	11313	74.719	11313	66.3331	11313	68.9589	11313	63.9301	11313	65.7167	11313	62.6052	11313	64.0774	11313	60.4598	11313	61.5333	11313	58.384	11313	58.5139	11313	56.7909	11313	57.8741	11313	52.5516	11313	53.9558	11313	50.8367	11313	46.9694	11313	50.1202	11313	53.0591	11313	55.116	11313	55.2966	11313	56.2777	11313	56.5747	11313	51.4481
11712.9	89.04	11712.9	88.41	11712.9	88.8131	11712.9	86.7683	11712.9	87.834	11712.9	84.0355	11712.9	86.0482	11712.9	80.1148	11712.9	82.6569	11712.9	74.3213	11712.9	78.5205	11712.9	69.8896	11712.9	72.7426	11712.9	69.5131	11712.9	70.2689	11712.9	68.0705	11712.9	68.7585	11712.9	65.4034	11712.9	64.47	11712.9	63.0137	11712.9	63.877	11712.9	61.1867	11712.9	60.8484	11712.9	58.2808	11712.9	61.5695	11712.9	56.2529	11712.9	56.7274	11712.9	50.4081	11712.9	48.7692	11712.9	50.5719	11712.9	45.182	11712.9	56.6785	11712.9	55.8799	11712.9	57.9291	11712.9	58.7313	11712.9	52.1691
12126	88.7348	12126	87.9186	12126	88.3798	12126	86.1779	12126	87.5696	12126	83.2959	12126	85.6371	12126	79.0034	12126	82.238	12126	74.7499	12126	78.3524	12126	73.905	12126	75.3164	12126	72.6803	12126	74.0378	12126	70.6661	12126	71.5561	12126	68.093	12126	69.5661	12126	64.9907	12126	66.4158	12126	61.9104	12126	62.9076	12126	60.277	12126	62.286	12126	58.8014	12126	59.9576	12126	53.8141	12126	55.6386	12126	52.745	12126	46.384	12126	57.5889	12126	57.9436	12126	58.8859	12126	59.4205	12126	48.4357
12553.7	88.0502	12553.7	87.0751	12553.7	87.8443	12553.7	85.4535	12553.7	87.0723	12553.7	82.3676	12553.7	84.8223	12553.7	79.8509	12553.7	82.8375	12553.7	78.3771	12553.7	79.9889	12553.7	76.9213	12553.7	77.5264	12553.7	75.5178	12553.7	76.1891	12553.7	71.9273	12553.7	73.6085	12553.7	68.9233	12553.7	70.545	12553.7	66.5823	12553.7	67.7646	12553.7	63.09	12553.7	64.2274	12553.7	62.6147	12553.7	63.2689	12553.7	61.2723	12553.7	62.069	12553.7	58.272	12553.7	58.4737	12553.7	53.8465	12553.7	40.3878	12553.7	59.4886	12553.7	58.7213	12553.7	57.3548	12553.7	59.8294	12553.7	48.1149
12996.1	87.7699	12996.1	86.5027	12996.1	87.1759	12996.1	84.6198	12996.1	87.006	12996.1	82.7878	12996.1	85.1309	12996.1	82.0881	12996.1	83.9722	12996.1	80.8608	12996.1	81.5284	12996.1	79.9876	12996.1	80.4284	12996.1	78.0368	12996.1	78.5068	12996.1	74.6206	12996.1	74.9379	12996.1	70.9514	12996.1	69.2743	12996.1	68.3541	12996.1	67.8838	12996.1	65.257	12996.1	64.8051	12996.1	63.207	12996.1	64.5998	12996.1	62.0241	12996.1	63.0649	12996.1	58.0346	12996.1	59.8168	12996.1	53.7945	12996.1	46.4143	12996.1	60.5115	12996.1	59.4452	12996.1	59.2338	12996.1	59.8353	12996.1	46.8789
13454.6	87.0958	13454.6	86.534	13454.6	87.2363	13454.6	84.477	13454.6	87.0364	13454.6	83.3108	13454.6	86.1828	13454.6	84.0773	13454.6	85.0152	13454.6	83.6453	13454.6	83.5879	13454.6	82.3619	13454.6	82.5102	13454.6	79.9994	13454.6	79.5322	13454.6	76.4006	13454.6	75.3902	13454.6	73.1574	13454.6	73.2059	13454.6	70.4632	13454.6	70.3485	13454.6	66.312	13454.6	66.4761	13454.6	64.6694	13454.6	65.6875	13454.6	63.3852	13454.6	63.6411	13454.6	60.4995	13454.6	61.6243	13454.6	53.746	13454.6	48.9613	13454.6	62.195	13454.6	60.022	13454.6	60.5553	13454.6	60.7575	13454.6	44.667
13929.2	87.2347	13929.2	86.2215	13929.2	88.1615	13929.2	85.0266	13929.2	87.1052	13929.2	84.3982	13929.2	87.2759	13929.2	85.3887	13929.2	86.7167	13929.2	85.8126	13929.2	86.191	13929.2	84.0533	13929.2	84.2708	13929.2	81.693	13929.2	81.4389	13929.2	77.5167	13929.2	78.6449	13929.2	74.2506	13929.2	75.9308	13929.2	71.4391	13929.2	72.4246	13929.2	67.6281	13929.2	68.4431	13929.2	65.9537	13929.2	67.6926	13929.2	64.3911	13929.2	66.3274	13929.2	61.1697	13929.2	63.8064	13929.2	50.409	13929.2	56.7336	13929.2	63.3602	13929.2	62.9062	13929.2	61.2605	13929.2	62.8029	13929.2	51.6899
14419.9	88.0498	14419.9	87.7963	14419.9	88.9115	14419.9	86.0759	14419.9	88.6568	14419.9	86.4055	14419.9	88.8678	14419.9	87.2311	14419.9	88.3125	14419.9	87.1438	14419.9	88.0517	14419.9	84.9074	14419.9	85.875	14419.9	82.5126	14419.9	83.6123	14419.9	78.3962	14419.9	80.5299	14419.9	74.7545	14419.9	75.9927	14419.9	71.8635	14419.9	72.9745	14419.9	68.1476	14419.9	68.6035	14419.9	66.5563	14419.9	69.3973	14419.9	64.1442	14419.9	67.1382	14419.9	61.323	14419.9	65.4007	14419.9	52.7122	14419.9	59.8225	14419.9	63.6475	14419.9	63.5435	14419.9	61.0271	14419.9	64.2978	14419.9	56.1389
14928.2	89.3694	14928.2	88.6876	14928.2	89.7946	14928.2	87.7282	14928.2	89.6876	14928.2	87.0282	14928.2	89.5665	14928.2	87.7051	14928.2	89.2257	14928.2	86.9564	14928.2	88.1285	14928.2	84.8076	14928.2	86.5282	14928.2	82.6686	14928.2	84.315	14928.2	78.4409	14928.2	80.1769	14928.2	74.7197	14928.2	76.8043	14928.2	71.2313	14928.2	72.8779	14928.2	66.7224	14928.2	67.3615	14928.2	65.4056	14928.2	69.0876	14928.2	62.9596	14928.2	67.0809	14928.2	59.674	14928.2	65.1731	14928.2	53.844	14928.2	59.1103	14928.2	63.0039	14928.2	63.4281	14928.2	59.1327	14928.2	62.815	14928.2	59.2086
15455.6	89.4443	15455.6	88.4679	15455.6	89.5674	15455.6	87.3457	15455.6	89.1063	15455.6	85.3535	15455.6	88.1651	15455.6	85.1695	15455.6	87.7419	15455.6	84.2764	15455.6	86.232	15455.6	81.8588	15455.6	84.4119	15455.6	79.1312	15455.6	81.3417	15455.6	74.2412	15455.6	77.0019	15455.6	70.5433	15455.6	73.7385	15455.6	67.4486	15455.6	69.2057	15455.6	62.1689	15455.6	64.7903	15455.6	61.3918	15455.6	66.4546	15455.6	58.6115	15455.6	64.2128	15455.6	55.5488	15455.6	61.3399	15455.6	45.7902	15455.6	54.3757	15455.6	59.9436	15455.6	60.9241	15455.6	54.9765	15455.6	58.8902	15455.6	56.7882
16000.5	87.8265	16000.5	87.0975	16000.5	87.69	16000.5	85.466	16000.5	87.3043	16000.5	83.0736	16000.5	85.6719	16000.5	81.5694	16000.5	84.4359	16000.5	79.5233	16000.5	82.6181	16000.5	76.2194	16000.5	80.2479	16000.5	73.3759	16000.5	76.408	16000.5	68.0009	16000.5	72.7835	16000.5	64.8315	16000.5	68.8805	16000.5	60.4328	16000.5	64.9236	16000.5	55.5798	16000.5	61.2517	16000.5	54.4297	16000.5	62.9409	16000.5	52.3883	16000.5	59.8488	16000.5	49.9398	16000.5	55.9354	16000.5	39.4904	16000.5	48.743	16000.5	54.998	16000.5	54.584	16000.5	51.4609	16000.5	52.6146	16000.5	52.3601
16564.5	86.2222	16564.5	85.3233	16564.5	86.0462	16564.5	83.6354	16564.5	85.2949	16564.5	80.4387	16564.5	83.3939	16564.5	77.4156	16564.5	81.2929	16564.5	73.7497	16564.5	78.8014	16564.5	68.7682	16564.5	75.2484	16564.5	65.5869	16564.5	71.7407	16564.5	61.2425	16564.5	68.3693	16564.5	57.7419	16564.5	64.227	16564.5	52.7279	16564.5	60.3286	16564.5	45.7831	16564.5	56.8449	16564.5	47.2896	16564.5	57.7482	16564.5	46.1324	16564.5	54.5941	16564.5	42.974	16564.5	51.3519	16564.5	31.3943	16564.5	43.2669	16564.5	49.305	16564.5	50.0529	16564.5	48.9964	16564.5	46.6934	16564.5	49.2874
17148.9	85.3329	17148.9	84.3324	17148.9	85.0882	17148.9	82.041	17148.9	84.1201	17148.9	78.0666	17148.9	81.5576	17148.9	72.7157	17148.9	78.8689	17148.9	66.8826	17148.9	75.2518	17148.9	60.7285	17148.9	72.2765	17148.9	60.0094	17148.9	68.7667	17148.9	55.7133	17148.9	64.658	17148.9	51.7137	17148.9	59.8573	17148.9	48.432	17148.9	55.7377	17148.9	35.8227	17148.9	52.653	17148.9	38.416	17148.9	54.0575	17148.9	41.3888	17148.9	51.9765	17148.9	38.2636	17148.9	48.0212	17148.9	30.8383	17148.9	39.9521	17148.9	46.9855	17148.9	47.0847	17148.9	43.2249	17148.9	20.9918	17148.9	35.9039
17752.4	84.2632	17752.4	83.0391	17752.4	83.9552	17752.4	80.3251	17752.4	82.9125	17752.4	75.6028	17752.4	79.9841	17752.4	68.2894	17752.4	76.8802	17752.4	57.9836	17752.4	73.0124	17752.4	54.1301	17752.4	70.3159	17752.4	55.3381	17752.4	65.8503	17752.4	49.6539	17752.4	61.4228	17752.4	49.4352	17752.4	57.0051	17752.4	45.2605	17752.4	52.1014	17752.4	36.8607	17752.4	50.8026	17752.4	32.4653	17752.4	50.7906	17752.4	38.0607	17752.4	49.5888	17752.4	33.4156	17752.4	45.9988	17752.4	28.702	17752.4	35.7798	17752.4	38.16	17752.4	41.0151	17752.4	36.5148	17752.4	33.0047	17752.4	40.5442
18379.4	83.1904	18379.4	81.7389	18379.4	82.7647	18379.4	78.5807	18379.4	81.5686	18379.4	72.7186	18379.4	78.1753	18379.4	62.5302	18379.4	74.7656	18379.4	47.6533	18379.4	71.0625	18379.4	52.1547	18379.4	68.4132	18379.4	55.0296	18379.4	65.0923	18379.4	50.4299	18379.4	60.7581	18379.4	49.3391	18379.4	56.2449	18379.4	43.9266	18379.4	51.3882	18379.4	39.7764	18379.4	50.0854	18379.4	38.5181	18379.4	49.5421	18379.4	38.925	18379.4	48.5809	18379.4	28.9623	18379.4	46.0366	18379.4	32.3081	18379.4	34.4096	18379.4	21.2317	18379.4	40.7541	18379.4	35.7144	18379.4	32.6407	18379.4	42.6989
19026.9	82.2033	19026.9	80.5196	19026.9	81.7768	19026.9	77.1731	19026.9	80.4533	19026.9	71.2813	19026.9	76.7624	19026.9	64.4891	19026.9	73.1255	19026.9	59.516	19026.9	69.789	19026.9	53.0194	19026.9	68.12	19026.9	55.3289	19026.9	65.5829	19026.9	51.7513	19026.9	61.3149	19026.9	49.4675	19026.9	56.9948	19026.9	46.5211	19026.9	52.7235	19026.9	43.7388	19026.9	50.9546	19026.9	42.2107	19026.9	50.0209	19026.9	36.6063	19026.9	48.7429	19026.9	21.5311	19026.9	46.9464	19026.9	34.7548	19026.9	31.8904	19026.9	34.6305	19026.9	42.4348	19026.9	29.7305	19026.9	40.6071	19026.9	39.6831
19697.8	81.7352	19697.8	79.9794	19697.8	81.359	19697.8	77.1582	19697.8	79.7765	19697.8	72.9897	19697.8	75.7313	19697.8	68.7142	19697.8	70.8708	19697.8	61.6882	19697.8	69.3024	19697.8	50.3941	19697.8	69.3311	19697.8	59.843	19697.8	67.4658	19697.8	57.6716	19697.8	63.4584	19697.8	54.2131	19697.8	59.4961	19697.8	51.1336	19697.8	55.0754	19697.8	46.5993	19697.8	53.2376	19697.8	44.9807	19697.8	51.854	19697.8	40.0872	19697.8	49.5818	19697.8	29.6916	19697.8	48.0568	19697.8	34.1537	19697.8	25.4805	19697.8	37.2378	19697.8	44.7772	19697.8	30.2173	19697.8	42.5929	19697.8	40.4008
19999.5	81.4876	19999.5	80.02	19999.5	81.2413	19999.5	77.8016	19999.5	79.4871	19999.5	73.9138	19999.5	75.1669	19999.5	69.6485	19999.5	68.9279	19999.5	59.8881	19999.5	68.218	19999.5	57.6807	19999.5	69.268	19999.5	62.8601	19999.5	68.3247	19999.5	60.3109	19999.5	63.7645	19999.5	56.8478	19999.5	60.209	19999.5	54.1744	19999.5	55.1521	19999.5	49.7725	19999.5	52.1605	19999.5	42.5057	19999.5	51.9056	19999.5	45.5599	19999.5	50.9273	19999.5	35.7637	19999.5	46.3791	19999.5	40.7712	19999.5	41.8701	19999.5	42.1813	19999.5	46.1672	19999.5	31.0065	19999.5	45.7967	19999.5	33.2094
