"SPL Vertical"
"On-Axis"		"10°"		"-10°"		"20°"		"-20°"		"30°"		"-30°"		"40°"		"-40°"		"50°"		"-50°"		"60°"		"-60°"		"70°"		"-70°"		"80°"		"-80°"		"90°"		"-90°"		"100°"		"-100°"		"110°"		"-110°"		"120°"		"-120°"		"130°"		"-130°"		"140°"		"-140°"		"150°"		"-150°"		"160°"		"-160°"		"170°"		"-170°"		"180°"
"Frequency / Hz"	"Sound Pressure Level / dB (re 20 µPa/V)  [2.83V at 1m]"	"Frequency / Hz"	"Sound Pressure Level / dB (re 20 µPa/V)  [2.83V at 1m]"	"Frequency / Hz"	"Sound Pressure Level / dB (re 20 µPa/V)  [2.83V at 1m]"	"Frequency / Hz"	"Sound Pressure Level / dB (re 20 µPa/V)  [2.83V at 1m]"	"Frequency / Hz"	"Sound Pressure Level / dB (re 20 µPa/V)  [2.83V at 1m]"	"Frequency / Hz"	"Sound Pressure Level / dB (re 20 µPa/V)  [2.83V at 1m]"	"Frequency / Hz"	"Sound Pressure Level / dB (re 20 µPa/V)  [2.83V at 1m]"	"Frequency / Hz"	"Sound Pressure Level / dB (re 20 µPa/V)  [2.83V at 1m]"	"Frequency / Hz"	"Sound Pressure Level / dB (re 20 µPa/V)  [2.83V at 1m]"	"Frequency / Hz"	"Sound Pressure Level / dB (re 20 µPa/V)  [2.83V at 1m]"	"Frequency / Hz"	"Sound Pressure Level / dB (re 20 µPa/V)  [2.83V at 1m]"	"Frequency / Hz"	"Sound Pressure Level / dB (re 20 µPa/V)  [2.83V at 1m]"	"Frequency / Hz"	"Sound Pressure Level / dB (re 20 µPa/V)  [2.83V at 1m]"	"Frequency / Hz"	"Sound Pressure Level / dB (re 20 µPa/V)  [2.83V at 1m]"	"Frequency / Hz"	"Sound Pressure Level / dB (re 20 µPa/V)  [2.83V at 1m]"	"Frequency / Hz"	"Sound Pressure Level / dB (re 20 µPa/V)  [2.83V at 1m]"	"Frequency / Hz"	"Sound Pressure Level / dB (re 20 µPa/V)  [2.83V at 1m]"	"Frequency / Hz"	"Sound Pressure Level / dB (re 20 µPa/V)  [2.83V at 1m]"	"Frequency / Hz"	"Sound Pressure Level / dB (re 20 µPa/V)  [2.83V at 1m]"	"Frequency / Hz"	"Sound Pressure Level / dB (re 20 µPa/V)  [2.83V at 1m]"	"Frequency / Hz"	"Sound Pressure Level / dB (re 20 µPa/V)  [2.83V at 1m]"	"Frequency / Hz"	"Sound Pressure Level / dB (re 20 µPa/V)  [2.83V at 1m]"	"Frequency / Hz"	"Sound Pressure Level / dB (re 20 µPa/V)  [2.83V at 1m]"	"Frequency / Hz"	"Sound Pressure Level / dB (re 20 µPa/V)  [2.83V at 1m]"	"Frequency / Hz"	"Sound Pressure Level / dB (re 20 µPa/V)  [2.83V at 1m]"	"Frequency / Hz"	"Sound Pressure Level / dB (re 20 µPa/V)  [2.83V at 1m]"	"Frequency / Hz"	"Sound Pressure Level / dB (re 20 µPa/V)  [2.83V at 1m]"	"Frequency / Hz"	"Sound Pressure Level / dB (re 20 µPa/V)  [2.83V at 1m]"	"Frequency / Hz"	"Sound Pressure Level / dB (re 20 µPa/V)  [2.83V at 1m]"	"Frequency / Hz"	"Sound Pressure Level / dB (re 20 µPa/V)  [2.83V at 1m]"	"Frequency / Hz"	"Sound Pressure Level / dB (re 20 µPa/V)  [2.83V at 1m]"	"Frequency / Hz"	"Sound Pressure Level / dB (re 20 µPa/V)  [2.83V at 1m]"	"Frequency / Hz"	"Sound Pressure Level / dB (re 20 µPa/V)  [2.83V at 1m]"	"Frequency / Hz"	"Sound Pressure Level / dB (re 20 µPa/V)  [2.83V at 1m]"	"Frequency / Hz"	"Sound Pressure Level / dB (re 20 µPa/V)  [2.83V at 1m]"	"Frequency / Hz"	"Sound Pressure Level / dB (re 20 µPa/V)  [2.83V at 1m]"
20.5078	44.387	20.5078	44.8448	20.5078	44.0879	20.5078	45.438	20.5078	43.9686	20.5078	46.139	20.5078	44.0498	20.5078	46.9172	20.5078	44.3496	20.5078	47.7416	20.5078	44.8741	20.5078	48.5835	20.5078	45.6071	20.5078	49.4189	20.5078	46.5058	20.5078	50.2282	20.5078	47.5102	20.5078	50.9958	20.5078	48.5569	20.5078	51.7093	20.5078	49.591	20.5078	52.358	20.5078	50.5701	20.5078	52.9326	20.5078	51.4645	20.5078	53.4241	20.5078	52.2545	20.5078	53.8243	20.5078	52.9278	20.5078	54.1249	20.5078	53.477	20.5078	54.3182	20.5078	53.8985	20.5078	54.3974	20.5078	54.1914	20.5078	54.3567
21.9727	45.8466	21.9727	45.8063	21.9727	45.9112	21.9727	45.8451	21.9727	45.9602	21.9727	46.0205	21.9727	45.9754	21.9727	46.3728	21.9727	45.9646	21.9727	46.9096	21.9727	45.9656	21.9727	47.6023	21.9727	46.0477	21.9727	48.3996	21.9727	46.2976	21.9727	49.2457	21.9727	46.7838	21.9727	50.0924	21.9727	47.5148	21.9727	50.9029	21.9727	48.4299	21.9727	51.6507	21.9727	49.4322	21.9727	52.3166	21.9727	50.4292	21.9727	52.8862	21.9727	51.3529	21.9727	53.3477	21.9727	52.161	21.9727	53.6911	21.9727	52.8299	21.9727	53.9071	21.9727	53.3485	21.9727	53.9874	21.9727	53.7131	21.9727	53.9247
23.4375	46.4963	23.4375	46.3444	23.4375	46.6346	23.4375	46.2486	23.4375	46.713	23.4375	46.2922	23.4375	46.7101	23.4375	46.5486	23.4375	46.631	23.4375	47.0489	23.4375	46.5137	23.4375	47.7658	23.4375	46.4382	23.4375	48.6308	23.4375	46.523	23.4375	49.5653	23.4375	46.887	23.4375	50.503	23.4375	47.5783	23.4375	51.3967	23.4375	48.5352	23.4375	52.215	23.4375	49.6288	23.4375	52.9373	23.4375	50.7327	23.4375	53.5493	23.4375	51.7583	23.4375	54.0402	23.4375	52.6541	23.4375	54.4006	23.4375	53.3947	23.4375	54.6219	23.4375	53.9693	23.4375	54.6964	23.4375	54.3757	23.4375	54.6165
24.9023	46.6879	24.9023	46.2496	24.9023	47.0237	24.9023	45.7968	24.9023	47.2085	24.9023	45.4709	24.9023	47.218	24.9023	45.4478	24.9023	47.0457	24.9023	45.8523	24.9023	46.7089	24.9023	46.6656	24.9023	46.2701	24.9023	47.7446	24.9023	45.8748	24.9023	48.9255	24.9023	45.7698	24.9023	50.0902	24.9023	46.1994	24.9023	51.1718	24.9023	47.1871	24.9023	52.1363	24.9023	48.5079	24.9023	52.9673	24.9023	49.8986	24.9023	53.6558	24.9023	51.1913	24.9023	54.1958	24.9023	52.3085	24.9023	54.5811	24.9023	53.2225	24.9023	54.8053	24.9023	53.9286	24.9023	54.8608	24.9023	54.4314	24.9023	54.7391
26.3672	48.1244	26.3672	47.7031	26.3672	48.4465	26.3672	47.2684	26.3672	48.6212	26.3672	46.956	26.3672	48.6235	26.3672	46.9331	26.3672	48.4459	26.3672	47.32	26.3672	48.1038	26.3672	48.1035	26.3672	47.6562	26.3672	49.151	26.3672	47.2439	26.3672	50.3055	26.3672	47.1099	26.3672	51.4505	26.3672	47.5041	26.3672	52.5178	26.3672	48.4637	26.3672	53.472	26.3672	49.7707	26.3672	54.2952	26.3672	51.1588	26.3672	54.9776	26.3672	52.4549	26.3672	55.5122	26.3672	53.5779	26.3672	55.8926	26.3672	54.4986	26.3672	56.1117	26.3672	55.2114	26.3672	56.1619	26.3672	55.7208	26.3672	56.0346
27.832	49.4942	27.832	48.961	27.832	49.8811	27.832	48.3505	27.832	50.0862	27.832	47.7928	27.832	50.0901	27.832	47.4902	27.832	49.8827	27.832	47.6509	27.832	49.4675	27.832	48.3366	27.832	48.8805	27.832	49.4071	27.832	48.2363	27.832	50.6477	27.832	47.7905	27.832	51.8939	27.832	47.904	27.832	53.0545	27.832	48.7502	27.832	54.0865	27.832	50.104	27.832	54.9717	27.832	51.6032	27.832	55.7017	27.832	53.0102	27.832	56.2717	27.832	54.2224	27.832	56.6767	27.832	55.2086	27.832	56.9106	27.832	55.9666	27.832	56.9661	27.832	56.5048	27.832	56.8343
29.2969	49.6221	29.2969	49.0472	29.2969	50.056	29.2969	48.4291	29.2969	50.3013	29.2969	47.9484	29.2969	50.3349	29.2969	47.855	29.2969	50.1479	29.2969	48.3304	29.2969	49.7493	29.2969	49.3226	29.2969	49.1906	29.2969	50.6039	29.2969	48.6189	29.2969	51.9558	29.2969	48.3333	29.2969	53.2473	29.2969	48.6904	29.2969	54.4174	29.2969	49.7646	29.2969	55.4418	29.2969	51.2543	29.2969	56.312	29.2969	52.8118	29.2969	57.0247	29.2969	54.2385	29.2969	57.5774	29.2969	55.4564	29.2969	57.9663	29.2969	56.445	29.2969	58.186	29.2969	57.2063	29.2969	58.2292	29.2969	57.7499	29.2969	58.0872
30.7617	50.7484	30.7617	50.3856	30.7617	51.0459	30.7617	50.0641	30.7617	51.2148	30.7617	49.9335	30.7617	51.223	30.7617	50.1421	30.7617	51.0626	30.7617	50.7494	30.7617	50.7558	30.7617	51.6834	30.7617	50.3773	30.7617	52.7991	30.7617	50.0877	30.7617	53.9622	30.7617	50.1316	30.7617	55.0837	30.7617	50.7096	30.7617	56.1138	30.7617	51.7911	30.7617	57.027	30.7617	53.1451	30.7617	57.8103	30.7617	54.5356	30.7617	58.4558	30.7617	55.8188	30.7617	58.9572	30.7617	56.9284	30.7617	59.3086	30.7617	57.8407	30.7617	59.503	30.7617	58.5518	30.7617	59.5328	30.7617	59.0657	30.7617	59.3899
32.2266	55.4001	32.2266	55.1962	32.2266	55.5638	32.2266	55.002	32.2266	55.6537	32.2266	54.8813	32.2266	55.6504	32.2266	54.9025	32.2266	55.5496	32.2266	55.1184	32.2266	55.3659	32.2266	55.5443	32.2266	55.1407	32.2266	56.151	32.2266	54.9522	32.2266	56.8795	32.2266	54.9136	32.2266	57.6635	32.2266	55.1388	32.2266	58.4457	32.2266	55.6765	32.2266	59.1829	32.2266	56.4726	32.2266	59.8443	32.2266	57.4063	32.2266	60.4083	32.2266	58.3551	32.2266	60.8586	32.2266	59.2311	32.2266	61.1824	32.2266	59.9821	32.2266	61.369	32.2266	60.5821	32.2266	61.4092	32.2266	61.0203	32.2266	61.295
33.6914	56.843	33.6914	56.4303	33.6914	57.1415	33.6914	55.9406	33.6914	57.3044	33.6914	55.4379	33.6914	57.3195	33.6914	55.0222	33.6914	57.1817	33.6914	54.823	33.6914	56.896	33.6914	54.9535	33.6914	56.4866	33.6914	55.4427	33.6914	56.0149	33.6914	56.2144	33.6914	55.6021	33.6914	57.1395	33.6914	55.4303	33.6914	58.1	33.6914	55.6672	33.6914	59.0139	33.6914	56.3368	33.6914	59.8318	33.6914	57.2943	33.6914	60.5252	33.6914	58.343	33.6914	61.077	33.6914	59.3356	33.6914	61.4752	33.6914	60.1901	33.6914	61.7106	33.6914	60.869	33.6914	61.7748	33.6914	61.3594	33.6914	61.6599
35.1562	56.0689	35.1562	55.4732	35.1562	56.5022	35.1562	54.7508	35.1562	56.7574	35.1562	53.9825	35.1562	56.8272	35.1562	53.3277	35.1562	56.7088	35.1562	53.027	35.1562	56.4062	35.1562	53.2872	35.1562	55.9413	35.1562	54.0988	35.1562	55.3758	35.1562	55.2466	35.1562	54.8471	35.1562	56.4964	35.1562	54.5866	35.1562	57.6983	35.1562	54.8283	35.1562	58.7789	35.1562	55.61	35.1562	59.707	35.1562	56.7304	35.1562	60.4704	35.1562	57.9357	35.1562	61.0634	35.1562	59.0557	35.1562	61.482	35.1562	60.0072	35.1562	61.7214	35.1562	60.7582	35.1562	61.7757	35.1562	61.3009	35.1562	61.638
36.6211	56.9243	36.6211	56.7227	36.6211	57.1299	36.6211	56.5992	36.6211	57.2876	36.6211	56.6376	36.6211	57.3691	36.6211	56.904	36.6211	57.3693	36.6211	57.4154	36.6211	57.3087	36.6211	58.1317	36.6211	57.239	36.6211	58.9785	36.6211	57.2461	36.6211	59.8785	36.6211	57.4347	36.6211	60.77	36.6211	57.8849	36.6211	61.6103	36.6211	58.6015	36.6211	62.3717	36.6211	59.5085	36.6211	63.036	36.6211	60.4943	36.6211	63.5905	36.6211	61.4596	36.6211	64.0253	36.6211	62.336	36.6211	64.3316	36.6211	63.0833	36.6211	64.5015	36.6211	63.6812	36.6211	64.5273	36.6211	64.1213	36.6211	64.4023
38.0859	60.2403	38.0859	60.0226	38.0859	60.4217	38.0859	59.8115	38.0859	60.5377	38.0859	59.6618	38.0859	60.5713	38.0859	59.634	38.0859	60.5175	38.0859	59.7779	38.0859	60.3854	38.0859	60.1141	38.0859	60.2032	38.0859	60.6249	38.0859	60.025	38.0859	61.2622	38.0859	59.9317	38.0859	61.9663	38.0859	60.0163	38.0859	62.6813	38.0859	60.344	38.0859	63.3628	38.0859	60.9125	38.0859	63.9775	38.0859	61.6508	38.0859	64.5014	38.0859	62.4584	38.0859	64.9165	38.0859	63.2452	38.0859	65.2089	38.0859	63.9476	38.0859	65.3675	38.0859	64.5273	38.0859	65.3834	38.0859	64.9643	38.0859	65.2501
39.5508	61.7837	39.5508	61.5536	39.5508	61.9747	39.5508	61.3229	39.5508	62.1006	39.5508	61.1416	39.5508	62.146	39.5508	61.0661	39.5508	62.1064	39.5508	61.1466	39.5508	61.9895	39.5508	61.4096	39.5508	61.82	39.5508	61.847	39.5508	61.6442	39.5508	62.419	39.5508	61.5326	39.5508	63.0703	39.5508	61.5683	39.5508	63.7459	39.5508	61.8166	39.5508	64.3993	39.5508	62.2887	39.5508	64.9953	39.5508	62.9325	39.5508	65.5077	39.5508	63.6605	39.5508	65.9172	39.5508	64.386	39.5508	66.2087	39.5508	65.0434	39.5508	66.3706	39.5508	65.5905	39.5508	66.394	39.5508	66.0038	39.5508	66.2726
41.0156	63.2182	41.0156	62.9884	41.0156	63.4053	41.0156	62.7507	41.0156	63.5264	41.0156	62.5508	41.0156	63.5678	41.0156	62.4425	41.0156	63.5256	41.0156	62.4764	41.0156	63.4073	41.0156	62.6843	41.0156	63.2355	41.0156	63.0662	41.0156	63.0534	41.0156	63.5901	41.0156	62.9261	41.0156	64.2044	41.0156	62.9325	41.0156	64.8542	41.0156	63.1376	41.0156	65.4912	41.0156	63.5588	41.0156	66.0778	41.0156	64.1532	41.0156	66.5856	41.0156	64.8397	41.0156	66.9936	41.0156	65.5336	41.0156	67.286	41.0156	66.1682	41.0156	67.4505	41.0156	66.6993	41.0156	67.4779	41.0156	67.1014	41.0156	67.3622
42.4805	64.4545	42.4805	64.2429	42.4805	64.629	42.4805	64.0269	42.4805	64.7436	42.4805	63.8495	42.4805	64.7854	42.4805	63.7597	42.4805	64.7505	42.4805	63.8033	42.4805	64.6466	42.4805	64.0085	42.4805	64.4953	42.4805	64.3752	42.4805	64.3374	42.4805	64.875	42.4805	64.233	42.4805	65.4612	42.4805	64.2533	42.4805	66.083	42.4805	64.4566	42.4805	66.6947	42.4805	64.8591	42.4805	67.26	42.4805	65.4234	42.4805	67.7509	42.4805	66.0762	42.4805	68.1462	42.4805	66.7393	42.4805	68.4298	42.4805	67.3488	42.4805	68.5894	42.4805	67.8611	42.4805	68.6159	42.4805	68.2503	42.4805	68.5034
43.9453	65.9936	43.9453	65.8103	43.9453	66.147	43.9453	65.6263	43.9453	66.2501	43.9453	65.4788	43.9453	66.2909	43.9453	65.4092	43.9453	66.2664	43.9453	65.4556	43.9453	66.184	43.9453	65.6422	43.9453	66.0641	43.9453	65.9704	43.9453	65.9432	43.9453	66.4184	43.9453	65.8734	43.9453	66.9484	43.9453	65.9142	43.9453	67.5165	43.9453	66.1132	43.9453	68.0817	43.9453	66.4835	43.9453	68.6091	43.9453	66.9948	43.9453	69.0714	43.9453	67.5861	43.9453	69.447	43.9453	68.1896	43.9453	69.7194	43.9453	68.7475	43.9453	69.8759	43.9453	69.2183	43.9453	69.9071	43.9453	69.5763	43.9453	69.8076
45.4102	67.3162	45.4102	67.1529	45.4102	67.4555	45.4102	66.9917	45.4102	67.5526	45.4102	66.8651	45.4102	67.5968	45.4102	66.8092	45.4102	67.5861	45.4102	66.8567	45.4102	67.5281	45.4102	67.029	45.4102	67.4419	45.4102	67.3287	45.4102	67.3601	45.4102	67.7384	45.4102	67.3274	45.4102	68.2263	45.4102	67.3924	45.4102	68.7537	45.4102	67.5929	45.4102	69.2831	45.4102	67.9382	45.4102	69.7815	45.4102	68.4034	45.4102	70.2218	45.4102	68.9381	45.4102	70.5828	45.4102	69.4847	45.4102	70.8476	45.4102	69.9919	45.4102	71.0034	45.4102	70.4211	45.4102	71.0412	45.4102	70.7472	45.4102	70.9559
46.875	68.7518	46.875	68.5936	46.875	68.8878	46.875	68.4356	46.875	68.9859	46.875	68.3054	46.875	69.0369	46.875	68.2338	46.875	69.0386	46.875	68.2498	46.875	68.9969	46.875	68.374	46.875	68.927	46.875	68.6125	46.875	68.855	46.875	68.9543	46.875	68.8168	46.875	69.3745	46.875	68.8527	46.875	69.8401	46.875	68.9966	46.875	70.3165	46.875	69.2626	46.875	70.7719	46.875	69.6376	46.875	71.1789	46.875	70.0847	46.875	71.5156	46.875	70.5554	46.875	71.7645	46.875	71.0023	46.875	71.9122	46.875	71.3872	46.875	71.95	46.875	71.6831	46.875	71.8733
48.3398	70.1464	48.3398	69.9827	48.3398	70.2847	48.3398	69.8134	48.3398	70.3835	48.3398	69.6632	48.3398	70.4341	48.3398	69.5598	48.3398	70.4336	48.3398	69.5307	48.3398	70.3859	48.3398	69.5977	48.3398	70.3034	48.3398	69.7705	48.3398	70.2077	48.3398	70.0443	48.3398	70.1306	48.3398	70.3999	48.3398	70.1099	48.3398	70.8086	48.3398	70.1816	48.3398	71.2376	48.3398	70.3669	48.3398	71.6553	48.3398	70.6625	48.3398	72.0337	48.3398	71.0403	48.3398	72.3495	48.3398	71.4563	48.3398	72.5839	48.3398	71.8635	48.3398	72.7231	48.3398	72.2217	48.3398	72.7574	48.3398	72.5011	48.3398	72.6828
51.2695	71.6121	51.2695	71.47	51.2695	71.7337	51.2695	71.3264	51.2695	71.8209	51.2695	71.2052	51.2695	71.8656	51.2695	71.1326	51.2695	71.8655	51.2695	71.134	51.2695	71.8257	51.2695	71.2284	51.2695	71.7592	51.2695	71.4236	51.2695	71.6886	51.2695	71.7132	51.2695	71.6449	51.2695	72.0783	51.2695	71.6639	51.2695	72.4911	51.2695	71.777	51.2695	72.9207	51.2695	71.9999	51.2695	73.3371	51.2695	72.3246	51.2695	73.7136	51.2695	72.7211	51.2695	74.0279	51.2695	73.1463	51.2695	74.2618	51.2695	73.556	51.2695	74.4016	51.2695	73.9126	51.2695	74.438	51.2695	74.1885	51.2695	74.3665
52.7344	72.8708	52.7344	72.7575	52.7344	72.9724	52.7344	72.6491	52.7344	73.05	52.7344	72.5652	52.7344	73.0963	52.7344	72.5272	52.7344	73.1095	52.7344	72.5545	52.7344	73.094	52.7344	72.6612	52.7344	73.0614	52.7344	72.8524	52.7344	73.0313	52.7344	73.1226	52.7344	73.0296	52.7344	73.4564	52.7344	73.0846	52.7344	73.8312	52.7344	73.2197	52.7344	74.2215	52.7344	73.4453	52.7344	74.6015	52.7344	73.7527	52.7344	74.9476	52.7344	74.1161	52.7344	75.2391	52.7344	74.4995	52.7344	75.459	52.7344	74.8658	52.7344	75.5942	52.7344	75.1824	52.7344	75.6357	52.7344	75.4254	52.7344	75.579
54.1992	73.9783	54.1992	73.8699	54.1992	74.0775	54.1992	73.7663	54.1992	74.1571	54.1992	73.6841	54.1992	74.2109	54.1992	73.6411	54.1992	74.2372	54.1992	73.6541	54.1992	74.24	54.1992	73.7355	54.1992	74.2289	54.1992	73.8911	54.1992	74.2196	54.1992	74.1179	54.1992	74.2328	54.1992	74.4045	54.1992	74.2906	54.1992	74.7326	54.1992	74.4114	54.1992	75.0802	54.1992	74.6034	54.1992	75.4242	54.1992	74.8608	54.1992	75.7424	54.1992	75.164	54.1992	76.0152	54.1992	75.4844	54.1992	76.226	54.1992	75.791	54.1992	76.3619	54.1992	76.0557	54.1992	76.4141	54.1992	76.2564	54.1992	76.3784
55.6641	74.7721	55.6641	74.6653	55.6641	74.8699	55.6641	74.5619	55.6641	74.9494	55.6641	74.4767	55.6641	75.0049	55.6641	74.4259	55.6641	75.0346	55.6641	74.4246	55.6641	75.0416	55.6641	74.4848	55.6641	75.0338	55.6641	74.6129	55.6641	75.0242	55.6641	74.8075	55.6641	75.0304	55.6641	75.0597	55.6641	75.0717	55.6641	75.3537	55.6641	75.165	55.6641	75.6695	55.6641	75.3198	55.6641	75.9854	55.6641	75.5337	55.6641	76.2801	55.6641	75.7922	55.6641	76.5343	55.6641	76.0715	55.6641	76.7316	55.6641	76.3436	55.6641	76.8591	55.6641	76.5819	55.6641	76.9086	55.6641	76.7646	55.6641	76.8764
58.5938	76.1628	58.5938	76.0678	58.5938	76.2516	58.5938	75.9769	58.5938	76.3262	58.5938	75.9022	58.5938	76.3817	58.5938	75.8567	58.5938	76.4164	58.5938	75.853	58.5938	76.4322	58.5938	75.9009	58.5938	76.4352	58.5938	76.0062	58.5938	76.4357	58.5938	76.1687	58.5938	76.4472	58.5938	76.3819	58.5938	76.4853	58.5938	76.6336	58.5938	76.5639	58.5938	76.9075	58.5938	76.6914	58.5938	77.1847	58.5938	76.8676	58.5938	77.4464	58.5938	77.082	58.5938	77.6747	58.5938	77.3158	58.5938	77.854	58.5938	77.5457	58.5938	77.9722	58.5938	77.7485	58.5938	78.0212	58.5938	77.904	58.5938	77.9977
60.0586	76.7951	60.0586	76.7038	60.0586	76.8809	60.0586	76.6161	60.0586	76.954	60.0586	76.543	60.0586	77.0097	60.0586	76.4961	60.0586	77.0464	60.0586	76.4868	60.0586	77.0656	60.0586	76.5242	60.0586	77.0726	60.0586	76.614	60.0586	77.0762	60.0586	76.7567	60.0586	77.0884	60.0586	76.9473	60.0586	77.1228	60.0586	77.1753	60.0586	77.1919	60.0586	77.4262	60.0586	77.3038	60.0586	77.6828	60.0586	77.4589	60.0586	77.9274	60.0586	77.6487	60.0586	78.1427	60.0586	77.8567	60.0586	78.3139	60.0586	78.0622	60.0586	78.429	60.0586	78.2436	60.0586	78.4799	60.0586	78.382	60.0586	78.4635
62.9883	77.7266	62.9883	77.6456	62.9883	77.805	62.9883	77.5696	62.9883	77.875	62.9883	77.5075	62.9883	77.9326	62.9883	77.4684	62.9883	77.9761	62.9883	77.4616	62.9883	78.0065	62.9883	77.4945	62.9883	78.0275	62.9883	77.5719	62.9883	78.0458	62.9883	77.6946	62.9883	78.0702	62.9883	77.8592	62.9883	78.1111	62.9883	78.0575	62.9883	78.1781	62.9883	78.2777	62.9883	78.2774	62.9883	78.5053	62.9883	78.4097	62.9883	78.7246	62.9883	78.5687	62.9883	78.9203	62.9883	78.7418	62.9883	79.0786	62.9883	78.9121	62.9883	79.1883	62.9883	79.0616	62.9883	79.2419	62.9883	79.1738	62.9883	79.2364
64.4531	78.2032	64.4531	78.1301	64.4531	78.2752	64.4531	78.0626	64.4531	78.3407	64.4531	78.0081	64.4531	78.3965	64.4531	77.9749	64.4531	78.4407	64.4531	77.9708	64.4531	78.4743	64.4531	78.0025	64.4531	78.5002	64.4531	78.0741	64.4531	78.524	64.4531	78.1867	64.4531	78.5533	64.4531	78.3373	64.4531	78.5968	64.4531	78.5191	64.4531	78.6626	64.4531	78.7216	64.4531	78.7562	64.4531	78.9319	64.4531	78.8782	64.4531	79.1356	64.4531	79.0231	64.4531	79.3185	64.4531	79.18	64.4531	79.4675	64.4531	79.3338	64.4531	79.5721	64.4531	79.4684	64.4531	79.6249	64.4531	79.5687	64.4531	79.6232
67.3828	79.0226	67.3828	78.9555	67.3828	79.0906	67.3828	78.8944	67.3828	79.1552	67.3828	78.8453	67.3828	79.2134	67.3828	78.8148	67.3828	79.2637	67.3828	78.8089	67.3828	79.3063	67.3828	78.8331	67.3828	79.3429	67.3828	78.8911	67.3828	79.3774	67.3828	78.984	67.3828	79.4149	67.3828	79.11	67.3828	79.4615	67.3828	79.2641	67.3828	79.5231	67.3828	79.4381	67.3828	79.6037	67.3828	79.6213	67.3828	79.704	67.3828	79.8016	67.3828	79.82	67.3828	79.9665	67.3828	79.9437	67.3828	80.1042	67.3828	80.0635	67.3828	80.2052	67.3828	80.1661	67.3828	80.2625	67.3828	80.2393	67.3828	80.2734
68.8477	79.3887	68.8477	79.3258	68.8477	79.454	68.8477	79.2698	68.8477	79.5179	68.8477	79.2258	68.8477	79.5775	68.8477	79.1995	68.8477	79.6312	68.8477	79.1961	68.8477	79.6788	68.8477	79.2201	68.8477	79.7214	68.8477	79.2748	68.8477	79.7617	68.8477	79.3611	68.8477	79.8039	68.8477	79.4776	68.8477	79.8528	68.8477	79.6198	68.8477	79.9132	68.8477	79.7807	68.8477	79.9885	68.8477	79.9507	68.8477	80.0795	68.8477	80.1188	68.8477	80.183	68.8477	80.2736	68.8477	80.2923	68.8477	80.4043	68.8477	80.3971	68.8477	80.5015	68.8477	80.4861	68.8477	80.5591	68.8477	80.5481	68.8477	80.5742
71.7773	80.1799	71.7773	80.1256	71.7773	80.2383	71.7773	80.0787	71.7773	80.298	71.7773	80.0426	71.7773	80.3567	71.7773	80.0213	71.7773	80.413	71.7773	80.0184	71.7773	80.466	71.7773	80.0373	71.7773	80.516	71.7773	80.0805	71.7773	80.5641	71.7773	80.1491	71.7773	80.6123	71.7773	80.2425	71.7773	80.6634	71.7773	80.3579	71.7773	80.7203	71.7773	80.4902	71.7773	80.7851	71.7773	80.6322	71.7773	80.8585	71.7773	80.7755	71.7773	80.9382	71.7773	80.9103	71.7773	81.0196	71.7773	81.0275	71.7773	81.0953	71.7773	81.1188	71.7773	81.1566	71.7773	81.1785	71.7773	81.195	71.7773	81.2037
74.707	80.682	74.707	80.6336	74.707	80.7358	74.707	80.5926	74.707	80.793	74.707	80.5616	74.707	80.8517	74.707	80.5432	74.707	80.9105	74.707	80.5398	74.707	80.9682	74.707	80.554	74.707	81.0242	74.707	80.5877	74.707	81.0782	74.707	80.6421	74.707	81.1309	74.707	80.7171	74.707	81.1833	74.707	80.8111	74.707	81.2368	74.707	80.9206	74.707	81.2925	74.707	81.0402	74.707	81.3509	74.707	81.1632	74.707	81.4106	74.707	81.2817	74.707	81.4685	74.707	81.3877	74.707	81.5195	74.707	81.4742	74.707	81.5574	74.707	81.5358	74.707	81.5758	74.707	81.5696
77.6367	81.1623	77.6367	81.1194	77.6367	81.2118	77.6367	81.0846	77.6367	81.2668	77.6367	81.0591	77.6367	81.3258	77.6367	81.0444	77.6367	81.3874	77.6367	81.0421	77.6367	81.4502	77.6367	81.0537	77.6367	81.5126	77.6367	81.0807	77.6367	81.5734	77.6367	81.1241	77.6367	81.6318	77.6367	81.1844	77.6367	81.6872	77.6367	81.2606	77.6367	81.7397	77.6367	81.3507	77.6367	81.7896	77.6367	81.451	77.6367	81.8367	77.6367	81.5562	77.6367	81.8803	77.6367	81.6603	77.6367	81.9186	77.6367	81.7567	77.6367	81.9483	77.6367	81.8392	77.6367	81.9653	77.6367	81.903	77.6367	81.9654	77.6367	81.9452
79.1016	81.5303	79.1016	81.4904	79.1016	81.5775	79.1016	81.4585	79.1016	81.631	79.1016	81.4355	79.1016	81.6896	79.1016	81.4225	79.1016	81.7518	79.1016	81.4204	79.1016	81.8161	79.1016	81.4304	79.1016	81.8807	79.1016	81.4539	79.1016	81.9437	79.1016	81.4917	79.1016	82.0038	79.1016	81.5444	79.1016	82.0597	79.1016	81.6117	79.1016	82.111	79.1016	81.6918	79.1016	82.1574	79.1016	81.7821	79.1016	82.1987	79.1016	81.878	79.1016	82.2344	79.1016	81.9744	79.1016	82.2632	79.1016	82.0653	79.1016	82.2827	79.1016	82.1451	79.1016	82.2899	79.1016	82.2093	79.1016	82.2815	79.1016	82.2551
82.0312	82.0599	82.0312	82.0235	82.0312	82.1044	82.0312	81.9954	82.0312	82.1566	82.0312	81.9754	82.0312	82.2157	82.0312	81.9638	82.0312	82.2803	82.0312	81.9607	82.0312	82.3483	82.0312	81.9667	82.0312	82.4175	82.0312	81.9827	82.0312	82.485	82.0312	82.0096	82.0312	82.5484	82.0312	82.0481	82.0312	82.6052	82.0312	82.0986	82.0312	82.6538	82.0312	82.1608	82.0312	82.6933	82.0312	82.233	82.0312	82.7231	82.0312	82.3126	82.0312	82.7432	82.0312	82.3957	82.0312	82.7532	82.0312	82.4777	82.0312	82.7526	82.0312	82.5541	82.0312	82.7401	82.0312	82.6206	82.0312	82.7144	82.0312	82.6745
84.9609	82.3712	84.9609	82.3388	84.9609	82.4125	84.9609	82.3149	84.9609	82.463	84.9609	82.2987	84.9609	82.5221	84.9609	82.2895	84.9609	82.5885	84.9609	82.2868	84.9609	82.66	84.9609	82.2907	84.9609	82.7336	84.9609	82.3015	84.9609	82.806	84.9609	82.3201	84.9609	82.8735	84.9609	82.3475	84.9609	82.9327	84.9609	82.3847	84.9609	82.9811	84.9609	82.4322	84.9609	83.0169	84.9609	82.4895	84.9609	83.0391	84.9609	82.5554	84.9609	83.0479	84.9609	82.6273	84.9609	83.0436	84.9609	82.702	84.9609	83.0268	84.9609	82.7756	84.9609	82.998	84.9609	82.8446	84.9609	82.9575	84.9609	82.9059
87.8906	82.8986	87.8906	82.8693	87.8906	82.9383	87.8906	82.8491	87.8906	82.9889	87.8906	82.8367	87.8906	83.0501	87.8906	82.8305	87.8906	83.1208	87.8906	82.8295	87.8906	83.1983	87.8906	82.8331	87.8906	83.2794	87.8906	82.8413	87.8906	83.3596	87.8906	82.8547	87.8906	83.4344	87.8906	82.8743	87.8906	83.4995	87.8906	82.9017	87.8906	83.551	87.8906	82.9379	87.8906	83.5863	87.8906	82.9837	87.8906	83.604	87.8906	83.039	87.8906	83.6039	87.8906	83.1027	87.8906	83.5871	87.8906	83.1727	87.8906	83.5552	87.8906	83.246	87.8906	83.5102	87.8906	83.3195	87.8906	83.4543	87.8906	83.3899
90.8203	83.405	90.8203	83.3771	90.8203	83.4435	90.8203	83.358	90.8203	83.4934	90.8203	83.3458	90.8203	83.5548	90.8203	83.3385	90.8203	83.6263	90.8203	83.3344	90.8203	83.7053	90.8203	83.3324	90.8203	83.7878	90.8203	83.3322	90.8203	83.869	90.8203	83.3344	90.8203	83.9434	90.8203	83.3401	90.8203	84.0059	90.8203	83.3512	90.8203	84.0518	90.8203	83.3699	90.8203	84.0779	90.8203	83.3978	90.8203	84.0827	90.8203	83.4364	90.8203	84.0664	90.8203	83.4859	90.8203	84.0309	90.8203	83.5458	90.8203	83.9792	90.8203	83.6142	90.8203	83.9152	90.8203	83.6887	90.8203	83.8428	90.8203	83.766
95.2148	83.8692	95.2148	83.8452	95.2148	83.9041	95.2148	83.8297	95.2148	83.9513	95.2148	83.8201	95.2148	84.011	95.2148	83.8135	95.2148	84.0821	95.2148	83.8077	95.2148	84.1616	95.2148	83.801	95.2148	84.2451	95.2148	83.7925	95.2148	84.3271	95.2148	83.7828	95.2148	84.4013	95.2148	83.7732	95.2148	84.4615	95.2148	83.766	95.2148	84.5022	95.2148	83.7642	95.2148	84.5197	95.2148	83.7711	95.2148	84.512	95.2148	83.7896	95.2148	84.4795	95.2148	83.8219	95.2148	84.425	95.2148	83.8692	95.2148	84.353	95.2148	83.931	95.2148	84.2691	95.2148	84.0056	95.2148	84.1794	95.2148	84.0898
98.1445	84.2477	98.1445	84.2263	98.1445	84.2802	98.1445	84.2134	98.1445	84.3255	98.1445	84.2057	98.1445	84.3841	98.1445	84.2	98.1445	84.4548	98.1445	84.1936	98.1445	84.5348	98.1445	84.1846	98.1445	84.6192	98.1445	84.1718	98.1445	84.7024	98.1445	84.1556	98.1445	84.7773	98.1445	84.1374	98.1445	84.8373	98.1445	84.1198	98.1445	84.8764	98.1445	84.1064	98.1445	84.8901	98.1445	84.1012	98.1445	84.8763	98.1445	84.1082	98.1445	84.8355	98.1445	84.1308	98.1445	84.7707	98.1445	84.171	98.1445	84.6871	98.1445	84.2294	98.1445	84.5916	98.1445	84.3047	98.1445	84.4913	98.1445	84.3936
101.074	84.6528	101.074	84.6332	101.074	84.6833	101.074	84.6216	101.074	84.7267	101.074	84.6145	101.074	84.7838	101.074	84.6084	101.074	84.8534	101.074	84.6001	101.074	84.9326	101.074	84.5873	101.074	85.0165	101.074	84.5689	101.074	85.099	101.074	84.545	101.074	85.1729	101.074	84.5171	101.074	85.231	101.074	84.4882	101.074	85.2667	101.074	84.4624	101.074	85.2752	101.074	84.4445	101.074	85.2542	101.074	84.4394	101.074	85.204	101.074	84.4516	101.074	85.1281	101.074	84.4844	101.074	85.0325	101.074	84.539	101.074	84.9249	101.074	84.6147	101.074	84.814	101.074	84.7082
105.469	84.956	105.469	84.9381	105.469	84.9845	105.469	84.9276	105.469	85.0259	105.469	84.9205	105.469	85.081	105.469	84.913	105.469	85.1489	105.469	84.9015	105.469	85.2265	105.469	84.8833	105.469	85.3088	105.469	84.8571	105.469	85.3894	105.469	84.8228	105.469	85.4606	105.469	84.7821	105.469	85.5147	105.469	84.7382	105.469	85.5446	105.469	84.6958	105.469	85.545	105.469	84.6609	105.469	85.5134	105.469	84.6396	105.469	85.4503	105.469	84.6379	105.469	85.3595	105.469	84.6603	105.469	85.248	105.469	84.7095	105.469	85.1248	105.469	84.7852	105.469	85.0002	105.469	84.8842
108.398	85.2588	108.398	85.2432	108.398	85.2856	108.398	85.2351	108.398	85.326	108.398	85.2304	108.398	85.381	108.398	85.2248	108.398	85.4496	108.398	85.2146	108.398	85.5287	108.398	85.1968	108.398	85.6133	108.398	85.1697	108.398	85.6964	108.398	85.1333	108.398	85.7702	108.398	85.0891	108.398	85.8264	108.398	85.0407	108.398	85.8578	108.398	84.993	108.398	85.8585	108.398	84.9523	108.398	85.8257	108.398	84.9256	108.398	85.7598	108.398	84.9193	108.398	85.6648	108.398	84.9388	108.398	85.5478	108.398	84.9872	108.398	85.4186	108.398	85.0643	108.398	85.288	108.398	85.1668
112.793	85.5316	112.793	85.518	112.793	85.5571	112.793	85.5124	112.793	85.5972	112.793	85.5102	112.793	85.6531	112.793	85.5067	112.793	85.7238	112.793	85.4977	112.793	85.8064	112.793	85.4798	112.793	85.8954	112.793	85.4511	112.793	85.9838	112.793	85.4113	112.793	86.063	112.793	85.3619	112.793	86.1242	112.793	85.3066	112.793	86.1591	112.793	85.2508	112.793	86.1613	112.793	85.2017	112.793	86.1273	112.793	85.1671	112.793	86.057	112.793	85.1547	112.793	85.9545	112.793	85.1709	112.793	85.8274	112.793	85.2196	112.793	85.6863	112.793	85.3011	112.793	85.5437	112.793	85.4117
117.188	85.6024	117.188	85.588	117.188	85.6285	117.188	85.5812	117.188	85.6691	117.188	85.5773	117.188	85.7255	117.188	85.5714	117.188	85.7968	117.188	85.559	117.188	85.88	117.188	85.5366	117.188	85.9699	117.188	85.502	117.188	86.0592	117.188	85.4547	117.188	86.139	117.188	85.3964	117.188	86.2001	117.188	85.3309	117.188	86.2336	117.188	85.2644	117.188	86.2325	117.188	85.2044	117.188	86.1927	117.188	85.1601	117.188	86.114	117.188	85.1401	117.188	86.0005	117.188	85.1521	117.188	85.8605	117.188	85.2007	117.188	85.7055	117.188	85.2866	117.188	85.5493	117.188	85.4056
120.117	85.825	120.117	85.8084	120.117	85.8524	120.117	85.7985	120.117	85.8934	120.117	85.7908	120.117	85.9494	120.117	85.7804	120.117	86.0196	120.117	85.7629	120.117	86.1014	120.117	85.7349	120.117	86.1896	120.117	85.6943	120.117	86.2771	120.117	85.6408	120.117	86.3552	120.117	85.5762	120.117	86.4145	120.117	85.5045	120.117	86.446	120.117	85.432	120.117	86.4422	120.117	85.3668	120.117	86.3988	120.117	85.3183	120.117	86.3154	120.117	85.2958	120.117	86.196	120.117	85.3071	120.117	86.0489	120.117	85.3573	120.117	85.8862	120.117	85.4469	120.117	85.7223	120.117	85.5716
124.512	85.9326	124.512	85.9195	124.512	85.9565	124.512	85.9131	124.512	85.9943	124.512	85.9084	124.512	86.0475	124.512	85.9005	124.512	86.1156	124.512	85.8849	124.512	86.1961	124.512	85.8577	124.512	86.2841	124.512	85.8168	124.512	86.3724	124.512	85.7617	124.512	86.4522	124.512	85.6941	124.512	86.5137	124.512	85.6183	124.512	86.5474	124.512	85.5406	124.512	86.5455	124.512	85.4697	124.512	86.503	124.512	85.4153	124.512	86.4191	124.512	85.3874	124.512	86.2978	124.512	85.3947	124.512	86.1475	124.512	85.4427	124.512	85.9809	124.512	85.5322	124.512	85.8128	124.512	85.6588
128.906	86.027	128.906	86.0139	128.906	86.0498	128.906	86.0066	128.906	86.0856	128.906	86	128.906	86.1359	128.906	85.9891	128.906	86.2004	128.906	85.9693	128.906	86.2769	128.906	85.9366	128.906	86.3606	128.906	85.8886	128.906	86.4447	128.906	85.8249	128.906	86.5204	128.906	85.7471	128.906	86.5777	128.906	85.6596	128.906	86.6067	128.906	85.5693	128.906	86.5992	128.906	85.4854	128.906	86.5496	128.906	85.4188	128.906	86.4571	128.906	85.3804	128.906	86.3256	128.906	85.3801	128.906	86.164	128.906	85.4242	128.906	85.9859	128.906	85.5141	128.906	85.8075	128.906	85.6453
133.301	86.0016	133.301	85.9861	133.301	86.025	133.301	85.9745	133.301	86.0594	133.301	85.962	133.301	86.1061	133.301	85.9436	133.301	86.1651	133.301	85.9146	133.301	86.2342	133.301	85.8711	133.301	86.3088	133.301	85.8106	133.301	86.3825	133.301	85.7325	133.301	86.4465	133.301	85.6388	133.301	86.4911	133.301	85.5341	133.301	86.5065	133.301	85.4258	133.301	86.4843	133.301	85.3236	133.301	86.4193	133.301	85.2396	133.301	86.3105	133.301	85.1859	133.301	86.1623	133.301	85.1735	133.301	85.9847	133.301	85.21	133.301	85.792	133.301	85.2975	133.301	85.6017	133.301	85.4317
139.16	85.766	139.16	85.7529	139.16	85.7883	139.16	85.7447	139.16	85.8228	139.16	85.7364	139.16	85.8711	139.16	85.7226	139.16	85.933	139.16	85.6981	139.16	86.0062	139.16	85.6586	139.16	86.0861	139.16	85.6011	139.16	86.1657	139.16	85.5249	139.16	86.2359	139.16	85.4317	139.16	86.2865	139.16	85.3261	139.16	86.3069	139.16	85.2157	139.16	86.2884	139.16	85.1108	139.16	86.2251	139.16	85.0238	139.16	86.1161	139.16	84.9676	139.16	85.9659	139.16	84.9538	139.16	85.7845	139.16	84.9903	139.16	85.587	139.16	85.0796	139.16	85.3917	139.16	85.2172
143.555	85.6091	143.555	85.5934	143.555	85.6337	143.555	85.5825	143.555	85.6699	143.555	85.5715	143.555	85.7195	143.555	85.5552	143.555	85.7822	143.555	85.5286	143.555	85.8564	143.555	85.4871	143.555	85.9376	143.555	85.4279	143.555	86.0194	143.555	85.3502	143.555	86.0928	143.555	85.2556	143.555	86.1471	143.555	85.1488	143.555	86.1716	143.555	85.0376	143.555	86.1567	143.555	84.9327	143.555	86.0961	143.555	84.8467	143.555	85.988	143.555	84.7929	143.555	85.8368	143.555	84.7831	143.555	85.6523	143.555	84.8251	143.555	85.4498	143.555	84.9211	143.555	85.2479	143.555	85.0661
147.949	85.5107	147.949	85.4928	147.949	85.5356	147.949	85.4782	147.949	85.5705	147.949	85.4626	147.949	85.6171	147.949	85.441	147.949	85.6761	147.949	85.4089	147.949	85.7464	147.949	85.3623	147.949	85.8246	147.949	85.2986	147.949	85.9051	147.949	85.2174	147.949	85.9794	147.949	85.1207	147.949	86.0369	147.949	85.0133	147.949	86.0665	147.949	84.9035	147.949	86.058	147.949	84.8019	147.949	86.004	147.949	84.7213	147.949	85.902	147.949	84.6744	147.949	85.7553	147.949	84.6727	147.949	85.5733	147.949	84.7234	147.949	85.3708	147.949	84.8276	147.949	85.1664	147.949	84.9795
153.809	85.4395	153.809	85.4211	153.809	85.4616	153.809	85.4029	153.809	85.4902	153.809	85.3805	153.809	85.5271	153.809	85.3492	153.809	85.5731	153.809	85.3045	153.809	85.6274	153.809	85.2424	153.809	85.6875	153.809	85.1605	153.809	85.7485	153.809	85.0584	153.809	85.8028	153.809	84.9386	153.809	85.8406	153.809	84.8067	153.809	85.851	153.809	84.6714	153.809	85.824	153.809	84.5448	153.809	85.752	153.809	84.4406	153.809	85.6326	153.809	84.3732	153.809	85.469	153.809	84.3553	153.809	85.2713	153.809	84.3951	153.809	85.0552	153.809	84.4943	153.809	84.8402	153.809	84.6471
159.668	85.0724	159.668	85.0553	159.668	85.0954	159.668	85.0403	159.668	85.1268	159.668	85.0223	159.668	85.1682	159.668	84.9961	159.668	85.2197	159.668	84.9561	159.668	85.2799	159.668	84.8975	159.668	85.3454	159.668	84.817	159.668	85.41	159.668	84.7134	159.668	85.4653	159.668	84.5888	159.668	85.5007	159.668	84.4485	159.668	85.5048	159.668	84.3015	159.668	85.4674	159.668	84.1602	159.668	85.3816	159.668	84.0396	159.668	85.2457	159.668	83.9554	159.668	85.0643	159.668	83.9221	159.668	84.8492	159.668	83.9498	159.668	84.618	159.668	84.0419	159.668	84.3921	159.668	84.1937
165.527	84.5917	165.527	84.5744	165.527	84.615	165.527	84.5597	165.527	84.6467	165.527	84.5434	165.527	84.6886	165.527	84.5205	165.527	84.7417	165.527	84.4856	165.527	84.8055	165.527	84.4337	165.527	84.8776	165.527	84.3613	165.527	84.9528	165.527	84.267	165.527	85.0224	165.527	84.1524	165.527	85.075	165.527	84.0225	165.527	85.0977	165.527	83.8864	165.527	85.0788	165.527	83.7564	165.527	85.0098	165.527	83.6475	165.527	84.8878	165.527	83.5751	165.527	84.7171	165.527	83.5534	165.527	84.5089	165.527	83.5919	165.527	84.2808	165.527	83.6933	165.527	84.0543	165.527	83.8519
171.387	84.4152	171.387	84.388	171.387	84.4427	171.387	84.3586	171.387	84.4726	171.387	84.3234	171.387	84.5064	171.387	84.2782	171.387	84.5451	171.387	84.2184	171.387	84.5893	171.387	84.1402	171.387	84.6382	171.387	84.041	171.387	84.6885	171.387	83.9204	171.387	84.734	171.387	83.7812	171.387	84.7653	171.387	83.6299	171.387	84.7708	171.387	83.4763	171.387	84.7391	171.387	83.334	171.387	84.6609	171.387	83.2185	171.387	84.5323	171.387	83.1454	171.387	84.3559	171.387	83.1282	171.387	84.1417	171.387	83.1752	171.387	83.9062	171.387	83.2874	171.387	83.6706	171.387	83.4575
177.246	84.1445	177.246	84.1233	177.246	84.1682	177.246	84.102	177.246	84.1963	177.246	84.0771	177.246	84.2301	177.246	84.0438	177.246	84.2709	177.246	83.9971	177.246	84.3193	177.246	83.9321	177.246	84.3742	177.246	83.8452	177.246	84.4321	177.246	83.7353	177.246	84.486	177.246	83.6045	177.246	84.5252	177.246	83.4586	177.246	84.5375	177.246	83.3076	177.246	84.5105	177.246	83.1647	177.246	84.4353	177.246	83.0457	177.246	84.3081	177.246	82.9669	177.246	84.1325	177.246	82.9422	177.246	83.9192	177.246	82.9808	177.246	83.6859	177.246	83.0846	177.246	83.4543	177.246	83.2472
183.105	84.0083	183.105	83.9786	183.105	84.0355	183.105	83.945	183.105	84.0614	183.105	83.9049	183.105	84.0872	183.105	83.8549	183.105	84.1146	183.105	83.7908	183.105	84.1453	183.105	83.7085	183.105	84.1801	183.105	83.6049	183.105	84.2175	183.105	83.4793	183.105	84.2521	183.105	83.3341	183.105	84.2748	183.105	83.1754	183.105	84.2734	183.105	83.0131	183.105	84.2355	183.105	82.8609	183.105	84.1511	183.105	82.7345	183.105	84.0159	183.105	82.6502	183.105	83.8329	183.105	82.6218	183.105	83.6128	183.105	82.6585	183.105	83.3735	183.105	82.7622	183.105	83.137	183.105	82.9265
188.965	83.8879	188.965	83.8528	188.965	83.9198	188.965	83.8136	188.965	83.949	188.965	83.7684	188.965	83.9764	188.965	83.7141	188.965	84.0036	188.965	83.6466	188.965	84.0326	188.965	83.562	188.965	84.0649	188.965	83.4571	188.965	84.0996	188.965	83.3312	188.965	84.1322	188.965	83.1866	188.965	84.154	188.965	83.0295	188.965	84.153	188.965	82.87	188.965	84.1167	188.965	82.7218	188.965	84.0349	188.965	82.6005	188.965	83.9025	188.965	82.5221	188.965	83.7221	188.965	82.4998	188.965	83.5042	188.965	82.5421	188.965	83.266	188.965	82.6503	188.965	83.0295	188.965	82.8176
196.289	83.6034	196.289	83.5659	196.289	83.6371	196.289	83.5238	196.289	83.6672	196.289	83.4758	196.289	83.6951	196.289	83.4191	196.289	83.7229	196.289	83.3499	196.289	83.7535	196.289	83.2644	196.289	83.7892	196.289	83.1596	196.289	83.8298	196.289	83.0349	196.289	83.871	196.289	82.893	196.289	83.9037	196.289	82.7407	196.289	83.9154	196.289	82.5887	196.289	83.8924	196.289	82.4511	196.289	83.8237	196.289	82.3437	196.289	83.7035	196.289	82.2818	196.289	83.5335	196.289	82.2773	196.289	83.3233	196.289	82.3365	196.289	83.0895	196.289	82.4589	196.289	82.853	196.289	82.6361
203.613	83.2429	203.613	83.2015	203.613	83.2738	203.613	83.1499	203.613	83.2939	203.613	83.0881	203.613	83.3046	203.613	83.0144	203.613	83.3091	203.613	82.9263	203.613	83.3125	203.613	82.8208	203.613	83.3197	203.613	82.6956	203.613	83.3337	203.613	82.5508	203.613	83.3525	203.613	82.3897	203.613	83.3684	203.613	82.2197	203.613	83.3688	203.613	82.0524	203.613	83.3391	203.613	81.9028	203.613	83.2666	203.613	81.7872	203.613	83.1445	203.613	81.7207	203.613	82.9736	203.613	81.7147	203.613	82.763	203.613	81.7743	203.613	82.5292	203.613	81.8977	203.613	82.2927	203.613	82.0756
210.938	83.1835	210.938	83.1347	210.938	83.2152	210.938	83.0706	210.938	83.2285	210.938	82.9921	210.938	83.2237	210.938	82.8986	210.938	83.2037	210.938	82.788	210.938	83.1742	210.938	82.6577	210.938	83.1419	210.938	82.5057	210.938	83.1126	210.938	82.3322	210.938	83.0878	210.938	82.1407	210.938	83.0629	210.938	81.9393	210.938	83.0272	210.938	81.7403	210.938	82.9667	210.938	81.5595	210.938	82.8685	210.938	81.4143	210.938	82.725	210.938	81.3211	210.938	82.5365	210.938	81.2922	210.938	82.3124	210.938	81.3335	210.938	82.0696	210.938	81.4437	210.938	81.8293	210.938	81.614
218.262	83.1242	218.262	83.0632	218.262	83.1708	218.262	82.9899	218.262	83.2005	218.262	82.9056	218.262	83.2121	218.262	82.8091	218.262	83.2067	218.262	82.6977	218.262	83.1875	218.262	82.5678	218.262	83.1594	218.262	82.4166	218.262	83.1264	218.262	82.2433	218.262	83.0893	218.262	82.0508	218.262	83.0441	218.262	81.8462	218.262	82.9821	218.262	81.6413	218.262	82.8917	218.262	81.4516	218.262	82.7626	218.262	81.2942	218.262	82.5896	218.262	81.186	218.262	82.3754	218.262	81.1401	218.262	82.1314	218.262	81.1644	218.262	81.876	218.262	81.2596	218.262	81.6313	218.262	81.4196
225.586	82.6873	225.586	82.6282	225.586	82.7352	225.586	82.5603	225.586	82.7699	225.586	82.4851	225.586	82.7911	225.586	82.402	225.586	82.8012	225.586	82.3085	225.586	82.8049	225.586	82.2009	225.586	82.8078	225.586	82.0762	225.586	82.8134	225.586	81.9335	225.586	82.821	225.586	81.7755	225.586	82.8239	225.586	81.6095	225.586	82.81	225.586	81.4468	225.586	82.765	225.586	81.3019	225.586	82.6769	225.586	81.19	225.586	82.5394	225.586	81.125	225.586	82.3549	225.586	81.1168	225.586	82.1345	225.586	81.1701	225.586	81.8963	225.586	81.284	225.586	81.6619	225.586	81.452
232.91	82.4336	232.91	82.3564	232.91	82.4914	232.91	82.2646	232.91	82.5261	232.91	82.162	232.91	82.5366	232.91	82.0501	232.91	82.5264	232.91	81.9281	232.91	82.5024	232.91	81.793	232.91	82.4737	232.91	81.642	232.91	82.4482	232.91	81.4744	232.91	82.4286	232.91	81.2933	232.91	82.4103	232.91	81.1067	232.91	82.3815	232.91	80.9275	232.91	82.3267	232.91	80.7717	232.91	82.2319	232.91	80.6559	232.91	82.0894	232.91	80.594	232.91	81.9002	232.91	80.5946	232.91	81.6747	232.91	80.6603	232.91	81.4302	232.91	80.7875	232.91	81.1878	232.91	80.9678
241.699	82.3554	241.699	82.2714	241.699	82.4132	241.699	82.1662	241.699	82.4409	241.699	82.0446	241.699	82.4377	241.699	81.9091	241.699	82.4074	241.699	81.7598	241.699	82.3574	241.699	81.5949	241.699	82.2979	241.699	81.4126	241.699	82.2382	241.699	81.2133	241.699	82.183	241.699	81.0012	241.699	82.1298	241.699	80.7858	241.699	82.0689	241.699	80.5812	241.699	81.9859	241.699	80.405	241.699	81.8675	241.699	80.2745	241.699	81.7061	241.699	80.2031	241.699	81.503	241.699	80.1981	241.699	81.2686	241.699	80.2601	241.699	81.0203	241.699	80.3839	241.699	80.7779	241.699	80.5606
250.488	82.0256	250.488	81.9172	250.488	82.0999	250.488	81.7811	250.488	82.1358	250.488	81.6233	250.488	82.1332	250.488	81.4485	250.488	82.0966	250.488	81.2583	250.488	82.0357	250.488	81.0522	250.488	81.9624	250.488	80.829	250.488	81.8878	250.488	80.5887	250.488	81.8172	250.488	80.3349	250.488	81.7465	250.488	80.0766	250.488	81.6631	250.488	79.8284	250.488	81.5492	250.488	79.6093	250.488	81.3886	250.488	79.4394	250.488	81.173	250.488	79.3363	250.488	80.9054	250.488	79.3113	250.488	80.6007	250.488	79.3685	250.488	80.2828	250.488	79.505	250.488	79.9785	250.488	79.7128
259.277	82.2907	259.277	82.1879	259.277	82.3545	259.277	82.0517	259.277	82.3751	259.277	81.8872	259.277	82.3518	259.277	81.6976	259.277	82.2887	259.277	81.4842	259.277	82.1948	259.277	81.2465	259.277	82.0828	259.277	80.9843	259.277	81.9661	259.277	80.6997	259.277	81.8536	259.277	80.3988	259.277	81.7455	259.277	80.0935	259.277	81.6324	259.277	79.8012	259.277	81.4977	259.277	79.5434	259.277	81.3242	259.277	79.3423	259.277	81.1006	259.277	79.2169	259.277	80.8267	259.277	79.179	259.277	80.5147	259.277	79.2324	259.277	80.1866	259.277	79.3733	259.277	79.8698	259.277	79.5913
268.066	82.2305	268.066	82.1398	268.066	82.2899	268.066	82.0245	268.066	82.314	268.066	81.8907	268.066	82.3027	268.066	81.7423	268.066	82.2617	268.066	81.58	268.066	82.2018	268.066	81.4018	268.066	82.1368	268.066	81.2054	268.066	82.0791	268.066	80.9899	268.066	82.0342	268.066	80.759	268.066	81.9974	268.066	80.5217	268.066	81.9539	268.066	80.2926	268.066	81.883	268.066	80.0904	268.066	81.7657	268.066	79.9351	268.066	81.5907	268.066	79.8435	268.066	81.3588	268.066	79.8271	268.066	81.0831	268.066	79.89	268.066	80.7863	268.066	80.0292	268.066	80.4953	268.066	80.236
276.855	81.7343	276.855	81.6375	276.855	81.7954	276.855	81.5133	276.855	81.8145	276.855	81.3697	276.855	81.7899	276.855	81.2124	276.855	81.7264	276.855	81.0434	276.855	81.6356	276.855	80.8623	276.855	81.5349	276.855	80.6679	276.855	81.4428	276.855	80.4603	276.855	81.3724	276.855	80.2443	276.855	81.3251	276.855	80.0298	276.855	81.2891	276.855	79.8319	276.855	81.2428	276.855	79.6689	276.855	81.1639	276.855	79.5574	276.855	81.0371	276.855	79.5091	276.855	80.8597	276.855	79.528	276.855	80.6414	276.855	79.6111	276.855	80.4008	276.855	79.751	276.855	80.1596	276.855	79.9378
287.109	81.5453	287.109	81.438	287.109	81.6169	287.109	81.3034	287.109	81.6473	287.109	81.1499	287.109	81.6362	287.109	80.9829	287.109	81.5891	287.109	80.8033	287.109	81.5166	287.109	80.6075	287.109	81.4321	287.109	80.3901	287.109	81.3474	287.109	80.1471	287.109	81.2691	287.109	79.8798	287.109	81.1944	287.109	79.597	287.109	81.1115	287.109	79.316	287.109	81.0017	287.109	79.0605	287.109	80.8463	287.109	78.8567	287.109	80.6328	287.109	78.7272	287.109	80.3605	287.109	78.6861	287.109	80.0429	287.109	78.7375	287.109	79.7057	287.109	78.8775	287.109	79.3805	287.109	79.0969
297.363	81.4786	297.363	81.3514	297.363	81.5538	297.363	81.1833	297.363	81.5701	297.363	80.987	297.363	81.5285	297.363	80.7745	297.363	81.4397	297.363	80.5555	297.363	81.325	297.363	80.3363	297.363	81.2126	297.363	80.1205	297.363	81.1294	297.363	79.9096	297.363	81.0906	297.363	79.7047	297.363	81.091	297.363	79.5087	297.363	81.1062	297.363	79.3275	297.363	81.1017	297.363	79.1713	297.363	81.0456	297.363	79.054	297.363	80.9172	297.363	78.9914	297.363	80.7118	297.363	78.9987	297.363	80.4405	297.363	79.0869	297.363	80.1272	297.363	79.2583	297.363	79.8037	297.363	79.5041
307.617	80.9417	307.617	80.813	307.617	81.0323	307.617	80.6607	307.617	81.0743	307.617	80.4987	307.617	81.0651	307.617	80.3364	307.617	81.0122	307.617	80.1767	307.617	80.9337	307.617	80.018	307.617	80.8553	307.617	79.8582	307.617	80.8035	307.617	79.6994	307.617	80.7962	307.617	79.5502	307.617	80.8329	307.617	79.4254	307.617	80.8944	307.617	79.342	307.617	80.9493	307.617	79.3138	307.617	80.9672	307.617	79.3461	307.617	80.9288	307.617	79.4343	307.617	80.8299	307.617	79.5664	307.617	80.6802	307.617	79.7282	307.617	80.4974	307.617	79.9087	307.617	80.2997	307.617	80.1009
319.336	80.6444	319.336	80.4861	319.336	80.7233	319.336	80.2695	319.336	80.7119	319.336	80.0214	319.336	80.6125	319.336	79.7694	319.336	80.4431	319.336	79.5364	319.336	80.2382	319.336	79.3365	319.336	80.0456	319.336	79.1746	319.336	79.9165	319.336	79.0504	319.336	79.8879	319.336	78.9632	319.336	79.9674	319.336	78.9154	319.336	80.1291	319.336	78.9136	319.336	80.3266	319.336	78.9654	319.336	80.5101	319.336	79.0751	319.336	80.6409	319.336	79.2401	319.336	80.6961	319.336	79.4504	319.336	80.6689	319.336	79.6901	319.336	80.5647	319.336	79.9406	319.336	80.3968	319.336	80.1825
329.59	81.5013	329.59	81.3291	329.59	81.5586	329.59	81.0592	329.59	81.4905	329.59	80.7141	329.59	81.296	329.59	80.32	329.59	80.9869	329.59	79.9047	329.59	80.5926	329.59	79.4968	329.59	80.1639	329.59	79.124	329.59	79.7717	329.59	78.8132	329.59	79.4916	329.59	78.5886	329.59	79.3754	329.59	78.4697	329.59	79.4253	329.59	78.4671	329.59	79.5953	329.59	78.5776	329.59	79.8181	329.59	78.783	329.59	80.033	329.59	79.0531	329.59	80.199	329.59	79.3519	329.59	80.2944	329.59	79.6451	329.59	80.3108	329.59	79.9046	329.59	80.248	329.59	80.1099
341.309	81.8626	341.309	81.6671	341.309	81.9567	341.309	81.3869	341.309	81.9365	341.309	81.0403	341.309	81.7953	341.309	80.6449	341.309	81.5354	341.309	80.2168	341.309	81.1721	341.309	79.771	341.309	80.7368	341.309	79.3225	341.309	80.2787	341.309	78.8902	341.309	79.8591	341.309	78.499	341.309	79.5347	341.309	78.18	341.309	79.3354	341.309	77.9653	341.309	79.2522	341.309	77.8781	341.309	79.2473	341.309	77.9224	341.309	79.2755	341.309	78.0779	341.309	79.3004	341.309	78.3062	341.309	79.2984	341.309	78.5621	341.309	79.255	341.309	78.8059	341.309	79.1605	341.309	79.01
353.027	81.7859	353.027	81.58	353.027	81.8858	353.027	81.2837	353.027	81.8682	353.027	80.9148	353.027	81.7278	353.027	80.4915	353.027	81.4672	353.027	80.0317	353.027	81.1004	353.027	79.5524	353.027	80.6554	353.027	79.0718	353.027	80.1753	353.027	78.6118	353.027	79.7151	353.027	78.201	353.027	79.3297	353.027	77.8753	353.027	79.0566	353.027	77.6713	353.027	78.9033	353.027	77.6137	353.027	78.8498	353.027	77.7012	353.027	78.8622	353.027	77.9028	353.027	78.9059	353.027	78.1668	353.027	78.9506	353.027	78.4382	353.027	78.9694	353.027	78.6725	353.027	78.9391	353.027	78.8424
366.211	81.9385	366.211	81.7507	366.211	82.0273	366.211	81.4775	366.211	82.0065	366.211	81.1333	366.211	81.8709	366.211	80.7307	366.211	81.6228	366.211	80.2804	366.211	81.2749	366.211	79.7921	366.211	80.8527	366.211	79.2774	366.211	80.3951	366.211	78.755	366.211	79.9508	366.211	78.2542	366.211	79.5659	366.211	77.8162	366.211	79.2684	366.211	77.4878	366.211	79.0577	366.211	77.3068	366.211	78.9109	366.211	77.2849	366.211	78.7996	366.211	77.3995	366.211	78.7031	366.211	77.6024	366.211	78.6103	366.211	77.8384	366.211	78.5126	366.211	78.0629	366.211	78.3977	366.211	78.251
379.395	81.6752	379.395	81.487	379.395	81.7681	379.395	81.2182	379.395	81.7543	379.395	80.8838	379.395	81.6284	379.395	80.4963	379.395	81.3925	379.395	80.0647	379.395	81.0589	379.395	79.5946	379.395	80.6508	379.395	79.093	379.395	80.2035	379.395	78.5742	379.395	79.7597	379.395	78.0672	379.395	79.3621	379.395	77.6195	379.395	79.0415	379.395	77.2916	379.395	78.8092	379.395	77.1362	379.395	78.6587	379.395	77.17	379.395	78.5733	379.395	77.3604	379.395	78.534	379.395	77.6389	379.395	78.5199	379.395	77.9315	379.395	78.5058	379.395	78.1814	379.395	78.4616	379.395	78.3592
392.578	81.6999	392.578	81.5122	392.578	81.7856	392.578	81.2376	392.578	81.7578	392.578	80.8913	392.578	81.6104	392.578	80.4867	392.578	81.3453	392.578	80.0329	392.578	80.9751	392.578	79.5354	392.578	80.5259	392.578	78.9994	392.578	80.0386	392.578	78.4353	392.578	79.5639	392.578	77.8653	392.578	79.1493	392.578	77.3291	392.578	78.8205	392.578	76.8823	392.578	78.5718	392.578	76.5833	392.578	78.3754	392.578	76.4695	392.578	78.203	392.578	76.5341	392.578	78.0411	392.578	76.7267	392.578	77.8895	392.578	76.977	392.578	77.7475	392.578	77.2242	392.578	77.603	392.578	77.4342
405.762	81.5521	405.762	81.3552	405.762	81.6545	405.762	81.079	405.762	81.6486	405.762	80.7379	405.762	81.5258	405.762	80.3428	405.762	81.2845	405.762	79.8998	405.762	80.9341	405.762	79.4125	405.762	80.4971	405.762	78.8858	405.762	80.011	405.762	78.3336	405.762	79.5257	405.762	77.7856	405.762	79.0929	405.762	77.2923	405.762	78.7505	405.762	76.9192	405.762	78.5096	405.762	76.7262	405.762	78.3565	405.762	76.7361	405.762	78.2663	405.762	76.9176	405.762	78.2156	405.762	77.1999	405.762	78.1842	405.762	77.5042	405.762	78.1501	405.762	77.7699	405.762	78.0862	405.762	77.9652
420.41	81.3903	420.41	81.1784	420.41	81.4908	420.41	80.8728	420.41	81.4673	420.41	80.4936	420.41	81.3151	420.41	80.06	420.41	81.0392	420.41	79.5879	420.41	80.6565	420.41	79.0889	420.41	80.198	420.41	78.5725	420.41	79.707	420.41	78.0507	420.41	79.232	420.41	77.5431	420.41	78.8117	420.41	77.0815	420.41	78.4613	420.41	76.7087	420.41	78.1724	420.41	76.4706	420.41	77.9287	420.41	76.3964	420.41	77.725	420.41	76.4797	420.41	77.5698	420.41	76.6742	420.41	77.4708	420.41	76.9107	420.41	77.4148	420.41	77.1247	420.41	77.365	420.41	77.2775
435.059	81.6106	435.059	81.3957	435.059	81.7134	435.059	81.0862	435.059	81.6894	435.059	80.6995	435.059	81.5293	435.059	80.2498	435.059	81.2325	435.059	79.7469	435.059	80.8104	435.059	79.1968	435.059	80.2906	435.059	78.6062	435.059	79.7196	435.059	77.9898	435.059	79.1586	435.059	77.3787	435.059	78.6666	435.059	76.8277	435.059	78.2781	435.059	76.412	435.059	77.9914	435.059	76.2028	435.059	77.7843	435.059	76.227	435.059	77.6391	435.059	76.4435	435.059	77.5535	435.059	76.7608	435.059	77.526	435.059	77.0812	435.059	77.5361	435.059	77.333	435.059	77.5392	435.059	77.4838
451.172	81.1667	451.172	80.9671	451.172	81.2653	451.172	80.6856	451.172	81.2487	451.172	80.3409	451.172	81.1104	451.172	79.9455	451.172	80.8537	451.172	79.5015	451.172	80.492	451.172	79.002	451.172	80.0495	451.172	78.4379	451.172	79.5595	451.172	77.8112	451.172	79.0609	451.172	77.1494	451.172	78.5902	451.172	76.5181	451.172	78.1718	451.172	76.0198	451.172	77.8142	451.172	75.761	451.172	77.5171	451.172	75.7887	451.172	77.2869	451.172	76.0507	451.172	77.1425	451.172	76.4253	451.172	77.0981	451.172	76.787	451.172	77.1332	451.172	77.0493	451.172	77.1855	451.172	77.1769
465.82	81.4155	465.82	81.1944	465.82	81.5151	465.82	80.8738	465.82	81.4767	465.82	80.4758	465.82	81.2926	465.82	80.0182	465.82	80.9673	465.82	79.5105	465.82	80.5198	465.82	78.9537	465.82	79.9856	465.82	78.344	465.82	79.4155	465.82	77.6817	465.82	78.8661	465.82	76.9826	465.82	78.3814	465.82	76.291	465.82	77.9729	465.82	75.6884	465.82	77.6171	465.82	75.28	465.82	77.2795	465.82	75.1445	465.82	76.9477	465.82	75.2728	465.82	76.6499	465.82	75.5624	465.82	76.4367	465.82	75.8794	465.82	76.3322	465.82	76.1226	465.82	76.2985	465.82	76.2535
483.398	81.3933	483.398	81.1529	483.398	81.5055	483.398	80.8075	483.398	81.4733	483.398	80.3834	483.398	81.2895	483.398	79.9032	483.398	80.9569	483.398	79.3793	483.398	80.491	483.398	78.8115	483.398	79.9243	483.398	78.1913	483.398	79.3098	483.398	77.5146	483.398	78.7159	483.398	76.7981	483.398	78.2074	483.398	76.0961	483.398	77.8147	483.398	75.508	483.398	77.5211	483.398	75.1546	483.398	77.285	483.398	75.1107	483.398	77.0779	483.398	75.3419	483.398	76.9048	483.398	75.7226	483.398	76.7874	483.398	76.1135	483.398	76.7286	483.398	76.4196	483.398	76.6896	483.398	76.6054
499.512	81.3877	499.512	81.2162	499.512	81.4542	499.512	80.9568	499.512	81.3989	499.512	80.6221	499.512	81.2094	499.512	80.217	499.512	80.881	499.512	79.7384	499.512	80.4202	499.512	79.1778	499.512	79.85	499.512	78.5288	499.512	79.2164	499.512	77.7955	499.512	78.5902	499.512	77.0046	499.512	78.0525	499.512	76.2174	499.512	77.6567	499.512	75.5377	499.512	77.3939	499.512	75.0926	499.512	77.2047	499.512	74.9701	499.512	77.0314	499.512	75.1511	499.512	76.8601	499.512	75.5138	499.512	76.7161	499.512	75.9103	499.512	76.62	499.512	76.233	499.512	76.5485	499.512	76.4394
517.09	81.1843	517.09	80.9554	517.09	81.2895	517.09	80.6349	517.09	81.2489	517.09	80.2572	517.09	81.0525	517.09	79.8468	517.09	80.7034	517.09	79.4081	517.09	80.2182	517.09	78.9236	517.09	79.6296	517.09	78.3632	517.09	78.9887	517.09	77.7	517.09	78.3596	517.09	76.9275	517.09	77.8007	517.09	76.0785	517.09	77.3362	517.09	75.2478	517.09	76.9461	517.09	74.5992	517.09	76.5927	517.09	74.3064	517.09	76.264	517.09	74.4189	517.09	75.9943	517.09	74.8028	517.09	75.8368	517.09	75.2482	517.09	75.801	517.09	75.5956	517.09	75.8183	517.09	75.7788
536.133	81.0751	536.133	80.8472	536.133	81.1772	536.133	80.5317	536.133	81.1252	536.133	80.1655	536.133	80.9055	536.133	79.772	536.133	80.5225	536.133	79.3514	536.133	80.002	536.133	78.8819	536.133	79.3941	536.133	78.3318	536.133	78.7731	536.133	77.6772	536.133	78.2216	536.133	76.9203	536.133	77.7955	536.133	76.108	536.133	77.4897	536.133	75.3478	536.133	77.2442	536.133	74.7979	536.133	76.991	536.133	74.5955	536.133	76.706	536.133	74.7502	536.133	76.4277	536.133	75.1273	536.133	76.2274	536.133	75.5463	536.133	76.1399	536.133	75.8739	536.133	76.1164	536.133	76.056
555.176	81.0245	555.176	80.7456	555.176	81.1693	555.176	80.3688	555.176	81.1556	555.176	79.9354	555.176	80.9711	555.176	79.4776	555.176	80.6145	555.176	79.0027	555.176	80.0978	555.176	78.4887	555.176	79.4525	555.176	77.8975	555.176	78.7392	555.176	77.1971	555.176	78.0517	555.176	76.3846	555.176	77.4945	555.176	75.5097	555.176	77.1258	555.176	74.6989	555.176	76.9102	555.176	74.1529	555.176	76.7459	555.176	74.0504	555.176	76.5498	555.176	74.3862	555.176	76.3223	555.176	74.9558	555.176	76.1421	555.176	75.5164	555.176	76.0804	555.176	75.9104	555.176	76.1048	555.176	76.0895
574.219	81.0971	574.219	80.733	574.219	81.2774	574.219	80.2444	574.219	81.2405	574.219	79.7096	574.219	80.977	574.219	79.2033	574.219	80.4994	574.219	78.7621	574.219	79.8447	574.219	78.3652	574.219	79.0825	574.219	77.9483	574.219	78.3224	574.219	77.4379	574.219	77.6957	574.219	76.7813	574.219	77.2889	574.219	75.9671	574.219	77.0704	574.219	75.0512	574.219	76.9039	574.219	74.1929	574.219	76.6434	574.219	73.6492	574.219	76.2193	574.219	73.6121	574.219	75.6856	574.219	73.9925	574.219	75.2154	574.219	74.494	574.219	74.9827	574.219	74.863	574.219	74.977	574.219	75.0021
594.727	81.4481	594.727	81.1134	594.727	81.5852	594.727	80.6232	594.727	81.5045	594.727	80.0465	594.727	81.1984	594.727	79.4688	594.727	80.6669	594.727	78.955	594.727	79.9212	594.727	78.5082	594.727	78.9969	594.727	78.0658	594.727	77.9822	594.727	77.5413	594.727	77.0505	594.727	76.8725	594.727	76.4391	594.727	76.051	594.727	76.2904	594.727	75.1421	594.727	76.486	594.727	74.302	594.727	76.7408	594.727	73.7552	594.727	76.8189	594.727	73.6583	594.727	76.6296	594.727	73.9418	594.727	76.2257	594.727	74.3739	594.727	75.7576	594.727	74.7642	594.727	75.3667	594.727	75.0682
615.234	81.4401	615.234	80.9864	615.234	81.6705	615.234	80.3477	615.234	81.6607	615.234	79.596	615.234	81.4057	615.234	78.8399	615.234	80.908	615.234	78.1949	615.234	80.1778	615.234	77.7158	615.234	79.2395	615.234	77.3532	615.234	78.1507	615.234	76.9897	615.234	77.0388	615.234	76.5161	615.234	76.132	615.234	75.8822	615.234	75.6875	615.234	75.1254	615.234	75.7626	615.234	74.3991	615.234	76.1275	615.234	73.9657	615.234	76.4881	615.234	74.0368	615.234	76.6805	615.234	74.5437	615.234	76.6899	615.234	75.2023	615.234	76.5826	615.234	75.7722	615.234	76.4138	615.234	76.1658
637.207	82.2573	637.207	81.8791	637.207	82.4074	637.207	81.2894	637.207	82.3277	637.207	80.5301	637.207	82.0242	637.207	79.6749	637.207	81.5041	637.207	78.8254	637.207	80.774	637.207	78.0803	637.207	79.8426	637.207	77.4857	637.207	78.7358	637.207	77.0069	637.207	77.5307	637.207	76.5546	637.207	76.4033	637.207	76.0396	637.207	75.6241	637.207	75.4177	637.207	75.3763	637.207	74.7275	637.207	75.5437	637.207	74.1241	637.207	75.8278	637.207	73.8422	637.207	76.0081	637.207	74.0041	637.207	76.0206	637.207	74.4693	637.207	75.9012	637.207	74.9867	637.207	75.6966	637.207	75.4029
659.18	81.6766	659.18	81.3666	659.18	81.7972	659.18	80.8777	659.18	81.7255	659.18	80.2317	659.18	81.4637	659.18	79.4704	659.18	81.0178	659.18	78.6635	659.18	80.3959	659.18	77.9033	659.18	79.6093	659.18	77.2713	659.18	78.6804	659.18	76.7907	659.18	77.6629	659.18	76.4143	659.18	76.6772	659.18	76.0691	659.18	75.9336	659.18	75.7148	659.18	75.6524	659.18	75.3839	659.18	75.8582	659.18	75.1863	659.18	76.3259	659.18	75.2493	659.18	76.7894	659.18	75.5968	659.18	77.1004	659.18	76.1038	659.18	77.225	659.18	76.5978	659.18	77.1772	659.18	76.9673
682.617	81.6869	682.617	81.3061	682.617	81.837	682.617	80.7218	682.617	81.7536	682.617	79.9881	682.617	81.4504	682.617	79.1791	682.617	80.9491	682.617	78.3711	682.617	80.272	682.617	77.6239	682.617	79.4393	682.617	76.9689	682.617	78.4757	682.617	76.4081	682.617	77.4281	682.617	75.9214	682.617	76.3938	682.617	75.4815	682.617	75.5363	682.617	75.0796	682.617	75.0447	682.617	74.7556	682.617	75.0144	682.617	74.6191	682.617	75.365	682.617	74.8009	682.617	75.9078	682.617	75.3166	682.617	76.4594	682.617	75.9987	682.617	76.8833	682.617	76.6138	682.617	77.0829	682.617	76.9969
707.52	81.9064	707.52	81.594	707.52	81.9981	707.52	81.0683	707.52	81.8682	707.52	80.3483	707.52	81.5207	707.52	79.4715	707.52	80.9646	707.52	78.499	707.52	80.2145	707.52	77.5097	707.52	79.2941	707.52	76.5788	707.52	78.2424	707.52	75.7494	707.52	77.1258	707.52	75.0267	707.52	76.0509	707.52	74.4049	707.52	75.1601	707.52	73.9049	707.52	74.5743	707.52	73.5979	707.52	74.3126	707.52	73.5894	707.52	74.3096	707.52	73.9421	707.52	74.5188	707.52	74.5735	707.52	74.9202	707.52	75.2634	707.52	75.4189	707.52	75.7796	707.52	75.8297	707.52	75.9781
732.422	81.618	732.422	81.4009	732.422	81.6139	732.422	80.9619	732.422	81.406	732.422	80.3305	732.422	81.0146	732.422	79.5727	732.422	80.4542	732.422	78.7795	732.422	79.7357	732.422	78.0322	732.422	78.8781	732.422	77.3606	732.422	77.9249	732.422	76.7342	732.422	76.9538	732.422	76.0972	732.422	76.0693	732.422	75.4128	732.422	75.3808	732.422	74.6979	732.422	74.9749	732.422	74.0564	732.422	74.8676	732.422	73.6952	732.422	74.9791	732.422	73.8165	732.422	75.1997	732.422	74.3834	732.422	75.4697	732.422	75.1054	732.422	75.7533	732.422	75.6859	732.422	75.9645	732.422	75.974
757.324	81.2494	757.324	81.0464	757.324	81.2335	757.324	80.6231	757.324	81.0128	757.324	79.9972	757.324	80.6081	757.324	79.2107	757.324	80.0412	757.324	78.3343	757.324	79.3322	757.324	77.4636	757.324	78.5008	757.324	76.6942	757.324	77.5684	757.324	76.0697	757.324	76.5649	757.324	75.5508	757.324	75.548	757.324	75.0505	757.324	74.6374	757.324	74.5158	757.324	74.0283	757.324	74.0101	757.324	73.8965	757.324	73.7522	757.324	74.2195	757.324	73.9822	757.324	74.784	757.324	74.6618	757.324	75.384	757.324	75.4622	757.324	75.9033	757.324	76.069	757.324	76.2536	757.324	76.3346
785.156	81.8791	785.156	81.6445	785.156	81.8861	785.156	81.186	785.156	81.6692	785.156	80.5196	785.156	81.2378	785.156	79.6802	785.156	80.6055	785.156	78.7275	785.156	79.7904	785.156	77.744	785.156	78.8179	785.156	76.8194	785.156	77.7346	785.156	76.0152	785.156	76.6266	785.156	75.3317	785.156	75.6182	785.156	74.7097	785.156	74.8127	785.156	74.0797	785.156	74.21	785.156	73.4417	785.156	73.7313	785.156	72.9641	785.156	73.3751	785.156	72.9737	785.156	73.3159	785.156	73.5919	785.156	73.7138	785.156	74.4625	785.156	74.4144	785.156	75.1236	785.156	75.0509	785.156	75.3307
811.523	81.4506	811.523	81.3024	811.523	81.3563	811.523	80.9204	811.523	81.0488	811.523	80.3497	811.523	80.5747	811.523	79.6494	811.523	79.9651	811.523	78.8669	811.523	79.213	811.523	78.0345	811.523	78.2827	811.523	77.1895	811.523	77.1585	811.523	76.386	811.523	75.9194	811.523	75.6791	811.523	74.7983	811.523	75.094	811.523	74.1	811.523	74.6136	811.523	73.9276	811.523	74.2129	811.523	74.0938	811.523	73.9443	811.523	74.3853	811.523	73.9853	811.523	74.7479	811.523	74.463	811.523	75.2058	811.523	75.1978	811.523	75.7002	811.523	75.8364	811.523	76.0682	811.523	76.1428
840.82	81.7922	840.82	81.567	840.82	81.7528	840.82	81.0776	840.82	81.4786	840.82	80.3553	840.82	81.0182	840.82	79.4548	840.82	80.4176	840.82	78.4456	840.82	79.6922	840.82	77.413	840.82	78.811	840.82	76.4569	840.82	77.7191	840.82	75.6641	840.82	76.4061	840.82	75.0671	840.82	75.002	840.82	74.6459	840.82	73.817	840.82	74.3696	840.82	73.1692	840.82	74.2235	840.82	73.1012	840.82	74.2231	840.82	73.4214	840.82	74.4331	840.82	73.9602	840.82	74.9044	840.82	74.6413	840.82	75.5238	840.82	75.3659	840.82	76.0282	840.82	75.9456	840.82	76.1933
870.117	82.2305	870.117	82.0846	870.117	82.0324	870.117	81.5882	870.117	81.5523	870.117	80.7947	870.117	80.8921	870.117	79.8097	870.117	80.1565	870.117	78.7563	870.117	79.3986	870.117	77.7209	870.117	78.586	870.117	76.7235	870.117	77.6276	870.117	75.7511	870.117	76.4533	870.117	74.8262	870.117	75.1101	870.117	74.044	870.117	73.8468	870.117	73.5208	870.117	73.06	870.117	73.2876	870.117	72.9126	870.117	73.3072	870.117	73.132	870.117	73.624	870.117	73.4664	870.117	74.2939	870.117	73.9617	870.117	75.1111	870.117	74.6753	870.117	75.6957	870.117	75.3943	870.117	75.7974
900.879	82.1825	900.879	81.9767	900.879	81.9714	900.879	81.3388	900.879	81.4151	900.879	80.3277	900.879	80.6294	900.879	79.097	900.879	79.7586	900.879	77.8802	900.879	78.9321	900.879	76.8837	900.879	78.1902	900.879	76.1471	900.879	77.4437	900.879	75.5579	900.879	76.5322	900.879	74.9921	900.879	75.3471	900.879	74.3928	900.879	73.9611	900.879	73.7813	900.879	72.7388	900.879	73.2703	900.879	72.1818	900.879	73.0676	900.879	72.3915	900.879	73.3798	900.879	73.1115	900.879	74.191	900.879	74.1449	900.879	75.1848	900.879	75.2323	900.879	75.9714	900.879	76.0241	900.879	76.2871
933.105	83.2386	933.105	83.1447	933.105	82.8513	933.105	82.559	933.105	82.0458	933.105	81.5298	933.105	80.9384	933.105	80.1858	933.105	79.6973	933.105	78.7506	933.105	78.5149	933.105	77.4741	933.105	77.515	933.105	76.4489	933.105	76.6396	933.105	75.5309	933.105	75.7089	933.105	74.5069	933.105	74.6451	933.105	73.3009	933.105	73.6173	933.105	72.1311	933.105	72.9485	933.105	71.559	933.105	72.7911	933.105	71.9447	933.105	72.9736	933.105	72.9464	933.105	73.3613	933.105	74.1435	933.105	74.0944	933.105	75.3011	933.105	75.1417	933.105	76.1512	933.105	76.0586	933.105	76.438
965.332	82.8669	965.332	82.8178	965.332	82.4767	965.332	82.2736	965.332	81.7651	965.332	81.2448	965.332	80.8784	965.332	79.8134	965.332	79.936	965.332	78.182	965.332	78.9927	965.332	76.7539	965.332	78.0445	965.332	75.9801	965.332	77.0552	965.332	75.8386	965.332	75.9703	965.332	75.8331	965.332	74.715	965.332	75.515	965.332	73.221	965.332	74.6579	965.332	71.6625	965.332	73.2757	965.332	70.8631	965.332	71.8826	965.332	71.3937	965.332	71.5721	965.332	72.4631	965.332	72.5577	965.332	73.5195	965.332	73.8795	965.332	74.5071	965.332	74.8956	965.332	75.2114	965.332	75.3673
1000.49	82.8342	1000.49	83.0097	1000.49	82.2419	1000.49	82.6775	1000.49	81.3497	1000.49	81.7896	1000.49	80.2941	1000.49	80.3613	1000.49	79.2414	1000.49	78.5063	1000.49	78.3553	1000.49	76.521	1000.49	77.6771	1000.49	74.9869	1000.49	77.0732	1000.49	74.4481	1000.49	76.3556	1000.49	74.6614	1000.49	75.3684	1000.49	74.9147	1000.49	73.9497	1000.49	74.7354	1000.49	72.1035	1000.49	73.951	1000.49	70.8439	1000.49	72.7258	1000.49	71.5062	1000.49	71.8998	1000.49	72.7043	1000.49	72.4095	1000.49	73.2348	1000.49	73.554	1000.49	73.3831	1000.49	74.2571	1000.49	73.7546	1000.49	74.2319
1035.64	83.0216	1035.64	83.2062	1035.64	82.5009	1035.64	82.9871	1035.64	81.7168	1035.64	82.3069	1035.64	80.7406	1035.64	81.0902	1035.64	79.6703	1035.64	79.2119	1035.64	78.6589	1035.64	76.5589	1035.64	77.8571	1035.64	73.5607	1035.64	77.2731	1035.64	72.4968	1035.64	76.7345	1035.64	73.973	1035.64	75.9568	1035.64	75.4155	1035.64	74.5151	1035.64	75.9059	1035.64	71.7675	1035.64	75.3271	1035.64	67.5263	1035.64	73.7503	1035.64	67.7822	1035.64	71.9585	1035.64	71.5012	1035.64	71.7815	1035.64	73.4676	1035.64	72.9485	1035.64	74.1158	1035.64	73.8546	1035.64	74.2204	1035.64	74.1819
1072.27	83.1973	1072.27	83.1962	1072.27	82.7757	1072.27	82.8501	1072.27	81.9357	1072.27	82.2237	1072.27	80.7584	1072.27	81.2771	1072.27	79.3171	1072.27	79.8822	1072.27	77.6723	1072.27	77.8969	1072.27	76.1333	1072.27	75.261	1072.27	75.4977	1072.27	72.3721	1072.27	76.044	1072.27	70.9646	1072.27	76.7511	1072.27	72.0109	1072.27	76.5373	1072.27	73.5842	1072.27	74.4768	1072.27	74.5331	1072.27	68.6226	1072.27	74.5951	1072.27	64.9242	1072.27	73.8456	1072.27	73.4403	1072.27	72.9091	1072.27	76.8255	1072.27	72.8951	1072.27	77.8236	1072.27	74.1138	1072.27	77.3285	1072.27	75.8726
1108.89	84.142	1108.89	83.6703	1108.89	84.1281	1108.89	82.8723	1108.89	83.6028	1108.89	82.0331	1108.89	82.6021	1108.89	81.3169	1108.89	81.1426	1108.89	80.5068	1108.89	79.1425	1108.89	79.1605	1108.89	76.4292	1108.89	76.8196	1108.89	73.3745	1108.89	72.9892	1108.89	73.1852	1108.89	68.4663	1108.89	75.9729	1108.89	70.2119	1108.89	77.9515	1108.89	73.6153	1108.89	78.0991	1108.89	75.2423	1108.89	75.6081	1108.89	75.4813	1108.89	67.1014	1108.89	75.094	1108.89	70.9741	1108.89	75.244	1108.89	77.7956	1108.89	76.5006	1108.89	80.204	1108.89	78.2326	1108.89	80.5694	1108.89	79.7422
1148.44	85.6341	1148.44	84.8892	1148.44	85.6818	1148.44	83.4081	1148.44	85.178	1148.44	81.5231	1148.44	84.2776	1148.44	80.2366	1148.44	83.0935	1148.44	80.095	1148.44	81.6201	1148.44	80.0588	1148.44	79.5863	1148.44	79.0723	1148.44	76.1979	1148.44	76.4829	1148.44	69.7133	1148.44	71.5191	1148.44	70.8135	1148.44	68.1906	1148.44	77.0199	1148.44	73.3121	1148.44	79.5435	1148.44	76.5232	1148.44	79.3076	1148.44	77.8946	1148.44	75.8455	1148.44	78.2999	1148.44	72.0791	1148.44	78.656	1148.44	78.0779	1148.44	79.6418	1148.44	81.4772	1148.44	81.0355	1148.44	82.5182	1148.44	82.177
1189.45	85.4252	1189.45	85.2847	1189.45	84.8868	1189.45	84.2983	1189.45	83.9073	1189.45	82.4398	1189.45	82.8139	1189.45	80.1778	1189.45	81.9741	1189.45	79.0437	1189.45	81.5218	1189.45	79.5219	1189.45	81.0948	1189.45	79.7821	1189.45	79.9087	1189.45	78.6397	1189.45	76.6724	1189.45	75.3738	1189.45	66.3213	1189.45	68.7541	1189.45	71.0539	1189.45	69.5134	1189.45	78.7422	1189.45	74.9661	1189.45	81.2264	1189.45	77.4233	1189.45	80.8671	1189.45	78.6308	1189.45	78.529	1189.45	79.6605	1189.45	78.2807	1189.45	80.7941	1189.45	80.6621	1189.45	81.7576	1189.45	82.0151	1189.45	82.2481
1230.47	85.2174	1230.47	85.8234	1230.47	83.9882	1230.47	85.5875	1230.47	82.3901	1230.47	84.29	1230.47	80.8672	1230.47	81.8551	1230.47	80.0075	1230.47	79.2301	1230.47	80.1109	1230.47	79.0546	1230.47	80.8199	1230.47	80.1923	1230.47	81.171	1230.47	80.1865	1230.47	80.1584	1230.47	78.1814	1230.47	76.4567	1230.47	72.7624	1230.47	62.2617	1230.47	64.253	1230.47	73.8629	1230.47	73.4432	1230.47	80.013	1230.47	76.7874	1230.47	81.6506	1230.47	77.964	1230.47	80.4618	1230.47	79.0876	1230.47	77.6574	1230.47	80.5435	1230.47	77.461	1230.47	81.4668	1230.47	79.7246	1230.47	81.2394
1274.41	84.6527	1274.41	85.5537	1274.41	83.3464	1274.41	85.7089	1274.41	81.9152	1274.41	84.8245	1274.41	80.5271	1274.41	82.6617	1274.41	79.2716	1274.41	79.0851	1274.41	78.4653	1274.41	75.8226	1274.41	78.7831	1274.41	76.7302	1274.41	79.7414	1274.41	77.8642	1274.41	79.944	1274.41	76.9505	1274.41	78.3663	1274.41	73.3065	1274.41	73.058	1274.41	64.0233	1274.41	60.4409	1274.41	67.8328	1274.41	76.5008	1274.41	73.4625	1274.41	80.3735	1274.41	75.6148	1274.41	80.6071	1274.41	77.5011	1274.41	78.099	1274.41	79.3907	1274.41	73.556	1274.41	79.9582	1274.41	74.4433	1274.41	78.414
1319.82	84.2006	1319.82	84.733	1319.82	83.4494	1319.82	84.6825	1319.82	82.6981	1319.82	83.8244	1319.82	81.8024	1319.82	82.0307	1319.82	80.4897	1319.82	79.1601	1319.82	78.7771	1319.82	75.9167	1319.82	77.5501	1319.82	75.899	1319.82	77.9584	1319.82	77.774	1319.82	78.8576	1319.82	78.3283	1319.82	78.5749	1319.82	76.841	1319.82	75.7242	1319.82	72.0296	1319.82	63.5416	1319.82	57.2701	1319.82	72.6379	1319.82	68.8024	1319.82	78.9706	1319.82	72.5179	1319.82	80.1413	1319.82	74.5032	1319.82	77.9617	1319.82	76.9363	1319.82	71.4912	1319.82	78.2661	1319.82	70.7374	1319.82	76.828
1366.7	84.6946	1366.7	84.546	1366.7	84.5622	1366.7	84.1404	1366.7	84.0495	1366.7	83.3621	1366.7	83.0959	1366.7	81.9243	1366.7	81.6832	1366.7	79.2544	1366.7	79.7787	1366.7	74.5462	1366.7	77.6008	1366.7	71.3289	1366.7	76.5731	1366.7	74.777	1366.7	77.5293	1366.7	76.4421	1366.7	78.2178	1366.7	75.6895	1366.7	76.8051	1366.7	72.4804	1366.7	70.4767	1366.7	66.0346	1366.7	66.745	1366.7	64.0227	1366.7	77.207	1366.7	68.5338	1366.7	79.8941	1366.7	72.0465	1366.7	78.7683	1366.7	74.9766	1366.7	72.8692	1366.7	75.9332	1366.7	59.9394	1366.7	73.5011
1413.57	84.8396	1413.57	84.4453	1413.57	84.7428	1413.57	83.874	1413.57	84.2273	1413.57	83.2949	1413.57	83.5592	1413.57	82.2776	1413.57	82.6764	1413.57	80.1058	1413.57	81.0908	1413.57	76.0966	1413.57	78.4498	1413.57	69.8025	1413.57	75.9811	1413.57	64.8063	1413.57	76.4863	1413.57	66.2135	1413.57	77.863	1413.57	66.7914	1413.57	77.7877	1413.57	64.6683	1413.57	74.9801	1413.57	63.0985	1413.57	62.6053	1413.57	67.3051	1413.57	71.5865	1413.57	67.6749	1413.57	77.3223	1413.57	66.9034	1413.57	77.5786	1413.57	71.6826	1413.57	74.0747	1413.57	73.1294	1413.57	64.3849	1413.57	69.0684
1463.38	85.0833	1463.38	84.7077	1463.38	84.7776	1463.38	83.8876	1463.38	83.8853	1463.38	82.854	1463.38	82.7826	1463.38	81.4801	1463.38	81.685	1463.38	79.3013	1463.38	80.3931	1463.38	75.6839	1463.38	78.4791	1463.38	70.0771	1463.38	75.5966	1463.38	67.3312	1463.38	72.9904	1463.38	71.1694	1463.38	74.413	1463.38	73.2195	1463.38	76.2243	1463.38	72.286	1463.38	75.3568	1463.38	66.1151	1463.38	69.2816	1463.38	61.843	1463.38	62.0082	1463.38	67.7961	1463.38	73.0947	1463.38	65.2501	1463.38	74.7505	1463.38	66.46	1463.38	72.6801	1463.38	70.9847	1463.38	69.3376	1463.38	70.9899
1516.11	85.1331	1516.11	84.9284	1516.11	84.4754	1516.11	83.6483	1516.11	83.5221	1516.11	81.7742	1516.11	82.3533	1516.11	79.9937	1516.11	80.5742	1516.11	78.2316	1516.11	78.31	1516.11	75.7541	1516.11	76.4036	1516.11	71.6723	1516.11	74.9627	1516.11	65.7213	1516.11	73.2041	1516.11	67.7983	1516.11	72.3235	1516.11	71.7695	1516.11	73.2583	1516.11	72.362	1516.11	73.0335	1516.11	68.4438	1516.11	69.7926	1516.11	56.8116	1516.11	62.1063	1516.11	65.1491	1516.11	67.6579	1516.11	64.9095	1516.11	71.5042	1516.11	61.6066	1516.11	70.5738	1516.11	67.9191	1516.11	69.0915	1516.11	70.7214
1568.85	84.3846	1568.85	83.998	1568.85	84.0993	1568.85	82.6695	1568.85	83.1721	1568.85	80.5342	1568.85	81.3993	1568.85	78.3881	1568.85	78.8788	1568.85	76.6736	1568.85	76.5462	1568.85	74.6055	1568.85	75.3305	1568.85	71.5211	1568.85	74.3268	1568.85	67.4037	1568.85	72.8023	1568.85	65.7748	1568.85	71.6221	1568.85	69.6193	1568.85	71.5721	1568.85	71.6436	1568.85	71.0403	1568.85	69.5685	1568.85	68.8223	1568.85	61.139	1568.85	64.866	1568.85	62.2154	1568.85	65.377	1568.85	64.9954	1568.85	69.5524	1568.85	64.5045	1568.85	69.8987	1568.85	66.6289	1568.85	68.4375	1568.85	69.0696
1624.51	84.2972	1624.51	83.1135	1624.51	84.2643	1624.51	81.4823	1624.51	82.7343	1624.51	79.7395	1624.51	80.0493	1624.51	77.2513	1624.51	77.1107	1624.51	73.6789	1624.51	74.9769	1624.51	70.3596	1624.51	73.6152	1624.51	68.2034	1624.51	72.4534	1624.51	65.0529	1624.51	71.6624	1624.51	60.1899	1624.51	71.4349	1624.51	63.9421	1624.51	70.5198	1624.51	67.6023	1624.51	68.3149	1624.51	66.8985	1624.51	65.9035	1624.51	62.0186	1624.51	65.1926	1624.51	61.1318	1624.51	66.0566	1624.51	65.5823	1624.51	65.8686	1624.51	65.2619	1624.51	68.4004	1624.51	64.6737	1624.51	69.1908	1624.51	67.0756
1681.64	84.4756	1681.64	83.0656	1681.64	84.185	1681.64	80.8898	1681.64	82.0066	1681.64	78.7081	1681.64	78.6721	1681.64	75.5851	1681.64	75.2028	1681.64	69.9432	1681.64	71.9459	1681.64	65.2675	1681.64	69.7854	1681.64	67.0622	1681.64	69.0215	1681.64	66.9518	1681.64	67.6891	1681.64	64.8602	1681.64	68.2452	1681.64	62.7543	1681.64	70.3619	1681.64	62.9866	1681.64	70.3575	1681.64	62.1944	1681.64	68.133	1681.64	59.7507	1681.64	63.5936	1681.64	61.5125	1681.64	62.8909	1681.64	62.3003	1681.64	64.9545	1681.64	62.6816	1681.64	64.0958	1681.64	64.0035	1681.64	67.3292	1681.64	67.974
1741.7	83.996	1741.7	82.9414	1741.7	83.5268	1741.7	80.8584	1741.7	81.1436	1741.7	77.7864	1741.7	76.9617	1741.7	73.3671	1741.7	71.6252	1741.7	66.6995	1741.7	68.9392	1741.7	60.7097	1741.7	70.2786	1741.7	64.299	1741.7	70.9345	1741.7	63.6772	1741.7	69.7552	1741.7	59.8608	1741.7	68.427	1741.7	59.227	1741.7	70.1276	1741.7	62.1968	1741.7	71.5107	1741.7	62.2003	1741.7	70.612	1741.7	57.8647	1741.7	66.7153	1741.7	58.3085	1741.7	65.1347	1741.7	56.472	1741.7	67.2057	1741.7	61.4431	1741.7	66.3259	1741.7	64.9011	1741.7	68.2763	1741.7	68.6086
1803.22	83.1634	1803.22	82.3847	1803.22	82.5857	1803.22	80.8468	1803.22	79.5775	1803.22	77.9843	1803.22	73.4444	1803.22	73.1328	1803.22	63.8541	1803.22	65.4558	1803.22	67.1734	1803.22	50.8474	1803.22	70.853	1803.22	58.516	1803.22	72.1164	1803.22	61.9734	1803.22	71.9304	1803.22	61.8112	1803.22	70.1714	1803.22	54.3978	1803.22	68.749	1803.22	54.8618	1803.22	69.8332	1803.22	59.1485	1803.22	70.6083	1803.22	51.8291	1803.22	68.0998	1803.22	54.799	1803.22	62.2988	1803.22	49.3572	1803.22	65.0917	1803.22	62.4349	1803.22	66.3573	1803.22	65.1106	1803.22	68.3457	1803.22	68.4184
1866.21	82.9774	1866.21	82.5164	1866.21	82.1655	1866.21	80.9082	1866.21	78.9047	1866.21	77.5552	1866.21	70.7933	1866.21	72.7212	1866.21	63.5348	1866.21	66.1275	1866.21	72.1198	1866.21	56.6668	1866.21	73.8417	1866.21	61.394	1866.21	74.21	1866.21	64.537	1866.21	74.0709	1866.21	65.3813	1866.21	72.5134	1866.21	56.3211	1866.21	70.0208	1866.21	54.6162	1866.21	68.7814	1866.21	54.0091	1866.21	70.8368	1866.21	52.7065	1866.21	70.6378	1866.21	52.4002	1866.21	63.2625	1866.21	54.9535	1866.21	63.4059	1866.21	61.4461	1866.21	65.6243	1866.21	68.078	1866.21	67.7207	1866.21	69.7281
1932.13	82.9767	1932.13	83.0565	1932.13	82.1665	1932.13	81.3651	1932.13	78.9128	1932.13	76.8745	1932.13	68.5623	1932.13	70.5726	1932.13	70.8172	1932.13	67.2136	1932.13	75.9663	1932.13	67.3074	1932.13	76.4269	1932.13	65.6259	1932.13	75.2093	1932.13	63.1085	1932.13	75.2612	1932.13	61.6207	1932.13	74.3338	1932.13	51.8124	1932.13	73.004	1932.13	63.402	1932.13	71.9744	1932.13	54.211	1932.13	70.8629	1932.13	55.0702	1932.13	71.1281	1932.13	52.7168	1932.13	66.7097	1932.13	62.0257	1932.13	57.6079	1932.13	56.9059	1932.13	65.693	1932.13	68.8383	1932.13	69.1735	1932.13	70.869
1999.51	82.6853	1999.51	83.5064	1999.51	81.0425	1999.51	81.6087	1999.51	77.694	1999.51	77.4279	1999.51	64.7576	1999.51	74.2912	1999.51	73.4002	1999.51	71.3815	1999.51	77.7397	1999.51	68.715	1999.51	78.6261	1999.51	66.0446	1999.51	76.3869	1999.51	61.4569	1999.51	75.0193	1999.51	45.6232	1999.51	74.989	1999.51	64.7643	1999.51	74.7827	1999.51	68.1732	1999.51	74.9127	1999.51	63.422	1999.51	71.9302	1999.51	63.8733	1999.51	68.7434	1999.51	53.2436	1999.51	67.1016	1999.51	63.9839	1999.51	60.7787	1999.51	58.5878	1999.51	62.8813	1999.51	64.3314	1999.51	69.1289	1999.51	68.54
2069.82	83.4295	2069.82	83.6058	2069.82	80.4293	2069.82	81.5302	2069.82	74.9026	2069.82	79.4821	2069.82	61.6813	2069.82	77.3916	2069.82	73.7737	2069.82	72.6832	2069.82	78.3933	2069.82	65.4065	2069.82	79.9841	2069.82	54.0313	2069.82	78.4129	2069.82	49.5151	2069.82	76.0299	2069.82	58.6774	2069.82	75.8235	2069.82	69.0689	2069.82	74.4982	2069.82	70.4887	2069.82	73.7726	2069.82	65.4998	2069.82	73.2429	2069.82	66.1987	2069.82	69.4167	2069.82	58.784	2069.82	67.2487	2069.82	64.6924	2069.82	65.4179	2069.82	64.0085	2069.82	59.4074	2069.82	54.0821	2069.82	70.5965	2069.82	68.6431
2143.07	84.5046	2143.07	84.1827	2143.07	82.0529	2143.07	82.1937	2143.07	75.2928	2143.07	79.8359	2143.07	61.1358	2143.07	76.4066	2143.07	75.8615	2143.07	72.2111	2143.07	78.8935	2143.07	68.7225	2143.07	79.8544	2143.07	62.5404	2143.07	78.341	2143.07	45.7441	2143.07	75.7481	2143.07	57.0252	2143.07	76.0589	2143.07	61.7711	2143.07	75.8782	2143.07	62.8001	2143.07	74.4967	2143.07	58.2594	2143.07	73.0214	2143.07	59.3005	2143.07	69.8884	2143.07	64.9957	2143.07	69.668	2143.07	62.78	2143.07	66.1257	2143.07	67.8205	2143.07	57.0927	2143.07	57.585	2143.07	67.464	2143.07	66.2128
2219.24	84.6851	2219.24	84.5456	2219.24	82.1614	2219.24	83.1127	2219.24	75.2546	2219.24	80.214	2219.24	62.2856	2219.24	75.2729	2219.24	77.1206	2219.24	69.2108	2219.24	79.9466	2219.24	61.4886	2219.24	80.515	2219.24	62.4764	2219.24	79.1433	2219.24	65.8616	2219.24	75.4294	2219.24	62.1955	2219.24	74.3375	2219.24	62.1251	2219.24	72.4553	2219.24	64.7568	2219.24	73.0423	2219.24	62.8918	2219.24	72.7927	2219.24	57.7532	2219.24	69.3492	2219.24	56.8305	2219.24	66.479	2219.24	58.0354	2219.24	63.2981	2219.24	66.2837	2219.24	62.6617	2219.24	65.3363	2219.24	69.8797	2219.24	67.1897
2296.88	84.0835	2296.88	84.5488	2296.88	80.6942	2296.88	82.9759	2296.88	72.083	2296.88	79.6345	2296.88	67.6001	2296.88	74.0907	2296.88	77.9537	2296.88	66.3488	2296.88	80.7585	2296.88	61.4866	2296.88	80.6323	2296.88	58.1695	2296.88	79.4082	2296.88	61.2521	2296.88	77.06	2296.88	68.9209	2296.88	76.5124	2296.88	65.899	2296.88	75.0459	2296.88	62.8447	2296.88	71.6375	2296.88	68.0124	2296.88	73.4085	2296.88	61.6239	2296.88	71.152	2296.88	58.0739	2296.88	66.8799	2296.88	58.168	2296.88	63.8477	2296.88	63.5298	2296.88	55.9439	2296.88	65.4117	2296.88	67.0664	2296.88	65.1743
2378.91	85.3752	2378.91	84.6741	2378.91	82.6067	2378.91	82.5734	2378.91	70.7396	2378.91	78.6951	2378.91	72.6725	2378.91	73.1539	2378.91	78.7625	2378.91	67.4835	2378.91	81.0968	2378.91	60.859	2378.91	81.3269	2378.91	69.2412	2378.91	79.6466	2378.91	71.1043	2378.91	76.3564	2378.91	71.1753	2378.91	77.1729	2378.91	71.6997	2378.91	75.6595	2378.91	68.2964	2378.91	73.4573	2378.91	63.7149	2378.91	73.2375	2378.91	69.1138	2378.91	72.7455	2378.91	60.2143	2378.91	67.7205	2378.91	61.6299	2378.91	66.0667	2378.91	59.6682	2378.91	28.5149	2378.91	64.7733	2378.91	66.9246	2378.91	65.9875
2462.4	85.6179	2462.4	84.9506	2462.4	83.4074	2462.4	82.1973	2462.4	72.7998	2462.4	78.3916	2462.4	75.2455	2462.4	73.5188	2462.4	80.2816	2462.4	61.9413	2462.4	81.1834	2462.4	70.9509	2462.4	81.0926	2462.4	72.4487	2462.4	79.0539	2462.4	67.9797	2462.4	74.3918	2462.4	67.735	2462.4	73.2865	2462.4	67.4948	2462.4	73.1788	2462.4	69.443	2462.4	72.8774	2462.4	66.9892	2462.4	73.512	2462.4	66.7041	2462.4	72.0085	2462.4	64.4675	2462.4	67.987	2462.4	59.7641	2462.4	66.2688	2462.4	49.7211	2462.4	41.0549	2462.4	67.3447	2462.4	68.0373	2462.4	65.9403
2548.83	84.8263	2548.83	84.6076	2548.83	82.1204	2548.83	82.8765	2548.83	71.0271	2548.83	78.9325	2548.83	76.2911	2548.83	65.5059	2548.83	81.5178	2548.83	70.571	2548.83	82.1747	2548.83	74.0217	2548.83	81.1862	2548.83	73.2811	2548.83	78.8012	2548.83	73.6915	2548.83	75.5524	2548.83	72.2976	2548.83	74.9219	2548.83	73.5619	2548.83	75.544	2548.83	72.4321	2548.83	69.5493	2548.83	68.6987	2548.83	72.5146	2548.83	68.2888	2548.83	72.5067	2548.83	67.129	2548.83	70.1385	2548.83	61.0766	2548.83	69.1465	2548.83	54.4474	2548.83	54.5106	2548.83	65.0428	2548.83	67.9564	2548.83	68.0332
2639.65	85.1619	2639.65	84.653	2639.65	82.5868	2639.65	82.9126	2639.65	69.9849	2639.65	77.6956	2639.65	77.6926	2639.65	65.8237	2639.65	82.2349	2639.65	73.5477	2639.65	82.548	2639.65	72.508	2639.65	81.5566	2639.65	71.6762	2639.65	77.9843	2639.65	72.9719	2639.65	72.3366	2639.65	73.7433	2639.65	74.4061	2639.65	69.1316	2639.65	76.2449	2639.65	70.1143	2639.65	73.5681	2639.65	71.6937	2639.65	70.7783	2639.65	65.6191	2639.65	71.9661	2639.65	67.2159	2639.65	69.8332	2639.65	62.8266	2639.65	69.5897	2639.65	58.5564	2639.65	55.3883	2639.65	64.5949	2639.65	68.3286	2639.65	65.6447
2731.93	85.234	2731.93	85.2547	2731.93	82.8063	2731.93	82.6753	2731.93	71.5159	2731.93	74.8682	2731.93	77.4539	2731.93	71.6026	2731.93	82.629	2731.93	72.4992	2731.93	82.8726	2731.93	75.5779	2731.93	82.0067	2731.93	76.32	2731.93	78.7466	2731.93	75.1524	2731.93	70.6715	2731.93	73.2778	2731.93	70.993	2731.93	72.2252	2731.93	74.072	2731.93	67.8928	2731.93	74.8349	2731.93	70.0516	2731.93	71.3745	2731.93	69.6328	2731.93	71.3186	2731.93	65.84	2731.93	68.8189	2731.93	63.2185	2731.93	67.0768	2731.93	60.9082	2731.93	54.3656	2731.93	65.7528	2731.93	69.1649	2731.93	67.8069
2828.61	85.4209	2828.61	85.4331	2828.61	82.4263	2828.61	82.2062	2828.61	70.9667	2828.61	75.9886	2828.61	77.529	2828.61	71.6734	2828.61	82.4539	2828.61	76.0008	2828.61	82.9304	2828.61	76.2837	2828.61	81.8803	2828.61	74.0635	2828.61	79.2924	2828.61	73.2577	2828.61	73.5841	2828.61	74.2766	2828.61	74.8433	2828.61	74.0226	2828.61	77.3551	2828.61	68.7295	2828.61	75.6195	2828.61	71.5581	2828.61	71.0825	2828.61	70.4623	2828.61	70.3506	2828.61	67.0913	2828.61	70.3321	2828.61	63.7424	2828.61	66.4471	2828.61	58.6361	2828.61	57.6068	2828.61	68.6001	2828.61	70.6726	2828.61	67.4421
2928.22	85.0154	2928.22	84.9592	2928.22	82.5754	2928.22	82.238	2928.22	70.8149	2928.22	75.4364	2928.22	78.6168	2928.22	75.03	2928.22	82.3722	2928.22	76.5307	2928.22	82.4044	2928.22	76.6762	2928.22	81.2754	2928.22	75.3163	2928.22	78.7174	2928.22	73.0479	2928.22	72.3408	2928.22	72.0398	2928.22	74.6277	2928.22	70.7829	2928.22	76.4904	2928.22	73.0513	2928.22	75.9928	2928.22	67.7891	2928.22	70.8107	2928.22	71.5539	2928.22	70.4066	2928.22	66.9178	2928.22	67.8188	2928.22	64.5275	2928.22	66.0059	2928.22	57.8096	2928.22	64.2561	2928.22	67.3516	2928.22	70.5675	2928.22	69.0952
3030.76	85.3393	3030.76	85.5236	3030.76	82.3757	3030.76	81.458	3030.76	73.6658	3030.76	75.7946	3030.76	78.1752	3030.76	74.9122	3030.76	82.6564	3030.76	76.6943	3030.76	82.0885	3030.76	76.5642	3030.76	80.4721	3030.76	75.0765	3030.76	78.4676	3030.76	75.2789	3030.76	72.3074	3030.76	74.868	3030.76	74.7604	3030.76	73.1215	3030.76	75.2513	3030.76	66.5177	3030.76	73.6095	3030.76	68.7416	3030.76	70.5112	3030.76	69.7072	3030.76	70.4752	3030.76	69.9525	3030.76	67.3452	3030.76	64.8574	3030.76	66.4437	3030.76	60.9445	3030.76	62.1481	3030.76	67.2479	3030.76	70.5532	3030.76	68.4489
3137.7	85.4043	3137.7	85.6267	3137.7	81.4958	3137.7	81.6555	3137.7	74.5024	3137.7	76.277	3137.7	78.2249	3137.7	76.1502	3137.7	83.1841	3137.7	77.162	3137.7	83.114	3137.7	77.1847	3137.7	81.438	3137.7	77.2192	3137.7	79.4316	3137.7	74.2904	3137.7	73.1091	3137.7	73.8938	3137.7	74.8669	3137.7	73.9715	3137.7	74.4801	3137.7	69.6673	3137.7	72.789	3137.7	70.4342	3137.7	69.927	3137.7	68.9667	3137.7	71.6165	3137.7	69.8245	3137.7	66.9478	3137.7	64.7661	3137.7	63.2716	3137.7	60.4969	3137.7	64.3193	3137.7	66.8078	3137.7	69.5097	3137.7	69.0642
3249.02	85.7715	3249.02	84.7093	3249.02	81.6661	3249.02	81.1636	3249.02	75.3982	3249.02	77.2305	3249.02	77.4081	3249.02	77.8426	3249.02	82.6079	3249.02	77.3398	3249.02	83.112	3249.02	77.8185	3249.02	81.73	3249.02	76.23	3249.02	79.3284	3249.02	74.3411	3249.02	72.7745	3249.02	73.843	3249.02	75.1485	3249.02	72.2344	3249.02	73.4606	3249.02	72.304	3249.02	68.9239	3249.02	68.3592	3249.02	69.285	3249.02	70.6173	3249.02	69.6769	3249.02	69.1059	3249.02	68.0138	3249.02	66.63	3249.02	63.7959	3249.02	61.4278	3249.02	63.3223	3249.02	64.5267	3249.02	69.0195	3249.02	68.2575
3363.28	85.4118	3363.28	85.1605	3363.28	82.0899	3363.28	81.25	3363.28	74.2637	3363.28	77.906	3363.28	79.2362	3363.28	77.8056	3363.28	81.9319	3363.28	79.7408	3363.28	82.258	3363.28	78.7371	3363.28	81.1034	3363.28	77.2164	3363.28	78.5071	3363.28	76.4832	3363.28	68.7993	3363.28	71.9867	3363.28	73.9442	3363.28	70.0614	3363.28	72.9148	3363.28	70.8817	3363.28	67.8228	3363.28	68.3458	3363.28	68.1242	3363.28	70.5002	3363.28	68.9787	3363.28	69.7706	3363.28	66.6419	3363.28	67.174	3363.28	62.6659	3363.28	61.4864	3363.28	65.1402	3363.28	64.1385	3363.28	68.4608	3363.28	68.8866
3481.93	85.4573	3481.93	84.8529	3481.93	81.8632	3481.93	81.5774	3481.93	76.1693	3481.93	78.0086	3481.93	78.0927	3481.93	79.7825	3481.93	82.1134	3481.93	79.5047	3481.93	81.6619	3481.93	78.7912	3481.93	80.3477	3481.93	77.5911	3481.93	77.6333	3481.93	74.6462	3481.93	63.7031	3481.93	72.5633	3481.93	69.3552	3481.93	73.7152	3481.93	70.0175	3481.93	69.2841	3481.93	67.8276	3481.93	69.1007	3481.93	68.7571	3481.93	70.2353	3481.93	68.2829	3481.93	70.3803	3481.93	66.4748	3481.93	68.4828	3481.93	63.3302	3481.93	63.8148	3481.93	64.207	3481.93	64.1424	3481.93	69.0385	3481.93	68.5074
3604.98	85.5918	3604.98	85.1155	3604.98	81.5805	3604.98	81.2119	3604.98	77.5193	3604.98	78.4166	3604.98	79.3088	3604.98	80.5026	3604.98	81.4491	3604.98	80.467	3604.98	81.8671	3604.98	79.3418	3604.98	79.6623	3604.98	77.4666	3604.98	77.3098	3604.98	76.5045	3604.98	65.5152	3604.98	73.9996	3604.98	69.7128	3604.98	73.1747	3604.98	74.2976	3604.98	69.7243	3604.98	69.573	3604.98	66.86	3604.98	68.9271	3604.98	70.3467	3604.98	65.9801	3604.98	69.7837	3604.98	63.6355	3604.98	68.9245	3604.98	58.1248	3604.98	63.1141	3604.98	63.903	3604.98	65.0296	3604.98	68.6141	3604.98	68.3467
3732.42	85.2246	3732.42	84.6289	3732.42	81.9073	3732.42	80.5461	3732.42	76.9442	3732.42	79.6127	3732.42	80.9346	3732.42	81.3375	3732.42	81.6468	3732.42	81.3491	3732.42	81.9294	3732.42	78.8888	3732.42	79.8465	3732.42	77.6942	3732.42	77.1854	3732.42	75.9286	3732.42	67.8102	3732.42	73.0818	3732.42	75.0973	3732.42	71.3802	3732.42	77.9708	3732.42	70.1002	3732.42	68.7068	3732.42	65.7779	3732.42	66.1573	3732.42	69.7433	3732.42	63.5915	3732.42	69.9044	3732.42	64.6855	3732.42	67.905	3732.42	47.8112	3732.42	59.8953	3732.42	64.8422	3732.42	66.7084	3732.42	67.2177	3732.42	68.1535
3864.26	85.2827	3864.26	85.0973	3864.26	82.244	3864.26	80.0656	3864.26	77.2611	3864.26	80.3004	3864.26	81.5965	3864.26	81.8781	3864.26	81.5761	3864.26	81.2594	3864.26	81.6862	3864.26	79.9537	3864.26	79.5563	3864.26	77.048	3864.26	77.7922	3864.26	75.0828	3864.26	72.1474	3864.26	73.66	3864.26	78.9054	3864.26	71.9732	3864.26	79.2384	3864.26	70.5473	3864.26	68.335	3864.26	64.7319	3864.26	66.6378	3864.26	68.1599	3864.26	66.3912	3864.26	70.4079	3864.26	66.5768	3864.26	67.8147	3864.26	60.6203	3864.26	62.7881	3864.26	65.5843	3864.26	66.3622	3864.26	67.783	3864.26	68.6244
4000.49	85.1184	4000.49	84.3144	4000.49	81.3504	4000.49	80.0829	4000.49	77.7435	4000.49	81.0758	4000.49	81.9458	4000.49	81.9173	4000.49	81.5771	4000.49	81.4813	4000.49	81.2187	4000.49	78.84	4000.49	80.3847	4000.49	76.021	4000.49	78.4927	4000.49	74.0005	4000.49	72.7265	4000.49	71.7795	4000.49	78.5799	4000.49	70.3212	4000.49	76.7379	4000.49	69.371	4000.49	66.9638	4000.49	65.3909	4000.49	65.7442	4000.49	66.7023	4000.49	66.6383	4000.49	69.4849	4000.49	64.4887	4000.49	67.0286	4000.49	62.822	4000.49	63.0916	4000.49	65.6855	4000.49	64.7955	4000.49	67.6542	4000.49	68.7434
4141.11	85.4393	4141.11	84.1503	4141.11	81.3953	4141.11	80.4283	4141.11	78.2967	4141.11	81.5861	4141.11	82.3712	4141.11	82.1601	4141.11	81.6346	4141.11	80.7911	4141.11	79.79	4141.11	78.5469	4141.11	80.1783	4141.11	76.0207	4141.11	79.2433	4141.11	73.7098	4141.11	72.1531	4141.11	72.0634	4141.11	78.1387	4141.11	69.5503	4141.11	75.3181	4141.11	69.8446	4141.11	68.197	4141.11	65.0437	4141.11	64.8354	4141.11	63.5486	4141.11	66.7758	4141.11	69.3532	4141.11	65.5602	4141.11	67.3998	4141.11	61.2868	4141.11	62.6065	4141.11	64.0275	4141.11	64.3607	4141.11	69.5034	4141.11	69.0752
4287.6	85.7268	4287.6	83.4802	4287.6	82.1193	4287.6	81.2864	4287.6	78.6188	4287.6	82.3807	4287.6	83.0857	4287.6	82.7307	4287.6	82.3635	4287.6	80.0799	4287.6	78.4369	4287.6	78.0542	4287.6	79.6476	4287.6	76.3447	4287.6	79.443	4287.6	74.124	4287.6	74.6642	4287.6	73.5245	4287.6	76.9126	4287.6	71.2738	4287.6	74.7037	4287.6	69.0181	4287.6	71.7407	4287.6	65.0728	4287.6	58.096	4287.6	61.1873	4287.6	62.4898	4287.6	68.0027	4287.6	61.1161	4287.6	68.5451	4287.6	58.7138	4287.6	58.2428	4287.6	67.7853	4287.6	63.2527	4287.6	68.5899	4287.6	70.3358
4438.48	86.0541	4438.48	83.6143	4438.48	82.7016	4438.48	81.5672	4438.48	79.7437	4438.48	82.619	4438.48	83.2021	4438.48	82.666	4438.48	82.6981	4438.48	79.9083	4438.48	78.5243	4438.48	77.5476	4438.48	79.3609	4438.48	76.5954	4438.48	79.1716	4438.48	72.3757	4438.48	73.6394	4438.48	70.6853	4438.48	73.523	4438.48	69.7229	4438.48	74.7749	4438.48	70.2443	4438.48	72.8056	4438.48	65.8025	4438.48	60.5251	4438.48	62.4446	4438.48	49.7819	4438.48	65.275	4438.48	60.7067	4438.48	65.3794	4438.48	56.302	4438.48	61.5769	4438.48	64.4336	4438.48	62.7893	4438.48	65.2932	4438.48	66.1687
4595.21	85.3035	4595.21	83.0295	4595.21	82.9004	4595.21	80.9535	4595.21	80.0675	4595.21	83.058	4595.21	83.213	4595.21	82.0505	4595.21	82.1084	4595.21	79.6184	4595.21	76.9684	4595.21	77.9508	4595.21	78.7581	4595.21	75.9953	4595.21	78.0274	4595.21	74.2018	4595.21	72.0313	4595.21	71.2993	4595.21	72.4223	4595.21	68.6594	4595.21	71.9103	4595.21	67.6563	4595.21	70.965	4595.21	66.0998	4595.21	66.4628	4595.21	61.824	4595.21	60.5307	4595.21	65.9368	4595.21	61.1163	4595.21	64.0064	4595.21	62.0042	4595.21	58.7122	4595.21	61.5416	4595.21	64.2044	4595.21	68.3192	4595.21	66.1022
4756.35	85.4368	4756.35	83.3638	4756.35	82.9203	4756.35	81.3173	4756.35	79.4189	4756.35	83.1182	4756.35	84.1146	4756.35	81.3289	4756.35	82.1018	4756.35	80.5252	4756.35	75.5945	4756.35	77.287	4756.35	78.0457	4756.35	74.3021	4756.35	75.9041	4756.35	70.6851	4756.35	70.3115	4756.35	70.3779	4756.35	73.7412	4756.35	70.3482	4756.35	71.4813	4756.35	66.4198	4756.35	65.7762	4756.35	66.1286	4756.35	68.6918	4756.35	57.581	4756.35	65.9851	4756.35	65.5818	4756.35	59.5248	4756.35	64.0043	4756.35	63.5089	4756.35	56.0594	4756.35	64.8891	4756.35	61.8745	4756.35	66.7633	4756.35	64.4541
4924.8	85.5434	4924.8	82.885	4924.8	83.7706	4924.8	81.8133	4924.8	79.032	4924.8	83.1403	4924.8	83.9408	4924.8	81.6688	4924.8	82.157	4924.8	79.9979	4924.8	75.7979	4924.8	76.7486	4924.8	78.0573	4924.8	75.3619	4924.8	77.9286	4924.8	73.9855	4924.8	75.3028	4924.8	71.3611	4924.8	74.4376	4924.8	68.7104	4924.8	71.8956	4924.8	69.7168	4924.8	46.1566	4924.8	65.8454	4924.8	66.0262	4924.8	61.1413	4924.8	65.3848	4924.8	64.9365	4924.8	60.9913	4924.8	64.8007	4924.8	61.6921	4924.8	59.3377	4924.8	63.9538	4924.8	60.6835	4924.8	65.5592	4924.8	65.3765
5097.66	85.5037	5097.66	82.2573	5097.66	84.4696	5097.66	83.1482	5097.66	78.897	5097.66	82.7279	5097.66	84.1134	5097.66	81.9139	5097.66	81.4775	5097.66	78.8617	5097.66	76.5489	5097.66	76.8303	5097.66	78.193	5097.66	75.1873	5097.66	78.9618	5097.66	72.8121	5097.66	75.8079	5097.66	71.7539	5097.66	74.6934	5097.66	69.8292	5097.66	69.2576	5097.66	67.4611	5097.66	53.0486	5097.66	64.9351	5097.66	65.7045	5097.66	61.9234	5097.66	65.3073	5097.66	62.3676	5097.66	57.4132	5097.66	63.585	5097.66	62.625	5097.66	56.6759	5097.66	63.3163	5097.66	58.613	5097.66	67.0119	5097.66	67.5143
5277.83	85.8311	5277.83	81.9821	5277.83	84.8764	5277.83	83.194	5277.83	79.7674	5277.83	82.8293	5277.83	84.1313	5277.83	81.9726	5277.83	81.7344	5277.83	78.4555	5277.83	73.9094	5277.83	77.195	5277.83	77.7891	5277.83	75.3496	5277.83	78.6284	5277.83	71.8274	5277.83	73.6722	5277.83	68.4771	5277.83	69.7127	5277.83	68.0042	5277.83	68.4863	5277.83	66.8002	5277.83	53.8736	5277.83	66.6762	5277.83	63.3524	5277.83	59.4798	5277.83	66.0877	5277.83	61.3481	5277.83	56.6794	5277.83	63.4528	5277.83	65.5521	5277.83	55.9915	5277.83	57.9182	5277.83	58.6689	5277.83	64.8452	5277.83	60.4391
5463.87	85.9288	5463.87	81.8503	5463.87	85.0277	5463.87	83.4133	5463.87	80.8284	5463.87	83.6294	5463.87	83.6284	5463.87	81.2218	5463.87	82.2754	5463.87	78.8919	5463.87	73.3502	5463.87	76.9634	5463.87	77.1453	5463.87	73.4478	5463.87	77.214	5463.87	71.4185	5463.87	74.1825	5463.87	70.0634	5463.87	71.9224	5463.87	68.1536	5463.87	71.4346	5463.87	66.4023	5463.87	57.8585	5463.87	66.6157	5463.87	55.4634	5463.87	61.5319	5463.87	63.2926	5463.87	61.7315	5463.87	61.1222	5463.87	61.4798	5463.87	65.2914	5463.87	50.7945	5463.87	59.7719	5463.87	54.4947	5463.87	65.7068	5463.87	63.5045
5657.23	84.3395	5657.23	82.0736	5657.23	84.9994	5657.23	84.374	5657.23	81.3387	5657.23	84.636	5657.23	83.2248	5657.23	81.2521	5657.23	82.9307	5657.23	79.2959	5657.23	75.8145	5657.23	75.7456	5657.23	78.4732	5657.23	73.6277	5657.23	76.9922	5657.23	71.0032	5657.23	74.1921	5657.23	68.815	5657.23	72.3162	5657.23	68.557	5657.23	68.72	5657.23	65.8681	5657.23	57.1698	5657.23	65.9781	5657.23	60.8178	5657.23	63.5831	5657.23	61.706	5657.23	64.5571	5657.23	62.6284	5657.23	63.3452	5657.23	65.7686	5657.23	56.3435	5657.23	57.1381	5657.23	46.8528	5657.23	62.7415	5657.23	59.2817
5856.45	83.7902	5856.45	82.7646	5856.45	85.0569	5856.45	84.6565	5856.45	81.8987	5856.45	84.2576	5856.45	83.5766	5856.45	81.0249	5856.45	81.9244	5856.45	79.1618	5856.45	76.4561	5856.45	76.9146	5856.45	76.918	5856.45	75.1181	5856.45	78.6646	5856.45	73.3761	5856.45	75.3509	5856.45	70.8317	5856.45	72.0296	5856.45	69.0084	5856.45	64.799	5856.45	69.0142	5856.45	51.5184	5856.45	66.6571	5856.45	62.5165	5856.45	66.9097	5856.45	60.5574	5856.45	64.9764	5856.45	60.4281	5856.45	67.5527	5856.45	65.5711	5856.45	58.491	5856.45	54.701	5856.45	47.6887	5856.45	60.7267	5856.45	59.3354
6062.99	84.0025	6062.99	82.8688	6062.99	85.0403	6062.99	84.6402	6062.99	82.9806	6062.99	83.1103	6062.99	83.371	6062.99	81.2497	6062.99	81.5897	6062.99	78.7948	6062.99	74.3059	6062.99	78.066	6062.99	75.496	6062.99	75.8712	6062.99	76.6135	6062.99	73.3637	6062.99	75.7464	6062.99	71.5148	6062.99	70.6785	6062.99	68.8931	6062.99	64.8384	6062.99	68.3651	6062.99	49.7008	6062.99	65.4341	6062.99	62.2458	6062.99	65.5911	6062.99	61.2504	6062.99	64.3776	6062.99	51.3371	6062.99	66.9885	6062.99	64.8439	6062.99	60.5427	6062.99	56.4559	6062.99	42.3601	6062.99	62.4869	6062.99	60.2485
6276.86	84.5755	6276.86	83.1632	6276.86	85.3509	6276.86	84.8132	6276.86	83.4118	6276.86	82.4576	6276.86	82.8857	6276.86	80.9028	6276.86	81.035	6276.86	79.0151	6276.86	75.547	6276.86	77.6885	6276.86	75.5247	6276.86	75.34	6276.86	75.5529	6276.86	71.6131	6276.86	72.0976	6276.86	69.0773	6276.86	64.3287	6276.86	69.1829	6276.86	62.7512	6276.86	66.3128	6276.86	46.4077	6276.86	64.5058	6276.86	60.9279	6276.86	63.9403	6276.86	64.6793	6276.86	63.1208	6276.86	56.5916	6276.86	66.2287	6276.86	62.1485	6276.86	60.1119	6276.86	55.9673	6276.86	49.9043	6276.86	63.6801	6276.86	59.4109
6498.05	84.5973	6498.05	83.9314	6498.05	85.1386	6498.05	84.4854	6498.05	83.9182	6498.05	82.7104	6498.05	82.6017	6498.05	80.3191	6498.05	81.1791	6498.05	79.4124	6498.05	75.0232	6498.05	77.0684	6498.05	75.1124	6498.05	74.5664	6498.05	76.2858	6498.05	72.4994	6498.05	73.56	6498.05	70.3035	6498.05	67.6848	6498.05	67.0713	6498.05	40.8254	6498.05	66.2878	6498.05	43.3086	6498.05	63.7748	6498.05	61.9735	6498.05	62.8051	6498.05	65.5168	6498.05	63.2421	6498.05	39.6647	6498.05	65.3723	6498.05	62.2103	6498.05	61.7653	6498.05	51.6322	6498.05	38.5811	6498.05	61.1426	6498.05	60.2739
6726.56	84.8455	6726.56	84.313	6726.56	85.2383	6726.56	84.3445	6726.56	84.1852	6726.56	82.5052	6726.56	82.4885	6726.56	80.3674	6726.56	80.5701	6726.56	78.9142	6726.56	76.0205	6726.56	77.0534	6726.56	74.142	6726.56	74.7898	6726.56	75.8223	6726.56	70.8366	6726.56	74.2243	6726.56	67.5611	6726.56	68.9462	6726.56	65.6829	6726.56	58.8899	6726.56	65.4265	6726.56	52.5291	6726.56	63.1485	6726.56	60.2245	6726.56	62.5416	6726.56	60.2471	6726.56	61.6654	6726.56	49.9732	6726.56	64.9421	6726.56	59.6303	6726.56	61.741	6726.56	54.8483	6726.56	39.725	6726.56	58.0964	6726.56	60.6017
6963.87	84.8312	6963.87	84.8447	6963.87	85.4493	6963.87	84.2584	6963.87	84.1197	6963.87	82.2558	6963.87	82.3403	6963.87	80.3537	6963.87	81.1582	6963.87	78.3842	6963.87	75.8246	6963.87	77.3224	6963.87	73.1167	6963.87	73.8811	6963.87	76.3498	6963.87	70.3843	6963.87	75.7106	6963.87	67.6092	6963.87	69.8182	6963.87	65.8323	6963.87	60.0518	6963.87	63.4343	6963.87	54.5948	6963.87	61.4917	6963.87	59.6832	6963.87	62.1398	6963.87	51.0563	6963.87	60.5005	6963.87	43.1551	6963.87	63.7511	6963.87	61.0922	6963.87	61.9142	6963.87	53.2091	6963.87	51.6171	6963.87	61.5211	6963.87	54.0863
7209.96	84.8226	7209.96	85.0951	7209.96	85.601	7209.96	84.1893	7209.96	83.9292	7209.96	82.1953	7209.96	82.3495	7209.96	80.1395	7209.96	80.9667	7209.96	78.7783	7209.96	76.676	7209.96	76.3533	7209.96	71.5174	7209.96	73.2164	7209.96	76.7714	7209.96	69.7426	7209.96	75.7652	7209.96	68.0655	7209.96	71.94	7209.96	65.2077	7209.96	63.3296	7209.96	64.4521	7209.96	57.773	7209.96	62.7021	7209.96	54.2323	7209.96	61.2579	7209.96	52.5434	7209.96	59.4617	7209.96	55.4345	7209.96	63.3864	7209.96	63.2438	7209.96	62.0246	7209.96	50.3733	7209.96	54.0133	7209.96	56.6445	7209.96	56.2596
7464.84	84.8347	7464.84	85.5184	7464.84	85.5193	7464.84	84.0658	7464.84	84.2117	7464.84	82.2787	7464.84	82.4992	7464.84	80.2887	7464.84	81.1843	7464.84	78.8613	7464.84	77.969	7464.84	75.7261	7464.84	71.5867	7464.84	73.1534	7464.84	74.7834	7464.84	67.4138	7464.84	72.8803	7464.84	65.1614	7464.84	71.3332	7464.84	63.0685	7464.84	63.4555	7464.84	64.0433	7464.84	58.384	7464.84	61.557	7464.84	54.955	7464.84	60.7522	7464.84	57.393	7464.84	57.5763	7464.84	58.861	7464.84	63.135	7464.84	61.2993	7464.84	61.7052	7464.84	52.2328	7464.84	56.932	7464.84	59.5827	7464.84	54.4901
7727.05	85.3465	7727.05	85.7269	7727.05	85.4896	7727.05	84.1913	7727.05	84.3162	7727.05	82.4855	7727.05	82.4539	7727.05	80.8856	7727.05	80.7389	7727.05	78.062	7727.05	78.6411	7727.05	75.6737	7727.05	69.945	7727.05	70.8132	7727.05	73.6858	7727.05	67.2197	7727.05	70.9144	7727.05	63.8923	7727.05	67.1295	7727.05	64.1915	7727.05	62.8038	7727.05	62.7985	7727.05	52.8727	7727.05	61.4226	7727.05	54.3681	7727.05	61.1958	7727.05	57.5208	7727.05	58.044	7727.05	60.2255	7727.05	62.8835	7727.05	59.4123	7727.05	62.2998	7727.05	51.2096	7727.05	58.6288	7727.05	58.5861	7727.05	52.379
7999.51	85.8121	7999.51	85.6876	7999.51	85.5645	7999.51	84.3968	7999.51	84.3181	7999.51	82.6166	7999.51	82.5986	7999.51	80.6209	7999.51	79.8909	7999.51	78.0688	7999.51	78.7715	7999.51	74.7037	7999.51	68.327	7999.51	71.451	7999.51	73.2214	7999.51	68.7949	7999.51	68.0146	7999.51	64.4389	7999.51	64.4402	7999.51	63.5248	7999.51	60.6266	7999.51	61.7417	7999.51	55.7271	7999.51	60.7065	7999.51	42.9877	7999.51	60.2265	7999.51	56.2183	7999.51	59.0864	7999.51	59.5163	7999.51	62.0831	7999.51	58.3708	7999.51	62.0351	7999.51	52.1321	7999.51	58.7275	7999.51	56.7747	7999.51	54.2771
8282.23	86.2081	8282.23	85.8177	8282.23	85.7483	8282.23	84.6088	8282.23	84.4234	8282.23	82.8293	8282.23	82.7174	8282.23	80.2942	8282.23	79.6479	8282.23	77.9047	8282.23	77.8403	8282.23	74.0294	8282.23	66.9558	8282.23	70.9732	8282.23	72.3602	8282.23	66.0322	8282.23	66.5997	8282.23	62.52	8282.23	64.0868	8282.23	61.3405	8282.23	56.8845	8282.23	59.7354	8282.23	55.7005	8282.23	59.5268	8282.23	51.1733	8282.23	57.3268	8282.23	54.1282	8282.23	58.0416	8282.23	50.1259	8282.23	61.6277	8282.23	55.166	8282.23	60.9871	8282.23	48.7446	8282.23	59.9707	8282.23	57.2363	8282.23	54.6635
8573.73	86.3395	8573.73	86.0978	8573.73	85.9919	8573.73	84.5976	8573.73	84.404	8573.73	82.7968	8573.73	82.8845	8573.73	80.8593	8573.73	79.3443	8573.73	77.1402	8573.73	77.4764	8573.73	73.6993	8573.73	68.3381	8573.73	68.0012	8573.73	71.7466	8573.73	64.609	8573.73	67.0276	8573.73	62.8727	8573.73	65.7123	8573.73	61.9207	8573.73	63.1657	8573.73	60.6204	8573.73	56.5139	8573.73	59.1262	8573.73	54.4035	8573.73	57.32	8573.73	49.0723	8573.73	57.8451	8573.73	55.1624	8573.73	61.4307	8573.73	56.5359	8573.73	60.7744	8573.73	46.0929	8573.73	61.0827	8573.73	55.6475	8573.73	52.7011
8876.95	86.4759	8876.95	86.2913	8876.95	86.0087	8876.95	84.553	8876.95	84.4638	8876.95	82.9816	8876.95	82.6722	8876.95	80.417	8876.95	79.6499	8876.95	77.0348	8876.95	76.4034	8876.95	72.3344	8876.95	67.5897	8876.95	68.9148	8876.95	68.6441	8876.95	64.5151	8876.95	65.4715	8876.95	61.972	8876.95	63.9432	8876.95	60.4685	8876.95	61.7562	8876.95	59.8035	8876.95	55.9762	8876.95	58.2352	8876.95	53.9	8876.95	57.4925	8876.95	53.5977	8876.95	57.1864	8876.95	55.9727	8876.95	60.6596	8876.95	52.3724	8876.95	60.6746	8876.95	49.8656	8876.95	60.7313	8876.95	53.2205	8876.95	52.7184
9188.96	86.9295	9188.96	86.4734	9188.96	86.1218	9188.96	84.6442	9188.96	84.5055	9188.96	83.0387	9188.96	82.5404	9188.96	79.8071	9188.96	79.071	9188.96	76.2193	9188.96	75.8053	9188.96	71.4577	9188.96	63.5691	9188.96	67.5555	9188.96	66.8218	9188.96	61.8298	9188.96	62.3524	9188.96	60.126	9188.96	62.3189	9188.96	59.3157	9188.96	61.7714	9188.96	57.5271	9188.96	55.6973	9188.96	57.3883	9188.96	56.4222	9188.96	54.3718	9188.96	54.9198	9188.96	55.8512	9188.96	51.1282	9188.96	59.5742	9188.96	50.5657	9188.96	58.9966	9188.96	48.3591	9188.96	60.7319	9188.96	55.0049	9188.96	54.7719
9514.16	87.5672	9514.16	87.0237	9514.16	86.6506	9514.16	84.9832	9514.16	84.6908	9514.16	82.867	9514.16	82.3411	9514.16	79.449	9514.16	78.5943	9514.16	74.6786	9514.16	74.6246	9514.16	70.5083	9514.16	62.9233	9514.16	64.1939	9514.16	63.6417	9514.16	60.9914	9514.16	61.1631	9514.16	59.5882	9514.16	61.8283	9514.16	58.4375	9514.16	60.3467	9514.16	57.1978	9514.16	56.4242	9514.16	56.2354	9514.16	50.5648	9514.16	55.1155	9514.16	49.3538	9514.16	54.5316	9514.16	50.9119	9514.16	57.6519	9514.16	53.5028	9514.16	58.7403	9514.16	45.0225	9514.16	59.8093	9514.16	52.3134	9514.16	54.7235
9849.61	88.0354	9849.61	87.5679	9849.61	87.2925	9849.61	85.434	9849.61	85.0232	9849.61	82.7353	9849.61	82.0847	9849.61	78.9945	9849.61	77.8329	9849.61	74.0013	9849.61	73.6612	9849.61	68.4538	9849.61	59.2167	9849.61	65.2787	9849.61	57.8267	9849.61	59.1293	9849.61	63.165	9849.61	59.6661	9849.61	61.424	9849.61	56.6356	9849.61	59.246	9849.61	56.5734	9849.61	58.9204	9849.61	56.0746	9849.61	47.5693	9849.61	52.5922	9849.61	46.7398	9849.61	52.4499	9849.61	50.8963	9849.61	56.7253	9849.61	47.4383	9849.61	59.3024	9849.61	43.8321	9849.61	58.183	9849.61	48.5561	9849.61	51.385
10196.8	88.704	10196.8	88.0822	10196.8	87.8474	10196.8	85.7026	10196.8	85.1585	10196.8	82.9087	10196.8	82.2956	10196.8	77.801	10196.8	76.4958	10196.8	73.1606	10196.8	72.5041	10196.8	67.4458	10196.8	58.6699	10196.8	62.8166	10196.8	46.4252	10196.8	61.8364	10196.8	66.4356	10196.8	58.9307	10196.8	60.114	10196.8	58.2592	10196.8	58.3953	10196.8	55.5665	10196.8	58.873	10196.8	57.7904	10196.8	53.1275	10196.8	53.1021	10196.8	49.9188	10196.8	53.88	10196.8	46.6547	10196.8	55.1945	10196.8	45.9124	10196.8	57.9464	10196.8	46.6518	10196.8	56.6439	10196.8	47.9555	10196.8	50.2958
10555.7	89.1635	10555.7	88.3137	10555.7	88.1629	10555.7	86.1281	10555.7	85.1717	10555.7	82.4415	10555.7	82.1877	10555.7	77.3427	10555.7	76.0102	10555.7	72.3093	10555.7	73.2896	10555.7	67.0114	10555.7	66.0186	10555.7	64.2482	10555.7	59.495	10555.7	64.6764	10555.7	67.642	10555.7	62.6384	10555.7	56.7064	10555.7	61.0568	10555.7	60.9015	10555.7	58.9523	10555.7	58.2776	10555.7	59.4236	10555.7	56.4489	10555.7	56.4682	10555.7	52.884	10555.7	57.3829	10555.7	43.3692	10555.7	57.1674	10555.7	39.6374	10555.7	59.8088	10555.7	45.3931	10555.7	57.915	10555.7	43.6872	10555.7	51.0793
10927.7	89.3577	10927.7	88.2449	10927.7	88.1313	10927.7	86.2075	10927.7	85.0368	10927.7	81.9512	10927.7	81.9097	10927.7	77.6748	10927.7	75.6786	10927.7	71.871	10927.7	73.8127	10927.7	70.1713	10927.7	70.687	10927.7	68.7139	10927.7	63.3318	10927.7	66.9631	10927.7	68.7961	10927.7	64.6164	10927.7	62.9499	10927.7	62.0194	10927.7	63.1252	10927.7	61.0267	10927.7	56.6442	10927.7	58.8533	10927.7	53.0145	10927.7	57.857	10927.7	52.372	10927.7	59.7811	10927.7	39.4664	10927.7	59.3734	10927.7	49.2146	10927.7	61.1874	10927.7	38.0611	10927.7	59.6494	10927.7	48.7922	10927.7	48.6744
11313	89.3383	11313	88.2134	11313	88.0387	11313	85.8266	11313	84.9406	11313	82.1038	11313	81.1353	11313	76.9869	11313	75.7636	11313	73.5367	11313	74.0531	11313	72.3658	11313	73.6438	11313	70.8085	11313	65.1216	11313	68.1546	11313	71.1638	11313	66.4166	11313	65.2693	11313	62.952	11313	65.0697	11313	62.8684	11313	58.4601	11313	60.2575	11313	60.5135	11313	59.3237	11313	51.4744	11313	60.9045	11313	53.0554	11313	60.589	11313	44.493	11313	62.8236	11313	40.8002	11313	60.2871	11313	48.448	11313	51.4481
11712.9	89.04	11712.9	88.0372	11712.9	87.7823	11712.9	85.2551	11712.9	84.6407	11712.9	81.7075	11712.9	79.8009	11712.9	77.6749	11712.9	75.5118	11712.9	74.8547	11712.9	76.3574	11712.9	75.524	11712.9	74.7835	11712.9	72.5815	11712.9	69.5078	11712.9	70.423	11712.9	70.7642	11712.9	67.9464	11712.9	67.1303	11712.9	65.2416	11712.9	64.5485	11712.9	63.1843	11712.9	56.1039	11712.9	61.1789	11712.9	60.8159	11712.9	61.0089	11712.9	56.7283	11712.9	62.2012	11712.9	46.61	11712.9	61.6944	11712.9	46.7524	11712.9	63.8326	11712.9	44.9719	11712.9	61.4096	11712.9	50.2423	11712.9	52.1691
12126	88.7348	12126	87.7523	12126	87.5742	12126	84.7112	12126	84.4884	12126	81.6473	12126	78.814	12126	77.438	12126	76.5434	12126	76.8834	12126	77.0939	12126	75.8531	12126	77.0713	12126	74.1481	12126	70.269	12126	69.9494	12126	71.6191	12126	67.9168	12126	67.8589	12126	63.7091	12126	63.8317	12126	64.3318	12126	59.1421	12126	61.0199	12126	57.9059	12126	60.6849	12126	53.6772	12126	61.9623	12126	54.782	12126	62.1887	12126	52.9388	12126	64.2734	12126	48.7128	12126	62.0543	12126	53.0513	12126	48.4357
12553.7	88.0502	12553.7	87.7384	12553.7	87.4903	12553.7	84.2377	12553.7	84.464	12553.7	81.5881	12553.7	78.707	12553.7	77.9986	12553.7	78.5608	12553.7	78.4326	12553.7	77.6012	12553.7	77.8287	12553.7	77.982	12553.7	74.7198	12553.7	75.2052	12553.7	70.4044	12553.7	75.455	12553.7	68.5145	12553.7	67.9052	12553.7	65.6924	12553.7	62.3005	12553.7	64.7176	12553.7	63.008	12553.7	61.718	12553.7	59.4968	12553.7	60.7655	12553.7	52.487	12553.7	63.0054	12553.7	44.603	12553.7	62.3177	12553.7	45.1999	12553.7	64.1245	12553.7	45.146	12553.7	63.3955	12553.7	54.8992	12553.7	48.1149
12996.1	87.7699	12996.1	87.2766	12996.1	87.1477	12996.1	85.0946	12996.1	84.8969	12996.1	80.8323	12996.1	79.8085	12996.1	79.3648	12996.1	79.8314	12996.1	79.6405	12996.1	78.9036	12996.1	78.7862	12996.1	78.4698	12996.1	74.4201	12996.1	76.8848	12996.1	71.7509	12996.1	74.2376	12996.1	69.2631	12996.1	68.2539	12996.1	65.5126	12996.1	59.7495	12996.1	63.5922	12996.1	63.8164	12996.1	62.0274	12996.1	60.6441	12996.1	61.9606	12996.1	42.5766	12996.1	62.8859	12996.1	48.0605	12996.1	62.0336	12996.1	51.0988	12996.1	63.8523	12996.1	51.8155	12996.1	64.1673	12996.1	54.2036	12996.1	46.8789
13454.6	87.0958	13454.6	87.0746	13454.6	87.0969	13454.6	85.7988	13454.6	85.2468	13454.6	81.8979	13454.6	82.0379	13454.6	80.6921	13454.6	81.5709	13454.6	81.4819	13454.6	80.7509	13454.6	79.8999	13454.6	80.9494	13454.6	75.5105	13454.6	77.5545	13454.6	71.959	13454.6	71.6093	13454.6	68.2362	13454.6	67.7597	13454.6	64.6819	13454.6	61.542	13454.6	63.9667	13454.6	63.455	13454.6	62.5945	13454.6	57.9065	13454.6	61.6617	13454.6	46.4998	13454.6	62.6402	13454.6	52.2817	13454.6	62.7222	13454.6	45.0095	13454.6	64.1263	13454.6	49.1579	13454.6	64.636	13454.6	55.0196	13454.6	44.667
13929.2	87.2347	13929.2	87.7872	13929.2	86.926	13929.2	86.6676	13929.2	86.2797	13929.2	83.6735	13929.2	84.2669	13929.2	83.6888	13929.2	84.3782	13929.2	82.5607	13929.2	82.1314	13929.2	81.7025	13929.2	81.2305	13929.2	75.5231	13929.2	79.327	13929.2	72.6904	13929.2	72.44	13929.2	70.5301	13929.2	69.1034	13929.2	66.7112	13929.2	63.9402	13929.2	64.7437	13929.2	61.5373	13929.2	62.6522	13929.2	57.3924	13929.2	62.6171	13929.2	39.4595	13929.2	63.83	13929.2	55.2561	13929.2	64.036	13929.2	46.7635	13929.2	64.4789	13929.2	56.9218	13929.2	65.6645	13929.2	53.5703	13929.2	51.6899
14419.9	88.0498	14419.9	89.1054	14419.9	87.9647	14419.9	87.9383	14419.9	87.8495	14419.9	86.4276	14419.9	87.143	14419.9	85.9312	14419.9	86.0019	14419.9	84.6662	14419.9	84.8625	14419.9	82.2595	14419.9	83.0703	14419.9	77.4869	14419.9	78.5937	14419.9	73.5149	14419.9	71.3277	14419.9	70.5204	14419.9	71.6067	14419.9	67.1855	14419.9	66.0856	14419.9	66.3127	14419.9	58.2827	14419.9	64.0069	14419.9	64.1668	14419.9	62.2195	14419.9	54.1567	14419.9	64.2338	14419.9	54.0406	14419.9	65.087	14419.9	50.2154	14419.9	65.6359	14419.9	59.0334	14419.9	65.7756	14419.9	54.997	14419.9	56.1389
14928.2	89.3694	14928.2	89.9304	14928.2	89.3871	14928.2	88.7996	14928.2	88.8575	14928.2	87.8861	14928.2	88.2393	14928.2	86.7046	14928.2	86.7811	14928.2	85.1912	14928.2	84.4577	14928.2	82.4636	14928.2	81.944	14928.2	77.2196	14928.2	78.6001	14928.2	74.3307	14928.2	66.4007	14928.2	71.0504	14928.2	69.0694	14928.2	66.9188	14928.2	66.5764	14928.2	64.4893	14928.2	60.8611	14928.2	63.0343	14928.2	62.3485	14928.2	62.1569	14928.2	57.0243	14928.2	65.064	14928.2	55.7588	14928.2	65.344	14928.2	51.7814	14928.2	65.6468	14928.2	57.1668	14928.2	65.0079	14928.2	54.5924	14928.2	59.2086
15455.6	89.4443	15455.6	89.0844	15455.6	88.5333	15455.6	88.3631	15455.6	87.8739	15455.6	86.7279	15455.6	86.7581	15455.6	84.896	15455.6	84.87	15455.6	82.8026	15455.6	82.6232	15455.6	79.503	15455.6	79.0896	15455.6	75.4014	15455.6	75.8481	15455.6	71.1352	15455.6	61.3648	15455.6	68.2636	15455.6	66.468	15455.6	63.2785	15455.6	65.2039	15455.6	61.5124	15455.6	58.6576	15455.6	60.535	15455.6	56.22	15455.6	58.3506	15455.6	54.4624	15455.6	61.2053	15455.6	51.0697	15455.6	62.7216	15455.6	46.0567	15455.6	62.7885	15455.6	52.6159	15455.6	61.4719	15455.6	51.4394	15455.6	56.7882
16000.5	87.8265	16000.5	87.1779	16000.5	86.7415	16000.5	86.5986	16000.5	85.8563	16000.5	84.2283	16000.5	84.0382	16000.5	81.678	16000.5	81.2422	16000.5	78.7059	16000.5	78.1359	16000.5	75.9688	16000.5	72.9953	16000.5	70.2016	16000.5	70.974	16000.5	65.692	16000.5	51.2079	16000.5	62.1949	16000.5	61.1882	16000.5	57.9228	16000.5	61.1502	16000.5	57.0293	16000.5	57.2514	16000.5	55.13	16000.5	55.7275	16000.5	54.546	16000.5	47.4815	16000.5	56.4377	16000.5	47.4936	16000.5	58.7607	16000.5	39.7876	16000.5	57.7142	16000.5	48.5562	16000.5	55.7535	16000.5	45.0399	16000.5	52.3601
16564.5	86.2222	16564.5	85.4423	16564.5	84.8652	16564.5	84.5745	16564.5	83.6014	16564.5	81.7503	16564.5	80.8578	16564.5	78.0588	16564.5	77.2222	16564.5	74.5492	16564.5	73.7055	16564.5	71.3919	16564.5	67.8986	16564.5	64.0433	16564.5	64.601	16564.5	59.5875	16564.5	39.6337	16564.5	57.1463	16564.5	56.7325	16564.5	50.1923	16564.5	57.1276	16564.5	52.5194	16564.5	55.1806	16564.5	49.9887	16564.5	48.7431	16564.5	50.9665	16564.5	43.6684	16564.5	52.6793	16564.5	40.1656	16564.5	54.0136	16564.5	39.1522	16564.5	52.8996	16564.5	39.5575	16564.5	48.4846	16564.5	39.8636	16564.5	49.2874
17148.9	85.3329	17148.9	84.419	17148.9	83.7897	17148.9	83.1137	17148.9	81.7549	17148.9	79.8275	17148.9	78.3898	17148.9	75.1199	17148.9	73.5041	17148.9	71.1965	17148.9	68.859	17148.9	67.9912	17148.9	61.874	17148.9	60.4319	17148.9	61.1066	17148.9	56.9972	17148.9	33.637	17148.9	54.304	17148.9	52.4737	17148.9	47.1274	17148.9	53.3779	17148.9	49.5558	17148.9	54.1249	17148.9	46.6477	17148.9	43.486	17148.9	47.806	17148.9	40.1585	17148.9	49.3594	17148.9	39.9454	17148.9	50.4838	17148.9	34.6553	17148.9	48.3491	17148.9	34.5893	17148.9	47.7565	17148.9	43.2843	17148.9	35.9039
17752.4	84.2632	17752.4	83.5311	17752.4	82.7321	17752.4	81.7528	17752.4	80.0073	17752.4	78.0571	17752.4	75.7246	17752.4	72.8669	17752.4	70.0697	17752.4	67.7072	17752.4	63.9552	17752.4	63.6289	17752.4	53.5791	17752.4	56.3982	17752.4	55.7671	17752.4	52.1764	17752.4	44.2161	17752.4	50.0304	17752.4	46.6419	17752.4	44.046	17752.4	47.6172	17752.4	47.103	17752.4	49.2679	17752.4	41.8421	17752.4	41.769	17752.4	43.7959	17752.4	39.1762	17752.4	46.201	17752.4	39.2167	17752.4	47.3897	17752.4	39.9572	17752.4	42.4885	17752.4	37.5788	17752.4	38.4735	17752.4	38.3546	17752.4	40.5442
18379.4	83.1904	18379.4	82.4799	18379.4	81.4558	18379.4	80.446	18379.4	78.3594	18379.4	76.1454	18379.4	73.4339	18379.4	70.0752	18379.4	66.9097	18379.4	64.3575	18379.4	60	18379.4	60.2756	18379.4	53.9015	18379.4	56.0077	18379.4	52.5724	18379.4	51.3351	18379.4	45.8294	18379.4	47.0899	18379.4	46.7952	18379.4	43.9207	18379.4	45.5872	18379.4	45.3612	18379.4	45.7262	18379.4	39.7189	18379.4	41.7266	18379.4	43.2595	18379.4	37.3349	18379.4	44.9238	18379.4	37.0392	18379.4	45.8581	18379.4	39.2653	18379.4	36.6009	18379.4	34.9447	18379.4	25.4259	18379.4	34.0531	18379.4	42.6989
19026.9	82.2033	19026.9	81.255	19026.9	80.4355	19026.9	78.8722	19026.9	76.7388	19026.9	74.0049	19026.9	71.2855	19026.9	66.7789	19026.9	64.9133	19026.9	60.2094	19026.9	59.2041	19026.9	58.6511	19026.9	52.9999	19026.9	56.4973	19026.9	53.599	19026.9	51.2302	19026.9	46.1893	19026.9	46.6296	19026.9	40.9723	19026.9	44.716	19026.9	41.4333	19026.9	44.6553	19026.9	39.9958	19026.9	39.3427	19026.9	42.2643	19026.9	43.1681	19026.9	33.4743	19026.9	43.9076	19026.9	35.2827	19026.9	45.163	19026.9	38.7175	19026.9	38.9129	19026.9	32.4623	19026.9	34.9773	19026.9	36.3946	19026.9	39.6831
19697.8	81.7352	19697.8	80.4536	19697.8	79.881	19697.8	77.1626	19697.8	74.9393	19697.8	70.8319	19697.8	69.1014	19697.8	61.329	19697.8	63.4388	19697.8	57.8808	19697.8	60.3419	19697.8	61.4733	19697.8	52.6889	19697.8	58.0361	19697.8	57.109	19697.8	53.5343	19697.8	49.0471	19697.8	46.4476	19697.8	35.974	19697.8	45.4844	19697.8	42.8928	19697.8	44.136	19697.8	47.9855	19697.8	41.259	19697.8	39.7274	19697.8	44.1411	19697.8	22.8363	19697.8	43.5739	19697.8	21.3573	19697.8	46.0453	19697.8	27.8368	19697.8	41.2674	19697.8	39.2464	19697.8	36.6636	19697.8	40.0148	19697.8	40.4008
19999.5	81.4876	19999.5	80.0044	19999.5	79.5665	19999.5	76.4161	19999.5	74.2062	19999.5	69.2265	19999.5	67.9454	19999.5	58.789	19999.5	62.9766	19999.5	60.8738	19999.5	56.9782	19999.5	63.8536	19999.5	50.2045	19999.5	58.6362	19999.5	60.6151	19999.5	55.6446	19999.5	51.0178	19999.5	48.812	19999.5	30.8483	19999.5	51.6001	19999.5	41.477	19999.5	45.4806	19999.5	43.6945	19999.5	40.0731	19999.5	36.9412	19999.5	44.7762	19999.5	47.5883	19999.5	48.6334	19999.5	45.6572	19999.5	46.9285	19999.5	36.9593	19999.5	38.9832	19999.5	36.1449	19999.5	35.0312	19999.5	50.802	19999.5	33.2094
