"SPL Horizontal"
"On-Axis"		"10°"		"-10°"		"20°"		"-20°"		"30°"		"-30°"		"40°"		"-40°"		"50°"		"-50°"		"60°"		"-60°"		"70°"		"-70°"		"80°"		"-80°"		"90°"		"-90°"		"100°"		"-100°"		"110°"		"-110°"		"120°"		"-120°"		"130°"		"-130°"		"140°"		"-140°"		"150°"		"-150°"		"160°"		"-160°"		"170°"		"-170°"		"180°"
"Frequency / Hz"	"Sound Pressure Level / dB (re 20 µPa/V)  [2.83  V @ 1. m]"	"Frequency / Hz"	"Sound Pressure Level / dB (re 20 µPa/V)  [2.83  V @ 1. m]"	"Frequency / Hz"	"Sound Pressure Level / dB (re 20 µPa/V)  [2.83  V @ 1. m]"	"Frequency / Hz"	"Sound Pressure Level / dB (re 20 µPa/V)  [2.83  V @ 1. m]"	"Frequency / Hz"	"Sound Pressure Level / dB (re 20 µPa/V)  [2.83  V @ 1. m]"	"Frequency / Hz"	"Sound Pressure Level / dB (re 20 µPa/V)  [2.83  V @ 1. m]"	"Frequency / Hz"	"Sound Pressure Level / dB (re 20 µPa/V)  [2.83  V @ 1. m]"	"Frequency / Hz"	"Sound Pressure Level / dB (re 20 µPa/V)  [2.83  V @ 1. m]"	"Frequency / Hz"	"Sound Pressure Level / dB (re 20 µPa/V)  [2.83  V @ 1. m]"	"Frequency / Hz"	"Sound Pressure Level / dB (re 20 µPa/V)  [2.83  V @ 1. m]"	"Frequency / Hz"	"Sound Pressure Level / dB (re 20 µPa/V)  [2.83  V @ 1. m]"	"Frequency / Hz"	"Sound Pressure Level / dB (re 20 µPa/V)  [2.83  V @ 1. m]"	"Frequency / Hz"	"Sound Pressure Level / dB (re 20 µPa/V)  [2.83  V @ 1. m]"	"Frequency / Hz"	"Sound Pressure Level / dB (re 20 µPa/V)  [2.83  V @ 1. m]"	"Frequency / Hz"	"Sound Pressure Level / dB (re 20 µPa/V)  [2.83  V @ 1. m]"	"Frequency / Hz"	"Sound Pressure Level / dB (re 20 µPa/V)  [2.83  V @ 1. m]"	"Frequency / Hz"	"Sound Pressure Level / dB (re 20 µPa/V)  [2.83  V @ 1. m]"	"Frequency / Hz"	"Sound Pressure Level / dB (re 20 µPa/V)  [2.83  V @ 1. m]"	"Frequency / Hz"	"Sound Pressure Level / dB (re 20 µPa/V)  [2.83  V @ 1. m]"	"Frequency / Hz"	"Sound Pressure Level / dB (re 20 µPa/V)  [2.83  V @ 1. m]"	"Frequency / Hz"	"Sound Pressure Level / dB (re 20 µPa/V)  [2.83  V @ 1. m]"	"Frequency / Hz"	"Sound Pressure Level / dB (re 20 µPa/V)  [2.83  V @ 1. m]"	"Frequency / Hz"	"Sound Pressure Level / dB (re 20 µPa/V)  [2.83  V @ 1. m]"	"Frequency / Hz"	"Sound Pressure Level / dB (re 20 µPa/V)  [2.83  V @ 1. m]"	"Frequency / Hz"	"Sound Pressure Level / dB (re 20 µPa/V)  [2.83  V @ 1. m]"	"Frequency / Hz"	"Sound Pressure Level / dB (re 20 µPa/V)  [2.83  V @ 1. m]"	"Frequency / Hz"	"Sound Pressure Level / dB (re 20 µPa/V)  [2.83  V @ 1. m]"	"Frequency / Hz"	"Sound Pressure Level / dB (re 20 µPa/V)  [2.83  V @ 1. m]"	"Frequency / Hz"	"Sound Pressure Level / dB (re 20 µPa/V)  [2.83  V @ 1. m]"	"Frequency / Hz"	"Sound Pressure Level / dB (re 20 µPa/V)  [2.83  V @ 1. m]"	"Frequency / Hz"	"Sound Pressure Level / dB (re 20 µPa/V)  [2.83  V @ 1. m]"	"Frequency / Hz"	"Sound Pressure Level / dB (re 20 µPa/V)  [2.83  V @ 1. m]"	"Frequency / Hz"	"Sound Pressure Level / dB (re 20 µPa/V)  [2.83  V @ 1. m]"	"Frequency / Hz"	"Sound Pressure Level / dB (re 20 µPa/V)  [2.83  V @ 1. m]"	"Frequency / Hz"	"Sound Pressure Level / dB (re 20 µPa/V)  [2.83  V @ 1. m]"	"Frequency / Hz"	"Sound Pressure Level / dB (re 20 µPa/V)  [2.83  V @ 1. m]"
20.5078	48.9107	20.5078	48.9468	20.5078	48.8649	20.5078	48.9697	20.5078	48.8136	20.5078	48.9773	20.5078	48.7612	20.5078	48.9696	20.5078	48.7114	20.5078	48.9482	20.5078	48.6665	20.5078	48.9161	20.5078	48.6281	20.5078	48.8767	20.5078	48.5964	20.5078	48.8333	20.5078	48.571	20.5078	48.789	20.5078	48.5511	20.5078	48.7458	20.5078	48.536	20.5078	48.7053	20.5078	48.525	20.5078	48.6687	20.5078	48.5176	20.5078	48.6364	20.5078	48.5136	20.5078	48.6088	20.5078	48.5127	20.5078	48.5856	20.5078	48.515	20.5078	48.5664	20.5078	48.5201	20.5078	48.5508	20.5078	48.5278	20.5078	48.538
21.9727	39.7793	21.9727	39.9521	21.9727	39.583	21.9727	40.0888	21.9727	39.375	21.9727	40.1772	21.9727	39.1643	21.9727	40.2066	21.9727	38.9554	21.9727	40.168	21.9727	38.7479	21.9727	40.0548	21.9727	38.5373	21.9727	39.863	21.9727	38.3167	21.9727	39.5928	21.9727	38.0796	21.9727	39.2496	21.9727	37.8229	21.9727	38.8447	21.9727	37.5481	21.9727	38.3959	21.9727	37.2624	21.9727	37.9266	21.9727	36.9772	21.9727	37.4641	21.9727	36.7073	21.9727	37.0366	21.9727	36.4679	21.9727	36.6697	21.9727	36.2734	21.9727	36.3828	21.9727	36.137	21.9727	36.1869	21.9727	36.0704	21.9727	36.0842
23.4375	46.1075	23.4375	46.119	23.4375	46.0797	23.4375	46.107	23.4375	46.0414	23.4375	46.0646	23.4375	45.9965	23.4375	45.9861	23.4375	45.9466	23.4375	45.8684	23.4375	45.8906	23.4375	45.7121	23.4375	45.8257	23.4375	45.5216	23.4375	45.7481	23.4375	45.3056	23.4375	45.6546	23.4375	45.0761	23.4375	45.5427	23.4375	44.847	23.4375	45.4123	23.4375	44.6327	23.4375	45.2648	23.4375	44.4457	23.4375	45.1042	23.4375	44.2961	23.4375	44.9359	23.4375	44.1904	23.4375	44.7665	23.4375	44.1315	23.4375	44.6032	23.4375	44.1191	23.4375	44.4531	23.4375	44.1503	23.4375	44.3233	23.4375	44.2202
24.9023	45.0823	24.9023	45.1662	24.9023	44.9855	24.9023	45.2285	24.9023	44.884	24.9023	45.2616	24.9023	44.7843	24.9023	45.2594	24.9023	44.6902	24.9023	45.2189	24.9023	44.6027	24.9023	45.1399	24.9023	44.5204	24.9023	45.0259	24.9023	44.4406	24.9023	44.8831	24.9023	44.3606	24.9023	44.7204	24.9023	44.2786	24.9023	44.5483	24.9023	44.1945	24.9023	44.3775	24.9023	44.1097	24.9023	44.2177	24.9023	44.027	24.9023	44.0766	24.9023	43.9497	24.9023	43.9596	24.9023	43.8813	24.9023	43.869	24.9023	43.8249	24.9023	43.8053	24.9023	43.7831	24.9023	43.767	24.9023	43.7582	24.9023	43.7521
26.3672	46.2931	26.3672	46.3157	26.3672	46.264	26.3672	46.3278	26.3672	46.2314	26.3672	46.3256	26.3672	46.1973	26.3672	46.3054	26.3672	46.162	26.3672	46.265	26.3672	46.1247	26.3672	46.2034	26.3672	46.0838	26.3672	46.1219	26.3672	46.037	26.3672	46.0239	26.3672	45.9827	26.3672	45.9144	26.3672	45.92	26.3672	45.7996	26.3672	45.8491	26.3672	45.6864	26.3672	45.7717	26.3672	45.5812	26.3672	45.6904	26.3672	45.4893	26.3672	45.6086	26.3672	45.415	26.3672	45.5303	26.3672	45.3608	26.3672	45.4594	26.3672	45.3279	26.3672	45.3997	26.3672	45.3166	26.3672	45.3542	26.3672	45.3258
27.832	47.5341	27.832	47.5575	27.832	47.5024	27.832	47.568	27.832	47.4661	27.832	47.5619	27.832	47.4284	27.832	47.536	27.832	47.3909	27.832	47.4893	27.832	47.3537	27.832	47.4221	27.832	47.3158	27.832	47.3374	27.832	47.2756	27.832	47.2396	27.832	47.2311	27.832	47.1345	27.832	47.1811	27.832	47.0283	27.832	47.1248	27.832	46.9272	27.832	47.0629	27.832	46.8367	27.832	46.9965	27.832	46.761	27.832	46.9281	27.832	46.7031	27.832	46.8605	27.832	46.6645	27.832	46.7969	27.832	46.6454	27.832	46.7407	27.832	46.6451	27.832	46.6949	27.832	46.6622
29.2969	48.0754	29.2969	48.09	29.2969	48.0501	29.2969	48.0915	29.2969	48.0166	29.2969	48.078	29.2969	47.9771	29.2969	48.0484	29.2969	47.9334	29.2969	48.0025	29.2969	47.8865	29.2969	47.9412	29.2969	47.8367	29.2969	47.8666	29.2969	47.784	29.2969	47.7818	29.2969	47.7283	29.2969	47.6908	29.2969	47.6697	29.2969	47.598	29.2969	47.6085	29.2969	47.5081	29.2969	47.5457	29.2969	47.4254	29.2969	47.4829	29.2969	47.3537	29.2969	47.4218	29.2969	47.2956	29.2969	47.3647	29.2969	47.253	29.2969	47.3139	29.2969	47.2265	29.2969	47.2716	29.2969	47.2161	29.2969	47.24	29.2969	47.221
30.7617	48.4438	30.7617	48.4877	30.7617	48.3935	30.7617	48.5207	30.7617	48.3411	30.7617	48.5395	30.7617	48.2913	30.7617	48.5419	30.7617	48.2476	30.7617	48.5274	30.7617	48.2125	30.7617	48.497	30.7617	48.1871	30.7617	48.4536	30.7617	48.171	30.7617	48.4011	30.7617	48.1628	30.7617	48.3441	30.7617	48.1602	30.7617	48.2874	30.7617	48.161	30.7617	48.2354	30.7617	48.163	30.7617	48.1913	30.7617	48.1643	30.7617	48.1573	30.7617	48.1639	30.7617	48.1341	30.7617	48.1608	30.7617	48.1213	30.7617	48.1551	30.7617	48.1175	30.7617	48.147	30.7617	48.1205	30.7617	48.1374	30.7617	48.1279
32.2266	50.3667	32.2266	50.3811	32.2266	50.342	32.2266	50.3837	32.2266	50.3085	32.2266	50.3736	32.2266	50.2676	32.2266	50.3501	32.2266	50.2206	32.2266	50.3136	32.2266	50.1684	32.2266	50.265	32.2266	50.1121	32.2266	50.2065	32.2266	50.0526	32.2266	50.1407	32.2266	49.9913	32.2266	50.0706	32.2266	49.9295	32.2266	49.9993	32.2266	49.8691	32.2266	49.9297	32.2266	49.8118	32.2266	49.8643	32.2266	49.7596	32.2266	49.8049	32.2266	49.7143	32.2266	49.7528	32.2266	49.6776	32.2266	49.7089	32.2266	49.6506	32.2266	49.674	32.2266	49.634	32.2266	49.6486	32.2266	49.6282	32.2266	49.6332
33.6914	50.5365	33.6914	50.5627	33.6914	50.5009	33.6914	50.578	33.6914	50.4574	33.6914	50.5813	33.6914	50.4077	33.6914	50.572	33.6914	50.3533	33.6914	50.5499	33.6914	50.2958	33.6914	50.5157	33.6914	50.2366	33.6914	50.4706	33.6914	50.1773	33.6914	50.4165	33.6914	50.1193	33.6914	50.3556	33.6914	50.0642	33.6914	50.2906	33.6914	50.0136	33.6914	50.2242	33.6914	49.9688	33.6914	50.159	33.6914	49.9311	33.6914	50.0971	33.6914	49.9014	33.6914	50.0405	33.6914	49.8804	33.6914	49.9905	33.6914	49.8685	33.6914	49.9482	33.6914	49.8659	33.6914	49.9142	33.6914	49.8728	33.6914	49.8889
35.1562	51.3241	35.1562	51.3365	35.1562	51.3005	35.1562	51.337	35.1562	51.2665	35.1562	51.3256	35.1562	51.2235	35.1562	51.3026	35.1562	51.1729	35.1562	51.2689	35.1562	51.1165	35.1562	51.2258	35.1562	51.0563	35.1562	51.1749	35.1562	50.994	35.1562	51.1181	35.1562	50.9317	35.1562	51.0574	35.1562	50.8712	35.1562	50.9949	35.1562	50.8142	35.1562	50.9325	35.1562	50.7623	35.1562	50.8721	35.1562	50.7168	35.1562	50.8154	35.1562	50.6791	35.1562	50.7638	35.1562	50.65	35.1562	50.7186	35.1562	50.6304	35.1562	50.681	35.1562	50.6207	35.1562	50.6517	35.1562	50.6212	35.1562	50.6316
36.6211	51.844	36.6211	51.8355	36.6211	51.8478	36.6211	51.8225	36.6211	51.8469	36.6211	51.8052	36.6211	51.8411	36.6211	51.7841	36.6211	51.8303	36.6211	51.7595	36.6211	51.8147	36.6211	51.7324	36.6211	51.7944	36.6211	51.7034	36.6211	51.7698	36.6211	51.6736	36.6211	51.7415	36.6211	51.644	36.6211	51.7105	36.6211	51.6153	36.6211	51.6778	36.6211	51.5884	36.6211	51.6449	36.6211	51.564	36.6211	51.6129	36.6211	51.5428	36.6211	51.5833	36.6211	51.5252	36.6211	51.5572	36.6211	51.5119	36.6211	51.5353	36.6211	51.503	36.6211	51.5184	36.6211	51.4991	36.6211	51.5066	36.6211	51.5002
38.0859	52.4161	38.0859	52.4107	38.0859	52.4152	38.0859	52.3991	38.0859	52.4076	38.0859	52.3818	38.0859	52.3936	38.0859	52.3596	38.0859	52.3735	38.0859	52.3331	38.0859	52.3476	38.0859	52.3034	38.0859	52.317	38.0859	52.2715	38.0859	52.2826	38.0859	52.2383	38.0859	52.2456	38.0859	52.205	38.0859	52.2076	38.0859	52.1723	38.0859	52.17	38.0859	52.1411	38.0859	52.1343	38.0859	52.1121	38.0859	52.1018	38.0859	52.086	38.0859	52.0737	38.0859	52.0633	38.0859	52.0506	38.0859	52.0444	38.0859	52.0331	38.0859	52.0299	38.0859	52.0214	38.0859	52.02	38.0859	52.0155	38.0859	52.0151
39.5508	53.096	39.5508	53.1039	39.5508	53.0822	39.5508	53.1055	39.5508	53.063	39.5508	53.1009	39.5508	53.0391	39.5508	53.0901	39.5508	53.0113	39.5508	53.074	39.5508	52.9806	39.5508	53.0534	39.5508	52.9481	39.5508	53.0294	39.5508	52.9152	39.5508	53.0033	39.5508	52.8832	39.5508	52.9764	39.5508	52.8536	39.5508	52.9495	39.5508	52.8274	39.5508	52.9234	39.5508	52.8056	39.5508	52.8986	39.5508	52.789	39.5508	52.8753	39.5508	52.7776	39.5508	52.8539	39.5508	52.7713	39.5508	52.8344	39.5508	52.7699	39.5508	52.817	39.5508	52.7728	39.5508	52.8019	39.5508	52.7794	39.5508	52.7892
41.0156	53.7363	41.0156	53.7188	41.0156	53.7474	41.0156	53.6957	41.0156	53.7512	41.0156	53.6681	41.0156	53.7474	41.0156	53.6371	41.0156	53.736	41.0156	53.6039	41.0156	53.7172	41.0156	53.5697	41.0156	53.6921	41.0156	53.5358	41.0156	53.662	41.0156	53.5031	41.0156	53.6286	41.0156	53.4726	41.0156	53.5935	41.0156	53.4447	41.0156	53.5585	41.0156	53.4201	41.0156	53.5246	41.0156	53.3991	41.0156	53.4928	41.0156	53.382	41.0156	53.4636	41.0156	53.3693	41.0156	53.4374	41.0156	53.3614	41.0156	53.4143	41.0156	53.3584	41.0156	53.3948	41.0156	53.3605	41.0156	53.379	41.0156	53.3675
42.4805	54.4755	42.4805	54.4601	42.4805	54.4827	42.4805	54.4377	42.4805	54.4809	42.4805	54.4097	42.4805	54.4699	42.4805	54.3777	42.4805	54.45	42.4805	54.343	42.4805	54.4225	42.4805	54.3072	42.4805	54.3892	42.4805	54.2717	42.4805	54.3524	42.4805	54.2378	42.4805	54.3143	42.4805	54.2065	42.4805	54.2769	42.4805	54.1786	42.4805	54.242	42.4805	54.1546	42.4805	54.2104	42.4805	54.1346	42.4805	54.1829	42.4805	54.1187	42.4805	54.1594	42.4805	54.1067	42.4805	54.1398	42.4805	54.0986	42.4805	54.1239	42.4805	54.0942	42.4805	54.1114	42.4805	54.0935	42.4805	54.1022	42.4805	54.0961
43.9453	55.0775	43.9453	55.076	43.9453	55.0727	43.9453	55.0689	43.9453	55.0613	43.9453	55.0567	43.9453	55.0433	43.9453	55.0404	43.9453	55.0193	43.9453	55.0206	43.9453	54.9904	43.9453	54.998	43.9453	54.958	43.9453	54.9733	43.9453	54.924	43.9453	54.9471	43.9453	54.8901	43.9453	54.9202	43.9453	54.8578	43.9453	54.8931	43.9453	54.8285	43.9453	54.8666	43.9453	54.803	43.9453	54.8413	43.9453	54.7818	43.9453	54.8178	43.9453	54.765	43.9453	54.7968	43.9453	54.7526	43.9453	54.7786	43.9453	54.7444	43.9453	54.7637	43.9453	54.7405	43.9453	54.7522	43.9453	54.7405	43.9453	54.7445
45.4102	55.6467	45.4102	55.6418	45.4102	55.6467	45.4102	55.6328	45.4102	55.6414	45.4102	55.6204	45.4102	55.6309	45.4102	55.6055	45.4102	55.6155	45.4102	55.5889	45.4102	55.596	45.4102	55.5714	45.4102	55.5736	45.4102	55.5534	45.4102	55.5495	45.4102	55.5355	45.4102	55.525	45.4102	55.5179	45.4102	55.5016	45.4102	55.501	45.4102	55.4802	45.4102	55.485	45.4102	55.4616	45.4102	55.4701	45.4102	55.4462	45.4102	55.4566	45.4102	55.434	45.4102	55.4446	45.4102	55.4251	45.4102	55.4344	45.4102	55.4191	45.4102	55.4263	45.4102	55.4158	45.4102	55.4203	45.4102	55.415	45.4102	55.4165
46.875	56.1276	46.875	56.1259	46.875	56.1241	46.875	56.1198	46.875	56.1149	46.875	56.1101	46.875	56.1002	46.875	56.0974	46.875	56.0802	46.875	56.0826	46.875	56.0557	46.875	56.0662	46.875	56.0281	46.875	56.0486	46.875	55.9988	46.875	56.0303	46.875	55.9692	46.875	56.0113	46.875	55.9409	46.875	55.9919	46.875	55.9151	46.875	55.9722	46.875	55.8928	46.875	55.9523	46.875	55.8745	46.875	55.9327	46.875	55.8606	46.875	55.9136	46.875	55.8512	46.875	55.8958	46.875	55.8461	46.875	55.8799	46.875	55.8454	46.875	55.8663	46.875	55.8487	46.875	55.8558
48.3398	56.5157	48.3398	56.5101	48.3398	56.515	48.3398	56.4994	48.3398	56.5073	48.3398	56.485	48.3398	56.4922	48.3398	56.4683	48.3398	56.4701	48.3398	56.4503	48.3398	56.442	48.3398	56.4322	48.3398	56.4095	48.3398	56.4144	48.3398	56.3744	48.3398	56.3972	48.3398	56.3387	48.3398	56.3804	48.3398	56.3044	48.3398	56.3635	48.3398	56.2732	48.3398	56.346	48.3398	56.2463	48.3398	56.3276	48.3398	56.2246	48.3398	56.3081	48.3398	56.2087	48.3398	56.2877	48.3398	56.1987	48.3398	56.2672	48.3398	56.1947	48.3398	56.2474	48.3398	56.1962	48.3398	56.2294	48.3398	56.203	48.3398	56.2143
51.2695	57.5578	51.2695	57.5571	51.2695	57.5517	51.2695	57.5501	51.2695	57.5384	51.2695	57.5378	51.2695	57.5182	51.2695	57.5211	51.2695	57.4917	51.2695	57.501	51.2695	57.4602	51.2695	57.4785	51.2695	57.4251	51.2695	57.4542	51.2695	57.3882	51.2695	57.4288	51.2695	57.3512	51.2695	57.4027	51.2695	57.3157	51.2695	57.3763	51.2695	57.2831	51.2695	57.3496	51.2695	57.2543	51.2695	57.3231	51.2695	57.2302	51.2695	57.2971	51.2695	57.2112	51.2695	57.2723	51.2695	57.1977	51.2695	57.2493	51.2695	57.1898	51.2695	57.2289	51.2695	57.1874	51.2695	57.2118	51.2695	57.1906	51.2695	57.1988
52.7344	57.8017	52.7344	57.8025	52.7344	57.7945	52.7344	57.7974	52.7344	57.7803	52.7344	57.7876	52.7344	57.7593	52.7344	57.7742	52.7344	57.7325	52.7344	57.7584	52.7344	57.7011	52.7344	57.7412	52.7344	57.6669	52.7344	57.7234	52.7344	57.6321	52.7344	57.7054	52.7344	57.5986	52.7344	57.6876	52.7344	57.5683	52.7344	57.6697	52.7344	57.5426	52.7344	57.6518	52.7344	57.5223	52.7344	57.6336	52.7344	57.5078	52.7344	57.615	52.7344	57.4992	52.7344	57.5963	52.7344	57.4961	52.7344	57.5776	52.7344	57.4979	52.7344	57.5594	52.7344	57.5041	52.7344	57.5424	52.7344	57.5141	52.7344	57.5271
54.1992	58.3686	54.1992	58.3671	54.1992	58.3641	54.1992	58.3605	54.1992	58.3535	54.1992	58.3495	54.1992	58.3369	54.1992	58.3352	54.1992	58.3152	54.1992	58.3188	54.1992	58.2896	54.1992	58.3013	54.1992	58.2619	54.1992	58.2837	54.1992	58.2338	54.1992	58.2665	54.1992	58.2072	54.1992	58.2502	54.1992	58.1835	54.1992	58.2349	54.1992	58.1636	54.1992	58.2205	54.1992	58.1481	54.1992	58.207	54.1992	58.137	54.1992	58.1942	54.1992	58.1302	54.1992	58.1821	54.1992	58.1272	54.1992	58.1706	54.1992	58.1273	54.1992	58.16	54.1992	58.1302	54.1992	58.1504	54.1992	58.1352	54.1992	58.1421
55.6641	58.8641	55.6641	58.8545	55.6641	58.8681	55.6641	58.8403	55.6641	58.8656	55.6641	58.8229	55.6641	58.8563	55.6641	58.8038	55.6641	58.8408	55.6641	58.7839	55.6641	58.82	55.6641	58.7643	55.6641	58.7952	55.6641	58.7456	55.6641	58.7683	55.6641	58.7281	55.6641	58.7409	55.6641	58.7118	55.6641	58.7144	55.6641	58.6968	55.6641	58.6901	55.6641	58.6826	55.6641	58.6689	55.6641	58.6692	55.6641	58.651	55.6641	58.6565	55.6641	58.6367	55.6641	58.6448	55.6641	58.6259	55.6641	58.6343	55.6641	58.6185	55.6641	58.6255	55.6641	58.6142	55.6641	58.6188	55.6641	58.6129	55.6641	58.6145
58.5938	59.7542	58.5938	59.7377	58.5938	59.7665	58.5938	59.7183	58.5938	59.7737	58.5938	59.6973	58.5938	59.775	58.5938	59.6761	58.5938	59.7703	58.5938	59.6558	58.5938	59.7601	58.5938	59.6371	58.5938	59.7452	58.5938	59.6206	58.5938	59.7267	58.5938	59.6065	58.5938	59.7058	58.5938	59.5948	58.5938	59.6839	58.5938	59.5855	58.5938	59.6622	58.5938	59.5782	58.5938	59.6416	58.5938	59.5727	58.5938	59.623	58.5938	59.5685	58.5938	59.6068	58.5938	59.5656	58.5938	59.5934	58.5938	59.5638	58.5938	59.5828	58.5938	59.5631	58.5938	59.5748	58.5938	59.5636	58.5938	59.5691	58.5938	59.5655
60.0586	60.1485	60.0586	60.1423	60.0586	60.1486	60.0586	60.1309	60.0586	60.1423	60.0586	60.1155	60.0586	60.1292	60.0586	60.097	60.0586	60.1098	60.0586	60.0766	60.0586	60.0849	60.0586	60.055	60.0586	60.0558	60.0586	60.0329	60.0586	60.024	60.0586	60.0107	60.0586	59.9911	60.0586	59.9887	60.0586	59.9587	60.0586	59.9671	60.0586	59.9282	60.0586	59.9461	60.0586	59.9009	60.0586	59.9259	60.0586	59.8777	60.0586	59.9066	60.0586	59.8592	60.0586	59.8887	60.0586	59.8456	60.0586	59.8725	60.0586	59.8371	60.0586	59.8584	60.0586	59.8333	60.0586	59.847	60.0586	59.834	60.0586	59.8387
62.9883	60.9578	62.9883	60.944	62.9883	60.9645	62.9883	60.9241	62.9883	60.9632	62.9883	60.8998	62.9883	60.9537	62.9883	60.8724	62.9883	60.9363	62.9883	60.8434	62.9883	60.9118	62.9883	60.8142	62.9883	60.8815	62.9883	60.7857	62.9883	60.847	62.9883	60.7586	62.9883	60.8103	62.9883	60.7333	62.9883	60.773	62.9883	60.71	62.9883	60.7368	62.9883	60.6888	62.9883	60.7034	62.9883	60.6695	62.9883	60.6737	62.9883	60.6522	62.9883	60.6487	62.9883	60.6369	62.9883	60.6289	62.9883	60.6238	62.9883	60.6144	62.9883	60.6132	62.9883	60.6052	62.9883	60.6055	62.9883	60.6009	62.9883	60.6012
64.4531	61.3969	64.4531	61.3903	64.4531	61.3967	64.4531	61.3777	64.4531	61.389	64.4531	61.3603	64.4531	61.3738	64.4531	61.3392	64.4531	61.3517	64.4531	61.3157	64.4531	61.3237	64.4531	61.2909	64.4531	61.2911	64.4531	61.2655	64.4531	61.2557	64.4531	61.2401	64.4531	61.2192	64.4531	61.2153	64.4531	61.1834	64.4531	61.1912	64.4531	61.1499	64.4531	61.1682	64.4531	61.1201	64.4531	61.1464	64.4531	61.0949	64.4531	61.1261	64.4531	61.075	64.4531	61.1075	64.4531	61.0607	64.4531	61.0908	64.4531	61.052	64.4531	61.0763	64.4531	61.0486	64.4531	61.0643	64.4531	61.0498	64.4531	61.0553
67.3828	62.1684	67.3828	62.1644	67.3828	62.1667	67.3828	62.1555	67.3828	62.1593	67.3828	62.1424	67.3828	62.1461	67.3828	62.1261	67.3828	62.1277	67.3828	62.1074	67.3828	62.1049	67.3828	62.0871	67.3828	62.0788	67.3828	62.0659	67.3828	62.0507	67.3828	62.0443	67.3828	62.0219	67.3828	62.0228	67.3828	61.9937	67.3828	62.0018	67.3828	61.9672	67.3828	61.9816	67.3828	61.9435	67.3828	61.9627	67.3828	61.9233	67.3828	61.9453	67.3828	61.907	67.3828	61.9296	67.3828	61.8951	67.3828	61.9159	67.3828	61.8875	67.3828	61.9043	67.3828	61.884	67.3828	61.895	67.3828	61.8844	67.3828	61.8882
68.8477	62.5843	68.8477	62.5791	68.8477	62.5829	68.8477	62.5679	68.8477	62.5745	68.8477	62.5518	68.8477	62.5593	68.8477	62.5316	68.8477	62.5378	68.8477	62.5083	68.8477	62.5108	68.8477	62.483	68.8477	62.4797	68.8477	62.4564	68.8477	62.4459	68.8477	62.4294	68.8477	62.4111	68.8477	62.4026	68.8477	62.3767	68.8477	62.3767	68.8477	62.3443	68.8477	62.3522	68.8477	62.3152	68.8477	62.3296	68.8477	62.2902	68.8477	62.309	68.8477	62.2701	68.8477	62.2909	68.8477	62.2553	68.8477	62.2752	68.8477	62.2456	68.8477	62.2621	68.8477	62.2409	68.8477	62.2518	68.8477	62.2407	68.8477	62.2445
71.7773	63.3849	71.7773	63.3813	71.7773	63.3822	71.7773	63.3716	71.7773	63.373	71.7773	63.3566	71.7773	63.3575	71.7773	63.3371	71.7773	63.3364	71.7773	63.314	71.7773	63.3105	71.7773	63.2885	71.7773	63.2811	71.7773	63.2613	71.7773	63.2494	71.7773	63.2334	71.7773	63.2168	71.7773	63.2056	71.7773	63.1847	71.7773	63.1787	71.7773	63.1544	71.7773	63.1534	71.7773	63.127	71.7773	63.1303	71.7773	63.1033	71.7773	63.1097	71.7773	63.0838	71.7773	63.0919	71.7773	63.0689	71.7773	63.0773	71.7773	63.0586	71.7773	63.0658	71.7773	63.0526	71.7773	63.0574	71.7773	63.0506	71.7773	63.0523
74.707	64.1374	74.707	64.1331	74.707	64.1352	74.707	64.1225	74.707	64.1264	74.707	64.1064	74.707	64.1114	74.707	64.0854	74.707	64.0906	74.707	64.0606	74.707	64.0651	74.707	64.0328	74.707	64.036	74.707	64.0033	74.707	64.0046	74.707	63.9729	74.707	63.9721	74.707	63.9429	74.707	63.94	74.707	63.914	74.707	63.9094	74.707	63.8872	74.707	63.8813	74.707	63.8632	74.707	63.8565	74.707	63.8424	74.707	63.8357	74.707	63.8251	74.707	63.819	74.707	63.8116	74.707	63.8065	74.707	63.8016	74.707	63.7981	74.707	63.7953	74.707	63.7935	74.707	63.7926
77.6367	64.897	77.6367	64.8943	77.6367	64.893	77.6367	64.8852	77.6367	64.8824	77.6367	64.8704	77.6367	64.8657	77.6367	64.8506	77.6367	64.8436	77.6367	64.8267	77.6367	64.817	77.6367	64.7999	77.6367	64.7871	77.6367	64.7713	77.6367	64.7553	77.6367	64.742	77.6367	64.7228	77.6367	64.713	77.6367	64.691	77.6367	64.6852	77.6367	64.6612	77.6367	64.6594	77.6367	64.6342	77.6367	64.6361	77.6367	64.6109	77.6367	64.6158	77.6367	64.5919	77.6367	64.5985	77.6367	64.5774	77.6367	64.5844	77.6367	64.5673	77.6367	64.5734	77.6367	64.5613	77.6367	64.5655	77.6367	64.5593	77.6367	64.5607
79.1016	65.2395	79.1016	65.237	79.1016	65.236	79.1016	65.2287	79.1016	65.2266	79.1016	65.2151	79.1016	65.2119	79.1016	65.1967	79.1016	65.1923	79.1016	65.1746	79.1016	65.169	79.1016	65.1497	79.1016	65.1429	79.1016	65.1232	79.1016	65.1153	79.1016	65.0961	79.1016	65.0873	79.1016	65.0697	79.1016	65.0602	79.1016	65.0448	79.1016	65.0349	79.1016	65.0223	79.1016	65.0124	79.1016	65.0028	79.1016	64.9933	79.1016	64.9865	79.1016	64.9778	79.1016	64.9736	79.1016	64.9661	79.1016	64.9638	79.1016	64.9578	79.1016	64.9568	79.1016	64.9526	79.1016	64.9523	79.1016	64.9501	79.1016	64.9501
82.0312	65.992	82.0312	65.988	82.0312	65.9899	82.0312	65.9779	82.0312	65.9818	82.0312	65.9624	82.0312	65.9683	82.0312	65.9421	82.0312	65.9502	82.0312	65.918	82.0312	65.9283	82.0312	65.8914	82.0312	65.9038	82.0312	65.8633	82.0312	65.8778	82.0312	65.8352	82.0312	65.8514	82.0312	65.8083	82.0312	65.8257	82.0312	65.7835	82.0312	65.8016	82.0312	65.7618	82.0312	65.7799	82.0312	65.7438	82.0312	65.7611	82.0312	65.7297	82.0312	65.7455	82.0312	65.7193	82.0312	65.733	82.0312	65.7125	82.0312	65.7233	82.0312	65.7087	82.0312	65.7162	82.0312	65.7075	82.0312	65.7113	82.0312	65.7084
84.9609	66.7369	84.9609	66.7379	84.9609	66.7291	84.9609	66.732	84.9609	66.7148	84.9609	66.7197	84.9609	66.6943	84.9609	66.7015	84.9609	66.6685	84.9609	66.6784	84.9609	66.6382	84.9609	66.6512	84.9609	66.6045	84.9609	66.6212	84.9609	66.5686	84.9609	66.5895	84.9609	66.5317	84.9609	66.5573	84.9609	66.4955	84.9609	66.5257	84.9609	66.4613	84.9609	66.4955	84.9609	66.4304	84.9609	66.4675	84.9609	66.4041	84.9609	66.4421	84.9609	66.3831	84.9609	66.4196	84.9609	66.3678	84.9609	66.4002	84.9609	66.3584	84.9609	66.3838	84.9609	66.3545	84.9609	66.3707	84.9609	66.3556	84.9609	66.3612
87.8906	67.3332	87.8906	67.3294	87.8906	67.33	87.8906	67.3186	87.8906	67.3201	87.8906	67.3015	87.8906	67.3041	87.8906	67.2789	87.8906	67.2833	87.8906	67.2523	87.8906	67.2586	87.8906	67.2232	87.8906	67.2314	87.8906	67.1934	87.8906	67.203	87.8906	67.1645	87.8906	67.1747	87.8906	67.138	87.8906	67.1478	87.8906	67.1152	87.8906	67.1234	87.8906	67.0969	87.8906	67.1027	87.8906	67.0832	87.8906	67.0862	87.8906	67.0738	87.8906	67.0743	87.8906	67.0681	87.8906	67.0666	87.8906	67.0649	87.8906	67.0625	87.8906	67.0634	87.8906	67.061	87.8906	67.0624	87.8906	67.061	87.8906	67.0617
90.8203	68.0015	90.8203	68.0001	90.8203	67.996	90.8203	67.9918	90.8203	67.984	90.8203	67.9769	90.8203	67.9661	90.8203	67.956	90.8203	67.9432	90.8203	67.9301	90.8203	67.9164	90.8203	67.9003	90.8203	67.8868	90.8203	67.8681	90.8203	67.8557	90.8203	67.835	90.8203	67.8243	90.8203	67.8024	90.8203	67.7936	90.8203	67.7716	90.8203	67.7647	90.8203	67.7439	90.8203	67.7384	90.8203	67.7199	90.8203	67.7156	90.8203	67.7001	90.8203	67.6966	90.8203	67.6845	90.8203	67.6817	90.8203	67.6729	90.8203	67.6707	90.8203	67.6649	90.8203	67.6633	90.8203	67.6601	90.8203	67.6593	90.8203	67.6583
95.2148	69.0502	95.2148	69.0485	95.2148	69.0443	95.2148	69.039	95.2148	69.0315	95.2148	69.0218	95.2148	69.0123	95.2148	68.9974	95.2148	68.9879	95.2148	68.9669	95.2148	68.9592	95.2148	68.9315	95.2148	68.9275	95.2148	68.8931	95.2148	68.894	95.2148	68.8539	95.2148	68.8602	95.2148	68.8159	95.2148	68.8274	95.2148	68.7813	95.2148	68.797	95.2148	68.7516	95.2148	68.77	95.2148	68.7279	95.2148	68.7472	95.2148	68.7104	95.2148	68.7289	95.2148	68.6987	95.2148	68.715	95.2148	68.6919	95.2148	68.7049	95.2148	68.6889	95.2148	68.6978	95.2148	68.6885	95.2148	68.693	95.2148	68.69
98.1445	69.7272	98.1445	69.7369	98.1445	69.7103	98.1445	69.739	98.1445	69.6873	98.1445	69.7332	98.1445	69.6591	98.1445	69.7197	98.1445	69.627	98.1445	69.6989	98.1445	69.5921	98.1445	69.672	98.1445	69.5559	98.1445	69.6401	98.1445	69.5196	98.1445	69.6048	98.1445	69.4844	98.1445	69.5678	98.1445	69.4514	98.1445	69.5311	98.1445	69.4219	98.1445	69.496	98.1445	69.3967	98.1445	69.464	98.1445	69.3764	98.1445	69.4359	98.1445	69.3614	98.1445	69.4119	98.1445	69.3515	98.1445	69.3922	98.1445	69.3465	98.1445	69.3764	98.1445	69.3457	98.1445	69.364	98.1445	69.3486	98.1445	69.3548
101.074	70.1786	101.074	70.1797	101.074	70.1712	101.074	70.1744	101.074	70.1581	101.074	70.1628	101.074	70.1402	101.074	70.1456	101.074	70.1186	101.074	70.1238	101.074	70.0946	101.074	70.0988	101.074	70.0694	101.074	70.0721	101.074	70.0442	101.074	70.0451	101.074	70.0201	101.074	70.0192	101.074	69.9983	101.074	69.9957	101.074	69.9794	101.074	69.9754	101.074	69.9641	101.074	69.959	101.074	69.9524	101.074	69.9468	101.074	69.9441	101.074	69.9385	101.074	69.9388	101.074	69.9337	101.074	69.9356	101.074	69.9316	101.074	69.9338	101.074	69.9312	101.074	69.9326	101.074	69.9317
105.469	71.1395	105.469	71.1388	105.469	71.132	105.469	71.1299	105.469	71.1171	105.469	71.1129	105.469	71.0956	105.469	71.0885	105.469	71.0685	105.469	71.0579	105.469	71.0373	105.469	71.0227	105.469	71.0033	105.469	70.9847	105.469	70.9682	105.469	70.9461	105.469	70.9336	105.469	70.909	105.469	70.9011	105.469	70.8753	105.469	70.8721	105.469	70.8465	105.469	70.8475	105.469	70.8233	105.469	70.8278	105.469	70.8063	105.469	70.813	105.469	70.7948	105.469	70.8024	105.469	70.7881	105.469	70.7952	105.469	70.785	105.469	70.7905	105.469	70.7844	105.469	70.7873	105.469	70.7853
108.398	71.7646	108.398	71.7648	108.398	71.7561	108.398	71.7566	108.398	71.7402	108.398	71.7402	108.398	71.7179	108.398	71.7164	108.398	71.6905	108.398	71.6867	108.398	71.6595	108.398	71.6526	108.398	71.6265	108.398	71.6163	108.398	71.5931	108.398	71.5797	108.398	71.5608	108.398	71.5449	108.398	71.5309	108.398	71.5134	108.398	71.5045	108.398	71.4866	108.398	71.4824	108.398	71.465	108.398	71.4649	108.398	71.4489	108.398	71.4516	108.398	71.4378	108.398	71.4422	108.398	71.431	108.398	71.4358	108.398	71.4275	108.398	71.4315	108.398	71.4265	108.398	71.4287	108.398	71.427
112.793	72.7119	112.793	72.6953	112.793	72.7178	112.793	72.6686	112.793	72.7133	112.793	72.633	112.793	72.6991	112.793	72.5901	112.793	72.6767	112.793	72.5423	112.793	72.6479	112.793	72.4921	112.793	72.6147	112.793	72.4423	112.793	72.5792	112.793	72.3956	112.793	72.5436	112.793	72.3545	112.793	72.5095	112.793	72.3211	112.793	72.4781	112.793	72.2966	112.793	72.4504	112.793	72.2816	112.793	72.4264	112.793	72.2756	112.793	72.4058	112.793	72.2774	112.793	72.388	112.793	72.2852	112.793	72.3719	112.793	72.2972	112.793	72.3568	112.793	72.3115	112.793	72.3418	112.793	72.3266
117.188	73.513	117.188	73.511	117.188	73.5046	117.188	73.4989	117.188	73.4859	117.188	73.4776	117.188	73.4582	117.188	73.4489	117.188	73.423	117.188	73.4145	117.188	73.3826	117.188	73.3765	117.188	73.3398	117.188	73.3374	117.188	73.2973	117.188	73.2993	117.188	73.2578	117.188	73.2642	117.188	73.2236	117.188	73.2338	117.188	73.1963	117.188	73.2093	117.188	73.1767	117.188	73.1911	117.188	73.1645	117.188	73.1789	117.188	73.1587	117.188	73.1721	117.188	73.1578	117.188	73.169	117.188	73.1597	117.188	73.1682	117.188	73.1628	117.188	73.1681	117.188	73.1657	117.188	73.1675
120.117	74.1216	120.117	74.1227	120.117	74.1098	120.117	74.1134	120.117	74.0878	120.117	74.0946	120.117	74.0565	120.117	74.0676	120.117	74.0174	120.117	74.0341	120.117	73.9727	120.117	73.9961	120.117	73.9246	120.117	73.9556	120.117	73.8756	120.117	73.9145	120.117	73.828	120.117	73.8747	120.117	73.7841	120.117	73.8377	120.117	73.7458	120.117	73.8046	120.117	73.7144	120.117	73.7759	120.117	73.6907	120.117	73.7519	120.117	73.6747	120.117	73.7319	120.117	73.666	120.117	73.7154	120.117	73.6634	120.117	73.7016	120.117	73.6656	120.117	73.6897	120.117	73.6713	120.117	73.6796
124.512	74.9263	124.512	74.9276	124.512	74.9156	124.512	74.9196	124.512	74.8957	124.512	74.903	124.512	74.8673	124.512	74.8788	124.512	74.8317	124.512	74.8484	124.512	74.7906	124.512	74.8135	124.512	74.7457	124.512	74.7758	124.512	74.6992	124.512	74.7371	124.512	74.6535	124.512	74.6991	124.512	74.6105	124.512	74.6634	124.512	74.5724	124.512	74.631	124.512	74.5405	124.512	74.6027	124.512	74.5159	124.512	74.5784	124.512	74.4989	124.512	74.558	124.512	74.4892	124.512	74.5408	124.512	74.4858	124.512	74.5261	124.512	74.4878	124.512	74.5134	124.512	74.4937	124.512	74.5025
128.906	75.7746	128.906	75.7695	128.906	75.7696	128.906	75.7548	128.906	75.7549	128.906	75.7315	128.906	75.7311	128.906	75.7007	128.906	75.6999	128.906	75.6645	128.906	75.6629	128.906	75.6246	128.906	75.6224	128.906	75.5833	128.906	75.5807	128.906	75.5428	128.906	75.5401	128.906	75.5053	128.906	75.5026	128.906	75.4724	128.906	75.47	128.906	75.4454	128.906	75.4434	128.906	75.425	128.906	75.4231	128.906	75.4108	128.906	75.409	128.906	75.4021	128.906	75.4003	128.906	75.3975	128.906	75.3958	128.906	75.3954	128.906	75.3941	128.906	75.3946	128.906	75.3939	128.906	75.3942
133.301	76.5444	133.301	76.5362	133.301	76.5407	133.301	76.5169	133.301	76.5254	133.301	76.4878	133.301	76.4994	133.301	76.4511	133.301	76.4644	133.301	76.4091	133.301	76.4228	133.301	76.3645	133.301	76.3772	133.301	76.32	133.301	76.3306	133.301	76.2779	133.301	76.2856	133.301	76.2405	133.301	76.2449	133.301	76.2092	133.301	76.2104	133.301	76.1849	133.301	76.1833	133.301	76.1678	133.301	76.1639	133.301	76.1572	133.301	76.152	133.301	76.1517	133.301	76.1461	133.301	76.1498	133.301	76.1446	133.301	76.1496	133.301	76.1456	133.301	76.1497	133.301	76.1475	133.301	76.1491
139.16	77.4258	139.16	77.4186	139.16	77.4214	139.16	77.4004	139.16	77.4056	139.16	77.3727	139.16	77.3797	139.16	77.3376	139.16	77.3457	139.16	77.298	139.16	77.3062	139.16	77.2568	139.16	77.264	139.16	77.217	139.16	77.2223	139.16	77.1813	139.16	77.1839	139.16	77.152	139.16	77.1513	139.16	77.1303	139.16	77.1262	139.16	77.1168	139.16	77.1095	139.16	77.1109	139.16	77.1011	139.16	77.1112	139.16	77.1002	139.16	77.1156	139.16	77.1048	139.16	77.1219	139.16	77.1125	139.16	77.1278	139.16	77.1208	139.16	77.1313	139.16	77.1277	139.16	77.1314
143.555	78.2398	143.555	78.2322	143.555	78.235	143.555	78.2128	143.555	78.2183	143.555	78.183	143.555	78.1908	143.555	78.1448	143.555	78.1544	143.555	78.1009	143.555	78.1117	143.555	78.0541	143.555	78.0656	143.555	78.0075	143.555	78.0191	143.555	77.964	143.555	77.9752	143.555	77.9261	143.555	77.9365	143.555	77.8955	143.555	77.9048	143.555	77.8733	143.555	77.8812	143.555	77.8593	143.555	77.8658	143.555	77.8527	143.555	77.858	143.555	77.8519	143.555	77.856	143.555	77.8546	143.555	77.8577	143.555	77.8587	143.555	77.8608	143.555	77.8623	143.555	77.8634	143.555	77.864
147.949	78.944	147.949	78.9389	147.949	78.9354	147.949	78.9204	147.949	78.9134	147.949	78.8899	147.949	78.8794	147.949	78.8492	147.949	78.8356	147.949	78.8009	147.949	78.7847	147.949	78.748	147.949	78.73	147.949	78.6933	147.949	78.675	147.949	78.6401	147.949	78.6231	147.949	78.5911	147.949	78.5772	147.949	78.5488	147.949	78.5392	147.949	78.5148	147.949	78.5103	147.949	78.4899	147.949	78.4903	147.949	78.474	147.949	78.4783	147.949	78.4658	147.949	78.4724	147.949	78.4634	147.949	78.4705	147.949	78.4645	147.949	78.4704	147.949	78.467	147.949	78.4703	147.949	78.4692
153.809	79.7371	153.809	79.7326	153.809	79.7271	153.809	79.7142	153.809	79.7031	153.809	79.6833	153.809	79.6666	153.809	79.6423	153.809	79.62	153.809	79.594	153.809	79.5665	153.809	79.5413	153.809	79.5099	153.809	79.4876	153.809	79.4541	153.809	79.4359	153.809	79.4026	153.809	79.3891	153.809	79.3587	153.809	79.3495	153.809	79.3243	153.809	79.3188	153.809	79.3005	153.809	79.2979	153.809	79.2868	153.809	79.2862	153.809	79.2818	153.809	79.2824	153.809	79.2829	153.809	79.2842	153.809	79.2874	153.809	79.2888	153.809	79.2924	153.809	79.2934	153.809	79.2957	153.809	79.2961
159.668	80.5465	159.668	80.532	159.668	80.5466	159.668	80.5043	159.668	80.532	159.668	80.4655	159.668	80.5035	159.668	80.4184	159.668	80.4631	159.668	80.3662	159.668	80.4138	159.668	80.3122	159.668	80.3591	159.668	80.2599	159.668	80.3032	159.668	80.2122	159.668	80.2501	159.668	80.1717	159.668	80.2033	159.668	80.1402	159.668	80.1656	159.668	80.1186	159.668	80.1384	159.668	80.1067	159.668	80.1218	159.668	80.1032	159.668	80.1145	159.668	80.1061	159.668	80.1143	159.668	80.1127	159.668	80.1183	159.668	80.12	159.668	80.1236	159.668	80.1259	159.668	80.1276	159.668	80.1285
165.527	81.3125	165.527	81.3053	165.527	81.3034	165.527	81.2822	165.527	81.2784	165.527	81.2451	165.527	81.2396	165.527	81.1968	165.527	81.1896	165.527	81.1408	165.527	81.132	165.527	81.0813	165.527	81.071	165.527	81.0222	165.527	81.0108	165.527	80.9674	165.527	80.9555	165.527	80.92	165.527	80.9084	165.527	80.8824	165.527	80.872	165.527	80.8556	165.527	80.8473	165.527	80.8398	165.527	80.8341	165.527	80.8336	165.527	80.8304	165.527	80.8348	165.527	80.8337	165.527	80.8404	165.527	80.8407	165.527	80.8475	165.527	80.8483	165.527	80.8531	165.527	80.8537	165.527	80.8555
171.387	81.7797	171.387	81.7703	171.387	81.7727	171.387	81.7453	171.387	81.7501	171.387	81.7067	171.387	81.7136	171.387	81.6576	171.387	81.6663	171.387	81.6022	171.387	81.6118	171.387	81.5447	171.387	81.5545	171.387	81.4896	171.387	81.4988	171.387	81.4407	171.387	81.4486	171.387	81.4011	171.387	81.4073	171.387	81.3727	171.387	81.3771	171.387	81.3562	171.387	81.3588	171.387	81.3508	171.387	81.3516	171.387	81.3543	171.387	81.3536	171.387	81.3636	171.387	81.3619	171.387	81.3753	171.387	81.3732	171.387	81.3862	171.387	81.3842	171.387	81.3935	171.387	81.3923	171.387	81.3957
177.246	82.2278	177.246	82.2262	177.246	82.2111	177.246	82.2063	177.246	82.1771	177.246	82.1704	177.246	82.1285	177.246	82.1217	177.246	82.0692	177.246	82.0648	177.246	82.0037	177.246	82.0047	177.246	81.9368	177.246	81.9466	177.246	81.8732	177.246	81.8951	177.246	81.817	177.246	81.8537	177.246	81.7716	177.246	81.8243	177.246	81.7393	177.246	81.8072	177.246	81.7208	177.246	81.8011	177.246	81.7156	177.246	81.8031	177.246	81.7219	177.246	81.8094	177.246	81.7367	177.246	81.8162	177.246	81.7565	177.246	81.8201	177.246	81.7776	177.246	81.8186	177.246	81.7965	177.246	81.8107
183.105	82.5717	183.105	82.5756	183.105	82.5486	183.105	82.5598	183.105	82.5079	183.105	82.526	183.105	82.4526	183.105	82.4772	183.105	82.3867	183.105	82.4181	183.105	82.315	183.105	82.3542	183.105	82.2428	183.105	82.2914	183.105	82.1751	183.105	82.2351	183.105	82.1166	183.105	82.1892	183.105	82.0711	183.105	82.1561	183.105	82.0407	183.105	82.1358	183.105	82.0261	183.105	82.1269	183.105	82.0261	183.105	82.1265	183.105	82.0377	183.105	82.1311	183.105	82.0572	183.105	82.1369	183.105	82.0801	183.105	82.1409	183.105	82.1025	183.105	82.1405	183.105	82.1212	183.105	82.1341
188.965	82.7262	188.965	82.7246	188.965	82.709	188.965	82.7037	188.965	82.6741	188.965	82.6644	188.965	82.6237	188.965	82.6087	188.965	82.5605	188.965	82.5403	188.965	82.4883	188.965	82.4641	188.965	82.4119	188.965	82.3861	188.965	82.3367	188.965	82.3122	188.965	82.2682	188.965	82.2481	188.965	82.2116	188.965	82.1978	188.965	82.1706	188.965	82.1639	188.965	82.1468	188.965	82.1465	188.965	82.1395	188.965	82.144	188.965	82.1458	188.965	82.1529	188.965	82.1609	188.965	82.1684	188.965	82.1792	188.965	82.1855	188.965	82.1954	188.965	82.1995	188.965	82.2053	188.965	82.2067
196.289	82.8499	196.289	82.8533	196.289	82.8268	196.289	82.8367	196.289	82.7855	196.289	82.8011	196.289	82.7282	196.289	82.7487	196.289	82.6583	196.289	82.6831	196.289	82.5798	196.289	82.6091	196.289	82.4975	196.289	82.5317	196.289	82.4168	196.289	82.4567	196.289	82.3429	196.289	82.3889	196.289	82.2807	196.289	82.3327	196.289	82.2334	196.289	82.2907	196.289	82.2025	196.289	82.2635	196.289	82.1873	196.289	82.2497	196.289	82.1857	196.289	82.2461	196.289	82.1939	196.289	82.2483	196.289	82.2081	196.289	82.2517	196.289	82.224	196.289	82.2524	196.289	82.2382	196.289	82.2481
203.613	82.8202	203.613	82.8265	203.613	82.7926	203.613	82.8107	203.613	82.7456	203.613	82.7731	203.613	82.6819	203.613	82.7162	203.613	82.6052	203.613	82.6443	203.613	82.5197	203.613	82.5632	203.613	82.4309	203.613	82.4796	203.613	82.3444	203.613	82.3997	203.613	82.2662	203.613	82.3284	203.613	82.2014	203.613	82.269	203.613	82.1534	203.613	82.2225	203.613	82.1235	203.613	82.1887	203.613	82.1104	203.613	82.1663	203.613	82.1104	203.613	82.1533	203.613	82.1187	203.613	82.1478	203.613	82.1301	203.613	82.1471	203.613	82.1403	203.613	82.1485	203.613	82.1468	203.613	82.1491
210.938	82.5846	210.938	82.5785	210.938	82.5745	210.938	82.5568	210.938	82.5479	210.938	82.5199	210.938	82.5049	210.938	82.4688	210.938	82.4469	210.938	82.4053	210.938	82.3769	210.938	82.332	210.938	82.3	210.938	82.2533	210.938	82.2223	210.938	82.1741	210.938	82.151	210.938	82.1	210.938	82.0923	210.938	82.0368	210.938	82.0505	210.938	81.9893	210.938	82.0273	210.938	81.9608	210.938	82.0213	210.938	81.9523	210.938	82.0286	210.938	81.9617	210.938	82.0434	210.938	81.9842	210.938	82.0592	210.938	82.0129	210.938	82.0701	210.938	82.0408	210.938	82.0716	210.938	82.0616
218.262	82.3992	218.262	82.3758	218.262	82.4061	218.262	82.3389	218.262	82.3939	218.262	82.2916	218.262	82.3615	218.262	82.2364	218.262	82.3103	218.262	82.1754	218.262	82.2439	218.262	82.1108	218.262	82.1681	218.262	82.0457	218.262	82.0907	218.262	81.984	218.262	82.0203	218.262	81.9308	218.262	81.9647	218.262	81.8913	218.262	81.9303	218.262	81.8701	218.262	81.9196	218.262	81.8698	218.262	81.9314	218.262	81.89	218.262	81.9606	218.262	81.9265	218.262	81.9991	218.262	81.9724	218.262	82.0378	218.262	82.0187	218.262	82.0679	218.262	82.0566	218.262	82.083	218.262	82.0792
225.586	82.2854	225.586	82.2603	225.586	82.2867	225.586	82.2151	225.586	82.2623	225.586	82.1544	225.586	82.2128	225.586	82.083	225.586	82.1413	225.586	82.0054	225.586	82.0535	225.586	81.9261	225.586	81.9568	225.586	81.8499	225.586	81.8602	225.586	81.7823	225.586	81.7726	225.586	81.7291	225.586	81.7023	225.586	81.6951	225.586	81.6558	225.586	81.6831	225.586	81.6361	225.586	81.6926	225.586	81.6426	225.586	81.7194	225.586	81.6706	225.586	81.7566	225.586	81.7127	225.586	81.7956	225.586	81.7597	225.586	81.8282	225.586	81.8028	225.586	81.8478	225.586	81.8347	225.586	81.8503
232.91	82.1237	232.91	82.098	232.91	82.12	232.91	82.0464	232.91	82.0863	232.91	81.9743	232.91	82.0249	232.91	81.8884	232.91	81.9411	232.91	81.7958	232.91	81.8421	232.91	81.703	232.91	81.7366	232.91	81.6163	232.91	81.6342	232.91	81.5416	232.91	81.544	232.91	81.4842	232.91	81.4743	232.91	81.4483	232.91	81.4307	232.91	81.4361	232.91	81.4155	232.91	81.4464	232.91	81.4268	232.91	81.4752	232.91	81.4587	232.91	81.5154	232.91	81.5029	232.91	81.5585	232.91	81.5499	232.91	81.5961	232.91	81.5908	232.91	81.6212	232.91	81.6188	232.91	81.6294
241.699	81.9149	241.699	81.8962	241.699	81.9006	241.699	81.8466	241.699	81.8542	241.699	81.771	241.699	81.7794	241.699	81.6762	241.699	81.6822	241.699	81.5703	241.699	81.5705	241.699	81.462	241.699	81.4533	241.699	81.36	241.699	81.3403	241.699	81.2727	241.699	81.2409	241.699	81.2082	241.699	81.1636	241.699	81.1722	241.699	81.1148	241.699	81.1673	241.699	81.0976	241.699	81.1911	241.699	81.1108	241.699	81.2362	241.699	81.1495	241.699	81.2916	241.699	81.2052	241.699	81.345	241.699	81.2679	241.699	81.3856	241.699	81.3273	241.699	81.4057	241.699	81.3743	241.699	81.4018
250.488	81.719	250.488	81.7047	250.488	81.6953	250.488	81.6545	250.488	81.6347	250.488	81.5733	250.488	81.5417	250.488	81.4687	250.488	81.4241	250.488	81.3494	250.488	81.2919	250.488	81.2253	250.488	81.1566	250.488	81.1061	250.488	81.0302	250.488	81.0011	250.488	80.9235	250.488	80.9187	250.488	80.845	250.488	80.8648	250.488	80.7996	250.488	80.8421	250.488	80.7878	250.488	80.8488	250.488	80.8058	250.488	80.8788	250.488	80.8457	250.488	80.9225	250.488	80.8977	250.488	80.9693	250.488	80.9513	250.488	81.0095	250.488	80.9975	250.488	81.0354	250.488	81.0294	250.488	81.0425
259.277	81.6657	259.277	81.6464	259.277	81.6475	259.277	81.5927	259.277	81.5918	259.277	81.51	259.277	81.5019	259.277	81.4049	259.277	81.3849	259.277	81.2843	259.277	81.2505	259.277	81.1557	259.277	81.1107	259.277	81.0271	259.277	80.978	259.277	80.9078	259.277	80.8642	259.277	80.8081	259.277	80.7788	259.277	80.7373	259.277	80.7269	259.277	80.7018	259.277	80.7091	259.277	80.7017	259.277	80.7212	259.277	80.731	259.277	80.755	259.277	80.7784	259.277	80.8007	259.277	80.831	259.277	80.8479	259.277	80.8771	259.277	80.8878	259.277	80.9086	259.277	80.9136	259.277	80.9211
268.066	81.5213	268.066	81.498	268.066	81.4979	268.066	81.4325	268.066	81.4279	268.066	81.3338	268.066	81.3158	268.066	81.2138	268.066	81.17	268.066	81.0854	268.066	81.0019	268.066	80.9602	268.066	80.8261	268.066	80.8473	268.066	80.659	268.066	80.7525	268.066	80.5168	268.066	80.6793	268.066	80.4132	268.066	80.6289	268.066	80.3554	268.066	80.6006	268.066	80.3426	268.066	80.5914	268.066	80.3662	268.066	80.5963	268.066	80.4131	268.066	80.609	268.066	80.4696	268.066	80.6229	268.066	80.5245	268.066	80.6328	268.066	80.5708	268.066	80.6346	268.066	80.6048	268.066	80.6258
276.855	81.2666	276.855	81.2779	276.855	81.2251	276.855	81.2462	276.855	81.1671	276.855	81.1656	276.855	81.1019	276.855	81.0402	276.855	81.0303	276.855	80.8838	276.855	80.9465	276.855	80.7164	276.855	80.842	276.855	80.5592	276.855	80.7129	276.855	80.4293	276.855	80.564	276.855	80.3364	276.855	80.41	276.855	80.2813	276.855	80.2715	276.855	80.2577	276.855	80.168	276.855	80.2556	276.855	80.1097	276.855	80.264	276.855	80.0946	276.855	80.2737	276.855	80.1109	276.855	80.2788	276.855	80.1441	276.855	80.2759	276.855	80.1818	276.855	80.2644	276.855	80.2164	276.855	80.2444
287.109	81.1078	287.109	81.0934	287.109	81.0926	287.109	81.0527	287.109	81.0425	287.109	80.9864	287.109	80.9543	287.109	80.8948	287.109	80.83	287.109	80.7814	287.109	80.6793	287.109	80.6542	287.109	80.5173	287.109	80.5263	287.109	80.3606	287.109	80.4118	287.109	80.2233	287.109	80.3224	287.109	80.1156	287.109	80.2642	287.109	80.0436	287.109	80.2373	287.109	80.0113	287.109	80.2369	287.109	80.0199	287.109	80.2568	287.109	80.0659	287.109	80.2904	287.109	80.1394	287.109	80.3305	287.109	80.2251	287.109	80.3684	287.109	80.3051	287.109	80.393	287.109	80.3643	287.109	80.3938
297.363	81.1184	297.363	81.1361	297.363	81.0586	297.363	81.1092	297.363	80.9608	297.363	81.0371	297.363	80.8294	297.363	80.9228	297.363	80.6705	297.363	80.7738	297.363	80.4917	297.363	80.6018	297.363	80.3038	297.363	80.4213	297.363	80.1215	297.363	80.2468	297.363	79.963	297.363	80.0919	297.363	79.8468	297.363	79.9675	297.363	79.7869	297.363	79.8815	297.363	79.7872	297.363	79.8382	297.363	79.8393	297.363	79.8373	297.363	79.9247	297.363	79.8734	297.363	80.0195	297.363	79.9364	297.363	80.101	297.363	80.0125	297.363	80.1527	297.363	80.086	297.363	80.1661	297.363	80.1414
307.617	80.7588	307.617	80.7106	307.617	80.775	307.617	80.6331	307.617	80.7578	307.617	80.5306	307.617	80.7071	307.617	80.4086	307.617	80.6236	307.617	80.2736	307.617	80.5096	307.617	80.1335	307.617	80.3695	307.617	79.9976	307.617	80.2118	307.617	79.8766	307.617	80.0499	307.617	79.7807	307.617	79.9006	307.617	79.7178	307.617	79.7818	307.617	79.691	307.617	79.7076	307.617	79.6985	307.617	79.6839	307.617	79.7342	307.617	79.7061	307.617	79.7885	307.617	79.7604	307.617	79.8493	307.617	79.8281	307.617	79.904	307.617	79.891	307.617	79.9411	307.617	79.9352	307.617	79.9526
319.336	80.5875	319.336	80.5628	319.336	80.5664	319.336	80.4958	319.336	80.4987	319.336	80.3914	319.336	80.3867	319.336	80.2562	319.336	80.2374	319.336	80.0979	319.336	80.0623	319.336	79.9263	319.336	79.8782	319.336	79.7548	319.336	79.7043	319.336	79.6014	319.336	79.5594	319.336	79.4878	319.336	79.458	319.336	79.4342	319.336	79.4075	319.336	79.4505	319.336	79.4079	319.336	79.5303	319.336	79.453	319.336	79.6512	319.336	79.5328	319.336	79.7831	319.336	79.6348	319.336	79.898	319.336	79.7456	319.336	79.9761	319.336	79.8512	319.336	80.0082	319.336	79.9379	319.336	79.9935
329.59	80.3663	329.59	80.363	329.59	80.3308	329.59	80.3218	329.59	80.2566	329.59	80.2437	329.59	80.1459	329.59	80.1297	329.59	80.0034	329.59	79.9819	329.59	79.837	329.59	79.8059	329.59	79.6577	329.59	79.6125	329.59	79.4798	329.59	79.4194	329.59	79.3211	329.59	79.2507	329.59	79.2	329.59	79.1329	329.59	79.1314	329.59	79.0879	329.59	79.1208	329.59	79.1228	329.59	79.1626	329.59	79.2251	329.59	79.2427	329.59	79.3645	329.59	79.3445	329.59	79.5038	329.59	79.4521	329.59	79.6116	329.59	79.5517	329.59	79.6693	329.59	79.6299	329.59	79.6731
341.309	80.47	341.309	80.4174	341.309	80.4574	341.309	80.3084	341.309	80.3779	341.309	80.1569	341.309	80.2371	341.309	79.9786	341.309	80.046	341.309	79.7881	341.309	79.82	341.309	79.5972	341.309	79.5766	341.309	79.4144	341.309	79.3357	341.309	79.2463	341.309	79.1194	341.309	79.0985	341.309	78.9512	341.309	78.9765	341.309	78.8524	341.309	78.8868	341.309	78.8336	341.309	78.8363	341.309	78.8884	341.309	78.8307	341.309	78.9921	341.309	78.8703	341.309	79.1103	341.309	78.947	341.309	79.2098	341.309	79.0457	341.309	79.2673	341.309	79.1465	341.309	79.2727	341.309	79.2283
353.027	80.3527	353.027	80.3424	353.027	80.2997	353.027	80.2697	353.027	80.1876	353.027	80.1395	353.027	80.0248	353.027	79.9598	353.027	79.8231	353.027	79.7414	353.027	79.5955	353.027	79.4978	353.027	79.3554	353.027	79.247	353.027	79.1157	353.027	79.012	353.027	78.8898	353.027	78.8179	353.027	78.6931	353.027	78.685	353.027	78.5428	353.027	78.6209	353.027	78.4567	353.027	78.619	353.027	78.4467	353.027	78.6639	353.027	78.511	353.027	78.7385	353.027	78.6306	353.027	78.8273	353.027	78.7723	353.027	78.9146	353.027	78.8996	353.027	78.9821	353.027	78.9834	353.027	79.01
366.211	80.3785	366.211	80.3577	366.211	80.3474	366.211	80.2719	366.211	80.2756	366.211	80.1147	366.211	80.1668	366.211	79.8914	366.211	80.0183	366.211	79.6196	366.211	79.8261	366.211	79.3253	366.211	79.5929	366.211	79.0378	366.211	79.3315	366.211	78.7864	366.211	79.0637	366.211	78.5971	366.211	78.8157	366.211	78.49	366.211	78.6138	366.211	78.4732	366.211	78.4785	366.211	78.5379	366.211	78.4209	366.211	78.6579	366.211	78.439	366.211	78.7966	366.211	78.5181	366.211	78.9174	366.211	78.6353	366.211	78.9935	366.211	78.7652	366.211	79.0115	366.211	78.8841	366.211	78.9716
379.395	80.2461	379.395	80.2073	379.395	80.2378	379.395	80.1299	379.395	80.1756	379.395	80.021	379.395	80.0579	379.395	79.8836	379.395	79.8888	379.395	79.719	379.395	79.6769	379.395	79.5312	379.395	79.4361	379.395	79.3319	379.395	79.1868	379.395	79.1403	379.395	78.9576	379.395	78.9783	379.395	78.7817	379.395	78.862	379.395	78.6868	379.395	78.7952	379.395	78.6815	379.395	78.7699	379.395	78.7483	379.395	78.7729	379.395	78.8503	379.395	78.7936	379.395	78.9482	379.395	78.8268	379.395	79.0141	379.395	78.871	379.395	79.0369	379.395	78.9237	379.395	79.0205	379.395	78.9777
392.578	80.0834	392.578	80.0723	392.578	80.0345	392.578	79.9976	392.578	79.9324	392.578	79.8613	392.578	79.7847	392.578	79.6717	392.578	79.5986	392.578	79.4421	392.578	79.3818	392.578	79.1892	392.578	79.144	392.578	78.9322	392.578	78.8988	392.578	78.6933	392.578	78.6647	392.578	78.4978	392.578	78.4656	392.578	78.3692	392.578	78.3268	392.578	78.3208	392.578	78.2682	392.578	78.35	392.578	78.2961	392.578	78.4397	392.578	78.3979	392.578	78.5656	392.578	78.5451	392.578	78.7021	392.578	78.7021	392.578	78.8251	392.578	78.8359	392.578	78.9128	392.578	78.9222	392.578	78.9482
405.762	79.8765	405.762	79.8342	405.762	79.8696	405.762	79.7436	405.762	79.8075	405.762	79.6023	405.762	79.6826	405.762	79.409	405.762	79.4919	405.762	79.1693	405.762	79.2422	405.762	78.8984	405.762	78.9524	405.762	78.621	405.762	78.6528	405.762	78.3693	405.762	78.3812	405.762	78.1779	405.762	78.1768	405.762	78.075	405.762	78.0702	405.762	78.0708	405.762	78.0714	405.762	78.1523	405.762	78.1631	405.762	78.2881	405.762	78.3079	405.762	78.4421	405.762	78.4649	405.762	78.5838	405.762	78.6033	405.762	78.6939	405.762	78.7065	405.762	78.7628	405.762	78.7684	405.762	78.7875
420.41	80.0545	420.41	80.0266	420.41	79.9926	420.41	79.9132	420.41	79.8482	420.41	79.7277	420.41	79.638	420.41	79.4874	420.41	79.3826	420.41	79.2096	420.41	79.1002	420.41	78.9078	420.41	78.8037	420.41	78.5933	420.41	78.5037	420.41	78.2803	420.41	78.2155	420.41	77.9949	420.41	77.9649	420.41	77.7798	420.41	77.7873	420.41	77.6828	420.41	77.7154	420.41	77.727	420.41	77.7601	420.41	77.8896	420.41	77.9006	420.41	78.1106	420.41	78.0932	420.41	78.3253	420.41	78.29	420.41	78.4898	420.41	78.4541	420.41	78.5854	420.41	78.5639	420.41	78.6092
435.059	79.8953	435.059	79.8546	435.059	79.8512	435.059	79.7337	435.059	79.7263	435.059	79.5448	435.059	79.5313	435.059	79.3036	435.059	79.28	435.059	79.0252	435.059	78.9857	435.059	78.7222	435.059	78.6595	435.059	78.4087	435.059	78.3143	435.059	78.1051	435.059	77.972	435.059	77.8414	435.059	77.6702	435.059	77.6534	435.059	77.4585	435.059	77.5729	435.059	77.3819	435.059	77.6155	435.059	77.4569	435.059	77.7716	435.059	77.6603	435.059	78.0054	435.059	77.9393	435.059	78.2653	435.059	78.2317	435.059	78.4968	435.059	78.4821	435.059	78.6546	435.059	78.6494	435.059	78.7092
451.172	80.4243	451.172	80.4279	451.172	80.3326	451.172	80.3259	451.172	80.1672	451.172	80.107	451.172	79.936	451.172	79.7723	451.172	79.6427	451.172	79.3387	451.172	79.2931	451.172	78.8382	451.172	78.9	451.172	78.3175	451.172	78.4836	451.172	77.8346	451.172	78.0717	451.172	77.4471	451.172	77.6984	451.172	77.1916	451.172	77.3992	451.172	77.0713	451.172	77.2028	451.172	77.0627	451.172	77.1209	451.172	77.1338	451.172	77.1413	451.172	77.2522	451.172	77.2304	451.172	77.383	451.172	77.3464	451.172	77.4922	451.172	77.454	451.172	77.5565	451.172	77.5319	451.172	77.5686
465.82	80.0259	465.82	79.9955	465.82	80.0197	465.82	79.9274	465.82	79.9633	465.82	79.8096	465.82	79.8354	465.82	79.6284	465.82	79.6189	465.82	79.377	465.82	79.3109	465.82	79.0592	465.82	78.9278	465.82	78.6921	465.82	78.5023	465.82	78.3106	465.82	78.0778	465.82	77.9657	465.82	77.7033	465.82	77.7072	465.82	77.4287	465.82	77.557	465.82	77.2948	465.82	77.5017	465.82	77.3152	465.82	77.5168	465.82	77.4645	465.82	77.5896	465.82	77.6852	465.82	77.7155	465.82	77.9106	465.82	77.8777	465.82	78.0833	465.82	78.0374	465.82	78.1661	465.82	78.1461
483.398	79.877	483.398	79.7931	483.398	79.8682	483.398	79.6362	483.398	79.7581	483.398	79.4294	483.398	79.5505	483.398	79.1883	483.398	79.2571	483.398	78.9147	483.398	78.8944	483.398	78.5992	483.398	78.4828	483.398	78.2315	483.398	78.0501	483.398	77.8171	483.398	77.6356	483.398	77.3976	483.398	77.2908	483.398	77.0603	483.398	77.0704	483.398	76.9097	483.398	77.0099	483.398	76.9932	483.398	77.1044	483.398	77.2536	483.398	77.3078	483.398	77.5731	483.398	77.5556	483.398	77.852	483.398	77.7905	483.398	78.0428	483.398	77.9765	483.398	78.14	483.398	78.0992	483.398	78.1551
499.512	79.9573	499.512	79.9215	499.512	79.8906	499.512	79.7773	499.512	79.735	499.512	79.5315	499.512	79.5053	499.512	79.2054	499.512	79.2124	499.512	78.8311	499.512	78.8613	499.512	78.4416	499.512	78.4549	499.512	78.061	499.512	78.0045	499.512	77.7008	499.512	77.5431	499.512	77.3689	499.512	77.1325	499.512	77.086	499.512	76.85	499.512	76.895	499.512	76.7488	499.512	76.8478	499.512	76.8228	499.512	76.9717	499.512	77.018	499.512	77.2413	499.512	77.2756	499.512	77.5802	499.512	77.5548	499.512	77.8913	499.512	77.8221	499.512	78.0914	499.512	78.034	499.512	78.1374
517.09	80.219	517.09	80.2641	517.09	80.0895	517.09	80.2002	517.09	79.9034	517.09	80.0122	517.09	79.6848	517.09	79.6987	517.09	79.4471	517.09	79.27	517.09	79.1851	517.09	78.7463	517.09	78.8717	517.09	78.1582	517.09	78.4706	517.09	77.5559	517.09	77.9651	517.09	77.0169	517.09	77.3899	517.09	76.6351	517.09	76.8449	517.09	76.4815	517.09	76.47	517.09	76.5571	517.09	76.3686	517.09	76.7836	517.09	76.5325	517.09	77.0497	517.09	76.8502	517.09	77.2736	517.09	77.1847	517.09	77.4308	517.09	77.4371	517.09	77.5338	517.09	77.5675	517.09	77.5876
536.133	79.8409	536.133	79.7617	536.133	79.8754	536.133	79.6633	536.133	79.8183	536.133	79.538	536.133	79.6314	536.133	79.3588	536.133	79.3107	536.133	79.0979	536.133	78.8905	536.133	78.7362	536.133	78.426	536.133	78.2671	536.133	77.9637	536.133	77.7078	536.133	77.5188	536.133	77.1125	536.133	77.0847	536.133	76.5707	536.133	76.6702	536.133	76.1766	536.133	76.3278	536.133	75.9913	536.133	76.1353	536.133	76.0294	536.133	76.1422	536.133	76.2659	536.133	76.3405	536.133	76.6387	536.133	76.6749	536.133	77.0443	536.133	77.0526	536.133	77.3565	536.133	77.3543	536.133	77.4717
555.176	79.7882	555.176	79.7645	555.176	79.7624	555.176	79.6756	555.176	79.6971	555.176	79.5149	555.176	79.5782	555.176	79.2832	555.176	79.369	555.176	78.9752	555.176	79.0323	555.176	78.577	555.176	78.56	555.176	78.0794	555.176	77.9911	555.176	77.5	555.176	77.4062	555.176	76.9022	555.176	76.8987	555.176	76.3977	555.176	76.5413	555.176	76.106	555.176	76.3696	555.176	76.0824	555.176	76.38	555.176	76.28	555.176	76.5277	555.176	76.5892	555.176	76.7345	555.176	76.8975	555.176	76.9271	555.176	77.1242	555.176	77.0736	555.176	77.2345	555.176	77.1776	555.176	77.24
574.219	79.7157	574.219	79.7344	574.219	79.6261	574.219	79.6521	574.219	79.5	574.219	79.4698	574.219	79.3412	574.219	79.2109	574.219	79.1162	574.219	78.8912	574.219	78.7855	574.219	78.4998	574.219	78.3429	574.219	78.0187	574.219	77.8288	574.219	77.4621	574.219	77.3064	574.219	76.8953	574.219	76.8231	574.219	76.415	574.219	76.407	574.219	76.1089	574.219	76.1126	574.219	76.0226	574.219	76.0329	574.219	76.1454	574.219	76.2162	574.219	76.4203	574.219	76.5881	574.219	76.7713	574.219	77.0041	574.219	77.1221	574.219	77.3431	574.219	77.4023	574.219	77.5354	574.219	77.5527
594.727	79.9285	594.727	79.9276	594.727	79.8536	594.727	79.8423	594.727	79.6973	594.727	79.6581	594.727	79.4602	594.727	79.3733	594.727	79.1634	594.727	78.9978	594.727	78.8224	594.727	78.5332	594.727	78.4118	594.727	77.9658	594.727	77.8767	594.727	77.303	594.727	77.1971	594.727	76.6211	594.727	76.4505	594.727	76.0527	594.727	75.8001	594.727	75.6997	594.727	75.3945	594.727	75.5749	594.727	75.2915	594.727	75.6539	594.727	75.4916	594.727	75.9177	594.727	75.9509	594.727	76.3126	594.727	76.5322	594.727	76.7415	594.727	77.0385	594.727	77.1079	594.727	77.3185	594.727	77.327
615.234	79.966	615.234	79.9092	615.234	79.987	615.234	79.823	615.234	79.9331	615.234	79.6804	615.234	79.7715	615.234	79.4497	615.234	79.5027	615.234	79.1093	615.234	79.1452	615.234	78.6435	615.234	78.7059	615.234	78.0486	615.234	78.1723	615.234	77.3556	615.234	77.5264	615.234	76.6418	615.234	76.7821	615.234	76.0062	615.234	76.04	615.234	75.5378	615.234	75.4851	615.234	75.3314	615.234	75.2444	615.234	75.4756	615.234	75.2949	615.234	75.9256	615.234	75.576	615.234	76.4656	615.234	76.0305	615.234	76.8792	615.234	76.5233	615.234	77.0817	615.234	76.8971	615.234	77.0837
637.207	80.2357	637.207	80.256	637.207	80.112	637.207	80.1472	637.207	79.9656	637.207	79.9506	637.207	79.8408	637.207	79.7116	637.207	79.6788	637.207	79.4287	637.207	79.3681	637.207	79.0567	637.207	78.8531	637.207	78.5367	637.207	78.1814	637.207	77.8377	637.207	77.4616	637.207	77.0215	637.207	76.7878	637.207	76.2846	637.207	76.2167	637.207	75.8532	637.207	75.811	637.207	75.7417	637.207	75.6531	637.207	75.7583	637.207	75.761	637.207	75.7953	637.207	76.053	637.207	75.9288	637.207	76.4245	637.207	76.2404	637.207	76.7765	637.207	76.6452	637.207	76.9857	637.207	76.9423
659.18	80.0815	659.18	80.0213	659.18	80.0644	659.18	79.9131	659.18	79.9408	659.18	79.7579	659.18	79.7124	659.18	79.5214	659.18	79.4191	659.18	79.1705	659.18	79.104	659.18	78.719	659.18	78.7538	659.18	78.2036	659.18	78.2735	659.18	77.6033	659.18	77.5557	659.18	76.841	659.18	76.6008	659.18	75.9368	659.18	75.5926	659.18	75.1601	659.18	74.8559	659.18	74.8694	659.18	74.626	659.18	75.0908	659.18	74.834	659.18	75.5582	659.18	75.2653	659.18	76.0891	659.18	75.8116	659.18	76.6181	659.18	76.421	659.18	77.0367	659.18	76.9426	659.18	77.1757
682.617	80.1716	682.617	80.0904	682.617	80.1513	682.617	79.9595	682.617	79.9924	682.617	79.8051	682.617	79.7472	682.617	79.6482	682.617	79.4979	682.617	79.4542	682.617	79.2243	682.617	79.0935	682.617	78.8155	682.617	78.4665	682.617	78.2118	682.617	77.6509	682.617	77.4719	682.617	76.8366	682.617	76.6973	682.617	76.0891	682.617	75.9303	682.617	75.3417	682.617	75.2015	682.617	74.7193	682.617	74.6931	682.617	74.6133	682.617	74.6534	682.617	75.1138	682.617	75.0485	682.617	75.8181	682.617	75.6023	682.617	76.3645	682.617	76.0976	682.617	76.6342	682.617	76.453	682.617	76.6453
707.52	79.9067	707.52	79.9978	707.52	79.8872	707.52	80.0548	707.52	79.9224	707.52	79.993	707.52	79.8659	707.52	79.8203	707.52	79.6128	707.52	79.5978	707.52	79.205	707.52	79.3311	707.52	78.7531	707.52	78.9071	707.52	78.2924	707.52	78.1912	707.52	77.7485	707.52	77.185	707.52	77.04	707.52	76.1115	707.52	76.1574	707.52	75.3148	707.52	75.1593	707.52	74.9713	707.52	74.2336	707.52	74.9697	707.52	73.853	707.52	75.0944	707.52	74.4334	707.52	75.226	707.52	75.5376	707.52	75.4208	707.52	76.3741	707.52	75.7942	707.52	76.5877	707.52	76.2819
732.422	79.6571	732.422	79.7171	732.422	79.6581	732.422	79.7675	732.422	79.6541	732.422	79.6887	732.422	79.5481	732.422	79.4386	732.422	79.319	732.422	79.0546	732.422	78.986	732.422	78.6056	732.422	78.5423	732.422	78.1388	732.422	77.9604	732.422	77.6152	732.422	77.2341	732.422	76.9123	732.422	76.391	732.422	75.9572	732.422	75.4886	732.422	74.8972	732.422	74.6693	732.422	74.1716	732.422	74.2184	732.422	74.2523	732.422	74.335	732.422	75.0114	732.422	74.8505	732.422	75.8048	732.422	75.4456	732.422	76.2269	732.422	75.9079	732.422	76.3131	732.422	76.1633	732.422	76.2685
757.324	80.0841	757.324	80.0635	757.324	79.9436	757.324	79.8971	757.324	79.7032	757.324	79.7026	757.324	79.432	757.324	79.5984	757.324	79.1981	757.324	79.5514	757.324	79.0649	757.324	79.3799	757.324	78.9927	757.324	78.9338	757.324	78.7721	757.324	78.2266	757.324	78.1581	757.324	77.3848	757.324	77.1108	757.324	76.4848	757.324	75.8972	757.324	75.494	757.324	74.842	757.324	74.4565	757.324	73.9754	757.324	73.747	757.324	73.3456	757.324	73.8566	757.324	73.432	757.324	74.6386	757.324	74.2791	757.324	75.4381	757.324	75.1696	757.324	75.8597	757.324	75.6971	757.324	75.91
785.156	79.0234	785.156	79.2425	785.156	79.0316	785.156	79.4827	785.156	79.1887	785.156	79.5136	785.156	79.2374	785.156	79.3041	785.156	79.057	785.156	79.0093	785.156	78.7409	785.156	78.7651	785.156	78.4029	785.156	78.5116	785.156	78.0292	785.156	78.1108	785.156	77.5458	785.156	77.5284	785.156	76.8592	785.156	76.7793	785.156	75.8506	785.156	75.8748	785.156	74.6183	785.156	75.0327	785.156	73.6423	785.156	74.6781	785.156	73.2216	785.156	74.7988	785.156	73.2605	785.156	75.0218	785.156	73.7914	785.156	75.2851	785.156	74.7279	785.156	75.6296	785.156	75.5383	785.156	75.8228
811.523	79.4501	811.523	79.5598	811.523	79.2644	811.523	79.4886	811.523	79.135	811.523	79.3188	811.523	79.0551	811.523	79.187	811.523	78.9231	811.523	79.0402	811.523	78.6838	811.523	78.7292	811.523	78.3666	811.523	78.2523	811.523	77.9926	811.523	77.6901	811.523	77.4844	811.523	76.9934	811.523	76.7134	811.523	76.0623	811.523	75.6488	811.523	74.993	811.523	74.4474	811.523	74.1088	811.523	73.4671	811.523	73.7051	811.523	73.1538	811.523	73.8486	811.523	73.5941	811.523	74.3719	811.523	74.3081	811.523	74.9078	811.523	74.8246	811.523	75.1675	811.523	75.0632	811.523	75.1686
840.82	79.037	840.82	79.0463	840.82	79.1397	840.82	79.0816	840.82	79.1765	840.82	78.9472	840.82	78.9679	840.82	78.6537	840.82	78.6026	840.82	78.4406	840.82	78.3298	840.82	78.4247	840.82	78.2335	840.82	78.3445	840.82	78.1317	840.82	77.8759	840.82	77.763	840.82	77.0148	840.82	76.9789	840.82	76.0804	840.82	75.8458	840.82	75.1985	840.82	74.5689	840.82	74.0986	840.82	73.2593	840.82	72.9562	840.82	72.0681	840.82	72.7082	840.82	71.6804	840.82	73.4559	840.82	72.4665	840.82	74.2902	840.82	73.6145	840.82	74.7746	840.82	74.4634	840.82	74.8475
870.117	78.3618	870.117	78.2503	870.117	78.2218	870.117	78.0151	870.117	78.0286	870.117	77.8134	870.117	78.0058	870.117	77.6494	870.117	77.9916	870.117	77.5026	870.117	77.7655	870.117	77.4433	870.117	77.4891	870.117	77.4723	870.117	77.4468	870.117	77.3875	870.117	77.4715	870.117	76.9646	870.117	77.1723	870.117	76.1557	870.117	76.4187	870.117	75.1131	870.117	75.365	870.117	74.1107	870.117	74.1812	870.117	73.2803	870.117	72.8884	870.117	72.5979	870.117	71.8223	870.117	72.2694	870.117	71.7946	870.117	72.3268	870.117	72.4351	870.117	72.4573	870.117	72.7603	870.117	72.6463
900.879	79.7768	900.879	79.703	900.879	79.801	900.879	79.4242	900.879	79.6927	900.879	78.9188	900.879	79.1758	900.879	78.3564	900.879	78.3664	900.879	77.8239	900.879	77.7662	900.879	77.1672	900.879	77.4504	900.879	76.2721	900.879	77.0384	900.879	75.5087	900.879	76.5126	900.879	75.4527	900.879	76.2186	900.879	75.7891	900.879	76.0323	900.879	75.849	900.879	75.5976	900.879	75.7364	900.879	75.226	900.879	75.8489	900.879	75.3318	900.879	75.996	900.879	75.5091	900.879	75.8887	900.879	75.3742	900.879	75.6921	900.879	75.2795	900.879	75.6307	900.879	75.4567	900.879	75.6101
933.105	79.6931	933.105	79.5456	933.105	79.578	933.105	79.2014	933.105	79.3825	933.105	78.8912	933.105	79.3403	933.105	78.7059	933.105	79.3353	933.105	78.4576	933.105	79.042	933.105	78.0173	933.105	78.4598	933.105	77.4725	933.105	77.9266	933.105	76.7678	933.105	77.4627	933.105	75.6613	933.105	76.6906	933.105	74.3156	933.105	75.5316	933.105	73.3522	933.105	74.3969	933.105	72.949	933.105	73.7243	933.105	72.974	933.105	73.6864	933.105	73.5643	933.105	74.1732	933.105	74.5816	933.105	74.8797	933.105	75.5336	933.105	75.4584	933.105	76.0151	933.105	75.7885	933.105	76.0048
965.332	80.0247	965.332	79.9182	965.332	79.9522	965.332	79.7098	965.332	79.7219	965.332	79.484	965.332	79.4064	965.332	79.2244	965.332	79.09	965.332	78.8927	965.332	78.7996	965.332	78.455	965.332	78.5017	965.332	77.9215	965.332	78.1713	965.332	77.3934	965.332	77.786	965.332	76.7398	965.332	77.2615	965.332	75.6221	965.332	76.3753	965.332	74.1787	965.332	75.1318	965.332	73.3428	965.332	74.1905	965.332	73.829	965.332	74.1707	965.332	74.8809	965.332	74.9101	965.332	75.7696	965.332	75.8924	965.332	76.3814	965.332	76.6286	965.332	76.7606	965.332	76.9843	965.332	76.9855
1,000.49	79.9652	1,000.49	79.942	1,000.49	80.0276	1,000.49	79.9103	1,000.49	79.8662	1,000.49	79.6277	1,000.49	79.4593	1,000.49	79.1757	1,000.49	79.0947	1,000.49	78.8102	1,000.49	78.8453	1,000.49	78.5659	1,000.49	78.5079	1,000.49	78.3474	1,000.49	78.0383	1,000.49	78.0566	1,000.49	77.5007	1,000.49	77.5522	1,000.49	76.8119	1,000.49	76.7229	1,000.49	75.8949	1,000.49	75.4058	1,000.49	74.6628	1,000.49	73.6322	1,000.49	73.1817	1,000.49	72.5585	1,000.49	72.417	1,000.49	73.346	1,000.49	73.0825	1,000.49	74.7092	1,000.49	74.4098	1,000.49	75.6167	1,000.49	75.6133	1,000.49	76.1167	1,000.49	76.2582	1,000.49	76.3569
1,035.64	79.7438	1,035.64	79.4593	1,035.64	79.6627	1,035.64	79.2841	1,035.64	79.2784	1,035.64	79.3148	1,035.64	78.8425	1,035.64	79.0474	1,035.64	78.4385	1,035.64	78.4858	1,035.64	78.1793	1,035.64	78.0312	1,035.64	77.8596	1,035.64	77.6456	1,035.64	77.2014	1,035.64	77.2043	1,035.64	76.5709	1,035.64	76.8236	1,035.64	76.2589	1,035.64	76.3206	1,035.64	75.6227	1,035.64	75.3785	1,035.64	74.3642	1,035.64	74.2407	1,035.64	73.2445	1,035.64	73.6573	1,035.64	72.6129	1,035.64	74.0351	1,035.64	72.4531	1,035.64	74.8204	1,035.64	73.4586	1,035.64	75.4228	1,035.64	74.8514	1,035.64	75.5456	1,035.64	75.4488	1,035.64	75.4807
1,072.27	79.9932	1,072.27	79.8737	1,072.27	79.7964	1,072.27	79.5086	1,072.27	79.5119	1,072.27	79.2652	1,072.27	79.1556	1,072.27	79.0722	1,072.27	78.7019	1,072.27	78.6833	1,072.27	78.3088	1,072.27	78.1657	1,072.27	77.9923	1,072.27	77.4985	1,072.27	77.508	1,072.27	76.5395	1,072.27	76.7217	1,072.27	75.5525	1,072.27	75.7925	1,072.27	74.9064	1,072.27	74.9019	1,072.27	74.325	1,072.27	73.8439	1,072.27	73.4014	1,072.27	72.4434	1,072.27	72.6439	1,072.27	71.5247	1,072.27	72.9301	1,072.27	72.0713	1,072.27	73.8036	1,072.27	72.9748	1,072.27	74.6249	1,072.27	74.1583	1,072.27	75.4519	1,072.27	75.4803	1,072.27	75.9651
1,108.89	80.2213	1,108.89	80.2694	1,108.89	79.9886	1,108.89	80.1469	1,108.89	79.5968	1,108.89	79.7321	1,108.89	79.1561	1,108.89	79.1034	1,108.89	78.5986	1,108.89	78.6425	1,108.89	77.926	1,108.89	78.4044	1,108.89	77.4296	1,108.89	77.9511	1,108.89	77.195	1,108.89	77.3585	1,108.89	76.9055	1,108.89	76.9595	1,108.89	76.2827	1,108.89	75.9788	1,108.89	75.3607	1,108.89	73.998	1,108.89	74.2435	1,108.89	72.5296	1,108.89	72.8792	1,108.89	72.3587	1,108.89	71.7147	1,108.89	72.3492	1,108.89	71.6008	1,108.89	73.0314	1,108.89	72.5528	1,108.89	74.5843	1,108.89	73.8361	1,108.89	75.4229	1,108.89	74.7545	1,108.89	75.2692
1,148.44	79.8168	1,148.44	79.9997	1,148.44	79.6128	1,148.44	79.7991	1,148.44	79.4344	1,148.44	79.2949	1,148.44	79.0033	1,148.44	78.8493	1,148.44	78.4629	1,148.44	78.3858	1,148.44	78.1111	1,148.44	77.7752	1,148.44	77.8113	1,148.44	77.3419	1,148.44	77.4814	1,148.44	76.8985	1,148.44	77.0605	1,148.44	75.8542	1,148.44	76.1713	1,148.44	74.6009	1,148.44	75.0415	1,148.44	73.523	1,148.44	74.2761	1,148.44	71.9617	1,148.44	73.2152	1,148.44	70.9356	1,148.44	71.6289	1,148.44	71.9186	1,148.44	71.6115	1,148.44	73.3115	1,148.44	73.2654	1,148.44	74.2494	1,148.44	74.5339	1,148.44	74.8282	1,148.44	75.1068	1,148.44	75.1578
1,189.45	80.6259	1,189.45	80.5132	1,189.45	80.645	1,189.45	80.4406	1,189.45	80.2908	1,189.45	80.0039	1,189.45	79.7122	1,189.45	79.0856	1,189.45	79.176	1,189.45	78.2971	1,189.45	78.7561	1,189.45	77.9574	1,189.45	78.3488	1,189.45	77.6949	1,189.45	77.9833	1,189.45	77.3608	1,189.45	77.7375	1,189.45	76.5614	1,189.45	77.1746	1,189.45	74.9848	1,189.45	75.9644	1,189.45	73.3801	1,189.45	74.2236	1,189.45	71.6739	1,189.45	71.6591	1,189.45	69.3428	1,189.45	69.4765	1,189.45	69.5129	1,189.45	70.5299	1,189.45	72.2997	1,189.45	72.5014	1,189.45	74.6196	1,189.45	74.2938	1,189.45	75.3349	1,189.45	75.0998	1,189.45	75.1992
1,230.47	80.4602	1,230.47	80.0674	1,230.47	80.4282	1,230.47	79.6923	1,230.47	80.0516	1,230.47	79.3695	1,230.47	79.7163	1,230.47	78.9142	1,230.47	79.2751	1,230.47	78.4559	1,230.47	78.5307	1,230.47	77.8715	1,230.47	77.9019	1,230.47	77.1531	1,230.47	77.6421	1,230.47	76.6541	1,230.47	77.1089	1,230.47	76.2013	1,230.47	76.0211	1,230.47	75.4283	1,230.47	75.3903	1,230.47	74.2778	1,230.47	74.9652	1,230.47	72.3446	1,230.47	73.1098	1,230.47	70.0684	1,230.47	70.4213	1,230.47	70.0668	1,230.47	70.1963	1,230.47	71.7654	1,230.47	72.2761	1,230.47	73.7259	1,230.47	73.8317	1,230.47	75.1189	1,230.47	74.9382	1,230.47	75.5114
1,274.41	79.8374	1,274.41	79.5615	1,274.41	79.5682	1,274.41	79.1478	1,274.41	79.2706	1,274.41	79.0628	1,274.41	78.903	1,274.41	78.5123	1,274.41	78.1684	1,274.41	77.435	1,274.41	77.7304	1,274.41	77.0389	1,274.41	77.4049	1,274.41	77.1808	1,274.41	76.6398	1,274.41	77.0762	1,274.41	76.5723	1,274.41	76.683	1,274.41	76.6106	1,274.41	75.8186	1,274.41	75.1728	1,274.41	74.3929	1,274.41	73.5808	1,274.41	72.5303	1,274.41	72.5328	1,274.41	69.7774	1,274.41	69.6238	1,274.41	68.0268	1,274.41	67.6946	1,274.41	70.5748	1,274.41	70.1751	1,274.41	72.754	1,274.41	72.3487	1,274.41	73.6749	1,274.41	73.3265	1,274.41	73.6906
1,319.82	80.5042	1,319.82	80.4744	1,319.82	80.528	1,319.82	79.9851	1,319.82	80.2313	1,319.82	79.2966	1,319.82	79.3101	1,319.82	78.8306	1,319.82	78.8237	1,319.82	78.1635	1,319.82	78.7234	1,319.82	77.0923	1,319.82	77.5749	1,319.82	76.2015	1,319.82	76.4409	1,319.82	76.202	1,319.82	76.3365	1,319.82	76.4088	1,319.82	75.3444	1,319.82	75.5764	1,319.82	74.5329	1,319.82	73.9956	1,319.82	74.5805	1,319.82	72.368	1,319.82	72.4653	1,319.82	70.3372	1,319.82	69.2805	1,319.82	69.0505	1,319.82	68.9929	1,319.82	70.5051	1,319.82	69.8839	1,319.82	72.4379	1,319.82	72.2752	1,319.82	73.8694	1,319.82	74.2796	1,319.82	74.7001
1,366.7	82.6573	1,366.7	82.8613	1,366.7	82.5104	1,366.7	82.8059	1,366.7	82.1501	1,366.7	81.8019	1,366.7	82.0503	1,366.7	80.5979	1,366.7	81.8184	1,366.7	80.1387	1,366.7	80.7198	1,366.7	79.5523	1,366.7	79.8292	1,366.7	78.6874	1,366.7	79.1815	1,366.7	78.4485	1,366.7	77.8904	1,366.7	78.0379	1,366.7	78.0267	1,366.7	77.3035	1,366.7	78.0913	1,366.7	77.4305	1,366.7	75.8848	1,366.7	76.5311	1,366.7	74.863	1,366.7	73.0683	1,366.7	74.9275	1,366.7	71.6444	1,366.7	72.4834	1,366.7	72.4295	1,366.7	73.1518	1,366.7	75.0166	1,366.7	74.5563	1,366.7	77.6018	1,366.7	74.7597	1,366.7	76.8415
1,413.57	84.9152	1,413.57	84.6116	1,413.57	84.6134	1,413.57	83.4027	1,413.57	84.5856	1,413.57	83.5138	1,413.57	83.6281	1,413.57	83.5665	1,413.57	82.1342	1,413.57	81.9469	1,413.57	82.5162	1,413.57	81.0589	1,413.57	82.2292	1,413.57	81.0235	1,413.57	80.1505	1,413.57	79.8716	1,413.57	80.3545	1,413.57	79.489	1,413.57	79.5373	1,413.57	79.2864	1,413.57	76.8661	1,413.57	78.2243	1,413.57	77.7437	1,413.57	76.7691	1,413.57	76.5607	1,413.57	72.2204	1,413.57	71.2227	1,413.57	70.6506	1,413.57	72.4354	1,413.57	75.4727	1,413.57	73.5644	1,413.57	75.5139	1,413.57	77.0445	1,413.57	77.8655	1,413.57	78.7146	1,413.57	78.8083
1,463.38	85.0711	1,463.38	84.5634	1,463.38	85.3104	1,463.38	84.7763	1,463.38	84.5602	1,463.38	84.3659	1,463.38	83.9593	1,463.38	83.0019	1,463.38	83.3584	1,463.38	82.0551	1,463.38	81.9847	1,463.38	80.9339	1,463.38	81.0072	1,463.38	79.5676	1,463.38	81.0588	1,463.38	79.3178	1,463.38	81.3218	1,463.38	79.2514	1,463.38	80.8442	1,463.38	79.626	1,463.38	79.4569	1,463.38	78.5717	1,463.38	78.8197	1,463.38	75.6354	1,463.38	78.1461	1,463.38	73.7218	1,463.38	75.0184	1,463.38	71.4167	1,463.38	73.2203	1,463.38	72.458	1,463.38	73.7696	1,463.38	75.5372	1,463.38	73.9438	1,463.38	76.6665	1,463.38	76.4069	1,463.38	77.3451
1,516.11	85.1819	1,516.11	85.2213	1,516.11	85.0425	1,516.11	84.9774	1,516.11	84.5049	1,516.11	84.5973	1,516.11	83.9887	1,516.11	84.0254	1,516.11	83.5553	1,516.11	82.5324	1,516.11	82.772	1,516.11	80.9555	1,516.11	81.5214	1,516.11	80.2065	1,516.11	80.128	1,516.11	80.2169	1,516.11	79.4724	1,516.11	80.3175	1,516.11	79.6449	1,516.11	79.5231	1,516.11	79.9801	1,516.11	78.8501	1,516.11	79.5722	1,516.11	77.9027	1,516.11	77.6798	1,516.11	75.4049	1,516.11	74.7792	1,516.11	70.933	1,516.11	71.2631	1,516.11	70.649	1,516.11	72.0441	1,516.11	74.8039	1,516.11	75.8389	1,516.11	75.641	1,516.11	77.9878	1,516.11	77.4541
1,568.85	84.39	1,568.85	84.3427	1,568.85	83.8715	1,568.85	83.7305	1,568.85	83.5495	1,568.85	83.2422	1,568.85	83.3172	1,568.85	82.6761	1,568.85	82.189	1,568.85	81.7255	1,568.85	81.2698	1,568.85	81.0118	1,568.85	80.855	1,568.85	79.375	1,568.85	79.9439	1,568.85	77.0956	1,568.85	79.2326	1,568.85	77.0483	1,568.85	78.426	1,568.85	77.2916	1,568.85	78.1834	1,568.85	77.5935	1,568.85	77.7631	1,568.85	76.6331	1,568.85	76.1561	1,568.85	73.172	1,568.85	73.3373	1,568.85	70.45	1,568.85	65.9333	1,568.85	69.0976	1,568.85	70.3231	1,568.85	73.8845	1,568.85	73.7407	1,568.85	76.3171	1,568.85	75.5142	1,568.85	76.5709
1,624.51	83.6988	1,624.51	83.683	1,624.51	83.6694	1,624.51	83.0907	1,624.51	83.3729	1,624.51	82.6476	1,624.51	82.2936	1,624.51	82.2331	1,624.51	81.098	1,624.51	81.3928	1,624.51	80.3995	1,624.51	79.8671	1,624.51	79.3728	1,624.51	77.6493	1,624.51	78.066	1,624.51	77.6967	1,624.51	77.7665	1,624.51	76.9896	1,624.51	76.892	1,624.51	76.2199	1,624.51	76.906	1,624.51	77.2616	1,624.51	77.0629	1,624.51	76.0468	1,624.51	74.9996	1,624.51	74.1956	1,624.51	70.9694	1,624.51	71.2848	1,624.51	66.2091	1,624.51	70.236	1,624.51	63.9616	1,624.51	73.8561	1,624.51	72.4831	1,624.51	74.8772	1,624.51	75.4733	1,624.51	75.5785
1,681.64	82.6954	1,681.64	82.2502	1,681.64	83.2424	1,681.64	82.6198	1,681.64	82.3078	1,681.64	81.5293	1,681.64	81.238	1,681.64	80.7997	1,681.64	80.5499	1,681.64	79.9886	1,681.64	79.9584	1,681.64	78.4152	1,681.64	77.8075	1,681.64	77.0647	1,681.64	75.3542	1,681.64	75.6402	1,681.64	74.2352	1,681.64	75.2424	1,681.64	73.7623	1,681.64	74.8838	1,681.64	75.7487	1,681.64	75.7134	1,681.64	75.836	1,681.64	74.9905	1,681.64	74.4074	1,681.64	71.9186	1,681.64	72.9125	1,681.64	71.2431	1,681.64	69.7653	1,681.64	68.1361	1,681.64	62.5797	1,681.64	68.7058	1,681.64	69.3795	1,681.64	72.978	1,681.64	69.8967	1,681.64	71.3851
1,741.7	81.8802	1,741.7	81.6931	1,741.7	82.4002	1,741.7	82.0914	1,741.7	82.5208	1,741.7	81.6531	1,741.7	81.9689	1,741.7	79.7169	1,741.7	81.7106	1,741.7	79.6782	1,741.7	80.3075	1,741.7	78.0175	1,741.7	78.4664	1,741.7	76.3843	1,741.7	76.8424	1,741.7	76.7862	1,741.7	73.9614	1,741.7	73.9644	1,741.7	73.7915	1,741.7	74.0793	1,741.7	74.3594	1,741.7	72.5488	1,741.7	73.9954	1,741.7	71.0954	1,741.7	72.7752	1,741.7	71.6725	1,741.7	71.3516	1,741.7	60.4082	1,741.7	67.3256	1,741.7	65.5445	1,741.7	65.9301	1,741.7	68.4445	1,741.7	67.702	1,741.7	69.3821	1,741.7	71.4451	1,741.7	72.5907
1,803.22	82.9764	1,803.22	82.0627	1,803.22	82.4322	1,803.22	81.793	1,803.22	81.7688	1,803.22	80.8294	1,803.22	81.9925	1,803.22	80.7583	1,803.22	80.1371	1,803.22	79.959	1,803.22	80.0246	1,803.22	77.8762	1,803.22	78.8922	1,803.22	76.374	1,803.22	75.8192	1,803.22	74.6667	1,803.22	76.3152	1,803.22	75.4415	1,803.22	75.803	1,803.22	74.178	1,803.22	74.8079	1,803.22	72.0944	1,803.22	74.243	1,803.22	71.5081	1,803.22	74.2733	1,803.22	69.6711	1,803.22	71.9041	1,803.22	66.1828	1,803.22	68.4544	1,803.22	66.0711	1,803.22	69.4512	1,803.22	70.1654	1,803.22	68.6577	1,803.22	71.0438	1,803.22	71.7969	1,803.22	73.2448
1,866.21	81.7793	1,866.21	81.7334	1,866.21	81.3566	1,866.21	81.3032	1,866.21	80.7578	1,866.21	80.9848	1,866.21	80.4148	1,866.21	80.2237	1,866.21	79.6868	1,866.21	78.5362	1,866.21	78.4717	1,866.21	78.0465	1,866.21	77.8067	1,866.21	77.361	1,866.21	76.6968	1,866.21	74.9554	1,866.21	74.4353	1,866.21	73.8731	1,866.21	72.3558	1,866.21	72.8322	1,866.21	72.8476	1,866.21	72.4839	1,866.21	72.2653	1,866.21	73.2688	1,866.21	71.4539	1,866.21	71.0636	1,866.21	71.6951	1,866.21	68.6423	1,866.21	67.7241	1,866.21	64.6508	1,866.21	61.4204	1,866.21	69.2719	1,866.21	68.6665	1,866.21	71.8664	1,866.21	70.1037	1,866.21	69.8872
1,932.13	80.3337	1,932.13	80.9978	1,932.13	79.482	1,932.13	79.6697	1,932.13	80.1814	1,932.13	79.3982	1,932.13	79.4546	1,932.13	79.248	1,932.13	77.7743	1,932.13	77.5575	1,932.13	77.7079	1,932.13	77.169	1,932.13	76.7934	1,932.13	75.5554	1,932.13	74.8923	1,932.13	72.9138	1,932.13	74.9642	1,932.13	73.4358	1,932.13	73.8083	1,932.13	72.3985	1,932.13	71.1959	1,932.13	71.429	1,932.13	72.6723	1,932.13	72.0162	1,932.13	72.6419	1,932.13	70.1492	1,932.13	68.6208	1,932.13	66.6382	1,932.13	66.8329	1,932.13	66.4254	1,932.13	62.1729	1,932.13	68.3127	1,932.13	65.4249	1,932.13	70.8176	1,932.13	68.6022	1,932.13	71.1458
1,999.51	80.9717	1,999.51	80.6836	1,999.51	80.739	1,999.51	80.0066	1,999.51	80.3965	1,999.51	79.3126	1,999.51	79.6744	1,999.51	78.4098	1,999.51	78.7664	1,999.51	77.5403	1,999.51	77.7227	1,999.51	76.7026	1,999.51	76.2203	1,999.51	74.9952	1,999.51	75.3819	1,999.51	72.5752	1,999.51	74.1154	1,999.51	70.2398	1,999.51	71.912	1,999.51	69.8665	1,999.51	71.179	1,999.51	70.4512	1,999.51	70.5881	1,999.51	69.8017	1,999.51	70.9226	1,999.51	68.8653	1,999.51	70.5617	1,999.51	63.5101	1,999.51	66.4037	1,999.51	62.0431	1,999.51	60.6488	1,999.51	66.8635	1,999.51	66.3833	1,999.51	69.9803	1,999.51	69.7204	1,999.51	70.5761
2,069.82	82.3268	2,069.82	81.7639	2,069.82	82.3634	2,069.82	81.4669	2,069.82	81.5995	2,069.82	80.4548	2,069.82	80.7553	2,069.82	79.3042	2,069.82	79.9337	2,069.82	78.216	2,069.82	78.707	2,069.82	76.905	2,069.82	77.1263	2,069.82	76.0822	2,069.82	76.1666	2,069.82	74.318	2,069.82	74.9849	2,069.82	72.8222	2,069.82	73.698	2,069.82	71.5721	2,069.82	72.9379	2,069.82	70.3418	2,069.82	72.2295	2,069.82	70.7617	2,069.82	71.9941	2,069.82	69.9801	2,069.82	70.2138	2,069.82	65.9372	2,069.82	66.9063	2,069.82	55.154	2,069.82	62.6877	2,069.82	65.5941	2,069.82	65.5377	2,069.82	68.7978	2,069.82	70.8187	2,069.82	71.0912
2,143.07	82.1098	2,143.07	82.1899	2,143.07	82.0331	2,143.07	81.6131	2,143.07	81.452	2,143.07	80.8298	2,143.07	80.5706	2,143.07	80.0822	2,143.07	79.5972	2,143.07	78.5599	2,143.07	78.0864	2,143.07	77.1108	2,143.07	76.6208	2,143.07	75.5983	2,143.07	75.045	2,143.07	73.7728	2,143.07	73.63	2,143.07	72.6516	2,143.07	72.5661	2,143.07	71.8324	2,143.07	71.9135	2,143.07	71.4498	2,143.07	71.297	2,143.07	71.5568	2,143.07	70.5885	2,143.07	70.1119	2,143.07	70.913	2,143.07	66.8168	2,143.07	67.0695	2,143.07	59.9976	2,143.07	55.5172	2,143.07	64.6203	2,143.07	63.6171	2,143.07	67.8411	2,143.07	68.9215	2,143.07	69.6623
2,219.24	80.8725	2,219.24	80.8675	2,219.24	80.6374	2,219.24	80.6747	2,219.24	80.2829	2,219.24	80.0164	2,219.24	79.4451	2,219.24	78.704	2,219.24	78.2589	2,219.24	77.1446	2,219.24	77.1288	2,219.24	75.8389	2,219.24	75.5943	2,219.24	74.6274	2,219.24	73.8573	2,219.24	72.7659	2,219.24	72.235	2,219.24	71.1381	2,219.24	71.1867	2,219.24	70.6267	2,219.24	70.9708	2,219.24	70.3789	2,219.24	70.5666	2,219.24	70.4976	2,219.24	70.0759	2,219.24	69.6947	2,219.24	69.4972	2,219.24	66.1568	2,219.24	66.8355	2,219.24	56.7406	2,219.24	57.7938	2,219.24	62.8268	2,219.24	59.9861	2,219.24	67.1638	2,219.24	66.4598	2,219.24	67.9184
2,296.88	81.2442	2,296.88	81.0033	2,296.88	81.0295	2,296.88	80.4222	2,296.88	80.6201	2,296.88	79.4244	2,296.88	79.6755	2,296.88	77.8377	2,296.88	78.4379	2,296.88	76.7975	2,296.88	77.4028	2,296.88	75.462	2,296.88	75.8836	2,296.88	72.5967	2,296.88	73.9629	2,296.88	71.3052	2,296.88	72.4725	2,296.88	70.159	2,296.88	70.9082	2,296.88	68.0449	2,296.88	70.4558	2,296.88	69.0111	2,296.88	70.5029	2,296.88	69.159	2,296.88	70.7937	2,296.88	68.2184	2,296.88	70.5883	2,296.88	67.2474	2,296.88	67.373	2,296.88	57.4156	2,296.88	61.4593	2,296.88	58.1417	2,296.88	57.8032	2,296.88	64.4363	2,296.88	64.119	2,296.88	66.1169
2,378.91	81.4861	2,378.91	81.3039	2,378.91	81.3465	2,378.91	80.9646	2,378.91	80.647	2,378.91	80.138	2,378.91	79.8277	2,378.91	78.6626	2,378.91	78.9669	2,378.91	77.0658	2,378.91	77.5606	2,378.91	75.4541	2,378.91	75.7306	2,378.91	74.2353	2,378.91	73.5139	2,378.91	73.2834	2,378.91	71.8701	2,378.91	71.3163	2,378.91	71.0621	2,378.91	70.45	2,378.91	70.0915	2,378.91	68.8748	2,378.91	69.7101	2,378.91	68.019	2,378.91	69.0859	2,378.91	67.7696	2,378.91	68.9943	2,378.91	65.5757	2,378.91	66.9567	2,378.91	61.6426	2,378.91	61.3159	2,378.91	60.4789	2,378.91	60.2174	2,378.91	65.5661	2,378.91	65.7814	2,378.91	65.574
2,462.4	80.9387	2,462.4	80.8278	2,462.4	80.628	2,462.4	80.2021	2,462.4	79.9544	2,462.4	79.2395	2,462.4	78.7843	2,462.4	78.036	2,462.4	77.7578	2,462.4	76.8587	2,462.4	76.4861	2,462.4	75.2563	2,462.4	74.9289	2,462.4	73.9932	2,462.4	73.152	2,462.4	72.8991	2,462.4	70.1098	2,462.4	71.579	2,462.4	67.4873	2,462.4	70.7167	2,462.4	68.4392	2,462.4	68.7884	2,462.4	68.5848	2,462.4	67.435	2,462.4	68.3005	2,462.4	67.8911	2,462.4	68.5052	2,462.4	65.9218	2,462.4	65.9024	2,462.4	60.2336	2,462.4	60.1991	2,462.4	57.4469	2,462.4	59.5543	2,462.4	64.8405	2,462.4	65.2459	2,462.4	66.6527
2,548.83	81.6764	2,548.83	81.4831	2,548.83	81.9074	2,548.83	81.0443	2,548.83	80.7257	2,548.83	79.558	2,548.83	79.7851	2,548.83	78.6252	2,548.83	78.6699	2,548.83	77.3593	2,548.83	76.9018	2,548.83	74.7724	2,548.83	75.5627	2,548.83	71.6629	2,548.83	74.0421	2,548.83	70.6032	2,548.83	72.8584	2,548.83	70.3074	2,548.83	69.9726	2,548.83	68.8181	2,548.83	67.4434	2,548.83	68.3967	2,548.83	67.905	2,548.83	68.4562	2,548.83	68.137	2,548.83	69.1487	2,548.83	68.5957	2,548.83	66.6304	2,548.83	66.2378	2,548.83	60.7548	2,548.83	64.8845	2,548.83	56.5647	2,548.83	62.8185	2,548.83	64.1521	2,548.83	65.5938	2,548.83	65.8419
2,639.65	82.3193	2,639.65	82.3273	2,639.65	81.865	2,639.65	81.6795	2,639.65	81.4309	2,639.65	80.9521	2,639.65	80.7363	2,639.65	79.741	2,639.65	79.1045	2,639.65	77.375	2,639.65	77.2903	2,639.65	75.4779	2,639.65	76.0285	2,639.65	74.5031	2,639.65	74.546	2,639.65	72.207	2,639.65	72.4194	2,639.65	69.3653	2,639.65	71.4413	2,639.65	68.7916	2,639.65	68.8601	2,639.65	68.0677	2,639.65	68.0291	2,639.65	67.6863	2,639.65	68.0846	2,639.65	67.7806	2,639.65	67.2277	2,639.65	65.5029	2,639.65	67.8503	2,639.65	56.9686	2,639.65	62.587	2,639.65	59.5299	2,639.65	62.2105	2,639.65	65.738	2,639.65	64.0329	2,639.65	67.1838
2,731.93	81.8958	2,731.93	81.706	2,731.93	81.4678	2,731.93	81.0898	2,731.93	80.9067	2,731.93	80.0523	2,731.93	79.7901	2,731.93	78.7184	2,731.93	78.2289	2,731.93	77.4447	2,731.93	76.6968	2,731.93	75.2889	2,731.93	74.9668	2,731.93	72.6574	2,731.93	73.1853	2,731.93	71.4256	2,731.93	71.7244	2,731.93	70.6654	2,731.93	70.7094	2,731.93	68.374	2,731.93	68.3388	2,731.93	67.485	2,731.93	65.2116	2,731.93	67.9476	2,731.93	67.0772	2,731.93	67.5823	2,731.93	67.839	2,731.93	66.3488	2,731.93	66.4785	2,731.93	60.8552	2,731.93	60.6499	2,731.93	54.8101	2,731.93	54.6226	2,731.93	63.5127	2,731.93	62.2471	2,731.93	64.2095
2,828.61	82.0584	2,828.61	81.9528	2,828.61	81.381	2,828.61	80.829	2,828.61	81.1253	2,828.61	79.8272	2,828.61	80.092	2,828.61	78.2224	2,828.61	78.5216	2,828.61	76.0002	2,828.61	77.3362	2,828.61	74.4647	2,828.61	75.4692	2,828.61	73.2241	2,828.61	73.6274	2,828.61	70.6524	2,828.61	72.3544	2,828.61	67.55	2,828.61	71.2837	2,828.61	66.5593	2,828.61	68.9296	2,828.61	66.5135	2,828.61	67.3917	2,828.61	66.9757	2,828.61	66.7298	2,828.61	66.5565	2,828.61	67.2426	2,828.61	65.1585	2,828.61	67.5381	2,828.61	60.0524	2,828.61	63.1724	2,828.61	55.9089	2,828.61	56.3872	2,828.61	63.4628	2,828.61	61.7028	2,828.61	65.1348
2,928.22	82.3155	2,928.22	81.9647	2,928.22	81.8913	2,928.22	80.8958	2,928.22	81.5128	2,928.22	79.785	2,928.22	80.1329	2,928.22	77.7129	2,928.22	78.4231	2,928.22	76.0918	2,928.22	77.014	2,928.22	75.0843	2,928.22	75.6671	2,928.22	72.137	2,928.22	73.7381	2,928.22	68.7312	2,928.22	71.6468	2,928.22	67.4441	2,928.22	70.6526	2,928.22	66.1413	2,928.22	67.8452	2,928.22	65.8281	2,928.22	67.8118	2,928.22	66.9664	2,928.22	67.9667	2,928.22	67.5848	2,928.22	64.5301	2,928.22	66.8307	2,928.22	66.3236	2,928.22	62.3982	2,928.22	63.0848	2,928.22	35.2137	2,928.22	54.5581	2,928.22	61.9537	2,928.22	63.5412	2,928.22	65.6609
3,030.76	81.832	3,030.76	81.5778	3,030.76	81.3108	3,030.76	80.2313	3,030.76	81.0219	3,030.76	78.6944	3,030.76	79.8085	3,030.76	76.286	3,030.76	78.2023	3,030.76	74.7619	3,030.76	76.5459	3,030.76	73.7514	3,030.76	74.9432	3,030.76	71.0674	3,030.76	73.6978	3,030.76	68.7187	3,030.76	71.2545	3,030.76	66.465	3,030.76	68.4718	3,030.76	64.9005	3,030.76	67.8025	3,030.76	65.6671	3,030.76	67.4169	3,030.76	65.8378	3,030.76	67.0533	3,030.76	66.8885	3,030.76	65.8677	3,030.76	68.0673	3,030.76	64.8995	3,030.76	64.3806	3,030.76	62.478	3,030.76	51.2785	3,030.76	47.6169	3,030.76	55.9711	3,030.76	59.4168	3,030.76	61.704
3,137.7	82.5942	3,137.7	82.2405	3,137.7	82.3931	3,137.7	81.1467	3,137.7	81.4688	3,137.7	79.3535	3,137.7	79.8174	3,137.7	77.2566	3,137.7	78.4732	3,137.7	76.1794	3,137.7	76.6562	3,137.7	74.3807	3,137.7	74.8598	3,137.7	71.7267	3,137.7	73.5191	3,137.7	70.3705	3,137.7	71.8266	3,137.7	69.1229	3,137.7	69.0477	3,137.7	66.0685	3,137.7	67.3108	3,137.7	63.3091	3,137.7	66.3211	3,137.7	64.8568	3,137.7	67.453	3,137.7	66.9042	3,137.7	68.6013	3,137.7	66.9314	3,137.7	66.3372	3,137.7	64.1914	3,137.7	62.9881	3,137.7	57.3193	3,137.7	57.4616	3,137.7	58.7538	3,137.7	61.7418	3,137.7	62.1443
3,249.02	82.5628	3,249.02	82.011	3,249.02	82.8986	3,249.02	81.3718	3,249.02	81.5745	3,249.02	79.2645	3,249.02	79.8684	3,249.02	77.4146	3,249.02	78.4247	3,249.02	75.4827	3,249.02	76.0489	3,249.02	72.9216	3,249.02	74.355	3,249.02	73.0177	3,249.02	73.2785	3,249.02	71.4736	3,249.02	71.556	3,249.02	68.7406	3,249.02	69.0471	3,249.02	67.0068	3,249.02	68.1605	3,249.02	64.9644	3,249.02	66.1969	3,249.02	65.1637	3,249.02	65.9317	3,249.02	66.5844	3,249.02	67.666	3,249.02	66.7124	3,249.02	64.7528	3,249.02	64.6167	3,249.02	62.689	3,249.02	53.8245	3,249.02	58.3398	3,249.02	61.5954	3,249.02	62.9245	3,249.02	64.6337
3,363.28	82.2705	3,363.28	81.7889	3,363.28	82.3242	3,363.28	81.1882	3,363.28	81.085	3,363.28	79.7425	3,363.28	79.731	3,363.28	78.1566	3,363.28	78.1022	3,363.28	75.5904	3,363.28	75.4905	3,363.28	73.6475	3,363.28	73.5013	3,363.28	73.4455	3,363.28	72.0738	3,363.28	72.2915	3,363.28	71.1735	3,363.28	70.2325	3,363.28	69.3697	3,363.28	67.556	3,363.28	66.9581	3,363.28	66.2223	3,363.28	65.5758	3,363.28	65.748	3,363.28	64.8679	3,363.28	66.6937	3,363.28	66.1571	3,363.28	66.9005	3,363.28	65.5308	3,363.28	64.2196	3,363.28	63.6654	3,363.28	57.7344	3,363.28	57.9785	3,363.28	60.5658	3,363.28	62.15	3,363.28	64.8721
3,481.93	82.0254	3,481.93	81.3969	3,481.93	82.6283	3,481.93	81.0802	3,481.93	80.9756	3,481.93	79.2959	3,481.93	79.6031	3,481.93	78.7376	3,481.93	78.501	3,481.93	76.6534	3,481.93	76.2581	3,481.93	73.3462	3,481.93	73.9861	3,481.93	73.7027	3,481.93	72.5415	3,481.93	72.4474	3,481.93	71.8201	3,481.93	71.3033	3,481.93	69.5169	3,481.93	68.7281	3,481.93	67.8243	3,481.93	65.4497	3,481.93	65.7643	3,481.93	66.6461	3,481.93	65.3372	3,481.93	67.2766	3,481.93	67.1269	3,481.93	66.8216	3,481.93	66.4004	3,481.93	65.3029	3,481.93	63.4216	3,481.93	58.2104	3,481.93	55.6792	3,481.93	58.5917	3,481.93	61.5419	3,481.93	62.8517
3,604.98	81.9169	3,604.98	81.8227	3,604.98	82.089	3,604.98	81.0963	3,604.98	80.7368	3,604.98	79.4099	3,604.98	79.6753	3,604.98	79.0219	3,604.98	77.9172	3,604.98	76.0386	3,604.98	75.9259	3,604.98	74.5199	3,604.98	73.7347	3,604.98	74.5381	3,604.98	72.2499	3,604.98	72.2353	3,604.98	71.5897	3,604.98	71.1168	3,604.98	70.2072	3,604.98	69.5879	3,604.98	68.1163	3,604.98	67.414	3,604.98	66.2248	3,604.98	66.0541	3,604.98	64.7276	3,604.98	65.4164	3,604.98	67.0251	3,604.98	68.1718	3,604.98	66.7542	3,604.98	66.6699	3,604.98	63.8319	3,604.98	57.4225	3,604.98	51.7067	3,604.98	56.7326	3,604.98	60.331	3,604.98	63.0847
3,732.42	81.642	3,732.42	81.5354	3,732.42	81.1419	3,732.42	80.6689	3,732.42	80.5768	3,732.42	79.595	3,732.42	79.7313	3,732.42	78.6242	3,732.42	77.2522	3,732.42	76.3338	3,732.42	75.8918	3,732.42	75.5096	3,732.42	74.07	3,732.42	73.0075	3,732.42	72.083	3,732.42	72.0207	3,732.42	71.2431	3,732.42	72.1319	3,732.42	71.046	3,732.42	69.3581	3,732.42	68.1567	3,732.42	65.9056	3,732.42	66.5202	3,732.42	65.1987	3,732.42	62.8258	3,732.42	64.8437	3,732.42	62.4696	3,732.42	67.7266	3,732.42	65.788	3,732.42	65.978	3,732.42	64.5868	3,732.42	58.1559	3,732.42	56.7677	3,732.42	56.2945	3,732.42	57.8287	3,732.42	62.0867
3,864.26	81.9462	3,864.26	82.0442	3,864.26	80.5959	3,864.26	80.7364	3,864.26	80.3391	3,864.26	79.8869	3,864.26	79.3677	3,864.26	78.0889	3,864.26	77.7634	3,864.26	76.7689	3,864.26	76.6831	3,864.26	75.9613	3,864.26	75.4549	3,864.26	72.4291	3,864.26	72.45	3,864.26	72.7041	3,864.26	70.4406	3,864.26	72.2792	3,864.26	71.5777	3,864.26	70.8905	3,864.26	68.4894	3,864.26	68.7465	3,864.26	68.091	3,864.26	65.2588	3,864.26	66.1612	3,864.26	65.7488	3,864.26	63.2025	3,864.26	67.9296	3,864.26	67.2639	3,864.26	67.7507	3,864.26	65.0399	3,864.26	57.3222	3,864.26	59.0382	3,864.26	56.0106	3,864.26	60.7987	3,864.26	61.8501
4,000.49	81.9126	4,000.49	81.8791	4,000.49	80.559	4,000.49	80.4261	4,000.49	80.1545	4,000.49	79.7225	4,000.49	78.7082	4,000.49	77.2215	4,000.49	76.9941	4,000.49	76.9422	4,000.49	75.8399	4,000.49	76.777	4,000.49	75.063	4,000.49	72.1769	4,000.49	73.0908	4,000.49	71.5025	4,000.49	71.8804	4,000.49	71.0794	4,000.49	71.8612	4,000.49	69.7461	4,000.49	69.1871	4,000.49	69.0874	4,000.49	67.3929	4,000.49	66.8443	4,000.49	66.4802	4,000.49	65.4098	4,000.49	64.4575	4,000.49	66.6959	4,000.49	67.1205	4,000.49	66.6466	4,000.49	65.3026	4,000.49	59.7701	4,000.49	55.403	4,000.49	58.1127	4,000.49	57.78	4,000.49	60.7686
4,141.11	81.7763	4,141.11	81.7782	4,141.11	80.8107	4,141.11	80.5872	4,141.11	80.5039	4,141.11	79.8432	4,141.11	79.2936	4,141.11	78.0847	4,141.11	78.5736	4,141.11	78.2915	4,141.11	76.7195	4,141.11	76.9217	4,141.11	75.1666	4,141.11	74.0958	4,141.11	73.2619	4,141.11	73.6084	4,141.11	72.4679	4,141.11	72.1422	4,141.11	71.6964	4,141.11	70.7645	4,141.11	68.5767	4,141.11	68.9362	4,141.11	67.3152	4,141.11	66.973	4,141.11	68.0135	4,141.11	66.9724	4,141.11	66.3229	4,141.11	66.0469	4,141.11	67.0715	4,141.11	67.295	4,141.11	66.157	4,141.11	62.0423	4,141.11	57.9919	4,141.11	60.5358	4,141.11	58.5974	4,141.11	63.3147
4,287.6	81.6365	4,287.6	81.498	4,287.6	81.7797	4,287.6	80.8153	4,287.6	80.7831	4,287.6	79.8473	4,287.6	79.343	4,287.6	78.6318	4,287.6	78.6535	4,287.6	78.2296	4,287.6	77.2813	4,287.6	76.5227	4,287.6	75.9742	4,287.6	75.0454	4,287.6	74.0208	4,287.6	73.6121	4,287.6	71.7601	4,287.6	71.3177	4,287.6	70.3778	4,287.6	71.2386	4,287.6	70.8285	4,287.6	69.8759	4,287.6	66.0628	4,287.6	66.4058	4,287.6	65.6269	4,287.6	66.3	4,287.6	67.6074	4,287.6	66.8209	4,287.6	64.9949	4,287.6	67.1994	4,287.6	63.8647	4,287.6	62.2968	4,287.6	55.3313	4,287.6	60.1216	4,287.6	58.8039	4,287.6	63.2436
4,438.48	81.3081	4,438.48	80.8309	4,438.48	81.9032	4,438.48	81.0737	4,438.48	80.5323	4,438.48	79.9163	4,438.48	78.9137	4,438.48	79.1228	4,438.48	78.1296	4,438.48	79.1411	4,438.48	77.3391	4,438.48	76.6053	4,438.48	75.628	4,438.48	76.3308	4,438.48	74.6616	4,438.48	74.6118	4,438.48	72.8404	4,438.48	71.7557	4,438.48	69.7711	4,438.48	72.2064	4,438.48	70.0073	4,438.48	70.2735	4,438.48	68.729	4,438.48	67.9542	4,438.48	66.5383	4,438.48	66.6851	4,438.48	64.8381	4,438.48	65.9075	4,438.48	65.0782	4,438.48	67.4543	4,438.48	67.7062	4,438.48	63.7024	4,438.48	60.7456	4,438.48	59.5993	4,438.48	56.7046	4,438.48	63.7128
4,595.21	81.9739	4,595.21	81.7551	4,595.21	81.685	4,595.21	81.8715	4,595.21	80.87	4,595.21	80.5467	4,595.21	80.1075	4,595.21	79.5886	4,595.21	78.7119	4,595.21	77.7209	4,595.21	77.5973	4,595.21	75.605	4,595.21	76.6266	4,595.21	76.3213	4,595.21	75.2423	4,595.21	73.0084	4,595.21	73.0175	4,595.21	72.4234	4,595.21	70.9773	4,595.21	71.9273	4,595.21	70.6788	4,595.21	68.7579	4,595.21	68.8616	4,595.21	68.5763	4,595.21	66.624	4,595.21	67.8203	4,595.21	65.9655	4,595.21	66.8825	4,595.21	64.3903	4,595.21	67.8331	4,595.21	67.7584	4,595.21	62.5395	4,595.21	64.3678	4,595.21	52.8542	4,595.21	50.1878	4,595.21	61.8481
4,756.35	80.9419	4,756.35	81.5986	4,756.35	79.1993	4,756.35	80.8876	4,756.35	78.7042	4,756.35	80.4966	4,756.35	78.4982	4,756.35	79.9471	4,756.35	77.9576	4,756.35	76.1895	4,756.35	76.7205	4,756.35	76.2248	4,756.35	75.8828	4,756.35	76.6576	4,756.35	74.407	4,756.35	74.1242	4,756.35	72.6814	4,756.35	73.1648	4,756.35	70.7117	4,756.35	71.4997	4,756.35	70.176	4,756.35	70.505	4,756.35	69.5779	4,756.35	69.299	4,756.35	66.2105	4,756.35	67.438	4,756.35	65.476	4,756.35	66.5593	4,756.35	62.8084	4,756.35	66.5022	4,756.35	65.2415	4,756.35	60.8888	4,756.35	64.9504	4,756.35	57.0345	4,756.35	47.5123	4,756.35	62.4102
4,924.8	81.9075	4,924.8	81.9483	4,924.8	81.3644	4,924.8	81.1392	4,924.8	80.1563	4,924.8	81.5588	4,924.8	79.8661	4,924.8	81.5082	4,924.8	79.6828	4,924.8	79.4665	4,924.8	78.3275	4,924.8	78.3241	4,924.8	77.554	4,924.8	75.6805	4,924.8	75.7712	4,924.8	73.7793	4,924.8	73.0334	4,924.8	72.0785	4,924.8	71.4131	4,924.8	69.2017	4,924.8	70.2738	4,924.8	68.9958	4,924.8	68.2065	4,924.8	67.8994	4,924.8	68.9912	4,924.8	67.8495	4,924.8	69.5886	4,924.8	66.3722	4,924.8	65.2912	4,924.8	66.1347	4,924.8	65.1066	4,924.8	64.4117	4,924.8	64.817	4,924.8	51.3457	4,924.8	40.3918	4,924.8	61.2158
5,097.66	80.5655	5,097.66	79.6989	5,097.66	81.4618	5,097.66	79.4319	5,097.66	80.0984	5,097.66	80.1399	5,097.66	79.0568	5,097.66	80.7303	5,097.66	79.3282	5,097.66	80.4593	5,097.66	79.1357	5,097.66	78.5343	5,097.66	77.1356	5,097.66	75.0961	5,097.66	74.1406	5,097.66	72.8359	5,097.66	72.8355	5,097.66	70.1169	5,097.66	71.1632	5,097.66	68.8837	5,097.66	70.6971	5,097.66	67.5112	5,097.66	69.3036	5,097.66	68.1669	5,097.66	65.238	5,097.66	68.3989	5,097.66	65.6939	5,097.66	63.8316	5,097.66	67.0001	5,097.66	64.7243	5,097.66	65.87	5,097.66	65.4517	5,097.66	62.638	5,097.66	52.8589	5,097.66	45.9014	5,097.66	58.3508
5,277.83	81.7007	5,277.83	81.2836	5,277.83	82.1171	5,277.83	81.4458	5,277.83	81.275	5,277.83	80.7297	5,277.83	80.3175	5,277.83	80.2878	5,277.83	79.3218	5,277.83	80.3229	5,277.83	79.1367	5,277.83	78.4828	5,277.83	76.8521	5,277.83	75.9783	5,277.83	74.3503	5,277.83	73.8291	5,277.83	73.4286	5,277.83	71.0425	5,277.83	70.3683	5,277.83	70.0983	5,277.83	67.8943	5,277.83	68.4507	5,277.83	67.2811	5,277.83	66.2319	5,277.83	65.9801	5,277.83	67.0847	5,277.83	66.6515	5,277.83	65.1717	5,277.83	67.2888	5,277.83	65.6162	5,277.83	66.4211	5,277.83	65.483	5,277.83	59.8425	5,277.83	52.5554	5,277.83	53.6785	5,277.83	57.472
5,463.87	81.0792	5,463.87	81.4917	5,463.87	80.8821	5,463.87	81.1962	5,463.87	81.4011	5,463.87	79.1114	5,463.87	80.9129	5,463.87	77.8051	5,463.87	78.7173	5,463.87	77.8142	5,463.87	77.9253	5,463.87	75.7417	5,463.87	76.2164	5,463.87	73.9361	5,463.87	73.9996	5,463.87	72.7021	5,463.87	72.0161	5,463.87	70.8361	5,463.87	70.279	5,463.87	70.8775	5,463.87	66.3925	5,463.87	68.646	5,463.87	67.0689	5,463.87	62.9999	5,463.87	67.2282	5,463.87	62.3433	5,463.87	65.6348	5,463.87	63.9456	5,463.87	63.3137	5,463.87	65.1129	5,463.87	64.2674	5,463.87	62.8232	5,463.87	62.9789	5,463.87	47.1071	5,463.87	51.6633	5,463.87	60.5908
5,657.23	80.9907	5,657.23	81.6128	5,657.23	80.2665	5,657.23	81.243	5,657.23	81.4773	5,657.23	80.0383	5,657.23	81.6434	5,657.23	78.7199	5,657.23	80.3	5,657.23	77.7139	5,657.23	77.7348	5,657.23	76.0967	5,657.23	76.1843	5,657.23	74.2232	5,657.23	74.5899	5,657.23	72.8072	5,657.23	71.482	5,657.23	71.282	5,657.23	69.5843	5,657.23	68.7903	5,657.23	65.812	5,657.23	65.707	5,657.23	66.0773	5,657.23	65.2878	5,657.23	65.5742	5,657.23	63.1584	5,657.23	65.1001	5,657.23	61.0912	5,657.23	64.883	5,657.23	64.5552	5,657.23	63.9046	5,657.23	63.2638	5,657.23	63.8282	5,657.23	40.3203	5,657.23	44.6427	5,657.23	55.7025
5,856.45	81.1046	5,856.45	81.4847	5,856.45	81.1122	5,856.45	81.4791	5,856.45	81.5041	5,856.45	81.5486	5,856.45	81.1086	5,856.45	80.4856	5,856.45	80.4747	5,856.45	78.1191	5,856.45	77.9951	5,856.45	75.832	5,856.45	75.2908	5,856.45	72.7817	5,856.45	72.9016	5,856.45	70.8912	5,856.45	69.5908	5,856.45	68.2779	5,856.45	66.9329	5,856.45	58.5604	5,856.45	65.3848	5,856.45	62.6674	5,856.45	63.7308	5,856.45	65.0106	5,856.45	60.5659	5,856.45	62.4531	5,856.45	62.3396	5,856.45	60.8062	5,856.45	59.6294	5,856.45	62.021	5,856.45	55.3914	5,856.45	58.6153	5,856.45	60.2435	5,856.45	51.459	5,856.45	37.9038	5,856.45	40.9403
6,062.99	81.4793	6,062.99	81.6072	6,062.99	81.7766	6,062.99	81.4931	6,062.99	81.3208	6,062.99	81.579	6,062.99	80.8509	6,062.99	80.4799	6,062.99	79.9907	6,062.99	77.5538	6,062.99	77.0806	6,062.99	75.513	6,062.99	74.6939	6,062.99	72.1637	6,062.99	70.6116	6,062.99	67.3452	6,062.99	66.377	6,062.99	63.5578	6,062.99	65.6352	6,062.99	62.4853	6,062.99	63.9193	6,062.99	63.6957	6,062.99	62.4997	6,062.99	62.771	6,062.99	60.6945	6,062.99	62.2407	6,062.99	55.0695	6,062.99	63.9772	6,062.99	63.4847	6,062.99	58.723	6,062.99	58.7477	6,062.99	56.6945	6,062.99	57.8928	6,062.99	53.7097	6,062.99	53.1252	6,062.99	51.0112
6,276.86	81.6963	6,276.86	81.2624	6,276.86	81.9315	6,276.86	81.425	6,276.86	81.2872	6,276.86	81.4602	6,276.86	80.2131	6,276.86	79.6923	6,276.86	78.3246	6,276.86	76.8756	6,276.86	75.6715	6,276.86	74.5495	6,276.86	73.1619	6,276.86	71.1879	6,276.86	68.1755	6,276.86	67.6429	6,276.86	63.8617	6,276.86	64.9076	6,276.86	63.9752	6,276.86	66.4845	6,276.86	63.5633	6,276.86	63.983	6,276.86	60.4398	6,276.86	58.4917	6,276.86	60.6604	6,276.86	58.9558	6,276.86	60.819	6,276.86	62.9165	6,276.86	61.8577	6,276.86	60.476	6,276.86	60.407	6,276.86	58.5182	6,276.86	58.2496	6,276.86	54.5481	6,276.86	55.662	6,276.86	51.5434
6,498.05	81.459	6,498.05	81.2938	6,498.05	81.5301	6,498.05	80.8376	6,498.05	81.0821	6,498.05	80.3676	6,498.05	79.2948	6,498.05	78.8015	6,498.05	76.866	6,498.05	76.4986	6,498.05	74.49	6,498.05	72.9993	6,498.05	69.9129	6,498.05	69.5062	6,498.05	64.994	6,498.05	67.5976	6,498.05	66.1296	6,498.05	66.9495	6,498.05	61.935	6,498.05	66.418	6,498.05	58.7467	6,498.05	63.5495	6,498.05	57.9862	6,498.05	59.2476	6,498.05	56.9356	6,498.05	58.8118	6,498.05	54.9732	6,498.05	61.315	6,498.05	59.0046	6,498.05	62.0898	6,498.05	61.243	6,498.05	60.8614	6,498.05	59.4946	6,498.05	56.0765	6,498.05	55.9529	6,498.05	54.1899
6,726.56	82.1993	6,726.56	82.1569	6,726.56	82.3189	6,726.56	81.7243	6,726.56	81.5672	6,726.56	80.8075	6,726.56	80.4427	6,726.56	79.7119	6,726.56	78.4916	6,726.56	77.0758	6,726.56	74.7132	6,726.56	73.2909	6,726.56	70.4822	6,726.56	70.6229	6,726.56	69.018	6,726.56	67.3946	6,726.56	64.7364	6,726.56	65.5949	6,726.56	61.8394	6,726.56	65.0779	6,726.56	62.2122	6,726.56	62.9922	6,726.56	62.649	6,726.56	63.1486	6,726.56	62.9348	6,726.56	57.8362	6,726.56	58.6716	6,726.56	58.652	6,726.56	58.1192	6,726.56	58.1168	6,726.56	59.6298	6,726.56	61.3003	6,726.56	59.691	6,726.56	53.9798	6,726.56	56.4537	6,726.56	58.2087
6,963.87	82.9048	6,963.87	82.8636	6,963.87	83.1565	6,963.87	82.9277	6,963.87	82.3499	6,963.87	81.8274	6,963.87	81.4064	6,963.87	80.0006	6,963.87	79.1805	6,963.87	77.4197	6,963.87	75.0193	6,963.87	73.6021	6,963.87	71.713	6,963.87	69.9161	6,963.87	69.2537	6,963.87	66.8505	6,963.87	66.4115	6,963.87	65.2129	6,963.87	65.5732	6,963.87	60.3088	6,963.87	64.0337	6,963.87	58.6579	6,963.87	62.9085	6,963.87	63.3205	6,963.87	62.8106	6,963.87	55.2412	6,963.87	61.1987	6,963.87	58.9119	6,963.87	63.097	6,963.87	58.4057	6,963.87	62.0188	6,963.87	59.4914	6,963.87	58.1874	6,963.87	53.3678	6,963.87	54.5974	6,963.87	57.4529
7,209.96	83.0842	7,209.96	83.0563	7,209.96	83.0536	7,209.96	83.3016	7,209.96	82.8474	7,209.96	82.2941	7,209.96	81.4869	7,209.96	79.9415	7,209.96	78.2378	7,209.96	76.5041	7,209.96	75.7109	7,209.96	72.0206	7,209.96	72.9088	7,209.96	69.6722	7,209.96	68.2562	7,209.96	65.3808	7,209.96	66.5518	7,209.96	60.4043	7,209.96	65.411	7,209.96	59.7087	7,209.96	64.3299	7,209.96	57.7609	7,209.96	63.7355	7,209.96	61.6654	7,209.96	59.6017	7,209.96	58.9036	7,209.96	59.938	7,209.96	57.4068	7,209.96	61.339	7,209.96	61.7975	7,209.96	63.7995	7,209.96	55.7309	7,209.96	62.1857	7,209.96	51.1338	7,209.96	55.459	7,209.96	54.6786
7,464.84	84.466	7,464.84	84.4653	7,464.84	84.2995	7,464.84	83.5146	7,464.84	83.9382	7,464.84	82.2243	7,464.84	81.9267	7,464.84	80.3565	7,464.84	79.2143	7,464.84	76.1777	7,464.84	75.9257	7,464.84	71.6206	7,464.84	71.6776	7,464.84	67.1002	7,464.84	69.397	7,464.84	58.2241	7,464.84	68.8549	7,464.84	58.2602	7,464.84	65.4853	7,464.84	58.9487	7,464.84	64.053	7,464.84	59.3778	7,464.84	63.2222	7,464.84	59.08	7,464.84	60.6756	7,464.84	58.0045	7,464.84	59.482	7,464.84	54.8269	7,464.84	63.8531	7,464.84	62.4356	7,464.84	61.7567	7,464.84	58.3906	7,464.84	62.6749	7,464.84	48.908	7,464.84	55.7886	7,464.84	54.9606
7,727.05	86.1975	7,727.05	86.0829	7,727.05	85.9451	7,727.05	84.7504	7,727.05	85.2799	7,727.05	83.1132	7,727.05	83.4571	7,727.05	80.5235	7,727.05	81.0507	7,727.05	76.2907	7,727.05	77.058	7,727.05	72.262	7,727.05	72.7115	7,727.05	63.8994	7,727.05	71.3671	7,727.05	56.5013	7,727.05	69.1933	7,727.05	60.2895	7,727.05	66.7646	7,727.05	59.7637	7,727.05	64.3009	7,727.05	56.1541	7,727.05	60.5483	7,727.05	51.3128	7,727.05	60.0506	7,727.05	47.8647	7,727.05	54.7176	7,727.05	52.7047	7,727.05	59.657	7,727.05	58.3581	7,727.05	60.813	7,727.05	58.1475	7,727.05	62.8984	7,727.05	49.1654	7,727.05	58.543	7,727.05	58.3063
7,999.51	87.6752	7,999.51	87.4452	7,999.51	87.3294	7,999.51	86.3647	7,999.51	86.372	7,999.51	84.0718	7,999.51	84.4976	7,999.51	79.753	7,999.51	81.695	7,999.51	74.3718	7,999.51	77.3668	7,999.51	69.312	7,999.51	73.0382	7,999.51	61.4787	7,999.51	68.2988	7,999.51	45.6675	7,999.51	65.7794	7,999.51	46.0963	7,999.51	66.0041	7,999.51	50.4899	7,999.51	62.8381	7,999.51	36.0288	7,999.51	61.6265	7,999.51	50.311	7,999.51	62.8252	7,999.51	46.813	7,999.51	59.8697	7,999.51	51.9066	7,999.51	58.6854	7,999.51	40.544	7,999.51	59.8572	7,999.51	47.769	7,999.51	58.9432	7,999.51	42.9993	7,999.51	57.0175	7,999.51	57.9926
8,282.23	86.5294	8,282.23	86.0826	8,282.23	86.3677	8,282.23	84.9288	8,282.23	85.3565	8,282.23	81.7787	8,282.23	83.338	8,282.23	76.2685	8,282.23	79.6068	8,282.23	70.0471	8,282.23	72.4689	8,282.23	68.9828	8,282.23	58.8018	8,282.23	69.6856	8,282.23	58.8927	8,282.23	68.8618	8,282.23	63.3787	8,282.23	66.902	8,282.23	63.6603	8,282.23	64.67	8,282.23	63.0674	8,282.23	61.3288	8,282.23	61.6768	8,282.23	61.4317	8,282.23	62.011	8,282.23	61.5248	8,282.23	58.6083	8,282.23	55.3346	8,282.23	55.6073	8,282.23	59.9423	8,282.23	55.9186	8,282.23	57.5921	8,282.23	60.9094	8,282.23	56.1274	8,282.23	56.0547	8,282.23	56.38
8,573.73	82.554	8,573.73	82.7424	8,573.73	82.7149	8,573.73	82.2168	8,573.73	81.7098	8,573.73	79.0939	8,573.73	76.9722	8,573.73	70.4005	8,573.73	64.5804	8,573.73	69.2641	8,573.73	69.2475	8,573.73	73.4424	8,573.73	72.3377	8,573.73	74.0429	8,573.73	74.4015	8,573.73	73.2702	8,573.73	73.3031	8,573.73	71.5739	8,573.73	69.3048	8,573.73	69.4965	8,573.73	69.3411	8,573.73	67.1221	8,573.73	66.6934	8,573.73	66.3512	8,573.73	64.7656	8,573.73	64.9915	8,573.73	62.8889	8,573.73	61.2605	8,573.73	64.5968	8,573.73	65.1077	8,573.73	66.491	8,573.73	62.9968	8,573.73	64.3751	8,573.73	61.1901	8,573.73	56.7028	8,573.73	61.8714
8,876.95	86.3737	8,876.95	85.9372	8,876.95	85.8808	8,876.95	84.1687	8,876.95	84.3776	8,876.95	80.7391	8,876.95	83.2348	8,876.95	74.6553	8,876.95	81.2407	8,876.95	68.6152	8,876.95	79.5675	8,876.95	72.765	8,876.95	79.1787	8,876.95	72.9886	8,876.95	78.0412	8,876.95	70.8592	8,876.95	76.0375	8,876.95	68.4046	8,876.95	72.661	8,876.95	67.181	8,876.95	71.6818	8,876.95	65.9305	8,876.95	69.8351	8,876.95	65.2523	8,876.95	66.6814	8,876.95	61.6207	8,876.95	68.7881	8,876.95	54.3955	8,876.95	67.769	8,876.95	63.3893	8,876.95	68.3625	8,876.95	65.1073	8,876.95	65.3169	8,876.95	56.4233	8,876.95	60.9926	8,876.95	64.4236
9,188.96	88.0718	9,188.96	86.9518	9,188.96	88.1309	9,188.96	84.1652	9,188.96	87.7333	9,188.96	76.8214	9,188.96	85.7447	9,188.96	63.0937	9,188.96	82.1234	9,188.96	73.1656	9,188.96	81.2107	9,188.96	75.6307	9,188.96	80.2493	9,188.96	74.1874	9,188.96	77.9197	9,188.96	71.037	9,188.96	76.9846	9,188.96	69.493	9,188.96	74.4705	9,188.96	66.127	9,188.96	72.3204	9,188.96	64.3965	9,188.96	71.3228	9,188.96	56.8897	9,188.96	69.0457	9,188.96	60.0262	9,188.96	68.0182	9,188.96	59.8809	9,188.96	66.0259	9,188.96	61.6553	9,188.96	67.2893	9,188.96	63.4576	9,188.96	67.3789	9,188.96	58.289	9,188.96	64.3792	9,188.96	63.4696
9,514.16	88.5445	9,514.16	87.3903	9,514.16	88.299	9,514.16	84.2132	9,514.16	86.6848	9,514.16	79.6071	9,514.16	81.9849	9,514.16	78.6488	9,514.16	79.6727	9,514.16	79.1313	9,514.16	79.4062	9,514.16	79.0945	9,514.16	78.8266	9,514.16	75.7467	9,514.16	77.6685	9,514.16	72.5401	9,514.16	76.4846	9,514.16	69.6678	9,514.16	72.5361	9,514.16	67.7797	9,514.16	69.4934	9,514.16	65.9999	9,514.16	69.1544	9,514.16	63.1138	9,514.16	67.1845	9,514.16	63.1216	9,514.16	66.312	9,514.16	63.5813	9,514.16	63.3071	9,514.16	65.2149	9,514.16	66.089	9,514.16	63.6962	9,514.16	65.4229	9,514.16	62.1705	9,514.16	60.6363	9,514.16	63.273
9,849.61	89.7004	9,849.61	88.4211	9,849.61	88.6842	9,849.61	84.9735	9,849.61	85.7862	9,849.61	80.9137	9,849.61	83.6584	9,849.61	79.3558	9,849.61	81.6488	9,849.61	79.4652	9,849.61	78.8488	9,849.61	76.7607	9,849.61	77.7801	9,849.61	72.6886	9,849.61	76.1977	9,849.61	72.0238	9,849.61	72.7945	9,849.61	66.5424	9,849.61	69.5284	9,849.61	65.2392	9,849.61	68.3439	9,849.61	63.8749	9,849.61	63.8182	9,849.61	59.5742	9,849.61	62.4157	9,849.61	60.8784	9,849.61	62.2082	9,849.61	57.9225	9,849.61	63.5863	9,849.61	62.9047	9,849.61	64.5739	9,849.61	61.7592	9,849.61	63.8916	9,849.61	54.1727	9,849.61	57.6558	9,849.61	59.8762
10,196.8	88.9212	10,196.8	87.769	10,196.8	88.1264	10,196.8	84.7026	10,196.8	85.5851	10,196.8	80.5792	10,196.8	82.182	10,196.8	78.0043	10,196.8	78.4877	10,196.8	75.4096	10,196.8	77.1391	10,196.8	71.8326	10,196.8	75.5009	10,196.8	68.9873	10,196.8	71.9053	10,196.8	64.8439	10,196.8	68.2578	10,196.8	61.5434	10,196.8	66.8577	10,196.8	58.2922	10,196.8	65.4934	10,196.8	59.3725	10,196.8	61.7458	10,196.8	59.0408	10,196.8	58.4137	10,196.8	55.192	10,196.8	56.3667	10,196.8	54.0545	10,196.8	55.7125	10,196.8	57.7953	10,196.8	59.3596	10,196.8	55.6496	10,196.8	61.4043	10,196.8	51.0253	10,196.8	57.3603	10,196.8	57.17
10,555.7	88.6431	10,555.7	87.4894	10,555.7	87.6587	10,555.7	84.503	10,555.7	84.4293	10,555.7	80.4481	10,555.7	80.1959	10,555.7	76.4013	10,555.7	77.2097	10,555.7	72.5438	10,555.7	75.4626	10,555.7	68.3023	10,555.7	73.4733	10,555.7	63.4469	10,555.7	70.1274	10,555.7	59.4933	10,555.7	68.1392	10,555.7	60.617	10,555.7	63.2366	10,555.7	55.9637	10,555.7	59.403	10,555.7	55.562	10,555.7	58.3027	10,555.7	57.6848	10,555.7	52.7719	10,555.7	52.0718	10,555.7	55.833	10,555.7	46.1959	10,555.7	53.0618	10,555.7	54.5201	10,555.7	56.1121	10,555.7	55.5619	10,555.7	56.8087	10,555.7	49.3732	10,555.7	53.3344	10,555.7	54.3615
10,927.7	87.8132	10,927.7	86.3675	10,927.7	86.8762	10,927.7	83.019	10,927.7	83.8974	10,927.7	78.7716	10,927.7	80.0473	10,927.7	74.3811	10,927.7	76.2876	10,927.7	70.7371	10,927.7	73.7284	10,927.7	67.3138	10,927.7	70.2124	10,927.7	61.6508	10,927.7	66.2678	10,927.7	59.3746	10,927.7	64.3374	10,927.7	58.701	10,927.7	55.8813	10,927.7	57.5097	10,927.7	53.5739	10,927.7	55.8543	10,927.7	52.8773	10,927.7	57.0099	10,927.7	49.1936	10,927.7	54.862	10,927.7	55.1783	10,927.7	52.9458	10,927.7	51.6898	10,927.7	50.5061	10,927.7	50.5046	10,927.7	54.7881	10,927.7	52.4919	10,927.7	49.3019	10,927.7	42.555	10,927.7	51.2282
11,313	86.3801	11,313	84.921	11,313	85.5365	11,313	81.5445	11,313	82.8254	11,313	77.1054	11,313	78.2062	11,313	72.2183	11,313	73.9569	11,313	67.4038	11,313	70.4399	11,313	63.7013	11,313	65.5207	11,313	59.2673	11,313	60.2934	11,313	57.7381	11,313	55.006	11,313	55.4965	11,313	51.2759	11,313	54.3021	11,313	49.3608	11,313	53.4133	11,313	45.769	11,313	53.4513	11,313	47.2677	11,313	51.7202	11,313	48.3569	11,313	51.7565	11,313	43.0542	11,313	49.1859	11,313	41.8384	11,313	51.6654	11,313	45.4603	11,313	48.5361	11,313	46.6616	11,313	43.9082
11,712.9	84.5328	11,712.9	83.0383	11,712.9	84.0099	11,712.9	79.6132	11,712.9	80.8273	11,712.9	74.9201	11,712.9	76.0258	11,712.9	68.5359	11,712.9	72.5183	11,712.9	63.0068	11,712.9	68.2346	11,712.9	58.9841	11,712.9	63.3291	11,712.9	59.5462	11,712.9	57.5393	11,712.9	59.6833	11,712.9	50.8044	11,712.9	57.9158	11,712.9	44.5178	11,712.9	55.663	11,712.9	42.2538	11,712.9	54.1382	11,712.9	32.9553	11,712.9	50.531	11,712.9	45.9914	11,712.9	52.385	11,712.9	46.5203	11,712.9	51.4713	11,712.9	35.614	11,712.9	47.763	11,712.9	37.2947	11,712.9	50.0494	11,712.9	41.1862	11,712.9	47.4047	11,712.9	45.6649	11,712.9	48.2684
12,126	83.2791	12,126	81.7584	12,126	82.6303	12,126	78.2488	12,126	79.7306	12,126	72.0903	12,126	75.5128	12,126	63.485	12,126	70.5594	12,126	59.8835	12,126	65.0969	12,126	59.8678	12,126	58.8122	12,126	58.3023	12,126	53.4403	12,126	57.345	12,126	51.4547	12,126	55.2829	12,126	51.1701	12,126	53.3297	12,126	46.4213	12,126	50.592	12,126	44.2345	12,126	49.9008	12,126	50.2628	12,126	49.3269	12,126	43.0667	12,126	49.9861	12,126	29.9428	12,126	47.2766	12,126	35.8041	12,126	51.4251	12,126	38.7467	12,126	45.5543	12,126	35.525	12,126	45.5572
12,553.7	84.7591	12,553.7	83.4536	12,553.7	83.6929	12,553.7	79.0536	12,553.7	80.3587	12,553.7	71.0932	12,553.7	75.8268	12,553.7	67.6462	12,553.7	70.4712	12,553.7	67.3864	12,553.7	63.4942	12,553.7	64.7629	12,553.7	60.8806	12,553.7	63.9698	12,553.7	60.3741	12,553.7	62.0197	12,553.7	59.5589	12,553.7	60.6985	12,553.7	58.561	12,553.7	58.1381	12,553.7	54.9968	12,553.7	57.2856	12,553.7	50.6527	12,553.7	55.7421	12,553.7	51.7742	12,553.7	52.4175	12,553.7	50.5581	12,553.7	53.9431	12,553.7	46.3556	12,553.7	50.0388	12,553.7	50.23	12,553.7	52.5025	12,553.7	48.3358	12,553.7	48.1903	12,553.7	44.0317	12,553.7	51.0193
12,996.1	87.1338	12,996.1	85.8218	12,996.1	85.3281	12,996.1	80.7128	12,996.1	81.5324	12,996.1	74.3844	12,996.1	76.7362	12,996.1	70.296	12,996.1	69.2379	12,996.1	66.2377	12,996.1	58.0184	12,996.1	62.2237	12,996.1	65.5169	12,996.1	64.122	12,996.1	65.9179	12,996.1	61.9231	12,996.1	62.9727	12,996.1	60.1343	12,996.1	61.9689	12,996.1	57.9825	12,996.1	60.5544	12,996.1	56.0805	12,996.1	57.9862	12,996.1	55.1524	12,996.1	58.1696	12,996.1	52.8185	12,996.1	52.3658	12,996.1	53.5578	12,996.1	54.8159	12,996.1	48.4779	12,996.1	55.397	12,996.1	53.2266	12,996.1	51.1559	12,996.1	45.5804	12,996.1	46.7387	12,996.1	51.9631
13,454.6	89.2043	13,454.6	87.7184	13,454.6	87.1088	13,454.6	82.3928	13,454.6	83.1259	13,454.6	75.7868	13,454.6	78.6642	13,454.6	71.1511	13,454.6	68.8873	13,454.6	64.4304	13,454.6	63.5997	13,454.6	68.5589	13,454.6	68.8284	13,454.6	66.3136	13,454.6	68.1712	13,454.6	65.1133	13,454.6	65.1983	13,454.6	63.4391	13,454.6	61.9219	13,454.6	58.5569	13,454.6	60.2208	13,454.6	58.0901	13,454.6	57.7394	13,454.6	57.8164	13,454.6	57.3329	13,454.6	51.7535	13,454.6	53.5017	13,454.6	56.6732	13,454.6	55.1097	13,454.6	54.2609	13,454.6	52.1379	13,454.6	55.6945	13,454.6	56.3497	13,454.6	53.6357	13,454.6	38.4888	13,454.6	54.2621
13,929.2	88.0132	13,929.2	86.3499	13,929.2	85.722	13,929.2	80.2882	13,929.2	81.6748	13,929.2	74.3602	13,929.2	76.2799	13,929.2	65.891	13,929.2	61.2871	13,929.2	65.1091	13,929.2	68.0198	13,929.2	67.2107	13,929.2	69.6049	13,929.2	66.967	13,929.2	66.4909	13,929.2	63.9163	13,929.2	64.5686	13,929.2	61.4782	13,929.2	60.9051	13,929.2	59.0435	13,929.2	59.1663	13,929.2	56.5218	13,929.2	58.5462	13,929.2	56.5985	13,929.2	56.4719	13,929.2	51.0116	13,929.2	55.2617	13,929.2	50.0065	13,929.2	53.8624	13,929.2	51.7615	13,929.2	52.9639	13,929.2	48.6641	13,929.2	52.9096	13,929.2	43.6032	13,929.2	32.8858	13,929.2	50.9295
14,419.9	84.9462	14,419.9	82.9155	14,419.9	82.7365	14,419.9	77.0757	14,419.9	78.2356	14,419.9	70.5399	14,419.9	71.5492	14,419.9	59.9465	14,419.9	61.7225	14,419.9	69.7397	14,419.9	69.8784	14,419.9	70.0161	14,419.9	67.8978	14,419.9	66.1035	14,419.9	65.1362	14,419.9	60.5119	14,419.9	60.2803	14,419.9	58.1662	14,419.9	59.1298	14,419.9	54.5566	14,419.9	56.2993	14,419.9	51.9603	14,419.9	53.8787	14,419.9	55.1497	14,419.9	54.5172	14,419.9	50.5973	14,419.9	44.3874	14,419.9	50.6461	14,419.9	47.2655	14,419.9	45.9968	14,419.9	51.1512	14,419.9	51.7724	14,419.9	46.3808	14,419.9	43.9969	14,419.9	36.9892	14,419.9	52.6795
14,928.2	81.7701	14,928.2	80.0143	14,928.2	79.7685	14,928.2	73.7459	14,928.2	76.0253	14,928.2	63.1833	14,928.2	65.1442	14,928.2	65.427	14,928.2	67.8398	14,928.2	70.7482	14,928.2	70.3222	14,928.2	67.5672	14,928.2	67.7017	14,928.2	61.7504	14,928.2	60.6082	14,928.2	57.4449	14,928.2	56.4806	14,928.2	53.6795	14,928.2	56.0585	14,928.2	55.2404	14,928.2	54.614	14,928.2	55.9126	14,928.2	52.3136	14,928.2	50.6577	14,928.2	49.0149	14,928.2	50.9221	14,928.2	52.3223	14,928.2	49.6321	14,928.2	45.4198	14,928.2	49.8434	14,928.2	50.3991	14,928.2	46.895	14,928.2	47.8656	14,928.2	41.7189	14,928.2	39.8037	14,928.2	47.2577
15,455.6	79.8129	15,455.6	77.7079	15,455.6	78.7442	15,455.6	71.5796	15,455.6	75.4348	15,455.6	64.9216	15,455.6	60.9927	15,455.6	71.5005	15,455.6	70.5875	15,455.6	71.7803	15,455.6	70.9579	15,455.6	66.7173	15,455.6	64.0411	15,455.6	60.7842	15,455.6	54.4867	15,455.6	58.7879	15,455.6	55.0113	15,455.6	58.2776	15,455.6	54.9761	15,455.6	57.178	15,455.6	54.6409	15,455.6	54.6403	15,455.6	50.9954	15,455.6	48.8051	15,455.6	50.6743	15,455.6	51.8442	15,455.6	50.5039	15,455.6	52.8485	15,455.6	48.9873	15,455.6	50.121	15,455.6	49.9467	15,455.6	51.4095	15,455.6	47.0251	15,455.6	41.1723	15,455.6	43.2445	15,455.6	46.0755
16,000.5	80.9575	16,000.5	78.2666	16,000.5	79.6217	16,000.5	72.9996	16,000.5	74.9481	16,000.5	69.9803	16,000.5	54.277	16,000.5	73.0136	16,000.5	70.8279	16,000.5	72.5346	16,000.5	68.2878	16,000.5	65.3544	16,000.5	59.3227	16,000.5	59.5886	16,000.5	57.9056	16,000.5	60.7579	16,000.5	59.0867	16,000.5	59.9769	16,000.5	56.2338	16,000.5	58.1868	16,000.5	55.2779	16,000.5	56.7726	16,000.5	53.9874	16,000.5	55.391	16,000.5	49.7163	16,000.5	51.4831	16,000.5	52.4612	16,000.5	51.812	16,000.5	49.1128	16,000.5	51.7278	16,000.5	49.4567	16,000.5	49.51	16,000.5	50.5634	16,000.5	46.4528	16,000.5	46.9076	16,000.5	43.1694
16,564.5	80.1897	16,564.5	77.4315	16,564.5	78.435	16,564.5	73.3209	16,564.5	71.7546	16,564.5	67.9761	16,564.5	67.1239	16,564.5	72.1723	16,564.5	72.4515	16,564.5	68.0084	16,564.5	66.294	16,564.5	60.2427	16,564.5	56.766	16,564.5	64.8649	16,564.5	60.5729	16,564.5	63.5972	16,564.5	60.0681	16,564.5	60.325	16,564.5	56.4165	16,564.5	58.9852	16,564.5	57.0826	16,564.5	57.0239	16,564.5	53.1562	16,564.5	53.366	16,564.5	49.2577	16,564.5	55.5854	16,564.5	51.5021	16,564.5	51.4415	16,564.5	49.0589	16,564.5	52.2039	16,564.5	49.7586	16,564.5	49.611	16,564.5	50.0497	16,564.5	48.7831	16,564.5	45.2059	16,564.5	42.6308
17,148.9	80.7026	17,148.9	78.1771	17,148.9	78.4109	17,148.9	73.5712	17,148.9	72.145	17,148.9	68.9009	17,148.9	70.5579	17,148.9	73.1288	17,148.9	71.116	17,148.9	67.3988	17,148.9	60.2081	17,148.9	65.1585	17,148.9	60.1997	17,148.9	65.8269	17,148.9	60.719	17,148.9	61.7993	17,148.9	59.6383	17,148.9	58.2747	17,148.9	57.0099	17,148.9	58.3179	17,148.9	58.8744	17,148.9	56.1274	17,148.9	52.9957	17,148.9	50.5687	17,148.9	51.4772	17,148.9	52.164	17,148.9	53.2076	17,148.9	50.381	17,148.9	52.6181	17,148.9	46.1153	17,148.9	52.1003	17,148.9	48.8943	17,148.9	49.5142	17,148.9	49.6672	17,148.9	44.0242	17,148.9	49.7101
17,752.4	78.2661	17,752.4	74.7396	17,752.4	76.5043	17,752.4	69.6955	17,752.4	71.1056	17,752.4	70.2805	17,752.4	66.7859	17,752.4	71.2323	17,752.4	63.6835	17,752.4	60.9775	17,752.4	47.0019	17,752.4	65.6274	17,752.4	58.1184	17,752.4	62.0788	17,752.4	60.3476	17,752.4	58.9218	17,752.4	62.3652	17,752.4	55.5844	17,752.4	58.6652	17,752.4	54.9808	17,752.4	59.0009	17,752.4	50.8306	17,752.4	52.6445	17,752.4	51.0039	17,752.4	48.1195	17,752.4	49.8534	17,752.4	51.7081	17,752.4	50.9677	17,752.4	48.8775	17,752.4	48.4343	17,752.4	52.8635	17,752.4	42.1398	17,752.4	45.3903	17,752.4	43.882	17,752.4	44.1654	17,752.4	51.3263
18,379.4	77.7708	18,379.4	74.1682	18,379.4	75.6831	18,379.4	71.8634	18,379.4	68.1412	18,379.4	70.4881	18,379.4	62.7574	18,379.4	66.6662	18,379.4	54.6768	18,379.4	64.9607	18,379.4	55.7405	18,379.4	64.1185	18,379.4	59.3696	18,379.4	58.6745	18,379.4	62.5287	18,379.4	59.9107	18,379.4	63.6145	18,379.4	58.3644	18,379.4	58.6352	18,379.4	57.7302	18,379.4	58.9412	18,379.4	54.3428	18,379.4	54.317	18,379.4	51.4925	18,379.4	51.6316	18,379.4	52.7013	18,379.4	50.9905	18,379.4	49.5951	18,379.4	51.0882	18,379.4	49.2762	18,379.4	50.0171	18,379.4	44.8566	18,379.4	44.0896	18,379.4	43.9245	18,379.4	46.0769	18,379.4	50.1369
19,026.9	76.4323	19,026.9	73.3787	19,026.9	74.1913	19,026.9	70.1229	19,026.9	70.3007	19,026.9	67.1119	19,026.9	63.7418	19,026.9	63.5509	19,026.9	50.0861	19,026.9	64.5482	19,026.9	53.3654	19,026.9	58.7447	19,026.9	59.1035	19,026.9	59.9109	19,026.9	62.2609	19,026.9	61.4221	19,026.9	61.7078	19,026.9	57.8475	19,026.9	57.05	19,026.9	57.0112	19,026.9	55.5015	19,026.9	53.4173	19,026.9	49.7432	19,026.9	49.4371	19,026.9	47.4026	19,026.9	51.092	19,026.9	48.7524	19,026.9	50.3406	19,026.9	49.438	19,026.9	48.9058	19,026.9	42.7982	19,026.9	42.8738	19,026.9	29.1439	19,026.9	45.0718	19,026.9	42.9961	19,026.9	48.4005
19,697.8	70.883	19,697.8	68.3456	19,697.8	71.5142	19,697.8	68.802	19,697.8	69.2651	19,697.8	66.4784	19,697.8	57.5561	19,697.8	61.5235	19,697.8	52.5736	19,697.8	57.9067	19,697.8	57.9312	19,697.8	58.9276	19,697.8	63.0754	19,697.8	61.7805	19,697.8	62.7986	19,697.8	60.3692	19,697.8	60.3	19,697.8	54.9357	19,697.8	54.4492	19,697.8	52.3995	19,697.8	52.2267	19,697.8	49.2526	19,697.8	47.4687	19,697.8	43.0905	19,697.8	44.2167	19,697.8	48.445	19,697.8	46.3117	19,697.8	45.9863	19,697.8	44.912	19,697.8	41.8824	19,697.8	37.9977	19,697.8	42.6439	19,697.8	29.0701	19,697.8	41.0973	19,697.8	39.9305	19,697.8	45.0296
19,999.5	68.2374	19,999.5	67.7638	19,999.5	70.0868	19,999.5	69.0022	19,999.5	68.1154	19,999.5	64.6754	19,999.5	52.7746	19,999.5	60.4964	19,999.5	56.2986	19,999.5	56.8814	19,999.5	58.8993	19,999.5	61.7713	19,999.5	63.207	19,999.5	62.6545	19,999.5	62.2137	19,999.5	59.7068	19,999.5	59.2884	19,999.5	53.0267	19,999.5	51.5385	19,999.5	51.4011	19,999.5	50.6658	19,999.5	46.0513	19,999.5	44.9671	19,999.5	43.9934	19,999.5	44.3986	19,999.5	46.1257	19,999.5	44.1624	19,999.5	47.1689	19,999.5	42.1502	19,999.5	43.3285	19,999.5	42.4657	19,999.5	40.0731	19,999.5	32.1183	19,999.5	34.2954	19,999.5	41.1977	19,999.5	43.161
