"SPL Vertical"
"On-Axis"		"10°"		"-10°"		"20°"		"-20°"		"30°"		"-30°"		"40°"		"-40°"		"50°"		"-50°"		"60°"		"-60°"		"70°"		"-70°"		"80°"		"-80°"		"90°"		"-90°"		"100°"		"-100°"		"110°"		"-110°"		"120°"		"-120°"		"130°"		"-130°"		"140°"		"-140°"		"150°"		"-150°"		"160°"		"-160°"		"170°"		"-170°"		"180°"
"Frequency / Hz"	"Sound Pressure Level / dB (re 20 µPa/V)  [2.83  V @ 1. m]"	"Frequency / Hz"	"Sound Pressure Level / dB (re 20 µPa/V)  [2.83  V @ 1. m]"	"Frequency / Hz"	"Sound Pressure Level / dB (re 20 µPa/V)  [2.83  V @ 1. m]"	"Frequency / Hz"	"Sound Pressure Level / dB (re 20 µPa/V)  [2.83  V @ 1. m]"	"Frequency / Hz"	"Sound Pressure Level / dB (re 20 µPa/V)  [2.83  V @ 1. m]"	"Frequency / Hz"	"Sound Pressure Level / dB (re 20 µPa/V)  [2.83  V @ 1. m]"	"Frequency / Hz"	"Sound Pressure Level / dB (re 20 µPa/V)  [2.83  V @ 1. m]"	"Frequency / Hz"	"Sound Pressure Level / dB (re 20 µPa/V)  [2.83  V @ 1. m]"	"Frequency / Hz"	"Sound Pressure Level / dB (re 20 µPa/V)  [2.83  V @ 1. m]"	"Frequency / Hz"	"Sound Pressure Level / dB (re 20 µPa/V)  [2.83  V @ 1. m]"	"Frequency / Hz"	"Sound Pressure Level / dB (re 20 µPa/V)  [2.83  V @ 1. m]"	"Frequency / Hz"	"Sound Pressure Level / dB (re 20 µPa/V)  [2.83  V @ 1. m]"	"Frequency / Hz"	"Sound Pressure Level / dB (re 20 µPa/V)  [2.83  V @ 1. m]"	"Frequency / Hz"	"Sound Pressure Level / dB (re 20 µPa/V)  [2.83  V @ 1. m]"	"Frequency / Hz"	"Sound Pressure Level / dB (re 20 µPa/V)  [2.83  V @ 1. m]"	"Frequency / Hz"	"Sound Pressure Level / dB (re 20 µPa/V)  [2.83  V @ 1. m]"	"Frequency / Hz"	"Sound Pressure Level / dB (re 20 µPa/V)  [2.83  V @ 1. m]"	"Frequency / Hz"	"Sound Pressure Level / dB (re 20 µPa/V)  [2.83  V @ 1. m]"	"Frequency / Hz"	"Sound Pressure Level / dB (re 20 µPa/V)  [2.83  V @ 1. m]"	"Frequency / Hz"	"Sound Pressure Level / dB (re 20 µPa/V)  [2.83  V @ 1. m]"	"Frequency / Hz"	"Sound Pressure Level / dB (re 20 µPa/V)  [2.83  V @ 1. m]"	"Frequency / Hz"	"Sound Pressure Level / dB (re 20 µPa/V)  [2.83  V @ 1. m]"	"Frequency / Hz"	"Sound Pressure Level / dB (re 20 µPa/V)  [2.83  V @ 1. m]"	"Frequency / Hz"	"Sound Pressure Level / dB (re 20 µPa/V)  [2.83  V @ 1. m]"	"Frequency / Hz"	"Sound Pressure Level / dB (re 20 µPa/V)  [2.83  V @ 1. m]"	"Frequency / Hz"	"Sound Pressure Level / dB (re 20 µPa/V)  [2.83  V @ 1. m]"	"Frequency / Hz"	"Sound Pressure Level / dB (re 20 µPa/V)  [2.83  V @ 1. m]"	"Frequency / Hz"	"Sound Pressure Level / dB (re 20 µPa/V)  [2.83  V @ 1. m]"	"Frequency / Hz"	"Sound Pressure Level / dB (re 20 µPa/V)  [2.83  V @ 1. m]"	"Frequency / Hz"	"Sound Pressure Level / dB (re 20 µPa/V)  [2.83  V @ 1. m]"	"Frequency / Hz"	"Sound Pressure Level / dB (re 20 µPa/V)  [2.83  V @ 1. m]"	"Frequency / Hz"	"Sound Pressure Level / dB (re 20 µPa/V)  [2.83  V @ 1. m]"	"Frequency / Hz"	"Sound Pressure Level / dB (re 20 µPa/V)  [2.83  V @ 1. m]"	"Frequency / Hz"	"Sound Pressure Level / dB (re 20 µPa/V)  [2.83  V @ 1. m]"	"Frequency / Hz"	"Sound Pressure Level / dB (re 20 µPa/V)  [2.83  V @ 1. m]"	"Frequency / Hz"	"Sound Pressure Level / dB (re 20 µPa/V)  [2.83  V @ 1. m]"
20.5078	48.9107	20.5078	48.8705	20.5078	48.9367	20.5078	48.817	20.5078	48.9485	20.5078	48.7527	20.5078	48.9477	20.5078	48.6812	20.5078	48.9365	20.5078	48.6072	20.5078	48.9173	20.5078	48.5353	20.5078	48.8929	20.5078	48.4701	20.5078	48.8656	20.5078	48.4157	20.5078	48.8371	20.5078	48.3747	20.5078	48.8085	20.5078	48.3489	20.5078	48.7807	20.5078	48.3383	20.5078	48.7536	20.5078	48.3423	20.5078	48.727	20.5078	48.3588	20.5078	48.7003	20.5078	48.3855	20.5078	48.6726	20.5078	48.4195	20.5078	48.6431	20.5078	48.4579	20.5078	48.611	20.5078	48.4981	20.5078	48.5759	20.5078	48.538
21.9727	39.7793	21.9727	39.7762	21.9727	39.7464	21.9727	39.7375	21.9727	39.6765	21.9727	39.663	21.9727	39.5685	21.9727	39.5519	21.9727	39.4214	21.9727	39.4033	21.9727	39.2348	21.9727	39.2166	21.9727	39.0091	21.9727	38.9919	21.9727	38.7465	21.9727	38.7311	21.9727	38.4509	21.9727	38.4381	21.9727	38.1286	21.9727	38.119	21.9727	37.7887	21.9727	37.783	21.9727	37.4431	21.9727	37.4417	21.9727	37.1062	21.9727	37.1089	21.9727	36.7943	21.9727	36.7999	21.9727	36.5232	21.9727	36.5302	21.9727	36.3074	21.9727	36.314	21.9727	36.1581	21.9727	36.1627	21.9727	36.0826	21.9727	36.0842
23.4375	46.1075	23.4375	46.1223	23.4375	46.0655	23.4375	46.1091	23.4375	45.9976	23.4375	46.0682	23.4375	45.9058	23.4375	46.0003	23.4375	45.7927	23.4375	45.9076	23.4375	45.6614	23.4375	45.7926	23.4375	45.5152	23.4375	45.6588	23.4375	45.3582	23.4375	45.5103	23.4375	45.1944	23.4375	45.3516	23.4375	45.0285	23.4375	45.1871	23.4375	44.8651	23.4375	45.0216	23.4375	44.7095	23.4375	44.8599	23.4375	44.5668	23.4375	44.7067	23.4375	44.4419	23.4375	44.5666	23.4375	44.3398	23.4375	44.444	23.4375	44.2642	23.4375	44.3431	23.4375	44.2183	23.4375	44.2675	23.4375	44.2035	23.4375	44.2202
24.9023	45.0823	24.9023	45.0742	24.9023	45.0727	24.9023	45.0483	24.9023	45.0457	24.9023	45.0051	24.9023	45.0019	24.9023	44.945	24.9023	44.9421	24.9023	44.8694	24.9023	44.8675	24.9023	44.7799	24.9023	44.7797	24.9023	44.6788	24.9023	44.6806	24.9023	44.5689	24.9023	44.5728	24.9023	44.4535	24.9023	44.4589	24.9023	44.3361	24.9023	44.3424	24.9023	44.2205	24.9023	44.2269	24.9023	44.1105	24.9023	44.1161	24.9023	44.0097	24.9023	44.014	24.9023	43.9218	24.9023	43.9246	24.9023	43.8497	24.9023	43.8513	24.9023	43.7962	24.9023	43.7969	24.9023	43.7632	24.9023	43.7634	24.9023	43.7521
26.3672	46.2931	26.3672	46.2855	26.3672	46.288	26.3672	46.2657	26.3672	46.2698	26.3672	46.2345	26.3672	46.2384	26.3672	46.1928	26.3672	46.1939	26.3672	46.1415	26.3672	46.1373	26.3672	46.0819	26.3672	46.0696	26.3672	46.0152	26.3672	45.9926	26.3672	45.943	26.3672	45.9084	26.3672	45.8668	26.3672	45.8196	26.3672	45.7883	26.3672	45.7292	26.3672	45.7094	26.3672	45.6405	26.3672	45.6319	26.3672	45.5569	26.3672	45.558	26.3672	45.4818	26.3672	45.49	26.3672	45.4184	26.3672	45.4304	26.3672	45.3696	26.3672	45.3815	26.3672	45.3373	26.3672	45.346	26.3672	45.3227	26.3672	45.3258
27.832	47.5341	27.832	47.5233	27.832	47.5328	27.832	47.5008	27.832	47.5192	27.832	47.4673	27.832	47.4935	27.832	47.4236	27.832	47.4559	27.832	47.3709	27.832	47.4073	27.832	47.3106	27.832	47.349	27.832	47.2443	27.832	47.2824	27.832	47.1738	27.832	47.2095	27.832	47.101	27.832	47.1324	27.832	47.0279	27.832	47.0534	27.832	46.9565	27.832	46.9753	27.832	46.8889	27.832	46.9007	27.832	46.8268	27.832	46.8324	27.832	46.7722	27.832	46.773	27.832	46.7268	27.832	46.7247	27.832	46.6924	27.832	46.6895	27.832	46.6704	27.832	46.6685	27.832	46.6622
29.2969	48.0754	29.2969	48.0753	29.2969	48.0634	29.2969	48.0632	29.2969	48.0396	29.2969	48.0394	29.2969	48.0048	29.2969	48.0044	29.2969	47.9597	29.2969	47.9593	29.2969	47.9056	29.2969	47.9051	29.2969	47.8437	29.2969	47.8435	29.2969	47.7759	29.2969	47.776	29.2969	47.7037	29.2969	47.7045	29.2969	47.6293	29.2969	47.631	29.2969	47.5547	29.2969	47.5575	29.2969	47.4822	29.2969	47.4862	29.2969	47.4142	29.2969	47.4192	29.2969	47.3532	29.2969	47.3587	29.2969	47.3015	29.2969	47.3068	29.2969	47.261	29.2969	47.2654	29.2969	47.2335	29.2969	47.2364	29.2969	47.22	29.2969	47.221
30.7617	48.4438	30.7617	48.4462	30.7617	48.4362	30.7617	48.4432	30.7617	48.4233	30.7617	48.4352	30.7617	48.4056	30.7617	48.4226	30.7617	48.3834	30.7617	48.4059	30.7617	48.3574	30.7617	48.3858	30.7617	48.3285	30.7617	48.3632	30.7617	48.2975	30.7617	48.3388	30.7617	48.2658	30.7617	48.3135	30.7617	48.2343	30.7617	48.288	30.7617	48.2045	30.7617	48.2629	30.7617	48.1775	30.7617	48.2386	30.7617	48.1544	30.7617	48.2155	30.7617	48.1362	30.7617	48.1939	30.7617	48.1235	30.7617	48.1738	30.7617	48.1166	30.7617	48.1558	30.7617	48.1153	30.7617	48.1403	30.7617	48.1193	30.7617	48.1279
32.2266	50.3667	32.2266	50.3606	32.2266	50.3613	32.2266	50.3433	32.2266	50.3449	32.2266	50.315	32.2266	50.318	32.2266	50.2767	32.2266	50.2814	32.2266	50.2296	32.2266	50.2364	32.2266	50.1753	32.2266	50.1841	32.2266	50.1157	32.2266	50.1262	32.2266	50.0529	32.2266	50.0643	32.2266	49.9888	32.2266	50.0002	32.2266	49.9256	32.2266	49.936	32.2266	49.865	32.2266	49.8737	32.2266	49.8089	32.2266	49.8152	32.2266	49.7586	32.2266	49.7625	32.2266	49.7154	32.2266	49.7173	32.2266	49.6805	32.2266	49.6808	32.2266	49.6547	32.2266	49.6543	32.2266	49.6387	32.2266	49.6384	32.2266	49.6332
33.6914	50.5365	33.6914	50.5276	33.6914	50.5353	33.6914	50.5089	33.6914	50.524	33.6914	50.481	33.6914	50.5031	33.6914	50.4448	33.6914	50.4732	33.6914	50.4016	33.6914	50.4352	33.6914	50.3528	33.6914	50.3902	33.6914	50.3001	33.6914	50.3395	33.6914	50.2451	33.6914	50.2848	33.6914	50.1895	33.6914	50.2276	33.6914	50.1351	33.6914	50.1699	33.6914	50.0832	33.6914	50.1134	33.6914	50.0353	33.6914	50.0601	33.6914	49.9925	33.6914	50.0117	33.6914	49.9559	33.6914	49.9699	33.6914	49.9265	33.6914	49.9359	33.6914	49.9051	33.6914	49.9108	33.6914	49.8924	33.6914	49.895	33.6914	49.8889
35.1562	51.3241	35.1562	51.3175	35.1562	51.3199	35.1562	51.3002	35.1562	51.3052	35.1562	51.2727	35.1562	51.2806	35.1562	51.236	35.1562	51.247	35.1562	51.1912	35.1562	51.2055	35.1562	51.1399	35.1562	51.1574	35.1562	51.0839	35.1562	51.1041	35.1562	51.0249	35.1562	51.047	35.1562	50.9648	35.1562	50.9878	35.1562	50.9053	35.1562	50.9281	35.1562	50.8481	35.1562	50.8697	35.1562	50.7949	35.1562	50.8144	35.1562	50.7472	35.1562	50.7638	35.1562	50.7062	35.1562	50.7196	35.1562	50.6732	35.1562	50.6832	35.1562	50.6493	35.1562	50.6559	35.1562	50.6353	35.1562	50.6385	35.1562	50.6316
36.6211	51.844	36.6211	51.8328	36.6211	51.8503	36.6211	51.817	36.6211	51.8512	36.6211	51.7973	36.6211	51.8466	36.6211	51.7742	36.6211	51.8365	36.6211	51.7483	36.6211	51.8211	36.6211	51.7205	36.6211	51.8006	36.6211	51.6914	36.6211	51.7758	36.6211	51.662	36.6211	51.7474	36.6211	51.6329	36.6211	51.7164	36.6211	51.605	36.6211	51.684	36.6211	51.5791	36.6211	51.6513	36.6211	51.5557	36.6211	51.6194	36.6211	51.5357	36.6211	51.5896	36.6211	51.5194	36.6211	51.5628	36.6211	51.5073	36.6211	51.5399	36.6211	51.4999	36.6211	51.5216	36.6211	51.4975	36.6211	51.5083	36.6211	51.5002
38.0859	52.4161	38.0859	52.4057	38.0859	52.4208	38.0859	52.3899	38.0859	52.4193	38.0859	52.3692	38.0859	52.4117	38.0859	52.3442	38.0859	52.3979	38.0859	52.3158	38.0859	52.3784	38.0859	52.2846	38.0859	52.3535	38.0859	52.2517	38.0859	52.3241	38.0859	52.2178	38.0859	52.2909	38.0859	52.1839	38.0859	52.2551	38.0859	52.1509	38.0859	52.218	38.0859	52.1198	38.0859	52.1807	38.0859	52.0913	38.0859	52.1447	38.0859	52.0663	38.0859	52.1112	38.0859	52.0454	38.0859	52.0814	38.0859	52.0294	38.0859	52.0562	38.0859	52.0187	38.0859	52.0365	38.0859	52.0139	38.0859	52.0227	38.0859	52.0151
39.5508	53.096	39.5508	53.083	39.5508	53.1027	39.5508	53.0643	39.5508	53.103	39.5508	53.0405	39.5508	53.0971	39.5508	53.0126	39.5508	53.0855	39.5508	52.982	39.5508	53.0689	39.5508	52.9499	39.5508	53.0482	39.5508	52.9178	39.5508	53.0242	39.5508	52.887	39.5508	52.9981	39.5508	52.8588	39.5508	52.9709	39.5508	52.834	39.5508	52.9435	39.5508	52.8133	39.5508	52.9168	39.5508	52.7972	39.5508	52.8916	39.5508	52.7857	39.5508	52.8683	39.5508	52.7787	39.5508	52.8473	39.5508	52.776	39.5508	52.8288	39.5508	52.7771	39.5508	52.8129	39.5508	52.7816	39.5508	52.7997	39.5508	52.7892
41.0156	53.7363	41.0156	53.7197	41.0156	53.747	41.0156	53.6976	41.0156	53.7515	41.0156	53.6709	41.0156	53.7495	41.0156	53.6404	41.0156	53.7412	41.0156	53.6073	41.0156	53.7268	41.0156	53.5726	41.0156	53.7068	41.0156	53.5375	41.0156	53.6818	41.0156	53.5033	41.0156	53.6528	41.0156	53.4708	41.0156	53.6206	41.0156	53.4412	41.0156	53.5865	41.0156	53.4152	41.0156	53.5514	41.0156	53.3933	41.0156	53.5167	41.0156	53.3761	41.0156	53.4833	41.0156	53.3638	41.0156	53.4523	41.0156	53.3567	41.0156	53.4245	41.0156	53.3549	41.0156	53.4008	41.0156	53.3585	41.0156	53.3816	41.0156	53.3675
42.4805	54.4755	42.4805	54.4621	42.4805	54.4823	42.4805	54.4425	42.4805	54.4821	42.4805	54.4174	42.4805	54.4753	42.4805	54.3878	42.4805	54.4623	42.4805	54.3548	42.4805	54.4435	42.4805	54.3198	42.4805	54.42	42.4805	54.284	42.4805	54.3924	42.4805	54.2487	42.4805	54.3619	42.4805	54.215	42.4805	54.3294	42.4805	54.1838	42.4805	54.2959	42.4805	54.1561	42.4805	54.2623	42.4805	54.1325	42.4805	54.2298	42.4805	54.1135	42.4805	54.199	42.4805	54.0995	42.4805	54.1709	42.4805	54.0907	42.4805	54.146	42.4805	54.0873	42.4805	54.1249	42.4805	54.0891	42.4805	54.1082	42.4805	54.0961
43.9453	55.0775	43.9453	55.0626	43.9453	55.0868	43.9453	55.0426	43.9453	55.0902	43.9453	55.0181	43.9453	55.0878	43.9453	54.99	43.9453	55.0797	43.9453	54.9593	43.9453	55.0662	43.9453	54.927	43.9453	55.048	43.9453	54.8944	43.9453	55.0256	43.9453	54.8624	43.9453	54.9999	43.9453	54.8322	43.9453	54.9717	43.9453	54.8046	43.9453	54.9419	43.9453	54.7805	43.9453	54.9114	43.9453	54.7606	43.9453	54.8811	43.9453	54.7452	43.9453	54.8518	43.9453	54.7349	43.9453	54.8243	43.9453	54.7297	43.9453	54.7992	43.9453	54.7296	43.9453	54.7772	43.9453	54.7346	43.9453	54.7588	43.9453	54.7445
45.4102	55.6467	45.4102	55.6376	45.4102	55.6517	45.4102	55.6247	45.4102	55.6525	45.4102	55.6082	45.4102	55.6493	45.4102	55.5888	45.4102	55.6423	45.4102	55.5671	45.4102	55.6319	45.4102	55.5441	45.4102	55.6184	45.4102	55.5205	45.4102	55.6025	45.4102	55.4973	45.4102	55.5846	45.4102	55.4753	45.4102	55.5654	45.4102	55.4554	45.4102	55.5455	45.4102	55.4382	45.4102	55.5254	45.4102	55.4243	45.4102	55.5057	45.4102	55.414	45.4102	55.4868	45.4102	55.4074	45.4102	55.4691	45.4102	55.4045	45.4102	55.453	45.4102	55.4053	45.4102	55.4386	45.4102	55.4093	45.4102	55.4263	45.4102	55.4165
46.875	56.1276	46.875	56.1185	46.875	56.1315	46.875	56.1047	46.875	56.1302	46.875	56.0866	46.875	56.124	46.875	56.0651	46.875	56.1131	46.875	56.0411	46.875	56.0983	46.875	56.0155	46.875	56.0803	46.875	55.9892	46.875	56.0598	46.875	55.9633	46.875	56.0377	46.875	55.9385	46.875	56.0147	46.875	55.9157	46.875	55.9915	46.875	55.8955	46.875	55.9688	46.875	55.8784	46.875	55.947	46.875	55.8648	46.875	55.9266	46.875	55.8552	46.875	55.9079	46.875	55.8495	46.875	55.8912	46.875	55.8479	46.875	55.8767	46.875	55.85	46.875	55.8648	46.875	55.8558
48.3398	56.5157	48.3398	56.5125	48.3398	56.5137	48.3398	56.5042	48.3398	56.5067	48.3398	56.4912	48.3398	56.4948	48.3398	56.474	48.3398	56.4787	48.3398	56.4532	48.3398	56.4587	48.3398	56.4298	48.3398	56.4357	48.3398	56.4047	48.3398	56.4105	48.3398	56.3786	48.3398	56.3839	48.3398	56.3525	48.3398	56.3568	48.3398	56.3272	48.3398	56.3302	48.3398	56.3033	48.3398	56.3049	48.3398	56.2814	48.3398	56.2817	48.3398	56.2621	48.3398	56.2613	48.3398	56.2457	48.3398	56.2443	48.3398	56.2325	48.3398	56.2309	48.3398	56.2227	48.3398	56.2214	48.3398	56.2166	48.3398	56.2159	48.3398	56.2143
51.2695	57.5578	51.2695	57.5455	51.2695	57.5642	51.2695	57.5276	51.2695	57.5644	51.2695	57.5046	51.2695	57.5587	51.2695	57.4775	51.2695	57.5474	51.2695	57.4473	51.2695	57.5309	51.2695	57.415	51.2695	57.5099	51.2695	57.3816	51.2695	57.4851	51.2695	57.3485	51.2695	57.4574	51.2695	57.3164	51.2695	57.4276	51.2695	57.2864	51.2695	57.3964	51.2695	57.2593	51.2695	57.3648	51.2695	57.2358	51.2695	57.3337	51.2695	57.2166	51.2695	57.3037	51.2695	57.2023	51.2695	57.2758	51.2695	57.1931	51.2695	57.2506	51.2695	57.1894	51.2695	57.229	51.2695	57.1914	51.2695	57.2115	51.2695	57.1988
52.7344	57.8017	52.7344	57.7907	52.7344	57.8071	52.7344	57.7744	52.7344	57.8067	52.7344	57.7537	52.7344	57.8006	52.7344	57.7297	52.7344	57.7894	52.7344	57.7034	52.7344	57.7738	52.7344	57.6762	52.7344	57.7545	52.7344	57.649	52.7344	57.7327	52.7344	57.6229	52.7344	57.7092	52.7344	57.5988	52.7344	57.6849	52.7344	57.5773	52.7344	57.6608	52.7344	57.5589	52.7344	57.6374	52.7344	57.5438	52.7344	57.6154	52.7344	57.5322	52.7344	57.595	52.7344	57.5243	52.7344	57.5767	52.7344	57.5199	52.7344	57.5606	52.7344	57.519	52.7344	57.5468	52.7344	57.5215	52.7344	57.5356	52.7344	57.5271
54.1992	58.3686	54.1992	58.3604	54.1992	58.3719	54.1992	58.3475	54.1992	58.3703	54.1992	58.3307	54.1992	58.3641	54.1992	58.3106	54.1992	58.3537	54.1992	58.2883	54.1992	58.34	54.1992	58.2648	54.1992	58.3236	54.1992	58.2412	54.1992	58.3054	54.1992	58.2183	54.1992	58.2863	54.1992	58.1972	54.1992	58.267	54.1992	58.1783	54.1992	58.2481	54.1992	58.1624	54.1992	58.23	54.1992	58.1498	54.1992	58.2131	54.1992	58.1405	54.1992	58.1976	54.1992	58.1347	54.1992	58.1835	54.1992	58.1323	54.1992	58.1708	54.1992	58.1329	54.1992	58.1595	54.1992	58.1363	54.1992	58.1499	54.1992	58.1421
55.6641	58.8641	55.6641	58.8564	55.6641	58.8675	55.6641	58.8446	55.6641	58.8664	55.6641	58.8292	55.6641	58.8609	55.6641	58.8108	55.6641	58.8513	55.6641	58.7901	55.6641	58.838	55.6641	58.768	55.6641	58.8216	55.6641	58.7451	55.6641	58.8026	55.6641	58.7224	55.6641	58.7818	55.6641	58.7005	55.6641	58.7599	55.6641	58.6801	55.6641	58.7376	55.6641	58.6616	55.6641	58.7156	55.6641	58.6456	55.6641	58.6947	55.6641	58.6324	55.6641	58.6752	55.6641	58.6222	55.6641	58.6578	55.6641	58.6153	55.6641	58.6427	55.6641	58.6117	55.6641	58.6303	55.6641	58.6114	55.6641	58.6208	55.6641	58.6145
58.5938	59.7542	58.5938	59.7466	58.5938	59.758	58.5938	59.7353	58.5938	59.758	58.5938	59.7208	58.5938	59.7543	58.5938	59.7035	58.5938	59.7472	58.5938	59.6842	58.5938	59.7372	58.5938	59.6637	58.5938	59.7248	58.5938	59.643	58.5938	59.7106	58.5938	59.6228	58.5938	59.6951	58.5938	59.6042	58.5938	59.6791	58.5938	59.5877	58.5938	59.6631	58.5938	59.5741	58.5938	59.6474	58.5938	59.5637	58.5938	59.6325	58.5938	59.5566	58.5938	59.6186	58.5938	59.5529	58.5938	59.6057	58.5938	59.5523	58.5938	59.5939	58.5938	59.5545	58.5938	59.5832	58.5938	59.559	58.5938	59.5737	58.5938	59.5655
60.0586	60.1485	60.0586	60.1378	60.0586	60.1534	60.0586	60.1217	60.0586	60.1525	60.0586	60.1008	60.0586	60.1461	60.0586	60.0758	60.0586	60.1344	60.0586	60.0476	60.0586	60.1182	60.0586	60.0174	60.0586	60.0981	60.0586	59.9864	60.0586	60.075	60.0586	59.9558	60.0586	60.0498	60.0586	59.9266	60.0586	60.0235	60.0586	59.9	60.0586	59.997	60.0586	59.8768	60.0586	59.9708	60.0586	59.8577	60.0586	59.9458	60.0586	59.843	60.0586	59.9222	60.0586	59.8331	60.0586	59.9006	60.0586	59.8279	60.0586	59.8811	60.0586	59.8273	60.0586	59.8641	60.0586	59.8311	60.0586	59.8498	60.0586	59.8387
62.9883	60.9578	62.9883	60.9473	62.9883	60.9617	62.9883	60.9306	62.9883	60.9589	62.9883	60.9084	62.9883	60.9496	62.9883	60.8817	62.9883	60.9344	62.9883	60.8514	62.9883	60.9139	62.9883	60.8188	62.9883	60.8891	62.9883	60.7851	62.9883	60.8611	62.9883	60.7516	62.9883	60.831	62.9883	60.7193	62.9883	60.7999	62.9883	60.6893	62.9883	60.7689	62.9883	60.6625	62.9883	60.7389	62.9883	60.6396	62.9883	60.7106	62.9883	60.6211	62.9883	60.6846	62.9883	60.6075	62.9883	60.6613	62.9883	60.5988	62.9883	60.6411	62.9883	60.5949	62.9883	60.6241	62.9883	60.5959	62.9883	60.6108	62.9883	60.6012
64.4531	61.3969	64.4531	61.3859	64.4531	61.4017	64.4531	61.3691	64.4531	61.4001	64.4531	61.3472	64.4531	61.3922	64.4531	61.3211	64.4531	61.3784	64.4531	61.2919	64.4531	61.3595	64.4531	61.2606	64.4531	61.3362	64.4531	61.2285	64.4531	61.3097	64.4531	61.1965	64.4531	61.2809	64.4531	61.1657	64.4531	61.251	64.4531	61.1372	64.4531	61.2209	64.4531	61.1117	64.4531	61.1916	64.4531	61.09	64.4531	61.1639	64.4531	61.0725	64.4531	61.1383	64.4531	61.0597	64.4531	61.1153	64.4531	61.0517	64.4531	61.0952	64.4531	61.0484	64.4531	61.0783	64.4531	61.0497	64.4531	61.0649	64.4531	61.0553
67.3828	62.1684	67.3828	62.16	67.3828	62.1716	67.3828	62.1468	67.3828	62.1697	67.3828	62.1292	67.3828	62.1629	67.3828	62.1079	67.3828	62.1515	67.3828	62.0836	67.3828	62.1362	67.3828	62.0572	67.3828	62.1176	67.3828	62.0298	67.3828	62.0964	67.3828	62.0023	67.3828	62.0737	67.3828	61.9758	67.3828	62.05	67.3828	61.9512	67.3828	62.0263	67.3828	61.9293	67.3828	62.0031	67.3828	61.911	67.3828	61.981	67.3828	61.8966	67.3828	61.9604	67.3828	61.8865	67.3828	61.9415	67.3828	61.8808	67.3828	61.9246	67.3828	61.8794	67.3828	61.9099	67.3828	61.882	67.3828	61.8976	67.3828	61.8882
68.8477	62.5843	68.8477	62.5733	68.8477	62.5891	68.8477	62.5567	68.8477	62.5877	68.8477	62.5349	68.8477	62.5801	68.8477	62.5088	68.8477	62.567	68.8477	62.4794	68.8477	62.5487	68.8477	62.4478	68.8477	62.5263	68.8477	62.415	68.8477	62.5006	68.8477	62.3822	68.8477	62.4727	68.8477	62.3507	68.8477	62.4435	68.8477	62.3214	68.8477	62.4141	68.8477	62.2954	68.8477	62.3854	68.8477	62.2734	68.8477	62.3579	68.8477	62.2561	68.8477	62.3323	68.8477	62.2438	68.8477	62.309	68.8477	62.2367	68.8477	62.2882	68.8477	62.2346	68.8477	62.2703	68.8477	62.2374	68.8477	62.2556	68.8477	62.2445
71.7773	63.3849	71.7773	63.3749	71.7773	63.389	71.7773	63.3592	71.7773	63.387	71.7773	63.3386	71.7773	63.3792	71.7773	63.3136	71.7773	63.3658	71.7773	63.2854	71.7773	63.3476	71.7773	63.2549	71.7773	63.3253	71.7773	63.2233	71.7773	63.3	71.7773	63.1915	71.7773	63.2725	71.7773	63.1609	71.7773	63.244	71.7773	63.1323	71.7773	63.2154	71.7773	63.1067	71.7773	63.1874	71.7773	63.0848	71.7773	63.1607	71.7773	63.0674	71.7773	63.1359	71.7773	63.0547	71.7773	63.1133	71.7773	63.047	71.7773	63.0934	71.7773	63.0442	71.7773	63.0763	71.7773	63.046	71.7773	63.0625	71.7773	63.0523
74.707	64.1374	74.707	64.1279	74.707	64.1406	74.707	64.1124	74.707	64.1373	74.707	64.0915	74.707	64.1278	74.707	64.0659	74.707	64.1126	74.707	64.0368	74.707	64.0924	74.707	64.0053	74.707	64.0682	74.707	63.9724	74.707	64.0411	74.707	63.9395	74.707	64.012	74.707	63.9077	74.707	63.9822	74.707	63.878	74.707	63.9526	74.707	63.8515	74.707	63.9241	74.707	63.8289	74.707	63.8973	74.707	63.8108	74.707	63.8727	74.707	63.7976	74.707	63.8506	74.707	63.7893	74.707	63.8314	74.707	63.7859	74.707	63.8151	74.707	63.7871	74.707	63.8021	74.707	63.7926
77.6367	64.897	77.6367	64.8869	77.6367	64.9006	77.6367	64.8709	77.6367	64.8978	77.6367	64.8496	77.6367	64.8888	77.6367	64.8238	77.6367	64.8741	77.6367	64.7945	77.6367	64.8546	77.6367	64.7631	77.6367	64.8312	77.6367	64.7307	77.6367	64.8049	77.6367	64.6984	77.6367	64.7768	77.6367	64.6674	77.6367	64.748	77.6367	64.6387	77.6367	64.7194	77.6367	64.6133	77.6367	64.6918	77.6367	64.5918	77.6367	64.6657	77.6367	64.5748	77.6367	64.6416	77.6367	64.5625	77.6367	64.6198	77.6367	64.5552	77.6367	64.6005	77.6367	64.5526	77.6367	64.5841	77.6367	64.5546	77.6367	64.5707	77.6367	64.5607
79.1016	65.2395	79.1016	65.2291	79.1016	65.2442	79.1016	65.2134	79.1016	65.2432	79.1016	65.1931	79.1016	65.2366	79.1016	65.169	79.1016	65.2249	79.1016	65.1422	79.1016	65.2087	79.1016	65.1136	79.1016	65.1889	79.1016	65.0844	79.1016	65.1665	79.1016	65.0558	79.1016	65.1424	79.1016	65.0288	79.1016	65.1176	79.1016	65.0043	79.1016	65.0929	79.1016	64.983	79.1016	65.0689	79.1016	64.9655	79.1016	65.0462	79.1016	64.9524	79.1016	65.0251	79.1016	64.9436	79.1016	65.0058	79.1016	64.9393	79.1016	64.9884	79.1016	64.9391	79.1016	64.9732	79.1016	64.9429	79.1016	64.9603	79.1016	64.9501
82.0312	65.992	82.0312	65.9807	82.0312	65.9974	82.0312	65.9641	82.0312	65.9968	82.0312	65.9428	82.0312	65.9903	82.0312	65.9179	82.0312	65.9784	82.0312	65.8903	82.0312	65.9617	82.0312	65.8613	82.0312	65.9413	82.0312	65.832	82.0312	65.9182	82.0312	65.8036	82.0312	65.8936	82.0312	65.7771	82.0312	65.8685	82.0312	65.7534	82.0312	65.8439	82.0312	65.7333	82.0312	65.8204	82.0312	65.7173	82.0312	65.7986	82.0312	65.7057	82.0312	65.7786	82.0312	65.6985	82.0312	65.7606	82.0312	65.6956	82.0312	65.7445	82.0312	65.6966	82.0312	65.7304	82.0312	65.701	82.0312	65.7183	82.0312	65.7084
84.9609	66.7369	84.9609	66.7252	84.9609	66.7422	84.9609	66.7075	84.9609	66.7408	84.9609	66.6845	84.9609	66.7327	84.9609	66.6571	84.9609	66.7183	84.9609	66.6261	84.9609	66.6981	84.9609	66.5926	84.9609	66.6731	84.9609	66.5577	84.9609	66.6443	84.9609	66.5226	84.9609	66.6128	84.9609	66.4884	84.9609	66.58	84.9609	66.4563	84.9609	66.5468	84.9609	66.4273	84.9609	66.5144	84.9609	66.4023	84.9609	66.4836	84.9609	66.382	84.9609	66.455	84.9609	66.367	84.9609	66.4292	84.9609	66.3575	84.9609	66.4066	84.9609	66.3535	84.9609	66.3875	84.9609	66.3548	84.9609	66.3722	84.9609	66.3612
87.8906	67.3332	87.8906	67.3252	87.8906	67.3337	87.8906	67.3102	87.8906	67.3269	87.8906	67.2888	87.8906	67.3133	87.8906	67.2624	87.8906	67.2942	87.8906	67.2325	87.8906	67.271	87.8906	67.2008	87.8906	67.2454	87.8906	67.169	87.8906	67.219	87.8906	67.1388	87.8906	67.1932	87.8906	67.1116	87.8906	67.1695	87.8906	67.0885	87.8906	67.1485	87.8906	67.0702	87.8906	67.1307	87.8906	67.057	87.8906	67.1159	87.8906	67.0489	87.8906	67.1038	87.8906	67.0454	87.8906	67.0937	87.8906	67.0459	87.8906	67.0849	87.8906	67.0493	87.8906	67.0768	87.8906	67.0549	87.8906	67.0691	87.8906	67.0617
90.8203	68.0015	90.8203	67.9925	90.8203	68.0037	90.8203	67.9769	90.8203	67.9992	90.8203	67.9551	90.8203	67.9885	90.8203	67.9279	90.8203	67.9722	90.8203	67.8965	90.8203	67.9515	90.8203	67.862	90.8203	67.9272	90.8203	67.826	90.8203	67.9006	90.8203	67.7899	90.8203	67.8728	90.8203	67.7553	90.8203	67.8448	90.8203	67.7236	90.8203	67.8174	90.8203	67.6961	90.8203	67.7912	90.8203	67.6737	90.8203	67.7667	90.8203	67.6571	90.8203	67.744	90.8203	67.6466	90.8203	67.723	90.8203	67.642	90.8203	67.7038	90.8203	67.6429	90.8203	67.6864	90.8203	67.6486	90.8203	67.6711	90.8203	67.6583
95.2148	69.0502	95.2148	69.0381	95.2148	69.0553	95.2148	69.0194	95.2148	69.0531	95.2148	68.9949	95.2148	69.0438	95.2148	68.9654	95.2148	69.0279	95.2148	68.9322	95.2148	69.0061	95.2148	68.8964	95.2148	68.9795	95.2148	68.8595	95.2148	68.9496	95.2148	68.8229	95.2148	68.9176	95.2148	68.7881	95.2148	68.8852	95.2148	68.7566	95.2148	68.8535	95.2148	68.7293	95.2148	68.8237	95.2148	68.7074	95.2148	68.7963	95.2148	68.6912	95.2148	68.7719	95.2148	68.6809	95.2148	68.7504	95.2148	68.6763	95.2148	68.7315	95.2148	68.6768	95.2148	68.7152	95.2148	68.6816	95.2148	68.7013	95.2148	68.69
98.1445	69.7272	98.1445	69.7167	98.1445	69.7307	98.1445	69.6995	98.1445	69.727	98.1445	69.6765	98.1445	69.7164	98.1445	69.6485	98.1445	69.6993	98.1445	69.6167	98.1445	69.6766	98.1445	69.5824	98.1445	69.6493	98.1445	69.547	98.1445	69.6188	98.1445	69.5118	98.1445	69.5862	98.1445	69.4781	98.1445	69.5528	98.1445	69.447	98.1445	69.5199	98.1445	69.4195	98.1445	69.4885	98.1445	69.3962	98.1445	69.4594	98.1445	69.3777	98.1445	69.4331	98.1445	69.3639	98.1445	69.4102	98.1445	69.3549	98.1445	69.3907	98.1445	69.3506	98.1445	69.375	98.1445	69.3506	98.1445	69.363	98.1445	69.3548
101.074	70.1786	101.074	70.1708	101.074	70.1795	101.074	70.1563	101.074	70.1739	101.074	70.1357	101.074	70.1624	101.074	70.1102	101.074	70.1461	101.074	70.0812	101.074	70.1265	101.074	70.0501	101.074	70.105	101.074	70.0188	101.074	70.083	101.074	69.9889	101.074	70.0619	101.074	69.9618	101.074	70.0424	101.074	69.939	101.074	70.0252	101.074	69.9212	101.074	70.0103	101.074	69.909	101.074	69.9974	101.074	69.9025	101.074	69.986	101.074	69.9012	101.074	69.9753	101.074	69.9046	101.074	69.9649	101.074	69.9115	101.074	69.9541	101.074	69.9209	101.074	69.943	101.074	69.9317
105.469	71.1395	105.469	71.1286	105.469	71.1416	105.469	71.1093	105.469	71.1351	105.469	71.0825	105.469	71.1207	105.469	71.0495	105.469	71.0995	105.469	71.012	105.469	71.0731	105.469	70.9719	105.469	71.0432	105.469	70.9313	105.469	71.0115	105.469	70.8921	105.469	70.9799	105.469	70.8561	105.469	70.9496	105.469	70.8249	105.469	70.9219	105.469	70.7995	105.469	70.8971	105.469	70.7807	105.469	70.8754	105.469	70.7685	105.469	70.8564	105.469	70.7627	105.469	70.8396	105.469	70.7625	105.469	70.8245	105.469	70.767	105.469	70.8104	105.469	70.7749	105.469	70.7973	105.469	70.7853
108.398	71.7646	108.398	71.7528	108.398	71.7678	108.398	71.733	108.398	71.7627	108.398	71.706	108.398	71.7498	108.398	71.6732	108.398	71.7304	108.398	71.6363	108.398	71.7058	108.398	71.5971	108.398	71.6779	108.398	71.5575	108.398	71.6484	108.398	71.5196	108.398	71.619	108.398	71.4849	108.398	71.5909	108.398	71.455	108.398	71.5651	108.398	71.4308	108.398	71.5421	108.398	71.4132	108.398	71.5216	108.398	71.4022	108.398	71.5033	108.398	71.3977	108.398	71.4866	108.398	71.3989	108.398	71.4708	108.398	71.405	108.398	71.4556	108.398	71.4147	108.398	71.4409	108.398	71.427
112.793	72.7119	112.793	72.6994	112.793	72.7143	112.793	72.6774	112.793	72.707	112.793	72.6469	112.793	72.6907	112.793	72.6095	112.793	72.6666	112.793	72.5672	112.793	72.6366	112.793	72.5221	112.793	72.6026	112.793	72.4768	112.793	72.5669	112.793	72.4334	112.793	72.5314	112.793	72.3941	112.793	72.4978	112.793	72.3605	112.793	72.4674	112.793	72.3338	112.793	72.4408	112.793	72.3146	112.793	72.418	112.793	72.3029	112.793	72.3987	112.793	72.2982	112.793	72.3819	112.793	72.2995	112.793	72.3669	112.793	72.3056	112.793	72.3529	112.793	72.315	112.793	72.3394	112.793	72.3266
117.188	73.513	117.188	73.5014	117.188	73.5147	117.188	73.4802	117.188	73.5065	117.188	73.4505	117.188	73.4895	117.188	73.4141	117.188	73.4651	117.188	73.3729	117.188	73.4352	117.188	73.3295	117.188	73.4019	117.188	73.2863	117.188	73.3674	117.188	73.2455	117.188	73.3339	117.188	73.2094	117.188	73.303	117.188	73.1794	117.188	73.2761	117.188	73.1566	117.188	73.2537	117.188	73.1416	117.188	73.2356	117.188	73.134	117.188	73.2213	117.188	73.1331	117.188	73.2095	117.188	73.1376	117.188	73.1992	117.188	73.1458	117.188	73.1891	117.188	73.1562	117.188	73.1786	117.188	73.1675
120.117	74.1216	120.117	74.1118	120.117	74.1209	120.117	74.0917	120.117	74.11	120.117	74.0623	120.117	74.0896	120.117	74.0248	120.117	74.0611	120.117	73.9812	120.117	74.0262	120.117	73.9336	120.117	73.987	120.117	73.8842	120.117	73.9457	120.117	73.8355	120.117	73.9044	120.117	73.7899	120.117	73.8652	120.117	73.7494	120.117	73.8294	120.117	73.7158	120.117	73.7981	120.117	73.69	120.117	73.7717	120.117	73.6726	120.117	73.7497	120.117	73.663	120.117	73.7316	120.117	73.6604	120.117	73.7162	120.117	73.6633	120.117	73.7028	120.117	73.6701	120.117	73.6906	120.117	73.6796
124.512	74.9263	124.512	74.9155	124.512	74.9279	124.512	74.8957	124.512	74.9204	124.512	74.8678	124.512	74.9044	124.512	74.8329	124.512	74.8811	124.512	74.7927	124.512	74.852	124.512	74.7488	124.512	74.8187	124.512	74.7033	124.512	74.7832	124.512	74.6582	124.512	74.7471	124.512	74.6153	124.512	74.712	124.512	74.5764	124.512	74.6789	124.512	74.5431	124.512	74.6485	124.512	74.5166	124.512	74.621	124.512	74.4975	124.512	74.5961	124.512	74.4859	124.512	74.5736	124.512	74.4815	124.512	74.553	124.512	74.4836	124.512	74.5342	124.512	74.4909	124.512	74.5172	124.512	74.5025
128.906	75.7746	128.906	75.7649	128.906	75.7757	128.906	75.7468	128.906	75.7683	128.906	75.7212	128.906	75.7529	128.906	75.6891	128.906	75.7308	128.906	75.652	128.906	75.7032	128.906	75.6114	128.906	75.6721	128.906	75.5691	128.906	75.6393	128.906	75.5272	128.906	75.6066	128.906	75.4874	128.906	75.5755	128.906	75.4516	128.906	75.5469	128.906	75.4211	128.906	75.5213	128.906	75.3973	128.906	75.4986	128.906	75.3807	128.906	75.4783	128.906	75.3714	128.906	75.4596	128.906	75.3692	128.906	75.442	128.906	75.373	128.906	75.425	128.906	75.3818	128.906	75.4089	128.906	75.3942
133.301	76.5444	133.301	76.5325	133.301	76.545	133.301	76.5099	133.301	76.5348	133.301	76.4779	133.301	76.5146	133.301	76.4381	133.301	76.4862	133.301	76.3929	133.301	76.4519	133.301	76.3448	133.301	76.4143	133.301	76.2966	133.301	76.3758	133.301	76.2506	133.301	76.339	133.301	76.2093	133.301	76.3055	133.301	76.1743	133.301	76.2765	133.301	76.1471	133.301	76.2523	133.301	76.128	133.301	76.2324	133.301	76.1172	133.301	76.216	133.301	76.1139	133.301	76.2018	133.301	76.117	133.301	76.1887	133.301	76.125	133.301	76.1758	133.301	76.1362	133.301	76.1625	133.301	76.1491
139.16	77.4258	139.16	77.4141	139.16	77.4265	139.16	77.3919	139.16	77.4167	139.16	77.3605	139.16	77.3978	139.16	77.3222	139.16	77.3718	139.16	77.2796	139.16	77.3415	139.16	77.2354	139.16	77.3095	139.16	77.1925	139.16	77.2784	139.16	77.1534	139.16	77.2504	139.16	77.1201	139.16	77.227	139.16	77.0942	139.16	77.2088	139.16	77.0765	139.16	77.1955	139.16	77.0674	139.16	77.1862	139.16	77.0663	139.16	77.1794	139.16	77.0723	139.16	77.1734	139.16	77.0837	139.16	77.1665	139.16	77.0987	139.16	77.1575	139.16	77.1152	139.16	77.1457	139.16	77.1314
143.555	78.2398	143.555	78.2256	143.555	78.2437	143.555	78.2018	143.555	78.2376	143.555	78.1694	143.555	78.2223	143.555	78.1301	143.555	78.1991	143.555	78.086	143.555	78.1699	143.555	78.0392	143.555	78.137	143.555	77.9922	143.555	78.1025	143.555	77.9473	143.555	78.0686	143.555	77.9068	143.555	78.037	143.555	77.8725	143.555	78.0088	143.555	77.8457	143.555	77.9845	143.555	77.8275	143.555	77.9637	143.555	77.8179	143.555	77.9457	143.555	77.8165	143.555	77.9293	143.555	77.822	143.555	77.9136	143.555	77.833	143.555	77.8976	143.555	77.8475	143.555	77.881	143.555	77.864
147.949	78.944	147.949	78.9275	147.949	78.9478	147.949	78.8988	147.949	78.9391	147.949	78.8592	147.949	78.919	147.949	78.8106	147.949	78.8893	147.949	78.7554	147.949	78.8521	147.949	78.6964	147.949	78.8104	147.949	78.6367	147.949	78.7668	147.949	78.5795	147.949	78.7242	147.949	78.5277	147.949	78.6844	147.949	78.4837	147.949	78.649	147.949	78.4496	147.949	78.6184	147.949	78.4263	147.949	78.5923	147.949	78.414	147.949	78.5697	147.949	78.4119	147.949	78.5492	147.949	78.4185	147.949	78.5297	147.949	78.4318	147.949	78.51	147.949	78.4494	147.949	78.4898	147.949	78.4692
153.809	79.7371	153.809	79.7197	153.809	79.7404	153.809	79.6888	153.809	79.7303	153.809	79.6459	153.809	79.7083	153.809	79.5933	153.809	79.6769	153.809	79.534	153.809	79.6391	153.809	79.4713	153.809	79.5984	153.809	79.4089	153.809	79.5578	153.809	79.3502	153.809	79.5201	153.809	79.2982	153.809	79.4871	153.809	79.2557	153.809	79.4595	153.809	79.2245	153.809	79.4371	153.809	79.2058	153.809	79.4185	153.809	79.1996	153.809	79.4021	153.809	79.205	153.809	79.3857	153.809	79.22	153.809	79.3677	153.809	79.2422	153.809	79.3468	153.809	79.2685	153.809	79.3228	153.809	79.2961
159.668	80.5465	159.668	80.5297	159.668	80.5507	159.668	80.501	159.668	80.5424	159.668	80.4621	159.668	80.5225	159.668	80.4151	159.668	80.4929	159.668	80.3624	159.668	80.4563	159.668	80.3069	159.668	80.4156	159.668	80.2513	159.668	80.3741	159.668	80.1985	159.668	80.3347	159.668	80.151	159.668	80.2996	159.668	80.1114	159.668	80.2702	159.668	80.0813	159.668	80.2466	159.668	80.0621	159.668	80.228	159.668	80.0541	159.668	80.2128	159.668	80.0564	159.668	80.199	159.668	80.0676	159.668	80.1847	159.668	80.0851	159.668	80.1685	159.668	80.1063	159.668	80.1497	159.668	80.1285
165.527	81.3125	165.527	81.3038	165.527	81.3076	165.527	81.2817	165.527	81.2895	165.527	81.2476	165.527	81.2601	165.527	81.2034	165.527	81.2219	165.527	81.1517	165.527	81.1781	165.527	81.0953	165.527	81.1323	165.527	81.0372	165.527	81.0879	165.527	80.9805	165.527	81.0476	165.527	80.9279	165.527	81.0133	165.527	80.8821	165.527	80.9856	165.527	80.8454	165.527	80.9642	165.527	80.8192	165.527	80.9477	165.527	80.8042	165.527	80.9342	165.527	80.8	165.527	80.9215	165.527	80.8055	165.527	80.9081	165.527	80.8183	165.527	80.8927	165.527	80.8359	165.527	80.875	165.527	80.8555
171.387	81.7797	171.387	81.7687	171.387	81.7769	171.387	81.7446	171.387	81.7609	171.387	81.7089	171.387	81.7335	171.387	81.6638	171.387	81.6972	171.387	81.6123	171.387	81.6557	171.387	81.5576	171.387	81.6127	171.387	81.5027	171.387	81.5718	171.387	81.4509	171.387	81.536	171.387	81.4048	171.387	81.5075	171.387	81.3668	171.387	81.4866	171.387	81.3388	171.387	81.4728	171.387	81.3216	171.387	81.4641	171.387	81.3157	171.387	81.4581	171.387	81.32	171.387	81.4521	171.387	81.3328	171.387	81.4439	171.387	81.3516	171.387	81.4319	171.387	81.3735	171.387	81.4157	171.387	81.3957
177.246	82.2278	177.246	82.2149	177.246	82.2253	177.246	82.1872	177.246	82.2081	177.246	82.1464	177.246	82.1778	177.246	82.0954	177.246	82.1377	177.246	82.0374	177.246	82.0915	177.246	81.9763	177.246	82.0433	177.246	81.9156	177.246	81.9974	177.246	81.8591	177.246	81.957	177.246	81.8099	177.246	81.9246	177.246	81.7703	177.246	81.9009	177.246	81.7422	177.246	81.8852	177.246	81.7263	177.246	81.8758	177.246	81.7223	177.246	81.8698	177.246	81.729	177.246	81.8645	177.246	81.7441	177.246	81.8572	177.246	81.7649	177.246	81.8462	177.246	81.788	177.246	81.8306	177.246	81.8107
183.105	82.5717	183.105	82.5603	183.105	82.5669	183.105	82.5331	183.105	82.5465	183.105	82.4918	183.105	82.5126	183.105	82.4389	183.105	82.4683	183.105	82.3777	183.105	82.4178	183.105	82.312	183.105	82.3656	183.105	82.2457	183.105	82.3163	183.105	82.1828	183.105	82.2736	183.105	82.1271	183.105	82.2401	183.105	82.0818	183.105	82.2165	183.105	82.0494	183.105	82.2023	183.105	82.0314	183.105	82.195	183.105	82.0275	183.105	82.1917	183.105	82.0363	183.105	82.1887	183.105	82.0552	183.105	82.1832	183.105	82.0803	183.105	82.1727	183.105	82.1078	183.105	82.1562	183.105	82.1341
188.965	82.7262	188.965	82.7142	188.965	82.7196	188.965	82.684	188.965	82.6951	188.965	82.6373	188.965	82.6552	188.965	82.5769	188.965	82.6034	188.965	82.5065	188.965	82.5444	188.965	82.43	188.965	82.4836	188.965	82.3521	188.965	82.4259	188.965	82.2772	188.965	82.3758	188.965	82.2099	188.965	82.3363	188.965	82.1544	188.965	82.3083	188.965	82.1137	188.965	82.291	188.965	82.09	188.965	82.2819	188.965	82.0834	188.965	82.2772	188.965	82.0924	188.965	82.2731	188.965	82.1137	188.965	82.266	188.965	82.143	188.965	82.2531	188.965	82.1755	188.965	82.2332	188.965	82.2067
196.289	82.8499	196.289	82.8457	196.289	82.8363	196.289	82.8241	196.289	82.8058	196.289	82.7863	196.289	82.7605	196.289	82.7341	196.289	82.7036	196.289	82.67	196.289	82.6395	196.289	82.5969	196.289	82.5735	196.289	82.5183	196.289	82.5105	196.289	82.438	196.289	82.4551	196.289	82.3606	196.289	82.4102	196.289	82.2905	196.289	82.3771	196.289	82.2325	196.289	82.355	196.289	82.1902	196.289	82.3414	196.289	82.1658	196.289	82.3325	196.289	82.1593	196.289	82.3244	196.289	82.1688	196.289	82.3136	196.289	82.1901	196.289	82.2976	196.289	82.2182	196.289	82.2754	196.289	82.2481
203.613	82.8202	203.613	82.8177	203.613	82.8024	203.613	82.7956	203.613	82.7651	203.613	82.7557	203.613	82.7106	203.613	82.7008	203.613	82.6426	203.613	82.634	203.613	82.5663	203.613	82.559	203.613	82.4874	203.613	82.4797	203.613	82.4118	203.613	82.3998	203.613	82.3447	203.613	82.3232	203.613	82.2897	203.613	82.2539	203.613	82.2487	203.613	82.1953	203.613	82.2211	203.613	82.1503	203.613	82.2046	203.613	82.1207	203.613	82.1959	203.613	82.1064	203.613	82.1907	203.613	82.1058	203.613	82.1855	203.613	82.1156	203.613	82.1774	203.613	82.1314	203.613	82.1652	203.613	82.1491
210.938	82.5846	210.938	82.5785	210.938	82.5715	210.938	82.5538	210.938	82.5403	210.938	82.5121	210.938	82.4934	210.938	82.4559	210.938	82.4351	210.938	82.3885	210.938	82.3706	210.938	82.3136	210.938	82.3059	210.938	82.2353	210.938	82.2472	210.938	82.1577	210.938	82.1992	210.938	82.0855	210.938	82.1647	210.938	82.023	210.938	82.1443	210.938	81.9743	210.938	82.1358	210.938	81.9427	210.938	82.1353	210.938	81.9297	210.938	82.1378	210.938	81.9348	210.938	82.1382	210.938	81.9555	210.938	82.1325	210.938	81.9872	210.938	82.1179	210.938	82.0244	210.938	82.0938	210.938	82.0616
218.262	82.3992	218.262	82.3942	218.262	82.3872	218.262	82.3736	218.262	82.3582	218.262	82.3399	218.262	82.3142	218.262	82.2962	218.262	82.2589	218.262	82.2458	218.262	82.1976	218.262	82.1918	218.262	82.1366	218.262	82.1371	218.262	82.0824	218.262	82.0846	218.262	82.0406	218.262	82.0368	218.262	82.0149	218.262	81.9969	218.262	82.0064	218.262	81.9678	218.262	82.0133	218.262	81.952	218.262	82.0315	218.262	81.9509	218.262	82.0553	218.262	81.9639	218.262	82.0786	218.262	81.9884	218.262	82.0958	218.262	82.0197	218.262	82.1026	218.262	82.0519	218.262	82.097	218.262	82.0792
225.586	82.2854	225.586	82.2726	225.586	82.2768	225.586	82.2402	225.586	82.2468	225.586	82.1914	225.586	82.1976	225.586	82.1304	225.586	82.1335	225.586	82.0617	225.586	82.0605	225.586	81.9898	225.586	81.986	225.586	81.9189	225.586	81.9174	225.586	81.853	225.586	81.8611	225.586	81.7956	225.586	81.8217	225.586	81.7503	225.586	81.8008	225.586	81.7198	225.586	81.7972	225.586	81.706	225.586	81.8071	225.586	81.7092	225.586	81.8252	225.586	81.7273	225.586	81.8454	225.586	81.7563	225.586	81.8618	225.586	81.7906	225.586	81.8697	225.586	81.8238	225.586	81.8662	225.586	81.8503
232.91	82.1237	232.91	82.1125	232.91	82.1113	232.91	82.0796	232.91	82.0755	232.91	82.0288	232.91	82.0188	232.91	81.9647	232.91	81.9463	232.91	81.8924	232.91	81.8649	232.91	81.8168	232.91	81.783	232.91	81.7423	232.91	81.7086	232.91	81.6727	232.91	81.6488	232.91	81.6111	232.91	81.6083	232.91	81.5605	232.91	81.5881	232.91	81.5238	232.91	81.5864	232.91	81.5029	232.91	81.5982	232.91	81.4988	232.91	81.6173	232.91	81.5107	232.91	81.637	232.91	81.5352	232.91	81.6514	232.91	81.5673	232.91	81.656	232.91	81.6007	232.91	81.6486	232.91	81.6294
241.699	81.9149	241.699	81.903	241.699	81.9017	241.699	81.8682	241.699	81.8631	241.699	81.8146	241.699	81.8016	241.699	81.747	241.699	81.7218	241.699	81.6708	241.699	81.631	241.699	81.5913	241.699	81.5377	241.699	81.5134	241.699	81.4513	241.699	81.4415	241.699	81.38	241.699	81.3793	241.699	81.3301	241.699	81.33	241.699	81.3039	241.699	81.2963	241.699	81.3002	241.699	81.2797	241.699	81.3144	241.699	81.28	241.699	81.3395	241.699	81.2952	241.699	81.368	241.699	81.321	241.699	81.3928	241.699	81.3514	241.699	81.4085	241.699	81.3803	241.699	81.4117	241.699	81.4018
250.488	81.719	250.488	81.7039	250.488	81.7057	250.488	81.6626	250.488	81.6638	250.488	81.5989	250.488	81.596	250.488	81.518	250.488	81.5074	250.488	81.4253	250.488	81.4053	250.488	81.3263	250.488	81.2987	250.488	81.2263	250.488	81.197	250.488	81.1305	250.488	81.1091	250.488	81.0438	250.488	81.0418	250.488	80.9716	250.488	80.9991	250.488	80.9187	250.488	80.9811	250.488	80.8887	250.488	80.9842	250.488	80.8828	250.488	81.002	250.488	80.8988	250.488	81.026	250.488	80.9312	250.488	81.0481	250.488	80.9717	250.488	81.0609	250.488	81.0114	250.488	81.0596	250.488	81.0425
259.277	81.6657	259.277	81.6552	259.277	81.6515	259.277	81.622	259.277	81.6125	259.277	81.5698	259.277	81.5514	259.277	81.5028	259.277	81.473	259.277	81.4252	259.277	81.3841	259.277	81.3407	259.277	81.2928	259.277	81.2521	259.277	81.2067	259.277	81.1624	259.277	81.1321	259.277	81.0746	259.277	81.0733	259.277	80.9928	259.277	81.0316	259.277	80.922	259.277	81.0056	259.277	80.8678	259.277	80.992	259.277	80.8343	259.277	80.9862	259.277	80.8232	259.277	80.9832	259.277	80.8326	259.277	80.9782	259.277	80.8568	259.277	80.9673	259.277	80.8888	259.277	80.9483	259.277	80.9211
268.066	81.5213	268.066	81.5144	268.066	81.4982	268.066	81.4796	268.066	81.4451	268.066	81.4207	268.066	81.3648	268.066	81.3423	268.066	81.2629	268.066	81.2493	268.066	81.1475	268.066	81.1464	268.066	81.0285	268.066	81.038	268.066	80.916	268.066	80.9286	268.066	80.8191	268.066	80.8228	268.066	80.7441	268.066	80.7259	268.066	80.6937	268.066	80.6437	268.066	80.6665	268.066	80.5815	268.066	80.6576	268.066	80.5432	268.066	80.6601	268.066	80.5296	268.066	80.6666	268.066	80.5381	268.066	80.6701	268.066	80.5623	268.066	80.6657	268.066	80.5942	268.066	80.6508	268.066	80.6258
276.855	81.2666	276.855	81.2802	276.855	81.2236	276.855	81.2646	276.855	81.1526	276.855	81.2218	276.855	81.0576	276.855	81.1545	276.855	80.9445	276.855	81.0657	276.855	80.8213	276.855	80.9585	276.855	80.6972	276.855	80.8364	276.855	80.5818	276.855	80.7039	276.855	80.4835	276.855	80.5674	276.855	80.4086	276.855	80.4352	276.855	80.3592	276.855	80.3171	276.855	80.3333	276.855	80.223	276.855	80.3253	276.855	80.1601	276.855	80.327	276.855	80.1312	276.855	80.3297	276.855	80.1336	276.855	80.3261	276.855	80.16	276.855	80.3112	276.855	80.2004	276.855	80.2832	276.855	80.2444
287.109	81.1078	287.109	81.1069	287.109	81.0858	287.109	81.0854	287.109	81.0405	287.109	81.0472	287.109	80.9743	287.109	80.9966	287.109	80.892	287.109	80.9373	287.109	80.8006	287.109	80.8718	287.109	80.7085	287.109	80.8009	287.109	80.6235	287.109	80.7241	287.109	80.5521	287.109	80.6413	287.109	80.4982	287.109	80.5541	287.109	80.4631	287.109	80.4678	287.109	80.4452	287.109	80.3906	287.109	80.4409	287.109	80.3323	287.109	80.4453	287.109	80.3004	287.109	80.452	287.109	80.2973	287.109	80.4545	287.109	80.3185	287.109	80.4471	287.109	80.3545	287.109	80.4266	287.109	80.3938
297.363	81.1184	297.363	81.1072	297.363	81.0925	297.363	81.0617	297.363	81.0297	297.363	80.9867	297.363	80.9335	297.363	80.8883	297.363	80.8114	297.363	80.773	297.363	80.6741	297.363	80.6473	297.363	80.5345	297.363	80.5176	297.363	80.4056	297.363	80.39	297.363	80.2987	297.363	80.2705	297.363	80.2208	297.363	80.165	297.363	80.1739	297.363	80.0793	297.363	80.155	297.363	80.0185	297.363	80.1573	297.363	79.9863	297.363	80.1717	297.363	79.9831	297.363	80.1884	297.363	80.0056	297.363	80.1988	297.363	80.0463	297.363	80.196	297.363	80.095	297.363	80.1767	297.363	80.1414
307.617	80.7588	307.617	80.7483	307.617	80.7415	307.617	80.7148	307.617	80.6946	307.617	80.6648	307.617	80.6207	307.617	80.6048	307.617	80.5263	307.617	80.5391	307.617	80.4213	307.617	80.4695	307.617	80.3167	307.617	80.3948	307.617	80.2226	307.617	80.3131	307.617	80.1462	307.617	80.2232	307.617	80.0898	307.617	80.1274	307.617	80.0519	307.617	80.0326	307.617	80.0287	307.617	79.9493	307.617	80.0158	307.617	79.8884	307.617	80.0099	307.617	79.8576	307.617	80.0076	307.617	79.8573	307.617	80.005	307.617	79.8809	307.617	79.9975	307.617	79.9166	307.617	79.9806	307.617	79.9526
319.336	80.5875	319.336	80.5729	319.336	80.5697	319.336	80.5301	319.336	80.5191	319.336	80.4659	319.336	80.4389	319.336	80.3886	319.336	80.3369	319.336	80.3068	319.336	80.2243	319.336	80.2277	319.336	80.1147	319.336	80.156	319.336	80.0217	319.336	80.0939	319.336	79.9562	319.336	80.0407	319.336	79.9233	319.336	79.9952	319.336	79.9211	319.336	79.9564	319.336	79.9412	319.336	79.9257	319.336	79.9722	319.336	79.9061	319.336	80.0033	319.336	79.9006	319.336	80.0265	319.336	79.9102	319.336	80.0374	319.336	79.9326	319.336	80.0347	319.336	79.9626	319.336	80.0191	319.336	79.9935
329.59	80.3663	329.59	80.353	329.59	80.3445	329.59	80.3093	329.59	80.2858	329.59	80.2419	329.59	80.192	329.59	80.1577	329.59	80.0691	329.59	80.0636	329.59	79.9278	329.59	79.965	329.59	79.7829	329.59	79.8658	329.59	79.652	329.59	79.7692	329.59	79.5519	329.59	79.6783	329.59	79.4945	329.59	79.5972	329.59	79.4825	329.59	79.5313	329.59	79.5091	329.59	79.4871	329.59	79.5601	329.59	79.4696	329.59	79.6192	329.59	79.4804	329.59	79.6716	329.59	79.5158	329.59	79.7068	329.59	79.5673	329.59	79.719	329.59	79.6235	329.59	79.707	329.59	79.6731
341.309	80.47	341.309	80.4611	341.309	80.4358	341.309	80.4129	341.309	80.3582	341.309	80.3317	341.309	80.2409	341.309	80.2248	341.309	80.0917	341.309	80.1	341.309	79.922	341.309	79.9634	341.309	79.7461	341.309	79.8197	341.309	79.5793	341.309	79.6721	341.309	79.4356	341.309	79.5237	341.309	79.3259	341.309	79.3797	341.309	79.2558	341.309	79.2484	341.309	79.2247	341.309	79.1409	341.309	79.2261	341.309	79.0689	341.309	79.2486	341.309	79.0398	341.309	79.2779	341.309	79.0532	341.309	79.2992	341.309	79.1	341.309	79.3009	341.309	79.1643	341.309	79.2768	341.309	79.2283
353.027	80.3527	353.027	80.3468	353.027	80.3063	353.027	80.2952	353.027	80.2065	353.027	80.2071	353.027	80.058	353.027	80.0929	353.027	79.8725	353.027	79.962	353.027	79.6673	353.027	79.8214	353.027	79.4631	353.027	79.6755	353.027	79.2808	353.027	79.5271	353.027	79.1363	353.027	79.3789	353.027	79.0371	353.027	79.2355	353.027	78.982	353.027	79.1049	353.027	78.9633	353.027	78.997	353.027	78.9705	353.027	78.9223	353.027	78.9925	353.027	78.8868	353.027	79.0193	353.027	78.8895	353.027	79.0413	353.027	78.921	353.027	79.05	353.027	78.9664	353.027	79.0398	353.027	79.01
366.211	80.3785	366.211	80.3666	366.211	80.3463	366.211	80.3214	366.211	80.2615	366.211	80.2546	366.211	80.1206	366.211	80.1759	366.211	79.9272	366.211	80.0921	366.211	79.694	366.211	80.005	366.211	79.4427	366.211	79.9121	366.211	79.202	366.211	79.8077	366.211	79.0007	366.211	79.6861	366.211	78.8601	366.211	79.5457	366.211	78.7871	366.211	79.3922	366.211	78.7742	366.211	79.2392	366.211	78.8036	366.211	79.1051	366.211	78.8553	366.211	79.0067	366.211	78.9108	366.211	78.952	366.211	78.956	366.211	78.9376	366.211	78.982	366.211	78.9501	366.211	78.9859	366.211	78.9716
379.395	80.2461	379.395	80.1974	379.395	80.2466	379.395	80.11	379.395	80.1941	379.395	79.997	379.395	80.0901	379.395	79.8721	379.395	79.9422	379.395	79.7471	379.395	79.7636	379.395	79.6293	379.395	79.5721	379.395	79.5207	379.395	79.3878	379.395	79.4191	379.395	79.2294	379.395	79.3206	379.395	79.1092	379.395	79.2234	379.395	79.0298	379.395	79.13	379.395	78.9854	379.395	79.0474	379.395	78.9662	379.395	78.9843	379.395	78.9629	379.395	78.9468	379.395	78.9688	379.395	78.9352	379.395	78.9783	379.395	78.9433	379.395	78.986	379.395	78.9609	379.395	78.9867	379.395	78.9777
392.578	80.0834	392.578	80.0065	392.578	80.1116	392.578	79.8914	392.578	80.0844	392.578	79.7522	392.578	79.9995	392.578	79.6044	392.578	79.8589	392.578	79.4631	392.578	79.6711	392.578	79.3394	392.578	79.4528	392.578	79.2376	392.578	79.2289	392.578	79.1542	392.578	79.0291	392.578	79.0809	392.578	78.8787	392.578	79.0097	392.578	78.7906	392.578	78.9384	392.578	78.7611	392.578	78.8739	392.578	78.7754	392.578	78.8283	392.578	78.8158	392.578	78.8126	392.578	78.8661	392.578	78.8288	392.578	78.9138	392.578	78.868	392.578	78.9481	392.578	78.9134	392.578	78.9609	392.578	78.9482
405.762	79.8765	405.762	79.8265	405.762	79.8823	405.762	79.7415	405.762	79.8364	405.762	79.6315	405.762	79.7347	405.762	79.5068	405.762	79.5783	405.762	79.3767	405.762	79.3751	405.762	79.249	405.762	79.1424	405.762	79.1285	405.762	78.9072	405.762	79.0168	405.762	78.7016	405.762	78.9127	405.762	78.5539	405.762	78.8157	405.762	78.4782	405.762	78.7287	405.762	78.4701	405.762	78.6599	405.762	78.5112	405.762	78.6199	405.762	78.5794	405.762	78.616	405.762	78.6553	405.762	78.6459	405.762	78.7241	405.762	78.6971	405.762	78.774	405.762	78.7504	405.762	78.7965	405.762	78.7875
420.41	80.0545	420.41	80.0232	420.41	80.0391	420.41	79.9484	420.41	79.9756	420.41	79.8352	420.41	79.8638	420.41	79.6907	420.41	79.7049	420.41	79.524	420.41	79.5027	420.41	79.345	420.41	79.2669	420.41	79.1632	420.41	79.017	420.41	78.9855	420.41	78.7824	420.41	78.8157	420.41	78.5965	420.41	78.6571	420.41	78.4838	420.41	78.5156	420.41	78.4487	420.41	78.4035	420.41	78.4745	420.41	78.3363	420.41	78.5329	420.41	78.3247	420.41	78.5964	420.41	78.3667	420.41	78.6451	420.41	78.445	420.41	78.6669	420.41	78.5339	420.41	78.6554	420.41	78.6092
435.059	79.8953	435.059	79.8792	435.059	79.8502	435.059	79.8066	435.059	79.7434	435.059	79.6859	435.059	79.5793	435.059	79.5287	435.059	79.3677	435.059	79.3494	435.059	79.1242	435.059	79.1638	435.059	78.8709	435.059	78.987	435.059	78.6356	435.059	78.8297	435.059	78.4473	435.059	78.6953	435.059	78.3307	435.059	78.5813	435.059	78.2981	435.059	78.4842	435.059	78.3443	435.059	78.4064	435.059	78.4476	435.059	78.3581	435.059	78.576	435.059	78.353	435.059	78.6958	435.059	78.3986	435.059	78.78	435.059	78.4883	435.059	78.8114	435.059	78.6013	435.059	78.7854	435.059	78.7092
451.172	80.4243	451.172	80.3954	451.172	80.3524	451.172	80.2754	451.172	80.1717	451.172	80.0745	451.172	79.8796	451.172	79.8048	451.172	79.4857	451.172	79.4827	451.172	79.0181	451.172	79.1298	451.172	78.5282	451.172	78.7721	451.172	78.0848	451.172	78.4338	451.172	77.7536	451.172	78.1316	451.172	77.5686	451.172	77.8709	451.172	77.5177	451.172	77.65	451.172	77.5562	451.172	77.4678	451.172	77.6345	451.172	77.331	451.172	77.715	451.172	77.2538	451.172	77.7735	451.172	77.2489	451.172	77.7941	451.172	77.3154	451.172	77.7663	451.172	77.4331	451.172	77.6877	451.172	77.5686
465.82	80.0259	465.82	79.9123	465.82	80.0883	465.82	79.7633	465.82	80.0821	465.82	79.5921	465.82	79.9906	465.82	79.4085	465.82	79.8	465.82	79.2193	465.82	79.5036	465.82	79.0299	465.82	79.1093	465.82	78.8461	465.82	78.6483	465.82	78.6747	465.82	78.1804	465.82	78.5233	465.82	77.7826	465.82	78.3987	465.82	77.5177	465.82	78.3057	465.82	77.4037	465.82	78.2466	465.82	77.4138	465.82	78.2193	465.82	77.5036	465.82	78.2163	465.82	77.6349	465.82	78.2238	465.82	77.7822	465.82	78.2248	465.82	77.9266	465.82	78.2027	465.82	78.0521	465.82	78.1461
483.398	79.877	483.398	79.7845	483.398	79.9244	483.398	79.6487	483.398	79.9227	483.398	79.4711	483.398	79.8646	483.398	79.2549	483.398	79.7385	483.398	79.0065	483.398	79.5322	483.398	78.7371	483.398	79.2406	483.398	78.4624	483.398	78.8765	483.398	78.1995	483.398	78.4797	483.398	77.9644	483.398	78.1133	483.398	77.7716	483.398	77.8425	483.398	77.6363	483.398	77.7044	483.398	77.5743	483.398	77.6917	483.398	77.595	483.398	77.7651	483.398	77.6906	483.398	77.8789	483.398	77.8328	483.398	77.997	483.398	77.9806	483.398	78.0943	483.398	78.096	483.398	78.152	483.398	78.1551
499.512	79.9573	499.512	79.9458	499.512	79.9076	499.512	79.8776	499.512	79.791	499.512	79.7538	499.512	79.6045	499.512	79.5727	499.512	79.3509	499.512	79.3328	499.512	79.0409	499.512	79.04	499.512	78.6941	499.512	78.7113	499.512	78.3398	499.512	78.3739	499.512	78.0161	499.512	78.0567	499.512	77.7667	499.512	77.7811	499.512	77.6302	499.512	77.5597	499.512	77.6244	499.512	77.4047	499.512	77.7332	499.512	77.3348	499.512	77.9094	499.512	77.3683	499.512	78.0935	499.512	77.5047	499.512	78.2332	499.512	77.7132	499.512	78.2942	499.512	77.9418	499.512	78.2615	499.512	78.1374
517.09	80.219	517.09	80.1691	517.09	80.2014	517.09	80.0622	517.09	80.1048	517.09	79.9061	517.09	79.9181	517.09	79.7042	517.09	79.6341	517.09	79.4551	517.09	79.2549	517.09	79.1539	517.09	78.8011	517.09	78.798	517.09	78.3192	517.09	78.3962	517.09	77.8792	517.09	77.9772	517.09	77.5524	517.09	77.5897	517.09	77.3756	517.09	77.2891	517.09	77.3342	517.09	77.1139	517.09	77.3799	517.09	77.0679	517.09	77.4623	517.09	77.1233	517.09	77.5463	517.09	77.2379	517.09	77.6114	517.09	77.3719	517.09	77.6451	517.09	77.4951	517.09	77.6385	517.09	77.5876
536.133	79.8409	536.133	79.7559	536.133	79.8687	536.133	79.6237	536.133	79.8276	536.133	79.4505	536.133	79.7053	536.133	79.2377	536.133	79.4926	536.133	78.9836	536.133	79.1892	536.133	78.6878	536.133	78.812	536.133	78.3563	536.133	78.4006	536.133	78.0023	536.133	78.0107	536.133	77.6417	536.133	77.6971	536.133	77.2877	536.133	77.4933	536.133	76.9545	536.133	77.4041	536.133	76.6689	536.133	77.4128	536.133	76.4799	536.133	77.4908	536.133	76.4443	536.133	77.6001	536.133	76.5859	536.133	77.6946	536.133	76.8634	536.133	77.7262	536.133	77.1882	536.133	77.6569	536.133	77.4717
555.176	79.7882	555.176	79.6759	555.176	79.8399	555.176	79.5254	555.176	79.8044	555.176	79.3493	555.176	79.655	555.176	79.1465	555.176	79.3716	555.176	78.9043	555.176	78.9507	555.176	78.6097	555.176	78.4183	555.176	78.2674	555.176	77.8406	555.176	77.9105	555.176	77.3199	555.176	77.5948	555.176	76.9616	555.176	77.371	555.176	76.8174	555.176	77.2535	555.176	76.8552	555.176	77.2133	555.176	76.9906	555.176	77.2022	555.176	77.1422	555.176	77.1876	555.176	77.2602	555.176	77.1679	555.176	77.3242	555.176	77.1625	555.176	77.333	555.176	77.1877	555.176	77.2976	555.176	77.24
574.219	79.7157	574.219	79.5582	574.219	79.8243	574.219	79.3716	574.219	79.8598	574.219	79.1679	574.219	79.7961	574.219	78.9478	574.219	79.6077	574.219	78.7025	574.219	79.2758	574.219	78.4211	574.219	78.8013	574.219	78.1023	574.219	78.2231	574.219	77.7636	574.219	77.6263	574.219	77.4392	574.219	77.1232	574.219	77.1682	574.219	76.7996	574.219	76.9816	574.219	76.6716	574.219	76.8976	574.219	76.6986	574.219	76.9188	574.219	76.8284	574.219	77.0294	574.219	77.0172	574.219	77.1937	574.219	77.2239	574.219	77.3639	574.219	77.4048	574.219	77.4946	574.219	77.5219	574.219	77.5527
594.727	79.9285	594.727	79.8118	594.727	79.9694	594.727	79.6313	594.727	79.9217	594.727	79.3961	594.727	79.771	594.727	79.1075	594.727	79.5005	594.727	78.7588	594.727	79.0972	594.727	78.3442	594.727	78.5696	594.727	77.8733	594.727	77.9706	594.727	77.3828	594.727	77.4049	594.727	76.9282	594.727	76.9934	594.727	76.5583	594.727	76.8025	594.727	76.2939	594.727	76.8066	594.727	76.1372	594.727	76.9308	594.727	76.0995	594.727	77.1085	594.727	76.2021	594.727	77.2924	594.727	76.4397	594.727	77.4406	594.727	76.7569	594.727	77.5119	594.727	77.0745	594.727	77.4771	594.727	77.327
615.234	79.966	615.234	79.7648	615.234	80.0967	615.234	79.5218	615.234	80.1248	615.234	79.2587	615.234	80.0198	615.234	78.9887	615.234	79.76	615.234	78.7103	615.234	79.3357	615.234	78.4042	615.234	78.7533	615.234	78.0393	615.234	78.0522	615.234	77.5959	615.234	77.3344	615.234	77.094	615.234	76.759	615.234	76.6145	615.234	76.4509	615.234	76.2695	615.234	76.4056	615.234	76.1119	615.234	76.5231	615.234	76.0997	615.234	76.7117	615.234	76.1768	615.234	76.9199	615.234	76.3341	615.234	77.1064	615.234	76.5717	615.234	77.2203	615.234	76.8468	615.234	77.2174	615.234	77.0837
637.207	80.2357	637.207	80.09	637.207	80.29	637.207	79.8527	637.207	80.2537	637.207	79.5325	637.207	80.1246	637.207	79.1601	637.207	79.8911	637.207	78.7948	637.207	79.5282	637.207	78.4989	637.207	79.0066	637.207	78.2857	637.207	78.3196	637.207	78.0944	637.207	77.5215	637.207	77.8353	637.207	76.7631	637.207	77.4675	637.207	76.2703	637.207	77.038	637.207	76.1907	637.207	76.647	637.207	76.4389	637.207	76.3735	637.207	76.7925	637.207	76.2409	637.207	77.0866	637.207	76.2484	637.207	77.2571	637.207	76.3944	637.207	77.2878	637.207	76.6508	637.207	77.1759	637.207	76.9423
659.18	80.0815	659.18	79.8089	659.18	80.2628	659.18	79.4694	659.18	80.3242	659.18	79.0889	659.18	80.232	659.18	78.6967	659.18	79.9578	659.18	78.3192	659.18	79.4958	659.18	77.9739	659.18	78.8761	659.18	77.6689	659.18	78.1668	659.18	77.4012	659.18	77.4588	659.18	77.1545	659.18	76.8427	659.18	76.908	659.18	76.3965	659.18	76.661	659.18	76.1857	659.18	76.4532	659.18	76.2363	659.18	76.3528	659.18	76.4864	659.18	76.4044	659.18	76.8031	659.18	76.5823	659.18	77.0648	659.18	76.812	659.18	77.2139	659.18	77.0237	659.18	77.2453	659.18	77.1757
682.617	80.1716	682.617	79.9969	682.617	80.2782	682.617	79.7639	682.617	80.2942	682.617	79.4651	682.617	80.1929	682.617	79.0814	682.617	79.9547	682.617	78.5981	682.617	79.576	682.617	78.0323	682.617	79.0711	682.617	77.4536	682.617	78.4677	682.617	76.9709	682.617	77.8011	682.617	76.6686	682.617	77.1178	682.617	76.5361	682.617	76.4985	682.617	76.4699	682.617	76.0732	682.617	76.359	682.617	75.9583	682.617	76.1766	682.617	76.1332	682.617	76.0061	682.617	76.4359	682.617	75.9741	682.617	76.6963	682.617	76.128	682.617	76.825	682.617	76.3919	682.617	76.8032	682.617	76.6453
707.52	79.9067	707.52	79.6039	707.52	80.1413	707.52	79.2546	707.52	80.2745	707.52	78.878	707.52	80.2572	707.52	78.4895	707.52	80.0373	707.52	78.0918	707.52	79.5857	707.52	77.6764	707.52	78.9233	707.52	77.2402	707.52	78.1373	707.52	76.8018	707.52	77.3759	707.52	76.4241	707.52	76.7881	707.52	76.193	707.52	76.4234	707.52	76.0859	707.52	76.2232	707.52	75.9418	707.52	76.1445	707.52	75.6576	707.52	76.2108	707.52	75.3349	707.52	76.41	707.52	75.2072	707.52	76.627	707.52	75.4057	707.52	76.7188	707.52	75.8308	707.52	76.6036	707.52	76.2819
732.422	79.6571	732.422	79.4301	732.422	79.7841	732.422	79.1134	732.422	79.8045	732.422	78.7261	732.422	79.7124	732.422	78.3049	732.422	79.5036	732.422	77.9103	732.422	79.1756	732.422	77.6098	732.422	78.7269	732.422	77.4244	732.422	78.1671	732.422	77.2946	732.422	77.5372	732.422	77.1238	732.422	76.9099	732.422	76.8603	732.422	76.3646	732.422	76.5302	732.422	75.9745	732.422	76.1908	732.422	75.8086	732.422	75.877	732.422	75.8864	732.422	75.6288	732.422	76.1229	732.422	75.5314	732.422	76.372	732.422	75.6536	732.422	76.5119	732.422	75.9478	732.422	76.4787	732.422	76.2685
757.324	80.0841	757.324	79.8339	757.324	80.2468	757.324	79.4932	757.324	80.2912	757.324	79.0322	757.324	80.1753	757.324	78.4402	757.324	79.8715	757.324	77.7818	757.324	79.3768	757.324	77.2026	757.324	78.7048	757.324	76.8344	757.324	77.8876	757.324	76.677	757.324	77.0085	757.324	76.6106	757.324	76.24	757.324	76.5244	757.324	75.7898	757.324	76.388	757.324	75.7338	757.324	76.2087	757.324	75.9454	757.324	75.9861	757.324	76.2276	757.324	75.7332	757.324	76.4397	757.324	75.5201	757.324	76.5148	757.324	75.4601	757.324	76.4359	757.324	75.6129	757.324	76.218	757.324	75.91
785.156	79.0234	785.156	78.567	785.156	79.4035	785.156	78.0678	785.156	79.6828	785.156	77.5862	785.156	79.8362	785.156	77.2248	785.156	79.8294	785.156	77.0947	785.156	79.611	785.156	77.2065	785.156	79.1234	785.156	77.3946	785.156	78.342	785.156	77.4047	785.156	77.3255	785.156	77.0691	785.156	76.2365	785.156	76.4153	785.156	75.2997	785.156	75.6427	785.156	74.7028	785.156	74.9876	785.156	74.5227	785.156	74.5956	785.156	74.7218	785.156	74.5145	785.156	75.1496	785.156	74.7221	785.156	75.5935	785.156	75.1082	785.156	75.8866	785.156	75.5154	785.156	75.9606	785.156	75.8228
811.523	79.4501	811.523	79.2053	811.523	79.6458	811.523	78.9125	811.523	79.7694	811.523	78.5701	811.523	79.772	811.523	78.1928	811.523	79.6004	811.523	77.807	811.523	79.2343	811.523	77.426	811.523	78.7078	811.523	77.0448	811.523	78.0856	811.523	76.6639	811.523	77.4211	811.523	76.2983	811.523	76.7522	811.523	75.9638	811.523	76.1282	811.523	75.6482	811.523	75.6367	811.523	75.2773	811.523	75.3916	811.523	74.7565	811.523	75.4311	811.523	74.1293	811.523	75.6411	811.523	73.7066	811.523	75.8369	811.523	73.8451	811.523	75.8733	811.523	74.4676	811.523	75.6624	811.523	75.1686
840.82	79.037	840.82	78.698	840.82	79.3152	840.82	78.3806	840.82	79.4489	840.82	78.1424	840.82	79.3981	840.82	77.9861	840.82	79.2014	840.82	77.8277	840.82	78.94	840.82	77.542	840.82	78.6368	840.82	77.0801	840.82	78.203	840.82	76.546	840.82	77.5311	840.82	76.1357	840.82	76.6482	840.82	75.9574	840.82	75.7501	840.82	75.9186	840.82	75.0525	840.82	75.8219	840.82	74.6545	840.82	75.5337	840.82	74.5811	840.82	75.0789	840.82	74.7802	840.82	74.645	840.82	75.0542	840.82	74.4582	840.82	75.1857	840.82	74.5737	840.82	75.0969	840.82	74.8475
870.117	78.3618	870.117	78.0288	870.117	78.6149	870.117	77.6685	870.117	78.717	870.117	77.3119	870.117	78.6211	870.117	76.998	870.117	78.3409	870.117	76.7825	870.117	77.9435	870.117	76.6891	870.117	77.5095	870.117	76.652	870.117	77.0852	870.117	76.553	870.117	76.6488	870.117	76.3374	870.117	76.1505	870.117	76.0569	870.117	75.6026	870.117	75.762	870.117	75.0941	870.117	75.3794	870.117	74.7021	870.117	74.7582	870.117	74.4298	870.117	73.8475	870.117	74.2353	870.117	72.8449	870.117	74.043	870.117	72.1787	870.117	73.7423	870.117	72.1617	870.117	73.2574	870.117	72.6463
900.879	79.7768	900.879	79.4791	900.879	80.0616	900.879	79.1658	900.879	80.2909	900.879	78.815	900.879	80.3507	900.879	78.3888	900.879	80.0897	900.879	77.8437	900.879	79.4118	900.879	77.1629	900.879	78.3585	900.879	76.3708	900.879	77.1084	900.879	75.5439	900.879	75.919	900.879	74.9049	900.879	75.0455	900.879	74.8214	900.879	74.5798	900.879	75.3661	900.879	74.4623	900.879	76.1066	900.879	74.6605	900.879	76.5916	900.879	75.0894	900.879	76.6501	900.879	75.5387	900.879	76.3562	900.879	75.8158	900.879	75.9373	900.879	75.8591	900.879	75.6493	900.879	75.7387	900.879	75.6101
933.105	79.6931	933.105	79.5277	933.105	79.8073	933.105	79.322	933.105	79.8601	933.105	79.0958	933.105	79.8342	933.105	78.8637	933.105	79.7014	933.105	78.5925	933.105	79.3992	933.105	78.1891	933.105	78.8131	933.105	77.5679	933.105	77.8468	933.105	76.7434	933.105	76.5576	933.105	75.8787	933.105	75.2288	933.105	75.2311	933.105	74.2623	933.105	74.9894	933.105	73.9033	933.105	75.1601	933.105	74.0853	933.105	75.5648	933.105	74.5849	933.105	75.9402	933.105	75.1807	933.105	76.1178	933.105	75.6775	933.105	76.1054	933.105	75.9536	933.105	76.0294	933.105	76.0214	933.105	76.0048
965.332	80.0247	965.332	79.8083	965.332	80.1457	965.332	79.5737	965.332	80.1793	965.332	79.425	965.332	80.1629	965.332	79.351	965.332	80.0818	965.332	79.2123	965.332	79.8658	965.332	78.9032	965.332	79.4377	965.332	78.4113	965.332	78.7128	965.332	77.747	965.332	77.6589	965.332	76.9091	965.332	76.4023	965.332	75.94	965.332	75.0893	965.332	75.1539	965.332	73.7841	965.332	74.9711	965.332	72.9595	965.332	75.2899	965.332	73.3428	965.332	75.7687	965.332	74.5257	965.332	76.2475	965.332	75.6726	965.332	76.6447	965.332	76.4563	965.332	76.8997	965.332	76.8647	965.332	76.9855
1,000.49	79.9652	1,000.49	79.7348	1,000.49	80.0902	1,000.49	79.4897	1,000.49	80.058	1,000.49	79.2593	1,000.49	79.9232	1,000.49	78.9631	1,000.49	79.8083	1,000.49	78.4874	1,000.49	79.7399	1,000.49	77.8524	1,000.49	79.5264	1,000.49	77.258	1,000.49	78.8915	1,000.49	76.8232	1,000.49	77.7531	1,000.49	76.4382	1,000.49	76.3845	1,000.49	76.0622	1,000.49	75.2825	1,000.49	75.8165	1,000.49	74.7059	1,000.49	75.6343	1,000.49	74.5374	1,000.49	75.1942	1,000.49	74.733	1,000.49	74.4634	1,000.49	75.3016	1,000.49	74.088	1,000.49	76.0053	1,000.49	74.6197	1,000.49	76.5279	1,000.49	75.5891	1,000.49	76.6746	1,000.49	76.3569
1,035.64	79.7438	1,035.64	79.4815	1,035.64	79.861	1,035.64	79.1386	1,035.64	79.8529	1,035.64	78.8141	1,035.64	79.8236	1,035.64	78.544	1,035.64	79.8839	1,035.64	78.189	1,035.64	79.9986	1,035.64	77.4788	1,035.64	79.9162	1,035.64	76.313	1,035.64	79.3534	1,035.64	75.0804	1,035.64	78.2608	1,035.64	74.4212	1,035.64	76.8951	1,035.64	74.4665	1,035.64	75.5884	1,035.64	74.8795	1,035.64	74.4255	1,035.64	75.3297	1,035.64	73.4715	1,035.64	75.5663	1,035.64	73.359	1,035.64	75.4072	1,035.64	74.3934	1,035.64	74.9258	1,035.64	75.6033	1,035.64	74.5691	1,035.64	76.2064	1,035.64	74.7999	1,035.64	76.0904	1,035.64	75.4807
1,072.27	79.9932	1,072.27	79.8641	1,072.27	80.0099	1,072.27	79.6674	1,072.27	79.897	1,072.27	79.4185	1,072.27	79.683	1,072.27	79.0397	1,072.27	79.4386	1,072.27	78.3872	1,072.27	79.2523	1,072.27	77.4176	1,072.27	79.1694	1,072.27	76.405	1,072.27	79.1137	1,072.27	75.826	1,072.27	78.8675	1,072.27	75.554	1,072.27	78.1885	1,072.27	74.8423	1,072.27	76.9995	1,072.27	73.7278	1,072.27	75.5225	1,072.27	73.529	1,072.27	74.3049	1,072.27	74.3249	1,072.27	73.9431	1,072.27	74.9398	1,072.27	74.4627	1,072.27	75.1078	1,072.27	75.313	1,072.27	75.1868	1,072.27	75.9764	1,072.27	75.5072	1,072.27	76.1983	1,072.27	75.9651
1,108.89	80.2213	1,108.89	80.368	1,108.89	79.907	1,108.89	80.2707	1,108.89	79.5471	1,108.89	79.8812	1,108.89	79.2608	1,108.89	79.1734	1,108.89	79.0994	1,108.89	78.2016	1,108.89	79.0073	1,108.89	77.1308	1,108.89	78.8017	1,108.89	76.2149	1,108.89	78.2812	1,108.89	75.649	1,108.89	77.4188	1,108.89	75.2416	1,108.89	76.4588	1,108.89	74.7182	1,108.89	75.7343	1,108.89	74.1043	1,108.89	75.2551	1,108.89	73.5774	1,108.89	74.6856	1,108.89	73.4066	1,108.89	73.9086	1,108.89	73.7587	1,108.89	73.5026	1,108.89	74.3585	1,108.89	74.0132	1,108.89	74.8279	1,108.89	74.828	1,108.89	75.0993	1,108.89	75.2576	1,108.89	75.2692
1,148.44	79.8168	1,148.44	79.7047	1,148.44	79.765	1,148.44	79.5505	1,148.44	79.5278	1,148.44	79.3916	1,148.44	79.2299	1,148.44	79.0427	1,148.44	79.0341	1,148.44	78.2667	1,148.44	78.9328	1,148.44	77.1381	1,148.44	78.6751	1,148.44	76.2489	1,148.44	77.9755	1,148.44	76.2374	1,148.44	76.8524	1,148.44	76.6666	1,148.44	75.7141	1,148.44	76.572	1,148.44	74.8708	1,148.44	75.5949	1,148.44	74.1684	1,148.44	74.0284	1,148.44	73.5149	1,148.44	72.7309	1,148.44	73.2587	1,148.44	72.665	1,148.44	73.553	1,148.44	73.5587	1,148.44	74.1016	1,148.44	74.4722	1,148.44	74.6309	1,148.44	75.0069	1,148.44	75.0079	1,148.44	75.1578
1,189.45	80.6259	1,189.45	80.3465	1,189.45	80.5111	1,189.45	79.8086	1,189.45	79.9975	1,189.45	79.1657	1,189.45	79.233	1,189.45	78.3847	1,189.45	78.5513	1,189.45	77.2961	1,189.45	78.2721	1,189.45	76.0358	1,189.45	78.179	1,189.45	75.2211	1,189.45	77.6415	1,189.45	75.1237	1,189.45	76.4024	1,189.45	75.2528	1,189.45	75.0214	1,189.45	75.2937	1,189.45	74.2619	1,189.45	75.322	1,189.45	73.8321	1,189.45	75.0948	1,189.45	73.2888	1,189.45	73.9415	1,189.45	73.141	1,189.45	71.8059	1,189.45	73.7466	1,189.45	71.0366	1,189.45	74.6118	1,189.45	72.6922	1,189.45	75.2658	1,189.45	74.301	1,189.45	75.4939	1,189.45	75.1992
1,230.47	80.4602	1,230.47	79.9768	1,230.47	80.4958	1,230.47	79.1781	1,230.47	80.0179	1,230.47	78.2686	1,230.47	79.146	1,230.47	77.5266	1,230.47	78.3342	1,230.47	77.0531	1,230.47	78.081	1,230.47	76.6043	1,230.47	78.1549	1,230.47	75.8094	1,230.47	77.7785	1,230.47	74.724	1,230.47	76.7191	1,230.47	74.35	1,230.47	75.4008	1,230.47	74.7282	1,230.47	74.2515	1,230.47	74.9567	1,230.47	73.3407	1,230.47	74.8072	1,230.47	72.4473	1,230.47	74.166	1,230.47	72.2274	1,230.47	72.9613	1,230.47	73.3078	1,230.47	71.9415	1,230.47	74.7647	1,230.47	72.5438	1,230.47	75.7288	1,230.47	74.2137	1,230.47	76.0028	1,230.47	75.5114
1,274.41	79.8374	1,274.41	79.4352	1,274.41	79.8327	1,274.41	78.711	1,274.41	79.4496	1,274.41	77.8386	1,274.41	78.8757	1,274.41	77.0424	1,274.41	78.3719	1,274.41	76.4855	1,274.41	77.9883	1,274.41	76.0984	1,274.41	77.5038	1,274.41	75.5366	1,274.41	76.7738	1,274.41	74.4141	1,274.41	75.9687	1,274.41	72.8665	1,274.41	75.3941	1,274.41	72.3603	1,274.41	75.0617	1,274.41	73.6963	1,274.41	74.5997	1,274.41	75.0729	1,274.41	73.7926	1,274.41	75.1675	1,274.41	73.0747	1,274.41	73.723	1,274.41	73.0873	1,274.41	71.4804	1,274.41	73.6675	1,274.41	70.7551	1,274.41	74.2659	1,274.41	72.1841	1,274.41	74.3865	1,274.41	73.6906
1,319.82	80.5042	1,319.82	80.134	1,319.82	80.6867	1,319.82	79.672	1,319.82	80.561	1,319.82	79.0988	1,319.82	80.0928	1,319.82	78.384	1,319.82	79.3725	1,319.82	77.6517	1,319.82	78.4814	1,319.82	77.0041	1,319.82	77.4221	1,319.82	76.3136	1,319.82	76.4091	1,319.82	75.3114	1,319.82	75.7573	1,319.82	73.9706	1,319.82	75.3556	1,319.82	72.9924	1,319.82	74.8793	1,319.82	73.4169	1,319.82	74.3678	1,319.82	74.4714	1,319.82	73.9562	1,319.82	74.7281	1,319.82	73.534	1,319.82	73.821	1,319.82	73.2663	1,319.82	72.1172	1,319.82	73.8055	1,319.82	71.503	1,319.82	74.7519	1,319.82	73.1542	1,319.82	75.1931	1,319.82	74.7001
1,366.7	82.6573	1,366.7	82.427	1,366.7	82.7987	1,366.7	82.151	1,366.7	82.682	1,366.7	81.7248	1,366.7	82.2346	1,366.7	81.0676	1,366.7	81.5129	1,366.7	80.3452	1,366.7	80.7024	1,366.7	79.899	1,366.7	80.2671	1,366.7	79.6865	1,366.7	80.1983	1,366.7	79.2427	1,366.7	79.7812	1,366.7	77.7251	1,366.7	78.5471	1,366.7	75.2117	1,366.7	77.2923	1,366.7	75.0601	1,366.7	77.0942	1,366.7	77.8101	1,366.7	76.9671	1,366.7	79.0744	1,366.7	76.4606	1,366.7	78.1098	1,366.7	76.3807	1,366.7	76.0412	1,366.7	76.7601	1,366.7	75.3408	1,366.7	77.0223	1,366.7	76.1804	1,366.7	77.0578	1,366.7	76.8415
1,413.57	84.9152	1,413.57	84.9073	1,413.57	84.7161	1,413.57	84.3441	1,413.57	84.444	1,413.57	82.9523	1,413.57	84.0228	1,413.57	81.2441	1,413.57	83.3708	1,413.57	80.7589	1,413.57	82.7279	1,413.57	81.5922	1,413.57	82.3952	1,413.57	81.6357	1,413.57	82.098	1,413.57	79.8101	1,413.57	81.2407	1,413.57	76.7845	1,413.57	79.5785	1,413.57	73.2099	1,413.57	77.6187	1,413.57	69.1279	1,413.57	76.4643	1,413.57	73.6944	1,413.57	77.0154	1,413.57	77.3161	1,413.57	78.2155	1,413.57	78.2875	1,413.57	78.3815	1,413.57	77.2988	1,413.57	77.557	1,413.57	76.1485	1,413.57	77.3556	1,413.57	77.6026	1,413.57	78.385	1,413.57	78.8083
1,463.38	85.0711	1,463.38	85.0084	1,463.38	84.7245	1,463.38	84.3537	1,463.38	84.3158	1,463.38	83.3923	1,463.38	83.9117	1,463.38	82.7384	1,463.38	83.2504	1,463.38	82.4231	1,463.38	82.1617	1,463.38	81.66	1,463.38	81.1951	1,463.38	79.9897	1,463.38	81.1454	1,463.38	78.1964	1,463.38	80.9396	1,463.38	77.8046	1,463.38	79.7299	1,463.38	77.7302	1,463.38	78.1782	1,463.38	74.8957	1,463.38	77.9048	1,463.38	72.9723	1,463.38	77.415	1,463.38	77.0977	1,463.38	75.4207	1,463.38	78.5142	1,463.38	74.8429	1,463.38	77.2975	1,463.38	76.7147	1,463.38	75.1951	1,463.38	78.0622	1,463.38	75.5766	1,463.38	78.2707	1,463.38	77.3451
1,516.11	85.1819	1,516.11	84.4579	1,516.11	85.2681	1,516.11	83.3099	1,516.11	84.8187	1,516.11	82.4758	1,516.11	83.8103	1,516.11	82.1595	1,516.11	82.1483	1,516.11	81.4141	1,516.11	80.1653	1,516.11	79.7177	1,516.11	79.3351	1,516.11	77.9583	1,516.11	80.3697	1,516.11	77.5046	1,516.11	81.1338	1,516.11	78.2134	1,516.11	80.534	1,516.11	78.683	1,516.11	78.8815	1,516.11	77.5926	1,516.11	77.536	1,516.11	74.2113	1,516.11	76.4225	1,516.11	73.3017	1,516.11	74.7681	1,516.11	75.5377	1,516.11	74.6278	1,516.11	75.7278	1,516.11	76.0686	1,516.11	75.2199	1,516.11	77.1158	1,516.11	76.1857	1,516.11	77.6706	1,516.11	77.4541
1,568.85	84.39	1,568.85	84.2028	1,568.85	84.4644	1,568.85	83.781	1,568.85	84.2068	1,568.85	83.0203	1,568.85	83.3348	1,568.85	82.0549	1,568.85	82.0474	1,568.85	80.9902	1,568.85	80.6908	1,568.85	79.9488	1,568.85	79.1651	1,568.85	78.8314	1,568.85	78.2785	1,568.85	77.5741	1,568.85	78.3448	1,568.85	77.6318	1,568.85	78.2774	1,568.85	78.9602	1,568.85	77.2105	1,568.85	78.4656	1,568.85	75.8665	1,568.85	74.9136	1,568.85	75.3786	1,568.85	71.5961	1,568.85	75.2861	1,568.85	74.9431	1,568.85	75.9779	1,568.85	76.7233	1,568.85	76.6497	1,568.85	75.9887	1,568.85	76.6719	1,568.85	75.7732	1,568.85	76.7136	1,568.85	76.5709
1,624.51	83.6988	1,624.51	83.4001	1,624.51	83.6977	1,624.51	82.8545	1,624.51	83.4816	1,624.51	82.3926	1,624.51	83.0869	1,624.51	82.1018	1,624.51	82.36	1,624.51	81.0971	1,624.51	80.8788	1,624.51	79.0739	1,624.51	78.4054	1,624.51	77.1346	1,624.51	76.5484	1,624.51	76.2872	1,624.51	77.282	1,624.51	76.5112	1,624.51	77.8672	1,624.51	77.8311	1,624.51	76.2317	1,624.51	77.9483	1,624.51	73.4325	1,624.51	76.1627	1,624.51	73.5825	1,624.51	74.0526	1,624.51	74.234	1,624.51	74.369	1,624.51	73.5201	1,624.51	74.1217	1,624.51	73.9927	1,624.51	72.5779	1,624.51	75.6869	1,624.51	73.3872	1,624.51	76.3934	1,624.51	75.5785
1,681.64	82.6954	1,681.64	82.6591	1,681.64	82.4077	1,681.64	82.3734	1,681.64	82.1276	1,681.64	82.1363	1,681.64	82.1703	1,681.64	81.6361	1,681.64	82.0101	1,681.64	79.753	1,681.64	80.6939	1,681.64	76.056	1,681.64	78.5337	1,681.64	73.7155	1,681.64	77.6141	1,681.64	74.4543	1,681.64	78.2219	1,681.64	74.3549	1,681.64	77.9003	1,681.64	74.3353	1,681.64	76.6081	1,681.64	76.3992	1,681.64	75.9436	1,681.64	76.8699	1,681.64	75.1637	1,681.64	74.7163	1,681.64	72.5101	1,681.64	72.127	1,681.64	71.6999	1,681.64	71.2247	1,681.64	74.5459	1,681.64	69.7336	1,681.64	75.2177	1,681.64	69.3505	1,681.64	73.7253	1,681.64	71.3851
1,741.7	81.8802	1,741.7	81.8203	1,741.7	81.5201	1,741.7	81.3912	1,741.7	80.9684	1,741.7	80.7633	1,741.7	80.3925	1,741.7	79.9649	1,741.7	79.6872	1,741.7	78.9126	1,741.7	78.9214	1,741.7	77.9546	1,741.7	77.7612	1,741.7	77.7799	1,741.7	75.4452	1,741.7	77.4133	1,741.7	73.5071	1,741.7	74.9246	1,741.7	74.2431	1,741.7	70.1821	1,741.7	74.4981	1,741.7	70.9861	1,741.7	72.8041	1,741.7	73.5936	1,741.7	72.1857	1,741.7	74.6606	1,741.7	73.5494	1,741.7	75.553	1,741.7	74.0367	1,741.7	75.9512	1,741.7	72.9942	1,741.7	74.7461	1,741.7	72.1539	1,741.7	73.0185	1,741.7	72.4048	1,741.7	72.5907
1,803.22	82.9764	1,803.22	82.33	1,803.22	82.7397	1,803.22	81.4014	1,803.22	81.5113	1,803.22	80.6875	1,803.22	79.8845	1,803.22	79.9468	1,803.22	78.7711	1,803.22	78.6903	1,803.22	78.1339	1,803.22	77.4651	1,803.22	76.6568	1,803.22	76.9621	1,803.22	73.3574	1,803.22	76.3331	1,803.22	71.018	1,803.22	74.5582	1,803.22	72.5509	1,803.22	70.7864	1,803.22	72.9881	1,803.22	65.1901	1,803.22	72.6173	1,803.22	67.9349	1,803.22	73.0851	1,803.22	69.8556	1,803.22	72.5009	1,803.22	71.4311	1,803.22	71.8173	1,803.22	73.3718	1,803.22	72.9342	1,803.22	74.0132	1,803.22	73.4981	1,803.22	73.4226	1,803.22	73.5463	1,803.22	73.2448
1,866.21	81.7793	1,866.21	81.7009	1,866.21	81.1792	1,866.21	81.4252	1,866.21	79.9007	1,866.21	80.9885	1,866.21	78.9622	1,866.21	79.7627	1,866.21	79.1216	1,866.21	77.8178	1,866.21	78.9292	1,866.21	76.7041	1,866.21	76.7412	1,866.21	76.2757	1,866.21	73.2139	1,866.21	75.0536	1,866.21	72.019	1,866.21	73.899	1,866.21	73.5238	1,866.21	73.8973	1,866.21	71.9467	1,866.21	71.5294	1,866.21	70.4667	1,866.21	65.9366	1,866.21	72.4987	1,866.21	68.7063	1,866.21	72.7087	1,866.21	70.5086	1,866.21	71.2055	1,866.21	71.0403	1,866.21	72.0419	1,866.21	70.4176	1,866.21	72.3472	1,866.21	69.0858	1,866.21	71.4126	1,866.21	69.8872
1,932.13	80.3337	1,932.13	80.9328	1,932.13	80.267	1,932.13	81.4905	1,932.13	80.1812	1,932.13	80.8364	1,932.13	79.6013	1,932.13	78.6837	1,932.13	78.7578	1,932.13	76.8179	1,932.13	77.9742	1,932.13	76.1995	1,932.13	76.8416	1,932.13	74.8365	1,932.13	74.781	1,932.13	72.7879	1,932.13	71.8886	1,932.13	73.5139	1,932.13	70.4619	1,932.13	75.1622	1,932.13	70.1167	1,932.13	73.4911	1,932.13	69.1788	1,932.13	69.0533	1,932.13	70.2671	1,932.13	65.9199	1,932.13	71.9463	1,932.13	68.4065	1,932.13	70.9824	1,932.13	71.1582	1,932.13	69.8348	1,932.13	71.7212	1,932.13	71.6803	1,932.13	70.9678	1,932.13	72.179	1,932.13	71.1458
1,999.51	80.9717	1,999.51	81.2777	1,999.51	80.0769	1,999.51	80.5826	1,999.51	79.4963	1,999.51	78.9967	1,999.51	79.2916	1,999.51	77.9097	1,999.51	79.0438	1,999.51	77.782	1,999.51	78.0246	1,999.51	76.439	1,999.51	75.9327	1,999.51	73.875	1,999.51	73.9899	1,999.51	72.5253	1,999.51	72.7916	1,999.51	73.6281	1,999.51	71.6966	1,999.51	74.2629	1,999.51	71.3931	1,999.51	73.4295	1,999.51	71.647	1,999.51	69.2111	1,999.51	71.7326	1,999.51	66.266	1,999.51	71.5229	1,999.51	70.0966	1,999.51	70.799	1,999.51	70.9281	1,999.51	69.5935	1,999.51	70.0488	1,999.51	70.5011	1,999.51	69.6654	1,999.51	71.3891	1,999.51	70.5761
2,069.82	82.3268	2,069.82	82.0021	2,069.82	81.1334	2,069.82	80.1906	2,069.82	79.3816	2,069.82	78.5008	2,069.82	78.5795	2,069.82	78.6166	2,069.82	78.455	2,069.82	78.3361	2,069.82	77.5134	2,069.82	76.2134	2,069.82	75.6516	2,069.82	73.502	2,069.82	73.672	2,069.82	70.2898	2,069.82	71.7802	2,069.82	66.7544	2,069.82	70.9587	2,069.82	69.9401	2,069.82	70.5577	2,069.82	73.4903	2,069.82	70.1604	2,069.82	71.941	2,069.82	69.7476	2,069.82	66.4236	2,069.82	69.5178	2,069.82	69.3232	2,069.82	70.9662	2,069.82	71.0986	2,069.82	70.9676	2,069.82	69.4766	2,069.82	70.5236	2,069.82	68.8027	2,069.82	71.7367	2,069.82	71.0912
2,143.07	82.1098	2,143.07	81.71	2,143.07	81.4143	2,143.07	80.4485	2,143.07	79.9051	2,143.07	79.5214	2,143.07	78.2346	2,143.07	78.9287	2,143.07	77.3448	2,143.07	77.2905	2,143.07	76.7401	2,143.07	74.4223	2,143.07	75.3815	2,143.07	72.6583	2,143.07	73.6284	2,143.07	71.5961	2,143.07	72.6341	2,143.07	69.4938	2,143.07	72.7521	2,143.07	69.7552	2,143.07	71.7649	2,143.07	72.0247	2,143.07	68.8286	2,143.07	71.4076	2,143.07	68.1219	2,143.07	67.3002	2,143.07	68.3129	2,143.07	67.089	2,143.07	69.4868	2,143.07	70.0086	2,143.07	70.4408	2,143.07	69.9768	2,143.07	70.0059	2,143.07	68.6009	2,143.07	70.4656	2,143.07	69.6623
2,219.24	80.8725	2,219.24	80.4511	2,219.24	80.8616	2,219.24	80.0524	2,219.24	79.9438	2,219.24	79.5031	2,219.24	78.303	2,219.24	77.8071	2,219.24	76.8571	2,219.24	74.9123	2,219.24	75.6629	2,219.24	73.1469	2,219.24	74.59	2,219.24	72.8725	2,219.24	73.6106	2,219.24	71.3924	2,219.24	71.8342	2,219.24	68.4773	2,219.24	71.4287	2,219.24	68.1858	2,219.24	71.6839	2,219.24	71.5191	2,219.24	69.1836	2,219.24	71.1793	2,219.24	66.9461	2,219.24	66.8696	2,219.24	67.2683	2,219.24	65.4563	2,219.24	68.3722	2,219.24	69.3244	2,219.24	69.7906	2,219.24	69.511	2,219.24	69.2369	2,219.24	67.9011	2,219.24	68.5454	2,219.24	67.9184
2,296.88	81.2442	2,296.88	80.7306	2,296.88	80.9332	2,296.88	79.8965	2,296.88	79.6494	2,296.88	79.0067	2,296.88	78.1763	2,296.88	77.5418	2,296.88	76.8606	2,296.88	75.0848	2,296.88	75.2102	2,296.88	72.6512	2,296.88	74.3549	2,296.88	70.3664	2,296.88	73.3208	2,296.88	69.5474	2,296.88	70.4749	2,296.88	70.5195	2,296.88	69.5251	2,296.88	66.7962	2,296.88	69.3263	2,296.88	66.9572	2,296.88	67.1142	2,296.88	70.0733	2,296.88	65.6602	2,296.88	68.928	2,296.88	66.4566	2,296.88	66.1725	2,296.88	66.912	2,296.88	69.3789	2,296.88	66.7805	2,296.88	69.0206	2,296.88	66.697	2,296.88	66.3267	2,296.88	66.5762	2,296.88	66.1169
2,378.91	81.4861	2,378.91	80.9544	2,378.91	81.222	2,378.91	79.8486	2,378.91	79.9839	2,378.91	78.3477	2,378.91	78.3776	2,378.91	76.8282	2,378.91	76.7428	2,378.91	75.4701	2,378.91	75.0492	2,378.91	74.814	2,378.91	73.5127	2,378.91	73.7696	2,378.91	71.6467	2,378.91	71.1513	2,378.91	71.9628	2,378.91	70.7148	2,378.91	73.3733	2,378.91	69.332	2,378.91	71.5087	2,378.91	64.8379	2,378.91	67.1399	2,378.91	67.8534	2,378.91	68.0608	2,378.91	69.2775	2,378.91	69.0817	2,378.91	64.8088	2,378.91	67.4967	2,378.91	68.4187	2,378.91	67.2369	2,378.91	69.8803	2,378.91	66.1688	2,378.91	67.1721	2,378.91	65.7461	2,378.91	65.574
2,462.4	80.9387	2,462.4	80.8519	2,462.4	80.6602	2,462.4	79.7259	2,462.4	80.1107	2,462.4	77.8727	2,462.4	79.0117	2,462.4	76.7769	2,462.4	77.1171	2,462.4	76.5117	2,462.4	74.9819	2,462.4	75.4176	2,462.4	73.7323	2,462.4	72.239	2,462.4	72.9805	2,462.4	67.3818	2,462.4	71.5434	2,462.4	66.6264	2,462.4	70.779	2,462.4	68.6171	2,462.4	70.6872	2,462.4	67.9126	2,462.4	69.6274	2,462.4	67.7018	2,462.4	69.6562	2,462.4	69.125	2,462.4	70.4471	2,462.4	66.05	2,462.4	69.2989	2,462.4	66.5393	2,462.4	68.0719	2,462.4	68.5753	2,462.4	66.149	2,462.4	66.5762	2,462.4	66.8237	2,462.4	66.6527
2,548.83	81.6764	2,548.83	81.2662	2,548.83	80.8918	2,548.83	80.1989	2,548.83	80.0445	2,548.83	79.8353	2,548.83	79.2831	2,548.83	79.2039	2,548.83	77.4075	2,548.83	77.3321	2,548.83	76.1477	2,548.83	74.3948	2,548.83	75.3564	2,548.83	71.9319	2,548.83	72.7211	2,548.83	70.9534	2,548.83	71.594	2,548.83	69.1328	2,548.83	69.9088	2,548.83	69.5109	2,548.83	66.5719	2,548.83	70.6192	2,548.83	66.9522	2,548.83	69.3973	2,548.83	69.2725	2,548.83	69.0879	2,548.83	70.7605	2,548.83	67.3072	2,548.83	69.9543	2,548.83	67.6392	2,548.83	69.624	2,548.83	70.0323	2,548.83	68.5678	2,548.83	68.1037	2,548.83	66.3144	2,548.83	65.8419
2,639.65	82.3193	2,639.65	81.5497	2,639.65	82.0848	2,639.65	80.7465	2,639.65	80.9478	2,639.65	80.4119	2,639.65	79.1146	2,639.65	78.9041	2,639.65	77.501	2,639.65	75.8175	2,639.65	76.3794	2,639.65	72.7187	2,639.65	73.7977	2,639.65	69.1715	2,639.65	73.2262	2,639.65	68.1419	2,639.65	74.991	2,639.65	68.542	2,639.65	73.0961	2,639.65	67.2576	2,639.65	68.1549	2,639.65	69.839	2,639.65	64.6427	2,639.65	69.9789	2,639.65	67.2953	2,639.65	68.7316	2,639.65	71.05	2,639.65	66.8761	2,639.65	70.2544	2,639.65	67.3515	2,639.65	69.4253	2,639.65	69.1365	2,639.65	69.4722	2,639.65	67.5309	2,639.65	68.9256	2,639.65	67.1838
2,731.93	81.8958	2,731.93	81.3831	2,731.93	81.9683	2,731.93	80.8514	2,731.93	81.1773	2,731.93	79.7032	2,731.93	79.2287	2,731.93	77.3419	2,731.93	77.0683	2,731.93	75.1125	2,731.93	75.5443	2,731.93	73.9907	2,731.93	73.8021	2,731.93	72.9923	2,731.93	72.9556	2,731.93	71.5861	2,731.93	72.0178	2,731.93	69.9182	2,731.93	68.8022	2,731.93	66.8993	2,731.93	68.8499	2,731.93	65.6613	2,731.93	68.6873	2,731.93	67.9359	2,731.93	66.1711	2,731.93	69.2459	2,731.93	70.584	2,731.93	67.5122	2,731.93	70.2173	2,731.93	67.1842	2,731.93	67.984	2,731.93	69.5701	2,731.93	68.125	2,731.93	67.1912	2,731.93	67.3789	2,731.93	64.2095
2,828.61	82.0584	2,828.61	81.5492	2,828.61	82.2081	2,828.61	80.5289	2,828.61	81.3856	2,828.61	78.1639	2,828.61	79.4661	2,828.61	76.1452	2,828.61	77.635	2,828.61	76.1734	2,828.61	75.5674	2,828.61	74.9402	2,828.61	72.2271	2,828.61	71.6154	2,828.61	70.8266	2,828.61	67.0854	2,828.61	69.2814	2,828.61	63.4949	2,828.61	67.3571	2,828.61	64.1693	2,828.61	70.8744	2,828.61	66.236	2,828.61	70.6637	2,828.61	69.0111	2,828.61	64.2047	2,828.61	70.1697	2,828.61	68.787	2,828.61	67.8458	2,828.61	69.0885	2,828.61	66.8654	2,828.61	67.9955	2,828.61	69.8765	2,828.61	66.2531	2,828.61	68.6562	2,828.61	65.6327	2,828.61	65.1348
2,928.22	82.3155	2,928.22	82.0459	2,928.22	82.2222	2,928.22	80.8118	2,928.22	81.56	2,928.22	79.3025	2,928.22	79.8716	2,928.22	78.1035	2,928.22	78.0613	2,928.22	75.5159	2,928.22	75.2165	2,928.22	73.8133	2,928.22	72.9329	2,928.22	74.3374	2,928.22	73.0207	2,928.22	71.1585	2,928.22	68.566	2,928.22	66.8627	2,928.22	66.4135	2,928.22	68.1679	2,928.22	73.5078	2,928.22	67.9811	2,928.22	73.0953	2,928.22	67.1846	2,928.22	61.1989	2,928.22	70.6743	2,928.22	65.5968	2,928.22	68.6558	2,928.22	69.6094	2,928.22	66.7827	2,928.22	67.0088	2,928.22	70.878	2,928.22	65.9158	2,928.22	69.1821	2,928.22	66.5854	2,928.22	65.6609
3,030.76	81.832	3,030.76	81.5684	3,030.76	81.5263	3,030.76	80.6149	3,030.76	80.8848	3,030.76	79.6177	3,030.76	79.5119	3,030.76	77.4222	3,030.76	77.5712	3,030.76	75.1696	3,030.76	74.881	3,030.76	74.3673	3,030.76	72.3892	3,030.76	71.2569	3,030.76	69.4182	3,030.76	70.5281	3,030.76	67.0015	3,030.76	70.9707	3,030.76	70.8941	3,030.76	67.4255	3,030.76	73.8661	3,030.76	67.8292	3,030.76	73.3617	3,030.76	65.8209	3,030.76	68.5724	3,030.76	68.6689	3,030.76	64.8074	3,030.76	69.814	3,030.76	70.2343	3,030.76	64.5111	3,030.76	68.6791	3,030.76	69.9953	3,030.76	65.0849	3,030.76	68.3825	3,030.76	64.6147	3,030.76	61.704
3,137.7	82.5942	3,137.7	82.369	3,137.7	81.6361	3,137.7	80.9046	3,137.7	80.2968	3,137.7	78.4155	3,137.7	79.2174	3,137.7	76.6492	3,137.7	77.92	3,137.7	76.4197	3,137.7	74.5332	3,137.7	73.641	3,137.7	72.1451	3,137.7	71.7574	3,137.7	69.3611	3,137.7	72.8345	3,137.7	67.9555	3,137.7	71.1215	3,137.7	71.2528	3,137.7	63.9927	3,137.7	72.4669	3,137.7	64.6796	3,137.7	71.4043	3,137.7	68.3975	3,137.7	70.2151	3,137.7	67.9825	3,137.7	66.0379	3,137.7	69.8039	3,137.7	69.2848	3,137.7	65.6845	3,137.7	68.8256	3,137.7	67.8666	3,137.7	64.2755	3,137.7	69.0724	3,137.7	62.2372	3,137.7	62.1443
3,249.02	82.5628	3,249.02	82.0517	3,249.02	81.8838	3,249.02	80.3797	3,249.02	80.5136	3,249.02	78.6832	3,249.02	79.6853	3,249.02	78.3592	3,249.02	78.7438	3,249.02	77.1598	3,249.02	76.1511	3,249.02	75.6187	3,249.02	73.1972	3,249.02	75.8815	3,249.02	70.5537	3,249.02	74.2298	3,249.02	71.4213	3,249.02	71.0623	3,249.02	71.0541	3,249.02	69.7051	3,249.02	71.5646	3,249.02	66.9449	3,249.02	71.9327	3,249.02	68.984	3,249.02	71.4742	3,249.02	70.2202	3,249.02	67.7064	3,249.02	70.5424	3,249.02	69.0014	3,249.02	68.1108	3,249.02	69.3694	3,249.02	67.8597	3,249.02	63.3182	3,249.02	69.4678	3,249.02	62.3583	3,249.02	64.6337
3,363.28	82.2705	3,363.28	81.3575	3,363.28	82.0993	3,363.28	80.0225	3,363.28	81.1848	3,363.28	79.6033	3,363.28	80.5962	3,363.28	79.4092	3,363.28	78.8799	3,363.28	78.1996	3,363.28	75.9	3,363.28	77.9076	3,363.28	74.2497	3,363.28	76.9097	3,363.28	73.4203	3,363.28	73.426	3,363.28	73.2146	3,363.28	71.7427	3,363.28	70.7914	3,363.28	71.5596	3,363.28	71.4432	3,363.28	68.8641	3,363.28	72.1192	3,363.28	68.3651	3,363.28	70.6668	3,363.28	70.114	3,363.28	68.2728	3,363.28	71.2409	3,363.28	69.3735	3,363.28	69.8057	3,363.28	70.1755	3,363.28	69.3748	3,363.28	64.0829	3,363.28	69.9381	3,363.28	60.7677	3,363.28	64.8721
3,481.93	82.0254	3,481.93	81.2614	3,481.93	81.9232	3,481.93	80.1598	3,481.93	81.3397	3,481.93	80.1775	3,481.93	81.3839	3,481.93	80.179	3,481.93	79.8559	3,481.93	79.3166	3,481.93	76.8962	3,481.93	77.7839	3,481.93	75.4054	3,481.93	75.136	3,481.93	74.8446	3,481.93	73.6155	3,481.93	72.9473	3,481.93	72.9523	3,481.93	68.8881	3,481.93	71.4042	3,481.93	70.0572	3,481.93	69.0115	3,481.93	72.0982	3,481.93	66.171	3,481.93	70.4765	3,481.93	69.803	3,481.93	67.8588	3,481.93	71.5778	3,481.93	69.1452	3,481.93	69.495	3,481.93	69.3484	3,481.93	69.2626	3,481.93	64.3711	3,481.93	69.4114	3,481.93	59.1408	3,481.93	62.8517
3,604.98	81.9169	3,604.98	81.1121	3,604.98	81.9328	3,604.98	80.6966	3,604.98	81.7581	3,604.98	81.0745	3,604.98	81.8363	3,604.98	80.8635	3,604.98	80.1674	3,604.98	80.0311	3,604.98	78.2518	3,604.98	77.4416	3,604.98	77.3388	3,604.98	73.9571	3,604.98	75.945	3,604.98	74.6318	3,604.98	70.5596	3,604.98	73.2561	3,604.98	59.3003	3,604.98	69.3413	3,604.98	64.9235	3,604.98	70.1146	3,604.98	68.685	3,604.98	68.4642	3,604.98	67.1956	3,604.98	68.7749	3,604.98	65.8815	3,604.98	71.4244	3,604.98	67.8424	3,604.98	69.7652	3,604.98	68.8089	3,604.98	69.5952	3,604.98	64.3885	3,604.98	69.8063	3,604.98	57.7923	3,604.98	63.0847
3,732.42	81.642	3,732.42	80.8083	3,732.42	81.7555	3,732.42	80.9676	3,732.42	81.7906	3,732.42	81.5787	3,732.42	81.5208	3,732.42	81.3028	3,732.42	80.186	3,732.42	80.1445	3,732.42	79.2453	3,732.42	77.6392	3,732.42	78.18	3,732.42	75.2537	3,732.42	74.6917	3,732.42	72.934	3,732.42	66.0056	3,732.42	70.2435	3,732.42	64.7567	3,732.42	68.7807	3,732.42	59.2133	3,732.42	68.7908	3,732.42	61.646	3,732.42	68.058	3,732.42	65.9854	3,732.42	67.2793	3,732.42	67.5156	3,732.42	71.1005	3,732.42	66.4623	3,732.42	69.4514	3,732.42	68.143	3,732.42	67.9027	3,732.42	65.978	3,732.42	68.9987	3,732.42	56.7159	3,732.42	62.0867
3,864.26	81.9462	3,864.26	81.2975	3,864.26	82.2222	3,864.26	81.4907	3,864.26	81.9934	3,864.26	82.0424	3,864.26	81.8669	3,864.26	81.8186	3,864.26	80.9428	3,864.26	79.1602	3,864.26	79.8373	3,864.26	75.8996	3,864.26	78.741	3,864.26	74.2031	3,864.26	75.0956	3,864.26	70.6955	3,864.26	70.4403	3,864.26	68.5494	3,864.26	69.0505	3,864.26	69.3382	3,864.26	65.6452	3,864.26	68.7215	3,864.26	64.5645	3,864.26	67.7167	3,864.26	68.8858	3,864.26	66.7908	3,864.26	67.2682	3,864.26	70.7171	3,864.26	64.9696	3,864.26	69.4405	3,864.26	68.6213	3,864.26	66.6195	3,864.26	67.6787	3,864.26	68.8395	3,864.26	55.1837	3,864.26	61.8501
4,000.49	81.9126	4,000.49	81.8494	4,000.49	82.0448	4,000.49	82.2197	4,000.49	82.4037	4,000.49	82.4752	4,000.49	82.0242	4,000.49	80.6899	4,000.49	81.2657	4,000.49	78.8684	4,000.49	80.5855	4,000.49	77.2486	4,000.49	77.8708	4,000.49	72.4272	4,000.49	74.2645	4,000.49	70.4804	4,000.49	70.2845	4,000.49	71.1034	4,000.49	70.076	4,000.49	69.4727	4,000.49	66.9134	4,000.49	67.7389	4,000.49	68.1924	4,000.49	68.4394	4,000.49	67.0684	4,000.49	66.8589	4,000.49	64.1203	4,000.49	70.3895	4,000.49	65.3761	4,000.49	70.8206	4,000.49	69.231	4,000.49	65.4825	4,000.49	66.8343	4,000.49	67.8126	4,000.49	54.4747	4,000.49	60.7686
4,141.11	81.7763	4,141.11	82.0357	4,141.11	81.8981	4,141.11	82.4366	4,141.11	82.0892	4,141.11	82.1928	4,141.11	82.0625	4,141.11	81.2709	4,141.11	82.1104	4,141.11	79.5936	4,141.11	81.5442	4,141.11	76.7716	4,141.11	78.7555	4,141.11	74.6001	4,141.11	72.6694	4,141.11	72.7545	4,141.11	71.6314	4,141.11	69.3208	4,141.11	73.4941	4,141.11	68.0255	4,141.11	67.5442	4,141.11	69.2598	4,141.11	67.3843	4,141.11	68.4168	4,141.11	59.9878	4,141.11	66.4138	4,141.11	61.387	4,141.11	69.8005	4,141.11	63.6441	4,141.11	71.2794	4,141.11	69.202	4,141.11	66.9998	4,141.11	67.2022	4,141.11	67.9029	4,141.11	53.6253	4,141.11	63.3147
4,287.6	81.6365	4,287.6	82.1743	4,287.6	82.4728	4,287.6	83.5474	4,287.6	82.7578	4,287.6	82.7047	4,287.6	82.85	4,287.6	81.2812	4,287.6	82.836	4,287.6	79.0103	4,287.6	81.9233	4,287.6	75.0974	4,287.6	77.7038	4,287.6	74.2634	4,287.6	71.3554	4,287.6	70.3157	4,287.6	74.9627	4,287.6	65.9518	4,287.6	72.5555	4,287.6	66.95	4,287.6	57.4008	4,287.6	66.8533	4,287.6	60.9201	4,287.6	69.9223	4,287.6	56.793	4,287.6	67.3885	4,287.6	67.1138	4,287.6	69.2512	4,287.6	61.6531	4,287.6	71.7144	4,287.6	67.0261	4,287.6	68.069	4,287.6	67.202	4,287.6	67.9498	4,287.6	51.0103	4,287.6	63.2436
4,438.48	81.3081	4,438.48	81.9434	4,438.48	82.2367	4,438.48	82.4468	4,438.48	82.7229	4,438.48	82.3705	4,438.48	82.5558	4,438.48	81.0825	4,438.48	82.702	4,438.48	78.1979	4,438.48	82.0218	4,438.48	76.8526	4,438.48	75.8483	4,438.48	74.3912	4,438.48	73.2325	4,438.48	71.911	4,438.48	75.7879	4,438.48	70.7445	4,438.48	66.9774	4,438.48	68.3086	4,438.48	62.4446	4,438.48	66.3417	4,438.48	65.2769	4,438.48	68.6344	4,438.48	63.8493	4,438.48	68.631	4,438.48	64.1624	4,438.48	68.1083	4,438.48	62.7406	4,438.48	71.4485	4,438.48	68.3447	4,438.48	68.5272	4,438.48	67.5403	4,438.48	68.5403	4,438.48	51.3323	4,438.48	63.7128
4,595.21	81.9739	4,595.21	82.3906	4,595.21	82.051	4,595.21	82.2362	4,595.21	82.9894	4,595.21	81.5317	4,595.21	82.8014	4,595.21	80.0952	4,595.21	82.6084	4,595.21	78.5467	4,595.21	81.2667	4,595.21	76.7976	4,595.21	72.8046	4,595.21	74.1979	4,595.21	77.4391	4,595.21	72.1423	4,595.21	74.2595	4,595.21	69.596	4,595.21	66.0469	4,595.21	66.9033	4,595.21	66.2718	4,595.21	66.098	4,595.21	65.4959	4,595.21	69.0617	4,595.21	58.2037	4,595.21	68.0614	4,595.21	62.4504	4,595.21	68.8609	4,595.21	66.4742	4,595.21	71.7424	4,595.21	67.2392	4,595.21	69.6366	4,595.21	66.8137	4,595.21	68.3395	4,595.21	56.8168	4,595.21	61.8481
4,756.35	80.9419	4,756.35	82.6979	4,756.35	80.777	4,756.35	82.2888	4,756.35	82.4795	4,756.35	81.5285	4,756.35	81.7884	4,756.35	80.5615	4,756.35	82.9162	4,756.35	79.0335	4,756.35	79.2817	4,756.35	75.928	4,756.35	75.9421	4,756.35	74.87	4,756.35	78.5418	4,756.35	72.9791	4,756.35	70.7606	4,756.35	68.4271	4,756.35	69.2311	4,756.35	67.2343	4,756.35	60.134	4,756.35	61.9884	4,756.35	60.2711	4,756.35	66.1357	4,756.35	57.4752	4,756.35	68.757	4,756.35	61.5196	4,756.35	68.2492	4,756.35	67.3137	4,756.35	71.0705	4,756.35	66.5347	4,756.35	67.2607	4,756.35	66.744	4,756.35	66.5806	4,756.35	52.5992	4,756.35	62.4102
4,924.8	81.9075	4,924.8	82.8183	4,924.8	81.3265	4,924.8	82.2173	4,924.8	81.8725	4,924.8	81.7433	4,924.8	81.5536	4,924.8	80.7222	4,924.8	82.2439	4,924.8	79.4996	4,924.8	77.5214	4,924.8	77.7456	4,924.8	79.7188	4,924.8	75.7168	4,924.8	77.8052	4,924.8	72.0839	4,924.8	70.7471	4,924.8	69.329	4,924.8	71.7943	4,924.8	69.4646	4,924.8	63.1463	4,924.8	64.6475	4,924.8	53.9437	4,924.8	67.6852	4,924.8	63.4169	4,924.8	68.412	4,924.8	57.2425	4,924.8	67.4971	4,924.8	66.3111	4,924.8	71.8382	4,924.8	66.7846	4,924.8	68.5204	4,924.8	68.0146	4,924.8	65.8099	4,924.8	61.4546	4,924.8	61.2158
5,097.66	80.5655	5,097.66	80.8696	5,097.66	81.4151	5,097.66	80.7468	5,097.66	81.8191	5,097.66	80.7368	5,097.66	82.357	5,097.66	80.428	5,097.66	80.6268	5,097.66	79.4575	5,097.66	77.1536	5,097.66	76.5665	5,097.66	80.8619	5,097.66	73.5715	5,097.66	75.4416	5,097.66	72.1774	5,097.66	70.0607	5,097.66	68.8574	5,097.66	71.0419	5,097.66	67.5483	5,097.66	64.3965	5,097.66	64.2152	5,097.66	54.7471	5,097.66	63.9044	5,097.66	64.1623	5,097.66	68.3218	5,097.66	48.1527	5,097.66	66.8746	5,097.66	65.431	5,097.66	71.1818	5,097.66	67.5678	5,097.66	70.3324	5,097.66	67.7701	5,097.66	66.27	5,097.66	61.2449	5,097.66	58.3508
5,277.83	81.7007	5,277.83	80.9041	5,277.83	81.5271	5,277.83	80.8809	5,277.83	81.1245	5,277.83	81.3718	5,277.83	82.7036	5,277.83	80.8837	5,277.83	80.1301	5,277.83	79.1095	5,277.83	78.4213	5,277.83	76.4048	5,277.83	79.7847	5,277.83	74.5475	5,277.83	73.2059	5,277.83	72.1208	5,277.83	73.0453	5,277.83	67.8499	5,277.83	70.3695	5,277.83	67.0155	5,277.83	64.7889	5,277.83	66.2413	5,277.83	58.2016	5,277.83	62.2173	5,277.83	62.0312	5,277.83	68.1882	5,277.83	51.9725	5,277.83	66.0494	5,277.83	60.5528	5,277.83	69.2811	5,277.83	66.733	5,277.83	68.8847	5,277.83	66.4737	5,277.83	66.2958	5,277.83	58.1279	5,277.83	57.472
5,463.87	81.0792	5,463.87	80.4462	5,463.87	80.8696	5,463.87	81.2241	5,463.87	81.3068	5,463.87	81.7997	5,463.87	82.2282	5,463.87	80.7027	5,463.87	79.6076	5,463.87	78.7159	5,463.87	80.045	5,463.87	76.1636	5,463.87	76.8937	5,463.87	72.2977	5,463.87	71.1707	5,463.87	69.0593	5,463.87	73.2853	5,463.87	68.6517	5,463.87	68.8544	5,463.87	66.2832	5,463.87	65.4736	5,463.87	66.054	5,463.87	59.5745	5,463.87	58.4837	5,463.87	63.5302	5,463.87	66.4408	5,463.87	47.4052	5,463.87	65.6416	5,463.87	63.4584	5,463.87	70.0597	5,463.87	64.2445	5,463.87	66.1846	5,463.87	66.6268	5,463.87	65.0233	5,463.87	53.9195	5,463.87	60.5908
5,657.23	80.9907	5,657.23	80.8121	5,657.23	80.2643	5,657.23	81.4366	5,657.23	81.0841	5,657.23	81.0352	5,657.23	81.6266	5,657.23	80.3415	5,657.23	79.3491	5,657.23	79.2106	5,657.23	79.8503	5,657.23	75.692	5,657.23	76.6765	5,657.23	73.4462	5,657.23	73.6629	5,657.23	71.3236	5,657.23	71.3262	5,657.23	68.1017	5,657.23	67.6315	5,657.23	64.6449	5,657.23	60.6984	5,657.23	66.4633	5,657.23	57.8588	5,657.23	61.3951	5,657.23	59.5109	5,657.23	66.2769	5,657.23	48.3985	5,657.23	66.7989	5,657.23	62.7408	5,657.23	67.5707	5,657.23	63.4007	5,657.23	68.9651	5,657.23	64.8984	5,657.23	64.3801	5,657.23	57.5549	5,657.23	55.7025
5,856.45	81.1046	5,856.45	80.7437	5,856.45	80.6141	5,856.45	80.7674	5,856.45	80.4492	5,856.45	80.6765	5,856.45	80.2981	5,856.45	80.7037	5,856.45	79.1594	5,856.45	78.8046	5,856.45	77.8436	5,856.45	76.0162	5,856.45	74.3049	5,856.45	73.6975	5,856.45	72.8761	5,856.45	68.7561	5,856.45	68.9257	5,856.45	67.0992	5,856.45	64.7281	5,856.45	64.6711	5,856.45	58.733	5,856.45	65.081	5,856.45	46.7657	5,856.45	61.3071	5,856.45	59.0572	5,856.45	63.5567	5,856.45	55.9891	5,856.45	66.9594	5,856.45	59.79	5,856.45	66.2698	5,856.45	61.7423	5,856.45	68.099	5,856.45	61.7052	5,856.45	62.2266	5,856.45	55.6214	5,856.45	40.9403
6,062.99	81.4793	6,062.99	80.2307	6,062.99	81.0397	6,062.99	80.4879	6,062.99	79.4288	6,062.99	81.1333	6,062.99	78.0538	6,062.99	80.2476	6,062.99	78.2697	6,062.99	78.3947	6,062.99	76.9289	6,062.99	75.8307	6,062.99	72.8013	6,062.99	72.213	6,062.99	71.0276	6,062.99	69.8859	6,062.99	66.8364	6,062.99	67.7603	6,062.99	64.4333	6,062.99	63.6452	6,062.99	53.0114	6,062.99	63.3082	6,062.99	58.3338	6,062.99	63.3006	6,062.99	59.8328	6,062.99	62.0927	6,062.99	54.9235	6,062.99	66.939	6,062.99	61.4229	6,062.99	65.5123	6,062.99	61.4937	6,062.99	66.741	6,062.99	59.8883	6,062.99	62.4542	6,062.99	54.4429	6,062.99	51.0112
6,276.86	81.6963	6,276.86	81.0714	6,276.86	81.3025	6,276.86	80.9553	6,276.86	79.0601	6,276.86	80.1309	6,276.86	78.0611	6,276.86	79.7254	6,276.86	77.6116	6,276.86	78.5171	6,276.86	74.5813	6,276.86	75.2493	6,276.86	71.9212	6,276.86	73.498	6,276.86	69.6029	6,276.86	69.4353	6,276.86	66.8406	6,276.86	66.2734	6,276.86	62.0035	6,276.86	62.6548	6,276.86	58.5277	6,276.86	62.1744	6,276.86	52.2022	6,276.86	60.8142	6,276.86	58.8568	6,276.86	60.842	6,276.86	48.5951	6,276.86	65.4178	6,276.86	60.3835	6,276.86	66.2872	6,276.86	60.5391	6,276.86	63.4039	6,276.86	56.1996	6,276.86	62.7895	6,276.86	55.0562	6,276.86	51.5434
6,498.05	81.459	6,498.05	81.0937	6,498.05	81.9472	6,498.05	81.0903	6,498.05	79.3405	6,498.05	80.1897	6,498.05	78.4835	6,498.05	79.9039	6,498.05	78.6532	6,498.05	77.7173	6,498.05	74.475	6,498.05	75.4347	6,498.05	70.5112	6,498.05	71.4243	6,498.05	70.6546	6,498.05	67.4585	6,498.05	66.1381	6,498.05	65.6726	6,498.05	62.6763	6,498.05	60.8065	6,498.05	63.0362	6,498.05	61.8151	6,498.05	51.0217	6,498.05	61.0219	6,498.05	54.9524	6,498.05	59.4894	6,498.05	50.9202	6,498.05	64.5799	6,498.05	55.8958	6,498.05	65.915	6,498.05	62.5768	6,498.05	62.6935	6,498.05	56.6945	6,498.05	58.456	6,498.05	59.1057	6,498.05	54.1899
6,726.56	82.1993	6,726.56	81.4664	6,726.56	81.9394	6,726.56	81.076	6,726.56	79.9729	6,726.56	79.9769	6,726.56	79.6412	6,726.56	79.4118	6,726.56	79.3912	6,726.56	77.1295	6,726.56	75.1048	6,726.56	73.8097	6,726.56	71.3411	6,726.56	70.7232	6,726.56	70.5934	6,726.56	66.6022	6,726.56	64.0447	6,726.56	63.7987	6,726.56	65.95	6,726.56	59.8139	6,726.56	60.1803	6,726.56	56.8775	6,726.56	51.0781	6,726.56	58.0239	6,726.56	48.5059	6,726.56	58.7167	6,726.56	43.9092	6,726.56	62.5522	6,726.56	54.4768	6,726.56	64.1047	6,726.56	63.3069	6,726.56	61.6762	6,726.56	59.8701	6,726.56	53.5764	6,726.56	58.1591	6,726.56	58.2087
6,963.87	82.9048	6,963.87	82.7889	6,963.87	81.8583	6,963.87	81.0778	6,963.87	81.216	6,963.87	79.763	6,963.87	80.9357	6,963.87	78.8051	6,963.87	80.3744	6,963.87	76.3047	6,963.87	75.5482	6,963.87	72.5729	6,963.87	73.6354	6,963.87	67.7943	6,963.87	68.4639	6,963.87	62.1837	6,963.87	63.2442	6,963.87	58.2316	6,963.87	63.0429	6,963.87	59.623	6,963.87	55.4548	6,963.87	56.1458	6,963.87	60.9537	6,963.87	56.8788	6,963.87	57.137	6,963.87	55.9482	6,963.87	42.05	6,963.87	62.1259	6,963.87	57.2777	6,963.87	62.9595	6,963.87	62.7282	6,963.87	62.6398	6,963.87	57.7505	6,963.87	50.9281	6,963.87	57.4689	6,963.87	57.4529
7,209.96	83.0842	7,209.96	83.8028	7,209.96	82.9162	7,209.96	81.3791	7,209.96	82.822	7,209.96	80.133	7,209.96	81.9174	7,209.96	79.2792	7,209.96	80.7158	7,209.96	75.4633	7,209.96	76.5535	7,209.96	71.4158	7,209.96	74.9975	7,209.96	66.8285	7,209.96	65.6047	7,209.96	65.1562	7,209.96	70.7582	7,209.96	59.7747	7,209.96	62.8517	7,209.96	59.3765	7,209.96	64.4446	7,209.96	55.141	7,209.96	61.893	7,209.96	56.3171	7,209.96	59.8792	7,209.96	57.0769	7,209.96	54.2423	7,209.96	61.786	7,209.96	56.4739	7,209.96	62.7506	7,209.96	64.035	7,209.96	64.3233	7,209.96	46.8612	7,209.96	53.0215	7,209.96	51.8228	7,209.96	54.6786
7,464.84	84.466	7,464.84	84.219	7,464.84	84.4708	7,464.84	82.1191	7,464.84	83.6978	7,464.84	81.313	7,464.84	82.2848	7,464.84	80.0711	7,464.84	79.551	7,464.84	76.0172	7,464.84	76.7382	7,464.84	71.9587	7,464.84	72.6929	7,464.84	65.9992	7,464.84	68.5505	7,464.84	63.2433	7,464.84	71.8026	7,464.84	62.837	7,464.84	65.9437	7,464.84	59.2032	7,464.84	63.764	7,464.84	57.0113	7,464.84	59.6364	7,464.84	57.245	7,464.84	58.6874	7,464.84	57.0171	7,464.84	57.3421	7,464.84	60.6891	7,464.84	33.4439	7,464.84	64.6163	7,464.84	62.1633	7,464.84	61.8134	7,464.84	56.3684	7,464.84	48.8107	7,464.84	52.4634	7,464.84	54.9606
7,727.05	86.1975	7,727.05	85.4583	7,727.05	85.8396	7,727.05	83.8777	7,727.05	84.2155	7,727.05	82.2414	7,727.05	82.6171	7,727.05	80.5464	7,727.05	79.5001	7,727.05	76.6646	7,727.05	77.8983	7,727.05	71.3135	7,727.05	70.8173	7,727.05	68.1438	7,727.05	69.7264	7,727.05	64.0786	7,727.05	68.6575	7,727.05	61.3475	7,727.05	64.2902	7,727.05	57.0669	7,727.05	62.1994	7,727.05	57.175	7,727.05	57.3221	7,727.05	53.7531	7,727.05	58.4385	7,727.05	58.3363	7,727.05	50.4013	7,727.05	59.2934	7,727.05	54.3482	7,727.05	64.9422	7,727.05	55.1016	7,727.05	60.1196	7,727.05	58.5056	7,727.05	57.2652	7,727.05	36.5116	7,727.05	58.3063
7,999.51	87.6752	7,999.51	86.9365	7,999.51	86.8355	7,999.51	85.5346	7,999.51	84.8574	7,999.51	83.4561	7,999.51	83.127	7,999.51	80.6169	7,999.51	80.8987	7,999.51	75.7505	7,999.51	77.4758	7,999.51	69.4311	7,999.51	67.8682	7,999.51	64.6488	7,999.51	67.1744	7,999.51	58.7437	7,999.51	60.2869	7,999.51	57.4765	7,999.51	63.5604	7,999.51	53.9186	7,999.51	56.817	7,999.51	52.3783	7,999.51	60.5629	7,999.51	50.2159	7,999.51	59.9867	7,999.51	53.83	7,999.51	49.5447	7,999.51	54.9091	7,999.51	49.7076	7,999.51	59.7996	7,999.51	51.8078	7,999.51	48.8836	7,999.51	55.1685	7,999.51	53.8267	7,999.51	43.7745	7,999.51	57.9926
8,282.23	86.5294	8,282.23	86.0313	8,282.23	85.7319	8,282.23	84.3577	8,282.23	84.0246	8,282.23	82.1274	8,282.23	83.0026	8,282.23	78.3758	8,282.23	80.2425	8,282.23	68.8943	8,282.23	73.3065	8,282.23	59.4639	8,282.23	37.044	8,282.23	61.2696	8,282.23	54.9189	8,282.23	60.5653	8,282.23	60.8464	8,282.23	58.9829	8,282.23	64.4924	8,282.23	57.0603	8,282.23	63.2064	8,282.23	53.5499	8,282.23	64.8902	8,282.23	52.8207	8,282.23	61.4111	8,282.23	48.0633	8,282.23	52.006	8,282.23	58.0827	8,282.23	56.7745	8,282.23	62.992	8,282.23	58.1506	8,282.23	60.6254	8,282.23	54.6406	8,282.23	55.1947	8,282.23	52.0702	8,282.23	56.38
8,573.73	82.554	8,573.73	81.1708	8,573.73	80.718	8,573.73	79.1441	8,573.73	79.6633	8,573.73	78.3457	8,573.73	78.7474	8,573.73	73.2723	8,573.73	75.1405	8,573.73	68.5353	8,573.73	62.3847	8,573.73	73.1533	8,573.73	73.7275	8,573.73	72.4874	8,573.73	68.3068	8,573.73	70.1961	8,573.73	69.9467	8,573.73	67.696	8,573.73	70.2067	8,573.73	63.9791	8,573.73	66.8447	8,573.73	61.0681	8,573.73	62.6453	8,573.73	60.1018	8,573.73	61.5725	8,573.73	58.6312	8,573.73	44.8386	8,573.73	65.2231	8,573.73	60.397	8,573.73	69.9852	8,573.73	62.8988	8,573.73	66.8818	8,573.73	61.5655	8,573.73	59.5311	8,573.73	54.635	8,573.73	61.8714
8,876.95	86.3737	8,876.95	85.8487	8,876.95	86.0153	8,876.95	83.292	8,876.95	83.3481	8,876.95	80.0583	8,876.95	78.7963	8,876.95	75.3251	8,876.95	76.3763	8,876.95	74.6209	8,876.95	75.9872	8,876.95	74.4749	8,876.95	77.6116	8,876.95	72.162	8,876.95	73.2926	8,876.95	68.8232	8,876.95	73.0484	8,876.95	67.0141	8,876.95	70.9426	8,876.95	63.6652	8,876.95	66.9374	8,876.95	59.2595	8,876.95	64.9681	8,876.95	59.3087	8,876.95	65.8899	8,876.95	60.149	8,876.95	60.0838	8,876.95	65.7069	8,876.95	59.0663	8,876.95	70.4475	8,876.95	64.4163	8,876.95	67.2154	8,876.95	57.0565	8,876.95	59.9047	8,876.95	55.6982	8,876.95	64.4236
9,188.96	88.0718	9,188.96	87.0228	9,188.96	87.4803	9,188.96	83.5835	9,188.96	85.9621	9,188.96	78.9497	9,188.96	81.9613	9,188.96	74.696	9,188.96	74.7386	9,188.96	73.9556	9,188.96	76.0832	9,188.96	72.128	9,188.96	75.0545	9,188.96	72.1151	9,188.96	72.9707	9,188.96	68.2226	9,188.96	68.9927	9,188.96	64.6942	9,188.96	69.7664	9,188.96	60.9917	9,188.96	66.7679	9,188.96	59.0407	9,188.96	66.5704	9,188.96	56.2129	9,188.96	66.2757	9,188.96	59.6927	9,188.96	59.8173	9,188.96	63.1735	9,188.96	51.2198	9,188.96	69.8896	9,188.96	61.4614	9,188.96	65.3343	9,188.96	63.8394	9,188.96	61.0125	9,188.96	53.0346	9,188.96	63.4696
9,514.16	88.5445	9,514.16	87.7368	9,514.16	87.7413	9,514.16	84.5553	9,514.16	85.3834	9,514.16	78.513	9,514.16	79.2488	9,514.16	73.7073	9,514.16	73.6474	9,514.16	73.7238	9,514.16	74.3929	9,514.16	73.2343	9,514.16	74.1001	9,514.16	72.3614	9,514.16	73.0964	9,514.16	68.7216	9,514.16	68.2323	9,514.16	66.0888	9,514.16	68.0957	9,514.16	60.9012	9,514.16	68.1688	9,514.16	58.4288	9,514.16	67.7617	9,514.16	53.7797	9,514.16	67.4036	9,514.16	56.6767	9,514.16	60.0693	9,514.16	62.7156	9,514.16	51.5211	9,514.16	68.7839	9,514.16	60.7074	9,514.16	64.6283	9,514.16	62.3747	9,514.16	60.5977	9,514.16	43.826	9,514.16	63.273
9,849.61	89.7004	9,849.61	87.7172	9,849.61	89.2945	9,849.61	83.3109	9,849.61	85.8064	9,849.61	76.1033	9,849.61	81.6586	9,849.61	72.4315	9,849.61	80.0523	9,849.61	71.9373	9,849.61	77.9342	9,849.61	71.7622	9,849.61	77.9199	9,849.61	70.0505	9,849.61	74.6795	9,849.61	64.7185	9,849.61	69.4538	9,849.61	60.2365	9,849.61	70.0741	9,849.61	53.915	9,849.61	69.4983	9,849.61	52.4359	9,849.61	71.3886	9,849.61	38.8775	9,849.61	70.3076	9,849.61	54.3727	9,849.61	63.3657	9,849.61	56.1859	9,849.61	55.5425	9,849.61	65.2155	9,849.61	60.3159	9,849.61	56.2961	9,849.61	61.6635	9,849.61	55.4216	9,849.61	49.1279	9,849.61	59.8762
10,196.8	88.9212	10,196.8	86.3206	10,196.8	88.221	10,196.8	81.6479	10,196.8	85.3507	10,196.8	76.3466	10,196.8	81.928	10,196.8	72.538	10,196.8	77.3248	10,196.8	71.1445	10,196.8	75.2822	10,196.8	68.3972	10,196.8	76.2003	10,196.8	63.0603	10,196.8	72.3827	10,196.8	56.6268	10,196.8	68.8042	10,196.8	52.2515	10,196.8	67.3331	10,196.8	52.6051	10,196.8	67.8934	10,196.8	51.8127	10,196.8	69.5647	10,196.8	47.0533	10,196.8	66.6516	10,196.8	46.4372	10,196.8	61.1826	10,196.8	50.3153	10,196.8	51.1583	10,196.8	59.814	10,196.8	55.432	10,196.8	46.9345	10,196.8	58.118	10,196.8	52.9585	10,196.8	54.492	10,196.8	57.17
10,555.7	88.6431	10,555.7	86.6666	10,555.7	87.6735	10,555.7	82.5603	10,555.7	85.1123	10,555.7	78.1656	10,555.7	80.6826	10,555.7	74.6907	10,555.7	75.3046	10,555.7	71.8158	10,555.7	74.1393	10,555.7	67.6233	10,555.7	73.5743	10,555.7	62.9551	10,555.7	69.9196	10,555.7	57.6448	10,555.7	68.3426	10,555.7	54.2068	10,555.7	66.2334	10,555.7	51.6298	10,555.7	66.6581	10,555.7	50.5514	10,555.7	66.2029	10,555.7	45.8171	10,555.7	63.5991	10,555.7	29.926	10,555.7	60.8212	10,555.7	47.1088	10,555.7	51.8424	10,555.7	58.4093	10,555.7	48.6353	10,555.7	50.2802	10,555.7	55.4412	10,555.7	46.5045	10,555.7	49.2269	10,555.7	54.3615
10,927.7	87.8132	10,927.7	86.0405	10,927.7	87.1153	10,927.7	81.987	10,927.7	84.1407	10,927.7	76.9793	10,927.7	78.6382	10,927.7	72.7822	10,927.7	74.1721	10,927.7	66.9072	10,927.7	72.1118	10,927.7	57.9851	10,927.7	70.8718	10,927.7	51.464	10,927.7	69.0565	10,927.7	50.7249	10,927.7	64.684	10,927.7	49.2858	10,927.7	61.1961	10,927.7	45.8116	10,927.7	63.1369	10,927.7	44.8002	10,927.7	64.6234	10,927.7	42.2931	10,927.7	61.7943	10,927.7	37.2406	10,927.7	61.2617	10,927.7	37.0874	10,927.7	49.9496	10,927.7	52.8404	10,927.7	46.1271	10,927.7	48.0775	10,927.7	51.9523	10,927.7	45.2527	10,927.7	50.3907	10,927.7	51.2282
11,313	86.3801	11,313	84.5445	11,313	85.8393	11,313	80.4548	11,313	82.2179	11,313	74.6895	11,313	77.2269	11,313	69.0438	11,313	73.8479	11,313	60.6338	11,313	70.9016	11,313	59.8468	11,313	67.9705	11,313	58.9406	11,313	64.0928	11,313	57.0273	11,313	57.167	11,313	55.4983	11,313	57.1509	11,313	51.4157	11,313	56.7491	11,313	47.5316	11,313	62.6867	11,313	48.5431	11,313	62.1685	11,313	38.9171	11,313	61.8306	11,313	45.0218	11,313	50.5297	11,313	53.4484	11,313	40.3547	11,313	50.6816	11,313	46.1224	11,313	48.2942	11,313	45.839	11,313	43.9082
11,712.9	84.5328	11,712.9	83.1945	11,712.9	83.2882	11,712.9	78.949	11,712.9	79.2911	11,712.9	72.1477	11,712.9	75.156	11,712.9	65.1304	11,712.9	71.2092	11,712.9	63.0311	11,712.9	67.8035	11,712.9	63.9315	11,712.9	64.1138	11,712.9	61.5891	11,712.9	58.272	11,712.9	59.0048	11,712.9	55.1905	11,712.9	56.0148	11,712.9	47.8045	11,712.9	52.0632	11,712.9	51.0953	11,712.9	49.5513	11,712.9	58.0535	11,712.9	48.0198	11,712.9	61.173	11,712.9	41.1802	11,712.9	60.5382	11,712.9	45.8875	11,712.9	50.649	11,712.9	55.3323	11,712.9	45.2822	11,712.9	49.4228	11,712.9	37.7567	11,712.9	39.8363	11,712.9	35.0725	11,712.9	48.2684
12,126	83.2791	12,126	82.4199	12,126	80.8234	12,126	78.4293	12,126	75.5709	12,126	72.0088	12,126	72.8495	12,126	67.7524	12,126	69.0501	12,126	65.61	12,126	63.3474	12,126	64.2421	12,126	52.5069	12,126	60.3878	12,126	56.8192	12,126	57.7354	12,126	55.4646	12,126	53.9323	12,126	50.1275	12,126	50.322	12,126	55.1063	12,126	48.7302	12,126	59.9084	12,126	45.5069	12,126	63.0463	12,126	41.9228	12,126	59.9312	12,126	40.7271	12,126	47.9899	12,126	53.3907	12,126	43.866	12,126	44.8814	12,126	39.3756	12,126	38.4284	12,126	44.7269	12,126	45.5572
12,553.7	84.7591	12,553.7	83.1357	12,553.7	83.3027	12,553.7	78.9046	12,553.7	79.6839	12,553.7	72.7956	12,553.7	75.8456	12,553.7	68.5759	12,553.7	70.6595	12,553.7	64.7757	12,553.7	61.5563	12,553.7	63.2323	12,553.7	51.3581	12,553.7	59.9575	12,553.7	58.0631	12,553.7	57.7028	12,553.7	55.7732	12,553.7	54.0288	12,553.7	55.5188	12,553.7	49.4282	12,553.7	59.298	12,553.7	46.9478	12,553.7	63.758	12,553.7	44.338	12,553.7	65.314	12,553.7	42.3362	12,553.7	61.8672	12,553.7	47.7799	12,553.7	46.7732	12,553.7	53.9307	12,553.7	50.1334	12,553.7	46.184	12,553.7	41.0536	12,553.7	41.073	12,553.7	49.9411	12,553.7	51.0193
12,996.1	87.1338	12,996.1	85.1927	12,996.1	85.9927	12,996.1	80.1451	12,996.1	82.3209	12,996.1	73.576	12,996.1	78.3989	12,996.1	70.4474	12,996.1	72.4183	12,996.1	65.8126	12,996.1	59.3242	12,996.1	65.4742	12,996.1	60.6809	12,996.1	63.1815	12,996.1	62.4754	12,996.1	59.2868	12,996.1	59.4286	12,996.1	56.6186	12,996.1	56.0402	12,996.1	51.3514	12,996.1	57.9015	12,996.1	47.6874	12,996.1	63.3718	12,996.1	47.5913	12,996.1	65.9533	12,996.1	40.3506	12,996.1	62.9471	12,996.1	48.7349	12,996.1	51.3139	12,996.1	57.0786	12,996.1	53.8586	12,996.1	55.8784	12,996.1	51.8619	12,996.1	43.4306	12,996.1	47.0878	12,996.1	51.9631
13,454.6	89.2043	13,454.6	86.753	13,454.6	87.7481	13,454.6	80.8795	13,454.6	83.2606	13,454.6	75.3214	13,454.6	78.6039	13,454.6	71.533	13,454.6	69.2807	13,454.6	64.0119	13,454.6	61.0702	13,454.6	67.7604	13,454.6	69.3995	13,454.6	65.2071	13,454.6	67.3901	13,454.6	61.5088	13,454.6	64.0997	13,454.6	57.9814	13,454.6	59.5989	13,454.6	53.4142	13,454.6	60.5942	13,454.6	47.5853	13,454.6	65.4276	13,454.6	51.4491	13,454.6	67.3835	13,454.6	42.26	13,454.6	62.288	13,454.6	51.8329	13,454.6	53.5083	13,454.6	57.3293	13,454.6	50.1057	13,454.6	56.5521	13,454.6	54.2716	13,454.6	40.4981	13,454.6	49.1577	13,454.6	54.2621
13,929.2	88.0132	13,929.2	84.754	13,929.2	86.6887	13,929.2	78.4161	13,929.2	81.8378	13,929.2	73.7353	13,929.2	75.4225	13,929.2	65.2759	13,929.2	63.2227	13,929.2	64.1966	13,929.2	66.0746	13,929.2	67.0723	13,929.2	70.3748	13,929.2	62.9808	13,929.2	69.5907	13,929.2	57.9429	13,929.2	65.2727	13,929.2	55.8542	13,929.2	62.0657	13,929.2	46.5294	13,929.2	63.5827	13,929.2	43.6289	13,929.2	65.6478	13,929.2	46.6835	13,929.2	67.242	13,929.2	40.0219	13,929.2	62.3584	13,929.2	50.8672	13,929.2	51.2567	13,929.2	51.9293	13,929.2	52.6724	13,929.2	53.6256	13,929.2	37.9208	13,929.2	44.1803	13,929.2	33.3723	13,929.2	50.9295
14,419.9	84.9462	14,419.9	81.848	14,419.9	83.9606	14,419.9	77.1576	14,419.9	79.4884	14,419.9	71.3767	14,419.9	73.303	14,419.9	57.9249	14,419.9	48.1456	14,419.9	66.1808	14,419.9	66.4498	14,419.9	66.101	14,419.9	68.324	14,419.9	61.5096	14,419.9	67.5474	14,419.9	54.845	14,419.9	62.5804	14,419.9	52.0673	14,419.9	59.7754	14,419.9	45.9451	14,419.9	60.7584	14,419.9	42.325	14,419.9	63.987	14,419.9	40.2588	14,419.9	64.4537	14,419.9	43.979	14,419.9	59.269	14,419.9	47.4415	14,419.9	51.9005	14,419.9	53.3117	14,419.9	42.0993	14,419.9	50.5416	14,419.9	36.7348	14,419.9	42.7619	14,419.9	42.1873	14,419.9	52.6795
14,928.2	81.7701	14,928.2	78.1593	14,928.2	81.4858	14,928.2	74.307	14,928.2	77.3015	14,928.2	64.186	14,928.2	68.5634	14,928.2	65.9579	14,928.2	62.8287	14,928.2	67.1192	14,928.2	67.5521	14,928.2	65.6318	14,928.2	68.9464	14,928.2	61.228	14,928.2	64.1199	14,928.2	55.3011	14,928.2	59.6656	14,928.2	50.6598	14,928.2	52.6316	14,928.2	43.7478	14,928.2	57.3003	14,928.2	41.5572	14,928.2	61.3018	14,928.2	39.4258	14,928.2	62.1512	14,928.2	38.0326	14,928.2	57.6148	14,928.2	43.3001	14,928.2	48.6085	14,928.2	49.3022	14,928.2	43.5003	14,928.2	43.0642	14,928.2	43.8421	14,928.2	44.6779	14,928.2	32.9237	14,928.2	47.2577
15,455.6	79.8129	15,455.6	78.0469	15,455.6	78.8499	15,455.6	73.5842	15,455.6	74.4977	15,455.6	67.2012	15,455.6	66.3599	15,455.6	70.2406	15,455.6	64.1788	15,455.6	69.4813	15,455.6	66.6359	15,455.6	65.5812	15,455.6	62.9083	15,455.6	59.579	15,455.6	56.5266	15,455.6	52.2177	15,455.6	50.6112	15,455.6	45.7457	15,455.6	41.654	15,455.6	37.3863	15,455.6	50.7336	15,455.6	23.8723	15,455.6	55.9461	15,455.6	38.4493	15,455.6	58.4896	15,455.6	38.9974	15,455.6	55.5957	15,455.6	42.1198	15,455.6	46.8418	15,455.6	45.2692	15,455.6	42.1586	15,455.6	42.4565	15,455.6	41.47	15,455.6	42.0171	15,455.6	42.3418	15,455.6	46.0755
16,000.5	80.9575	16,000.5	77.9109	16,000.5	79.4767	16,000.5	71.6585	16,000.5	74.0259	16,000.5	68.1009	16,000.5	62.9769	16,000.5	71.2693	16,000.5	67.027	16,000.5	68.3484	16,000.5	66.3404	16,000.5	63.069	16,000.5	62.1557	16,000.5	59.0927	16,000.5	54.4996	16,000.5	54.6183	16,000.5	47.3489	16,000.5	49.6959	16,000.5	48.2767	16,000.5	44.067	16,000.5	52.0653	16,000.5	39.3415	16,000.5	56.0055	16,000.5	42.4409	16,000.5	57.4393	16,000.5	44.5609	16,000.5	52.7819	16,000.5	42.268	16,000.5	42.2836	16,000.5	43.84	16,000.5	44.7483	16,000.5	49.51	16,000.5	23.6386	16,000.5	29.3894	16,000.5	46.8731	16,000.5	43.1694
16,564.5	80.1897	16,564.5	76.4664	16,564.5	78.9996	16,564.5	71.3607	16,564.5	73.1067	16,564.5	69.5659	16,564.5	67.411	16,564.5	69.9432	16,564.5	66.7154	16,564.5	62.2845	16,564.5	65.2205	16,564.5	58.3801	16,564.5	56.9604	16,564.5	61.6247	16,564.5	56.6351	16,564.5	58.0557	16,564.5	54.4023	16,564.5	54.1669	16,564.5	51.2309	16,564.5	50.5612	16,564.5	52.8727	16,564.5	46.796	16,564.5	52.273	16,564.5	48.0443	16,564.5	53.4444	16,564.5	48.1661	16,564.5	51.1857	16,564.5	42.6828	16,564.5	45.7417	16,564.5	45.4803	16,564.5	48.5889	16,564.5	56.1626	16,564.5	45.9	16,564.5	28.4641	16,564.5	47.1316	16,564.5	42.6308
17,148.9	80.7026	17,148.9	76.6518	17,148.9	79.7654	17,148.9	73.262	17,148.9	73.4804	17,148.9	71.382	17,148.9	66.5242	17,148.9	68.7727	17,148.9	67.8695	17,148.9	47.1878	17,148.9	62.9728	17,148.9	60.8185	17,148.9	59.4613	17,148.9	63.1969	17,148.9	60.4829	17,148.9	60.291	17,148.9	57.3265	17,148.9	56.0178	17,148.9	55.8662	17,148.9	51.9501	17,148.9	58.5093	17,148.9	49.3162	17,148.9	58.07	17,148.9	50.075	17,148.9	56.3158	17,148.9	50.754	17,148.9	41.1008	17,148.9	44.9654	17,148.9	46.4572	17,148.9	44.1892	17,148.9	49.8413	17,148.9	58.7537	17,148.9	48.1678	17,148.9	28.6377	17,148.9	47.6814	17,148.9	49.7101
17,752.4	78.2661	17,752.4	75.7153	17,752.4	77.07	17,752.4	71.8933	17,752.4	71.8016	17,752.4	68.5601	17,752.4	68.0853	17,752.4	65.1749	17,752.4	68.0197	17,752.4	51.653	17,752.4	59.7043	17,752.4	60.8096	17,752.4	60.508	17,752.4	62.7218	17,752.4	58.8419	17,752.4	60.4218	17,752.4	54.1979	17,752.4	55.2122	17,752.4	49.1421	17,752.4	52.3542	17,752.4	52.5285	17,752.4	47.1794	17,752.4	54.8618	17,752.4	49.6351	17,752.4	56.2416	17,752.4	48.8565	17,752.4	50.2309	17,752.4	45.3592	17,752.4	43.6068	17,752.4	46.4006	17,752.4	46.1446	17,752.4	57.4893	17,752.4	47.9927	17,752.4	34.4774	17,752.4	43.5994	17,752.4	51.3263
18,379.4	77.7708	18,379.4	76.1701	18,379.4	74.1938	18,379.4	70.5593	18,379.4	67.939	18,379.4	66.5791	18,379.4	66.065	18,379.4	62.1137	18,379.4	62.9713	18,379.4	48.5144	18,379.4	52.9009	18,379.4	61.9687	18,379.4	56.3128	18,379.4	62.3319	18,379.4	49.5985	18,379.4	59.1933	18,379.4	24.0354	18,379.4	53.9975	18,379.4	26.486	18,379.4	49.9286	18,379.4	38.824	18,379.4	45.9167	18,379.4	42.9754	18,379.4	49.189	18,379.4	51.21	18,379.4	44.9764	18,379.4	49.3884	18,379.4	45.3451	18,379.4	40.3906	18,379.4	47.459	18,379.4	41.7141	18,379.4	54.6741	18,379.4	41.8697	18,379.4	22.6838	18,379.4	40.8624	18,379.4	50.1369
19,026.9	76.4323	19,026.9	74.4053	19,026.9	71.8669	19,026.9	69.6756	19,026.9	66.7668	19,026.9	63.7659	19,026.9	64.7952	19,026.9	53.216	19,026.9	54.2354	19,026.9	54.4275	19,026.9	58.9515	19,026.9	59.3761	19,026.9	51.4326	19,026.9	60.7376	19,026.9	44.164	19,026.9	57.7877	19,026.9	50.0801	19,026.9	52.0246	19,026.9	44.1279	19,026.9	49.3578	19,026.9	43.4226	19,026.9	44.3832	19,026.9	42.4575	19,026.9	46.7091	19,026.9	45.2376	19,026.9	42.8956	19,026.9	46.6138	19,026.9	44.4843	19,026.9	41.8884	19,026.9	42.811	19,026.9	38.627	19,026.9	53.55	19,026.9	42.1371	19,026.9	30.5337	19,026.9	43.706	19,026.9	48.4005
19,697.8	70.883	19,697.8	68.385	19,697.8	68.3924	19,697.8	62.8617	19,697.8	68.0578	19,697.8	50.8486	19,697.8	65.436	19,697.8	53.231	19,697.8	56.8227	19,697.8	53.9854	19,697.8	57.7071	19,697.8	59.4934	19,697.8	45.4648	19,697.8	59.1274	19,697.8	48.8344	19,697.8	55.2322	19,697.8	49.0447	19,697.8	49.0391	19,697.8	43.0047	19,697.8	46.2706	19,697.8	43.9627	19,697.8	39.5609	19,697.8	45.0596	19,697.8	43.6041	19,697.8	41.9633	19,697.8	41.349	19,697.8	46.3232	19,697.8	42.7087	19,697.8	36.4345	19,697.8	37.5037	19,697.8	34.4276	19,697.8	50.3383	19,697.8	42.4987	19,697.8	35.8555	19,697.8	38.7086	19,697.8	45.0296
19,999.5	68.2374	19,999.5	66.6011	19,999.5	67.6438	19,999.5	61.4589	19,999.5	67.802	19,999.5	59.4006	19,999.5	64.0937	19,999.5	55.3899	19,999.5	56.2818	19,999.5	53.533	19,999.5	54.4023	19,999.5	58.8627	19,999.5	46.1951	19,999.5	57.1328	19,999.5	48.0554	19,999.5	53.0437	19,999.5	45.3104	19,999.5	46.7875	19,999.5	40.092	19,999.5	45.2257	19,999.5	42.136	19,999.5	39.6888	19,999.5	44.547	19,999.5	40.7845	19,999.5	39.276	19,999.5	36.8774	19,999.5	45.9024	19,999.5	43.3622	19,999.5	38.3625	19,999.5	34.488	19,999.5	38.6295	19,999.5	47.0535	19,999.5	43.5656	19,999.5	39.6776	19,999.5	43.2099	19,999.5	43.161
