"SPL Horizontal"
"On-Axis"		"10°"		"-10°"		"20°"		"-20°"		"30°"		"-30°"		"40°"		"-40°"		"50°"		"-50°"		"60°"		"-60°"		"70°"		"-70°"		"80°"		"-80°"		"90°"		"-90°"		"100°"		"-100°"		"110°"		"-110°"		"120°"		"-120°"		"130°"		"-130°"		"140°"		"-140°"		"150°"		"-150°"		"160°"		"-160°"		"170°"		"-170°"		"180°"
"Frequency [Hz]"	"Sound Pessure Level [dB]  / [2.83V 1m] "	"Frequency [Hz]"	"Sound Pessure Level [dB]  / [2.83V 1m] "	"Frequency [Hz]"	"Sound Pessure Level [dB]  / [2.83V 1m] "	"Frequency [Hz]"	"Sound Pessure Level [dB]  / [2.83V 1m] "	"Frequency [Hz]"	"Sound Pessure Level [dB]  / [2.83V 1m] "	"Frequency [Hz]"	"Sound Pessure Level [dB]  / [2.83V 1m] "	"Frequency [Hz]"	"Sound Pessure Level [dB]  / [2.83V 1m] "	"Frequency [Hz]"	"Sound Pessure Level [dB]  / [2.83V 1m] "	"Frequency [Hz]"	"Sound Pessure Level [dB]  / [2.83V 1m] "	"Frequency [Hz]"	"Sound Pessure Level [dB]  / [2.83V 1m] "	"Frequency [Hz]"	"Sound Pessure Level [dB]  / [2.83V 1m] "	"Frequency [Hz]"	"Sound Pessure Level [dB]  / [2.83V 1m] "	"Frequency [Hz]"	"Sound Pessure Level [dB]  / [2.83V 1m] "	"Frequency [Hz]"	"Sound Pessure Level [dB]  / [2.83V 1m] "	"Frequency [Hz]"	"Sound Pessure Level [dB]  / [2.83V 1m] "	"Frequency [Hz]"	"Sound Pessure Level [dB]  / [2.83V 1m] "	"Frequency [Hz]"	"Sound Pessure Level [dB]  / [2.83V 1m] "	"Frequency [Hz]"	"Sound Pessure Level [dB]  / [2.83V 1m] "	"Frequency [Hz]"	"Sound Pessure Level [dB]  / [2.83V 1m] "	"Frequency [Hz]"	"Sound Pessure Level [dB]  / [2.83V 1m] "	"Frequency [Hz]"	"Sound Pessure Level [dB]  / [2.83V 1m] "	"Frequency [Hz]"	"Sound Pessure Level [dB]  / [2.83V 1m] "	"Frequency [Hz]"	"Sound Pessure Level [dB]  / [2.83V 1m] "	"Frequency [Hz]"	"Sound Pessure Level [dB]  / [2.83V 1m] "	"Frequency [Hz]"	"Sound Pessure Level [dB]  / [2.83V 1m] "	"Frequency [Hz]"	"Sound Pessure Level [dB]  / [2.83V 1m] "	"Frequency [Hz]"	"Sound Pessure Level [dB]  / [2.83V 1m] "	"Frequency [Hz]"	"Sound Pessure Level [dB]  / [2.83V 1m] "	"Frequency [Hz]"	"Sound Pessure Level [dB]  / [2.83V 1m] "	"Frequency [Hz]"	"Sound Pessure Level [dB]  / [2.83V 1m] "	"Frequency [Hz]"	"Sound Pessure Level [dB]  / [2.83V 1m] "	"Frequency [Hz]"	"Sound Pessure Level [dB]  / [2.83V 1m] "	"Frequency [Hz]"	"Sound Pessure Level [dB]  / [2.83V 1m] "	"Frequency [Hz]"	"Sound Pessure Level [dB]  / [2.83V 1m] "	"Frequency [Hz]"	"Sound Pessure Level [dB]  / [2.83V 1m] "	"Frequency [Hz]"	"Sound Pessure Level [dB]  / [2.83V 1m] "
20.5078	71.9936	20.5078	71.9775	20.5078	71.9948	20.5078	71.9457	20.5078	71.9827	20.5078	71.8981	20.5078	71.9595	20.5078	71.8359	20.5078	71.9272	20.5078	71.7608	20.5078	71.8878	20.5078	71.6752	20.5078	71.8429	20.5078	71.582	20.5078	71.7939	20.5078	71.4843	20.5078	71.7416	20.5078	71.3855	20.5078	71.6865	20.5078	71.2896	20.5078	71.6284	20.5078	71.2006	20.5078	71.5669	20.5078	71.123	20.5078	71.5012	20.5078	71.0612	20.5078	71.4309	20.5078	71.0188	20.5078	71.3564	20.5078	70.9984	20.5078	71.2793	20.5078	71.0011	20.5078	71.203	20.5078	71.0263	20.5078	71.1318	20.5078	71.0712
21.9727	75.0556	21.9727	75.0564	21.9727	75.0376	21.9727	75.0395	21.9727	75.0035	21.9727	75.0049	21.9727	74.9546	21.9727	74.9532	21.9727	74.8925	21.9727	74.8855	21.9727	74.8187	21.9727	74.8037	21.9727	74.7349	21.9727	74.7098	21.9727	74.6431	21.9727	74.6064	21.9727	74.5454	21.9727	74.4964	21.9727	74.4445	21.9727	74.3834	21.9727	74.343	21.9727	74.2712	21.9727	74.2437	21.9727	74.1643	21.9727	74.1494	21.9727	74.067	21.9727	74.0627	21.9727	73.9832	21.9727	73.9865	21.9727	73.9161	21.9727	73.9233	21.9727	73.8679	21.9727	73.8752	21.9727	73.8398	21.9727	73.8443	21.9727	73.8321
23.4375	77.4247	23.4375	77.4076	23.4375	77.4244	23.4375	77.3732	23.4375	77.4074	23.4375	77.3223	23.4375	77.3745	23.4375	77.2561	23.4375	77.327	23.4375	77.1764	23.4375	77.2661	23.4375	77.0854	23.4375	77.1933	23.4375	76.9853	23.4375	77.1104	23.4375	76.8788	23.4375	77.0191	23.4375	76.7689	23.4375	76.9219	23.4375	76.6591	23.4375	76.8213	23.4375	76.5533	23.4375	76.7202	23.4375	76.4558	23.4375	76.6215	23.4375	76.3707	23.4375	76.5279	23.4375	76.3016	23.4375	76.4421	23.4375	76.2515	23.4375	76.3666	23.4375	76.2218	23.4375	76.3038	23.4375	76.2132	23.4375	76.2559	23.4375	76.225
24.9023	79.1649	24.9023	79.1491	24.9023	79.1609	24.9023	79.1137	24.9023	79.1375	24.9023	79.0596	24.9023	79.0955	24.9023	78.9882	24.9023	79.0363	24.9023	78.9015	24.9023	78.9619	24.9023	78.8017	24.9023	78.8743	24.9023	78.6917	24.9023	78.7761	24.9023	78.5746	24.9023	78.6703	24.9023	78.4542	24.9023	78.5599	24.9023	78.3344	24.9023	78.4481	24.9023	78.2194	24.9023	78.3378	24.9023	78.1134	24.9023	78.2321	24.9023	78.0205	24.9023	78.1338	24.9023	77.944	24.9023	78.0456	24.9023	77.8865	24.9023	77.9699	24.9023	77.8495	24.9023	77.9089	24.9023	77.8339	24.9023	77.8648	24.9023	77.8393
26.3672	80.6535	26.3672	80.6398	26.3672	80.6463	26.3672	80.6054	26.3672	80.6184	26.3672	80.5511	26.3672	80.5704	26.3672	80.4782	26.3672	80.5034	26.3672	80.3886	26.3672	80.4191	26.3672	80.2843	26.3672	80.3193	26.3672	80.1683	26.3672	80.2066	26.3672	80.0437	26.3672	80.0839	26.3672	79.9141	26.3672	79.9546	26.3672	79.7835	26.3672	79.8223	26.3672	79.6559	26.3672	79.6912	26.3672	79.5357	26.3672	79.5657	26.3672	79.4268	26.3672	79.4502	26.3672	79.3326	26.3672	79.3494	26.3672	79.2562	26.3672	79.2669	26.3672	79.2	26.3672	79.2059	26.3672	79.1658	26.3672	79.1683	26.3672	79.155
27.832	81.5105	27.832	81.4944	27.832	81.5054	27.832	81.4572	27.832	81.4791	27.832	81.3998	27.832	81.4324	27.832	81.3235	27.832	81.3663	27.832	81.2302	27.832	81.2822	27.832	81.1222	27.832	81.1822	27.832	81.0025	27.832	81.0685	27.832	80.8743	27.832	80.9441	27.832	80.7415	27.832	80.8124	27.832	80.6083	27.832	80.6775	27.832	80.479	27.832	80.5436	27.832	80.3579	27.832	80.4155	27.832	80.2493	27.832	80.2979	27.832	80.1565	27.832	80.1952	27.832	80.0825	27.832	80.1109	27.832	80.0294	27.832	80.0478	27.832	79.9987	27.832	80.0077	27.832	79.9913
29.2969	82.0313	29.2969	82.0076	29.2969	82.0332	29.2969	81.9626	29.2969	82.0131	29.2969	81.8976	29.2969	81.9715	29.2969	81.8141	29.2969	81.9093	29.2969	81.7144	29.2969	81.8282	29.2969	81.6009	29.2969	81.73	29.2969	81.4767	29.2969	81.6176	29.2969	81.345	29.2969	81.4939	29.2969	81.2098	29.2969	81.3627	29.2969	81.0752	29.2969	81.2279	29.2969	80.9456	29.2969	81.094	29.2969	80.8257	29.2969	80.9651	29.2969	80.7196	29.2969	80.8457	29.2969	80.6312	29.2969	80.7394	29.2969	80.5635	29.2969	80.6495	29.2969	80.5187	29.2969	80.5785	29.2969	80.498	29.2969	80.5287	29.2969	80.5015
30.7617	82.3618	30.7617	82.3446	30.7617	82.3574	30.7617	82.306	30.7617	82.3314	30.7617	82.2471	30.7617	82.2846	30.7617	82.1692	30.7617	82.218	30.7617	82.0744	30.7617	82.1333	30.7617	81.9651	30.7617	82.0327	30.7617	81.8441	30.7617	81.9189	30.7617	81.7147	30.7617	81.795	30.7617	81.5808	30.7617	81.6645	30.7617	81.4464	30.7617	81.5314	30.7617	81.3157	30.7617	81.3999	30.7617	81.1934	30.7617	81.2741	30.7617	81.0835	30.7617	81.158	30.7617	80.9901	30.7617	81.0554	30.7617	80.9165	30.7617	80.9694	30.7617	80.8652	30.7617	80.9026	30.7617	80.838	30.7617	80.8574	30.7617	80.8354
32.2266	82.5953	32.2266	82.5867	32.2266	82.5827	32.2266	82.5574	32.2266	82.5491	32.2266	82.5083	32.2266	82.4955	32.2266	82.4406	32.2266	82.423	32.2266	82.3567	32.2266	82.3336	32.2266	82.259	32.2266	82.2297	32.2266	82.1506	32.2266	82.1146	32.2266	82.0352	32.2266	81.9918	32.2266	81.9163	32.2266	81.8654	32.2266	81.7979	32.2266	81.7396	32.2266	81.6835	32.2266	81.6191	32.2266	81.5765	32.2266	81.508	32.2266	81.4795	32.2266	81.4105	32.2266	81.3947	32.2266	81.3298	32.2266	81.324	32.2266	81.2685	32.2266	81.2686	32.2266	81.2279	32.2266	81.23	32.2266	81.2084	32.2266	81.2095
33.6914	82.8015	33.6914	82.7843	33.6914	82.7974	33.6914	82.7465	33.6914	82.7723	33.6914	82.689	33.6914	82.7267	33.6914	82.6137	33.6914	82.6621	33.6914	82.5227	33.6914	82.5803	33.6914	82.4188	33.6914	82.4837	33.6914	82.3055	33.6914	82.3755	33.6914	82.1865	33.6914	82.2591	33.6914	82.0657	33.6914	82.1383	33.6914	81.9473	33.6914	82.0174	33.6914	81.8351	33.6914	81.9002	33.6914	81.7325	33.6914	81.7908	33.6914	81.6427	33.6914	81.6925	33.6914	81.5677	33.6914	81.6081	33.6914	81.5093	33.6914	81.5398	33.6914	81.4685	33.6914	81.4889	33.6914	81.4459	33.6914	81.456	33.6914	81.4417
35.1562	82.8537	35.1562	82.8365	35.1562	82.8484	35.1562	82.7972	35.1562	82.8206	35.1562	82.737	35.1562	82.7711	35.1562	82.6574	35.1562	82.7011	35.1562	82.5606	35.1562	82.6125	35.1562	82.4492	35.1562	82.5079	35.1562	82.3267	35.1562	82.3903	35.1562	82.1966	35.1562	82.2634	35.1562	82.0634	35.1562	82.1311	35.1562	81.9311	35.1562	81.9977	35.1562	81.8044	35.1562	81.8676	35.1562	81.6871	35.1562	81.7451	35.1562	81.583	35.1562	81.6339	35.1562	81.4951	35.1562	81.5375	35.1562	81.4258	35.1562	81.4586	35.1562	81.3769	35.1562	81.3992	35.1562	81.3494	35.1562	81.3607	35.1562	81.344
36.6211	83.0342	36.6211	83.0153	36.6211	83.0301	36.6211	82.974	36.6211	83.0032	36.6211	82.9114	36.6211	82.9542	36.6211	82.8294	36.6211	82.8847	36.6211	82.7304	36.6211	82.7968	36.6211	82.6176	36.6211	82.6934	36.6211	82.4946	36.6211	82.5779	36.6211	82.3656	36.6211	82.4542	36.6211	82.2349	36.6211	82.3264	36.6211	82.1072	36.6211	82.1988	36.6211	81.9865	36.6211	82.0756	36.6211	81.8769	36.6211	81.9605	36.6211	81.7815	36.6211	81.8568	36.6211	81.7029	36.6211	81.7671	36.6211	81.6426	36.6211	81.6932	36.6211	81.6018	36.6211	81.6368	36.6211	81.581	36.6211	81.5988	36.6211	81.5801
38.0859	83.2414	38.0859	83.2195	38.0859	83.2394	38.0859	83.1744	38.0859	83.2136	38.0859	83.1073	38.0859	83.1648	38.0859	83.0205	38.0859	83.0945	38.0859	82.9166	38.0859	83.0052	38.0859	82.7993	38.0859	82.8999	38.0859	82.6725	38.0859	82.7821	38.0859	82.5406	38.0859	82.6561	38.0859	82.4083	38.0859	82.5261	38.0859	82.2801	38.0859	82.3966	38.0859	82.1603	38.0859	82.2716	38.0859	82.0525	38.0859	82.1551	38.0859	81.9598	38.0859	82.0504	38.0859	81.8842	38.0859	81.9599	38.0859	81.8271	38.0859	81.8858	38.0859	81.7891	38.0859	81.8292	38.0859	81.7705	38.0859	81.7908	38.0859	81.7712
39.5508	83.5002	39.5508	83.4845	39.5508	83.4921	39.5508	83.4451	39.5508	83.4605	39.5508	83.3829	39.5508	83.4068	39.5508	83.2998	39.5508	83.3326	39.5508	83.1981	39.5508	83.2406	39.5508	83.0812	39.5508	83.1336	39.5508	82.9531	39.5508	83.0156	39.5508	82.8183	39.5508	82.8905	39.5508	82.682	39.5508	82.7626	39.5508	82.5492	39.5508	82.6363	39.5508	82.4247	39.5508	82.5155	39.5508	82.3127	39.5508	82.4034	39.5508	82.2166	39.5508	82.3028	39.5508	82.1388	39.5508	82.2157	39.5508	82.0809	39.5508	82.1437	39.5508	82.0433	39.5508	82.0878	39.5508	82.0259	39.5508	82.0489	39.5508	82.028
41.0156	83.6638	41.0156	83.6536	41.0156	83.6489	41.0156	83.6185	41.0156	83.6095	41.0156	83.5596	41.0156	83.5468	41.0156	83.4786	41.0156	83.4629	41.0156	83.3781	41.0156	83.3607	41.0156	83.2614	41.0156	83.2437	41.0156	83.1325	41.0156	83.1161	41.0156	82.996	41.0156	82.9825	41.0156	82.8569	41.0156	82.8479	41.0156	82.72	41.0156	82.7169	41.0156	82.5902	41.0156	82.5935	41.0156	82.4716	41.0156	82.4812	41.0156	82.3679	41.0156	82.3823	41.0156	82.2816	41.0156	82.2986	41.0156	82.2147	41.0156	82.2311	41.0156	82.1679	41.0156	82.1809	41.0156	82.1415	41.0156	82.1487	41.0156	82.1353
42.4805	84.0006	42.4805	83.9934	42.4805	83.9826	42.4805	83.9616	42.4805	83.9397	42.4805	83.9063	42.4805	83.8729	42.4805	83.8295	42.4805	83.7842	42.4805	83.7338	42.4805	83.6764	42.4805	83.6225	42.4805	83.5532	42.4805	83.4993	42.4805	83.4191	42.4805	83.3685	42.4805	83.2791	42.4805	83.2347	42.4805	83.1385	42.4805	83.1023	42.4805	83.0026	42.4805	82.9757	42.4805	82.8763	42.4805	82.8585	42.4805	82.7635	42.4805	82.7538	42.4805	82.6674	42.4805	82.6639	42.4805	82.5899	42.4805	82.5905	42.4805	82.532	42.4805	82.5344	42.4805	82.494	42.4805	82.4963	42.4805	82.4757	42.4805	82.4766
43.9453	84.182	43.9453	84.1789	43.9453	84.1591	43.9453	84.1502	43.9453	84.1105	43.9453	84.0969	43.9453	84.0374	43.9453	84.0207	43.9453	83.9416	43.9453	83.9242	43.9453	83.826	43.9453	83.8106	43.9453	83.6942	43.9453	83.6837	43.9453	83.5507	43.9453	83.548	43.9453	83.4009	43.9453	83.408	43.9453	83.2505	43.9453	83.2684	43.9453	83.1052	43.9453	83.1337	43.9453	82.9705	43.9453	83.0078	43.9453	82.8512	43.9453	82.8939	43.9453	82.7506	43.9453	82.7946	43.9453	82.6712	43.9453	82.7118	43.9453	82.6139	43.9453	82.6466	43.9453	82.5787	43.9453	82.6	43.9453	82.5652	43.9453	82.5726
45.4102	84.4935	45.4102	84.4903	45.4102	84.4707	45.4102	84.4617	45.4102	84.4219	45.4102	84.4089	45.4102	84.3482	45.4102	84.3341	45.4102	84.2513	45.4102	84.24	45.4102	84.1341	45.4102	84.1298	45.4102	84.0003	45.4102	84.0073	45.4102	83.8546	45.4102	83.8767	45.4102	83.7025	45.4102	83.7422	45.4102	83.5501	45.4102	83.608	45.4102	83.4034	45.4102	83.4778	45.4102	83.2683	45.4102	83.3552	45.4102	83.1497	45.4102	83.2428	45.4102	83.0514	45.4102	83.1431	45.4102	82.9755	45.4102	83.0577	45.4102	82.9231	45.4102	82.9881	45.4102	82.894	45.4102	82.9356	45.4102	82.8872	45.4102	82.9016
46.875	84.7947	46.875	84.7851	46.875	84.7784	46.875	84.7504	46.875	84.7364	46.875	84.6922	46.875	84.6694	46.875	84.6127	46.875	84.5793	46.875	84.515	46.875	84.4689	46.875	84.4025	46.875	84.3419	46.875	84.2793	46.875	84.2028	46.875	84.1497	46.875	84.0569	46.875	84.018	46.875	83.91	46.875	83.8885	46.875	83.768	46.875	83.7648	46.875	83.6364	46.875	83.65	46.875	83.5201	46.875	83.5467	46.875	83.4225	46.875	83.4568	46.875	83.3458	46.875	83.3814	46.875	83.2909	46.875	83.3217	46.875	83.2577	46.875	83.2785	46.875	83.2454	46.875	83.2527
48.3398	85.0616	48.3398	85.051	48.3398	85.0459	48.3398	85.0147	48.3398	85.0038	48.3398	84.9545	48.3398	84.9366	48.3398	84.8728	48.3398	84.8461	48.3398	84.7727	48.3398	84.7353	48.3398	84.6581	48.3398	84.6082	48.3398	84.5333	48.3398	84.4696	48.3398	84.4029	48.3398	84.3249	48.3398	84.2716	48.3398	84.18	48.3398	84.1437	48.3398	84.0408	48.3398	84.023	48.3398	83.9127	48.3398	83.9126	48.3398	83.8003	48.3398	83.8148	48.3398	83.7068	48.3398	83.7309	48.3398	83.6339	48.3398	83.6618	48.3398	83.5823	48.3398	83.6077	48.3398	83.5512	48.3398	83.5689	48.3398	83.5396	48.3398	83.5459
51.2695	85.582	51.2695	85.5711	51.2695	85.5651	51.2695	85.533	51.2695	85.5206	51.2695	85.4694	51.2695	85.4494	51.2695	85.3826	51.2695	85.3538	51.2695	85.2759	51.2695	85.2369	51.2695	85.1533	51.2695	85.1028	51.2695	85.0192	51.2695	84.9566	51.2695	84.8788	51.2695	84.8041	51.2695	84.737	51.2695	84.6515	51.2695	84.5989	51.2695	84.505	51.2695	84.4689	51.2695	84.3702	51.2695	84.3506	51.2695	84.2518	51.2695	84.2465	51.2695	84.153	51.2695	84.1585	51.2695	84.0756	51.2695	84.0871	51.2695	84.0198	51.2695	84.0325	51.2695	83.9851	51.2695	83.9946	51.2695	83.9701	51.2695	83.9736
52.7344	85.8082	52.7344	85.8009	52.7344	85.7875	52.7344	85.7662	52.7344	85.7391	52.7344	85.7059	52.7344	85.664	52.7344	85.6222	52.7344	85.5645	52.7344	85.5183	52.7344	85.4438	52.7344	85.398	52.7344	85.3062	52.7344	85.2657	52.7344	85.1569	52.7344	85.1262	52.7344	85.0017	52.7344	84.9843	52.7344	84.8469	52.7344	84.845	52.7344	84.6989	52.7344	84.7125	52.7344	84.5633	52.7344	84.5906	52.7344	84.4448	52.7344	84.4821	52.7344	84.3466	52.7344	84.3889	52.7344	84.2706	52.7344	84.312	52.7344	84.2171	52.7344	84.2518	52.7344	84.1854	52.7344	84.2085	52.7344	84.1744	52.7344	84.1824
54.1992	86.0918	54.1992	86.0897	54.1992	86.0652	54.1992	86.0595	54.1992	86.0101	54.1992	86.0029	54.1992	85.9277	54.1992	85.9223	54.1992	85.8204	54.1992	85.8209	54.1992	85.6915	54.1992	85.7025	54.1992	85.5456	54.1992	85.5716	54.1992	85.3881	54.1992	85.4328	54.1992	85.2252	54.1992	85.2909	54.1992	85.0638	54.1992	85.1505	54.1992	84.9106	54.1992	85.0157	54.1992	84.7717	54.1992	84.89	54.1992	84.6522	54.1992	84.7761	54.1992	84.5556	54.1992	84.6758	54.1992	84.4837	54.1992	84.5904	54.1992	84.4365	54.1992	84.5206	54.1992	84.4131	54.1992	84.4668	54.1992	84.4116	54.1992	84.4301
55.6641	86.3691	55.6641	86.3608	55.6641	86.3486	55.6641	86.3249	55.6641	86.2993	55.6641	86.2634	55.6641	86.2223	55.6641	86.1792	55.6641	86.1196	55.6641	86.076	55.6641	85.9948	55.6641	85.9583	55.6641	85.8522	55.6641	85.8307	55.6641	85.6976	55.6641	85.698	55.6641	85.5373	55.6641	85.5649	55.6641	85.3784	55.6641	85.4354	55.6641	85.2278	55.6641	85.3128	55.6641	85.092	55.6641	85.1997	55.6641	84.9761	55.6641	85.0975	55.6641	84.8837	55.6641	85.0073	55.6641	84.8163	55.6641	84.9296	55.6641	84.7738	55.6641	84.8647	55.6641	84.7545	55.6641	84.8133	55.6641	84.7563	55.6641	84.7766
58.5938	86.7836	58.5938	86.7599	58.5938	86.7784	58.5938	86.7086	58.5938	86.7438	58.5938	86.6323	58.5938	86.6809	58.5938	86.5343	58.5938	86.5917	58.5938	86.419	58.5938	86.4792	58.5938	86.2916	58.5938	86.3481	58.5938	86.1576	58.5938	86.2036	58.5938	86.0226	58.5938	86.0521	58.5938	85.8918	58.5938	85.9004	58.5938	85.7698	58.5938	85.7554	58.5938	85.66	58.5938	85.6233	58.5938	85.5643	58.5938	85.5093	58.5938	85.4835	58.5938	85.4167	58.5938	85.4169	58.5938	85.3472	58.5938	85.3635	58.5938	85.3002	58.5938	85.3219	58.5938	85.2739	58.5938	85.2913	58.5938	85.2655	58.5938	85.2721
60.0586	86.9852	60.0586	86.9564	60.0586	86.9852	60.0586	86.9004	60.0586	86.9564	60.0586	86.8196	60.0586	86.8993	60.0586	86.7173	60.0586	86.816	60.0586	86.598	60.0586	86.7095	60.0586	86.4669	60.0586	86.584	60.0586	86.3295	60.0586	86.4447	60.0586	86.1917	60.0586	86.2977	60.0586	86.0591	60.0586	86.1496	60.0586	85.9365	60.0586	86.0069	60.0586	85.8275	60.0586	85.8757	60.0586	85.7343	60.0586	85.7609	60.0586	85.6576	60.0586	85.6657	60.0586	85.5969	60.0586	85.5917	60.0586	85.5507	60.0586	85.5386	60.0586	85.5173	60.0586	85.5049	60.0586	85.4957	60.0586	85.4881	60.0586	85.4856
62.9883	87.3798	62.9883	87.3502	62.9883	87.3793	62.9883	87.2917	62.9883	87.3487	62.9883	87.2069	62.9883	87.2891	62.9883	87.0992	62.9883	87.2027	62.9883	86.9734	62.9883	87.093	62.9883	86.8349	62.9883	86.9646	62.9883	86.6899	62.9883	86.8229	62.9883	86.545	62.9883	86.6742	62.9883	86.4063	62.9883	86.5253	62.9883	86.2792	62.9883	86.3826	62.9883	86.1679	62.9883	86.2521	62.9883	86.0747	62.9883	86.1384	62.9883	86.0004	62.9883	86.0444	62.9883	85.9441	62.9883	85.9713	62.9883	85.9036	62.9883	85.9183	62.9883	85.8768	62.9883	85.8834	62.9883	85.8615	62.9883	85.8638	62.9883	85.8571
64.4531	87.5392	64.4531	87.5062	64.4531	87.5413	64.4531	87.4436	64.4531	87.5123	64.4531	87.3541	64.4531	87.4531	64.4531	87.2416	64.4531	87.3662	64.4531	87.1109	64.4531	87.2551	64.4531	86.968	64.4531	87.1244	64.4531	86.8193	64.4531	86.9801	64.4531	86.6716	64.4531	86.8287	64.4531	86.5312	64.4531	86.6772	64.4531	86.4038	64.4531	86.5324	64.4531	86.2934	64.4531	86.4006	64.4531	86.2024	64.4531	86.2862	64.4531	86.1311	64.4531	86.1923	64.4531	86.0783	64.4531	86.1195	64.4531	86.0415	64.4531	86.0669	64.4531	86.0182	64.4531	86.032	64.4531	86.0059	64.4531	86.0119	64.4531	86.0037
67.3828	87.946	67.3828	87.9045	67.3828	87.9544	67.3828	87.8312	67.3828	87.9294	67.3828	87.7291	67.3828	87.8724	67.3828	87.6025	67.3828	87.7858	67.3828	87.4567	67.3828	87.6734	67.3828	87.2985	67.3828	87.5401	67.3828	87.1354	67.3828	87.3921	67.3828	86.9752	67.3828	87.2361	67.3828	86.8254	67.3828	87.0794	67.3828	86.6923	67.3828	86.9292	67.3828	86.5804	67.3828	86.7917	67.3828	86.4921	67.3828	86.6718	67.3828	86.4272	67.3828	86.5724	67.3828	86.3834	67.3828	86.4942	67.3828	86.3572	67.3828	86.4359	67.3828	86.3449	67.3828	86.3947	67.3828	86.3433	67.3828	86.3672	67.3828	86.3507
68.8477	88.1451	68.8477	88.0985	68.8477	88.1575	68.8477	88.0189	68.8477	88.1358	68.8477	87.9092	68.8477	88.0812	68.8477	87.7739	68.8477	87.9965	68.8477	87.6186	68.8477	87.8856	68.8477	87.4507	68.8477	87.7537	68.8477	87.2783	68.8477	87.6068	68.8477	87.1099	68.8477	87.4518	68.8477	86.9541	68.8477	87.2959	68.8477	86.818	68.8477	87.146	68.8477	86.7066	68.8477	87.0085	68.8477	86.6223	68.8477	86.888	68.8477	86.5647	68.8477	86.7873	68.8477	86.5306	68.8477	86.7069	68.8477	86.5156	68.8477	86.6453	68.8477	86.5148	68.8477	86.5994	68.8477	86.5242	68.8477	86.5657	68.8477	86.5412
71.7773	88.5242	71.7773	88.4726	71.7773	88.5396	71.7773	88.3857	71.7773	88.5191	71.7773	88.2661	71.7773	88.4646	71.7773	88.1178	71.7773	88.379	71.7773	87.9465	71.7773	88.2664	71.7773	87.7596	71.7773	88.1322	71.7773	87.5659	71.7773	87.9823	71.7773	87.3751	71.7773	87.8236	71.7773	87.1971	71.7773	87.663	71.7773	87.0408	71.7773	87.507	71.7773	86.9131	71.7773	87.3616	71.7773	86.8177	71.7773	87.231	71.7773	86.7552	71.7773	87.118	71.7773	86.7225	71.7773	87.0229	71.7773	86.7146	71.7773	86.9447	71.7773	86.7256	71.7773	86.8808	71.7773	86.7503	71.7773	86.8283	71.7773	86.785
74.707	88.8855	74.707	88.8386	74.707	88.8954	74.707	88.7553	74.707	88.8694	74.707	88.6375	74.707	88.8098	74.707	88.4887	74.707	88.7203	74.707	88.3142	74.707	88.6057	74.707	88.121	74.707	88.4717	74.707	87.9178	74.707	88.3249	74.707	87.7146	74.707	88.1722	74.707	87.5222	74.707	88.0201	74.707	87.351	74.707	87.8744	74.707	87.2098	74.707	87.7396	74.707	87.1046	74.707	87.6182	74.707	87.0374	74.707	87.5109	74.707	87.0065	74.707	87.4167	74.707	87.007	74.707	87.3336	74.707	87.032	74.707	87.2589	74.707	87.0747	74.707	87.1909	74.707	87.1289
77.6367	89.2431	77.6367	89.2111	77.6367	89.2378	77.6367	89.1422	77.6367	89.1961	77.6367	89.0384	77.6367	89.1205	77.6367	88.9035	77.6367	89.015	77.6367	88.7428	77.6367	88.8852	77.6367	88.563	77.6367	88.7379	77.6367	88.3728	77.6367	88.5806	77.6367	88.1816	77.6367	88.4216	77.6367	87.9997	77.6367	88.2686	77.6367	87.8369	77.6367	88.1284	77.6367	87.7012	77.6367	88.0055	77.6367	87.5982	77.6367	87.9022	77.6367	87.5296	77.6367	87.8179	77.6367	87.4939	77.6367	87.7499	77.6367	87.486	77.6367	87.694	77.6367	87.4993	77.6367	87.646	77.6367	87.5267	77.6367	87.6026	77.6367	87.5625
79.1016	89.3844	79.1016	89.3568	79.1016	89.3735	79.1016	89.2913	79.1016	89.3251	79.1016	89.1901	79.1016	89.2417	79.1016	89.0573	79.1016	89.1275	79.1016	88.8982	79.1016	88.9883	79.1016	88.72	79.1016	88.8315	79.1016	88.5314	79.1016	88.6653	79.1016	88.3422	79.1016	88.4988	79.1016	88.1626	79.1016	88.3406	79.1016	88.0022	79.1016	88.1981	79.1016	87.8691	79.1016	88.0765	79.1016	87.7683	79.1016	87.9781	79.1016	87.7011	79.1016	87.902	79.1016	87.665	79.1016	87.8448	79.1016	87.6546	79.1016	87.8016	79.1016	87.663	79.1016	87.7671	79.1016	87.6828	79.1016	87.7368	79.1016	87.7085
82.0312	89.6155	82.0312	89.5931	82.0312	89.5965	82.0312	89.5299	82.0312	89.5372	82.0312	89.4282	82.0312	89.4404	82.0312	89.2923	82.0312	89.3108	82.0312	89.1279	82.0312	89.1548	82.0312	88.9427	82.0312	88.9804	82.0312	88.7462	82.0312	88.7971	82.0312	88.5487	82.0312	88.615	82.0312	88.3613	82.0312	88.4441	82.0312	88.1945	82.0312	88.2932	82.0312	88.0568	82.0312	88.1683	82.0312	87.9533	82.0312	88.0721	82.0312	87.8851	82.0312	88.0034	82.0312	87.8487	82.0312	87.9578	82.0312	87.8375	82.0312	87.9286	82.0312	87.8433	82.0312	87.9087	82.0312	87.858	82.0312	87.8921	82.0312	87.8753
84.9609	89.9135	84.9609	89.8972	84.9609	89.8859	84.9609	89.8373	84.9609	89.8155	84.9609	89.7361	84.9609	89.7051	84.9609	89.5975	84.9609	89.5594	84.9609	89.4273	84.9609	89.3844	84.9609	89.233	84.9609	89.1882	84.9609	89.024	84.9609	88.9803	84.9609	88.8108	84.9609	88.7713	84.9609	88.6047	84.9609	88.5725	84.9609	88.4165	84.9609	88.3939	84.9609	88.2552	84.9609	88.2435	84.9609	88.1269	84.9609	88.1259	84.9609	88.0334	84.9609	88.0413	84.9609	87.9723	84.9609	87.9858	84.9609	87.9379	84.9609	87.9531	84.9609	87.9226	84.9609	87.9355	84.9609	87.9189	84.9609	87.9262	84.9609	87.921
87.8906	89.787	87.8906	89.7577	87.8906	89.7744	87.8906	89.6875	87.8906	89.7209	87.8906	89.5789	87.8906	89.6289	87.8906	89.436	87.8906	89.5027	87.8906	89.2652	87.8906	89.3483	87.8906	89.0747	87.8906	89.1737	87.8906	88.8743	87.8906	88.9888	87.8906	88.6754	87.8906	88.8044	87.8906	88.4898	87.8906	88.6314	87.8906	88.3283	87.8906	88.4797	87.8906	88.1992	87.8906	88.356	87.8906	88.1072	87.8906	88.2634	87.8906	88.052	87.8906	88.2002	87.8906	88.029	87.8906	88.161	87.8906	88.0304	87.8906	88.138	87.8906	88.0466	87.8906	88.1228	87.8906	88.0689	87.8906	88.1084	87.8906	88.0906
90.8203	89.9146	90.8203	89.8864	90.8203	89.8997	90.8203	89.8157	90.8203	89.8425	90.8203	89.7051	90.8203	89.7462	90.8203	89.5592	90.8203	89.6155	90.8203	89.3848	90.8203	89.4573	90.8203	89.1906	90.8203	89.2805	90.8203	88.9874	90.8203	89.0959	90.8203	88.7877	90.8203	88.9153	90.8203	88.6044	90.8203	88.7509	90.8203	88.4497	90.8203	88.6129	90.8203	88.3328	90.8203	88.5083	90.8203	88.2584	90.8203	88.4391	90.8203	88.2256	90.8203	88.4017	90.8203	88.2279	90.8203	88.388	90.8203	88.2545	90.8203	88.3872	90.8203	88.2934	90.8203	88.3882	90.8203	88.3327	90.8203	88.3821	90.8203	88.3638
95.2148	90.3459	95.2148	90.3275	95.2148	90.3141	95.2148	90.2602	95.2148	90.2324	95.2148	90.1472	95.2148	90.1027	95.2148	89.9933	95.2148	89.9291	95.2148	89.8049	95.2148	89.7179	95.2148	89.5908	95.2148	89.4779	95.2148	89.3616	95.2148	89.2208	95.2148	89.1295	95.2148	88.9604	95.2148	88.9075	95.2148	88.7126	95.2148	88.7082	95.2148	88.4929	95.2148	88.5413	95.2148	88.3144	95.2148	88.4123	95.2148	88.1853	95.2148	88.3212	95.2148	88.1068	95.2148	88.2624	95.2148	88.0734	95.2148	88.2266	95.2148	88.0742	95.2148	88.2028	95.2148	88.0961	95.2148	88.1814	95.2148	88.1265	95.2148	88.1564
98.1445	90.0655	98.1445	90.0495	98.1445	90.0311	98.1445	89.9835	98.1445	89.9475	98.1445	89.8699	98.1445	89.8182	98.1445	89.7135	98.1445	89.6483	98.1445	89.5208	98.1445	89.4453	98.1445	89.3008	98.1445	89.2186	98.1445	89.0646	98.1445	88.9798	98.1445	88.825	98.1445	88.7422	98.1445	88.5961	98.1445	88.5199	98.1445	88.3915	98.1445	88.3259	98.1445	88.2226	98.1445	88.1706	98.1445	88.0963	98.1445	88.0591	98.1445	88.0136	98.1445	87.9905	98.1445	87.9696	98.1445	87.958	98.1445	87.9544	98.1445	87.9505	98.1445	87.9558	98.1445	87.9559	98.1445	87.9626	98.1445	87.9634	98.1445	87.9663
101.074	89.8924	101.074	89.8671	101.074	89.865	101.074	89.791	101.074	89.7853	101.074	89.6682	101.074	89.6562	101.074	89.5049	101.074	89.4827	101.074	89.3098	101.074	89.2727	101.074	89.0933	101.074	89.0368	101.074	88.8675	101.074	88.7883	101.074	88.6452	101.074	88.5429	101.074	88.4393	101.074	88.3172	101.074	88.2609	101.074	88.1266	101.074	88.1184	101.074	87.9827	101.074	88.0156	101.074	87.8903	101.074	87.9516	101.074	87.8462	101.074	87.9207	101.074	87.8403	101.074	87.9132	101.074	87.8583	101.074	87.9179	101.074	87.8851	101.074	87.9236	101.074	87.9087	101.074	87.922
105.469	90.2938	105.469	90.2434	105.469	90.2833	105.469	90.1335	105.469	90.2122	105.469	89.9674	105.469	90.083	105.469	89.7508	105.469	89.9005	105.469	89.4924	105.469	89.6721	105.469	89.2044	105.469	89.4082	105.469	88.9033	105.469	89.1224	105.469	88.609	105.469	88.8309	105.469	88.3434	105.469	88.5518	105.469	88.1263	105.469	88.3034	105.469	87.9713	105.469	88.1017	105.469	87.8817	105.469	87.9575	105.469	87.8498	105.469	87.8733	105.469	87.8591	105.469	87.8429	105.469	87.8892	105.469	87.8521	105.469	87.9208	105.469	87.8826	105.469	87.9395	105.469	87.916	105.469	87.9377
108.398	90.513	108.398	90.4923	108.398	90.4744	108.398	90.412	108.398	90.3784	108.398	90.2731	108.398	90.2287	108.398	90.0788	108.398	90.0308	108.398	89.8345	108.398	89.7927	108.398	89.5489	108.398	89.5247	108.398	89.2345	108.398	89.2402	108.398	88.9083	108.398	88.9545	108.398	88.591	108.398	88.6844	108.398	88.3053	108.398	88.4455	108.398	88.0725	108.398	88.2503	108.398	87.9068	108.398	88.1055	108.398	87.812	108.398	88.0104	108.398	87.7796	108.398	87.9576	108.398	87.792	108.398	87.9344	108.398	87.8278	108.398	87.9257	108.398	87.8678	108.398	87.9174	108.398	87.8992
112.793	90.6698	112.793	90.6593	112.793	90.6166	112.793	90.5859	112.793	90.5008	112.793	90.4525	112.793	90.3259	112.793	90.2642	112.793	90.0973	112.793	90.0285	112.793	89.8234	112.793	89.7555	112.793	89.5157	112.793	89.4579	112.793	89.1894	112.793	89.1513	112.793	88.8629	112.793	88.853	112.793	88.5573	112.793	88.5812	112.793	88.2931	112.793	88.3517	112.793	88.0866	112.793	88.1753	112.793	87.9463	112.793	88.055	112.793	87.8699	112.793	87.9853	112.793	87.8459	112.793	87.9536	112.793	87.8568	112.793	87.9438	112.793	87.884	112.793	87.9403	112.793	87.9121	112.793	87.9315
117.188	90.5302	117.188	90.511	117.188	90.4864	117.188	90.4303	117.188	90.3792	117.188	90.2917	117.188	90.2103	117.188	90.1	117.188	89.9832	117.188	89.8625	117.188	89.7044	117.188	89.5886	117.188	89.3837	117.188	89.2905	117.188	89.0353	117.188	88.983	117.188	88.6779	117.188	88.683	117.188	88.3346	117.188	88.4078	117.188	88.03	117.188	88.173	117.188	87.786	117.188	87.989	117.188	87.6166	117.188	87.8587	117.188	87.5238	117.188	87.7764	117.188	87.4968	117.188	87.7298	117.188	87.5162	117.188	87.7027	117.188	87.5599	117.188	87.6798	117.188	87.6086	117.188	87.6499
120.117	90.5429	120.117	90.5034	120.117	90.5196	120.117	90.4039	120.117	90.4323	120.117	90.2489	120.117	90.282	120.117	90.0448	120.117	90.0713	120.117	89.8003	120.117	89.8056	120.117	89.5261	120.117	89.4936	120.117	89.2352	120.117	89.1477	120.117	88.9425	120.117	88.7854	120.117	88.6638	120.117	88.4288	120.117	88.4139	120.117	88.1029	120.117	88.2051	120.117	87.8324	120.117	88.0436	120.117	87.6359	120.117	87.929	120.117	87.5204	120.117	87.8533	120.117	87.4799	120.117	87.8036	120.117	87.4968	120.117	87.765	120.117	87.5483	120.117	87.7245	120.117	87.6126	120.117	87.674
124.512	90.4875	124.512	90.4054	124.512	90.5066	124.512	90.263	124.512	90.4623	124.512	90.0651	124.512	90.3556	124.512	89.8189	124.512	90.1899	124.512	89.5347	124.512	89.9702	124.512	89.2262	124.512	89.7047	124.512	88.9105	124.512	89.4042	124.512	88.607	124.512	89.0835	124.512	88.3361	124.512	88.7608	124.512	88.1153	124.512	88.4576	124.512	87.9558	124.512	88.1952	124.512	87.8596	124.512	87.9915	124.512	87.8185	124.512	87.8562	124.512	87.8167	124.512	87.7874	124.512	87.8347	124.512	87.7726	124.512	87.8542	124.512	87.7919	124.512	87.8617	124.512	87.8239	124.512	87.8507
128.906	90.3877	128.906	90.3007	128.906	90.4088	128.906	90.1485	128.906	90.3656	128.906	89.9342	128.906	90.2616	128.906	89.6636	128.906	90.1028	128.906	89.3459	128.906	89.8971	128.906	88.9947	128.906	89.655	128.906	88.6285	128.906	89.3892	128.906	88.2707	128.906	89.1142	128.906	87.9485	128.906	88.8461	128.906	87.6883	128.906	88.6005	128.906	87.5107	128.906	88.3909	128.906	87.4235	128.906	88.2261	128.906	87.4196	128.906	88.108	128.906	87.479	128.906	88.031	128.906	87.5748	128.906	87.9828	128.906	87.6813	128.906	87.9476	128.906	87.7784	128.906	87.9093	128.906	87.855
133.301	90.3118	133.301	90.2852	133.301	90.268	133.301	90.1879	133.301	90.1566	133.301	90.0216	133.301	89.9827	133.301	89.7904	133.301	89.7544	133.301	89.5017	133.301	89.4832	133.301	89.1669	133.301	89.1846	133.301	88.8025	133.301	88.8776	133.301	88.4311	133.301	88.5844	133.301	88.0806	133.301	88.327	133.301	87.7821	133.301	88.1242	133.301	87.563	133.301	87.9867	133.301	87.4403	133.301	87.9142	133.301	87.4139	133.301	87.8952	133.301	87.4666	133.301	87.9103	133.301	87.5698	133.301	87.9362	133.301	87.6917	133.301	87.9514	133.301	87.805	133.301	87.9393	133.301	87.8906
139.16	90.1242	139.16	90.0949	139.16	90.0795	139.16	89.9937	139.16	89.961	139.16	89.8245	139.16	89.7707	139.16	89.5934	139.16	89.5131	139.16	89.3097	139.16	89.1962	139.16	88.9857	139.16	88.8323	139.16	88.638	139.16	88.4398	139.16	88.2872	139.16	88.0439	139.16	87.9575	139.16	87.6764	139.16	87.6742	139.16	87.3712	139.16	87.4589	139.16	87.1574	139.16	87.3242	139.16	87.0491	139.16	87.2687	139.16	87.0398	139.16	87.2774	139.16	87.1041	139.16	87.3248	139.16	87.2063	139.16	87.3821	139.16	87.3108	139.16	87.4231	139.16	87.3902	139.16	87.4287
143.555	89.8721	143.555	89.7968	143.555	89.8704	143.555	89.6461	143.555	89.7919	143.555	89.4241	143.555	89.6389	143.555	89.1375	143.555	89.4157	143.555	88.7966	143.555	89.1295	143.555	88.4164	143.555	88.7911	143.555	88.0176	143.555	88.4161	143.555	87.6268	143.555	88.026	143.555	87.275	143.555	87.6481	143.555	86.9931	143.555	87.3138	143.555	86.8043	143.555	87.0526	143.555	86.7163	143.555	86.8849	143.555	86.7183	143.555	86.814	143.555	86.7841	143.555	86.8244	143.555	86.8796	143.555	86.8862	143.555	86.9719	143.555	86.9645	143.555	87.0354	143.555	87.0281	143.555	87.055
147.949	89.7527	147.949	89.6924	147.949	89.7305	147.949	89.55	147.949	89.6273	147.949	89.3274	147.949	89.4464	147.949	89.029	147.949	89.1939	147.949	88.6627	147.949	88.879	147.949	88.241	147.949	88.5158	147.949	87.7838	147.949	88.1241	147.949	87.3203	147.949	87.7299	147.949	86.8891	147.949	87.3643	147.949	86.5344	147.949	87.0591	147.949	86.2949	147.949	86.8403	147.949	86.1902	147.949	86.7191	147.949	86.2118	147.949	86.6878	147.949	86.3257	147.949	86.7218	147.949	86.4859	147.949	86.7869	147.949	86.648	147.949	86.8485	147.949	86.7783	147.949	86.8781	147.949	86.857
153.809	90.1622	153.809	90.1237	153.809	90.1114	153.809	89.9969	153.809	89.9718	153.809	89.7834	153.809	89.745	153.809	89.486	153.809	89.4347	153.809	89.1087	153.809	89.0477	153.809	88.6587	153.809	88.5951	153.809	88.1484	153.809	88.0946	153.809	87.5989	153.809	87.5727	153.809	87.0438	153.809	87.0658	153.809	86.5301	153.809	86.6182	153.809	86.1121	153.809	86.2736	153.809	85.8361	153.809	86.0604	153.809	85.7195	153.809	85.9792	153.809	85.7416	153.809	86.0005	153.809	85.8529	153.809	86.0765	153.809	85.9951	153.809	86.1575	153.809	86.1193	153.809	86.2043	153.809	86.1933
159.668	90.3482	159.668	90.2939	159.668	90.314	159.668	90.1538	159.668	90.1901	159.668	89.9317	159.668	89.9764	159.668	89.6332	159.668	89.6751	159.668	89.2656	159.668	89.2911	159.668	88.8394	159.668	88.8342	159.668	88.3692	159.668	88.3207	159.668	87.8758	159.668	87.7764	159.668	87.3879	159.668	87.2381	159.668	86.9412	159.668	86.752	159.668	86.5735	159.668	86.3659	159.668	86.315	159.668	86.1147	159.668	86.1768	159.668	86.0061	159.668	86.1445	159.668	86.0156	159.668	86.1831	159.668	86.0968	159.668	86.2493	159.668	86.199	159.668	86.3034	159.668	86.2809	159.668	86.3178
165.527	90.653	165.527	90.6127	165.527	90.6041	165.527	90.4848	165.527	90.4646	165.527	90.271	165.527	90.2345	165.527	89.9731	165.527	89.9152	165.527	89.5936	165.527	89.5108	165.527	89.1364	165.527	89.0296	165.527	88.61	165.527	88.4862	165.527	88.0309	165.527	87.9039	165.527	87.4279	165.527	87.3175	165.527	86.846	165.527	86.7734	165.527	86.3432	165.527	86.3241	165.527	85.977	165.527	86.0134	165.527	85.7807	165.527	85.8581	165.527	85.7442	165.527	85.8384	165.527	85.8179	165.527	85.9055	165.527	85.9356	165.527	86.0004	165.527	86.0385	165.527	86.0723	165.527	86.0886
171.387	90.3862	171.387	90.3241	171.387	90.3648	171.387	90.1817	171.387	90.258	171.387	89.9632	171.387	90.0642	171.387	89.6741	171.387	89.7827	171.387	89.3216	171.387	89.4137	171.387	88.915	171.387	88.9593	171.387	88.4664	171.387	88.4258	171.387	87.9916	171.387	87.8275	171.387	87.5115	171.387	87.1916	171.387	87.0521	171.387	86.5625	171.387	86.6432	171.387	86.002	171.387	86.3126	171.387	85.5759	171.387	86.0773	171.387	85.3296	171.387	85.9354	171.387	85.263	171.387	85.8647	171.387	85.331	171.387	85.8291	171.387	85.4665	171.387	85.7909	171.387	85.6092	171.387	85.7214
177.246	89.6949	177.246	89.6156	177.246	89.6975	177.246	89.4582	177.246	89.6266	177.246	89.2233	177.246	89.4861	177.246	88.9138	177.246	89.2807	177.246	88.5361	177.246	89.0158	177.246	88.1007	177.246	88.6973	177.246	87.624	177.246	88.3334	177.246	87.1309	177.246	87.9363	177.246	86.6554	177.246	87.5244	177.246	86.2403	177.246	87.1239	177.246	85.9287	177.246	86.7673	177.246	85.7514	177.246	86.4869	177.246	85.712	177.246	86.3042	177.246	85.7834	177.246	86.2197	177.246	85.9179	177.246	86.2107	177.246	86.0643	177.246	86.2386	177.246	86.1822	177.246	86.2622	177.246	86.2489
183.105	89.6778	183.105	89.6401	183.105	89.6255	183.105	89.5134	183.105	89.4836	183.105	89.3006	183.105	89.254	183.105	89.0061	183.105	88.9409	183.105	88.6372	183.105	88.5518	183.105	88.2048	183.105	88.0994	183.105	87.7253	183.105	87.6041	183.105	87.2235	183.105	87.0973	183.105	86.7354	183.105	86.623	183.105	86.3074	183.105	86.2338	183.105	85.9897	183.105	85.9784	183.105	85.8204	183.105	85.8812	183.105	85.8066	183.105	85.9288	183.105	85.9188	183.105	86.0739	183.105	86.1015	183.105	86.2546	183.105	86.2939	183.105	86.4138	183.105	86.4452	183.105	86.5105	183.105	86.5222
188.965	90.1974	188.965	90.1303	188.965	90.1699	188.965	89.9722	188.965	90.0446	188.965	89.7268	188.965	89.8187	188.965	89.3988	188.965	89.4901	188.965	88.9942	188.965	89.0582	188.965	88.5223	188.965	88.5254	188.965	87.9977	188.965	87.9001	188.965	87.4438	188.965	87.2023	188.965	86.8961	188.965	86.4715	188.965	86.4021	188.965	85.7763	188.965	86.0144	188.965	85.214	188.965	85.7743	188.965	84.8831	188.965	85.6922	188.965	84.829	188.965	85.739	188.965	85.0072	188.965	85.8563	188.965	85.3103	188.965	85.9775	188.965	85.6258	188.965	86.0442	188.965	85.8744	188.965	86.0162
196.289	90.8342	196.289	90.7458	196.289	90.8219	196.289	90.5571	196.289	90.7086	196.289	90.2696	196.289	90.4948	196.289	89.885	196.289	90.1817	196.289	89.4063	196.289	89.7716	196.289	88.8385	196.289	89.2689	196.289	88.1921	196.289	88.6825	196.289	87.4886	196.289	88.0288	196.289	86.7691	196.289	87.3362	196.289	86.1014	196.289	86.651	196.289	85.5734	196.289	86.038	196.289	85.2621	196.289	85.5707	196.289	85.187	196.289	85.3041	196.289	85.2927	196.289	85.2441	196.289	85.4813	196.289	85.34	196.289	85.6591	196.289	85.5093	196.289	85.7635	196.289	85.6712	196.289	85.7665
203.613	90.0713	203.613	89.9926	203.613	90.0653	203.613	89.8283	203.613	89.976	203.613	89.5785	203.613	89.8044	203.613	89.2445	203.613	89.5503	203.613	88.8289	203.613	89.2122	203.613	88.3366	203.613	88.7882	203.613	87.7761	203.613	88.2782	203.613	87.1633	203.613	87.6878	203.613	86.5272	203.613	87.0342	203.613	85.9146	203.613	86.3541	203.613	85.3886	203.613	85.7081	203.613	85.0124	203.613	85.1753	203.613	84.8199	203.613	84.8272	203.613	84.794	203.613	84.6895	203.613	84.8733	203.613	84.7234	203.613	84.9814	203.613	84.8475	203.613	85.0547	203.613	84.978	203.613	85.0558
210.938	89.3933	210.938	89.3329	210.938	89.3631	210.938	89.1771	210.938	89.2476	210.938	88.922	210.938	89.0517	210.938	88.5655	210.938	88.7794	210.938	88.1087	210.938	88.4337	210.938	87.5567	210.938	88.0167	210.938	86.9221	210.938	87.5311	210.938	86.2291	210.938	86.9839	210.938	85.5207	210.938	86.3924	210.938	84.8637	210.938	85.7915	210.938	84.3447	210.938	85.2381	210.938	84.0417	210.938	84.8038	210.938	83.9815	210.938	84.5478	210.938	84.1175	210.938	84.4822	210.938	84.3552	210.938	84.5595	210.938	84.5973	210.938	84.6965	210.938	84.773	210.938	84.8112	210.938	84.8457
218.262	89.347	218.262	89.3322	218.262	89.2815	218.262	89.2362	218.262	89.1365	218.262	89.0574	218.262	88.913	218.262	88.7923	218.262	88.6117	218.262	88.4359	218.262	88.2328	218.262	87.9813	218.262	87.776	218.262	87.423	218.262	87.2419	218.262	86.7608	218.262	86.6357	218.262	86.0073	218.262	85.9724	218.262	85.1992	218.262	85.2839	218.262	84.4086	218.262	84.6243	218.262	83.7428	218.262	84.0658	218.262	83.3115	218.262	83.6777	218.262	83.1604	218.262	83.4914	218.262	83.2333	218.262	83.4766	218.262	83.4089	218.262	83.5551	218.262	83.5718	218.262	83.637	218.262	83.6531
225.586	89.5163	225.586	89.4552	225.586	89.4755	225.586	89.2922	225.586	89.3372	225.586	89.0316	225.586	89.1095	225.586	88.6806	225.586	88.8031	225.586	88.2486	225.586	88.4294	225.586	87.7463	225.586	87.9993	225.586	87.1863	225.586	87.5233	225.586	86.5865	225.586	87.0137	225.586	85.9762	225.586	86.4897	225.586	85.4014	225.586	85.9825	225.586	84.9241	225.586	85.5359	225.586	84.6057	225.586	85.1984	225.586	84.4782	225.586	85.0027	225.586	84.5231	225.586	84.9464	225.586	84.6786	225.586	84.9889	225.586	84.8681	225.586	85.0682	225.586	85.0272	225.586	85.1246	225.586	85.1164
232.91	89.9033	232.91	89.9445	232.91	89.7552	232.91	89.8781	232.91	89.5015	232.91	89.7036	232.91	89.1449	232.91	89.4197	232.91	88.6909	232.91	89.0255	232.91	88.1491	232.91	88.5213	232.91	87.5343	232.91	87.9107	232.91	86.868	232.91	87.2049	232.91	86.1798	232.91	86.43	232.91	85.51	232.91	85.6377	232.91	84.9115	232.91	84.9136	232.91	84.4453	232.91	84.3662	232.91	84.1643	232.91	84.0817	232.91	84.0866	232.91	84.065	232.91	84.1783	232.91	84.2308	232.91	84.3651	232.91	84.4577	232.91	84.5622	232.91	84.6443	232.91	84.6989	232.91	84.7311
241.699	90.2142	241.699	90.1101	241.699	90.2197	241.699	89.9121	241.699	90.1215	241.699	89.6253	241.699	89.9139	241.699	89.2545	241.699	89.5902	241.699	88.804	241.699	89.1431	241.699	88.279	241.699	88.5664	241.699	87.687	241.699	87.8592	241.699	87.0422	241.699	87.0332	241.699	86.3719	241.699	86.1259	241.699	85.723	241.699	85.2183	241.699	85.1628	241.699	84.4449	241.699	84.7644	241.699	83.9597	241.699	84.5727	241.699	83.8424	241.699	84.575	241.699	84.0288	241.699	84.7039	241.699	84.3614	241.699	84.8711	241.699	84.6907	241.699	84.9973	241.699	84.9244	241.699	85.0256
250.488	89.759	250.488	89.6662	250.488	89.7632	250.488	89.4842	250.488	89.6796	250.488	89.2131	250.488	89.5093	250.488	88.8548	250.488	89.2525	250.488	88.4121	250.488	88.9086	250.488	87.8891	250.488	88.4754	250.488	87.2906	250.488	87.9494	250.488	86.6259	250.488	87.329	250.488	85.9161	250.488	86.6219	250.488	85.2079	250.488	85.8591	250.488	84.5848	250.488	85.1132	250.488	84.1569	250.488	84.505	250.488	84.0096	250.488	84.1638	250.488	84.1358	250.488	84.1406	250.488	84.4282	250.488	84.3575	250.488	84.7429	250.488	84.6618	250.488	84.9638	250.488	84.9137	250.488	85.0256
259.277	91.1021	259.277	91.0067	259.277	91.0727	259.277	90.7868	259.277	90.9191	259.277	90.4439	259.277	90.6436	259.277	89.9802	259.277	90.2491	259.277	89.3975	259.277	89.7382	259.277	88.6989	259.277	89.113	259.277	87.8916	259.277	88.3759	259.277	86.9949	259.277	87.5335	259.277	86.0527	259.277	86.6055	259.277	85.1498	259.277	85.6403	259.277	84.4134	259.277	84.7352	259.277	83.974	259.277	84.0388	259.277	83.8826	259.277	83.6949	259.277	84.0654	259.277	83.7328	259.277	84.3744	259.277	84.0304	259.277	84.6683	259.277	84.4052	259.277	84.8505	259.277	84.7117	259.277	84.8693
268.066	90.4662	268.066	90.4601	268.066	90.3786	268.066	90.3552	268.066	90.2034	268.066	90.147	268.066	89.947	268.066	89.8301	268.066	89.6149	268.066	89.3976	268.066	89.2086	268.066	88.8413	268.066	88.7253	268.066	88.1537	268.066	88.1599	268.066	87.3329	268.066	87.5115	268.066	86.3944	268.066	86.7927	268.066	85.3919	268.066	86.0408	268.066	84.4438	268.066	85.3258	268.066	83.733	268.066	84.7445	268.066	83.4224	268.066	84.3864	268.066	83.5174	268.066	84.28	268.066	83.8557	268.066	84.3667	268.066	84.2392	268.066	84.5321	268.066	84.5329	268.066	84.6621	268.066	84.6756
276.855	89.6278	276.855	89.5804	276.855	89.6132	276.855	89.4748	276.855	89.531	276.855	89.3111	276.855	89.374	276.855	89.0831	276.855	89.1319	276.855	88.7775	276.855	88.7906	276.855	88.3747	276.855	88.3324	276.855	87.854	276.855	87.7373	276.855	87.2007	276.855	86.9894	276.855	86.4177	276.855	86.0916	276.855	85.5433	276.855	85.0941	276.855	84.6764	276.855	84.1349	276.855	83.9849	276.855	83.4487	276.855	83.6441	276.855	83.244	276.855	83.7019	276.855	83.5005	276.855	84.0281	276.855	83.9842	276.855	84.423	276.855	84.4525	276.855	84.7289	276.855	84.7618	276.855	84.8549
287.109	89.9738	287.109	89.9663	287.109	89.8673	287.109	89.8469	287.109	89.6529	287.109	89.6234	287.109	89.3445	287.109	89.3078	287.109	88.9632	287.109	88.9112	287.109	88.532	287.109	88.4379	287.109	88.0683	287.109	87.8793	287.109	87.5753	287.109	87.2137	287.109	87.0395	287.109	86.4163	287.109	86.4364	287.109	85.4826	287.109	85.7502	287.109	84.4709	287.109	85.003	287.109	83.5561	287.109	84.2892	287.109	83.0161	287.109	83.776	287.109	83.0247	287.109	83.6105	287.109	83.4416	287.109	83.7786	287.109	83.9572	287.109	84.1042	287.109	84.3384	287.109	84.3848	287.109	84.4836
297.363	90.1066	297.363	90.0621	297.363	89.9983	297.363	89.8792	297.363	89.7299	297.363	89.5775	297.363	89.301	297.363	89.1775	297.363	88.7174	297.363	88.696	297.363	87.9896	297.363	88.1417	297.363	87.1338	297.363	87.514	297.363	86.178	297.363	86.806	297.363	85.1772	297.363	86.011	297.363	84.2331	297.363	85.1364	297.363	83.4956	297.363	84.2279	297.363	83.1043	297.363	83.4016	297.363	83.0907	297.363	82.8489	297.363	83.3544	297.363	82.7382	297.363	83.7425	297.363	83.05	297.363	84.1231	297.363	83.5722	297.363	84.4006	297.363	84.0704	297.363	84.5072	297.363	84.3997
307.617	89.98	307.617	89.7909	307.617	90.0707	307.617	89.4967	307.617	90.0625	307.617	89.09	307.617	89.9447	307.617	88.5702	307.617	89.6994	307.617	87.9484	307.617	89.3064	307.617	87.2465	307.617	88.7467	307.617	86.4927	307.617	88.0021	307.617	85.717	307.617	87.0502	307.617	84.9527	307.617	85.8635	307.617	84.2433	307.617	84.423	307.617	83.6435	307.617	82.7673	307.617	83.2002	307.617	81.1121	307.617	82.9248	307.617	79.9711	307.617	82.7852	307.617	79.8257	307.617	82.7252	307.617	80.4542	307.617	82.6819	307.617	81.2695	307.617	82.586	307.617	81.9325	307.617	82.3603
319.336	89.358	319.336	89.2873	319.336	89.3282	319.336	89.111	319.336	89.2047	319.336	88.8201	319.336	88.9984	319.336	88.3993	319.336	88.7221	319.336	87.8292	319.336	88.3838	319.336	87.0949	319.336	87.9791	319.336	86.1962	319.336	87.4854	319.336	85.1568	319.336	86.862	319.336	84.0355	319.336	86.0538	319.336	82.944	319.336	85.0065	319.336	82.0732	319.336	83.7064	319.336	81.6664	319.336	82.279	319.336	81.8457	319.336	81.1507	319.336	82.451	319.336	80.9255	319.336	83.1662	319.336	81.621	319.336	83.7336	319.336	82.6215	319.336	84.0081	319.336	83.4476	319.336	83.9208
329.59	89.0745	329.59	89.1346	329.59	88.9131	329.59	89.0886	329.59	88.6614	329.59	88.9371	329.59	88.3339	329.59	88.6819	329.59	87.9467	329.59	88.3157	329.59	87.5145	329.59	87.8139	329.59	87.0471	329.59	87.1317	329.59	86.547	329.59	86.2109	329.59	86.0101	329.59	84.9918	329.59	85.4293	329.59	83.4384	329.59	84.799	329.59	81.6083	329.59	84.1218	329.59	79.8423	329.59	83.4236	329.59	78.9355	329.59	82.7755	329.59	79.3675	329.59	82.299	329.59	80.4757	329.59	82.1045	329.59	81.4993	329.59	82.1778	329.59	82.1487	329.59	82.3507	329.59	82.4003
341.309	89.0644	341.309	88.9691	341.309	89.0388	341.309	88.7795	341.309	88.8772	341.309	88.5299	341.309	88.5768	341.309	88.254	341.309	88.143	341.309	87.9743	341.309	87.5823	341.309	87.6916	341.309	86.894	341.309	87.3747	341.309	86.064	341.309	86.9609	341.309	85.0661	341.309	86.3669	341.309	83.8838	341.309	85.513	341.309	82.573	341.309	84.3642	341.309	81.3822	341.309	83.011	341.309	80.792	341.309	81.7979	341.309	81.087	341.309	81.2738	341.309	81.9256	341.309	81.6162	341.309	82.7899	341.309	82.383	341.309	83.3979	341.309	83.1027	341.309	83.6569	341.309	83.5522
353.027	89.3204	353.027	89.2171	353.027	89.3079	353.027	88.9986	353.027	89.1848	353.027	88.6735	353.027	88.9603	353.027	88.2564	353.027	88.6446	353.027	87.7624	353.027	88.2421	353.027	87.1964	353.027	87.742	353.027	86.5455	353.027	87.1106	353.027	85.7761	353.027	86.2871	353.027	84.8397	353.027	85.1841	353.027	83.6933	353.027	83.6916	353.027	82.3553	353.027	81.7011	353.027	81.0278	353.027	79.2545	353.027	80.2009	353.027	77.1846	353.027	80.3041	353.027	77.3388	353.027	81.0834	353.027	79.1755	353.027	81.9388	353.027	80.919	353.027	82.4841	353.027	82.0486	353.027	82.5494
366.211	89.2565	366.211	89.1029	366.211	89.2337	366.211	88.7752	366.211	89.0493	366.211	88.2914	366.211	88.7329	366.211	87.6865	366.211	88.3232	366.211	87.0134	366.211	87.8594	366.211	86.3402	366.211	87.3706	366.211	85.7277	366.211	86.8637	366.211	85.1898	366.211	86.3116	366.211	84.6686	366.211	85.6467	366.211	84.0564	366.211	84.7684	366.211	83.2457	366.211	83.5699	366.211	82.1885	366.211	81.9902	366.211	80.9857	366.211	80.1463	366.211	79.9935	366.211	78.6081	366.211	79.6654	366.211	78.2659	366.211	79.9646	366.211	79.017	366.211	80.3553	366.211	79.9102	366.211	80.3922
379.395	89.0502	379.395	89.0516	379.395	88.9016	379.395	88.9142	379.395	88.5994	379.395	88.6395	379.395	88.1548	379.395	88.2231	379.395	87.6065	379.395	87.6649	379.395	87.0183	379.395	86.9752	379.395	86.4591	379.395	86.17	379.395	85.9697	379.395	85.2576	379.395	85.5368	379.395	84.2293	379.395	85.0936	379.395	83.0694	379.395	84.5465	379.395	81.797	379.395	83.8091	379.395	80.5343	379.395	82.8325	379.395	79.5414	379.395	81.6417	379.395	79.0563	379.395	80.3871	379.395	79.017	379.395	79.3621	379.395	79.1232	379.395	78.8427	379.395	79.1356	379.395	78.8112	379.395	78.9946
392.578	88.1678	392.578	88.0423	392.578	88.1644	392.578	87.8126	392.578	88.0198	392.578	87.5136	392.578	87.7326	392.578	87.1825	392.578	87.3142	392.578	86.8414	392.578	86.7912	392.578	86.4804	392.578	86.2031	392.578	86.0527	392.578	85.5908	392.578	85.4875	392.578	84.9771	392.578	84.7146	392.578	84.3541	392.578	83.6894	392.578	83.6891	392.578	82.4203	392.578	82.9483	392.578	81.0167	392.578	82.1288	392.578	79.7593	392.578	81.2941	392.578	79.052	392.578	80.5888	392.578	79.052	392.578	80.1725	392.578	79.4567	392.578	80.069	392.578	79.8713	392.578	80.1151	392.578	80.0938
405.762	88.332	405.762	88.2292	405.762	88.257	405.762	87.9429	405.762	88.0119	405.762	87.4775	405.762	87.6063	405.762	86.8591	405.762	87.0561	405.762	86.1438	405.762	86.3908	405.762	85.408	405.762	85.6564	405.762	84.7146	405.762	84.9055	405.762	84.0736	405.762	84.1695	405.762	83.4378	405.762	83.4363	405.762	82.748	405.762	82.6675	405.762	81.9899	405.762	81.8662	405.762	81.2297	405.762	81.1552	405.762	80.6173	405.762	80.7577	405.762	80.3306	405.762	80.7903	405.762	80.4378	405.762	81.1017	405.762	80.8106	405.762	81.4273	405.762	81.2273	405.762	81.5868	405.762	81.515
420.41	88.6005	420.41	88.61	420.41	88.4599	420.41	88.456	420.41	88.214	420.41	88.1056	420.41	87.8742	420.41	87.5315	420.41	87.432	420.41	86.7177	420.41	86.8625	420.41	85.667	420.41	86.1369	420.41	84.4078	420.41	85.2443	420.41	82.9999	420.41	84.2094	420.41	81.5389	420.41	83.0873	420.41	80.1512	420.41	81.9181	420.41	78.9698	420.41	80.6694	420.41	78.1197	420.41	79.2605	420.41	77.7434	420.41	77.7526	420.41	77.9519	420.41	76.6855	420.41	78.6187	420.41	76.8549	420.41	79.3695	420.41	77.992	420.41	79.8352	420.41	79.1378	420.41	79.7866
435.059	88.4413	435.059	88.3752	435.059	88.3543	435.059	88.1562	435.059	88.1298	435.059	87.8016	435.059	87.792	435.059	87.3366	435.059	87.3693	435.059	86.7841	435.059	86.8916	435.059	86.1622	435.059	86.3775	435.059	85.4847	435.059	85.8038	435.059	84.7449	435.059	85.088	435.059	83.8925	435.059	84.1177	435.059	82.838	435.059	82.8284	435.059	81.5133	435.059	81.3193	435.059	79.9974	435.059	79.9889	435.059	78.6882	435.059	79.4064	435.059	78.2114	435.059	79.6473	435.059	78.6748	435.059	80.2099	435.059	79.5164	435.059	80.669	435.059	80.2588	435.059	80.854	435.059	80.7185
451.172	89.2471	451.172	89.128	451.172	89.1627	451.172	88.8283	451.172	88.8912	451.172	88.4096	451.172	88.474	451.172	87.9534	451.172	87.955	451.172	87.5245	451.172	87.3626	451.172	87.1348	451.172	86.7149	451.172	86.7344	451.172	86.0409	451.172	86.2264	451.172	85.382	451.172	85.4894	451.172	84.7427	451.172	84.4002	451.172	84.04	451.172	82.8697	451.172	83.1443	451.172	80.9594	451.172	82.018	451.172	79.2441	451.172	80.8924	451.172	78.9484	451.172	80.3295	451.172	80.1357	451.172	80.7045	451.172	81.5452	451.172	81.6181	451.172	82.4766	451.172	82.429	451.172	82.7645
465.82	89.3576	465.82	89.2271	465.82	89.2427	465.82	88.8699	465.82	88.8725	465.82	88.3092	465.82	88.2642	465.82	87.5849	465.82	87.4839	465.82	86.7752	465.82	86.6616	465.82	85.998	465.82	85.9599	465.82	85.3632	465.82	85.4618	465.82	84.8875	465.82	85.0702	465.82	84.4639	465.82	84.5735	465.82	83.9206	465.82	83.7911	465.82	83.0967	465.82	82.6349	465.82	81.9204	465.82	81.1241	465.82	80.5894	465.82	79.5437	465.82	79.8247	465.82	78.7388	465.82	80.2737	465.82	79.3676	465.82	81.3493	465.82	80.6921	465.82	82.1583	465.82	81.802	465.82	82.3264
483.398	89.2575	483.398	89.0243	483.398	89.2529	483.398	88.5886	483.398	88.9913	483.398	87.9836	483.398	88.4884	483.398	87.2392	483.398	87.7982	483.398	86.4028	483.398	86.9907	483.398	85.5601	483.398	86.1158	483.398	84.818	483.398	85.1944	483.398	84.2312	483.398	84.2553	483.398	83.7248	483.398	83.3657	483.398	83.1059	483.398	82.5816	483.398	82.1648	483.398	81.8493	483.398	80.796	483.398	81.0202	483.398	79.1746	483.398	80.0513	483.398	78.033	483.398	79.2672	483.398	78.2243	483.398	79.2526	483.398	79.3351	483.398	79.9693	483.398	80.384	483.398	80.688	483.398	80.8757
499.512	89.0726	499.512	89.0236	499.512	88.9279	499.512	88.7455	499.512	88.6146	499.512	88.2155	499.512	88.1291	499.512	87.426	499.512	87.454	499.512	86.3806	499.512	86.596	499.512	85.1235	499.512	85.6142	499.512	83.7996	499.512	84.6186	499.512	82.6633	499.512	83.7205	499.512	81.8932	499.512	82.9376	499.512	81.3703	499.512	82.1556	499.512	80.7801	499.512	81.2461	499.512	79.8521	499.512	80.2409	499.512	78.5368	499.512	79.3939	499.512	77.3125	499.512	78.9808	499.512	77.1393	499.512	78.985	499.512	77.9762	499.512	79.176	499.512	78.8523	499.512	79.345	499.512	79.2998
517.09	88.5241	517.09	88.5204	517.09	88.4199	517.09	88.3555	517.09	88.2152	517.09	87.9753	517.09	87.8745	517.09	87.3736	517.09	87.364	517.09	86.6071	517.09	86.6888	517.09	85.7683	517.09	85.8913	517.09	84.9316	517.09	85.0272	517.09	84.1152	517.09	84.1508	517.09	83.2772	517.09	83.2886	517.09	82.3233	517.09	82.3822	517.09	81.1776	517.09	81.2819	517.09	79.9749	517.09	79.9095	517.09	79.1119	517.09	78.5769	517.09	78.8012	517.09	78.0646	517.09	78.8486	517.09	78.5847	517.09	79.0832	517.09	79.3665	517.09	79.4518	517.09	79.8074	517.09	79.7829
536.133	89.8399	536.133	89.6188	536.133	89.8232	536.133	89.2317	536.133	89.5519	536.133	88.7639	536.133	89.0576	536.133	88.2493	536.133	88.3858	536.133	87.6515	536.133	87.5603	536.133	86.916	536.133	86.573	536.133	86.0262	536.133	85.4058	536.133	84.9976	536.133	84.073	536.133	83.8003	536.133	82.6438	536.133	82.3027	536.133	81.202	536.133	80.3456	536.133	79.7616	536.133	77.9433	536.133	78.3612	536.133	75.86	536.133	77.5797	536.133	76.0774	536.133	78.2762	536.133	78.3022	536.133	79.8248	536.133	80.4386	536.133	81.1796	536.133	81.7641	536.133	82.0126	536.133	82.2464
555.176	90.0275	555.176	89.8967	555.176	89.9389	555.176	89.5637	555.176	89.5865	555.176	89.0068	555.176	88.9342	555.176	88.1894	555.176	88.0012	555.176	87.1214	555.176	86.9186	555.176	85.9356	555.176	85.9555	555.176	84.8917	555.176	85.3861	555.176	84.1971	555.176	85.1871	555.176	83.7984	555.176	84.9811	555.176	83.3988	555.176	84.3333	555.176	82.5916	555.176	82.9443	555.176	81.0147	555.176	80.6386	555.176	78.8398	555.176	77.48	555.176	78.1752	555.176	75.06	555.176	80.1046	555.176	76.3298	555.176	81.9508	555.176	78.9755	555.176	82.6841	555.176	81.0598	555.176	82.3333
574.219	89.9371	574.219	89.8179	574.219	89.8168	574.219	89.4812	574.219	89.4691	574.219	88.9734	574.219	88.9343	574.219	88.3321	574.219	88.2489	574.219	87.5506	574.219	87.3958	574.219	86.5924	574.219	86.2953	574.219	85.4628	574.219	84.8866	574.219	84.2583	574.219	83.2945	574.219	83.0627	574.219	81.9766	574.219	81.7936	574.219	81.3478	574.219	80.286	574.219	81.0408	574.219	78.4653	574.219	80.2453	574.219	76.3711	574.219	78.3277	574.219	74.7471	574.219	75.3491	574.219	76.2036	574.219	74.8729	574.219	79.4301	574.219	78.1746	574.219	81.5564	574.219	80.8637	574.219	82.0246
594.727	90.4047	594.727	90.096	594.727	90.3186	594.727	89.4826	594.727	89.8057	594.727	88.6794	594.727	88.9018	594.727	87.7719	594.727	87.7111	594.727	86.7872	594.727	86.3994	594.727	85.7414	594.727	85.1967	594.727	84.7125	594.727	84.3488	594.727	83.8118	594.727	83.895	594.727	83.1197	594.727	83.5135	594.727	82.6401	594.727	82.7624	594.727	82.1514	594.727	81.3756	594.727	81.2081	594.727	79.3591	594.727	79.4607	594.727	77.2324	594.727	77.3054	594.727	76.76	594.727	76.9696	594.727	78.6758	594.727	78.9818	594.727	80.7925	594.727	80.9418	594.727	81.9378	594.727	81.968
615.234	89.2794	615.234	89.442	615.234	88.9784	615.234	89.3894	615.234	88.6016	615.234	89.034	615.234	88.1764	615.234	88.3135	615.234	87.682	615.234	87.2588	615.234	87.0665	615.234	86.005	615.234	86.2411	615.234	84.7136	615.234	85.0793	615.234	83.541	615.234	83.539	615.234	82.6355	615.234	81.883	615.234	81.8273	615.234	80.631	615.234	80.4827	615.234	79.916	615.234	77.9647	615.234	79.2418	615.234	74.1925	615.234	78.1455	615.234	70.8921	615.234	76.8048	615.234	69.9277	615.234	75.8694	615.234	70.1783	615.234	75.2441	615.234	71.4443	615.234	74.3186	615.234	72.9914
637.207	90.1808	637.207	89.9869	637.207	90.0048	637.207	89.4191	637.207	89.4675	637.207	88.5233	637.207	88.6471	637.207	87.4744	637.207	87.7432	637.207	86.5358	637.207	86.9234	637.207	85.8414	637.207	86.1344	637.207	85.2552	637.207	85.2333	637.207	84.5118	637.207	84.251	637.207	83.463	637.207	83.383	637.207	82.2544	637.207	82.62	637.207	81.149	637.207	81.6096	637.207	80.0472	637.207	79.8942	637.207	78.6534	637.207	76.8394	637.207	77.3485	637.207	71.8162	637.207	77.4368	637.207	72.3421	637.207	78.9824	637.207	77.3164	637.207	80.4945	637.207	80.0432	637.207	80.9847
659.18	89.8548	659.18	89.7741	659.18	89.6726	659.18	89.4391	659.18	89.3298	659.18	88.9524	659.18	88.9011	659.18	88.3516	659.18	88.2997	659.18	87.5324	659.18	87.3121	659.18	86.3761	659.18	85.7888	659.18	84.9175	659.18	83.8956	659.18	83.4163	659.18	82.2154	659.18	82.1552	659.18	81.2097	659.18	81.0369	659.18	80.6201	659.18	79.6391	659.18	79.8731	659.18	77.546	659.18	78.5276	659.18	74.3921	659.18	76.4026	659.18	71.299	659.18	74.2532	659.18	74.1035	659.18	74.588	659.18	77.7547	659.18	76.6663	659.18	79.3344	659.18	78.3552	659.18	79.3296
682.617	89.6617	682.617	89.6923	682.617	89.3494	682.617	89.2534	682.617	88.895	682.617	88.3632	682.617	88.2691	682.617	87.3104	682.617	87.4004	682.617	86.3214	682.617	86.3122	682.617	85.2169	682.617	85.0695	682.617	83.6427	682.617	83.6901	682.617	81.5434	682.617	82.2219	682.617	79.824	682.617	80.8526	682.617	80.0508	682.617	79.8115	682.617	81.1849	682.617	79.1779	682.617	81.4152	682.617	78.7698	682.617	80.0662	682.617	78.1364	682.617	76.8905	682.617	76.8441	682.617	74.7546	682.617	75.8369	682.617	78.3292	682.617	77.9176	682.617	81.2293	682.617	80.7924	682.617	82.0211
707.52	88.7604	707.52	88.5006	707.52	88.8644	707.52	88.0752	707.52	88.7502	707.52	87.5775	707.52	88.2933	707.52	87.1122	707.52	87.3922	707.52	86.4678	707.52	85.9952	707.52	85.318	707.52	84.2637	707.52	83.7822	707.52	82.7359	707.52	82.4882	707.52	82.0256	707.52	81.6469	707.52	81.9708	707.52	80.763	707.52	81.7125	707.52	79.5804	707.52	80.6894	707.52	77.9624	707.52	79.054	707.52	75.4432	707.52	77.4685	707.52	72.7429	707.52	76.0869	707.52	73.1652	707.52	74.2471	707.52	75.1765	707.52	73.5704	707.52	76.9276	707.52	76.0306	707.52	77.5072
732.422	89.387	732.422	89.3892	732.422	89.2609	732.422	89.1493	732.422	88.9273	732.422	88.4651	732.422	88.2495	732.422	87.2862	732.422	87.2894	732.422	85.8653	732.422	86.3377	732.422	84.6206	732.422	85.5237	732.422	83.6636	732.422	84.4786	732.422	82.6946	732.422	82.7467	732.422	81.7025	732.422	80.4579	732.422	81.2068	732.422	78.5269	732.422	80.7681	732.422	77.9531	732.422	79.0418	732.422	78.3319	732.422	75.3542	732.422	77.9031	732.422	71.2225	732.422	75.1652	732.422	69.0249	732.422	71.503	732.422	68.8505	732.422	73.5736	732.422	71.4937	732.422	74.706	732.422	73.6877
757.324	90.3091	757.324	90.3144	757.324	90.2963	757.324	89.9961	757.324	90.1584	757.324	89.0884	757.324	89.5367	757.324	87.8228	757.324	88.3175	757.324	86.7129	757.324	86.847	757.324	85.8764	757.324	85.7129	757.324	84.9743	757.324	84.9727	757.324	83.7162	757.324	83.9636	757.324	82.0983	757.324	82.614	757.324	80.3759	757.324	81.6788	757.324	79.2619	757.324	80.7689	757.324	78.8822	757.324	79.0604	757.324	77.5949	757.324	76.0541	757.324	74.1578	757.324	71.6403	757.324	73.8755	757.324	68.8916	757.324	78.7732	757.324	73.2899	757.324	81.2692	757.324	78.2294	757.324	81.0092
785.156	91.1367	785.156	90.5636	785.156	91.132	785.156	89.6221	785.156	90.5303	785.156	88.6441	785.156	89.4873	785.156	87.8768	785.156	88.2045	785.156	87.007	785.156	86.9015	785.156	85.4373	785.156	85.5567	785.156	83.255	785.156	83.82	785.156	81.3262	785.156	81.5621	785.156	79.9502	785.156	79.5604	785.156	79.1466	785.156	79.4949	785.156	79.1848	785.156	80.7029	785.156	79.3914	785.156	81.2127	785.156	79.2154	785.156	80.0711	785.156	78.5733	785.156	77.9579	785.156	77.6721	785.156	76.4524	785.156	79.6895	785.156	76.6151	785.156	82.3064	785.156	79.5893	785.156	82.2395
811.523	89.129	811.523	89.6439	811.523	88.4776	811.523	89.3698	811.523	88.4428	811.523	88.3793	811.523	88.7218	811.523	87.3406	811.523	88.4048	811.523	86.7174	811.523	87.1563	811.523	86.0294	811.523	85.3376	811.523	84.7622	811.523	83.4621	811.523	83.0905	811.523	81.607	811.523	81.4334	811.523	79.7591	811.523	79.9688	811.523	79.0443	811.523	79.0115	811.523	79.5463	811.523	78.5649	811.523	78.7653	811.523	77.7732	811.523	76.0653	811.523	75.0338	811.523	74.5594	811.523	67.3597	811.523	75.5676	811.523	71.3406	811.523	76.6044	811.523	75.7626	811.523	77.0193	811.523	76.8947
840.82	91.108	840.82	90.8296	840.82	91.0444	840.82	90.188	840.82	90.6719	840.82	89.3279	840.82	89.8747	840.82	88.3415	840.82	88.6124	840.82	87.1455	840.82	87.1775	840.82	85.6323	840.82	86.009	840.82	83.8579	840.82	84.9919	840.82	82.1065	840.82	83.4132	840.82	80.8818	840.82	81.2558	840.82	80.5836	840.82	79.9869	840.82	80.2669	840.82	79.8866	840.82	78.944	840.82	79.9966	840.82	76.5694	840.82	79.9511	840.82	73.3175	840.82	78.8176	840.82	72.3202	840.82	76.2363	840.82	74.732	840.82	75.4577	840.82	76.4259	840.82	76.9845	840.82	76.9831
870.117	89.6761	870.117	89.8273	870.117	89.3142	870.117	89.4794	870.117	88.9714	870.117	88.6492	870.117	88.6206	870.117	87.8405	870.117	88.0458	870.117	87.3429	870.117	87.0745	870.117	86.4698	870.117	85.5235	870.117	84.6047	870.117	83.4851	870.117	82.0907	870.117	81.9928	870.117	80.074	870.117	81.1503	870.117	79.1214	870.117	79.7937	870.117	78.39	870.117	79.0875	870.117	77.5588	870.117	78.5854	870.117	76.0932	870.117	75.9137	870.117	72.8021	870.117	71.0087	870.117	74.7358	870.117	71.9077	870.117	80.3487	870.117	75.9241	870.117	81.8649	870.117	78.3408	870.117	80.5961
900.879	90.1329	900.879	90.2067	900.879	89.7248	900.879	89.4189	900.879	89.437	900.879	87.9687	900.879	89.022	900.879	86.7192	900.879	88.0271	900.879	86.0327	900.879	86.436	900.879	85.0688	900.879	84.9225	900.879	83.3418	900.879	83.8064	900.879	81.7413	900.879	82.3803	900.879	80.5681	900.879	80.4406	900.879	78.5682	900.879	79.1719	900.879	76.6751	900.879	78.6662	900.879	76.9727	900.879	78.3068	900.879	76.8637	900.879	77.0993	900.879	73.8747	900.879	72.5599	900.879	74.5949	900.879	64.7854	900.879	79.1378	900.879	76.2966	900.879	81.4361	900.879	80.6481	900.879	81.8694
933.105	89.255	933.105	88.7242	933.105	89.7882	933.105	88.6477	933.105	89.1647	933.105	88.0653	933.105	87.4549	933.105	86.6541	933.105	86.0514	933.105	85.1242	933.105	85.6156	933.105	83.8448	933.105	84.8739	933.105	82.372	933.105	83.0907	933.105	80.5761	933.105	80.9049	933.105	78.0853	933.105	78.3108	933.105	77.6732	933.105	74.3116	933.105	78.3823	933.105	74.0112	933.105	76.6789	933.105	74.8719	933.105	72.5478	933.105	71.5637	933.105	66.57	933.105	69.1094	933.105	60.2973	933.105	72.3991	933.105	73.5623	933.105	74.719	933.105	78.1285	933.105	76.9907	933.105	78.8495
965.332	89.2157	965.332	88.942	965.332	88.4859	965.332	88.0263	965.332	87.5146	965.332	87.4271	965.332	87.3001	965.332	87.295	965.332	86.9996	965.332	86.8276	965.332	85.1872	965.332	85.5794	965.332	82.6211	965.332	84.0649	965.332	82.2786	965.332	82.5581	965.332	83.3693	965.332	80.5655	965.332	82.5894	965.332	77.4989	965.332	79.2905	965.332	74.3105	965.332	76.5746	965.332	76.1378	965.332	76.8374	965.332	78.2048	965.332	78.5023	965.332	76.0367	965.332	77.5921	965.332	69.926	965.332	70.0624	965.332	68.6298	965.332	68.4387	965.332	71.1702	965.332	72.4252	965.332	71.9344
1,000.49	89.8512	1,000.49	89.7516	1,000.49	89.3002	1,000.49	88.694	1,000.49	88.8265	1,000.49	87.4329	1,000.49	88.1562	1,000.49	86.425	1,000.49	86.5089	1,000.49	85.3634	1,000.49	84.3762	1,000.49	84.2457	1,000.49	83.4595	1,000.49	83.5669	1,000.49	83.0274	1,000.49	83.1222	1,000.49	81.4349	1,000.49	81.0436	1,000.49	79.1799	1,000.49	76.2198	1,000.49	77.0405	1,000.49	75.3155	1,000.49	74.768	1,000.49	77.4264	1,000.49	75.8662	1,000.49	77.276	1,000.49	76.3129	1,000.49	75.2474	1,000.49	73.3256	1,000.49	71.85	1,000.49	65.7423	1,000.49	77.3564	1,000.49	72.7837	1,000.49	81.1165	1,000.49	78.9396	1,000.49	81.4185
1,035.64	89.2913	1,035.64	88.2586	1,035.64	89.7422	1,035.64	87.6466	1,035.64	88.9943	1,035.64	87.0911	1,035.64	87.5209	1,035.64	85.7111	1,035.64	86.2228	1,035.64	83.9604	1,035.64	85.2141	1,035.64	83.0443	1,035.64	83.9673	1,035.64	82.5892	1,035.64	82.3253	1,035.64	81.0567	1,035.64	80.9632	1,035.64	78.4481	1,035.64	80.0731	1,035.64	77.0517	1,035.64	78.116	1,035.64	75.6564	1,035.64	75.4999	1,035.64	73.6748	1,035.64	75.2979	1,035.64	75.3882	1,035.64	76.3879	1,035.64	75.0182	1,035.64	75.5244	1,035.64	69.8231	1,035.64	71.0411	1,035.64	73.624	1,035.64	74.7159	1,035.64	76.2594	1,035.64	78.1349	1,035.64	77.7218
1,072.27	87.7089	1,072.27	87.9595	1,072.27	87.7808	1,072.27	88.3225	1,072.27	87.1008	1,072.27	87.8297	1,072.27	86.0284	1,072.27	86.5485	1,072.27	85.6021	1,072.27	85.5212	1,072.27	84.9428	1,072.27	84.7216	1,072.27	83.4863	1,072.27	83.0848	1,072.27	82.7321	1,072.27	81.5886	1,072.27	82.4259	1,072.27	81.2642	1,072.27	80.3841	1,072.27	79.0575	1,072.27	77.4424	1,072.27	73.9703	1,072.27	75.3387	1,072.27	71.6275	1,072.27	72.1727	1,072.27	73.27	1,072.27	69.2339	1,072.27	69.1124	1,072.27	68.431	1,072.27	66.3887	1,072.27	66.8544	1,072.27	68.9192	1,072.27	71.8381	1,072.27	70.2712	1,072.27	75.5076	1,072.27	74.1081
1,108.89	88.3443	1,108.89	88.8597	1,108.89	87.3504	1,108.89	87.9286	1,108.89	87.6444	1,108.89	86.8092	1,108.89	87.9423	1,108.89	86.3998	1,108.89	86.782	1,108.89	85.6496	1,108.89	84.7383	1,108.89	83.9167	1,108.89	83.5809	1,108.89	82.3999	1,108.89	83.0513	1,108.89	82.34	1,108.89	81.8501	1,108.89	81.1295	1,108.89	81.0421	1,108.89	77.5375	1,108.89	80.0758	1,108.89	75.5931	1,108.89	75.5983	1,108.89	76.7295	1,108.89	74.4407	1,108.89	77.2867	1,108.89	78.0743	1,108.89	76.2481	1,108.89	77.8593	1,108.89	71.7635	1,108.89	70.301	1,108.89	74.6218	1,108.89	66.5983	1,108.89	81.0302	1,108.89	73.4915	1,108.89	79.4779
1,148.44	89.2112	1,148.44	88.593	1,148.44	89.0981	1,148.44	86.891	1,148.44	88.5194	1,148.44	85.5772	1,148.44	87.3504	1,148.44	85.3192	1,148.44	85.7698	1,148.44	84.343	1,148.44	84.6965	1,148.44	82.1991	1,148.44	84.1127	1,148.44	80.7641	1,148.44	82.8192	1,148.44	79.6365	1,148.44	80.9459	1,148.44	78.6247	1,148.44	80.4502	1,148.44	78.2332	1,148.44	79.37	1,148.44	76.5982	1,148.44	77.4682	1,148.44	75.4906	1,148.44	76.6257	1,148.44	75.5629	1,148.44	75.5457	1,148.44	76.3749	1,148.44	75.288	1,148.44	66.7338	1,148.44	72.3233	1,148.44	70.7802	1,148.44	63.231	1,148.44	74.5127	1,148.44	75.5005	1,148.44	76.0608
1,189.45	89.6163	1,189.45	88.4623	1,189.45	90.1611	1,189.45	87.6644	1,189.45	89.3279	1,189.45	87.1597	1,189.45	87.5188	1,189.45	86.067	1,189.45	86.2263	1,189.45	84.6351	1,189.45	85.8519	1,189.45	83.8711	1,189.45	84.794	1,189.45	82.9939	1,189.45	83.0919	1,189.45	80.7763	1,189.45	81.7257	1,189.45	80.2121	1,189.45	80.4105	1,189.45	79.119	1,189.45	79.1373	1,189.45	75.4334	1,189.45	76.884	1,189.45	73.1997	1,189.45	71.8071	1,189.45	72.8955	1,189.45	71.9532	1,189.45	71.8935	1,189.45	72.5661	1,189.45	59.0237	1,189.45	71.1579	1,189.45	65.3666	1,189.45	69.8208	1,189.45	75.6762	1,189.45	72.8307	1,189.45	71.8109
1,230.47	88.1993	1,230.47	87.7239	1,230.47	88.9185	1,230.47	87.9439	1,230.47	87.8364	1,230.47	87.2147	1,230.47	86.7732	1,230.47	86.0349	1,230.47	86.9846	1,230.47	84.85	1,230.47	86.2929	1,230.47	83.8808	1,230.47	84.5646	1,230.47	83.2151	1,230.47	83.3293	1,230.47	82.2086	1,230.47	82.6005	1,230.47	80.5728	1,230.47	81.4165	1,230.47	78.8966	1,230.47	80.1774	1,230.47	76.7365	1,230.47	77.5916	1,230.47	69.277	1,230.47	72.6209	1,230.47	74.3323	1,230.47	75.6551	1,230.47	76.9475	1,230.47	76.8629	1,230.47	74.7805	1,230.47	74.0922	1,230.47	71.4062	1,230.47	68.8306	1,230.47	79.0486	1,230.47	70.9736	1,230.47	78.0343
1,274.41	88.8252	1,274.41	88.7864	1,274.41	88.9056	1,274.41	88.655	1,274.41	88.3241	1,274.41	87.9559	1,274.41	87.6857	1,274.41	87.1194	1,274.41	87.1667	1,274.41	86.4994	1,274.41	86.4542	1,274.41	85.4757	1,274.41	85.1766	1,274.41	84.116	1,274.41	83.9137	1,274.41	82.9297	1,274.41	82.2877	1,274.41	81.3434	1,274.41	81.2762	1,274.41	80.3792	1,274.41	81.3968	1,274.41	76.7837	1,274.41	79.263	1,274.41	74.3236	1,274.41	75.2952	1,274.41	74.7192	1,274.41	75.5935	1,274.41	74.8922	1,274.41	76.1978	1,274.41	70.1213	1,274.41	75.4734	1,274.41	59.7791	1,274.41	74.7925	1,274.41	60.5291	1,274.41	77.3261	1,274.41	73.9175
1,319.82	88.9984	1,319.82	89.9772	1,319.82	87.9891	1,319.82	89.5264	1,319.82	88.358	1,319.82	88.6572	1,319.82	88.8625	1,319.82	87.9757	1,319.82	88.4814	1,319.82	87.2638	1,319.82	87.4356	1,319.82	86.3328	1,319.82	86.1291	1,319.82	85.0009	1,319.82	85.0563	1,319.82	83.1649	1,319.82	83.6056	1,319.82	81.6387	1,319.82	81.8965	1,319.82	81.6534	1,319.82	80.7521	1,319.82	78.6479	1,319.82	79.218	1,319.82	75.8802	1,319.82	75.3536	1,319.82	73.2295	1,319.82	74.281	1,319.82	70.7192	1,319.82	75.7625	1,319.82	72.4348	1,319.82	72.9232	1,319.82	72.6582	1,319.82	61.622	1,319.82	80.7154	1,319.82	62.1833	1,319.82	77.3558
1,366.7	90.0994	1,366.7	90.2793	1,366.7	89.1805	1,366.7	89.5982	1,366.7	89.7542	1,366.7	89.7582	1,366.7	89.8091	1,366.7	89.4912	1,366.7	88.5677	1,366.7	88.4373	1,366.7	88.0263	1,366.7	87.1823	1,366.7	87.2873	1,366.7	85.6529	1,366.7	85.5298	1,366.7	83.2904	1,366.7	83.798	1,366.7	81.8938	1,366.7	82.3132	1,366.7	81.409	1,366.7	81.0854	1,366.7	79.6314	1,366.7	79.8045	1,366.7	78.4413	1,366.7	78.677	1,366.7	74.9337	1,366.7	76.259	1,366.7	77.7864	1,366.7	75.9554	1,366.7	73.9643	1,366.7	73.0362	1,366.7	70.9988	1,366.7	71.4143	1,366.7	76.4004	1,366.7	78.4179	1,366.7	80.5758
1,413.57	89.6272	1,413.57	90.0873	1,413.57	88.6609	1,413.57	89.4734	1,413.57	89.3241	1,413.57	89.5283	1,413.57	89.6848	1,413.57	89.6452	1,413.57	88.5523	1,413.57	88.45	1,413.57	87.8572	1,413.57	87.1635	1,413.57	86.9123	1,413.57	86.2491	1,413.57	85.1485	1,413.57	84.8251	1,413.57	84.0334	1,413.57	83.4509	1,413.57	82.432	1,413.57	81.7939	1,413.57	80.3845	1,413.57	79.951	1,413.57	79.5381	1,413.57	77.1934	1,413.57	77.4527	1,413.57	74.3803	1,413.57	71.7208	1,413.57	73.6353	1,413.57	76.017	1,413.57	74.612	1,413.57	75.8352	1,413.57	76.5998	1,413.57	62.9475	1,413.57	78.7482	1,413.57	70.0979	1,413.57	73.0367
1,463.38	89.535	1,463.38	89.6922	1,463.38	89.1962	1,463.38	89.1579	1,463.38	89.8102	1,463.38	89.0253	1,463.38	89.2256	1,463.38	88.7774	1,463.38	88.1363	1,463.38	88.3619	1,463.38	87.7794	1,463.38	87.048	1,463.38	86.9584	1,463.38	85.8379	1,463.38	85.3	1,463.38	84.5885	1,463.38	83.6294	1,463.38	82.0244	1,463.38	81.3737	1,463.38	79.7344	1,463.38	79.2355	1,463.38	78.4985	1,463.38	77.4068	1,463.38	75.7901	1,463.38	74.962	1,463.38	71.8247	1,463.38	72.5626	1,463.38	77.6162	1,463.38	76.082	1,463.38	76.1684	1,463.38	74.1316	1,463.38	73.3912	1,463.38	70.5293	1,463.38	79.5712	1,463.38	75.6283	1,463.38	79.8581
1,516.11	88.2725	1,516.11	88.4012	1,516.11	87.1391	1,516.11	87.8519	1,516.11	88.2061	1,516.11	88.3583	1,516.11	88.6471	1,516.11	88.1283	1,516.11	87.9351	1,516.11	87.7045	1,516.11	87.6039	1,516.11	86.4048	1,516.11	85.9621	1,516.11	85.3777	1,516.11	83.7516	1,516.11	84.3895	1,516.11	83.1969	1,516.11	81.4107	1,516.11	81.5421	1,516.11	79.1832	1,516.11	79.0088	1,516.11	77.2105	1,516.11	76.8188	1,516.11	76.37	1,516.11	74.9113	1,516.11	74.4542	1,516.11	69.4844	1,516.11	74.72	1,516.11	75.6331	1,516.11	72.1301	1,516.11	76.3849	1,516.11	74.8385	1,516.11	68.077	1,516.11	77.4225	1,516.11	71.8742	1,516.11	64.4514
1,568.85	86.667	1,568.85	87.0403	1,568.85	86.7053	1,568.85	87.004	1,568.85	88.0887	1,568.85	88.1041	1,568.85	88.1724	1,568.85	88.4184	1,568.85	87.4838	1,568.85	86.9777	1,568.85	87.0248	1,568.85	85.5766	1,568.85	85.6408	1,568.85	83.9651	1,568.85	83.3434	1,568.85	82.8368	1,568.85	82.4939	1,568.85	80.1206	1,568.85	80.1551	1,568.85	78.5459	1,568.85	77.2639	1,568.85	74.6785	1,568.85	76.8306	1,568.85	74.6609	1,568.85	75.2346	1,568.85	71.3522	1,568.85	71.1788	1,568.85	75.8811	1,568.85	76.8622	1,568.85	76.9106	1,568.85	75.3376	1,568.85	67.9771	1,568.85	69.5845	1,568.85	79.1973	1,568.85	68.927	1,568.85	77.8818
1,624.51	86.7105	1,624.51	87.4371	1,624.51	87.0548	1,624.51	87.902	1,624.51	87.6531	1,624.51	88.1993	1,624.51	88.2348	1,624.51	87.9627	1,624.51	88.5027	1,624.51	87.9014	1,624.51	87.8707	1,624.51	85.9723	1,624.51	86.2218	1,624.51	83.2514	1,624.51	83.8391	1,624.51	82.0095	1,624.51	82.6014	1,624.51	80.1121	1,624.51	80.9518	1,624.51	78.7089	1,624.51	77.8143	1,624.51	75.8319	1,624.51	76.845	1,624.51	75.4394	1,624.51	76.5275	1,624.51	64.6584	1,624.51	67.6456	1,624.51	74.8018	1,624.51	73.5609	1,624.51	71.9258	1,624.51	74.9567	1,624.51	71.9503	1,624.51	70.5082	1,624.51	75.5506	1,624.51	71.8845	1,624.51	61.143
1,681.64	88.0784	1,681.64	88.406	1,681.64	88.0813	1,681.64	89.062	1,681.64	89.2783	1,681.64	89.3979	1,681.64	89.4517	1,681.64	89.2983	1,681.64	89.1567	1,681.64	87.5402	1,681.64	88.3692	1,681.64	87.0574	1,681.64	87.2028	1,681.64	84.7714	1,681.64	85.2908	1,681.64	82.3915	1,681.64	82.8244	1,681.64	80.7075	1,681.64	81.2226	1,681.64	79.1405	1,681.64	78.3304	1,681.64	75.42	1,681.64	77.6511	1,681.64	75.6299	1,681.64	76.5256	1,681.64	65.9238	1,681.64	75.3084	1,681.64	66.5171	1,681.64	71.355	1,681.64	75.6044	1,681.64	75.0914	1,681.64	70.1747	1,681.64	68.2175	1,681.64	80.7631	1,681.64	69.7247	1,681.64	77.2066
1,741.7	89.3452	1,741.7	89.5795	1,741.7	89.5452	1,741.7	90.0283	1,741.7	89.8265	1,741.7	90.2055	1,741.7	90.4033	1,741.7	89.8763	1,741.7	89.8877	1,741.7	88.3559	1,741.7	89.151	1,741.7	87.8276	1,741.7	87.5712	1,741.7	85.9193	1,741.7	85.0458	1,741.7	82.0994	1,741.7	83.6622	1,741.7	81.9736	1,741.7	82.6052	1,741.7	78.5163	1,741.7	77.9416	1,741.7	76.4643	1,741.7	77.1141	1,741.7	75.2362	1,741.7	76.7806	1,741.7	70.0879	1,741.7	73.9939	1,741.7	72.3743	1,741.7	74.1374	1,741.7	61.6635	1,741.7	68.9631	1,741.7	76.5832	1,741.7	72.8462	1,741.7	77.3637	1,741.7	76.4674	1,741.7	69.1568
1,803.22	89.7663	1,803.22	89.8659	1,803.22	89.8611	1,803.22	90.3342	1,803.22	90.7166	1,803.22	90.7561	1,803.22	90.4961	1,803.22	90.2848	1,803.22	90.433	1,803.22	89.8615	1,803.22	89.3351	1,803.22	87.9868	1,803.22	87.7129	1,803.22	85.8942	1,803.22	86.0289	1,803.22	84.1441	1,803.22	83.3826	1,803.22	80.901	1,803.22	80.0236	1,803.22	79.0503	1,803.22	79.8995	1,803.22	76.5441	1,803.22	76.5438	1,803.22	75.0581	1,803.22	75.0287	1,803.22	73.1704	1,803.22	74.2238	1,803.22	61.8885	1,803.22	67.618	1,803.22	76.7659	1,803.22	75.7838	1,803.22	72.4667	1,803.22	61.0388	1,803.22	75.8063	1,803.22	70.61	1,803.22	77.5729
1,866.21	88.9931	1,866.21	89.5261	1,866.21	89.5403	1,866.21	90.2481	1,866.21	89.7756	1,866.21	90.3187	1,866.21	90.4941	1,866.21	90.0739	1,866.21	89.633	1,866.21	88.8223	1,866.21	88.4674	1,866.21	87.4393	1,866.21	87.0667	1,866.21	85.8333	1,866.21	84.936	1,866.21	83.1923	1,866.21	82.5447	1,866.21	81.0594	1,866.21	81.1552	1,866.21	78.4897	1,866.21	77.0649	1,866.21	76.2474	1,866.21	75.362	1,866.21	74.0579	1,866.21	74.4755	1,866.21	72.074	1,866.21	72.5587	1,866.21	73.6724	1,866.21	71.6337	1,866.21	43.8564	1,866.21	67.5777	1,866.21	76.5913	1,866.21	71.6157	1,866.21	76.9129	1,866.21	72.3313	1,866.21	70.6527
1,932.13	88.6963	1,932.13	89.0533	1,932.13	88.8642	1,932.13	89.46	1,932.13	89.62	1,932.13	89.8262	1,932.13	89.3404	1,932.13	89.1604	1,932.13	89.1295	1,932.13	88.0654	1,932.13	88.116	1,932.13	86.3806	1,932.13	86.3877	1,932.13	84.2447	1,932.13	84.5959	1,932.13	82.6814	1,932.13	82.7928	1,932.13	79.3375	1,932.13	78.4094	1,932.13	77.8808	1,932.13	78.3372	1,932.13	74.6623	1,932.13	72.9726	1,932.13	73.1424	1,932.13	71.7455	1,932.13	72.0621	1,932.13	71.2139	1,932.13	68.7436	1,932.13	66.0143	1,932.13	75.9109	1,932.13	72.3258	1,932.13	70.1318	1,932.13	67.0339	1,932.13	74.1675	1,932.13	73.0191	1,932.13	76.5101
1,999.51	88.5509	1,999.51	88.7675	1,999.51	88.6957	1,999.51	89.7852	1,999.51	89.422	1,999.51	89.7776	1,999.51	90.0219	1,999.51	89.1008	1,999.51	89.5538	1,999.51	87.8162	1,999.51	88.4718	1,999.51	85.8463	1,999.51	86.6842	1,999.51	84.1849	1,999.51	84.6685	1,999.51	81.4976	1,999.51	82.5186	1,999.51	78.7599	1,999.51	81.1196	1,999.51	76.8119	1,999.51	76.134	1,999.51	72.7488	1,999.51	76.4103	1,999.51	70.7872	1,999.51	72.4773	1,999.51	70.8549	1,999.51	72.3959	1,999.51	69.2735	1,999.51	69.1701	1,999.51	68.7019	1,999.51	71.9359	1,999.51	77.323	1,999.51	70.6376	1,999.51	78.837	1,999.51	72.0516	1,999.51	74.4333
2,069.82	89.0066	2,069.82	89.6127	2,069.82	89.6586	2,069.82	89.8394	2,069.82	90.405	2,069.82	90.2546	2,069.82	90.5865	2,069.82	89.3584	2,069.82	89.9775	2,069.82	88.1126	2,069.82	88.4196	2,069.82	86.2488	2,069.82	86.9439	2,069.82	83.8297	2,069.82	84.7342	2,069.82	82.0864	2,069.82	83.6208	2,069.82	79.0301	2,069.82	79.8	2,069.82	75.0096	2,069.82	78.4528	2,069.82	74.2611	2,069.82	76.2276	2,069.82	70.5534	2,069.82	73.756	2,069.82	67.5419	2,069.82	73.0229	2,069.82	73.0743	2,069.82	70.877	2,069.82	70.7647	2,069.82	67.2607	2,069.82	75.3242	2,069.82	72.4506	2,069.82	77.0509	2,069.82	73.0196	2,069.82	74.1281
2,143.07	89.6688	2,143.07	89.8146	2,143.07	90.0237	2,143.07	90.5576	2,143.07	90.3741	2,143.07	90.7112	2,143.07	90.4449	2,143.07	90.3889	2,143.07	89.7567	2,143.07	88.6551	2,143.07	88.9372	2,143.07	86.7836	2,143.07	86.4699	2,143.07	85.3379	2,143.07	84.8885	2,143.07	83.1719	2,143.07	81.8207	2,143.07	79.7746	2,143.07	80.6709	2,143.07	76.3802	2,143.07	76.3363	2,143.07	73.1901	2,143.07	72.6529	2,143.07	70.208	2,143.07	71.7801	2,143.07	67.6808	2,143.07	69.5578	2,143.07	67.6742	2,143.07	70.3542	2,143.07	73.2951	2,143.07	72.8921	2,143.07	74.5663	2,143.07	60.4233	2,143.07	77.4253	2,143.07	72.1961	2,143.07	78.1284
2,219.24	89.4128	2,219.24	89.5943	2,219.24	89.3599	2,219.24	90.1859	2,219.24	90.2541	2,219.24	90.1943	2,219.24	90.2039	2,219.24	89.3096	2,219.24	89.566	2,219.24	88.6238	2,219.24	87.4451	2,219.24	86.6114	2,219.24	86.075	2,219.24	84.16	2,219.24	83.8554	2,219.24	82.736	2,219.24	82.5664	2,219.24	79.6599	2,219.24	79.3779	2,219.24	77.3513	2,219.24	75.2791	2,219.24	73.163	2,219.24	73.4884	2,219.24	68.9175	2,219.24	70.3017	2,219.24	72.4545	2,219.24	71.0668	2,219.24	63.2504	2,219.24	65.8591	2,219.24	69.0274	2,219.24	68.7	2,219.24	77.9583	2,219.24	70.542	2,219.24	78.8194	2,219.24	71.7403	2,219.24	74.1416
2,296.88	87.4762	2,296.88	87.8863	2,296.88	88.3366	2,296.88	88.4293	2,296.88	88.7147	2,296.88	89.2924	2,296.88	88.8111	2,296.88	88.3005	2,296.88	88.0598	2,296.88	86.7738	2,296.88	87.3566	2,296.88	84.8954	2,296.88	85.3141	2,296.88	83.5941	2,296.88	83.0354	2,296.88	80.6106	2,296.88	80.688	2,296.88	79.4532	2,296.88	78.8081	2,296.88	74.1923	2,296.88	74.7615	2,296.88	74.1428	2,296.88	72.9761	2,296.88	69.2073	2,296.88	69.3414	2,296.88	61.8156	2,296.88	65.7147	2,296.88	72.8443	2,296.88	65.924	2,296.88	66.3848	2,296.88	59.686	2,296.88	74.7093	2,296.88	69.779	2,296.88	77.9538	2,296.88	69.7744	2,296.88	72.021
2,378.91	88.3316	2,378.91	89.0569	2,378.91	88.6147	2,378.91	89.0234	2,378.91	88.7397	2,378.91	88.63	2,378.91	89.3199	2,378.91	88.2994	2,378.91	88.9383	2,378.91	86.8794	2,378.91	87.1761	2,378.91	84.9645	2,378.91	85.4607	2,378.91	83.0764	2,378.91	83.5321	2,378.91	81.3672	2,378.91	82.0335	2,378.91	77.0504	2,378.91	78.9059	2,378.91	74.0753	2,378.91	76.1942	2,378.91	72.353	2,378.91	71.2551	2,378.91	71.0923	2,378.91	68.4295	2,378.91	64.5109	2,378.91	63.5575	2,378.91	66.9665	2,378.91	71.3149	2,378.91	70.743	2,378.91	66.8022	2,378.91	73.2068	2,378.91	69.1656	2,378.91	79.0488	2,378.91	70.8293	2,378.91	76.1004
2,462.4	89.8118	2,462.4	89.2006	2,462.4	89.7719	2,462.4	90.1702	2,462.4	90.4491	2,462.4	90.3397	2,462.4	89.6834	2,462.4	89.083	2,462.4	88.945	2,462.4	88.1476	2,462.4	88.4528	2,462.4	86.3507	2,462.4	86.7408	2,462.4	84.0164	2,462.4	85.2283	2,462.4	81.9828	2,462.4	83.4945	2,462.4	79.6661	2,462.4	80.9546	2,462.4	73.8656	2,462.4	76.4001	2,462.4	70.3504	2,462.4	75.2262	2,462.4	66.7829	2,462.4	72.6325	2,462.4	65.2475	2,462.4	73.588	2,462.4	62.995	2,462.4	65.0075	2,462.4	71.6013	2,462.4	68.8127	2,462.4	73.9041	2,462.4	66.0849	2,462.4	79.7421	2,462.4	72.2365	2,462.4	76.566
2,548.83	90.6769	2,548.83	90.6382	2,548.83	90.3739	2,548.83	89.8034	2,548.83	90.3315	2,548.83	89.4926	2,548.83	90.5648	2,548.83	89.7666	2,548.83	89.8503	2,548.83	88.7851	2,548.83	88.4466	2,548.83	86.9012	2,548.83	86.9643	2,548.83	85.5786	2,548.83	85.2979	2,548.83	82.6101	2,548.83	82.1422	2,548.83	79.0339	2,548.83	80.4015	2,548.83	76.1192	2,548.83	76.3052	2,548.83	75.6204	2,548.83	73.5609	2,548.83	64.3879	2,548.83	69.4753	2,548.83	52.6613	2,548.83	63.1226	2,548.83	65.3949	2,548.83	62.8434	2,548.83	70.81	2,548.83	64.2598	2,548.83	77.9269	2,548.83	66.2835	2,548.83	80.6531	2,548.83	65.7206	2,548.83	72.1988
2,639.65	88.7334	2,639.65	88.7787	2,639.65	89.0778	2,639.65	89.6566	2,639.65	88.8156	2,639.65	89.8624	2,639.65	88.6603	2,639.65	88.65	2,639.65	88.5876	2,639.65	87.7697	2,639.65	87.9995	2,639.65	86.315	2,639.65	86.2014	2,639.65	84.5816	2,639.65	84.2147	2,639.65	82.776	2,639.65	82.8239	2,639.65	80.2422	2,639.65	79.301	2,639.65	76.7986	2,639.65	75.4793	2,639.65	69.5191	2,639.65	70.501	2,639.65	65.1559	2,639.65	66.9618	2,639.65	67.8556	2,639.65	56.8135	2,639.65	66.3735	2,639.65	68.3683	2,639.65	57.614	2,639.65	63.6899	2,639.65	70.5141	2,639.65	71.5614	2,639.65	80.4662	2,639.65	67.3549	2,639.65	69.2987
2,731.93	89.1054	2,731.93	88.8893	2,731.93	88.651	2,731.93	86.8718	2,731.93	88.5175	2,731.93	87.4045	2,731.93	87.9839	2,731.93	87.4928	2,731.93	87.0118	2,731.93	86.5575	2,731.93	86.5671	2,731.93	84.8787	2,731.93	85.6504	2,731.93	82.9727	2,731.93	83.1359	2,731.93	80.0519	2,731.93	81.3127	2,731.93	77.6185	2,731.93	77.8615	2,731.93	71.8879	2,731.93	71.8336	2,731.93	65.2407	2,731.93	68.8838	2,731.93	48.3272	2,731.93	68.0772	2,731.93	61.3177	2,731.93	67.3154	2,731.93	63.1383	2,731.93	68.1443	2,731.93	69.119	2,731.93	62.8301	2,731.93	75.2429	2,731.93	67.1427	2,731.93	78.9675	2,731.93	63.4043	2,731.93	71.0432
2,828.61	87.462	2,828.61	87.6916	2,828.61	87.5204	2,828.61	88.0033	2,828.61	85.9393	2,828.61	87.1648	2,828.61	87.4991	2,828.61	86.9971	2,828.61	87.833	2,828.61	86.8509	2,828.61	86.7733	2,828.61	85.6147	2,828.61	85.9529	2,828.61	83.1765	2,828.61	83.2395	2,828.61	80.8985	2,828.61	81.3928	2,828.61	78.2015	2,828.61	79.4248	2,828.61	72.404	2,828.61	73.4358	2,828.61	72.0155	2,828.61	72.9894	2,828.61	67.0169	2,828.61	63.9301	2,828.61	61.5194	2,828.61	58.2738	2,828.61	64.5973	2,828.61	66.8437	2,828.61	68.0066	2,828.61	66.4875	2,828.61	71.6446	2,828.61	64.5802	2,828.61	79.2209	2,828.61	66.0292	2,828.61	72.8499
2,928.22	89.5013	2,928.22	88.6884	2,928.22	89.6526	2,928.22	86.3838	2,928.22	88.5811	2,928.22	88.1056	2,928.22	87.7086	2,928.22	87.9142	2,928.22	87.4953	2,928.22	87.7648	2,928.22	88.5603	2,928.22	85.2808	2,928.22	86.2334	2,928.22	83.3536	2,928.22	83.679	2,928.22	82.2398	2,928.22	81.9257	2,928.22	78.7365	2,928.22	78.9868	2,928.22	71.4684	2,928.22	74.7254	2,928.22	65.9265	2,928.22	71.8252	2,928.22	56.5063	2,928.22	69.9021	2,928.22	66.1847	2,928.22	65.3109	2,928.22	67.8204	2,928.22	67.6965	2,928.22	71.0104	2,928.22	57.4804	2,928.22	75.5508	2,928.22	57.139	2,928.22	79.9786	2,928.22	62.6295	2,928.22	71.6866
3,030.76	89.938	3,030.76	89.3692	3,030.76	88.8566	3,030.76	88.5819	3,030.76	87.9657	3,030.76	87.8045	3,030.76	88.7328	3,030.76	88.7719	3,030.76	88.7239	3,030.76	87.9124	3,030.76	87.0247	3,030.76	87.6184	3,030.76	86.7205	3,030.76	84.2122	3,030.76	84.3355	3,030.76	81.552	3,030.76	82.8781	3,030.76	77.1137	3,030.76	78.3635	3,030.76	74.2486	3,030.76	74.2335	3,030.76	73.9425	3,030.76	71.4078	3,030.76	60.3759	3,030.76	60.8461	3,030.76	61.0422	3,030.76	60.0607	3,030.76	63.5349	3,030.76	66.85	3,030.76	66.8199	3,030.76	67.1106	3,030.76	73.0921	3,030.76	49.1846	3,030.76	80.9698	3,030.76	66.6996	3,030.76	73.1968
3,137.7	89.1096	3,137.7	88.3527	3,137.7	88.5223	3,137.7	87.041	3,137.7	86.4624	3,137.7	87.1765	3,137.7	87.2951	3,137.7	87.9879	3,137.7	88.5643	3,137.7	88.1458	3,137.7	88.908	3,137.7	85.2114	3,137.7	86.8468	3,137.7	83.9921	3,137.7	83.3338	3,137.7	82.6069	3,137.7	81.0548	3,137.7	79.5124	3,137.7	77.9132	3,137.7	74.949	3,137.7	74.2615	3,137.7	69.5355	3,137.7	71.0252	3,137.7	64.831	3,137.7	68.2072	3,137.7	65.7415	3,137.7	57.5411	3,137.7	65.7317	3,137.7	69.4695	3,137.7	69.5873	3,137.7	62.4236	3,137.7	74.1969	3,137.7	59.1957	3,137.7	79.3689	3,137.7	58.6975	3,137.7	66.8769
3,249.02	89.1337	3,249.02	87.5633	3,249.02	88.3196	3,249.02	86.416	3,249.02	87.4764	3,249.02	87.7362	3,249.02	87.0607	3,249.02	87.8199	3,249.02	86.3791	3,249.02	87.2304	3,249.02	86.3931	3,249.02	86.0995	3,249.02	84.5289	3,249.02	82.7342	3,249.02	82.9646	3,249.02	79.0699	3,249.02	81.2834	3,249.02	74.5005	3,249.02	76.6131	3,249.02	72.6609	3,249.02	72.6455	3,249.02	71.3261	3,249.02	66.6838	3,249.02	61.4406	3,249.02	63.7075	3,249.02	63.2472	3,249.02	60.4058	3,249.02	58.5705	3,249.02	64.546	3,249.02	63.6932	3,249.02	55.8732	3,249.02	71.0449	3,249.02	61.1336	3,249.02	80.5751	3,249.02	67.461	3,249.02	69.2468
3,363.28	88.6464	3,363.28	88.1501	3,363.28	87.6574	3,363.28	84.5273	3,363.28	85.4897	3,363.28	85.232	3,363.28	86.7846	3,363.28	86.5711	3,363.28	87.8688	3,363.28	85.3638	3,363.28	87.3694	3,363.28	82.9624	3,363.28	85.8962	3,363.28	81.6103	3,363.28	81.6103	3,363.28	80.4181	3,363.28	80.3587	3,363.28	75.8464	3,363.28	77.2608	3,363.28	74.0756	3,363.28	72.2026	3,363.28	66.7399	3,363.28	71.2642	3,363.28	61.5457	3,363.28	68.8082	3,363.28	56.3738	3,363.28	55.8761	3,363.28	57.3174	3,363.28	60.7271	3,363.28	68.6608	3,363.28	49.6572	3,363.28	71.3051	3,363.28	54.4143	3,363.28	77.4303	3,363.28	49.5524	3,363.28	65.1991
3,481.93	88.6709	3,481.93	88.2976	3,481.93	88.0159	3,481.93	88.2047	3,481.93	86.8083	3,481.93	87.1708	3,481.93	87.1625	3,481.93	87.7695	3,481.93	87.2449	3,481.93	87.1487	3,481.93	85.7516	3,481.93	85.9849	3,481.93	84.6229	3,481.93	82.5887	3,481.93	82.8404	3,481.93	80.4343	3,481.93	81.1687	3,481.93	73.3806	3,481.93	76.6596	3,481.93	73.1335	3,481.93	68.9513	3,481.93	68.0632	3,481.93	63.7767	3,481.93	63.4318	3,481.93	67.3105	3,481.93	57.2179	3,481.93	57.1923	3,481.93	52.5846	3,481.93	57.4041	3,481.93	58.4024	3,481.93	61.5013	3,481.93	70.492	3,481.93	67.604	3,481.93	78.812	3,481.93	63.8821	3,481.93	66.1869
3,604.98	88.7931	3,604.98	87.8715	3,604.98	88.2994	3,604.98	86.4217	3,604.98	86.3556	3,604.98	86.5688	3,604.98	86.174	3,604.98	86.6966	3,604.98	87.3522	3,604.98	86.1025	3,604.98	87.3179	3,604.98	83.9305	3,604.98	85.3356	3,604.98	82.766	3,604.98	83.0354	3,604.98	81.8671	3,604.98	81.312	3,604.98	77.4829	3,604.98	79.3036	3,604.98	72.3401	3,604.98	72.0634	3,604.98	69.6487	3,604.98	67.6164	3,604.98	63.1881	3,604.98	68.304	3,604.98	45.0786	3,604.98	49.4959	3,604.98	61.7617	3,604.98	60.3831	3,604.98	64.7827	3,604.98	62.9109	3,604.98	71.785	3,604.98	53.6786	3,604.98	78.7151	3,604.98	60.9954	3,604.98	64.7237
3,732.42	89.5373	3,732.42	88.4355	3,732.42	89.1195	3,732.42	87.9537	3,732.42	88.6899	3,732.42	87.5666	3,732.42	87.9312	3,732.42	87.3623	3,732.42	86.2746	3,732.42	86.7541	3,732.42	86.1278	3,732.42	85.7826	3,732.42	85.5962	3,732.42	83.4191	3,732.42	84.0815	3,732.42	80.8079	3,732.42	81.2918	3,732.42	76.4188	3,732.42	79.6107	3,732.42	69.7578	3,732.42	74.1583	3,732.42	67.5977	3,732.42	62.7396	3,732.42	56.4197	3,732.42	67.3947	3,732.42	62.2495	3,732.42	59.4937	3,732.42	58.6572	3,732.42	62.8121	3,732.42	68.3937	3,732.42	56.5684	3,732.42	71.6255	3,732.42	61.7522	3,732.42	78.8151	3,732.42	59.2921	3,732.42	61.7628
3,864.26	88.6252	3,864.26	89.0327	3,864.26	88.5377	3,864.26	87.6852	3,864.26	88.128	3,864.26	87.0576	3,864.26	86.3976	3,864.26	86.2694	3,864.26	86.9827	3,864.26	86.1468	3,864.26	86.9162	3,864.26	85.2366	3,864.26	85.5129	3,864.26	83.3429	3,864.26	83.1183	3,864.26	81.6675	3,864.26	81.1103	3,864.26	77.9142	3,864.26	77.5758	3,864.26	74.493	3,864.26	76.4249	3,864.26	64.2682	3,864.26	69.0597	3,864.26	71.4803	3,864.26	59.458	3,864.26	53.4469	3,864.26	67.0566	3,864.26	64.7993	3,864.26	60.9107	3,864.26	66.748	3,864.26	56.937	3,864.26	65.2907	3,864.26	50.961	3,864.26	79.7825	3,864.26	58.9193	3,864.26	54.9802
4,000.49	88.6153	4,000.49	88.8813	4,000.49	88.639	4,000.49	88.2197	4,000.49	87.8053	4,000.49	86.1749	4,000.49	86.9467	4,000.49	87.1584	4,000.49	85.4458	4,000.49	86.5585	4,000.49	85.5309	4,000.49	85.7251	4,000.49	85.7561	4,000.49	83.5881	4,000.49	83.1753	4,000.49	80.9419	4,000.49	81.6157	4,000.49	77.0364	4,000.49	77.0615	4,000.49	69.2563	4,000.49	73.3051	4,000.49	67.8682	4,000.49	68.515	4,000.49	71.3112	4,000.49	64.9437	4,000.49	67.2987	4,000.49	66.7128	4,000.49	63.4857	4,000.49	61.3423	4,000.49	63.6849	4,000.49	62.0376	4,000.49	64.742	4,000.49	58.8955	4,000.49	78.5463	4,000.49	50.972	4,000.49	58.6787
4,141.11	88.2373	4,141.11	89.1185	4,141.11	88.9177	4,141.11	88.6336	4,141.11	88.2896	4,141.11	85.7966	4,141.11	85.7817	4,141.11	85.5007	4,141.11	86.3255	4,141.11	86.348	4,141.11	86.9892	4,141.11	85.5194	4,141.11	86.0119	4,141.11	82.2672	4,141.11	83.6512	4,141.11	80.4668	4,141.11	81.213	4,141.11	79.091	4,141.11	78.6466	4,141.11	68.8603	4,141.11	72.0632	4,141.11	71.003	4,141.11	64.1883	4,141.11	68.9786	4,141.11	66.4158	4,141.11	62.2072	4,141.11	68.5448	4,141.11	50.5767	4,141.11	57.2782	4,141.11	62.8004	4,141.11	61.347	4,141.11	68.419	4,141.11	59.2127	4,141.11	77.6536	4,141.11	46.1659	4,141.11	56.0031
4,287.6	89.1396	4,287.6	89.9075	4,287.6	89.6612	4,287.6	89.3769	4,287.6	89.3133	4,287.6	87.1376	4,287.6	86.6568	4,287.6	87.2533	4,287.6	86.853	4,287.6	87.0998	4,287.6	87.2889	4,287.6	86.0369	4,287.6	86.4999	4,287.6	84.0852	4,287.6	83.6349	4,287.6	80.1745	4,287.6	81.3672	4,287.6	72.4164	4,287.6	78.0958	4,287.6	75.2676	4,287.6	74.6541	4,287.6	58.5804	4,287.6	61.1539	4,287.6	64.1078	4,287.6	60.0597	4,287.6	62.0022	4,287.6	55.3514	4,287.6	67.6329	4,287.6	65.6026	4,287.6	68.1852	4,287.6	59.1544	4,287.6	68.7156	4,287.6	64.0905	4,287.6	77.0502	4,287.6	61.9349	4,287.6	57.0837
4,438.48	89.114	4,438.48	89.919	4,438.48	89.7009	4,438.48	89.2578	4,438.48	88.753	4,438.48	86.8747	4,438.48	86.6243	4,438.48	86.3532	4,438.48	85.9442	4,438.48	86.668	4,438.48	86.8022	4,438.48	85.2365	4,438.48	85.8743	4,438.48	82.2144	4,438.48	83.3766	4,438.48	80.8974	4,438.48	79.9972	4,438.48	75.7334	4,438.48	78.3606	4,438.48	68.0822	4,438.48	67.0079	4,438.48	60.0551	4,438.48	69.9063	4,438.48	69.7278	4,438.48	68.2357	4,438.48	55.8269	4,438.48	64.3784	4,438.48	65.5612	4,438.48	61.1197	4,438.48	56.0404	4,438.48	62.5877	4,438.48	63.3199	4,438.48	54.398	4,438.48	77.5113	4,438.48	61.7426	4,438.48	63.0861
4,595.21	88.4704	4,595.21	89.0145	4,595.21	88.9129	4,595.21	88.4029	4,595.21	88.5761	4,595.21	86.0145	4,595.21	85.8985	4,595.21	85.7003	4,595.21	85.7373	4,595.21	85.466	4,595.21	86.1826	4,595.21	84.1719	4,595.21	85.1515	4,595.21	81.3462	4,595.21	82.6266	4,595.21	78.5073	4,595.21	80.836	4,595.21	77.1894	4,595.21	77.8594	4,595.21	66.8848	4,595.21	75.7616	4,595.21	72.229	4,595.21	50.8963	4,595.21	58.8909	4,595.21	64.3873	4,595.21	63.3546	4,595.21	66.6626	4,595.21	57.24	4,595.21	65.0121	4,595.21	66.9006	4,595.21	62.7712	4,595.21	63.8424	4,595.21	61.9182	4,595.21	75.0992	4,595.21	57.6059	4,595.21	57.5976
4,756.35	89.6878	4,756.35	90.3643	4,756.35	89.7355	4,756.35	89.4199	4,756.35	89.056	4,756.35	87.3205	4,756.35	87.1616	4,756.35	86.6206	4,756.35	86.5496	4,756.35	86.1275	4,756.35	86.6599	4,756.35	85.1551	4,756.35	85.5219	4,756.35	82.7063	4,756.35	83.6116	4,756.35	80.5125	4,756.35	80.9339	4,756.35	73.9294	4,756.35	77.3571	4,756.35	73.9368	4,756.35	72.5697	4,756.35	69.2032	4,756.35	67.3327	4,756.35	65.6693	4,756.35	67.626	4,756.35	60.1733	4,756.35	61.1773	4,756.35	59.9447	4,756.35	58.3057	4,756.35	52.3899	4,756.35	43.2878	4,756.35	62.6711	4,756.35	58.2117	4,756.35	73.8976	4,756.35	61.4086	4,756.35	60.5625
4,924.8	89.5576	4,924.8	89.4349	4,924.8	89.3865	4,924.8	89.1684	4,924.8	88.6411	4,924.8	87.3581	4,924.8	86.8068	4,924.8	85.929	4,924.8	85.7487	4,924.8	85.3797	4,924.8	85.5641	4,924.8	84.7018	4,924.8	85.5513	4,924.8	83.2019	4,924.8	82.8903	4,924.8	80.386	4,924.8	81.267	4,924.8	76.7471	4,924.8	78.3958	4,924.8	62.6618	4,924.8	69.4922	4,924.8	74.1875	4,924.8	65.0166	4,924.8	68.7306	4,924.8	65.1806	4,924.8	64.5532	4,924.8	57.7013	4,924.8	58.7052	4,924.8	54.9892	4,924.8	65.4808	4,924.8	67.4282	4,924.8	59.0282	4,924.8	63.4074	4,924.8	74.9505	4,924.8	57.7317	4,924.8	53.6445
5,097.66	89.9528	5,097.66	89.7737	5,097.66	89.1374	5,097.66	89.1731	5,097.66	88.8094	5,097.66	87.6962	5,097.66	87.801	5,097.66	85.7069	5,097.66	85.7683	5,097.66	85.3225	5,097.66	86.0458	5,097.66	85.3132	5,097.66	85.949	5,097.66	83.0229	5,097.66	84.2982	5,097.66	80.6823	5,097.66	80.5196	5,097.66	75.8775	5,097.66	77.9878	5,097.66	73.0807	5,097.66	74.2505	5,097.66	60.4897	5,097.66	60.5612	5,097.66	69.5998	5,097.66	67.9212	5,097.66	64.3111	5,097.66	66.6202	5,097.66	63.4864	5,097.66	66.3891	5,097.66	58.8292	5,097.66	60.252	5,097.66	59.7475	5,097.66	45.2717	5,097.66	72.9912	5,097.66	65.56	5,097.66	65.3401
5,277.83	89.6086	5,277.83	89.2217	5,277.83	88.7249	5,277.83	88.9081	5,277.83	88.6258	5,277.83	87.4386	5,277.83	87.5236	5,277.83	85.2468	5,277.83	85.19	5,277.83	85.4834	5,277.83	85.8431	5,277.83	85.5509	5,277.83	85.702	5,277.83	83.6576	5,277.83	83.1992	5,277.83	80.138	5,277.83	80.73	5,277.83	76.9725	5,277.83	77.8099	5,277.83	62.1107	5,277.83	71.1625	5,277.83	68.0925	5,277.83	67.5552	5,277.83	60.1291	5,277.83	61.4716	5,277.83	67.6684	5,277.83	67.2687	5,277.83	64.1701	5,277.83	57.361	5,277.83	66.321	5,277.83	59.6734	5,277.83	63.8838	5,277.83	57.0804	5,277.83	70.7167	5,277.83	66.0918	5,277.83	63.4054
5,463.87	90.394	5,463.87	89.1528	5,463.87	88.7765	5,463.87	89.1882	5,463.87	89.1482	5,463.87	88.2862	5,463.87	88.3727	5,463.87	85.8406	5,463.87	86.0316	5,463.87	86.2397	5,463.87	86.3237	5,463.87	86.1511	5,463.87	86.1977	5,463.87	83.0655	5,463.87	83.5064	5,463.87	81.1092	5,463.87	81.3038	5,463.87	74.6973	5,463.87	76.1959	5,463.87	73.1562	5,463.87	75.2085	5,463.87	61.2317	5,463.87	57.5031	5,463.87	68.4173	5,463.87	63.5404	5,463.87	60.1075	5,463.87	56.077	5,463.87	59.8633	5,463.87	62.3722	5,463.87	67.1686	5,463.87	62.5234	5,463.87	63.3534	5,463.87	58.3051	5,463.87	69.0247	5,463.87	61.1825	5,463.87	54.5376
5,657.23	89.8866	5,657.23	88.5859	5,657.23	88.417	5,657.23	89.123	5,657.23	89.1735	5,657.23	87.8958	5,657.23	88.2638	5,657.23	86.6316	5,657.23	85.8887	5,657.23	86.2439	5,657.23	85.9132	5,657.23	85.3749	5,657.23	85.323	5,657.23	82.6838	5,657.23	82.8061	5,657.23	78.9916	5,657.23	78.6835	5,657.23	75.5024	5,657.23	77.0523	5,657.23	65.4791	5,657.23	68.9782	5,657.23	69.8253	5,657.23	62.1563	5,657.23	66.1204	5,657.23	63.1524	5,657.23	68.3069	5,657.23	64.7314	5,657.23	54.6107	5,657.23	68.343	5,657.23	64.7108	5,657.23	55.8639	5,657.23	54.3775	5,657.23	65.4528	5,657.23	69.6322	5,657.23	62.1913	5,657.23	61.2667
5,856.45	89.2858	5,856.45	88.1089	5,856.45	88.4338	5,856.45	88.7592	5,856.45	88.7721	5,856.45	87.864	5,856.45	88.1251	5,856.45	85.8593	5,856.45	86.2275	5,856.45	85.2866	5,856.45	85.6903	5,856.45	84.1727	5,856.45	84.9819	5,856.45	81.3628	5,856.45	82.155	5,856.45	78.0592	5,856.45	79.775	5,856.45	75.2442	5,856.45	75.5696	5,856.45	67.4302	5,856.45	73.5905	5,856.45	72.6525	5,856.45	61.8776	5,856.45	57.6787	5,856.45	63.59	5,856.45	69.4618	5,856.45	63.8811	5,856.45	56.4706	5,856.45	61.6508	5,856.45	52.8329	5,856.45	63.1505	5,856.45	59.8748	5,856.45	62.111	5,856.45	69.3369	5,856.45	64.9315	5,856.45	58.6516
6,062.99	89.813	6,062.99	88.9444	6,062.99	89.4725	6,062.99	89.0542	6,062.99	89.3722	6,062.99	88.8582	6,062.99	88.2933	6,062.99	87.4525	6,062.99	86.0328	6,062.99	85.7906	6,062.99	84.8706	6,062.99	84.67	6,062.99	84.0232	6,062.99	81.693	6,062.99	82.6277	6,062.99	80.138	6,062.99	78.8626	6,062.99	73.3638	6,062.99	77.3549	6,062.99	71.0929	6,062.99	70.7123	6,062.99	70.685	6,062.99	61.6715	6,062.99	62.4113	6,062.99	58.2691	6,062.99	64.9016	6,062.99	52.6577	6,062.99	52.5561	6,062.99	55.3487	6,062.99	55.1618	6,062.99	64.5795	6,062.99	60.2029	6,062.99	54.5706	6,062.99	64.8176	6,062.99	65.053	6,062.99	51.589
6,276.86	88.8817	6,276.86	88.5192	6,276.86	89.0483	6,276.86	88.3581	6,276.86	88.8588	6,276.86	88.2614	6,276.86	88.3649	6,276.86	86.3015	6,276.86	86.0282	6,276.86	84.4092	6,276.86	84.3598	6,276.86	83.1118	6,276.86	84.2281	6,276.86	81.1523	6,276.86	82.429	6,276.86	77.2714	6,276.86	79.2866	6,276.86	70.4014	6,276.86	76.5171	6,276.86	65.7714	6,276.86	67.4427	6,276.86	63.6711	6,276.86	65.1866	6,276.86	66.4644	6,276.86	49.3558	6,276.86	65.3502	6,276.86	59.7335	6,276.86	47.6935	6,276.86	58.5652	6,276.86	61.6052	6,276.86	59.9605	6,276.86	56.3902	6,276.86	52.5039	6,276.86	56.4191	6,276.86	43.9533	6,276.86	46.6725
6,498.05	88.2257	6,498.05	88.3398	6,498.05	88.7227	6,498.05	87.8842	6,498.05	88.362	6,498.05	88.5119	6,498.05	88.4216	6,498.05	86.2581	6,498.05	85.805	6,498.05	83.912	6,498.05	84.1003	6,498.05	83.0409	6,498.05	83.8907	6,498.05	80.5405	6,498.05	81.7038	6,498.05	77.7817	6,498.05	77.9828	6,498.05	72.239	6,498.05	73.5549	6,498.05	65.3065	6,498.05	70.8451	6,498.05	58.8747	6,498.05	66.7276	6,498.05	68.1905	6,498.05	56.4727	6,498.05	67.7287	6,498.05	60.638	6,498.05	54.5009	6,498.05	57.1716	6,498.05	56.8878	6,498.05	65.9436	6,498.05	37.0516	6,498.05	50.0971	6,498.05	61.7896	6,498.05	63.171	6,498.05	42.6068
6,726.56	88.3749	6,726.56	88.5319	6,726.56	89.447	6,726.56	88.2077	6,726.56	89.024	6,726.56	89.0329	6,726.56	88.652	6,726.56	86.3587	6,726.56	86.107	6,726.56	84.3322	6,726.56	84.139	6,726.56	83.401	6,726.56	84.1067	6,726.56	81.4955	6,726.56	81.4328	6,726.56	78.1161	6,726.56	78.4278	6,726.56	74.0153	6,726.56	74.8541	6,726.56	65.2371	6,726.56	72.6478	6,726.56	59.0111	6,726.56	65.1618	6,726.56	67.329	6,726.56	63.4088	6,726.56	65.7019	6,726.56	48.3362	6,726.56	59.0226	6,726.56	46.0552	6,726.56	55.655	6,726.56	64.979	6,726.56	62.2496	6,726.56	50.727	6,726.56	60.4662	6,726.56	67.689	6,726.56	51.7178
6,963.87	86.7362	6,963.87	87.8932	6,963.87	88.0971	6,963.87	87.5552	6,963.87	88.0519	6,963.87	88.0749	6,963.87	88.183	6,963.87	85.6468	6,963.87	85.7599	6,963.87	83.7576	6,963.87	83.9791	6,963.87	82.9624	6,963.87	83.2049	6,963.87	81.0841	6,963.87	81.4121	6,963.87	78.0757	6,963.87	78.0939	6,963.87	74.2393	6,963.87	74.5357	6,963.87	66.5354	6,963.87	72.3382	6,963.87	63.2493	6,963.87	58.732	6,963.87	61.8732	6,963.87	63.4817	6,963.87	46.6045	6,963.87	59.6209	6,963.87	58.9561	6,963.87	49.4191	6,963.87	55.1257	6,963.87	53.4311	6,963.87	62.9939	6,963.87	53.6914	6,963.87	55.5924	6,963.87	61.5365	6,963.87	56.2637
7,209.96	87.6233	7,209.96	88.1033	7,209.96	88.7845	7,209.96	88.5898	7,209.96	88.9371	7,209.96	88.3984	7,209.96	88.2978	7,209.96	86.6759	7,209.96	86.442	7,209.96	84.1476	7,209.96	83.9679	7,209.96	83.8959	7,209.96	83.2806	7,209.96	82.1846	7,209.96	81.7918	7,209.96	79.3704	7,209.96	78.6776	7,209.96	73.7766	7,209.96	74.9009	7,209.96	68.1184	7,209.96	70.3386	7,209.96	60.4409	7,209.96	57.6585	7,209.96	65.4159	7,209.96	58.0738	7,209.96	57.3561	7,209.96	55.7558	7,209.96	60.79	7,209.96	56.7419	7,209.96	43.9424	7,209.96	65.1229	7,209.96	58.2525	7,209.96	59.1845	7,209.96	60.2129	7,209.96	58.4406	7,209.96	47.0405
7,464.84	87.4067	7,464.84	87.987	7,464.84	87.9047	7,464.84	88.3778	7,464.84	88.609	7,464.84	87.7225	7,464.84	87.9655	7,464.84	86.5201	7,464.84	86.7142	7,464.84	83.6641	7,464.84	83.7871	7,464.84	83.9491	7,464.84	83.4451	7,464.84	82.0358	7,464.84	81.1005	7,464.84	77.9639	7,464.84	78.0166	7,464.84	74.558	7,464.84	74.3768	7,464.84	68.4098	7,464.84	68.6883	7,464.84	59.7	7,464.84	64.9209	7,464.84	66.6893	7,464.84	60.6371	7,464.84	56.6265	7,464.84	65.147	7,464.84	60.5122	7,464.84	62.9429	7,464.84	61.2281	7,464.84	63.6806	7,464.84	61.0408	7,464.84	61.4194	7,464.84	58.0261	7,464.84	60.1276	7,464.84	57.2746
7,727.05	87.778	7,727.05	87.8826	7,727.05	88.0789	7,727.05	88.5796	7,727.05	88.8924	7,727.05	87.4249	7,727.05	87.8448	7,727.05	86.5528	7,727.05	86.9822	7,727.05	83.4735	7,727.05	84.1369	7,727.05	83.5575	7,727.05	83.9158	7,727.05	80.7254	7,727.05	80.9035	7,727.05	77.2482	7,727.05	77.0032	7,727.05	70.1584	7,727.05	73.3964	7,727.05	68.9553	7,727.05	69.669	7,727.05	56.4142	7,727.05	63.8456	7,727.05	62.3575	7,727.05	59.5076	7,727.05	56.914	7,727.05	63.266	7,727.05	60.6621	7,727.05	51.8964	7,727.05	51.4699	7,727.05	61.0108	7,727.05	63.8236	7,727.05	52.755	7,727.05	48.4055	7,727.05	49.342	7,727.05	56.2945
7,999.51	87.8875	7,999.51	88.1536	7,999.51	87.8577	7,999.51	88.2098	7,999.51	88.7327	7,999.51	87.2921	7,999.51	87.7037	7,999.51	86.3336	7,999.51	86.5674	7,999.51	83.7312	7,999.51	84.2673	7,999.51	83.0139	7,999.51	83.2246	7,999.51	79.9155	7,999.51	80.2641	7,999.51	75.8512	7,999.51	77.1744	7,999.51	72.2017	7,999.51	71.47	7,999.51	62.974	7,999.51	70.3457	7,999.51	58.698	7,999.51	63.9323	7,999.51	67.0675	7,999.51	58.3543	7,999.51	48.4407	7,999.51	67.3892	7,999.51	62.0346	7,999.51	55.5603	7,999.51	56.6232	7,999.51	63.7199	7,999.51	55.6199	7,999.51	54.5006	7,999.51	44.3852	7,999.51	42.6857	7,999.51	57.4015
8,282.23	88.0415	8,282.23	87.8996	8,282.23	88.0789	8,282.23	88.1973	8,282.23	88.6027	8,282.23	86.9372	8,282.23	87.3035	8,282.23	86.1981	8,282.23	86.1805	8,282.23	83.6582	8,282.23	83.9401	8,282.23	81.9575	8,282.23	82.489	8,282.23	79.3105	8,282.23	79.9426	8,282.23	75.8005	8,282.23	76.4777	8,282.23	72.2013	8,282.23	72.9114	8,282.23	69.3732	8,282.23	68.3797	8,282.23	60.1386	8,282.23	58.0127	8,282.23	66.0432	8,282.23	57.3769	8,282.23	57.9194	8,282.23	64.1266	8,282.23	58.8887	8,282.23	57.8947	8,282.23	60.2238	8,282.23	62.9467	8,282.23	59.6748	8,282.23	59.1532	8,282.23	53.8105	8,282.23	63.3189	8,282.23	53.2265
8,573.73	88.1211	8,573.73	88.0194	8,573.73	88.0087	8,573.73	87.9471	8,573.73	88.3998	8,573.73	86.4458	8,573.73	87.0828	8,573.73	85.756	8,573.73	86.2316	8,573.73	83.2208	8,573.73	83.6671	8,573.73	81.2993	8,573.73	81.8329	8,573.73	78.8275	8,573.73	79.4888	8,573.73	74.2911	8,573.73	75.6396	8,573.73	70.204	8,573.73	70.7984	8,573.73	65.007	8,573.73	63.0832	8,573.73	63.967	8,573.73	65.1526	8,573.73	63.5199	8,573.73	61.1693	8,573.73	61.867	8,573.73	56.3246	8,573.73	55.7639	8,573.73	54.8392	8,573.73	57.4067	8,573.73	58.1378	8,573.73	61.2614	8,573.73	51.7938	8,573.73	60.4563	8,573.73	47.3577	8,573.73	54.4161
8,876.95	88.0668	8,876.95	87.8783	8,876.95	87.5381	8,876.95	87.5191	8,876.95	87.8999	8,876.95	86.1322	8,876.95	86.8801	8,876.95	85.4677	8,876.95	85.9291	8,876.95	82.1917	8,876.95	83.0516	8,876.95	80.592	8,876.95	81.5815	8,876.95	77.3173	8,876.95	78.1204	8,876.95	73.7129	8,876.95	75.4523	8,876.95	69.4989	8,876.95	69.5976	8,876.95	66.2361	8,876.95	70.4975	8,876.95	55.7871	8,876.95	46.382	8,876.95	62.386	8,876.95	61.5698	8,876.95	54.7794	8,876.95	65.4953	8,876.95	59.791	8,876.95	58.7587	8,876.95	59.8741	8,876.95	64.4354	8,876.95	60.3916	8,876.95	58.7024	8,876.95	57.6211	8,876.95	62.0579	8,876.95	55.9793
9,188.96	88.1329	9,188.96	87.8781	9,188.96	87.6022	9,188.96	87.4968	9,188.96	87.8562	9,188.96	86.2709	9,188.96	86.8203	9,188.96	85.6747	9,188.96	85.7044	9,188.96	81.9335	9,188.96	82.5713	9,188.96	80.366	9,188.96	80.7827	9,188.96	77.3578	9,188.96	78.0106	9,188.96	74.3508	9,188.96	74.2118	9,188.96	68.5499	9,188.96	71.2068	9,188.96	48.0244	9,188.96	58.179	9,188.96	67.8683	9,188.96	62.6672	9,188.96	60.6683	9,188.96	54.6326	9,188.96	64.9074	9,188.96	66.4077	9,188.96	60.5484	9,188.96	58.4181	9,188.96	59.8552	9,188.96	48.9636	9,188.96	57.4333	9,188.96	51.7312	9,188.96	60.0338	9,188.96	55.2671	9,188.96	56.1142
9,514.16	88.765	9,514.16	87.8121	9,514.16	87.8118	9,514.16	87.5251	9,514.16	87.837	9,514.16	86.5706	9,514.16	86.8981	9,514.16	85.6031	9,514.16	85.5179	9,514.16	82.0394	9,514.16	82.4688	9,514.16	79.8269	9,514.16	79.9077	9,514.16	77.0492	9,514.16	77.9213	9,514.16	73.7802	9,514.16	74.1096	9,514.16	67.4837	9,514.16	67.8585	9,514.16	65.3365	9,514.16	69.9043	9,514.16	65.3372	9,514.16	59.267	9,514.16	61.8605	9,514.16	48.9957	9,514.16	58.9315	9,514.16	54.3695	9,514.16	46.9097	9,514.16	60.0303	9,514.16	62.2784	9,514.16	59.4498	9,514.16	61.6638	9,514.16	59.8174	9,514.16	60.6939	9,514.16	50.6921	9,514.16	62.2025
9,849.61	88.9265	9,849.61	87.8864	9,849.61	87.8995	9,849.61	87.4197	9,849.61	87.8018	9,849.61	86.5565	9,849.61	86.9195	9,849.61	85.1941	9,849.61	85.2834	9,849.61	81.5653	9,849.61	82.3251	9,849.61	78.9818	9,849.61	79.8074	9,849.61	77.2678	9,849.61	77.6193	9,849.61	72.374	9,849.61	73.5388	9,849.61	67.5753	9,849.61	69.3866	9,849.61	64.6354	9,849.61	66.7289	9,849.61	67.1747	9,849.61	60.3604	9,849.61	57.4444	9,849.61	58.1581	9,849.61	66.088	9,849.61	65.7087	9,849.61	62.024	9,849.61	54.8793	9,849.61	54.2702	9,849.61	49.0424	9,849.61	53.5979	9,849.61	57.6367	9,849.61	51	9,849.61	59.4708	9,849.61	58.8103
10,196.8	89.2351	10,196.8	88.0467	10,196.8	87.9553	10,196.8	87.591	10,196.8	87.9463	10,196.8	86.6184	10,196.8	87.1665	10,196.8	84.9479	10,196.8	85.6051	10,196.8	80.8413	10,196.8	82.3129	10,196.8	79.4121	10,196.8	80.6478	10,196.8	76.0492	10,196.8	77.2597	10,196.8	72.5039	10,196.8	73.9746	10,196.8	67.3598	10,196.8	69.3639	10,196.8	65.7702	10,196.8	59.1422	10,196.8	67.7668	10,196.8	65.5361	10,196.8	60.8701	10,196.8	53.5536	10,196.8	64.7342	10,196.8	53.8397	10,196.8	56.1378	10,196.8	59.6678	10,196.8	65.417	10,196.8	51.4444	10,196.8	57.594	10,196.8	61.1341	10,196.8	56.1539	10,196.8	58.6233	10,196.8	61.9299
10,555.7	89.2483	10,555.7	88.1172	10,555.7	88.1872	10,555.7	87.6122	10,555.7	87.7155	10,555.7	86.3297	10,555.7	86.9063	10,555.7	84.4882	10,555.7	85.2834	10,555.7	80.9361	10,555.7	81.904	10,555.7	78.6292	10,555.7	79.5382	10,555.7	75.9906	10,555.7	77.2575	10,555.7	73.1371	10,555.7	74.073	10,555.7	67.6006	10,555.7	68.7525	10,555.7	66.3475	10,555.7	62.9487	10,555.7	69.4273	10,555.7	62.9064	10,555.7	62.9919	10,555.7	62.1208	10,555.7	69.1241	10,555.7	56.7163	10,555.7	56.0557	10,555.7	61.008	10,555.7	57.5626	10,555.7	56.6251	10,555.7	62.6865	10,555.7	51.5453	10,555.7	50.8293	10,555.7	64.4348	10,555.7	54.9337
10,927.7	89.4684	10,927.7	88.2143	10,927.7	88.3473	10,927.7	87.6394	10,927.7	87.7382	10,927.7	86.455	10,927.7	86.992	10,927.7	84.5202	10,927.7	85.0443	10,927.7	81.1881	10,927.7	82.254	10,927.7	78.344	10,927.7	79.4209	10,927.7	76.7301	10,927.7	78.141	10,927.7	72.4811	10,927.7	73.7654	10,927.7	67.5135	10,927.7	69.6929	10,927.7	63.0419	10,927.7	66.1922	10,927.7	65.6129	10,927.7	67.1659	10,927.7	65.6029	10,927.7	57.6821	10,927.7	63.6767	10,927.7	51.8824	10,927.7	51.4985	10,927.7	63.7391	10,927.7	63.037	10,927.7	58.1692	10,927.7	57.2062	10,927.7	63.1974	10,927.7	64.3727	10,927.7	63.2479	10,927.7	60.9626
11,313	89.4544	11,313	88.1134	11,313	88.2477	11,313	87.4634	11,313	87.7581	11,313	86.1406	11,313	86.7432	11,313	84.242	11,313	84.9266	11,313	80.4986	11,313	82.1938	11,313	78.3618	11,313	79.8434	11,313	76.5298	11,313	78.4103	11,313	72.9707	11,313	74.1096	11,313	67.8906	11,313	69.5961	11,313	45.8071	11,313	63.5196	11,313	56.6275	11,313	55.6738	11,313	68.6452	11,313	50.896	11,313	67.0901	11,313	57.5647	11,313	47.8276	11,313	62.8149	11,313	52.5791	11,313	56.1342	11,313	61.0521	11,313	55.005	11,313	48.551	11,313	60.1432	11,313	58.2891
11,712.9	89.4304	11,712.9	88.1794	11,712.9	88.3306	11,712.9	87.3216	11,712.9	87.6938	11,712.9	85.9341	11,712.9	86.4302	11,712.9	84.0154	11,712.9	84.698	11,712.9	80.372	11,712.9	82.0837	11,712.9	78.4023	11,712.9	79.7363	11,712.9	76.4714	11,712.9	78.6539	11,712.9	73.5063	11,712.9	74.0363	11,712.9	65.9583	11,712.9	70.2792	11,712.9	47.8012	11,712.9	65.3592	11,712.9	56.392	11,712.9	63.479	11,712.9	68.2429	11,712.9	32.1656	11,712.9	57.0746	11,712.9	52.646	11,712.9	52.4836	11,712.9	66.7747	11,712.9	62.5816	11,712.9	44.8838	11,712.9	54.0423	11,712.9	59.332	11,712.9	62.4149	11,712.9	67.4295	11,712.9	56.5862
12,126	89.3492	12,126	88.2051	12,126	88.4582	12,126	87.4218	12,126	87.7503	12,126	85.5129	12,126	86.2427	12,126	83.7194	12,126	84.5728	12,126	80.4473	12,126	81.8414	12,126	77.8118	12,126	79.3687	12,126	76.5374	12,126	78.0328	12,126	72.0752	12,126	74.1225	12,126	67.9207	12,126	69.6135	12,126	51.82	12,126	64.4072	12,126	37.5621	12,126	57.1024	12,126	67.1333	12,126	59.1493	12,126	62.4395	12,126	59.1775	12,126	61.8945	12,126	66.3823	12,126	60.2878	12,126	55.5459	12,126	62.1528	12,126	56.9925	12,126	49.2555	12,126	55.4404	12,126	54.1644
12,553.7	89.1014	12,553.7	88.0786	12,553.7	88.4823	12,553.7	87.2053	12,553.7	87.5367	12,553.7	85.0264	12,553.7	85.9801	12,553.7	83.306	12,553.7	84.1604	12,553.7	79.7928	12,553.7	81.6409	12,553.7	77.3696	12,553.7	79.1399	12,553.7	75.3411	12,553.7	77.1651	12,553.7	70.2475	12,553.7	72.1824	12,553.7	65.4478	12,553.7	67.6023	12,553.7	59.9806	12,553.7	60.7318	12,553.7	52.9865	12,553.7	62.3062	12,553.7	64.4384	12,553.7	60.8744	12,553.7	63.3052	12,553.7	54.6194	12,553.7	59.7803	12,553.7	67.5536	12,553.7	53.3653	12,553.7	51.724	12,553.7	55.4067	12,553.7	48.9975	12,553.7	56.5917	12,553.7	65.6717	12,553.7	60.7632
12,996.1	88.9269	12,996.1	88.0999	12,996.1	88.4931	12,996.1	86.7676	12,996.1	87.1921	12,996.1	84.5435	12,996.1	85.4944	12,996.1	82.9087	12,996.1	83.7878	12,996.1	79.3154	12,996.1	81.3065	12,996.1	76.6156	12,996.1	78.4876	12,996.1	74.9701	12,996.1	76.6457	12,996.1	71.573	12,996.1	72.2653	12,996.1	67.6533	12,996.1	69.1245	12,996.1	61.3912	12,996.1	61.5511	12,996.1	60.0605	12,996.1	62.6286	12,996.1	60.2793	12,996.1	59.1564	12,996.1	67.0207	12,996.1	55.9249	12,996.1	65.7275	12,996.1	64.0446	12,996.1	58.5365	12,996.1	58.6444	12,996.1	60.8706	12,996.1	56.9348	12,996.1	57.4326	12,996.1	61.9516	12,996.1	58.0689
13,454.6	88.5004	13,454.6	88.0827	13,454.6	88.3071	13,454.6	86.4229	13,454.6	87.0109	13,454.6	84.1591	13,454.6	85.0409	13,454.6	82.3376	13,454.6	83.5537	13,454.6	79.0029	13,454.6	80.8235	13,454.6	76.1179	13,454.6	77.5699	13,454.6	75.2506	13,454.6	76.1342	13,454.6	70.5793	13,454.6	71.9528	13,454.6	67.8797	13,454.6	68.709	13,454.6	61.4741	13,454.6	62.3576	13,454.6	62.9068	13,454.6	52.5141	13,454.6	56.5823	13,454.6	58.366	13,454.6	66.3508	13,454.6	47.985	13,454.6	66.043	13,454.6	62.6627	13,454.6	51.5198	13,454.6	59.0336	13,454.6	60.9613	13,454.6	45.416	13,454.6	57.5421	13,454.6	62.2579	13,454.6	57.7335
13,929.2	88.1528	13,929.2	87.7607	13,929.2	88.0659	13,929.2	86.0288	13,929.2	86.8413	13,929.2	83.6352	13,929.2	84.6818	13,929.2	82.1348	13,929.2	83.2116	13,929.2	78.6964	13,929.2	80.5795	13,929.2	76.0288	13,929.2	77.3811	13,929.2	75.1772	13,929.2	76.1186	13,929.2	71.5145	13,929.2	72.6229	13,929.2	67.8023	13,929.2	68.011	13,929.2	53.8638	13,929.2	62.4192	13,929.2	60.4553	13,929.2	56.2094	13,929.2	60.0528	13,929.2	56.7698	13,929.2	67.9378	13,929.2	52.2261	13,929.2	61.974	13,929.2	65.2014	13,929.2	60.4663	13,929.2	64.8196	13,929.2	55.7805	13,929.2	56.2188	13,929.2	54.8828	13,929.2	64.0511	13,929.2	35.9367
14,419.9	87.9914	14,419.9	87.5621	14,419.9	87.9816	14,419.9	85.6363	14,419.9	86.6613	14,419.9	83.1518	14,419.9	84.3379	14,419.9	81.7368	14,419.9	82.8533	14,419.9	78.5005	14,419.9	79.9547	14,419.9	75.9163	14,419.9	77.2369	14,419.9	75.2334	14,419.9	76.3423	14,419.9	71.6576	14,419.9	72.6281	14,419.9	66.7208	14,419.9	67.0201	14,419.9	55.7745	14,419.9	61.8544	14,419.9	63.3401	14,419.9	52.1155	14,419.9	62.6325	14,419.9	31.2458	14,419.9	66.4709	14,419.9	56.6597	14,419.9	64.9405	14,419.9	59.208	14,419.9	61.0608	14,419.9	61.4307	14,419.9	61.4035	14,419.9	54.0109	14,419.9	57.179	14,419.9	64.9933	14,419.9	56.9299
14,928.2	87.6237	14,928.2	86.9573	14,928.2	87.489	14,928.2	85.1751	14,928.2	86.2437	14,928.2	82.4151	14,928.2	84.0384	14,928.2	81.1402	14,928.2	82.6425	14,928.2	77.7925	14,928.2	79.6091	14,928.2	75.3123	14,928.2	76.9522	14,928.2	74.9059	14,928.2	75.7468	14,928.2	70.4219	14,928.2	72.1694	14,928.2	66.3244	14,928.2	65.8649	14,928.2	46.0248	14,928.2	62.4938	14,928.2	64.2289	14,928.2	42.7428	14,928.2	53.5872	14,928.2	44.2235	14,928.2	66.1648	14,928.2	56.3615	14,928.2	62.9886	14,928.2	58.6158	14,928.2	53.1175	14,928.2	60.5306	14,928.2	57.8288	14,928.2	60.999	14,928.2	50.6244	14,928.2	61.3568	14,928.2	59.1877
15,455.6	87.4058	15,455.6	86.3474	15,455.6	87.0955	15,455.6	84.5608	15,455.6	85.9352	15,455.6	81.8105	15,455.6	83.7263	15,455.6	80.1932	15,455.6	81.9759	15,455.6	77.208	15,455.6	78.9617	15,455.6	74.371	15,455.6	76.3154	15,455.6	73.785	15,455.6	75.0406	15,455.6	69.7665	15,455.6	70.4806	15,455.6	63.2433	15,455.6	65.8933	15,455.6	51.5875	15,455.6	57.5332	15,455.6	58.5314	15,455.6	53.1376	15,455.6	58.6752	15,455.6	55.0655	15,455.6	65.9251	15,455.6	56.5145	15,455.6	61.7126	15,455.6	57.0216	15,455.6	50.4922	15,455.6	61.5855	15,455.6	49.3722	15,455.6	62.7134	15,455.6	51.199	15,455.6	63.7357	15,455.6	57.3896
16,000.5	87.283	16,000.5	85.8104	16,000.5	86.7386	16,000.5	83.8726	16,000.5	85.5551	16,000.5	80.982	16,000.5	83.3596	16,000.5	78.9767	16,000.5	80.937	16,000.5	75.997	16,000.5	78.3412	16,000.5	73.2627	16,000.5	75.526	16,000.5	71.7114	16,000.5	73.6204	16,000.5	65.5065	16,000.5	68.9329	16,000.5	64.4909	16,000.5	65.9736	16,000.5	57.2958	16,000.5	51.8822	16,000.5	59.1076	16,000.5	53.2508	16,000.5	59.9531	16,000.5	53.7073	16,000.5	63.9868	16,000.5	55.9735	16,000.5	63.069	16,000.5	32.5265	16,000.5	58.7624	16,000.5	60.7211	16,000.5	55.4798	16,000.5	59.2867	16,000.5	49.5379	16,000.5	61.0215	16,000.5	46.7838
16,564.5	87.0431	16,564.5	85.4258	16,564.5	86.2764	16,564.5	83.3954	16,564.5	85.067	16,564.5	80.2474	16,564.5	82.7746	16,564.5	77.4365	16,564.5	79.6296	16,564.5	74.4858	16,564.5	77.3652	16,564.5	71.906	16,564.5	73.9033	16,564.5	69.4081	16,564.5	71.7309	16,564.5	65.3187	16,564.5	66.6769	16,564.5	58.2167	16,564.5	60.4151	16,564.5	59.9812	16,564.5	60.4892	16,564.5	60.2873	16,564.5	58.6305	16,564.5	59.0609	16,564.5	56.9615	16,564.5	58.5756	16,564.5	51.0011	16,564.5	61.0245	16,564.5	51.0923	16,564.5	59.1919	16,564.5	60.6877	16,564.5	59.2727	16,564.5	58.0729	16,564.5	40.6928	16,564.5	62.3231	16,564.5	36.9037
17,148.9	87.0047	17,148.9	85.2854	17,148.9	86.0803	17,148.9	83.4775	17,148.9	84.649	17,148.9	80.0285	17,148.9	82.0611	17,148.9	77.4539	17,148.9	78.5435	17,148.9	74.7067	17,148.9	75.6862	17,148.9	71.1641	17,148.9	71.088	17,148.9	69.3915	17,148.9	69.1732	17,148.9	66.2678	17,148.9	65.8465	17,148.9	59.2359	17,148.9	60.0482	17,148.9	62.9541	17,148.9	49.5639	17,148.9	59.2762	17,148.9	53.776	17,148.9	57.9771	17,148.9	58.4102	17,148.9	59.0048	17,148.9	47.9995	17,148.9	58.8053	17,148.9	47.6292	17,148.9	53.6258	17,148.9	63.2275	17,148.9	59.0586	17,148.9	59.6095	17,148.9	44.7355	17,148.9	61.5667	17,148.9	48.7299
17,752.4	86.9195	17,752.4	85.1507	17,752.4	85.9054	17,752.4	82.9619	17,752.4	84.2743	17,752.4	78.68	17,752.4	80.669	17,752.4	75.5166	17,752.4	76.4052	17,752.4	72.5797	17,752.4	72.9262	17,752.4	69.0593	17,752.4	68.3589	17,752.4	67.9368	17,752.4	66.2297	17,752.4	66.0316	17,752.4	63.9015	17,752.4	57.5182	17,752.4	58.6381	17,752.4	60.7079	17,752.4	46.5817	17,752.4	60.7033	17,752.4	55.1246	17,752.4	50.4816	17,752.4	59.6835	17,752.4	53.378	17,752.4	39.2326	17,752.4	55.3114	17,752.4	47.6862	17,752.4	47.2787	17,752.4	60.694	17,752.4	55.5131	17,752.4	59.7192	17,752.4	33.3536	17,752.4	63.3376	17,752.4	51.7212
18,379.4	86.4464	18,379.4	84.6788	18,379.4	85.3274	18,379.4	82.2396	18,379.4	83.3403	18,379.4	77.1477	18,379.4	78.9981	18,379.4	73.4839	18,379.4	74.5391	18,379.4	70.6117	18,379.4	69.3021	18,379.4	68.7601	18,379.4	64.8444	18,379.4	67.8187	18,379.4	66.1413	18,379.4	64.2407	18,379.4	62.4498	18,379.4	56.0885	18,379.4	55.1039	18,379.4	56.2688	18,379.4	50.2574	18,379.4	64.492	18,379.4	53.886	18,379.4	53.6189	18,379.4	60.9048	18,379.4	50.7197	18,379.4	47.0759	18,379.4	53.7236	18,379.4	56.6341	18,379.4	42.7937	18,379.4	50.1957	18,379.4	52.9883	18,379.4	63.2769	18,379.4	34.9431	18,379.4	61.5157	18,379.4	49.7491
19,026.9	85.9409	19,026.9	84.329	19,026.9	84.8081	19,026.9	81.3332	19,026.9	82.3785	19,026.9	75.5534	19,026.9	77.0539	19,026.9	72.0635	19,026.9	72.2272	19,026.9	70.282	19,026.9	66.5189	19,026.9	69.2765	19,026.9	65.7471	19,026.9	66.4344	19,026.9	64.5373	19,026.9	62.9949	19,026.9	59.9327	19,026.9	57.1746	19,026.9	52.659	19,026.9	58.8494	19,026.9	44.5992	19,026.9	63.2765	19,026.9	54.2835	19,026.9	53.3659	19,026.9	59.0967	19,026.9	53.0029	19,026.9	51.0419	19,026.9	47.6631	19,026.9	56.8803	19,026.9	52.85	19,026.9	50.5231	19,026.9	50.6464	19,026.9	61.4409	19,026.9	25.2915	19,026.9	59.6555	19,026.9	47.248
19,697.8	85.1468	19,697.8	83.6131	19,697.8	84.1675	19,697.8	80.259	19,697.8	81.2421	19,697.8	74.5053	19,697.8	75.5617	19,697.8	71.4617	19,697.8	70.2612	19,697.8	70.5128	19,697.8	66.7335	19,697.8	69.275	19,697.8	65.9057	19,697.8	65.296	19,697.8	63.4315	19,697.8	62.4559	19,697.8	59.4293	19,697.8	52.4222	19,697.8	54.6884	19,697.8	52.1601	19,697.8	47.7953	19,697.8	57.9905	19,697.8	56.6459	19,697.8	60.5845	19,697.8	55.679	19,697.8	52.4043	19,697.8	58.2591	19,697.8	51.1932	19,697.8	55.958	19,697.8	53.1595	19,697.8	45.9896	19,697.8	53.3975	19,697.8	61.2315	19,697.8	41.3546	19,697.8	57.5874	19,697.8	47.1207
19,999.5	84.725	19,999.5	83.6418	19,999.5	83.7572	19,999.5	80.133	19,999.5	81.0931	19,999.5	72.9967	19,999.5	74.1752	19,999.5	70.3943	19,999.5	68.8278	19,999.5	69.4038	19,999.5	67.7228	19,999.5	69.7617	19,999.5	66.8316	19,999.5	62.7844	19,999.5	63.5656	19,999.5	59.3201	19,999.5	60.2232	19,999.5	53.3663	19,999.5	59.7636	19,999.5	55.4071	19,999.5	56.5165	19,999.5	53.7061	19,999.5	56.6509	19,999.5	60.9818	19,999.5	55.3737	19,999.5	53.1331	19,999.5	60.4977	19,999.5	53.1729	19,999.5	55.4565	19,999.5	51.5886	19,999.5	40.1148	19,999.5	55.706	19,999.5	61.7175	19,999.5	47.2455	19,999.5	58.7448	19,999.5	35.5907
