"SPL Vertical"
"On-Axis"		"10°"		"-10°"		"20°"		"-20°"		"30°"		"-30°"		"40°"		"-40°"		"50°"		"-50°"		"60°"		"-60°"		"70°"		"-70°"		"80°"		"-80°"		"90°"		"-90°"		"100°"		"-100°"		"110°"		"-110°"		"120°"		"-120°"		"130°"		"-130°"		"140°"		"-140°"		"150°"		"-150°"		"160°"		"-160°"		"170°"		"-170°"		"180°"
"Frequency [Hz]"	"Sound Pessure Level [dB]  / [2.83V 1m] "	"Frequency [Hz]"	"Sound Pessure Level [dB]  / [2.83V 1m] "	"Frequency [Hz]"	"Sound Pessure Level [dB]  / [2.83V 1m] "	"Frequency [Hz]"	"Sound Pessure Level [dB]  / [2.83V 1m] "	"Frequency [Hz]"	"Sound Pessure Level [dB]  / [2.83V 1m] "	"Frequency [Hz]"	"Sound Pessure Level [dB]  / [2.83V 1m] "	"Frequency [Hz]"	"Sound Pessure Level [dB]  / [2.83V 1m] "	"Frequency [Hz]"	"Sound Pessure Level [dB]  / [2.83V 1m] "	"Frequency [Hz]"	"Sound Pessure Level [dB]  / [2.83V 1m] "	"Frequency [Hz]"	"Sound Pessure Level [dB]  / [2.83V 1m] "	"Frequency [Hz]"	"Sound Pessure Level [dB]  / [2.83V 1m] "	"Frequency [Hz]"	"Sound Pessure Level [dB]  / [2.83V 1m] "	"Frequency [Hz]"	"Sound Pessure Level [dB]  / [2.83V 1m] "	"Frequency [Hz]"	"Sound Pessure Level [dB]  / [2.83V 1m] "	"Frequency [Hz]"	"Sound Pessure Level [dB]  / [2.83V 1m] "	"Frequency [Hz]"	"Sound Pessure Level [dB]  / [2.83V 1m] "	"Frequency [Hz]"	"Sound Pessure Level [dB]  / [2.83V 1m] "	"Frequency [Hz]"	"Sound Pessure Level [dB]  / [2.83V 1m] "	"Frequency [Hz]"	"Sound Pessure Level [dB]  / [2.83V 1m] "	"Frequency [Hz]"	"Sound Pessure Level [dB]  / [2.83V 1m] "	"Frequency [Hz]"	"Sound Pessure Level [dB]  / [2.83V 1m] "	"Frequency [Hz]"	"Sound Pessure Level [dB]  / [2.83V 1m] "	"Frequency [Hz]"	"Sound Pessure Level [dB]  / [2.83V 1m] "	"Frequency [Hz]"	"Sound Pessure Level [dB]  / [2.83V 1m] "	"Frequency [Hz]"	"Sound Pessure Level [dB]  / [2.83V 1m] "	"Frequency [Hz]"	"Sound Pessure Level [dB]  / [2.83V 1m] "	"Frequency [Hz]"	"Sound Pessure Level [dB]  / [2.83V 1m] "	"Frequency [Hz]"	"Sound Pessure Level [dB]  / [2.83V 1m] "	"Frequency [Hz]"	"Sound Pessure Level [dB]  / [2.83V 1m] "	"Frequency [Hz]"	"Sound Pessure Level [dB]  / [2.83V 1m] "	"Frequency [Hz]"	"Sound Pessure Level [dB]  / [2.83V 1m] "	"Frequency [Hz]"	"Sound Pessure Level [dB]  / [2.83V 1m] "	"Frequency [Hz]"	"Sound Pessure Level [dB]  / [2.83V 1m] "	"Frequency [Hz]"	"Sound Pessure Level [dB]  / [2.83V 1m] "	"Frequency [Hz]"	"Sound Pessure Level [dB]  / [2.83V 1m] "	"Frequency [Hz]"	"Sound Pessure Level [dB]  / [2.83V 1m] "
20.5078	71.9936	20.5078	71.2851	20.5078	72.8053	20.5078	70.6792	20.5078	73.7127	20.5078	70.1706	20.5078	74.6964	20.5078	69.7519	20.5078	75.7194	20.5078	69.4147	20.5078	76.7215	20.5078	69.1515	20.5078	77.6131	20.5078	68.9556	20.5078	78.273	20.5078	68.8225	20.5078	78.5677	20.5078	68.7492	20.5078	78.4243	20.5078	68.7347	20.5078	77.8991	20.5078	68.7799	20.5078	77.1229	20.5078	68.8871	20.5078	76.2026	20.5078	69.0598	20.5078	75.2193	20.5078	69.3027	20.5078	74.2437	20.5078	69.6206	20.5078	73.3239	20.5078	70.0185	20.5078	72.4836	20.5078	70.5009	20.5078	71.7319	20.5078	71.0712
21.9727	75.0556	21.9727	74.3566	21.9727	75.8443	21.9727	73.7483	21.9727	76.7154	21.9727	73.2279	21.9727	77.6506	21.9727	72.7907	21.9727	78.6154	21.9727	72.4313	21.9727	79.552	21.9727	72.1447	21.9727	80.3716	21.9727	71.9267	21.9727	80.9523	21.9727	71.7737	21.9727	81.1623	21.9727	71.6838	21.9727	80.9326	21.9727	71.656	21.9727	80.3283	21.9727	71.6903	21.9727	79.5029	21.9727	71.788	21.9727	78.5838	21.9727	71.951	21.9727	77.6465	21.9727	72.1815	21.9727	76.7401	21.9727	72.4823	21.9727	75.8952	21.9727	72.8561	21.9727	75.1265	21.9727	73.3052	21.9727	74.4387	21.9727	73.8321
23.4375	77.4247	23.4375	76.7563	23.4375	78.1779	23.4375	76.1739	23.4375	79.0087	23.4375	75.6752	23.4375	79.8999	23.4375	75.2559	23.4375	80.8185	23.4375	74.9114	23.4375	81.7091	23.4375	74.6369	23.4375	82.4873	23.4375	74.4283	23.4375	83.04	23.4375	74.2825	23.4375	83.2469	23.4375	74.1971	23.4375	83.0435	23.4375	74.1707	23.4375	82.4881	23.4375	74.2033	23.4375	81.7149	23.4375	74.2953	23.4375	80.835	23.4375	74.4483	23.4375	79.9244	23.4375	74.6647	23.4375	79.0396	23.4375	74.9471	23.4375	78.216	23.4375	75.2989	23.4375	77.4698	23.4375	75.7237	23.4375	76.8062	23.4375	76.225
24.9023	79.1649	24.9023	78.5269	24.9023	79.8786	24.9023	77.9667	24.9023	80.6604	24.9023	77.4829	24.9023	81.4935	24.9023	77.0726	24.9023	82.3464	24.9023	76.7325	24.9023	83.1667	24.9023	76.4588	24.9023	83.8757	24.9023	76.2484	24.9023	84.368	24.9023	76.0985	24.9023	84.5297	24.9023	76.0072	24.9023	84.2986	24.9023	75.9732	24.9023	83.7354	24.9023	75.9959	24.9023	82.9783	24.9023	76.0755	24.9023	82.1361	24.9023	76.2128	24.9023	81.276	24.9023	76.4095	24.9023	80.4467	24.9023	76.6676	24.9023	79.679	24.9023	76.9897	24.9023	78.9869	24.9023	77.3791	24.9023	78.3741	24.9023	77.8393
26.3672	80.6535	26.3672	80.0396	26.3672	81.3357	26.3672	79.4962	26.3672	82.0789	26.3672	79.0227	26.3672	82.8675	26.3672	78.6171	26.3672	83.6724	26.3672	78.2766	26.3672	84.4445	26.3672	77.9986	26.3672	85.1093	26.3672	77.7806	26.3672	85.5655	26.3672	77.6203	26.3672	85.7023	26.3672	77.5161	26.3672	85.4579	26.3672	77.467	26.3672	84.889	26.3672	77.4726	26.3672	84.1311	26.3672	77.5332	26.3672	83.2971	26.3672	77.6498	26.3672	82.4563	26.3672	77.8241	26.3672	81.6535	26.3672	78.0585	26.3672	80.9143	26.3672	78.3561	26.3672	80.25	26.3672	78.7203	26.3672	79.6639	26.3672	79.155
27.832	81.5105	27.832	80.9172	27.832	82.1657	27.832	80.3883	27.832	82.8757	27.832	79.924	27.832	83.6255	27.832	79.5232	27.832	84.3878	27.832	79.1842	27.832	85.1162	27.832	78.9051	27.832	85.7399	27.832	78.6841	27.832	86.164	27.832	78.5198	27.832	86.2856	27.832	78.411	27.832	86.0484	27.832	78.3569	27.832	85.5062	27.832	78.3574	27.832	84.7854	27.832	78.4128	27.832	83.9894	27.832	78.524	27.832	83.1832	27.832	78.6927	27.832	82.4109	27.832	78.921	27.832	81.6979	27.832	79.2115	27.832	81.0554	27.832	79.5672	27.832	80.4866	27.832	79.9913
29.2969	82.0313	29.2969	81.4645	29.2969	82.6545	29.2969	80.9566	29.2969	83.3274	29.2969	80.5081	29.2969	84.0361	29.2969	80.1182	29.2969	84.7552	29.2969	79.786	29.2969	85.4414	29.2969	79.5101	29.2969	86.0285	29.2969	79.2895	29.2969	86.4265	29.2969	79.1233	29.2969	86.5371	29.2969	79.011	29.2969	86.3058	29.2969	78.9523	29.2969	85.7829	29.2969	78.9473	29.2969	85.0887	29.2969	78.9963	29.2969	84.3231	29.2969	79.1004	29.2969	83.5495	29.2969	79.2606	29.2969	82.8099	29.2969	79.4787	29.2969	82.1287	29.2969	79.7566	29.2969	81.5158	29.2969	80.0966	29.2969	80.9738	29.2969	80.5015
30.7617	82.3618	30.7617	81.8134	30.7617	82.9635	30.7617	81.3212	30.7617	83.6118	30.7617	80.886	30.7617	84.2933	30.7617	80.5075	30.7617	84.9834	30.7617	80.1848	30.7617	85.6402	30.7617	79.9171	30.7617	86.1985	30.7617	79.7033	30.7617	86.5683	30.7617	79.5425	30.7617	86.6518	30.7617	79.4341	30.7617	86.3986	30.7617	79.3775	30.7617	85.8647	30.7617	79.3726	30.7617	85.1743	30.7617	79.4194	30.7617	84.4311	30.7617	79.5182	30.7617	83.6952	30.7617	79.6699	30.7617	82.9995	30.7617	79.8755	30.7617	82.3608	30.7617	80.1368	30.7617	81.7864	30.7617	80.4559	30.7617	81.2782	30.7617	80.8354
32.2266	82.5953	32.2266	82.0596	32.2266	83.1807	32.2266	81.5776	32.2266	83.8086	32.2266	81.1509	32.2266	84.4652	32.2266	80.7799	32.2266	85.1269	32.2266	80.4645	32.2266	85.7541	32.2266	80.2042	32.2266	86.286	32.2266	79.9983	32.2266	86.6404	32.2266	79.8459	32.2266	86.7291	32.2266	79.7464	32.2266	86.5067	32.2266	79.6991	32.2266	86.0228	32.2266	79.7035	32.2266	85.3874	32.2266	79.7594	32.2266	84.6929	32.2266	79.8669	32.2266	83.9959	32.2266	80.0264	32.2266	83.33	32.2266	80.2389	32.2266	82.7124	32.2266	80.5057	32.2266	82.1514	32.2266	80.8286	32.2266	81.6502	32.2266	81.2095
33.6914	82.8015	33.6914	82.2723	33.6914	83.3756	33.6914	81.7928	33.6914	83.987	33.6914	81.3657	33.6914	84.6224	33.6914	80.9926	33.6914	85.2592	33.6914	80.6746	33.6914	85.8601	33.6914	80.4119	33.6914	86.3675	33.6914	80.2045	33.6914	86.7028	33.6914	80.052	33.6914	86.7843	33.6914	79.9538	33.6914	86.574	33.6914	79.9091	33.6914	86.1197	33.6914	79.9173	33.6914	85.5186	33.6914	79.9777	33.6914	84.8521	33.6914	80.0899	33.6914	84.1757	33.6914	80.254	33.6914	83.5252	33.6914	80.4703	33.6914	82.9205	33.6914	80.7395	33.6914	82.3702	33.6914	81.0629	33.6914	81.8772	33.6914	81.4417
35.1562	82.8537	35.1562	82.3379	35.1562	83.4101	35.1562	81.8677	35.1562	83.9991	35.1562	81.446	35.1562	84.607	35.1562	81.0747	35.1562	85.211	35.1562	80.755	35.1562	85.7736	35.1562	80.4875	35.1562	86.2383	35.1562	80.2725	35.1562	86.5291	35.1562	80.1101	35.1562	86.5693	35.1562	80.0001	35.1562	86.3254	35.1562	79.9421	35.1562	85.8472	35.1562	79.9358	35.1562	85.2358	35.1562	79.981	35.1562	84.5795	35.1562	80.0776	35.1562	83.931	35.1562	80.2257	35.1562	83.3157	35.1562	80.4259	35.1562	82.7453	35.1562	80.6785	35.1562	82.2251	35.1562	80.9844	35.1562	81.7577	35.1562	81.344
36.6211	83.0342	36.6211	82.5374	36.6211	83.568	36.6211	82.0827	36.6211	84.1306	36.6211	81.6736	36.6211	84.7088	36.6211	81.3124	36.6211	85.2806	36.6211	81.001	36.6211	85.8102	36.6211	80.7405	36.6211	86.2435	36.6211	80.5317	36.6211	86.5086	36.6211	80.375	36.6211	86.534	36.6211	80.2701	36.6211	86.2911	36.6211	80.2169	36.6211	85.8307	36.6211	80.2147	36.6211	85.2514	36.6211	80.2627	36.6211	84.6344	36.6211	80.3602	36.6211	84.0249	36.6211	80.5068	36.6211	83.445	36.6211	80.7019	36.6211	82.906	36.6211	80.9456	36.6211	82.4142	36.6211	81.2382	36.6211	81.972	36.6211	81.5801
38.0859	83.2414	38.0859	82.7557	38.0859	83.7616	38.0859	82.3099	38.0859	84.3077	38.0859	81.9078	38.0859	84.8661	38.0859	81.5522	38.0859	85.415	38.0859	81.2451	38.0859	85.9194	38.0859	80.9877	38.0859	86.3271	38.0859	80.7809	38.0859	86.5697	38.0859	80.625	38.0859	86.5809	38.0859	80.5201	38.0859	86.3371	38.0859	80.4655	38.0859	85.8877	38.0859	80.4608	38.0859	85.3249	38.0859	80.505	38.0859	84.7261	38.0859	80.5975	38.0859	84.1356	38.0859	80.7374	38.0859	83.5747	38.0859	80.9246	38.0859	83.0537	38.0859	81.159	38.0859	82.5779	38.0859	81.441	38.0859	82.1501	38.0859	81.7712
39.5508	83.5002	39.5508	83.0209	39.5508	84.0112	39.5508	82.5794	39.5508	84.5451	39.5508	82.1798	39.5508	85.0883	39.5508	81.8254	39.5508	85.6195	39.5508	81.5186	39.5508	86.1057	39.5508	81.2611	39.5508	86.4976	39.5508	81.054	39.5508	86.73	39.5508	80.8978	39.5508	86.7385	39.5508	80.7927	39.5508	86.5002	39.5508	80.7381	39.5508	86.0636	39.5508	80.7333	39.5508	85.5166	39.5508	80.7774	39.5508	84.9324	39.5508	80.8692	39.5508	84.3537	39.5508	81.0081	39.5508	83.8021	39.5508	81.1934	39.5508	83.2893	39.5508	81.425	39.5508	82.8214	39.5508	81.703	39.5508	82.4007	39.5508	82.028
41.0156	83.6638	41.0156	83.18	41.0156	84.1758	41.0156	82.731	41.0156	84.7068	41.0156	82.3219	41.0156	85.2429	41.0156	81.9564	41.0156	85.7627	41.0156	81.6379	41.0156	86.2337	41.0156	81.3687	41.0156	86.6081	41.0156	81.1507	41.0156	86.8244	41.0156	80.9849	41.0156	86.8247	41.0156	80.8719	41.0156	86.591	41.0156	80.8114	41.0156	86.1695	41.0156	80.803	41.0156	85.6402	41.0156	80.8458	41.0156	85.0702	41.0156	80.9388	41.0156	84.499	41.0156	81.0811	41.0156	83.9479	41.0156	81.272	41.0156	83.4296	41.0156	81.5114	41.0156	82.9521	41.0156	81.7991	41.0156	82.5199	41.0156	82.1353
42.4805	84.0006	42.4805	83.5351	42.4805	84.4922	42.4805	83.1023	42.4805	85.0005	42.4805	82.7072	42.4805	85.5121	42.4805	82.3535	42.4805	86.0059	42.4805	82.0445	42.4805	86.4504	42.4805	81.7825	42.4805	86.7991	42.4805	81.5693	42.4805	86.9927	42.4805	81.406	42.4805	86.9769	42.4805	81.2934	42.4805	86.7382	42.4805	81.2314	42.4805	86.3233	42.4805	81.2195	42.4805	85.8097	42.4805	81.2571	42.4805	85.2616	42.4805	81.3433	42.4805	84.7162	42.4805	81.4772	42.4805	84.1927	42.4805	81.6578	42.4805	83.7018	42.4805	81.8848	42.4805	83.25	42.4805	82.1578	42.4805	82.8409	42.4805	82.4766
43.9453	84.182	43.9453	83.7172	43.9453	84.67	43.9453	83.2827	43.9453	85.1713	43.9453	82.8839	43.9453	85.6718	43.9453	82.5253	43.9453	86.1504	43.9453	82.2103	43.9453	86.576	43.9453	81.9417	43.9453	86.9042	43.9453	81.7216	43.9453	87.0796	43.9453	81.5515	43.9453	87.0519	43.9453	81.4321	43.9453	86.8072	43.9453	81.3636	43.9453	86.3893	43.9453	81.3457	43.9453	85.8741	43.9453	81.3778	43.9453	85.3273	43.9453	81.4589	43.9453	84.7861	43.9453	81.5881	43.9453	84.2685	43.9453	81.7647	43.9453	83.7837	43.9453	81.9879	43.9453	83.3373	43.9453	82.2574	43.9453	82.933	43.9453	82.5726
45.4102	84.4935	45.4102	84.0345	45.4102	84.9743	45.4102	83.6045	45.4102	85.4664	45.4102	83.2094	45.4102	85.9557	45.4102	82.8538	45.4102	86.4211	45.4102	82.5412	45.4102	86.832	45.4102	82.2747	45.4102	87.1454	45.4102	82.0564	45.4102	87.3084	45.4102	81.8877	45.4102	87.2747	45.4102	81.7694	45.4102	87.0353	45.4102	81.7018	45.4102	86.6326	45.4102	81.6845	45.4102	86.1356	45.4102	81.7169	45.4102	85.6045	45.4102	81.798	45.4102	85.0761	45.4102	81.9268	45.4102	84.5689	45.4102	82.1023	45.4102	84.093	45.4102	82.3237	45.4102	83.6544	45.4102	82.5903	45.4102	83.2566	45.4102	82.9016
46.875	84.7947	46.875	84.3418	46.875	85.2676	46.875	83.9167	46.875	85.7499	46.875	83.5255	46.875	86.2274	46.875	83.1734	46.875	86.6796	46.875	82.8643	46.875	87.0768	46.875	82.6013	46.875	87.378	46.875	82.3868	46.875	87.5327	46.875	82.2223	46.875	87.4961	46.875	82.1084	46.875	87.2597	46.875	82.0453	46.875	86.8668	46.875	82.0323	46.875	86.3856	46.875	82.0687	46.875	85.8735	46.875	82.1531	46.875	85.3644	46.875	82.2842	46.875	84.8752	46.875	82.4608	46.875	84.4148	46.875	82.6818	46.875	83.9888	46.875	82.946	46.875	83.6007	46.875	83.2527
48.3398	85.0616	48.3398	84.6113	48.3398	85.5301	48.3398	84.1873	48.3398	86.0062	48.3398	83.7965	48.3398	86.4753	48.3398	83.4441	48.3398	86.9172	48.3398	83.1347	48.3398	87.3029	48.3398	82.8717	48.3398	87.5928	48.3398	82.6578	48.3398	87.7387	48.3398	82.4946	48.3398	87.6993	48.3398	82.3829	48.3398	87.4692	48.3398	82.3227	48.3398	87.0909	48.3398	82.3132	48.3398	86.6272	48.3398	82.3532	48.3398	86.1301	48.3398	82.4411	48.3398	85.632	48.3398	82.5753	48.3398	85.1509	48.3398	82.7542	48.3398	84.6968	48.3398	82.9763	48.3398	84.2757	48.3398	83.2405	48.3398	83.8914	48.3398	83.5459
51.2695	85.582	51.2695	85.1397	51.2695	86.0382	51.2695	84.7198	51.2695	86.4974	51.2695	84.3293	51.2695	86.9451	51.2695	83.974	51.2695	87.3614	51.2695	83.6588	51.2695	87.719	51.2695	83.3879	51.2695	87.9816	51.2695	83.1643	51.2695	88.1062	51.2695	82.9905	51.2695	88.0568	51.2695	82.8677	51.2695	87.8305	51.2695	82.7964	51.2695	87.4681	51.2695	82.7765	51.2695	87.0262	51.2695	82.807	51.2695	86.5476	51.2695	82.8867	51.2695	86.0597	51.2695	83.0142	51.2695	85.5821	51.2695	83.1879	51.2695	85.1279	51.2695	83.4064	51.2695	84.7056	51.2695	83.6687	51.2695	84.3199	51.2695	83.9736
52.7344	85.8082	52.7344	85.373	52.7344	86.2555	52.7344	84.9588	52.7344	86.7039	52.7344	84.5726	52.7344	87.1386	52.7344	84.2201	52.7344	87.5399	52.7344	83.9064	52.7344	87.8808	52.7344	83.6355	52.7344	88.1269	52.7344	83.4106	52.7344	88.2387	52.7344	83.2342	52.7344	88.1844	52.7344	83.1078	52.7344	87.9629	52.7344	83.0323	52.7344	87.6129	52.7344	83.0077	52.7344	87.1859	52.7344	83.0336	52.7344	86.72	52.7344	83.1091	52.7344	86.2419	52.7344	83.2328	52.7344	85.7722	52.7344	83.4035	52.7344	85.3246	52.7344	83.6197	52.7344	84.9075	52.7344	83.8798	52.7344	84.5257	52.7344	84.1824
54.1992	86.0918	54.1992	85.6629	54.1992	86.5311	54.1992	85.2535	54.1992	86.9693	54.1992	84.8708	54.1992	87.3916	54.1992	84.5209	54.1992	87.7777	54.1992	84.2085	54.1992	88.1006	54.1992	83.9378	54.1992	88.3258	54.1992	83.7119	54.1992	88.4151	54.1992	83.5333	54.1992	88.3406	54.1992	83.4036	54.1992	88.1073	54.1992	83.3239	54.1992	87.7583	54.1992	83.2944	54.1992	87.3445	54.1992	83.3149	54.1992	86.8971	54.1992	83.3849	54.1992	86.4363	54.1992	83.5032	54.1992	85.9811	54.1992	83.6685	54.1992	85.5457	54.1992	83.8793	54.1992	85.139	54.1992	84.1338	54.1992	84.766	54.1992	84.4301
55.6641	86.3691	55.6641	85.9439	55.6641	86.8049	55.6641	85.5387	55.6641	87.2394	55.6641	85.1613	55.6641	87.6571	55.6641	84.8178	55.6641	88.0374	55.6641	84.5133	55.6641	88.3527	55.6641	84.2517	55.6641	88.5677	55.6641	84.0359	55.6641	88.644	55.6641	83.8678	55.6641	88.555	55.6641	83.7487	55.6641	88.3088	55.6641	83.679	55.6641	87.9537	55.6641	83.6583	55.6641	87.5455	55.6641	83.6859	55.6641	87.1153	55.6641	83.7606	55.6641	86.6779	55.6641	83.8805	55.6641	86.2467	55.6641	84.0441	55.6641	85.8344	55.6641	84.2492	55.6641	85.4491	55.6641	84.4939	55.6641	85.0956	55.6641	84.7766
58.5938	86.7836	58.5938	86.3474	58.5938	87.2299	58.5938	85.9316	58.5938	87.6736	58.5938	85.545	58.5938	88.0985	58.5938	85.195	58.5938	88.4839	58.5938	84.8872	58.5938	88.8029	58.5938	84.6263	58.5938	89.0215	58.5938	84.4151	58.5938	89.1026	58.5938	84.2556	58.5938	89.0196	58.5938	84.1483	58.5938	88.7789	58.5938	84.0926	58.5938	88.4257	58.5938	84.0872	58.5938	88.0168	58.5938	84.1301	58.5938	87.5887	58.5938	84.219	58.5938	87.1575	58.5938	84.3514	58.5938	86.7337	58.5938	84.5248	58.5938	86.3268	58.5938	84.7372	58.5938	85.9445	58.5938	84.9868	58.5938	85.592	58.5938	85.2721
60.0586	86.9852	60.0586	86.5453	60.0586	87.4337	60.0586	86.125	60.0586	87.878	60.0586	85.7336	60.0586	88.302	60.0586	85.3788	60.0586	88.6855	60.0586	85.0669	60.0586	89.0022	60.0586	84.8028	60.0586	89.22	60.0586	84.5899	60.0586	89.3042	60.0586	84.43	60.0586	89.2307	60.0586	84.3238	60.0586	89.0048	60.0586	84.2705	60.0586	88.6652	60.0586	84.2685	60.0586	88.2619	60.0586	84.3157	60.0586	87.8319	60.0586	84.4094	60.0586	87.3953	60.0586	84.5467	60.0586	86.9657	60.0586	84.725	60.0586	86.5536	60.0586	84.942	60.0586	86.1666	60.0586	85.196	60.0586	85.8097	60.0586	85.4856
62.9883	87.3798	62.9883	86.9403	62.9883	87.8257	62.9883	86.5185	62.9883	88.2647	62.9883	86.124	62.9883	88.6807	62.9883	85.765	62.9883	89.0535	62.9883	85.4481	62.9883	89.3579	62.9883	85.1785	62.9883	89.5636	62.9883	84.9601	62.9883	89.6388	62.9883	84.795	62.9883	89.5625	62.9883	84.6841	62.9883	89.341	62.9883	84.6273	62.9883	89.0114	62.9883	84.623	62.9883	88.6192	62.9883	84.6693	62.9883	88.1974	62.9883	84.7635	62.9883	87.7663	62.9883	84.9027	62.9883	87.3401	62.9883	85.0841	62.9883	86.9298	62.9883	85.3051	62.9883	86.5429	62.9883	85.5634	62.9883	86.1843	62.9883	85.8571
64.4531	87.5392	64.4531	87.0954	64.4531	87.9882	64.4531	86.6685	64.4531	88.4284	64.4531	86.2688	64.4531	88.8434	64.4531	85.9047	64.4531	89.2129	64.4531	85.5835	64.4531	89.5121	64.4531	85.3104	64.4531	89.7117	64.4531	85.0895	64.4531	89.7819	64.4531	84.923	64.4531	89.7034	64.4531	84.8117	64.4531	89.4838	64.4531	84.7553	64.4531	89.1597	64.4531	84.7523	64.4531	88.7733	64.4531	84.8003	64.4531	88.3545	64.4531	84.8967	64.4531	87.9233	64.4531	85.0384	64.4531	87.4956	64.4531	85.2226	64.4531	87.0832	64.4531	85.4464	64.4531	86.6942	64.4531	85.7074	64.4531	86.3334	64.4531	86.0037
67.3828	87.946	67.3828	87.5009	67.3828	88.3926	67.3828	87.0699	67.3828	88.8264	67.3828	86.664	67.3828	89.2309	67.3828	86.2927	67.3828	89.5863	67.3828	85.9641	67.3828	89.8692	67.3828	85.6842	67.3828	90.0524	67.3828	85.4576	67.3828	90.1093	67.3828	85.2868	67.3828	90.0229	67.3828	85.1726	67.3828	89.799	67.3828	85.1145	67.3828	89.4704	67.3828	85.1108	67.3828	89.0795	67.3828	85.1587	67.3828	88.66	67.3828	85.2551	67.3828	88.2331	67.3828	85.3966	67.3828	87.8126	67.3828	85.5798	67.3828	87.4086	67.3828	85.8015	67.3828	87.0276	67.3828	86.0592	67.3828	86.6741	67.3828	86.3507
68.8477	88.1451	68.8477	87.6992	68.8477	88.5911	68.8477	87.2661	68.8477	89.0227	68.8477	86.8573	68.8477	89.4235	68.8477	86.4826	68.8477	89.774	68.8477	86.1505	68.8477	90.051	68.8477	85.8678	68.8477	90.2285	68.8477	85.6391	68.8477	90.2814	68.8477	85.4672	68.8477	90.1952	68.8477	85.3531	68.8477	89.9771	68.8477	85.2961	68.8477	89.6567	68.8477	85.2941	68.8477	89.2714	68.8477	85.3443	68.8477	88.8534	68.8477	85.4429	68.8477	88.4255	68.8477	85.5863	68.8477	88.0036	68.8477	85.7707	68.8477	87.5984	68.8477	85.9929	68.8477	87.2171	68.8477	86.2504	68.8477	86.8639	68.8477	86.5412
71.7773	88.5242	71.7773	88.0805	71.7773	88.9649	71.7773	87.6466	71.7773	89.3882	71.7773	87.234	71.7773	89.7776	71.7773	86.8529	71.7773	90.114	71.7773	86.512	71.7773	90.3749	71.7773	86.2184	71.7773	90.5353	71.7773	85.9773	71.7773	90.5719	71.7773	85.7921	71.7773	90.473	71.7773	85.6644	71.7773	90.2493	71.7773	85.5939	71.7773	89.9284	71.7773	85.5793	71.7773	89.541	71.7773	85.6179	71.7773	89.1181	71.7773	85.7066	71.7773	88.6854	71.7773	85.8418	71.7773	88.2595	71.7773	86.02	71.7773	87.8507	71.7773	86.2383	71.7773	87.4659	71.7773	86.494	71.7773	87.1097	71.7773	86.785
74.707	88.8855	74.707	88.4428	74.707	89.3231	74.707	88.0088	74.707	89.7409	74.707	87.5954	74.707	90.1218	74.707	87.2134	74.707	90.4467	74.707	86.872	74.707	90.6937	74.707	86.5783	74.707	90.8395	74.707	86.3376	74.707	90.8644	74.707	86.1532	74.707	90.761	74.707	86.0263	74.707	90.5411	74.707	85.9565	74.707	90.2293	74.707	85.9422	74.707	89.8506	74.707	85.9806	74.707	89.4333	74.707	86.0683	74.707	89.0045	74.707	86.2018	74.707	88.5824	74.707	86.3774	74.707	88.1779	74.707	86.592	74.707	87.7983	74.707	86.8431	74.707	87.4478	74.707	87.1289
77.6367	89.2431	77.6367	88.7979	77.6367	89.682	77.6367	88.3605	77.6367	90.0988	77.6367	87.9439	77.6367	90.4763	77.6367	87.5597	77.6367	90.795	77.6367	87.2176	77.6367	91.033	77.6367	86.9253	77.6367	91.1678	77.6367	86.6885	77.6367	91.1815	77.6367	86.5103	77.6367	91.0697	77.6367	86.3918	77.6367	90.8474	77.6367	86.3322	77.6367	90.5405	77.6367	86.3292	77.6367	90.1752	77.6367	86.3791	77.6367	89.7783	77.6367	86.4778	77.6367	89.3728	77.6367	86.621	77.6367	88.9723	77.6367	86.8044	77.6367	88.5854	77.6367	87.0243	77.6367	88.2188	77.6367	87.2777	77.6367	87.8768	77.6367	87.5625
79.1016	89.3844	79.1016	88.9355	79.1016	89.8259	79.1016	88.4938	79.1016	90.244	79.1016	88.0726	79.1016	90.6213	79.1016	87.6838	79.1016	90.9383	79.1016	87.3377	79.1016	91.1735	79.1016	87.0423	79.1016	91.3048	79.1016	86.8032	79.1016	91.3157	79.1016	86.624	79.1016	91.2035	79.1016	86.5057	79.1016	90.9843	79.1016	86.4474	79.1016	90.6829	79.1016	86.4465	79.1016	90.3227	79.1016	86.4996	79.1016	89.9292	79.1016	86.6021	79.1016	89.5253	79.1016	86.7496	79.1016	89.1254	79.1016	86.9375	79.1016	88.7383	79.1016	87.162	79.1016	88.3704	79.1016	87.4198	79.1016	88.0261	79.1016	87.7085
82.0312	89.6155	82.0312	89.1627	82.0312	90.0572	82.0312	88.7143	82.0312	90.4712	82.0312	88.2847	82.0312	90.8396	82.0312	87.887	82.0312	91.1431	82.0312	87.5323	82.0312	91.3611	82.0312	87.2293	82.0312	91.4731	82.0312	86.9843	82.0312	91.4646	82.0312	86.8008	82.0312	91.3356	82.0312	86.68	82.0312	91.1061	82.0312	86.6206	82.0312	90.804	82.0312	86.6198	82.0312	90.4506	82.0312	86.6734	82.0312	90.0651	82.0312	86.7767	82.0312	89.6671	82.0312	86.9246	82.0312	89.2719	82.0312	87.1122	82.0312	88.8896	82.0312	87.3353	82.0312	88.5269	82.0312	87.5905	82.0312	88.188	82.0312	87.8753
84.9609	89.9135	84.9609	89.462	84.9609	90.3506	84.9609	89.0117	84.9609	90.757	84.9609	88.577	84.9609	91.1153	84.9609	88.1714	84.9609	91.4064	84.9609	87.8063	84.9609	91.6095	84.9609	87.491	84.9609	91.7027	84.9609	87.2321	84.9609	91.6683	84.9609	87.0337	84.9609	91.5036	84.9609	86.8971	84.9609	91.2283	84.9609	86.8214	84.9609	90.8735	84.9609	86.8036	84.9609	90.4705	84.9609	86.8398	84.9609	90.0521	84.9609	86.9248	84.9609	89.6423	84.9609	87.0536	84.9609	89.2503	84.9609	87.2212	84.9609	88.8796	84.9609	87.4236	84.9609	88.5331	84.9609	87.6575	84.9609	88.2132	84.9609	87.921
87.8906	89.787	87.8906	89.3436	87.8906	90.2141	87.8906	88.9002	87.8906	90.6081	87.8906	88.4723	87.8906	90.9512	87.8906	88.074	87.8906	91.2251	87.8906	87.7177	87.8906	91.4117	87.8906	87.4131	87.8906	91.4975	87.8906	87.1673	87.8906	91.4812	87.8906	86.9843	87.8906	91.3781	87.8906	86.8652	87.8906	91.2068	87.8906	86.8088	87.8906	90.9702	87.8906	86.8118	87.8906	90.6618	87.8906	86.8697	87.8906	90.2939	87.8906	86.9773	87.8906	89.8975	87.8906	87.1291	87.8906	89.499	87.8906	87.3202	87.8906	89.113	87.8906	87.5462	87.8906	88.7471	87.8906	87.8037	87.8906	88.4056	87.8906	88.0906
90.8203	89.9146	90.8203	89.4629	90.8203	90.3473	90.8203	89.0105	90.8203	90.7421	90.8203	88.575	90.8203	91.0795	90.8203	88.1724	90.8203	91.3404	90.8203	87.8166	90.8203	91.507	90.8203	87.5184	90.8203	91.5681	90.8203	87.2851	90.8203	91.5266	90.8203	87.12	90.8203	91.4046	90.8203	87.0231	90.8203	91.2294	90.8203	86.9912	90.8203	91.0076	90.8203	87.0193	90.8203	90.7278	90.8203	87.1008	90.8203	90.395	90.8203	87.229	90.8203	90.0354	90.8203	87.397	90.8203	89.6725	90.8203	87.599	90.8203	89.3194	90.8203	87.8297	90.8203	88.9819	90.8203	88.0855	90.8203	88.6629	90.8203	88.3638
95.2148	90.3459	95.2148	89.9019	95.2148	90.7629	95.2148	89.4483	95.2148	91.1356	95.2148	89.0018	95.2148	91.4469	95.2148	88.5783	95.2148	91.68	95.2148	88.1919	95.2148	91.8203	95.2148	87.8542	95.2148	91.8588	95.2148	87.5736	95.2148	91.7993	95.2148	87.3552	95.2148	91.6623	95.2148	87.201	95.2148	91.4708	95.2148	87.1099	95.2148	91.2216	95.2148	87.079	95.2148	90.8934	95.2148	87.1035	95.2148	90.4925	95.2148	87.1781	95.2148	90.0544	95.2148	87.2976	95.2148	89.6144	95.2148	87.4575	95.2148	89.1955	95.2148	87.6546	95.2148	88.8101	95.2148	87.8874	95.2148	88.4635	95.2148	88.1564
98.1445	90.0655	98.1445	89.6133	98.1445	90.4879	98.1445	89.1502	98.1445	90.8617	98.1445	88.6952	98.1445	91.1687	98.1445	88.2657	98.1445	91.3916	98.1445	87.8775	98.1445	91.5162	98.1445	87.5431	98.1445	91.5354	98.1445	87.2714	98.1445	91.4569	98.1445	87.067	98.1445	91.3077	98.1445	86.9306	98.1445	91.1172	98.1445	86.8595	98.1445	90.8822	98.1445	86.8486	98.1445	90.576	98.1445	86.8912	98.1445	90.2001	98.1445	86.9806	98.1445	89.7869	98.1445	87.1104	98.1445	89.3693	98.1445	87.2758	98.1445	88.9693	98.1445	87.4737	98.1445	88.599	98.1445	87.7035	98.1445	88.2643	98.1445	87.9663
101.074	89.8924	101.074	89.4485	101.074	90.3015	101.074	88.9903	101.074	90.6563	101.074	88.538	101.074	90.9379	101.074	88.1109	101.074	91.1298	101.074	87.726	101.074	91.2197	101.074	87.397	101.074	91.2054	101.074	87.1332	101.074	91.1033	101.074	86.9393	101.074	90.9514	101.074	86.8155	101.074	90.7848	101.074	86.7581	101.074	90.5932	101.074	86.7611	101.074	90.3369	101.074	86.8171	101.074	90.0094	101.074	86.9183	101.074	89.6389	101.074	87.0578	101.074	89.2565	101.074	87.2301	101.074	88.8837	101.074	87.4321	101.074	88.5334	101.074	87.6624	101.074	88.2121	101.074	87.922
105.469	90.2938	105.469	89.8278	105.469	90.7083	105.469	89.3334	105.469	91.049	105.469	88.8342	105.469	91.2946	105.469	88.3536	105.469	91.4259	105.469	87.9131	105.469	91.4289	105.469	87.531	105.469	91.3027	105.469	87.2204	105.469	91.0716	105.469	86.9886	105.469	90.7932	105.469	86.8371	105.469	90.5336	105.469	86.7621	105.469	90.3053	105.469	86.7563	105.469	90.0651	105.469	86.8106	105.469	89.7871	105.469	86.915	105.469	89.4792	105.469	87.0607	105.469	89.1564	105.469	87.2402	105.469	88.8317	105.469	87.4482	105.469	88.5159	105.469	87.6813	105.469	88.2165	105.469	87.9377
108.398	90.513	108.398	90.0436	108.398	90.9264	108.398	89.5404	108.398	91.2625	108.398	89.0262	108.398	91.5008	108.398	88.5241	108.398	91.6219	108.398	88.0564	108.398	91.61	108.398	87.643	108.398	91.4598	108.398	87.2995	108.398	91.1893	108.398	87.036	108.398	90.8533	108.398	86.8564	108.398	90.529	108.398	86.7588	108.398	90.2502	108.398	86.7366	108.398	89.9829	108.398	86.7805	108.398	89.6947	108.398	86.8798	108.398	89.3866	108.398	87.0243	108.398	89.0717	108.398	87.2047	108.398	88.76	108.398	87.4138	108.398	88.4582	108.398	87.6464	108.398	88.1704	108.398	87.8992
112.793	90.6698	112.793	90.2038	112.793	91.0769	112.793	89.7009	112.793	91.4038	112.793	89.1833	112.793	91.6291	112.793	88.6737	112.793	91.7326	112.793	88.1939	112.793	91.6969	112.793	87.7639	112.793	91.5156	112.793	87.4004	112.793	91.209	112.793	87.115	112.793	90.841	112.793	86.9141	112.793	90.5012	112.793	86.7979	112.793	90.2302	112.793	86.7616	112.793	89.9892	112.793	86.7966	112.793	89.7296	112.793	86.8922	112.793	89.4384	112.793	87.037	112.793	89.1268	112.793	87.2208	112.793	88.811	112.793	87.4348	112.793	88.5028	112.793	87.673	112.793	88.2086	112.793	87.9315
117.188	90.5302	117.188	90.0706	117.188	90.9316	117.188	89.5744	117.188	91.253	117.188	89.0635	117.188	91.473	117.188	88.5596	117.188	91.5709	117.188	88.0833	117.188	91.5296	117.188	87.6534	117.188	91.3439	117.188	87.2854	117.188	91.0354	117.188	86.9907	117.188	90.6677	117.188	86.7756	117.188	90.3246	117.188	86.6412	117.188	90.0364	117.188	86.5841	117.188	89.7641	117.188	86.5973	117.188	89.474	117.188	86.6717	117.188	89.1646	117.188	86.7974	117.188	88.8458	117.188	86.965	117.188	88.5278	117.188	87.1666	117.188	88.2189	117.188	87.3962	117.188	87.925	117.188	87.6499
120.117	90.5429	120.117	90.0772	120.117	90.9491	120.117	89.5753	120.117	91.2727	120.117	89.0605	120.117	91.4908	120.117	88.5555	120.117	91.5819	120.117	88.0812	120.117	91.5289	120.117	87.6563	120.117	91.327	120.117	87.2952	120.117	90.9989	120.117	87.0083	120.117	90.6098	120.117	86.8007	120.117	90.2486	120.117	86.6725	120.117	89.9523	120.117	86.6202	120.117	89.6812	120.117	86.6366	120.117	89.3964	120.117	86.713	120.117	89.0961	120.117	86.8397	120.117	88.7925	120.117	87.0069	120.117	88.4948	120.117	87.2062	120.117	88.2078	120.117	87.4303	120.117	87.9338	120.117	87.674
124.512	90.4875	124.512	90.0094	124.512	90.904	124.512	89.4941	124.512	91.235	124.512	88.9664	124.512	91.457	124.512	88.4504	124.512	91.5482	124.512	87.969	124.512	91.4918	124.512	87.5424	124.512	91.2843	124.512	87.1868	124.512	90.9511	124.512	86.9133	124.512	90.5615	124.512	86.727	124.512	90.2071	124.512	86.6276	124.512	89.9296	124.512	86.6096	124.512	89.692	124.512	86.6638	124.512	89.4483	124.512	86.7787	124.512	89.1862	124.512	86.9416	124.512	88.9131	124.512	87.1402	124.512	88.6387	124.512	87.3633	124.512	88.3692	124.512	87.6021	124.512	88.1066	124.512	87.8507
128.906	90.3877	128.906	89.9077	128.906	90.8025	128.906	89.3887	128.906	91.1264	128.906	88.8572	128.906	91.3351	128.906	88.3386	128.906	91.4071	128.906	87.8567	128.906	91.3265	128.906	87.4318	128.906	91.092	128.906	87.0798	128.906	90.7324	128.906	86.8113	128.906	90.322	128.906	86.6315	128.906	89.9588	128.906	86.5399	128.906	89.6895	128.906	86.5314	128.906	89.4796	128.906	86.5971	128.906	89.2774	128.906	86.7256	128.906	89.0611	128.906	86.9036	128.906	88.8314	128.906	87.1177	128.906	88.5937	128.906	87.3546	128.906	88.3514	128.906	87.6032	128.906	88.1051	128.906	87.855
133.301	90.3118	133.301	89.8221	133.301	90.73	133.301	89.2891	133.301	91.0505	133.301	88.7419	133.301	91.2496	133.301	88.2091	133.301	91.3071	133.301	87.7173	133.301	91.2098	133.301	87.289	133.301	90.9599	133.301	86.9409	133.301	90.5905	133.301	86.6834	133.301	90.1786	133.301	86.52	133.301	89.8205	133.301	86.4487	133.301	89.5596	133.301	86.4628	133.301	89.3633	133.301	86.5521	133.301	89.1822	133.301	86.7039	133.301	88.991	133.301	86.9038	133.301	88.7867	133.301	87.1365	133.301	88.5742	133.301	87.3869	133.301	88.3555	133.301	87.6417	133.301	88.1287	133.301	87.8906
139.16	90.1242	139.16	89.6351	139.16	90.5346	139.16	89.0955	139.16	90.8405	139.16	88.5354	139.16	91.0196	139.16	87.9852	139.16	91.0538	139.16	87.4733	139.16	90.9334	139.16	87.0246	139.16	90.6656	139.16	86.6576	139.16	90.2914	139.16	86.3835	139.16	89.893	139.16	86.2059	139.16	89.5548	139.16	86.1219	139.16	89.2954	139.16	86.1232	139.16	89.076	139.16	86.1982	139.16	88.8614	139.16	86.3334	139.16	88.6345	139.16	86.5141	139.16	88.3938	139.16	86.7257	139.16	88.1476	139.16	86.955	139.16	87.9041	139.16	87.1914	139.16	87.6654	139.16	87.4287
143.555	89.8721	143.555	89.3894	143.555	90.2713	143.555	88.8531	143.555	90.5605	143.555	88.2955	143.555	90.7179	143.555	87.7499	143.555	90.728	143.555	87.247	143.555	90.5859	143.555	86.8126	143.555	90.3072	143.555	86.4645	143.555	89.9438	143.555	86.211	143.555	89.5826	143.555	86.0518	143.555	89.292	143.555	85.979	143.555	89.0573	143.555	85.981	143.555	88.8222	143.555	86.044	143.555	88.5661	143.555	86.1543	143.555	88.2959	143.555	86.2994	143.555	88.0218	143.555	86.4687	143.555	87.7548	143.555	86.654	143.555	87.5038	143.555	86.8499	143.555	87.2715	143.555	87.055
147.949	89.7527	147.949	89.2532	147.949	90.153	147.949	88.6875	147.949	90.4262	147.949	88.0924	147.949	90.5508	147.949	87.5069	147.949	90.5142	147.949	86.9685	147.949	90.3189	147.949	86.5092	147.949	89.9954	147.949	86.1512	147.949	89.6189	147.949	85.9043	147.949	89.2984	147.949	85.7662	147.949	89.0949	147.949	85.7247	147.949	88.9451	147.949	85.7621	147.949	88.747	147.949	85.8583	147.949	88.4764	147.949	85.9943	147.949	88.1645	147.949	86.1536	147.949	87.8465	147.949	86.3239	147.949	87.5483	147.949	86.4978	147.949	87.2844	147.949	86.674	147.949	87.0566	147.949	86.857
153.809	90.1622	153.809	89.6098	153.809	90.586	153.809	88.9653	153.809	90.8499	153.809	88.2696	153.809	90.9273	153.809	87.5677	153.809	90.7989	153.809	86.906	153.809	90.4616	153.809	86.327	153.809	89.9489	153.809	85.8638	153.809	89.365	153.809	85.5336	153.809	88.8849	153.809	85.3364	153.809	88.6228	153.809	85.2576	153.809	88.479	153.809	85.2729	153.809	88.2736	153.809	85.3551	153.809	87.9563	153.809	85.4783	153.809	87.5781	153.809	85.6208	153.809	87.1989	153.809	85.7671	153.809	86.8598	153.809	85.909	153.809	86.5814	153.809	86.0477	153.809	86.3642	153.809	86.1933
159.668	90.3482	159.668	89.7405	159.668	90.8151	159.668	89.0287	159.668	91.1088	159.668	88.2546	159.668	91.2008	159.668	87.465	159.668	91.0674	159.668	86.7109	159.668	90.6965	159.668	86.0429	159.668	90.1074	159.668	85.5045	159.668	89.3913	159.668	85.1235	159.668	88.7375	159.668	84.9073	159.668	88.3289	159.668	84.8425	159.668	88.1347	159.668	84.9014	159.668	87.9692	159.668	85.05	159.668	87.7388	159.668	85.254	159.668	87.4622	159.668	85.4835	159.668	87.1803	159.668	85.7152	159.668	86.9209	159.668	85.9339	159.668	86.6954	159.668	86.1335	159.668	86.4993	159.668	86.3178
165.527	90.653	165.527	90.0752	165.527	91.081	165.527	89.3826	165.527	91.3264	165.527	88.6131	165.527	91.3593	165.527	87.8079	165.527	91.1549	165.527	87.0129	165.527	90.6999	165.527	86.2772	165.527	90.0104	165.527	85.65	165.527	89.1695	165.527	85.1729	165.527	88.3656	165.527	84.8703	165.527	87.8181	165.527	84.7426	165.527	87.5501	165.527	84.7668	165.527	87.3765	165.527	84.9043	165.527	87.1649	165.527	85.1109	165.527	86.9166	165.527	85.3461	165.527	86.6778	165.527	85.5774	165.527	86.48	165.527	85.7828	165.527	86.3281	165.527	85.9524	165.527	86.206	165.527	86.0886
171.387	90.3862	171.387	89.9328	171.387	90.7025	171.387	89.3667	171.387	90.862	171.387	88.7157	171.387	90.8496	171.387	88.0109	171.387	90.6548	171.387	87.2862	171.387	90.2723	171.387	86.5789	171.387	89.7117	171.387	85.928	171.387	89.0302	171.387	85.3727	171.387	88.3757	171.387	84.9469	171.387	87.934	171.387	84.6725	171.387	87.7322	171.387	84.5536	171.387	87.6053	171.387	84.5739	171.387	87.4091	171.387	84.7015	171.387	87.1161	171.387	84.896	171.387	86.7688	171.387	85.1179	171.387	86.4287	171.387	85.3367	171.387	86.1403	171.387	85.5368	171.387	85.9119	171.387	85.7214
177.246	89.6949	177.246	89.22	177.246	90.0482	177.246	88.6511	177.246	90.2549	177.246	88.0185	177.246	90.2911	177.246	87.3558	177.246	90.1338	177.246	86.6979	177.246	89.7673	177.246	86.0794	177.246	89.2028	177.246	85.5314	177.246	88.5215	177.246	85.0796	177.246	87.909	177.246	84.7427	177.246	87.567	177.246	84.5314	177.246	87.5084	177.246	84.4485	177.246	87.5715	177.246	84.4887	177.246	87.6224	177.246	84.6384	177.246	87.5987	177.246	84.8771	177.246	87.473	177.246	85.1801	177.246	87.2478	177.246	85.5224	177.246	86.9492	177.246	85.8834	177.246	86.6086	177.246	86.2489
183.105	89.6778	183.105	89.0673	183.105	90.1192	183.105	88.3298	183.105	90.3553	183.105	87.5146	183.105	90.3565	183.105	86.6776	183.105	90.1029	183.105	85.8801	183.105	89.5942	183.105	85.1831	183.105	88.8731	183.105	84.6378	183.105	88.0677	183.105	84.2763	183.105	87.4104	183.105	84.1053	183.105	87.1011	183.105	84.109	183.105	87.0799	183.105	84.2568	183.105	87.1218	183.105	84.5126	183.105	87.1136	183.105	84.8404	183.105	87.0718	183.105	85.207	183.105	87.0235	183.105	85.5822	183.105	86.9627	183.105	85.9396	183.105	86.8692	183.105	86.2579	183.105	86.7256	183.105	86.5222
188.965	90.1974	188.965	89.6196	188.965	90.5816	188.965	88.8878	188.965	90.7368	188.965	88.0459	188.965	90.6325	188.965	87.143	188.965	90.2468	188.965	86.2346	188.965	89.5757	188.965	85.3822	188.965	88.6579	188.965	84.6495	188.965	87.6288	188.965	84.0932	188.965	86.7666	188.965	83.751	188.965	86.3511	188.965	83.6307	188.965	86.3547	188.965	83.7099	188.965	86.5092	188.965	83.9441	188.965	86.6237	188.965	84.2804	188.965	86.6477	188.965	84.6675	188.965	86.5993	188.965	85.0621	188.965	86.5065	188.965	85.4311	188.965	86.3825	188.965	85.7525	188.965	86.223	188.965	86.0162
196.289	90.8342	196.289	90.2135	196.289	91.2403	196.289	89.4218	196.289	91.3927	196.289	88.507	196.289	91.2571	196.289	87.5221	196.289	90.8056	196.289	86.5256	196.289	90.0245	196.289	85.5803	196.289	88.9424	196.289	84.7496	196.289	87.7126	196.289	84.0903	196.289	86.7082	196.289	83.6429	196.289	86.3022	196.289	83.4249	196.289	86.3361	196.289	83.4275	196.289	86.3678	196.289	83.6191	196.289	86.269	196.289	83.9511	196.289	86.1352	196.289	84.3655	196.289	86.039	196.289	84.8021	196.289	85.9902	196.289	85.2062	196.289	85.9594	196.289	85.5354	196.289	85.8994	196.289	85.7665
203.613	90.0713	203.613	89.4303	203.613	90.5334	203.613	88.6527	203.613	90.7735	203.613	87.7797	203.613	90.7485	203.613	86.8523	203.613	90.4168	203.613	85.9129	203.613	89.7403	203.613	85.0077	203.613	88.6925	203.613	84.189	203.613	87.2983	203.613	83.5144	203.613	85.7776	203.613	83.0393	203.613	84.7353	203.613	82.8026	203.613	84.6425	203.613	82.8104	203.613	85.0331	203.613	83.0286	203.613	85.3188	203.613	83.3918	203.613	85.3804	203.613	83.8226	203.613	85.3208	203.613	84.2487	203.613	85.2442	203.613	84.6144	203.613	85.1912	203.613	84.8859	203.613	85.1435	203.613	85.0558
210.938	89.3933	210.938	88.7854	210.938	89.8299	210.938	88.0404	210.938	90.0634	210.938	87.1956	210.938	90.0631	210.938	86.2922	210.938	89.7989	210.938	85.375	210.938	89.24	210.938	84.4919	210.938	88.353	210.938	83.6927	210.938	87.1155	210.938	83.0268	210.938	85.6105	210.938	82.5396	210.938	84.2741	210.938	82.2654	210.938	83.8179	210.938	82.2188	210.938	84.2071	210.938	82.3856	210.938	84.7571	210.938	82.7228	210.938	85.1212	210.938	83.1675	210.938	85.2839	210.938	83.6522	210.938	85.3069	210.938	84.118	210.938	85.2341	210.938	84.5232	210.938	85.0811	210.938	84.8457
218.262	89.347	218.262	88.7857	218.262	89.7486	218.262	88.1038	218.262	89.9469	218.262	87.3344	218.262	89.8979	218.262	86.5049	218.262	89.5614	218.262	85.6406	218.262	88.9058	218.262	84.769	218.262	87.9135	218.262	83.9253	218.262	86.5979	218.262	83.1558	218.262	85.0524	218.262	82.5188	218.262	83.5392	218.262	82.0763	218.262	82.4747	218.262	81.8759	218.262	82.0911	218.262	81.9259	218.262	82.2129	218.262	82.1825	218.262	82.5443	218.262	82.5621	218.262	82.9025	218.262	82.9686	218.262	83.2152	218.262	83.3188	218.262	83.4586	218.262	83.5557	218.262	83.6134	218.262	83.6531
225.586	89.5163	225.586	88.8782	225.586	89.9271	225.586	88.0802	225.586	90.0491	225.586	87.1921	225.586	89.8303	225.586	86.2805	225.586	89.2343	225.586	85.4034	225.586	88.2535	225.586	84.6052	225.586	86.9384	225.586	83.9157	225.586	85.4467	225.586	83.3532	225.586	84.0785	225.586	82.9305	225.586	83.1634	225.586	82.6611	225.586	82.7962	225.586	82.5613	225.586	82.8344	225.586	82.6458	225.586	83.1355	225.586	82.9151	225.586	83.6075	225.586	83.3414	225.586	84.1524	225.586	83.8624	225.586	84.6579	225.586	84.3909	225.586	85.0239	225.586	84.8349	225.586	85.1847	225.586	85.1164
232.91	89.9033	232.91	89.2934	232.91	90.2962	232.91	88.5207	232.91	90.4211	232.91	87.6427	232.91	90.2286	232.91	86.7209	232.91	89.6726	232.91	85.818	232.91	88.7169	232.91	84.9935	232.91	87.3522	232.91	84.2964	232.91	85.6342	232.91	83.7578	232.91	83.79	232.91	83.3882	232.91	82.4559	232.91	83.1791	232.91	82.3486	232.91	83.1108	232.91	83.0611	232.91	83.1604	232.91	83.7955	232.91	83.3073	232.91	84.3183	232.91	83.5336	232.91	84.6685	232.91	83.8202	232.91	84.8846	232.91	84.1411	232.91	84.9671	232.91	84.4595	232.91	84.9115	232.91	84.7311
241.699	90.2142	241.699	89.6245	241.699	90.5408	241.699	88.8343	241.699	90.5522	241.699	87.9114	241.699	90.2124	241.699	86.9258	241.699	89.5104	241.699	85.9475	241.699	88.4705	241.699	85.0445	241.699	87.1596	241.699	84.2798	241.699	85.6828	241.699	83.7058	241.699	84.169	241.699	83.3553	241.699	82.8038	241.699	83.2332	241.699	81.8899	241.699	83.3145	241.699	81.6798	241.699	83.5501	241.699	82.0668	241.699	83.879	241.699	82.7358	241.699	84.2391	241.699	83.4521	241.699	84.5752	241.699	84.088	241.699	84.8416	241.699	84.5762	241.699	85.0017	241.699	84.889	241.699	85.0256
250.488	89.759	250.488	89.1406	250.488	90.1034	250.488	88.3266	250.488	90.0978	250.488	87.3951	250.488	89.6711	250.488	86.4217	250.488	88.7646	250.488	85.4755	250.488	87.3523	250.488	84.616	250.488	85.4947	250.488	83.8919	250.488	83.4551	250.488	83.3431	250.488	81.7994	250.488	83.0015	250.488	81.0847	250.488	82.8879	250.488	81.2438	250.488	83.0008	250.488	81.8054	250.488	83.3052	250.488	82.4441	250.488	83.7334	250.488	83.0346	250.488	84.1989	250.488	83.5642	250.488	84.6161	250.488	84.0523	250.488	84.9169	250.488	84.4871	250.488	85.0586	250.488	84.8259	250.488	85.0256
259.277	91.1021	259.277	90.4789	259.277	91.4106	259.277	89.6198	259.277	91.3191	259.277	88.5985	259.277	90.7385	259.277	87.4858	259.277	89.5819	259.277	86.3531	259.277	87.7849	259.277	85.275	259.277	85.3731	259.277	84.3275	259.277	82.6545	259.277	83.5807	259.277	80.5313	259.277	83.0862	259.277	80.0427	259.277	82.8651	259.277	80.8726	259.277	82.9012	259.277	82.0525	259.277	83.1441	259.277	83.1054	259.277	83.5192	259.277	83.8807	259.277	83.9422	259.277	84.3662	259.277	84.334	259.277	84.6301	259.277	84.6337	259.277	84.7673	259.277	84.8104	259.277	84.844	259.277	84.8693
268.066	90.4662	268.066	89.9175	268.066	90.7659	268.066	89.1824	268.066	90.7378	268.066	88.311	268.066	90.2896	268.066	87.3471	268.066	89.3229	268.066	86.3356	268.066	87.7516	268.066	85.3262	268.066	85.547	268.066	84.3764	268.066	82.8552	268.066	83.5516	268.066	80.2336	268.066	82.9245	268.066	78.6905	268.066	82.5665	268.066	78.6344	268.066	82.5278	268.066	79.3388	268.066	82.8064	268.066	80.1555	268.066	83.3269	268.066	80.89	268.066	83.952	268.066	81.5963	268.066	84.5213	268.066	82.3827	268.066	84.8907	268.066	83.2512	268.066	84.9576	268.066	84.0706	268.066	84.6756
276.855	89.6278	276.855	89.2476	276.855	89.803	276.855	88.7136	276.855	89.6942	276.855	88.0588	276.855	89.1916	276.855	87.311	276.855	88.1644	276.855	86.4995	276.855	86.4843	276.855	85.6579	276.855	84.0915	276.855	84.8223	276.855	81.2141	276.855	84.0296	276.855	78.8516	276.855	83.3173	276.855	78.328	276.855	82.7289	276.855	79.1385	276.855	82.3244	276.855	80.1033	276.855	82.1862	276.855	80.9078	276.855	82.3882	276.855	81.6333	276.855	82.9191	276.855	82.373	276.855	83.6346	276.855	83.1673	276.855	84.3148	276.855	83.9501	276.855	84.7621	276.855	84.5622	276.855	84.8549
287.109	89.9738	287.109	89.7906	287.109	89.8938	287.109	89.3527	287.109	89.5617	287.109	88.7003	287.109	88.9655	287.109	87.8982	287.109	88.0188	287.109	87.0231	287.109	86.5571	287.109	86.1512	287.109	84.4272	287.109	85.3481	287.109	81.7293	287.109	84.6618	287.109	79.376	287.109	84.1167	287.109	78.8779	287.109	83.7116	287.109	79.6898	287.109	83.4239	287.109	80.4283	287.109	83.228	287.109	80.8765	287.109	83.1264	287.109	81.3186	287.109	83.1689	287.109	81.982	287.109	83.4152	287.109	82.8637	287.109	83.8372	287.109	83.7313	287.109	84.2686	287.109	84.3158	287.109	84.4836
297.363	90.1066	297.363	89.8551	297.363	89.9514	297.363	89.2715	297.363	89.3444	297.363	88.4478	297.363	88.2795	297.363	87.4851	297.363	86.7835	297.363	86.4849	297.363	84.8765	297.363	85.5427	297.363	82.5716	297.363	84.7401	297.363	80.2152	297.363	84.1367	297.363	79.1985	297.363	83.7588	297.363	80.1255	297.363	83.5876	297.363	81.21	297.363	83.5562	297.363	81.411	297.363	83.5684	297.363	80.8715	297.363	83.544	297.363	80.3811	297.363	83.4795	297.363	80.8293	297.363	83.4873	297.363	82.1327	297.363	83.7131	297.363	83.447	297.363	84.1151	297.363	84.2351	297.363	84.3997
307.617	89.98	307.617	89.6398	307.617	90.0061	307.617	89.0035	307.617	89.7339	307.617	88.1262	307.617	89.1734	307.617	87.0873	307.617	88.2476	307.617	85.9786	307.617	86.7262	307.617	84.8928	307.617	84.2123	307.617	83.9153	307.617	80.1799	307.617	83.1192	307.617	75.4383	307.617	82.5655	307.617	76.6878	307.617	82.3047	307.617	79.2499	307.617	82.359	307.617	79.8999	307.617	82.6789	307.617	79.3666	307.617	83.1203	307.617	78.7812	307.617	83.4884	307.617	79.0379	307.617	83.6169	307.617	79.9656	307.617	83.4285	307.617	80.9314	307.617	82.9656	307.617	81.7032	307.617	82.3603
319.336	89.358	319.336	89.3475	319.336	88.8259	319.336	88.9042	319.336	87.7629	319.336	88.1631	319.336	86.4902	319.336	87.2464	319.336	85.6067	319.336	86.2486	319.336	85.1056	319.336	85.2377	319.336	84.0962	319.336	84.2686	319.336	81.7704	319.336	83.4012	319.336	78.2787	319.336	82.7137	319.336	77.2714	319.336	82.2952	319.336	78.9798	319.336	82.199	319.336	79.4366	319.336	82.3834	319.336	78.3035	319.336	82.7172	319.336	76.6939	319.336	83.063	319.336	77.2172	319.336	83.3613	319.336	79.8301	319.336	83.6352	319.336	82.1243	319.336	83.8789	319.336	83.4423	319.336	83.9208
329.59	89.0745	329.59	88.8167	329.59	88.8647	329.59	88.2305	329.59	88.059	329.59	87.4407	329.59	86.6154	329.59	86.5497	329.59	84.7722	329.59	85.6342	329.59	83.1785	329.59	84.742	329.59	82.0842	329.59	83.8935	329.59	80.6851	329.59	83.0915	329.59	78.4546	329.59	82.3495	329.59	76.6769	329.59	81.7341	329.59	76.5405	329.59	81.3878	329.59	75.6184	329.59	81.4485	329.59	73.4677	329.59	81.8707	329.59	74.7013	329.59	82.3934	329.59	78.0511	329.59	82.7326	329.59	80.3885	329.59	82.7623	329.59	81.6757	329.59	82.5802	329.59	82.215	329.59	82.4003
341.309	89.0644	341.309	88.9087	341.309	88.6542	341.309	88.3131	341.309	87.6495	341.309	87.4267	341.309	86.277	341.309	86.3901	341.309	85.0721	341.309	85.3204	341.309	84.2169	341.309	84.3055	341.309	83.0506	341.309	83.404	341.309	81.0197	341.309	82.6499	341.309	78.8797	341.309	82.0621	341.309	78.561	341.309	81.6592	341.309	79.1001	341.309	81.4725	341.309	78.8834	341.309	81.5391	341.309	78.2627	341.309	81.8574	341.309	78.5995	341.309	82.341	341.309	80.1095	341.309	82.8421	341.309	81.7173	341.309	83.2362	341.309	82.8292	341.309	83.4764	341.309	83.3908	341.309	83.5522
353.027	89.3204	353.027	89.0572	353.027	89.1894	353.027	88.5122	353.027	88.5596	353.027	87.7598	353.027	87.4539	353.027	86.8414	353.027	86.1751	353.027	85.7914	353.027	85.1114	353.027	84.6558	353.027	84.0018	353.027	83.4947	353.027	82.0159	353.027	82.3755	353.027	78.8914	353.027	81.3646	353.027	77.6431	353.027	80.5402	353.027	79.4669	353.027	80.0279	353.027	80.4983	353.027	79.9863	353.027	80.8762	353.027	80.4329	353.027	81.7314	353.027	81.1116	353.027	82.9048	353.027	81.6796	353.027	83.6587	353.027	81.9771	353.027	83.7156	353.027	82.154	353.027	83.2078	353.027	82.5494
366.211	89.2565	366.211	89.2727	366.211	88.5716	366.211	88.7489	366.211	87.2516	366.211	87.8528	366.211	85.8558	366.211	86.7546	366.211	85.4921	366.211	85.6063	366.211	85.9964	366.211	84.5256	366.211	86.0073	366.211	83.5863	366.211	84.6776	366.211	82.8142	366.211	81.5732	366.211	82.1907	366.211	77.2159	366.211	81.6714	366.211	76.7497	366.211	81.22	366.211	78.7808	366.211	80.8375	366.211	79.7288	366.211	80.5669	366.211	80.1282	366.211	80.4509	366.211	80.5286	366.211	80.4558	366.211	80.8415	366.211	80.4639	366.211	80.8339	366.211	80.4051	366.211	80.5801	366.211	80.3922
379.395	89.0502	379.395	88.5459	379.395	89.0078	379.395	87.7291	379.395	88.225	379.395	86.8139	379.395	86.6727	379.395	85.9381	379.395	84.8923	379.395	85.1407	379.395	84.2002	379.395	84.3878	379.395	84.5545	379.395	83.6158	379.395	84.5081	379.395	82.7639	379.395	83.44	379.395	81.8028	379.395	81.5177	379.395	80.7799	379.395	79.5803	379.395	79.8835	379.395	78.709	379.395	79.4328	379.395	78.4938	379.395	79.6026	379.395	77.9642	379.395	80.143	379.395	76.8927	379.395	80.6032	379.395	75.8081	379.395	80.6517	379.395	75.9458	379.395	80.1266	379.395	77.3947	379.395	78.9946
392.578	88.1678	392.578	87.8755	392.578	88.1605	392.578	87.3956	392.578	87.7784	392.578	86.8092	392.578	87.0684	392.578	86.1595	392.578	86.1752	392.578	85.4753	392.578	85.1495	392.578	84.7838	392.578	83.9779	392.578	84.1073	392.578	83.0171	392.578	83.4544	392.578	82.7126	392.578	82.8181	392.578	82.661	392.578	82.1864	392.578	82.2031	392.578	81.5755	392.578	81.1022	392.578	81.0824	392.578	79.3504	392.578	80.883	392.578	77.0977	392.578	81.0397	392.578	75.7286	392.578	81.2975	392.578	76.8104	392.578	81.2651	392.578	78.4675	392.578	80.7832	392.578	79.447	392.578	80.0938
405.762	88.332	405.762	88.1872	405.762	87.8381	405.762	87.5802	405.762	86.8244	405.762	86.7203	405.762	86.1166	405.762	85.7688	405.762	86.38	405.762	84.8414	405.762	86.6146	405.762	84.0267	405.762	85.7795	405.762	83.3736	405.762	83.8664	405.762	82.8626	405.762	82.1698	405.762	82.4115	405.762	82.0005	405.762	81.9293	405.762	82.1436	405.762	81.397	405.762	81.2455	405.762	80.9467	405.762	78.7979	405.762	80.846	405.762	74.5017	405.762	81.2166	405.762	71.4384	405.762	81.7721	405.762	75.5992	405.762	82.0856	405.762	79.0015	405.762	81.9704	405.762	80.7007	405.762	81.515
420.41	88.6005	420.41	88.119	420.41	88.4714	420.41	87.4411	420.41	87.2717	420.41	86.7578	420.41	84.9325	420.41	86.0538	420.41	83.4277	420.41	85.2769	420.41	84.5979	420.41	84.4389	420.41	85.4395	420.41	83.607	420.41	84.8835	420.41	82.8575	420.41	83.7592	420.41	82.2276	420.41	83.0557	420.41	81.6894	420.41	82.2038	420.41	81.1876	420.41	80.3081	420.41	80.7573	420.41	77.8488	420.41	80.6148	420.41	77.5683	420.41	80.916	420.41	79.6873	420.41	81.3073	420.41	81.3584	420.41	81.1524	420.41	81.7293	420.41	80.265	420.41	80.8168	420.41	79.7866
435.059	88.4413	435.059	88.0374	435.059	88.6303	435.059	87.5367	435.059	88.2186	435.059	86.8448	435.059	86.9753	435.059	85.9353	435.059	85.4348	435.059	84.9325	435.059	84.4738	435.059	84.0226	435.059	83.3283	435.059	83.3289	435.059	81.8636	435.059	82.8469	435.059	83.2796	435.059	82.4743	435.059	85.6713	435.059	82.0719	435.059	86.4517	435.059	81.5084	435.059	85.5673	435.059	80.7936	435.059	83.8271	435.059	80.4516	435.059	82.5612	435.059	81.3353	435.059	82.4643	435.059	82.901	435.059	82.3833	435.059	83.7581	435.059	81.0318	435.059	83.0815	435.059	79.1803	435.059	80.7185
451.172	89.2471	451.172	88.9389	451.172	89.4685	451.172	88.3557	451.172	89.4798	451.172	87.3646	451.172	88.8638	451.172	86.0023	451.172	87.6093	451.172	84.404	451.172	86.62	451.172	82.7375	451.172	85.8694	451.172	81.1974	451.172	83.2068	451.172	80.0452	451.172	76.7839	451.172	79.5509	451.172	80.8985	451.172	79.6959	451.172	85.1702	451.172	80.0215	451.172	85.9916	451.172	79.9073	451.172	85.0802	451.172	78.934	451.172	83.9182	451.172	78.0334	451.172	83.1495	451.172	80.1164	451.172	81.7848	451.172	83.0324	451.172	78.7734	451.172	84.1408	451.172	78.9903	451.172	82.7645
465.82	89.3576	465.82	89.0589	465.82	89.2963	465.82	88.4037	465.82	89.1236	465.82	87.5057	465.82	89.1365	465.82	86.4615	465.82	89.2183	465.82	85.3342	465.82	88.9943	465.82	84.1729	465.82	88.1183	465.82	83.0156	465.82	86.0648	465.82	81.8994	465.82	82.0705	465.82	80.9091	465.82	78.1463	465.82	80.2312	465.82	81.1598	465.82	80.0603	465.82	83.1362	465.82	80.2685	465.82	82.8596	465.82	80.2984	465.82	81.3894	465.82	79.599	465.82	79.2435	465.82	78.6068	465.82	76.7484	465.82	79.5906	465.82	77.3562	465.82	81.6973	465.82	80.7042	465.82	82.3264
483.398	89.2575	483.398	88.6972	483.398	89.4639	483.398	88.0902	483.398	88.7539	483.398	87.3467	483.398	87.1971	483.398	86.3819	483.398	86.6846	483.398	85.2973	483.398	87.5752	483.398	84.2734	483.398	87.4174	483.398	83.4358	483.398	85.5244	483.398	82.8191	483.398	83.3491	483.398	82.4252	483.398	83.1893	483.398	82.2456	483.398	83.5279	483.398	82.155	483.398	82.3882	483.398	81.8337	483.398	78.9524	483.398	80.9193	483.398	73.0315	483.398	79.5082	483.398	67.7607	483.398	79.0471	483.398	74.4007	483.398	80.2011	483.398	78.6917	483.398	81.0318	483.398	80.2535	483.398	80.8757
499.512	89.0726	499.512	89.1184	499.512	89.2733	499.512	88.7668	499.512	89.5262	499.512	87.7493	499.512	88.9376	499.512	86.2355	499.512	87.8426	499.512	84.5066	499.512	87.8744	499.512	82.7677	499.512	87.8408	499.512	81.1354	499.512	85.4268	499.512	79.7092	499.512	80.5437	499.512	78.6752	499.512	82.6551	499.512	78.5126	499.512	85.6175	499.512	79.5787	499.512	85.0599	499.512	81.0696	499.512	81.2583	499.512	81.7818	499.512	76.1477	499.512	80.9743	499.512	75.5191	499.512	79.0733	499.512	76.2342	499.512	79.6451	499.512	74.9843	499.512	81.104	499.512	73.3348	499.512	79.2998
517.09	88.5241	517.09	88.5872	517.09	88.08	517.09	88.139	517.09	87.5318	517.09	87.29	517.09	86.7935	517.09	86.2432	517.09	85.8143	517.09	85.1703	517.09	85.9035	517.09	84.1555	517.09	86.822	517.09	83.195	517.09	85.9555	517.09	82.198	517.09	81.1604	517.09	80.9843	517.09	75.1819	517.09	79.355	517.09	82.2898	517.09	77.5689	517.09	83.5523	517.09	77.4673	517.09	80.97	517.09	79.4204	517.09	77.1207	517.09	80.6801	517.09	75.8726	517.09	79.8074	517.09	76.0066	517.09	76.9222	517.09	78.3012	517.09	77.3896	517.09	79.9491	517.09	79.7829
536.133	89.8399	536.133	89.4777	536.133	90.3155	536.133	89.0017	536.133	90.6087	536.133	88.2419	536.133	89.9554	536.133	87.1994	536.133	88.0574	536.133	85.931	536.133	86.3997	536.133	84.5109	536.133	86.3296	536.133	83.0427	536.133	85.5201	536.133	81.6861	536.133	82.9022	536.133	80.6292	536.133	80.0024	536.133	79.913	536.133	80.411	536.133	79.4053	536.133	81.6661	536.133	79.1564	536.133	81.7772	536.133	79.472	536.133	82.6144	536.133	80.2987	536.133	84.5602	536.133	81.1596	536.133	85.4387	536.133	81.761	536.133	84.7422	536.133	82.0412	536.133	83.2115	536.133	82.2464
555.176	90.0275	555.176	89.9817	555.176	89.7026	555.176	89.3198	555.176	89.753	555.176	88.2062	555.176	90.2114	555.176	86.9051	555.176	90.1016	555.176	85.6269	555.176	89.0065	555.176	84.46	555.176	87.4916	555.176	83.3776	555.176	85.8079	555.176	82.3053	555.176	83.0053	555.176	81.167	555.176	80.4559	555.176	79.8533	555.176	82.2795	555.176	78.2768	555.176	83.6825	555.176	76.99	555.176	83.7422	555.176	77.4887	555.176	83.5261	555.176	78.8646	555.176	82.7048	555.176	78.9246	555.176	80.4688	555.176	77.9537	555.176	79.9423	555.176	79.8697	555.176	82.2157	555.176	82.3333
574.219	89.9371	574.219	89.7992	574.219	90.3097	574.219	89.3989	574.219	90.4888	574.219	88.486	574.219	89.87	574.219	87.2472	574.219	89.4201	574.219	85.9164	574.219	89.7703	574.219	84.6491	574.219	89.0566	574.219	83.577	574.219	86.0228	574.219	82.761	574.219	81.4524	574.219	82.0585	574.219	81.5114	574.219	81.1272	574.219	84.2015	574.219	79.5555	574.219	84.6889	574.219	77.3214	574.219	82.173	574.219	77.162	574.219	78.0282	574.219	80.1084	574.219	76.796	574.219	81.8486	574.219	80.949	574.219	81.5133	574.219	82.6248	574.219	81.0964	574.219	82.4342	574.219	82.0246
594.727	90.4047	594.727	90.1981	594.727	89.9432	594.727	89.3514	594.727	89.3936	594.727	88.1672	594.727	89.0995	594.727	86.8835	594.727	88.2689	594.727	85.5639	594.727	87.4331	594.727	84.2298	594.727	87.9821	594.727	82.9591	594.727	87.2101	594.727	81.8981	594.727	81.6736	594.727	81.3031	594.727	75.1169	594.727	81.3019	594.727	84.5033	594.727	81.4055	594.727	84.615	594.727	80.7267	594.727	78.7017	594.727	79.0314	594.727	75.7631	594.727	79.1269	594.727	76.7237	594.727	80.8815	594.727	74.377	594.727	80.0232	594.727	77.4686	594.727	78.778	594.727	81.8989	594.727	81.968
615.234	89.2794	615.234	89.3548	615.234	88.6189	615.234	88.7155	615.234	88.4538	615.234	87.853	615.234	88.968	615.234	87.0844	615.234	88.918	615.234	86.2641	615.234	87.8671	615.234	85.2068	615.234	86.7512	615.234	83.9064	615.234	86.2307	615.234	82.4349	615.234	84.517	615.234	80.9412	615.234	79.9419	615.234	79.8694	615.234	77.1242	615.234	79.68	615.234	78.853	615.234	79.7444	615.234	79.3526	615.234	78.9506	615.234	81.0698	615.234	77.9168	615.234	79.1691	615.234	79.1224	615.234	72.206	615.234	79.8039	615.234	67.1372	615.234	77.2648	615.234	69.7722	615.234	72.9914
637.207	90.1808	637.207	89.4814	637.207	90.6126	637.207	88.6263	637.207	90.6991	637.207	87.696	637.207	90.4696	637.207	86.6987	637.207	89.8291	637.207	85.6044	637.207	88.5853	637.207	84.4201	637.207	87.0336	637.207	83.1857	637.207	85.2121	637.207	82.0126	637.207	82.0387	637.207	81.1062	637.207	78.9813	637.207	80.5127	637.207	82.161	637.207	79.9049	637.207	84.1344	637.207	78.7427	637.207	83.1734	637.207	76.771	637.207	82.1571	637.207	75.5977	637.207	83.0345	637.207	76.6547	637.207	83.2362	637.207	77.2759	637.207	82.4311	637.207	78.3687	637.207	82.3409	637.207	80.9847
659.18	89.8548	659.18	89.7167	659.18	89.9663	659.18	89.2779	659.18	89.8129	659.18	88.5156	659.18	89.339	659.18	87.4456	659.18	89.6293	659.18	86.0732	659.18	89.7575	659.18	84.5661	659.18	88.3463	659.18	83.1032	659.18	85.5158	659.18	81.7007	659.18	81.5476	659.18	80.2339	659.18	78.5044	659.18	78.8361	659.18	82.5472	659.18	78.7119	659.18	84.8035	659.18	79.8725	659.18	83.1307	659.18	79.8807	659.18	79.7314	659.18	77.5992	659.18	77.8949	659.18	79.3059	659.18	77.21	659.18	82.6089	659.18	81.6423	659.18	81.2379	659.18	82.9806	659.18	79.3296
682.617	89.6617	682.617	89.4479	682.617	89.0204	682.617	89.0018	682.617	88.5732	682.617	88.2035	682.617	89.2464	682.617	86.9425	682.617	88.3218	682.617	85.6099	682.617	86.4387	682.617	84.4452	682.617	87.2364	682.617	83.4056	682.617	86.5293	682.617	82.4551	682.617	82.3461	682.617	81.5938	682.617	75.8161	682.617	80.5988	682.617	75.3164	682.617	79.173	682.617	80.2279	682.617	78.3987	682.617	73.5107	682.617	80.0326	682.617	75.4467	682.617	81.1323	682.617	76.8858	682.617	80.0306	682.617	77.1699	682.617	80.5218	682.617	79.379	682.617	82.415	682.617	80.117	682.617	82.0211
707.52	88.7604	707.52	89.4144	707.52	88.0898	707.52	89.5412	707.52	87.6118	707.52	88.8539	707.52	87.714	707.52	87.5971	707.52	88.2835	707.52	86.2417	707.52	87.724	707.52	84.9105	707.52	85.4737	707.52	83.5085	707.52	83.612	707.52	82.1825	707.52	82.4105	707.52	81.2831	707.52	80.1122	707.52	80.7596	707.52	78.5973	707.52	80.1467	707.52	79.084	707.52	79.7272	707.52	80.7583	707.52	80.3725	707.52	82.7187	707.52	80.7987	707.52	79.584	707.52	80.4828	707.52	71.2856	707.52	80.9756	707.52	73.5451	707.52	79.1096	707.52	79.2353	707.52	77.5072
732.422	89.387	732.422	89.4905	732.422	89.5852	732.422	89.4098	732.422	89.6175	732.422	88.8098	732.422	89.0638	732.422	87.975	732.422	89.4081	732.422	86.9306	732.422	90.309	732.422	85.3326	732.422	89.2957	732.422	83.1522	732.422	86.6505	732.422	80.837	732.422	83.8034	732.422	79.0287	732.422	79.9164	732.422	77.8935	732.422	81.2325	732.422	77.1308	732.422	83.0026	732.422	77.7088	732.422	83.0853	732.422	79.5742	732.422	82.7659	732.422	79.2985	732.422	80.6747	732.422	74.9519	732.422	78.0158	732.422	76.0085	732.422	77.2297	732.422	77.0636	732.422	73.4903	732.422	73.6877
757.324	90.3091	757.324	90.7153	757.324	89.2756	757.324	90.0964	757.324	89.2749	757.324	89.2329	757.324	88.5907	757.324	88.2674	757.324	86.6891	757.324	87.0581	757.324	88.9521	757.324	85.7688	757.324	90.5982	757.324	84.4471	757.324	87.8422	757.324	82.8784	757.324	80.6346	757.324	81.1648	757.324	81.0429	757.324	80.0604	757.324	82.9333	757.324	78.8716	757.324	85.3017	757.324	75.5359	757.324	84.2243	757.324	76.2531	757.324	76.4805	757.324	79.8508	757.324	63.4015	757.324	79.5173	757.324	77.7643	757.324	79.5183	757.324	80.4889	757.324	81.2253	757.324	81.5281	757.324	81.0092
785.156	91.1367	785.156	90.3481	785.156	90.9378	785.156	90.1208	785.156	89.9835	785.156	89.8565	785.156	90.2154	785.156	88.8156	785.156	89.7537	785.156	87.5125	785.156	86.2368	785.156	86.4997	785.156	85.9867	785.156	85.5984	785.156	88.3591	785.156	84.4188	785.156	84.8027	785.156	83.0947	785.156	73.8476	785.156	82.2877	785.156	81.5852	785.156	82.1944	785.156	82.5588	785.156	81.3966	785.156	63.3138	785.156	77.8647	785.156	83.4477	785.156	78.0813	785.156	83.2647	785.156	81.2036	785.156	77.2704	785.156	78.9904	785.156	78.1567	785.156	82.0057	785.156	80.0052	785.156	82.2395
811.523	89.129	811.523	90.2001	811.523	88.566	811.523	90.5279	811.523	87.7063	811.523	89.5705	811.523	88.4683	811.523	88.478	811.523	90.3809	811.523	87.788	811.523	90.9247	811.523	87.2152	811.523	89.4149	811.523	86.4734	811.523	86.353	811.523	85.1971	811.523	84.7158	811.523	83.3389	811.523	80.4885	811.523	81.6061	811.523	71.2999	811.523	80.6104	811.523	78.5128	811.523	79.9742	811.523	83.6405	811.523	79.3378	811.523	86.7962	811.523	79.4587	811.523	84.7392	811.523	80.586	811.523	77.1376	811.523	81.2406	811.523	75.5279	811.523	81.1017	811.523	75.2473	811.523	76.8947
840.82	91.108	840.82	90.7542	840.82	90.4078	840.82	89.9257	840.82	89.6519	840.82	89.5373	840.82	89.8451	840.82	89.3211	840.82	88.8143	840.82	88.5573	840.82	89.1326	840.82	87.0152	840.82	90.4799	840.82	84.9696	840.82	87.8395	840.82	83.2548	840.82	84.4242	840.82	82.3318	840.82	84.7357	840.82	81.6151	840.82	81.585	840.82	81.1801	840.82	83.9104	840.82	81.7663	840.82	84.021	840.82	81.1836	840.82	78.1	840.82	77.9469	840.82	74.7348	840.82	76.6657	840.82	74.598	840.82	74.4984	840.82	76.7205	840.82	73.438	840.82	78.474	840.82	76.9831
870.117	89.6761	870.117	89.8087	870.117	89.7855	870.117	90.249	870.117	88.291	870.117	89.8817	870.117	87.6363	870.117	89.186	870.117	88.1456	870.117	88.1612	870.117	84.018	870.117	86.3203	870.117	85.8777	870.117	83.8813	870.117	87.6398	870.117	81.38	870.117	81.2675	870.117	79.3246	870.117	83.1434	870.117	79.1782	870.117	83.7395	870.117	80.5404	870.117	78.2551	870.117	81.2558	870.117	69.1265	870.117	79.4113	870.117	80.0964	870.117	76.8249	870.117	79.1322	870.117	80.8699	870.117	70.9181	870.117	79.5153	870.117	76.257	870.117	79.1617	870.117	76.0079	870.117	80.5961
900.879	90.1329	900.879	90.2925	900.879	89.7881	900.879	90.4005	900.879	88.4577	900.879	90.4495	900.879	89.2678	900.879	90.1848	900.879	90.651	900.879	88.8611	900.879	91.2224	900.879	86.944	900.879	89.0774	900.879	84.8565	900.879	86.657	900.879	82.5911	900.879	84.5518	900.879	80.5229	900.879	77.4008	900.879	78.1772	900.879	84.984	900.879	72.7973	900.879	84.0625	900.879	78.0616	900.879	82.7565	900.879	82.9716	900.879	84.7166	900.879	81.6032	900.879	83.3611	900.879	79.9061	900.879	81.1191	900.879	82.307	900.879	75.714	900.879	78.3616	900.879	76.0099	900.879	81.8694
933.105	89.255	933.105	90.26	933.105	90.2067	933.105	90.0944	933.105	90.2823	933.105	90.0521	933.105	86.8567	933.105	88.9355	933.105	87.544	933.105	87.1099	933.105	86.7665	933.105	85.6841	933.105	89.6809	933.105	84.0767	933.105	88.8505	933.105	81.9554	933.105	82.3802	933.105	80.1581	933.105	75.2631	933.105	80.3106	933.105	83.8228	933.105	79.549	933.105	86.7418	933.105	73.7733	933.105	80.6575	933.105	77.1807	933.105	71.1888	933.105	78.6283	933.105	69.231	933.105	77.6941	933.105	74.3301	933.105	81.7579	933.105	73.0137	933.105	74.7558	933.105	72.4416	933.105	78.8495
965.332	89.2157	965.332	89.7299	965.332	87.3282	965.332	90.7635	965.332	88.4557	965.332	90.5182	965.332	88.3048	965.332	88.3568	965.332	86.5323	965.332	86.8347	965.332	87.7908	965.332	86.2939	965.332	87.3388	965.332	85.7088	965.332	87.6097	965.332	84.5239	965.332	85.9404	965.332	82.3123	965.332	80.137	965.332	79.594	965.332	75.5256	965.332	79.1157	965.332	76.312	965.332	77.46	965.332	70.7484	965.332	69.8949	965.332	81.1568	965.332	79.6983	965.332	79.2749	965.332	77.4262	965.332	74.6708	965.332	78.4607	965.332	75.4115	965.332	80.0403	965.332	79.2032	965.332	71.9344
1,000.49	89.8512	1,000.49	91.0001	1,000.49	89.5367	1,000.49	91.4872	1,000.49	89.3651	1,000.49	90.5111	1,000.49	88.7456	1,000.49	88.8658	1,000.49	88.7716	1,000.49	87.5254	1,000.49	89.6108	1,000.49	86.3436	1,000.49	89.4074	1,000.49	85.0001	1,000.49	87.1019	1,000.49	83.2483	1,000.49	84.0241	1,000.49	80.927	1,000.49	81.8645	1,000.49	79.2949	1,000.49	72.8752	1,000.49	80.2191	1,000.49	77.7021	1,000.49	79.7384	1,000.49	81.7718	1,000.49	75.7846	1,000.49	81.4944	1,000.49	77.7007	1,000.49	79.8254	1,000.49	79.529	1,000.49	78.6885	1,000.49	79.1012	1,000.49	77.8218	1,000.49	81.3643	1,000.49	79.3834	1,000.49	81.4185
1,035.64	89.2913	1,035.64	89.9747	1,035.64	88.7216	1,035.64	90.343	1,035.64	89.0344	1,035.64	90.1857	1,035.64	89.2898	1,035.64	89.448	1,035.64	88.5658	1,035.64	88.262	1,035.64	87.7756	1,035.64	86.22	1,035.64	89.0149	1,035.64	83.0239	1,035.64	88.6704	1,035.64	79.6319	1,035.64	83.8272	1,035.64	76.9169	1,035.64	82.4603	1,035.64	75.0579	1,035.64	85.5231	1,035.64	78.5455	1,035.64	78.6276	1,035.64	80.2183	1,035.64	72.5122	1,035.64	77.8986	1,035.64	68.5025	1,035.64	77.2393	1,035.64	72.0226	1,035.64	78.9933	1,035.64	75.1453	1,035.64	78.2589	1,035.64	78.2735	1,035.64	79.9061	1,035.64	74.6867	1,035.64	77.7218
1,072.27	87.7089	1,072.27	89.8987	1,072.27	87.6301	1,072.27	90.9978	1,072.27	88.9831	1,072.27	90.4742	1,072.27	89.1338	1,072.27	89.5236	1,072.27	89.1522	1,072.27	88.009	1,072.27	90.5694	1,072.27	85.8199	1,072.27	90.9422	1,072.27	84.3296	1,072.27	89.7487	1,072.27	83.9478	1,072.27	85.8611	1,072.27	83.288	1,072.27	76.9608	1,072.27	80.8935	1,072.27	81.2765	1,072.27	75.9395	1,072.27	76.0065	1,072.27	77.8293	1,072.27	77.8323	1,072.27	80.1882	1,072.27	83.6668	1,072.27	74.418	1,072.27	83.9185	1,072.27	78.9498	1,072.27	76.9007	1,072.27	81.2839	1,072.27	77.0204	1,072.27	73.1927	1,072.27	74.8434	1,072.27	74.1081
1,108.89	88.3443	1,108.89	90.4563	1,108.89	84.9825	1,108.89	90.986	1,108.89	83.8176	1,108.89	90.8726	1,108.89	84.7395	1,108.89	89.8469	1,108.89	85.5265	1,108.89	88.3174	1,108.89	87.0734	1,108.89	87.2367	1,108.89	89.2703	1,108.89	85.4072	1,108.89	88.6336	1,108.89	81.0381	1,108.89	85.0646	1,108.89	77.3632	1,108.89	78.8978	1,108.89	79.9574	1,108.89	72.1158	1,108.89	79.1896	1,108.89	82.7824	1,108.89	75.2109	1,108.89	81.0354	1,108.89	75.4541	1,108.89	78.5542	1,108.89	76.6191	1,108.89	73.0065	1,108.89	77.8141	1,108.89	74.4575	1,108.89	78.5267	1,108.89	79.2131	1,108.89	80.0077	1,108.89	79.0699	1,108.89	79.4779
1,148.44	89.2112	1,148.44	90.1382	1,148.44	87.2422	1,148.44	89.7801	1,148.44	86.2088	1,148.44	89.2822	1,148.44	88.4783	1,148.44	89.2104	1,148.44	90.8796	1,148.44	87.8443	1,148.44	91.1317	1,148.44	85.2686	1,148.44	89.688	1,148.44	83.8065	1,148.44	89.1309	1,148.44	82.9218	1,148.44	87.9392	1,148.44	80.3881	1,148.44	80.5367	1,148.44	75.0911	1,148.44	73.3239	1,148.44	74.3954	1,148.44	75.6418	1,148.44	70.9049	1,148.44	79.5664	1,148.44	73.9598	1,148.44	84.078	1,148.44	80.3502	1,148.44	82.2903	1,148.44	76.3074	1,148.44	66.7447	1,148.44	75.5604	1,148.44	71.1631	1,148.44	77.1478	1,148.44	71.0379	1,148.44	76.0608
1,189.45	89.6163	1,189.45	89.5183	1,189.45	88.7708	1,189.45	89.3573	1,189.45	89.0717	1,189.45	89.7512	1,189.45	89.3222	1,189.45	89.1296	1,189.45	88.3348	1,189.45	87.5645	1,189.45	88.8437	1,189.45	85.492	1,189.45	90.0462	1,189.45	82.5975	1,189.45	89.0313	1,189.45	81.0396	1,189.45	84.5375	1,189.45	81.5509	1,189.45	78.9495	1,189.45	80.7712	1,189.45	73.9197	1,189.45	74.4121	1,189.45	70.9573	1,189.45	73.2065	1,189.45	79.903	1,189.45	76.4468	1,189.45	78.9527	1,189.45	74.8781	1,189.45	79.8323	1,189.45	78.0625	1,189.45	79.4515	1,189.45	77.094	1,189.45	80.8216	1,189.45	74.0262	1,189.45	77.1653	1,189.45	71.8109
1,230.47	88.1993	1,230.47	88.8073	1,230.47	88.1406	1,230.47	89.443	1,230.47	88.5464	1,230.47	89.6421	1,230.47	89.801	1,230.47	89.004	1,230.47	90.4595	1,230.47	87.3646	1,230.47	89.2633	1,230.47	85.4435	1,230.47	88.6587	1,230.47	83.6107	1,230.47	89.2079	1,230.47	81.1309	1,230.47	86.2224	1,230.47	77.4253	1,230.47	76.637	1,230.47	76.0709	1,230.47	80.1479	1,230.47	79.0974	1,230.47	70.7308	1,230.47	77.9245	1,230.47	66.0129	1,230.47	69.9242	1,230.47	76.8396	1,230.47	73.3703	1,230.47	81.2466	1,230.47	74.6343	1,230.47	74.8037	1,230.47	75.5817	1,230.47	63.3619	1,230.47	75.915	1,230.47	76.0328	1,230.47	78.0343
1,274.41	88.8252	1,274.41	89.7077	1,274.41	88.5023	1,274.41	89.6748	1,274.41	88.8205	1,274.41	88.867	1,274.41	87.8251	1,274.41	88.1759	1,274.41	86.5836	1,274.41	87.4425	1,274.41	88.7087	1,274.41	85.6477	1,274.41	89.6022	1,274.41	83.5139	1,274.41	87.7732	1,274.41	81.5215	1,274.41	84.4833	1,274.41	79.7383	1,274.41	76.5538	1,274.41	80.6132	1,274.41	75.159	1,274.41	74.7297	1,274.41	78.1738	1,274.41	74.7097	1,274.41	81.0827	1,274.41	77.8126	1,274.41	77.7516	1,274.41	77.3398	1,274.41	81.083	1,274.41	79.0857	1,274.41	77.8695	1,274.41	75.428	1,274.41	75.7133	1,274.41	79.6238	1,274.41	52.4719	1,274.41	73.9175
1,319.82	88.9984	1,319.82	90.028	1,319.82	87.8699	1,319.82	89.7103	1,319.82	88.5036	1,319.82	89.3558	1,319.82	89.1455	1,319.82	88.3706	1,319.82	88.5747	1,319.82	86.4595	1,319.82	87.5045	1,319.82	84.9173	1,319.82	88.0499	1,319.82	83.212	1,319.82	88.4756	1,319.82	80.8384	1,319.82	85.8504	1,319.82	77.5765	1,319.82	78.576	1,319.82	75.8208	1,319.82	73.569	1,319.82	76.3869	1,319.82	77.7808	1,319.82	67.4074	1,319.82	64.2855	1,319.82	75.0447	1,319.82	74.7625	1,319.82	74.4935	1,319.82	79.1391	1,319.82	70.0636	1,319.82	65.5402	1,319.82	75.139	1,319.82	70.5214	1,319.82	74.2187	1,319.82	78.497	1,319.82	77.3558
1,366.7	90.0994	1,366.7	90.4303	1,366.7	88.1949	1,366.7	89.7504	1,366.7	86.965	1,366.7	89.35	1,366.7	86.2307	1,366.7	88.3788	1,366.7	85.702	1,366.7	86.5699	1,366.7	88.7882	1,366.7	84.2748	1,366.7	89.7688	1,366.7	83.5381	1,366.7	87.1417	1,366.7	84.0831	1,366.7	83.4229	1,366.7	82.7202	1,366.7	81.204	1,366.7	80.386	1,366.7	80.271	1,366.7	76.7202	1,366.7	74.3434	1,366.7	62.2424	1,366.7	82.5316	1,366.7	73.2716	1,366.7	74.6602	1,366.7	75.6178	1,366.7	79.8121	1,366.7	77.589	1,366.7	78.4796	1,366.7	80.0402	1,366.7	71.5599	1,366.7	81.1233	1,366.7	76.762	1,366.7	80.5758
1,413.57	89.6272	1,413.57	90.5698	1,413.57	88.1196	1,413.57	90.0163	1,413.57	87.3032	1,413.57	88.9362	1,413.57	87.5197	1,413.57	87.6928	1,413.57	88.1561	1,413.57	86.8108	1,413.57	87.8813	1,413.57	86.1252	1,413.57	87.7701	1,413.57	82.0959	1,413.57	87.2015	1,413.57	76.0241	1,413.57	85.9119	1,413.57	77.7799	1,413.57	81.9051	1,413.57	77.9279	1,413.57	76.4741	1,413.57	68.9596	1,413.57	78.5589	1,413.57	78.5331	1,413.57	58.1192	1,413.57	73.7279	1,413.57	74.4008	1,413.57	74.233	1,413.57	79.8946	1,413.57	74.6992	1,413.57	70.2007	1,413.57	72.0708	1,413.57	75.8782	1,413.57	67.6876	1,413.57	79.8056	1,413.57	73.0367
1,463.38	89.535	1,463.38	88.8857	1,463.38	87.7974	1,463.38	88.5727	1,463.38	85.3384	1,463.38	88.5424	1,463.38	86.1089	1,463.38	87.8348	1,463.38	85.7631	1,463.38	86.2841	1,463.38	85.196	1,463.38	83.9893	1,463.38	87.0346	1,463.38	82.4463	1,463.38	86.46	1,463.38	80.4608	1,463.38	83.5473	1,463.38	74.638	1,463.38	79.5214	1,463.38	76.3352	1,463.38	78.3467	1,463.38	72.0254	1,463.38	79.162	1,463.38	74.6283	1,463.38	79.1523	1,463.38	78.4292	1,463.38	72.4707	1,463.38	76.0234	1,463.38	80.0377	1,463.38	73.8704	1,463.38	78.5466	1,463.38	75.5119	1,463.38	73.9378	1,463.38	80.8098	1,463.38	77.2178	1,463.38	79.8581
1,516.11	88.2725	1,516.11	88.9146	1,516.11	86.8413	1,516.11	88.4241	1,516.11	86.1634	1,516.11	87.1524	1,516.11	86.3881	1,516.11	86.8695	1,516.11	86.931	1,516.11	86.3301	1,516.11	86.4814	1,516.11	84.3183	1,516.11	85.9329	1,516.11	82.4704	1,516.11	86.2703	1,516.11	81.5332	1,516.11	84.7553	1,516.11	76.6558	1,516.11	77.3028	1,516.11	67.5081	1,516.11	78.3936	1,516.11	76.8271	1,516.11	75.1252	1,516.11	74.0808	1,516.11	70.0782	1,516.11	63.759	1,516.11	77.6638	1,516.11	72.5982	1,516.11	78.3846	1,516.11	76.5944	1,516.11	72.8087	1,516.11	75.8718	1,516.11	69.3832	1,516.11	69.2035	1,516.11	78.2388	1,516.11	64.4514
1,568.85	86.667	1,568.85	87.8269	1,568.85	84.6058	1,568.85	86.4875	1,568.85	84.517	1,568.85	86.0574	1,568.85	84.4767	1,568.85	86.1849	1,568.85	84.8585	1,568.85	83.9587	1,568.85	83.8821	1,568.85	82.6173	1,568.85	84.7914	1,568.85	81.1657	1,568.85	84.8999	1,568.85	79.4229	1,568.85	82.7683	1,568.85	80.2767	1,568.85	77.0085	1,568.85	79.1729	1,568.85	73.1004	1,568.85	72.59	1,568.85	79.0418	1,568.85	69.1958	1,568.85	74.3568	1,568.85	72.3679	1,568.85	69.9667	1,568.85	75.0619	1,568.85	68.0106	1,568.85	69.8338	1,568.85	77.9754	1,568.85	63.5188	1,568.85	76.0038	1,568.85	75.5752	1,568.85	72.1642	1,568.85	77.8818
1,624.51	86.7105	1,624.51	86.8072	1,624.51	87.1696	1,624.51	86.0052	1,624.51	86.2154	1,624.51	84.3061	1,624.51	83.3926	1,624.51	83.8501	1,624.51	82.4137	1,624.51	84.2985	1,624.51	81.9349	1,624.51	82.749	1,624.51	82.559	1,624.51	79.4469	1,624.51	84.2165	1,624.51	76.6492	1,624.51	84.1449	1,624.51	71.306	1,624.51	78.1381	1,624.51	67.5993	1,624.51	74.4635	1,624.51	72.6742	1,624.51	69.3582	1,624.51	68.8251	1,624.51	71.3265	1,624.51	71.1027	1,624.51	74.7234	1,624.51	72.7689	1,624.51	76.7979	1,624.51	70.4148	1,624.51	69.8335	1,624.51	74.1659	1,624.51	51.1872	1,624.51	73.4765	1,624.51	69.0193	1,624.51	61.143
1,681.64	88.0784	1,681.64	87.8693	1,681.64	88.6155	1,681.64	85.7367	1,681.64	87.7382	1,681.64	84.4142	1,681.64	84.8803	1,681.64	85.2154	1,681.64	83.476	1,681.64	83.0841	1,681.64	84.2134	1,681.64	80.0753	1,681.64	83.7303	1,681.64	78.8369	1,681.64	84.7463	1,681.64	76.0395	1,681.64	83.7156	1,681.64	71.4465	1,681.64	66.792	1,681.64	57.1014	1,681.64	74.0566	1,681.64	71.2501	1,681.64	71.1821	1,681.64	68.8202	1,681.64	64.9502	1,681.64	70.5461	1,681.64	70.0981	1,681.64	73.6032	1,681.64	70.6177	1,681.64	70.265	1,681.64	66.9098	1,681.64	56.9541	1,681.64	75.7458	1,681.64	74.3998	1,681.64	74.8637	1,681.64	77.2066
1,741.7	89.3452	1,741.7	88.5797	1,741.7	89.09	1,741.7	86.5324	1,741.7	85.2045	1,741.7	84.1061	1,741.7	80.5738	1,741.7	82.4627	1,741.7	77.102	1,741.7	81.0365	1,741.7	81.3641	1,741.7	79.0055	1,741.7	83.5354	1,741.7	78.3475	1,741.7	86.2226	1,741.7	73.6411	1,741.7	82.8177	1,741.7	70.8183	1,741.7	77.6783	1,741.7	65.6937	1,741.7	69.4787	1,741.7	69.7678	1,741.7	69.0743	1,741.7	63.7289	1,741.7	72.1098	1,741.7	71.5509	1,741.7	68.5693	1,741.7	69.8227	1,741.7	66.6984	1,741.7	75.5579	1,741.7	71.7064	1,741.7	77.7596	1,741.7	62.3502	1,741.7	77.7319	1,741.7	68.4198	1,741.7	69.1568
1,803.22	89.7663	1,803.22	88.9493	1,803.22	88.8101	1,803.22	86.2865	1,803.22	85.7075	1,803.22	83.639	1,803.22	77.3241	1,803.22	80.5602	1,803.22	76.5282	1,803.22	77.5765	1,803.22	81.6048	1,803.22	76.8004	1,803.22	84.5152	1,803.22	74.2137	1,803.22	84.3345	1,803.22	74.677	1,803.22	86.3088	1,803.22	74.1311	1,803.22	77.0175	1,803.22	73.901	1,803.22	73.8436	1,803.22	73.4744	1,803.22	69.1188	1,803.22	70.4034	1,803.22	66.7936	1,803.22	63.8138	1,803.22	67.5619	1,803.22	71.5901	1,803.22	55.0247	1,803.22	73.0324	1,803.22	60.2183	1,803.22	68.5754	1,803.22	73.7011	1,803.22	74.6405	1,803.22	73.4187	1,803.22	77.5729
1,866.21	88.9931	1,866.21	88.6699	1,866.21	86.9744	1,866.21	86.951	1,866.21	83.3985	1,866.21	83.0941	1,866.21	77.0352	1,866.21	75.1364	1,866.21	74.6709	1,866.21	74.97	1,866.21	82.1679	1,866.21	75.2583	1,866.21	84.1117	1,866.21	76.2246	1,866.21	86.4786	1,866.21	76.9335	1,866.21	84.5215	1,866.21	73.5908	1,866.21	74.4246	1,866.21	70.1648	1,866.21	76.7538	1,866.21	69.5791	1,866.21	68.5251	1,866.21	69.5828	1,866.21	68.2994	1,866.21	70.8367	1,866.21	61.0173	1,866.21	70.9555	1,866.21	67.8866	1,866.21	74.8094	1,866.21	69.279	1,866.21	76.4228	1,866.21	69.8346	1,866.21	74.6644	1,866.21	69.9125	1,866.21	70.6527
1,932.13	88.6963	1,932.13	89.1454	1,932.13	87.049	1,932.13	87.8945	1,932.13	82.354	1,932.13	83.3099	1,932.13	69.3156	1,932.13	70.7514	1,932.13	76.6002	1,932.13	70.9227	1,932.13	81.3519	1,932.13	76.2139	1,932.13	85.2644	1,932.13	76.7564	1,932.13	85.2028	1,932.13	76.6325	1,932.13	86.4756	1,932.13	74.5137	1,932.13	80.0975	1,932.13	72.7843	1,932.13	72.5886	1,932.13	73.4229	1,932.13	71.248	1,932.13	66.2343	1,932.13	66.6144	1,932.13	66.6426	1,932.13	65.3156	1,932.13	61.2599	1,932.13	61.4723	1,932.13	45.521	1,932.13	55.3452	1,932.13	73.5377	1,932.13	67.208	1,932.13	76.7183	1,932.13	72.184	1,932.13	76.5101
1,999.51	88.5509	1,999.51	88.0955	1,999.51	86.1363	1,999.51	87.1741	1,999.51	79.4316	1,999.51	82.9875	1,999.51	62.2779	1,999.51	71.5377	1,999.51	76.1078	1,999.51	71.7677	1,999.51	83.4509	1,999.51	76.5851	1,999.51	86.5825	1,999.51	77.0334	1,999.51	87.5083	1,999.51	74.5335	1,999.51	86.7465	1,999.51	73.1489	1,999.51	74.4149	1,999.51	73.2122	1,999.51	76.2807	1,999.51	70.9391	1,999.51	68.3015	1,999.51	71.4273	1,999.51	70.2808	1,999.51	68.019	1,999.51	68.4062	1,999.51	71.0591	1,999.51	66.2293	1,999.51	74.6865	1,999.51	68.0271	1,999.51	75.1745	1,999.51	74.4224	1,999.51	73.6807	1,999.51	74.3211	1,999.51	74.4333
2,069.82	89.0066	2,069.82	89.5424	2,069.82	87.5866	2,069.82	87.0471	2,069.82	81.3818	2,069.82	81.2225	2,069.82	70.5793	2,069.82	73.2204	2,069.82	79.2853	2,069.82	75.1157	2,069.82	82.6037	2,069.82	79.0193	2,069.82	86.8763	2,069.82	78.3534	2,069.82	87.8859	2,069.82	78.5443	2,069.82	87.0282	2,069.82	77.7657	2,069.82	84.2676	2,069.82	73.2269	2,069.82	76.7788	2,069.82	71.8062	2,069.82	75.9829	2,069.82	74.1382	2,069.82	69.4356	2,069.82	70.1362	2,069.82	69.9097	2,069.82	68.9631	2,069.82	67.8701	2,069.82	68.7822	2,069.82	67.9418	2,069.82	74.0474	2,069.82	69.0448	2,069.82	76.8336	2,069.82	58.5063	2,069.82	74.1281
2,143.07	89.6688	2,143.07	89.425	2,143.07	87.9136	2,143.07	87.0349	2,143.07	81.1798	2,143.07	81.555	2,143.07	71.2061	2,143.07	71.9385	2,143.07	81.155	2,143.07	76.7603	2,143.07	82.6516	2,143.07	76.6638	2,143.07	86.7829	2,143.07	80.331	2,143.07	87.231	2,143.07	81.5114	2,143.07	89.3953	2,143.07	80.5255	2,143.07	71.451	2,143.07	78.6918	2,143.07	66.5442	2,143.07	75.3976	2,143.07	75.2811	2,143.07	68.6529	2,143.07	67.2426	2,143.07	70.6198	2,143.07	69.9209	2,143.07	64.0643	2,143.07	46.5855	2,143.07	59.7224	2,143.07	54.8188	2,143.07	71.4391	2,143.07	65.6145	2,143.07	73.5724	2,143.07	73.1649	2,143.07	78.1284
2,219.24	89.4128	2,219.24	89.4424	2,219.24	87.2191	2,219.24	86.8453	2,219.24	81.1373	2,219.24	80.6389	2,219.24	71.671	2,219.24	78.4009	2,219.24	82.0919	2,219.24	78.9646	2,219.24	84.2917	2,219.24	82.9846	2,219.24	85.8674	2,219.24	83.1999	2,219.24	89.2652	2,219.24	78.447	2,219.24	86.4585	2,219.24	74.5499	2,219.24	85.5381	2,219.24	73.578	2,219.24	63.8018	2,219.24	74.7478	2,219.24	63.8959	2,219.24	71.1907	2,219.24	73.8566	2,219.24	69.8309	2,219.24	72.5885	2,219.24	65.4707	2,219.24	64.1434	2,219.24	64.4813	2,219.24	67.7692	2,219.24	73.681	2,219.24	70.5752	2,219.24	71.7876	2,219.24	75.348	2,219.24	74.1416
2,296.88	87.4762	2,296.88	89.6791	2,296.88	83.7658	2,296.88	88.1281	2,296.88	79.5727	2,296.88	84.0428	2,296.88	73.4147	2,296.88	79.9517	2,296.88	83.095	2,296.88	82.0925	2,296.88	84.7926	2,296.88	83.6925	2,296.88	87.2862	2,296.88	81.1699	2,296.88	87.5559	2,296.88	80.121	2,296.88	89.6532	2,296.88	80.7554	2,296.88	80.7137	2,296.88	73.427	2,296.88	63.2948	2,296.88	70.6684	2,296.88	76.9469	2,296.88	73.8403	2,296.88	71.9684	2,296.88	67.1869	2,296.88	71.7965	2,296.88	68.7998	2,296.88	58.0628	2,296.88	68.4903	2,296.88	71.1638	2,296.88	69.5075	2,296.88	75.8623	2,296.88	74.8977	2,296.88	67.3831	2,296.88	72.021
2,378.91	88.3316	2,378.91	89.1594	2,378.91	85.8182	2,378.91	86.7947	2,378.91	79.5236	2,378.91	83.2628	2,378.91	79.2378	2,378.91	81.4181	2,378.91	83.8205	2,378.91	84.2262	2,378.91	85.9144	2,378.91	82.8283	2,378.91	86.1963	2,378.91	81.2434	2,378.91	88.7478	2,378.91	82.0725	2,378.91	84.1446	2,378.91	79.869	2,378.91	82.8819	2,378.91	79.3652	2,378.91	73.1721	2,378.91	75.8097	2,378.91	64.3184	2,378.91	70.5129	2,378.91	71.6087	2,378.91	69.7479	2,378.91	73.0658	2,378.91	68.7875	2,378.91	66.6961	2,378.91	67.5372	2,378.91	68.3585	2,378.91	65.2011	2,378.91	72.2565	2,378.91	70.8827	2,378.91	59.0906	2,378.91	76.1004
2,462.4	89.8118	2,462.4	89.7537	2,462.4	86.7306	2,462.4	87.9535	2,462.4	80.738	2,462.4	85.2721	2,462.4	78.8667	2,462.4	83.4657	2,462.4	85.8376	2,462.4	84.1246	2,462.4	85.467	2,462.4	83.2202	2,462.4	87.0972	2,462.4	83.9551	2,462.4	86.5185	2,462.4	80.7906	2,462.4	89.0347	2,462.4	73.9593	2,462.4	82.0748	2,462.4	73.4576	2,462.4	69.8822	2,462.4	74.342	2,462.4	75.554	2,462.4	70.7337	2,462.4	72.5223	2,462.4	67.4845	2,462.4	72.7477	2,462.4	63.0214	2,462.4	68.9437	2,462.4	66.3092	2,462.4	66.743	2,462.4	69.5814	2,462.4	68.6913	2,462.4	71.3751	2,462.4	65.7766	2,462.4	76.566
2,548.83	90.6769	2,548.83	90.3229	2,548.83	88.1637	2,548.83	87.6979	2,548.83	83.4324	2,548.83	83.8648	2,548.83	79.0262	2,548.83	84.8095	2,548.83	84.8967	2,548.83	83.914	2,548.83	86.1945	2,548.83	83.632	2,548.83	86.3188	2,548.83	80.3238	2,548.83	88.6798	2,548.83	77.2332	2,548.83	85.6382	2,548.83	79.1182	2,548.83	78.6808	2,548.83	75.7476	2,548.83	75.5677	2,548.83	71.697	2,548.83	66.8043	2,548.83	65.5507	2,548.83	69.6417	2,548.83	65.8294	2,548.83	71.4223	2,548.83	58.0574	2,548.83	63.3252	2,548.83	59.2026	2,548.83	62.7001	2,548.83	69.7886	2,548.83	69.5972	2,548.83	73.9459	2,548.83	62.4103	2,548.83	72.1988
2,639.65	88.7334	2,639.65	89.2667	2,639.65	87.0891	2,639.65	88.0024	2,639.65	86.0097	2,639.65	85.5376	2,639.65	82.3846	2,639.65	84.869	2,639.65	85.083	2,639.65	85.3912	2,639.65	86.0664	2,639.65	83.1707	2,639.65	87.0773	2,639.65	81.1294	2,639.65	85.8801	2,639.65	82.3531	2,639.65	88.1205	2,639.65	80.0668	2,639.65	80.0527	2,639.65	75.38	2,639.65	73.5509	2,639.65	71.8417	2,639.65	75.8767	2,639.65	70.9637	2,639.65	74.9408	2,639.65	63.524	2,639.65	73.5201	2,639.65	65.1608	2,639.65	69.042	2,639.65	47.1877	2,639.65	68.366	2,639.65	69.6329	2,639.65	68.0199	2,639.65	72.9479	2,639.65	67.3165	2,639.65	69.2987
2,731.93	89.1054	2,731.93	88.836	2,731.93	86.2185	2,731.93	87.2559	2,731.93	84.5386	2,731.93	85.5045	2,731.93	84.3455	2,731.93	85.5947	2,731.93	85.5654	2,731.93	85.1252	2,731.93	86.649	2,731.93	83.1305	2,731.93	86.1051	2,731.93	83.7785	2,731.93	87.9832	2,731.93	78.483	2,731.93	85.1291	2,731.93	74.9349	2,731.93	81.2279	2,731.93	74.5655	2,731.93	61.0248	2,731.93	77.2589	2,731.93	71.3435	2,731.93	59.7431	2,731.93	68.6297	2,731.93	69.4062	2,731.93	72.6127	2,731.93	58.9283	2,731.93	67.9844	2,731.93	65.6635	2,731.93	68.9328	2,731.93	66.8515	2,731.93	68.8244	2,731.93	72.3525	2,731.93	69.8393	2,731.93	71.0432
2,828.61	87.462	2,828.61	88.7047	2,828.61	87.0462	2,828.61	87.3546	2,828.61	85.7003	2,828.61	86.4722	2,828.61	86.0253	2,828.61	85.5442	2,828.61	85.5399	2,828.61	84.2209	2,828.61	85.0616	2,828.61	84.8554	2,828.61	84.9413	2,828.61	80.3486	2,828.61	84.8967	2,828.61	81.1572	2,828.61	86.5279	2,828.61	80.4685	2,828.61	78.9497	2,828.61	72.431	2,828.61	74.9269	2,828.61	70.3643	2,828.61	70.8507	2,828.61	70.6963	2,828.61	70.3122	2,828.61	67.2971	2,828.61	71.961	2,828.61	65.8258	2,828.61	70.8232	2,828.61	64.0825	2,828.61	67.0737	2,828.61	69.9541	2,828.61	69.2689	2,828.61	71.8359	2,828.61	68.2536	2,828.61	72.8499
2,928.22	89.5013	2,928.22	89.5475	2,928.22	87.6123	2,928.22	88.997	2,928.22	86.1391	2,928.22	87.4751	2,928.22	86.0773	2,928.22	86.0289	2,928.22	85.9097	2,928.22	85.3948	2,928.22	84.4375	2,928.22	83.1639	2,928.22	83.3558	2,928.22	82.2005	2,928.22	86.7897	2,928.22	83.0717	2,928.22	82.9742	2,928.22	74.1505	2,928.22	82.326	2,928.22	78.9869	2,928.22	55.314	2,928.22	75.9233	2,928.22	64.5971	2,928.22	63.2399	2,928.22	62.3019	2,928.22	65.5591	2,928.22	71.6031	2,928.22	63.7315	2,928.22	69.5436	2,928.22	57.5991	2,928.22	62.3764	2,928.22	69.0007	2,928.22	67.0443	2,928.22	72.5497	2,928.22	66.1357	2,928.22	71.6866
3,030.76	89.938	3,030.76	90.015	3,030.76	88.6581	3,030.76	88.2313	3,030.76	87.2327	3,030.76	86.6771	3,030.76	86.3292	3,030.76	86.3811	3,030.76	86.3794	3,030.76	86.0829	3,030.76	84.1389	3,030.76	84.191	3,030.76	83.4796	3,030.76	83.1745	3,030.76	84.3013	3,030.76	76.1169	3,030.76	86.2507	3,030.76	79.5006	3,030.76	77.9094	3,030.76	65.0109	3,030.76	62.9631	3,030.76	73.8581	3,030.76	73.4023	3,030.76	66.3968	3,030.76	71.3873	3,030.76	65.7481	3,030.76	70.8362	3,030.76	65.6844	3,030.76	72.0302	3,030.76	58.2202	3,030.76	65.7278	3,030.76	71.1161	3,030.76	65.0374	3,030.76	71.049	3,030.76	56.9479	3,030.76	73.1968
3,137.7	89.1096	3,137.7	89.2677	3,137.7	87.9396	3,137.7	89.1762	3,137.7	87.3839	3,137.7	87.2591	3,137.7	87.0246	3,137.7	86.2836	3,137.7	85.4888	3,137.7	85.5843	3,137.7	84.6029	3,137.7	85.0855	3,137.7	80.6374	3,137.7	80.561	3,137.7	84.8146	3,137.7	83.418	3,137.7	84.7801	3,137.7	77.8172	3,137.7	82.986	3,137.7	79.2918	3,137.7	68.5965	3,137.7	73.4259	3,137.7	67.7753	3,137.7	65.6355	3,137.7	64.0414	3,137.7	58.0863	3,137.7	71.9441	3,137.7	59.28	3,137.7	71.3709	3,137.7	56.7964	3,137.7	59.9025	3,137.7	70.4861	3,137.7	67.3	3,137.7	70.3996	3,137.7	56.787	3,137.7	66.8769
3,249.02	89.1337	3,249.02	89.8813	3,249.02	88.6285	3,249.02	89.1974	3,249.02	89.0702	3,249.02	87.4773	3,249.02	88.7261	3,249.02	86.9753	3,249.02	84.8113	3,249.02	86.2835	3,249.02	84.4551	3,249.02	84.4045	3,249.02	78.7615	3,249.02	83.7233	3,249.02	83.2531	3,249.02	76.9443	3,249.02	84.1206	3,249.02	76.8309	3,249.02	72.593	3,249.02	69.5239	3,249.02	61.5728	3,249.02	71.2849	3,249.02	67.4614	3,249.02	66.373	3,249.02	66.0856	3,249.02	55.7514	3,249.02	71.7142	3,249.02	58.5958	3,249.02	71.8543	3,249.02	51.9611	3,249.02	56.9761	3,249.02	68.1766	3,249.02	70.4265	3,249.02	70.2583	3,249.02	65.9503	3,249.02	69.2468
3,363.28	88.6464	3,363.28	88.4388	3,363.28	88.3855	3,363.28	88.1814	3,363.28	88.0896	3,363.28	86.9407	3,363.28	88.3008	3,363.28	87.0963	3,363.28	85.2182	3,363.28	85.6459	3,363.28	82.6038	3,363.28	85.1591	3,363.28	81.4906	3,363.28	78.4054	3,363.28	81.8575	3,363.28	81.7064	3,363.28	82.7445	3,363.28	78.9627	3,363.28	74.7618	3,363.28	76.0861	3,363.28	59.7955	3,363.28	69.5872	3,363.28	62.0316	3,363.28	70.7722	3,363.28	69.4804	3,363.28	52.2006	3,363.28	71.786	3,363.28	48.8794	3,363.28	68.3689	3,363.28	62.3683	3,363.28	59.8166	3,363.28	69.4995	3,363.28	70.6127	3,363.28	70.401	3,363.28	67.5763	3,363.28	65.1991
3,481.93	88.6709	3,481.93	89.7179	3,481.93	88.4523	3,481.93	88.4812	3,481.93	88.6472	3,481.93	87.0004	3,481.93	88.6908	3,481.93	87.1734	3,481.93	85.217	3,481.93	86.5297	3,481.93	82.5376	3,481.93	83.3303	3,481.93	78.6347	3,481.93	83.5576	3,481.93	79.3552	3,481.93	77.5362	3,481.93	79.8936	3,481.93	73.6863	3,481.93	72.939	3,481.93	73.2559	3,481.93	65.2097	3,481.93	72.4852	3,481.93	64.2698	3,481.93	69.7623	3,481.93	63.2682	3,481.93	59.329	3,481.93	68.1946	3,481.93	65.5309	3,481.93	70.5509	3,481.93	62.5125	3,481.93	60.8459	3,481.93	64.7128	3,481.93	69.533	3,481.93	70.3737	3,481.93	67.7762	3,481.93	66.1869
3,604.98	88.7931	3,604.98	90.3585	3,604.98	87.8713	3,604.98	88.7541	3,604.98	88.6466	3,604.98	87.6745	3,604.98	88.8576	3,604.98	87.2129	3,604.98	85.3205	3,604.98	86.1325	3,604.98	82.8967	3,604.98	84.4246	3,604.98	80.0109	3,604.98	80.4287	3,604.98	79.5551	3,604.98	80.4541	3,604.98	80.939	3,604.98	79.0987	3,604.98	73.9527	3,604.98	72.8142	3,604.98	54.696	3,604.98	71.9722	3,604.98	69.1043	3,604.98	67.1865	3,604.98	68.0727	3,604.98	68.5271	3,604.98	68.2844	3,604.98	63.4734	3,604.98	71.5141	3,604.98	64.5806	3,604.98	64.0889	3,604.98	63.1425	3,604.98	63.945	3,604.98	68.2733	3,604.98	68.8332	3,604.98	64.7237
3,732.42	89.5373	3,732.42	90.0377	3,732.42	88.5355	3,732.42	88.6744	3,732.42	88.3691	3,732.42	88.0362	3,732.42	87.6522	3,732.42	87.5038	3,732.42	84.9377	3,732.42	85.71	3,732.42	83.4791	3,732.42	83.1277	3,732.42	80.9557	3,732.42	81.6306	3,732.42	78.267	3,732.42	76.3316	3,732.42	84.1112	3,732.42	70.4612	3,732.42	77.1287	3,732.42	70.4858	3,732.42	63.6892	3,732.42	70.5165	3,732.42	60.7964	3,732.42	66.7546	3,732.42	64.0163	3,732.42	64.129	3,732.42	67.8228	3,732.42	60.0215	3,732.42	70.7298	3,732.42	65.4008	3,732.42	62.6352	3,732.42	69.027	3,732.42	68.6979	3,732.42	67.2413	3,732.42	66.723	3,732.42	61.7628
3,864.26	88.6252	3,864.26	88.5378	3,864.26	88.4062	3,864.26	87.6052	3,864.26	89.5688	3,864.26	88.3594	3,864.26	88.0979	3,864.26	87.8176	3,864.26	86.0266	3,864.26	85.6968	3,864.26	81.4657	3,864.26	83.3159	3,864.26	82.2934	3,864.26	79.73	3,864.26	78.6255	3,864.26	79.7772	3,864.26	84.3402	3,864.26	79.2728	3,864.26	78.7065	3,864.26	73.8635	3,864.26	55.8789	3,864.26	63.8447	3,864.26	60.439	3,864.26	68.3638	3,864.26	61.9516	3,864.26	58.6832	3,864.26	67.2064	3,864.26	64.0097	3,864.26	71.9069	3,864.26	65.8668	3,864.26	56.0841	3,864.26	69.5574	3,864.26	69.2186	3,864.26	69.6772	3,864.26	68.5977	3,864.26	54.9802
4,000.49	88.6153	4,000.49	89.2529	4,000.49	86.8049	4,000.49	88.3583	4,000.49	88.9483	4,000.49	87.297	4,000.49	88.8482	4,000.49	86.9156	4,000.49	85.3383	4,000.49	85.524	4,000.49	83.2724	4,000.49	82.1671	4,000.49	82.1394	4,000.49	81.0998	4,000.49	79.9227	4,000.49	76.4054	4,000.49	83.9016	4,000.49	74.7462	4,000.49	80.8647	4,000.49	67.5545	4,000.49	63.3732	4,000.49	72.3007	4,000.49	67.2438	4,000.49	62.1416	4,000.49	65.9082	4,000.49	64.941	4,000.49	68.1034	4,000.49	69.265	4,000.49	68.1495	4,000.49	61.0619	4,000.49	63.0561	4,000.49	73.2974	4,000.49	68.0678	4,000.49	72.7152	4,000.49	62.8834	4,000.49	58.6787
4,141.11	88.2373	4,141.11	88.6235	4,141.11	86.7628	4,141.11	88.7526	4,141.11	88.2341	4,141.11	88.7745	4,141.11	88.4767	4,141.11	86.6358	4,141.11	85.6423	4,141.11	85.5591	4,141.11	82.3406	4,141.11	83.4956	4,141.11	83.2988	4,141.11	80.9648	4,141.11	80.1638	4,141.11	81.2426	4,141.11	85.7216	4,141.11	78.1676	4,141.11	77.6576	4,141.11	75.6816	4,141.11	66.9127	4,141.11	68.9077	4,141.11	69.1428	4,141.11	72.2699	4,141.11	65.9052	4,141.11	62.9405	4,141.11	64.4061	4,141.11	65.4275	4,141.11	69.0222	4,141.11	56.7079	4,141.11	62.0152	4,141.11	71.9685	4,141.11	66.872	4,141.11	72.6133	4,141.11	65.4551	4,141.11	56.0031
4,287.6	89.1396	4,287.6	89.012	4,287.6	87.8689	4,287.6	87.4534	4,287.6	87.8791	4,287.6	87.1972	4,287.6	87.9419	4,287.6	86.8246	4,287.6	86.1649	4,287.6	84.3678	4,287.6	82.2131	4,287.6	83.4982	4,287.6	82.7821	4,287.6	82.9225	4,287.6	82.3915	4,287.6	76.4393	4,287.6	86.0278	4,287.6	76.0633	4,287.6	77.1933	4,287.6	70.6702	4,287.6	66.4823	4,287.6	72.1939	4,287.6	60.7066	4,287.6	69.1495	4,287.6	65.7561	4,287.6	56.7837	4,287.6	67.7994	4,287.6	64.4566	4,287.6	70.3747	4,287.6	69.8208	4,287.6	66.3983	4,287.6	53.5838	4,287.6	55.2969	4,287.6	69.6197	4,287.6	67.2042	4,287.6	57.0837
4,438.48	89.114	4,438.48	88.9436	4,438.48	87.4325	4,438.48	88.5602	4,438.48	87.6502	4,438.48	86.7364	4,438.48	87.0618	4,438.48	86.476	4,438.48	86.3722	4,438.48	85.4421	4,438.48	83.8176	4,438.48	83.6953	4,438.48	82.4298	4,438.48	81.0284	4,438.48	81.4974	4,438.48	78.7186	4,438.48	84.7869	4,438.48	74.3281	4,438.48	75.1716	4,438.48	71.0376	4,438.48	70.632	4,438.48	58.7562	4,438.48	63.779	4,438.48	57.724	4,438.48	68.7664	4,438.48	55.3331	4,438.48	65.5819	4,438.48	63.98	4,438.48	64.4143	4,438.48	66.6539	4,438.48	61.9242	4,438.48	55.3734	4,438.48	67.4356	4,438.48	72.4513	4,438.48	64.4582	4,438.48	63.0861
4,595.21	88.4704	4,595.21	88.1471	4,595.21	87.5346	4,595.21	87.0192	4,595.21	87.7408	4,595.21	87.0642	4,595.21	86.8132	4,595.21	85.3662	4,595.21	85.5678	4,595.21	85.2213	4,595.21	84.0052	4,595.21	83.1243	4,595.21	84.6202	4,595.21	79.6223	4,595.21	80.6374	4,595.21	77.9627	4,595.21	82.694	4,595.21	75.9772	4,595.21	73.6984	4,595.21	73.799	4,595.21	56.9631	4,595.21	69.6754	4,595.21	55.6045	4,595.21	67.8177	4,595.21	62.7255	4,595.21	66.4498	4,595.21	65.1815	4,595.21	56.6836	4,595.21	68.6764	4,595.21	55.877	4,595.21	63.5658	4,595.21	73.0611	4,595.21	62.9178	4,595.21	61.7402	4,595.21	66.6713	4,595.21	57.5976
4,756.35	89.6878	4,756.35	89.5746	4,756.35	87.6891	4,756.35	87.7667	4,756.35	87	4,756.35	86.8588	4,756.35	87.0287	4,756.35	86.0916	4,756.35	84.1689	4,756.35	85.4667	4,756.35	83.2079	4,756.35	82.2024	4,756.35	81.2535	4,756.35	80.5215	4,756.35	78.5354	4,756.35	76.0794	4,756.35	76.7808	4,756.35	74.3227	4,756.35	71.1747	4,756.35	68.5815	4,756.35	68.5129	4,756.35	66.9993	4,756.35	66.4271	4,756.35	68.6144	4,756.35	70.3316	4,756.35	62.6012	4,756.35	69.407	4,756.35	68.1107	4,756.35	67.2717	4,756.35	60.4663	4,756.35	60.9423	4,756.35	71.0707	4,756.35	59.9682	4,756.35	68.981	4,756.35	67.6119	4,756.35	60.5625
4,924.8	89.5576	4,924.8	89.5747	4,924.8	88.9545	4,924.8	87.7308	4,924.8	86.7669	4,924.8	86.7863	4,924.8	86.2771	4,924.8	86.2597	4,924.8	85.1318	4,924.8	84.132	4,924.8	82.8855	4,924.8	82.1904	4,924.8	81.6055	4,924.8	79.7314	4,924.8	77.6122	4,924.8	77.7027	4,924.8	77.8278	4,924.8	74.5833	4,924.8	66.9171	4,924.8	71.4352	4,924.8	68.2702	4,924.8	67.3047	4,924.8	58.3826	4,924.8	69.3961	4,924.8	55.0553	4,924.8	66.6354	4,924.8	62.0146	4,924.8	64.5536	4,924.8	65.8521	4,924.8	53.6208	4,924.8	67.5072	4,924.8	71.0353	4,924.8	64.8686	4,924.8	68.5382	4,924.8	64.1008	4,924.8	53.6445
5,097.66	89.9528	5,097.66	89.2975	5,097.66	89.2737	5,097.66	87.7921	5,097.66	87.8882	5,097.66	86.679	5,097.66	86.0814	5,097.66	85.6819	5,097.66	84.7767	5,097.66	84.1928	5,097.66	82.0956	5,097.66	82.2678	5,097.66	82.5222	5,097.66	80.0305	5,097.66	75.3724	5,097.66	78.0043	5,097.66	77.1187	5,097.66	73.0384	5,097.66	74.5824	5,097.66	70.1342	5,097.66	68.0693	5,097.66	64.9755	5,097.66	65.5638	5,097.66	51.3594	5,097.66	64.3983	5,097.66	68.0755	5,097.66	65.225	5,097.66	69.097	5,097.66	60.2255	5,097.66	53.8472	5,097.66	60.7502	5,097.66	59.7523	5,097.66	62.9597	5,097.66	72.0707	5,097.66	64.6764	5,097.66	65.3401
5,277.83	89.6086	5,277.83	90.3717	5,277.83	88.6825	5,277.83	87.7284	5,277.83	87.6046	5,277.83	86.7425	5,277.83	86.6023	5,277.83	86.0876	5,277.83	83.9893	5,277.83	83.3273	5,277.83	82.8042	5,277.83	82.1446	5,277.83	82.349	5,277.83	79.2968	5,277.83	78.621	5,277.83	75.5305	5,277.83	77.668	5,277.83	72.2593	5,277.83	74.432	5,277.83	70.9359	5,277.83	65.9389	5,277.83	67.293	5,277.83	65.5642	5,277.83	63.3108	5,277.83	68.3157	5,277.83	59.8314	5,277.83	66.4544	5,277.83	62.9512	5,277.83	64.1999	5,277.83	58.8644	5,277.83	59.4913	5,277.83	64.2569	5,277.83	54.4516	5,277.83	67.4758	5,277.83	63.8874	5,277.83	63.4054
5,463.87	90.394	5,463.87	90.0647	5,463.87	89.2184	5,463.87	88.5313	5,463.87	87.1957	5,463.87	87.2927	5,463.87	86.7877	5,463.87	84.9655	5,463.87	84.7766	5,463.87	83.8625	5,463.87	80.7059	5,463.87	81.9379	5,463.87	81.2995	5,463.87	79.4037	5,463.87	77.7337	5,463.87	76.6393	5,463.87	75.6522	5,463.87	73.4157	5,463.87	71.6766	5,463.87	71.6291	5,463.87	65.0139	5,463.87	66.9369	5,463.87	51.8889	5,463.87	62.303	5,463.87	58.5683	5,463.87	61.323	5,463.87	62.5678	5,463.87	49.2022	5,463.87	58.5212	5,463.87	57.5958	5,463.87	61.619	5,463.87	68.7096	5,463.87	64.6661	5,463.87	56.8537	5,463.87	60.1446	5,463.87	54.5376
5,657.23	89.8866	5,657.23	90.3906	5,657.23	89.1054	5,657.23	87.7305	5,657.23	87.7238	5,657.23	87.3055	5,657.23	85.8512	5,657.23	85.1254	5,657.23	85.882	5,657.23	84.4383	5,657.23	80.0545	5,657.23	81.3472	5,657.23	80.9811	5,657.23	79.4234	5,657.23	77.6134	5,657.23	75.9591	5,657.23	76.4874	5,657.23	72.2075	5,657.23	65.4492	5,657.23	70.6282	5,657.23	65.2762	5,657.23	67.54	5,657.23	64.4594	5,657.23	59.6953	5,657.23	63.363	5,657.23	68.6945	5,657.23	62.4144	5,657.23	61.2767	5,657.23	51.4913	5,657.23	57.5082	5,657.23	59.4141	5,657.23	66.4214	5,657.23	64.1076	5,657.23	61.5742	5,657.23	61.966	5,657.23	61.2667
5,856.45	89.2858	5,856.45	89.8188	5,856.45	88.4546	5,856.45	88.2901	5,856.45	88.0474	5,856.45	86.6613	5,856.45	86.0177	5,856.45	84.8685	5,856.45	85.6931	5,856.45	84.0154	5,856.45	81.7493	5,856.45	82.3965	5,856.45	82.2223	5,856.45	79.1596	5,856.45	76.9598	5,856.45	75.5803	5,856.45	78.9683	5,856.45	70.9298	5,856.45	66.7042	5,856.45	72.4463	5,856.45	64.3983	5,856.45	65.7822	5,856.45	51.7576	5,856.45	63.4576	5,856.45	60.5187	5,856.45	69.2255	5,856.45	60.4384	5,856.45	64.8698	5,856.45	48.2295	5,856.45	57.4937	5,856.45	48.6347	5,856.45	62.7195	5,856.45	55.7915	5,856.45	62.2237	5,856.45	62.0319	5,856.45	58.6516
6,062.99	89.813	6,062.99	89.8821	6,062.99	88.4199	6,062.99	87.881	6,062.99	87.876	6,062.99	86.0473	6,062.99	86.5709	6,062.99	85.1685	6,062.99	85.6074	6,062.99	84.4643	6,062.99	82.2825	6,062.99	82.2756	6,062.99	80.3362	6,062.99	79.4098	6,062.99	77.649	6,062.99	76.4534	6,062.99	79.843	6,062.99	72.1904	6,062.99	73.3347	6,062.99	70.0608	6,062.99	64.8218	6,062.99	61.2992	6,062.99	51.9355	6,062.99	62.979	6,062.99	64.9318	6,062.99	69.1407	6,062.99	65.0909	6,062.99	67.523	6,062.99	63.6042	6,062.99	60.8801	6,062.99	60.0394	6,062.99	61.2423	6,062.99	48.7739	6,062.99	66.3925	6,062.99	65.119	6,062.99	51.589
6,276.86	88.8817	6,276.86	89.1967	6,276.86	88.1048	6,276.86	88.3095	6,276.86	88.148	6,276.86	85.8821	6,276.86	85.5703	6,276.86	85.993	6,276.86	85.3719	6,276.86	84.8578	6,276.86	81.7838	6,276.86	82.7267	6,276.86	80.5375	6,276.86	79.7751	6,276.86	77.9826	6,276.86	77.386	6,276.86	80.2548	6,276.86	74.2367	6,276.86	73.7373	6,276.86	71.4675	6,276.86	58.1028	6,276.86	62.314	6,276.86	52.9937	6,276.86	66.7577	6,276.86	61.4123	6,276.86	67.8603	6,276.86	63.8352	6,276.86	64.9635	6,276.86	64.3805	6,276.86	66.0824	6,276.86	60.356	6,276.86	65.2945	6,276.86	47.7245	6,276.86	57.897	6,276.86	61.9049	6,276.86	46.6725
6,498.05	88.2257	6,498.05	89.0157	6,498.05	87.2811	6,498.05	87.3976	6,498.05	87.9751	6,498.05	85.9384	6,498.05	85.1311	6,498.05	85.7321	6,498.05	85.3716	6,498.05	85.0264	6,498.05	82.5768	6,498.05	82.7097	6,498.05	80.3124	6,498.05	80.4761	6,498.05	80.3249	6,498.05	77.2619	6,498.05	77.8112	6,498.05	74.3352	6,498.05	67.494	6,498.05	67.9084	6,498.05	39.1297	6,498.05	64.2013	6,498.05	59.2378	6,498.05	68.0972	6,498.05	63.2775	6,498.05	68.8423	6,498.05	58.0903	6,498.05	59.5884	6,498.05	64.4184	6,498.05	61.1432	6,498.05	58.8394	6,498.05	66.8898	6,498.05	44.2005	6,498.05	56.7562	6,498.05	58.6241	6,498.05	42.6068
6,726.56	88.3749	6,726.56	88.2998	6,726.56	87.9403	6,726.56	86.6784	6,726.56	87.1095	6,726.56	86.4279	6,726.56	85.1683	6,726.56	85.7466	6,726.56	85.2342	6,726.56	84.906	6,726.56	83.3904	6,726.56	83.0418	6,726.56	80.2926	6,726.56	80.1599	6,726.56	79.504	6,726.56	76.0821	6,726.56	76.0383	6,726.56	74.9854	6,726.56	70.4871	6,726.56	69.0149	6,726.56	58.9228	6,726.56	64.0317	6,726.56	50.0547	6,726.56	63.8513	6,726.56	61.2298	6,726.56	71.5096	6,726.56	52.5114	6,726.56	61.5118	6,726.56	59.0489	6,726.56	60.1007	6,726.56	56.7563	6,726.56	68.4043	6,726.56	51.9189	6,726.56	60.6373	6,726.56	59.4962	6,726.56	51.7178
6,963.87	86.7362	6,963.87	87.7189	6,963.87	87.6279	6,963.87	86.2542	6,963.87	87.3847	6,963.87	86.4287	6,963.87	85.1142	6,963.87	85.819	6,963.87	85.6008	6,963.87	84.7829	6,963.87	82.8432	6,963.87	82.8051	6,963.87	77.6439	6,963.87	79.9884	6,963.87	78.1091	6,963.87	76.1469	6,963.87	69.9011	6,963.87	71.4558	6,963.87	63.8949	6,963.87	69.9416	6,963.87	57.1217	6,963.87	55.803	6,963.87	60.1879	6,963.87	46.8973	6,963.87	59.2232	6,963.87	70.6683	6,963.87	55.272	6,963.87	62.8204	6,963.87	58.7108	6,963.87	60.703	6,963.87	49.147	6,963.87	65.8997	6,963.87	59.3379	6,963.87	55.1898	6,963.87	54.3643	6,963.87	56.2637
7,209.96	87.6233	7,209.96	87.2007	7,209.96	87.8639	7,209.96	86.545	7,209.96	87.0696	7,209.96	86.3139	7,209.96	86.0251	7,209.96	85.7884	7,209.96	84.9174	7,209.96	84.3672	7,209.96	82.5411	7,209.96	82.5207	7,209.96	75.8838	7,209.96	78.4672	7,209.96	77.5323	7,209.96	73.2082	7,209.96	59.4276	7,209.96	69.6859	7,209.96	67.5117	7,209.96	67.5878	7,209.96	55.4588	7,209.96	65.2491	7,209.96	62.2408	7,209.96	60.9975	7,209.96	54.4348	7,209.96	70.4244	7,209.96	51.5371	7,209.96	58.5366	7,209.96	55.5753	7,209.96	52.1919	7,209.96	56.9046	7,209.96	60.4205	7,209.96	57.0685	7,209.96	59.2091	7,209.96	49.0846	7,209.96	47.0405
7,464.84	87.4067	7,464.84	87.2426	7,464.84	88.5897	7,464.84	87.0145	7,464.84	87.3614	7,464.84	86.6983	7,464.84	86.1378	7,464.84	86.0691	7,464.84	84.6003	7,464.84	83.9427	7,464.84	82.7008	7,464.84	81.7493	7,464.84	75.6232	7,464.84	76.662	7,464.84	70.5933	7,464.84	73.2014	7,464.84	71.644	7,464.84	68.1583	7,464.84	71.3059	7,464.84	66.563	7,464.84	57.9604	7,464.84	64.7423	7,464.84	51.8523	7,464.84	68.1572	7,464.84	57.7878	7,464.84	69.8661	7,464.84	53.1177	7,464.84	64.0351	7,464.84	59.7845	7,464.84	53.7567	7,464.84	60.7333	7,464.84	63.8769	7,464.84	52.405	7,464.84	63.1715	7,464.84	44.7626	7,464.84	57.2746
7,727.05	87.778	7,727.05	87.1374	7,727.05	88.0466	7,727.05	87.7051	7,727.05	87.7605	7,727.05	86.8892	7,727.05	86.4783	7,727.05	85.7735	7,727.05	84.5121	7,727.05	83.7729	7,727.05	81.6008	7,727.05	80.3777	7,727.05	75.9877	7,727.05	76.4094	7,727.05	74.9636	7,727.05	70.6228	7,727.05	73.8958	7,727.05	69.0845	7,727.05	62.219	7,727.05	64.2532	7,727.05	61.0669	7,727.05	59.5235	7,727.05	62.713	7,727.05	50.4835	7,727.05	57.5491	7,727.05	69.2219	7,727.05	50.0672	7,727.05	63.7891	7,727.05	55.1133	7,727.05	62.937	7,727.05	58.8767	7,727.05	64.3124	7,727.05	44.8119	7,727.05	56.1508	7,727.05	50.2416	7,727.05	56.2945
7,999.51	87.8875	7,999.51	87.1803	7,999.51	87.9594	7,999.51	88.0756	7,999.51	87.9302	7,999.51	87.0296	7,999.51	86.6867	7,999.51	85.8943	7,999.51	84.9849	7,999.51	83.0992	7,999.51	81.2665	7,999.51	79.6361	7,999.51	78.303	7,999.51	75.2064	7,999.51	76.565	7,999.51	71.9553	7,999.51	78.0543	7,999.51	63.7693	7,999.51	44.7564	7,999.51	68.8995	7,999.51	48.0415	7,999.51	64.3721	7,999.51	56.897	7,999.51	59.8551	7,999.51	52.4382	7,999.51	68.5134	7,999.51	48.7484	7,999.51	62.0887	7,999.51	46.2837	7,999.51	65.6108	7,999.51	52.7721	7,999.51	68.2127	7,999.51	44.8428	7,999.51	57.5316	7,999.51	57.0486	7,999.51	57.4015
8,282.23	88.0415	8,282.23	87.673	8,282.23	87.9329	8,282.23	88.7771	8,282.23	88.2099	8,282.23	87.3001	8,282.23	86.767	8,282.23	85.4088	8,282.23	84.4448	8,282.23	83.0684	8,282.23	80.7941	8,282.23	79.3159	8,282.23	77.6733	8,282.23	75.7721	8,282.23	77.7163	8,282.23	72.0054	8,282.23	75.5736	8,282.23	70.3246	8,282.23	63.7022	8,282.23	64.2703	8,282.23	56.1265	8,282.23	65.6324	8,282.23	57.516	8,282.23	49.9213	8,282.23	54.6237	8,282.23	71.9448	8,282.23	43.6507	8,282.23	66.0471	8,282.23	54.9335	8,282.23	41.6562	8,282.23	44.0005	8,282.23	68.3933	8,282.23	51.0383	8,282.23	60.8126	8,282.23	58.2535	8,282.23	53.2265
8,573.73	88.1211	8,573.73	87.8999	8,573.73	88.2727	8,573.73	88.4902	8,573.73	88.1095	8,573.73	87.1872	8,573.73	86.7584	8,573.73	85.7288	8,573.73	83.9687	8,573.73	82.0764	8,573.73	81.5416	8,573.73	79.531	8,573.73	77.6911	8,573.73	77.0067	8,573.73	76.7355	8,573.73	72.9239	8,573.73	69.4882	8,573.73	68.7522	8,573.73	61.1443	8,573.73	66.0609	8,573.73	60.6853	8,573.73	66.0379	8,573.73	60.9767	8,573.73	53.542	8,573.73	57.4134	8,573.73	68.1427	8,573.73	43.1104	8,573.73	66.6849	8,573.73	44.1347	8,573.73	63.4916	8,573.73	58.8337	8,573.73	56.5882	8,573.73	51.67	8,573.73	59.7253	8,573.73	55.9815	8,573.73	54.4161
8,876.95	88.0668	8,876.95	88.3305	8,876.95	87.9568	8,876.95	88.5024	8,876.95	88.3755	8,876.95	87.3486	8,876.95	86.3233	8,876.95	85.0568	8,876.95	83.9202	8,876.95	81.9302	8,876.95	81.4867	8,876.95	79.8674	8,876.95	77.6526	8,876.95	76.7703	8,876.95	73.7176	8,876.95	73.1935	8,876.95	71.746	8,876.95	68.7889	8,876.95	56.3639	8,876.95	69.581	8,876.95	53.2085	8,876.95	60.3501	8,876.95	56.8474	8,876.95	60.1735	8,876.95	54.5507	8,876.95	63.2354	8,876.95	48.2856	8,876.95	64.0633	8,876.95	56.3476	8,876.95	59.9607	8,876.95	56.4639	8,876.95	71.9155	8,876.95	54.971	8,876.95	58.1237	8,876.95	53.2193	8,876.95	55.9793
9,188.96	88.1329	9,188.96	88.5827	9,188.96	88.6094	9,188.96	88.0987	9,188.96	88.1119	9,188.96	87.0882	9,188.96	86.2956	9,188.96	84.6621	9,188.96	83.0421	9,188.96	81.4899	9,188.96	81.4368	9,188.96	79.2503	9,188.96	77.2793	9,188.96	77.0121	9,188.96	71.6589	9,188.96	73.2037	9,188.96	68.9361	9,188.96	69.7214	9,188.96	63.8849	9,188.96	67.7452	9,188.96	62.7093	9,188.96	62.7957	9,188.96	61.9045	9,188.96	45.7743	9,188.96	58.9055	9,188.96	71.4848	9,188.96	53.9911	9,188.96	66.8563	9,188.96	55.7005	9,188.96	53.642	9,188.96	47.1519	9,188.96	66.1877	9,188.96	53.9918	9,188.96	63.9581	9,188.96	59.4752	9,188.96	56.1142
9,514.16	88.765	9,514.16	88.7472	9,514.16	88.4538	9,514.16	88.3275	9,514.16	88.2807	9,514.16	86.7736	9,514.16	86.0935	9,514.16	84.4818	9,514.16	83.3147	9,514.16	81.2548	9,514.16	81.2302	9,514.16	79.9547	9,514.16	77.6011	9,514.16	77.0937	9,514.16	70.7615	9,514.16	73.2814	9,514.16	68.8192	9,514.16	68.9123	9,514.16	54.2376	9,514.16	61.9547	9,514.16	56.6824	9,514.16	64.4574	9,514.16	48.3336	9,514.16	61.669	9,514.16	51.4896	9,514.16	69.1507	9,514.16	45.8232	9,514.16	69.5097	9,514.16	50.91	9,514.16	60.4268	9,514.16	46.1696	9,514.16	67.164	9,514.16	59.5661	9,514.16	59.0305	9,514.16	52.4666	9,514.16	62.2025
9,849.61	88.9265	9,849.61	88.8437	9,849.61	88.8746	9,849.61	88.2337	9,849.61	88.0264	9,849.61	86.651	9,849.61	85.9448	9,849.61	83.8427	9,849.61	83.5748	9,849.61	81.4391	9,849.61	80.4995	9,849.61	79.196	9,849.61	76.5401	9,849.61	76.6654	9,849.61	71.1173	9,849.61	70.1938	9,849.61	71.4696	9,849.61	65.3313	9,849.61	61.2011	9,849.61	59.0541	9,849.61	52.4052	9,849.61	63.0084	9,849.61	45.7501	9,849.61	61.0273	9,849.61	51.1421	9,849.61	60.1084	9,849.61	3.73858	9,849.61	67.6139	9,849.61	52.0912	9,849.61	60.4623	9,849.61	55.7749	9,849.61	70.3285	9,849.61	55.4965	9,849.61	61.5104	9,849.61	54.1303	9,849.61	58.8103
10,196.8	89.2351	10,196.8	89.3944	10,196.8	89.0179	10,196.8	88.209	10,196.8	87.8991	10,196.8	86.6249	10,196.8	86.0247	10,196.8	83.6369	10,196.8	83.0902	10,196.8	81.3399	10,196.8	80.3745	10,196.8	79.1303	10,196.8	76.5126	10,196.8	74.6587	10,196.8	72.5998	10,196.8	69.5592	10,196.8	69.2687	10,196.8	67.3456	10,196.8	44.8317	10,196.8	62.6208	10,196.8	53.4444	10,196.8	47.4164	10,196.8	55.101	10,196.8	53.8484	10,196.8	53.9153	10,196.8	69.6695	10,196.8	41.1108	10,196.8	70.7444	10,196.8	56.6877	10,196.8	60.1407	10,196.8	47.6124	10,196.8	61.9083	10,196.8	50.654	10,196.8	53.6302	10,196.8	51.6503	10,196.8	61.9299
10,555.7	89.2483	10,555.7	89.3653	10,555.7	88.8932	10,555.7	88.3406	10,555.7	87.8054	10,555.7	86.082	10,555.7	85.7463	10,555.7	83.632	10,555.7	83.1298	10,555.7	81.2165	10,555.7	79.4984	10,555.7	78.7802	10,555.7	74.7828	10,555.7	73.4289	10,555.7	70.3816	10,555.7	67.9729	10,555.7	69.7698	10,555.7	63.0541	10,555.7	55.846	10,555.7	60.5735	10,555.7	48.1613	10,555.7	48.1517	10,555.7	51.4358	10,555.7	53.0002	10,555.7	58.4254	10,555.7	65.2691	10,555.7	52.5658	10,555.7	71.6591	10,555.7	52.9385	10,555.7	61.6474	10,555.7	40.147	10,555.7	70.4978	10,555.7	45.8355	10,555.7	65.1997	10,555.7	52.9822	10,555.7	54.9337
10,927.7	89.4684	10,927.7	89.3988	10,927.7	88.9765	10,927.7	88.299	10,927.7	87.405	10,927.7	86.2578	10,927.7	85.528	10,927.7	83.8531	10,927.7	82.7827	10,927.7	81.2925	10,927.7	78.8316	10,927.7	77.7474	10,927.7	75.4011	10,927.7	72.4766	10,927.7	70.8984	10,927.7	69.0987	10,927.7	63.0771	10,927.7	63.5331	10,927.7	54.7995	10,927.7	61.9298	10,927.7	53.9302	10,927.7	57.8369	10,927.7	51.3772	10,927.7	49.4075	10,927.7	52.1593	10,927.7	62.1526	10,927.7	51.7429	10,927.7	67.6733	10,927.7	47.4712	10,927.7	56.955	10,927.7	53.5902	10,927.7	62.6536	10,927.7	54.0456	10,927.7	65.164	10,927.7	51.2693	10,927.7	60.9626
11,313	89.4544	11,313	89.3485	11,313	88.9866	11,313	88.2329	11,313	87.2473	11,313	86.0239	11,313	85.658	11,313	84.2042	11,313	82.8658	11,313	80.8687	11,313	78.6822	11,313	77.0243	11,313	74.259	11,313	72.8745	11,313	68.4858	11,313	68.1977	11,313	64.8529	11,313	63.791	11,313	51.0989	11,313	51.698	11,313	54.2306	11,313	59.3016	11,313	48.895	11,313	54.5954	11,313	51.4923	11,313	65.6509	11,313	53.1584	11,313	71.972	11,313	50.137	11,313	61.0477	11,313	48.2262	11,313	69.1135	11,313	50.1347	11,313	61.8914	11,313	23.9513	11,313	58.2891
11,712.9	89.4304	11,712.9	88.9742	11,712.9	88.9498	11,712.9	88.1296	11,712.9	86.9463	11,712.9	85.6354	11,712.9	84.9794	11,712.9	84.3859	11,712.9	82.4543	11,712.9	80.1528	11,712.9	77.7094	11,712.9	76.1248	11,712.9	74.7382	11,712.9	72.3606	11,712.9	64.8467	11,712.9	68.7152	11,712.9	65.5067	11,712.9	63.2262	11,712.9	57.8561	11,712.9	62.4916	11,712.9	48.0215	11,712.9	50.0679	11,712.9	54.5046	11,712.9	60.8984	11,712.9	55.2173	11,712.9	52.1266	11,712.9	48.0465	11,712.9	67.5533	11,712.9	50.223	11,712.9	63.1125	11,712.9	48.5202	11,712.9	65.2763	11,712.9	42.6453	11,712.9	64.0814	11,712.9	42.1384	11,712.9	56.5862
12,126	89.3492	12,126	88.895	12,126	88.596	12,126	87.8179	12,126	87.062	12,126	85.7149	12,126	85.3187	12,126	84.3689	12,126	82.1837	12,126	79.5966	12,126	77.6745	12,126	75.954	12,126	75.3842	12,126	72.664	12,126	70.5669	12,126	68.2824	12,126	69.1577	12,126	63.1077	12,126	57.3429	12,126	57.1494	12,126	56.4021	12,126	59.5709	12,126	51.9085	12,126	54.8768	12,126	48.4062	12,126	63.4982	12,126	21.5896	12,126	68.1912	12,126	56.1356	12,126	57.2612	12,126	55.3225	12,126	64.7091	12,126	50.6793	12,126	59.107	12,126	49.5388	12,126	54.1644
12,553.7	89.1014	12,553.7	88.6912	12,553.7	88.2432	12,553.7	87.5476	12,553.7	87.0513	12,553.7	85.7187	12,553.7	85.018	12,553.7	84.0246	12,553.7	81.7986	12,553.7	79.1495	12,553.7	77.5469	12,553.7	76.063	12,553.7	74.0538	12,553.7	72.898	12,553.7	70.9847	12,553.7	68.1146	12,553.7	66.0268	12,553.7	64.3504	12,553.7	52.9467	12,553.7	53.4782	12,553.7	53.1321	12,553.7	61.1511	12,553.7	50.9646	12,553.7	61.5878	12,553.7	44.0821	12,553.7	55.2475	12,553.7	37.8509	12,553.7	65.6804	12,553.7	45.1352	12,553.7	60.2242	12,553.7	57.4728	12,553.7	66.8009	12,553.7	55.0914	12,553.7	65.4826	12,553.7	52.2822	12,553.7	60.7632
12,996.1	88.9269	12,996.1	88.5848	12,996.1	87.7188	12,996.1	86.9313	12,996.1	86.9248	12,996.1	85.6772	12,996.1	84.9666	12,996.1	83.3711	12,996.1	81.2784	12,996.1	78.9228	12,996.1	77.5744	12,996.1	75.7969	12,996.1	73.6253	12,996.1	73.262	12,996.1	70.5576	12,996.1	68.0306	12,996.1	66.714	12,996.1	61.81	12,996.1	57.5036	12,996.1	60.2624	12,996.1	55.4238	12,996.1	60.7913	12,996.1	52.2741	12,996.1	59.7804	12,996.1	49.8698	12,996.1	62.2645	12,996.1	43.0524	12,996.1	65.7308	12,996.1	49.7108	12,996.1	59.389	12,996.1	44.8384	12,996.1	57.2712	12,996.1	51.4059	12,996.1	61.6625	12,996.1	53.5354	12,996.1	58.0689
13,454.6	88.5004	13,454.6	88.362	13,454.6	87.3468	13,454.6	86.7923	13,454.6	86.5463	13,454.6	85.4885	13,454.6	84.7086	13,454.6	83.0551	13,454.6	80.7916	13,454.6	78.5675	13,454.6	77.7604	13,454.6	75.2041	13,454.6	74.097	13,454.6	72.7212	13,454.6	68.952	13,454.6	66.7893	13,454.6	64.3714	13,454.6	61.7488	13,454.6	52.0147	13,454.6	58.5995	13,454.6	57.0229	13,454.6	61.5242	13,454.6	53.3359	13,454.6	60.9456	13,454.6	55.3104	13,454.6	55.3524	13,454.6	48.7596	13,454.6	64.0385	13,454.6	47.2043	13,454.6	50.453	13,454.6	48.6447	13,454.6	63.4246	13,454.6	44.0337	13,454.6	61.9716	13,454.6	42.1906	13,454.6	57.7335
13,929.2	88.1528	13,929.2	88.1347	13,929.2	87.3602	13,929.2	86.7175	13,929.2	86.2224	13,929.2	85.1637	13,929.2	84.3392	13,929.2	82.5795	13,929.2	80.532	13,929.2	77.972	13,929.2	77.6741	13,929.2	74.3216	13,929.2	73.289	13,929.2	71.2009	13,929.2	64.9511	13,929.2	64.8699	13,929.2	65.2709	13,929.2	58.6743	13,929.2	50.2173	13,929.2	51.3503	13,929.2	49.6707	13,929.2	46.9232	13,929.2	57.197	13,929.2	61.201	13,929.2	54.8757	13,929.2	58.9471	13,929.2	47.6032	13,929.2	64.5656	13,929.2	46.4794	13,929.2	56.1872	13,929.2	47.9928	13,929.2	62.8581	13,929.2	49.2416	13,929.2	51.032	13,929.2	55.7773	13,929.2	35.9367
14,419.9	87.9914	14,419.9	87.8132	14,419.9	87.0691	14,419.9	86.3791	14,419.9	85.9399	14,419.9	84.6618	14,419.9	83.6433	14,419.9	82.0285	14,419.9	80.0039	14,419.9	76.8616	14,419.9	76.8289	14,419.9	72.9229	14,419.9	72.6153	14,419.9	68.9995	14,419.9	65.2358	14,419.9	61.841	14,419.9	59.0712	14,419.9	54.2184	14,419.9	53.1678	14,419.9	60.8102	14,419.9	50.8007	14,419.9	60.697	14,419.9	50.8067	14,419.9	60.9979	14,419.9	50.2733	14,419.9	55.9393	14,419.9	44.2276	14,419.9	63.735	14,419.9	49.1859	14,419.9	46.3861	14,419.9	42.4023	14,419.9	60.6189	14,419.9	44.472	14,419.9	59.2806	14,419.9	50.7004	14,419.9	56.9299
14,928.2	87.6237	14,928.2	87.3492	14,928.2	86.9717	14,928.2	85.9883	14,928.2	85.4572	14,928.2	84.0466	14,928.2	83.096	14,928.2	81.5084	14,928.2	79.6525	14,928.2	76.1045	14,928.2	75.5667	14,928.2	71.8889	14,928.2	69.9734	14,928.2	65.7434	14,928.2	65.7087	14,928.2	60.4453	14,928.2	58.8992	14,928.2	54.6663	14,928.2	53.3773	14,928.2	56.3327	14,928.2	51.611	14,928.2	55.4422	14,928.2	57.8589	14,928.2	56.5885	14,928.2	55.7883	14,928.2	57.6935	14,928.2	49.247	14,928.2	59.173	14,928.2	46.86	14,928.2	53.1131	14,928.2	38.5764	14,928.2	59.6269	14,928.2	45.1902	14,928.2	58.7022	14,928.2	47.702	14,928.2	59.1877
15,455.6	87.4058	15,455.6	86.9961	15,455.6	86.6917	15,455.6	85.5243	15,455.6	84.9493	15,455.6	83.2856	15,455.6	82.4166	15,455.6	80.5863	15,455.6	78.7317	15,455.6	75.1491	15,455.6	73.2207	15,455.6	69.3858	15,455.6	68.0599	15,455.6	63.4798	15,455.6	64.3207	15,455.6	61.3189	15,455.6	53.8735	15,455.6	54.4966	15,455.6	50.5517	15,455.6	56.9706	15,455.6	53.7154	15,455.6	61.471	15,455.6	56.7683	15,455.6	58.789	15,455.6	58.273	15,455.6	55.0218	15,455.6	53.7548	15,455.6	62.0135	15,455.6	51.1398	15,455.6	55.8023	15,455.6	46.8705	15,455.6	56.5049	15,455.6	47.6991	15,455.6	42.5662	15,455.6	44.9564	15,455.6	57.3896
16,000.5	87.283	16,000.5	86.651	16,000.5	86.2399	16,000.5	84.8864	16,000.5	84.4428	16,000.5	82.3611	16,000.5	81.5047	16,000.5	79.255	16,000.5	77.553	16,000.5	73.5106	16,000.5	71.6443	16,000.5	65.4912	16,000.5	67.6746	16,000.5	63.1584	16,000.5	60.8116	16,000.5	62.1983	16,000.5	59.8356	16,000.5	55.346	16,000.5	52.5804	16,000.5	48.4775	16,000.5	49.1883	16,000.5	60.1746	16,000.5	50.8986	16,000.5	57.8531	16,000.5	49.4373	16,000.5	56.1377	16,000.5	45.9277	16,000.5	45.3087	16,000.5	41.3326	16,000.5	43.1738	16,000.5	44.8948	16,000.5	61.0269	16,000.5	51.3254	16,000.5	51.7724	16,000.5	49.9317	16,000.5	46.7838
16,564.5	87.0431	16,564.5	86.2308	16,564.5	85.7405	16,564.5	84.1413	16,564.5	83.6807	16,564.5	81.0625	16,564.5	80.6202	16,564.5	77.2608	16,564.5	75.7023	16,564.5	70.2574	16,564.5	69.0918	16,564.5	61.1308	16,564.5	64.6999	16,564.5	61.8857	16,564.5	59.5071	16,564.5	57.8519	16,564.5	55.9551	16,564.5	54.7709	16,564.5	32.4335	16,564.5	43.1121	16,564.5	52.4134	16,564.5	59.1797	16,564.5	51.4539	16,564.5	54.8341	16,564.5	38.3066	16,564.5	55.7483	16,564.5	26.0655	16,564.5	62.3159	16,564.5	44.4367	16,564.5	58.8182	16,564.5	45.867	16,564.5	54.7718	16,564.5	41.6499	16,564.5	37.3987	16,564.5	42.4472	16,564.5	36.9037
17,148.9	87.0047	17,148.9	86.0441	17,148.9	85.5412	17,148.9	83.6823	17,148.9	82.9544	17,148.9	80.0862	17,148.9	79.4944	17,148.9	75.529	17,148.9	73.2695	17,148.9	66.125	17,148.9	65.1936	17,148.9	60.4159	17,148.9	60.4879	17,148.9	60.9088	17,148.9	58.0537	17,148.9	53.4511	17,148.9	44.4535	17,148.9	52.7148	17,148.9	50.507	17,148.9	56.2099	17,148.9	43.8133	17,148.9	62.056	17,148.9	49.2635	17,148.9	54.3884	17,148.9	50.2957	17,148.9	54	17,148.9	41.4382	17,148.9	61.0917	17,148.9	45.5211	17,148.9	56.4597	17,148.9	41.4871	17,148.9	60.928	17,148.9	44.2659	17,148.9	44.2454	17,148.9	46.2046	17,148.9	48.7299
17,752.4	86.9195	17,752.4	85.8562	17,752.4	85.2323	17,752.4	82.9488	17,752.4	82.0499	17,752.4	78.4566	17,752.4	77.722	17,752.4	72.4275	17,752.4	69.6397	17,752.4	59.7466	17,752.4	60.6258	17,752.4	57.713	17,752.4	56.8794	17,752.4	55.7677	17,752.4	56.4037	17,752.4	53.2662	17,752.4	55.151	17,752.4	34.4919	17,752.4	26.7679	17,752.4	58.9592	17,752.4	49.1278	17,752.4	61.1585	17,752.4	49.8801	17,752.4	49.3179	17,752.4	45.3282	17,752.4	55.497	17,752.4	48.6138	17,752.4	62.4611	17,752.4	46.2413	17,752.4	59.1167	17,752.4	44.6795	17,752.4	59.46	17,752.4	50.9177	17,752.4	50.7481	17,752.4	47.0045	17,752.4	51.7212
18,379.4	86.4464	18,379.4	85.2491	18,379.4	84.8513	18,379.4	81.9559	18,379.4	81.0073	18,379.4	76.2241	18,379.4	75.3989	18,379.4	69.0213	18,379.4	63.6679	18,379.4	46.4159	18,379.4	49.4853	18,379.4	54.5292	18,379.4	55.5258	18,379.4	55.8947	18,379.4	60.2307	18,379.4	50.9407	18,379.4	41.2447	18,379.4	43.9395	18,379.4	42.2949	18,379.4	56.6354	18,379.4	42.5853	18,379.4	60.5701	18,379.4	33.0264	18,379.4	55.2816	18,379.4	51.0951	18,379.4	50.4727	18,379.4	49.3948	18,379.4	65.0135	18,379.4	47.3635	18,379.4	61.8676	18,379.4	48.5014	18,379.4	58.6665	18,379.4	47.9516	18,379.4	49.1755	18,379.4	30.3881	18,379.4	49.7491
19,026.9	85.9409	19,026.9	84.698	19,026.9	84.1947	19,026.9	81.0704	19,026.9	79.9903	19,026.9	73.813	19,026.9	72.2995	19,026.9	63.4298	19,026.9	52.4263	19,026.9	56.5794	19,026.9	58.9451	19,026.9	58.5655	19,026.9	59.1545	19,026.9	57.833	19,026.9	58.0301	19,026.9	50.7854	19,026.9	41.9118	19,026.9	47.1709	19,026.9	46.7999	19,026.9	53.8758	19,026.9	45.531	19,026.9	58.9999	19,026.9	40.7756	19,026.9	56.9249	19,026.9	37.7441	19,026.9	52.9772	19,026.9	39.3312	19,026.9	62.3508	19,026.9	46.8796	19,026.9	53.5873	19,026.9	32.0018	19,026.9	59.0341	19,026.9	38.9185	19,026.9	50.9066	19,026.9	39.728	19,026.9	47.248
19,697.8	85.1468	19,697.8	83.9792	19,697.8	83.4791	19,697.8	80.105	19,697.8	78.7194	19,697.8	71.0841	19,697.8	68.5785	19,697.8	56.4417	19,697.8	56.162	19,697.8	60.3798	19,697.8	60.9449	19,697.8	60.2821	19,697.8	62.6888	19,697.8	58.3379	19,697.8	57.4415	19,697.8	53.667	19,697.8	51.4774	19,697.8	40.9139	19,697.8	52.5409	19,697.8	45.2689	19,697.8	46.2376	19,697.8	60.0032	19,697.8	46.3722	19,697.8	54.5197	19,697.8	41.1828	19,697.8	53.5681	19,697.8	27.3996	19,697.8	58.2115	19,697.8	44.9715	19,697.8	56.3197	19,697.8	38.4367	19,697.8	52.4377	19,697.8	29.1636	19,697.8	42.145	19,697.8	32.4378	19,697.8	47.1207
19,999.5	84.725	19,999.5	83.888	19,999.5	83.0963	19,999.5	79.9037	19,999.5	77.9761	19,999.5	70.7383	19,999.5	67.3973	19,999.5	55.7892	19,999.5	57.3514	19,999.5	60.7216	19,999.5	63.4588	19,999.5	60.8654	19,999.5	65.0839	19,999.5	55.2614	19,999.5	58.2304	19,999.5	57.7393	19,999.5	49.2981	19,999.5	49.3494	19,999.5	50.1212	19,999.5	41.1327	19,999.5	47.44	19,999.5	56.6029	19,999.5	44.8904	19,999.5	53.6416	19,999.5	37.3729	19,999.5	55.0561	19,999.5	44.8422	19,999.5	60.9113	19,999.5	44.7383	19,999.5	53.8349	19,999.5	47.799	19,999.5	60.515	19,999.5	38.2293	19,999.5	48.2544	19,999.5	23.2468	19,999.5	35.5907
