"SPL Vertical"
"On-Axis"		"10°"		"-10°"		"20°"		"-20°"		"30°"		"-30°"		"40°"		"-40°"		"50°"		"-50°"		"60°"		"-60°"		"70°"		"-70°"		"80°"		"-80°"		"90°"		"-90°"		"100°"		"-100°"		"110°"		"-110°"		"120°"		"-120°"		"130°"		"-130°"		"140°"		"-140°"		"150°"		"-150°"		"160°"		"-160°"		"170°"		"-170°"		"180°"
"Frequency [Hz]"	"Sound Pessure Level [dB]  / [2.83V 1m] "	"Frequency [Hz]"	"Sound Pessure Level [dB]  / [2.83V 1m] "	"Frequency [Hz]"	"Sound Pessure Level [dB]  / [2.83V 1m] "	"Frequency [Hz]"	"Sound Pessure Level [dB]  / [2.83V 1m] "	"Frequency [Hz]"	"Sound Pessure Level [dB]  / [2.83V 1m] "	"Frequency [Hz]"	"Sound Pessure Level [dB]  / [2.83V 1m] "	"Frequency [Hz]"	"Sound Pessure Level [dB]  / [2.83V 1m] "	"Frequency [Hz]"	"Sound Pessure Level [dB]  / [2.83V 1m] "	"Frequency [Hz]"	"Sound Pessure Level [dB]  / [2.83V 1m] "	"Frequency [Hz]"	"Sound Pessure Level [dB]  / [2.83V 1m] "	"Frequency [Hz]"	"Sound Pessure Level [dB]  / [2.83V 1m] "	"Frequency [Hz]"	"Sound Pessure Level [dB]  / [2.83V 1m] "	"Frequency [Hz]"	"Sound Pessure Level [dB]  / [2.83V 1m] "	"Frequency [Hz]"	"Sound Pessure Level [dB]  / [2.83V 1m] "	"Frequency [Hz]"	"Sound Pessure Level [dB]  / [2.83V 1m] "	"Frequency [Hz]"	"Sound Pessure Level [dB]  / [2.83V 1m] "	"Frequency [Hz]"	"Sound Pessure Level [dB]  / [2.83V 1m] "	"Frequency [Hz]"	"Sound Pessure Level [dB]  / [2.83V 1m] "	"Frequency [Hz]"	"Sound Pessure Level [dB]  / [2.83V 1m] "	"Frequency [Hz]"	"Sound Pessure Level [dB]  / [2.83V 1m] "	"Frequency [Hz]"	"Sound Pessure Level [dB]  / [2.83V 1m] "	"Frequency [Hz]"	"Sound Pessure Level [dB]  / [2.83V 1m] "	"Frequency [Hz]"	"Sound Pessure Level [dB]  / [2.83V 1m] "	"Frequency [Hz]"	"Sound Pessure Level [dB]  / [2.83V 1m] "	"Frequency [Hz]"	"Sound Pessure Level [dB]  / [2.83V 1m] "	"Frequency [Hz]"	"Sound Pessure Level [dB]  / [2.83V 1m] "	"Frequency [Hz]"	"Sound Pessure Level [dB]  / [2.83V 1m] "	"Frequency [Hz]"	"Sound Pessure Level [dB]  / [2.83V 1m] "	"Frequency [Hz]"	"Sound Pessure Level [dB]  / [2.83V 1m] "	"Frequency [Hz]"	"Sound Pessure Level [dB]  / [2.83V 1m] "	"Frequency [Hz]"	"Sound Pessure Level [dB]  / [2.83V 1m] "	"Frequency [Hz]"	"Sound Pessure Level [dB]  / [2.83V 1m] "	"Frequency [Hz]"	"Sound Pessure Level [dB]  / [2.83V 1m] "	"Frequency [Hz]"	"Sound Pessure Level [dB]  / [2.83V 1m] "	"Frequency [Hz]"	"Sound Pessure Level [dB]  / [2.83V 1m] "	"Frequency [Hz]"	"Sound Pessure Level [dB]  / [2.83V 1m] "
20.5078	41.156	20.5078	41.7258	20.5078	40.8824	20.5078	42.539	20.5078	40.9269	20.5078	43.5201	20.5078	41.2864	20.5078	44.5907	20.5078	41.9391	20.5078	45.6851	20.5078	42.8426	20.5078	46.7566	20.5078	43.9332	20.5078	47.7759	20.5078	45.1346	20.5078	48.7261	20.5078	46.373	20.5078	49.5982	20.5078	47.5876	20.5078	50.3877	20.5078	48.7332	20.5078	51.0921	20.5078	49.7792	20.5078	51.7096	20.5078	50.7056	20.5078	52.2379	20.5078	51.5	20.5078	52.6742	20.5078	52.156	20.5078	53.014	20.5078	52.6712	20.5078	53.252	20.5078	53.0467	20.5078	53.3816	20.5078	53.2862	20.5078	53.3955
21.9727	49.5484	21.9727	49.5561	21.9727	49.5824	21.9727	49.6265	21.9727	49.6419	21.9727	49.7803	21.9727	49.7195	21.9727	50.0331	21.9727	49.8192	21.9727	50.3901	21.9727	49.9581	21.9727	50.8448	21.9727	50.1641	21.9727	51.3799	21.9727	50.4691	21.9727	51.9714	21.9727	50.897	21.9727	52.5924	21.9727	51.4503	21.9727	53.217	21.9727	52.1056	21.9727	53.8216	21.9727	52.819	21.9727	54.3855	21.9727	53.539	21.9727	54.891	21.9727	54.2181	21.9727	55.3224	21.9727	54.8186	21.9727	55.6657	21.9727	55.3142	21.9727	55.9085	21.9727	55.6889	21.9727	56.04	21.9727	55.9351	21.9727	56.051
23.4375	49.1036	23.4375	48.6958	23.4375	49.3788	23.4375	48.1677	23.4375	49.5139	23.4375	47.5399	23.4375	49.504	23.4375	46.8486	23.4375	49.3466	23.4375	46.1549	23.4375	49.0432	23.4375	45.5527	23.4375	48.6028	23.4375	45.1595	23.4375	48.0498	23.4375	45.0753	23.4375	47.4353	23.4375	45.3238	23.4375	46.8504	23.4375	45.8352	23.4375	46.4254	23.4375	46.4909	23.4375	46.2872	23.4375	47.1792	23.4375	46.4818	23.4375	47.8203	23.4375	46.9374	23.4375	48.3644	23.4375	47.517	23.4375	48.7823	23.4375	48.0935	23.4375	49.0567	23.4375	48.5822	23.4375	49.1771	23.4375	48.9371	23.4375	49.1376
24.9023	46.748	24.9023	46.4937	24.9023	46.9707	24.9023	46.2808	24.9023	47.1159	24.9023	46.2031	24.9023	47.1636	24.9023	46.3502	24.9023	47.1189	24.9023	46.767	24.9023	47.0161	24.9023	47.4301	24.9023	46.9256	24.9023	48.2635	24.9023	46.9537	24.9023	49.1777	24.9023	47.2139	24.9023	50.0985	24.9023	47.7681	24.9023	50.9746	24.9023	48.5823	24.9023	51.7738	24.9023	49.5489	24.9023	52.4763	24.9023	50.5485	24.9023	53.0694	24.9023	51.4898	24.9023	53.5442	24.9023	52.3174	24.9023	53.8935	24.9023	53.0025	24.9023	54.1107	24.9023	53.5328	24.9023	54.1891	24.9023	53.9054	24.9023	54.1227
26.3672	53.1391	26.3672	52.9228	26.3672	53.314	26.3672	52.6856	26.3672	53.4334	26.3672	52.4542	26.3672	53.4892	26.3672	52.261	26.3672	53.4791	26.3672	52.141	26.3672	53.4084	26.3672	52.1257	26.3672	53.2914	26.3672	52.2353	26.3672	53.1535	26.3672	52.472	26.3672	53.0319	26.3672	52.8184	26.3672	52.9726	26.3672	53.2425	26.3672	53.0186	26.3672	53.7056	26.3672	53.1951	26.3672	54.1692	26.3672	53.4961	26.3672	54.5995	26.3672	53.8857	26.3672	54.9688	26.3672	54.3116	26.3672	55.2554	26.3672	54.7208	26.3672	55.4431	26.3672	55.0704	26.3672	55.521	26.3672	55.3305	26.3672	55.4834
27.832	53.0326	27.832	52.7484	27.832	53.2492	27.832	52.4147	27.832	53.3854	27.832	52.0575	27.832	53.4331	27.832	51.7123	27.832	53.388	27.832	51.4237	27.832	53.2517	27.832	51.2409	27.832	53.0346	27.832	51.205	27.832	52.7601	27.832	51.3348	27.832	52.4691	27.832	51.6179	27.832	52.2205	27.832	52.015	27.832	52.0818	27.832	52.4739	27.832	52.1051	27.832	52.9428	27.832	52.3017	27.832	53.3788	27.832	52.6351	27.832	53.7498	27.832	53.0392	27.832	54.033	27.832	53.4458	27.832	54.2134	27.832	53.8013	27.832	54.2816	27.832	54.0704	27.832	54.2335
29.2969	55.8555	29.2969	55.6881	29.2969	55.9943	29.2969	55.5098	29.2969	56.0921	29.2969	55.3429	29.2969	56.1419	29.2969	55.2133	29.2969	56.1427	29.2969	55.147	29.2969	56.1003	29.2969	55.166	29.2969	56.0283	29.2969	55.2832	29.2969	55.9491	29.2969	55.4982	29.2969	55.8928	29.2969	55.7972	29.2969	55.893	29.2969	56.1561	29.2969	55.978	29.2969	56.5457	29.2969	56.1607	29.2969	56.9359	29.2969	56.4323	29.2969	57.2995	29.2969	56.7644	29.2969	57.6133	29.2969	57.1179	29.2969	57.8588	29.2969	57.4534	29.2969	58.0221	29.2969	57.738	29.2969	58.0937	29.2969	57.948	29.2969	58.0688
30.7617	59.1598	30.7617	58.9849	30.7617	59.3041	30.7617	58.7909	30.7617	59.4097	30.7617	58.5918	30.7617	59.4711	30.7617	58.4043	30.7617	59.4864	30.7617	58.2473	30.7617	59.4576	30.7617	58.1395	30.7617	59.3916	30.7617	58.0974	30.7617	59.3011	30.7617	58.1315	30.7617	59.2042	30.7617	58.244	30.7617	59.1237	30.7617	58.4271	30.7617	59.0829	30.7617	58.6642	30.7617	59.0995	30.7617	58.9331	30.7617	59.1799	30.7617	59.2088	30.7617	59.316	30.7617	59.4672	30.7617	59.4867	30.7617	59.6871	30.7617	59.6638	30.7617	59.8516	30.7617	59.8188	30.7617	59.9491	30.7617	59.9278	30.7617	59.9741
32.2266	59.6441	32.2266	59.4522	32.2266	59.8014	32.2266	59.2359	32.2266	59.9164	32.2266	59.0078	32.2266	59.9841	32.2266	58.7836	32.2266	60.0022	32.2266	58.5808	32.2266	59.9718	32.2266	58.418	32.2266	59.8981	32.2266	58.3122	32.2266	59.7912	32.2266	58.2764	32.2266	59.6663	32.2266	58.3157	32.2266	59.5429	32.2266	58.4261	32.2266	59.4423	32.2266	58.5949	32.2266	59.3827	32.2266	58.8026	32.2266	59.3741	32.2266	59.0266	32.2266	59.4149	32.2266	59.2445	32.2266	59.4918	32.2266	59.4366	32.2266	59.5837	32.2266	59.5875	32.2266	59.6672	32.2266	59.687	32.2266	59.7214	32.2266	59.731
33.6914	60.4342	33.6914	60.2582	33.6914	60.5764	33.6914	60.0588	33.6914	60.6764	33.6914	59.8495	33.6914	60.7292	33.6914	59.6455	33.6914	60.7322	33.6914	59.4637	33.6914	60.6867	33.6914	59.3211	33.6914	60.5977	33.6914	59.2325	33.6914	60.4748	33.6914	59.208	33.6914	60.3326	33.6914	59.2504	33.6914	60.19	33.6914	59.3543	33.6914	60.068	33.6914	59.5068	33.6914	59.986	33.6914	59.6892	33.6914	59.9566	33.6914	59.8804	33.6914	59.9819	33.6914	60.0598	33.6914	60.0521	33.6914	60.2096	33.6914	60.1485	33.6914	60.3162	33.6914	60.2484	33.6914	60.3718	33.6914	60.3297	33.6914	60.3747
35.1562	62.4289	35.1562	62.2892	35.1562	62.5436	35.1562	62.1329	35.1562	62.6265	35.1562	61.9703	35.1562	62.6729	35.1562	61.8131	35.1562	62.6802	35.1562	61.6742	35.1562	62.6489	35.1562	61.5666	35.1562	62.583	35.1562	61.5019	35.1562	62.4905	35.1562	61.4885	35.1562	62.3842	35.1562	61.5296	35.1562	62.2807	35.1562	61.6224	35.1562	62.198	35.1562	61.7574	35.1562	62.152	35.1562	61.9205	35.1562	62.1522	35.1562	62.0942	35.1562	62.1982	35.1562	62.2608	35.1562	62.2795	35.1562	62.4037	35.1562	62.3783	35.1562	62.5097	35.1562	62.4736	35.1562	62.5701	35.1562	62.5463	35.1562	62.5815
36.6211	64.1241	36.6211	63.9849	36.6211	64.2418	36.6211	63.8315	36.6211	64.332	36.6211	63.673	36.6211	64.3909	36.6211	63.5198	36.6211	64.4167	36.6211	63.3831	36.6211	64.4102	36.6211	63.2744	36.6211	64.3748	36.6211	63.2039	36.6211	64.3175	36.6211	63.1792	36.6211	64.2484	36.6211	63.204	36.6211	64.1797	36.6211	63.2768	36.6211	64.1243	36.6211	63.3911	36.6211	64.0928	36.6211	63.5357	36.6211	64.0907	36.6211	63.6965	36.6211	64.1167	36.6211	63.8584	36.6211	64.1625	36.6211	64.0069	36.6211	64.2148	36.6211	64.1299	36.6211	64.2585	36.6211	64.2185	36.6211	64.2798	36.6211	64.2683
38.0859	65.3419	38.0859	65.2056	38.0859	65.4587	38.0859	65.0565	38.0859	65.5507	38.0859	64.903	38.0859	65.6144	38.0859	64.7544	38.0859	65.6483	38.0859	64.6208	38.0859	65.6531	38.0859	64.5122	38.0859	65.6317	38.0859	64.4378	38.0859	65.5896	38.0859	64.4046	38.0859	65.5346	38.0859	64.4166	38.0859	65.4764	38.0859	64.4734	38.0859	65.4251	38.0859	64.5702	38.0859	65.3894	38.0859	64.698	38.0859	65.3746	38.0859	64.8448	38.0859	65.3807	38.0859	64.9969	38.0859	65.4022	38.0859	65.1407	38.0859	65.4289	38.0859	65.2644	38.0859	65.4483	38.0859	65.3592	38.0859	65.4487	38.0859	65.4206
39.5508	66.0951	39.5508	65.9587	39.5508	66.2122	39.5508	65.8091	39.5508	66.305	39.5508	65.6534	39.5508	66.3701	39.5508	65.4999	39.5508	66.4054	39.5508	65.3573	39.5508	66.4107	39.5508	65.2348	39.5508	66.3879	39.5508	65.1411	39.5508	66.3413	39.5508	65.0833	39.5508	66.2774	39.5508	65.0665	39.5508	66.2051	39.5508	65.0918	39.5508	66.1338	39.5508	65.1567	39.5508	66.0725	39.5508	65.2542	39.5508	66.0275	39.5508	65.3744	39.5508	66.0007	39.5508	65.5051	39.5508	65.9887	39.5508	65.6338	39.5508	65.9839	39.5508	65.7495	39.5508	65.9761	39.5508	65.8439	39.5508	65.955	39.5508	65.9124
41.0156	66.4799	41.0156	66.336	41.0156	66.6017	41.0156	66.1762	41.0156	66.6964	41.0156	66.0075	41.0156	66.7602	41.0156	65.838	41.0156	66.7909	41.0156	65.6762	41.0156	66.7879	41.0156	65.5309	41.0156	66.7527	41.0156	65.4106	41.0156	66.6891	41.0156	65.3225	41.0156	66.6032	41.0156	65.2714	41.0156	66.5031	41.0156	65.2593	41.0156	66.3978	41.0156	65.2843	41.0156	66.2965	41.0156	65.341	41.0156	66.2061	41.0156	65.4215	41.0156	66.1304	41.0156	65.5159	41.0156	66.0692	41.0156	65.6147	41.0156	66.0186	41.0156	65.7092	41.0156	65.9722	41.0156	65.7934	41.0156	65.9228	41.0156	65.8644
42.4805	67.565	42.4805	67.4448	42.4805	67.665	42.4805	67.3099	42.4805	67.7403	42.4805	67.1667	42.4805	67.7873	42.4805	67.0222	42.4805	67.8039	42.4805	66.8839	42.4805	67.7894	42.4805	66.7589	42.4805	67.7451	42.4805	66.6542	42.4805	67.6738	42.4805	66.5752	42.4805	67.5808	42.4805	66.5254	42.4805	67.473	42.4805	66.5058	42.4805	67.3588	42.4805	66.5142	42.4805	67.2471	42.4805	66.5459	42.4805	67.1459	42.4805	66.5942	42.4805	67.0608	42.4805	66.6512	42.4805	66.9941	42.4805	66.7095	42.4805	66.9445	42.4805	66.763	42.4805	66.9075	42.4805	66.8083	42.4805	66.8766	42.4805	66.8453
43.9453	69.0836	43.9453	68.9805	43.9453	69.172	43.9453	68.8674	43.9453	69.2418	43.9453	68.7496	43.9453	69.2898	43.9453	68.6329	43.9453	69.3137	43.9453	68.5235	43.9453	69.3127	43.9453	68.4275	43.9453	69.2871	43.9453	68.3505	43.9453	69.2393	43.9453	68.2972	43.9453	69.1736	43.9453	68.2707	43.9453	69.0963	43.9453	68.2717	43.9453	69.015	43.9453	68.2986	43.9453	68.9377	43.9453	68.3471	43.9453	68.8714	43.9453	68.4107	43.9453	68.8202	43.9453	68.4816	43.9453	68.7848	43.9453	68.5521	43.9453	68.762	43.9453	68.6152	43.9453	68.7456	43.9453	68.6662	43.9453	68.7284	43.9453	68.7034
45.4102	70.2969	45.4102	70.1929	45.4102	70.3915	45.4102	70.0837	45.4102	70.4729	45.4102	69.9742	45.4102	70.5379	45.4102	69.8695	45.4102	70.5846	45.4102	69.7748	45.4102	70.6116	45.4102	69.6957	45.4102	70.6195	45.4102	69.6369	45.4102	70.6099	45.4102	69.6027	45.4102	70.586	45.4102	69.5959	45.4102	70.5527	45.4102	69.6174	45.4102	70.5151	45.4102	69.6661	45.4102	70.4787	45.4102	69.7382	45.4102	70.4472	45.4102	69.8277	45.4102	70.4223	45.4102	69.9273	45.4102	70.4023	45.4102	70.0287	45.4102	70.3833	45.4102	70.1243	45.4102	70.3594	45.4102	70.2076	45.4102	70.3247	45.4102	70.2748
46.875	70.7819	46.875	70.6734	46.875	70.8815	46.875	70.56	46.875	70.9688	46.875	70.4461	46.875	71.0408	46.875	70.3365	46.875	71.0953	46.875	70.2365	46.875	71.1313	46.875	70.1511	46.875	71.1485	46.875	70.0853	46.875	71.1483	46.875	70.0436	46.875	71.1334	46.875	70.0291	46.875	71.1075	46.875	70.0434	46.875	71.0749	46.875	70.0859	46.875	71.04	46.875	70.1537	46.875	71.0058	46.875	70.2419	46.875	70.9732	46.875	70.3438	46.875	70.9411	46.875	70.4515	46.875	70.9059	46.875	70.5574	46.875	70.8633	46.875	70.655	46.875	70.8088	46.875	70.7395
48.3398	71.0352	48.3398	70.9252	48.3398	71.1353	48.3398	70.8089	48.3398	71.2221	48.3398	70.6902	48.3398	71.2925	48.3398	70.5733	48.3398	71.3442	48.3398	70.4627	48.3398	71.3753	48.3398	70.3631	48.3398	71.3851	48.3398	70.2791	48.3398	71.3741	48.3398	70.2148	48.3398	71.3442	48.3398	70.1736	48.3398	71.2986	48.3398	70.1579	48.3398	71.2414	48.3398	70.1681	48.3398	71.1769	48.3398	70.2028	48.3398	71.1092	48.3398	70.259	48.3398	71.0408	48.3398	70.3318	48.3398	70.9728	48.3398	70.4156	48.3398	70.9046	48.3398	70.5047	48.3398	70.8342	48.3398	70.5939	48.3398	70.7596	48.3398	70.6795
51.2695	72.4948	51.2695	72.3988	51.2695	72.5758	51.2695	72.291	51.2695	72.6386	51.2695	72.1754	51.2695	72.6808	51.2695	72.0558	51.2695	72.7003	51.2695	71.9364	51.2695	72.6959	51.2695	71.8216	51.2695	72.6673	51.2695	71.7155	51.2695	72.6152	51.2695	71.6221	51.2695	72.5417	51.2695	71.5445	51.2695	72.4501	51.2695	71.4851	51.2695	72.3449	51.2695	71.445	51.2695	72.2315	51.2695	71.4239	51.2695	72.1157	51.2695	71.4204	51.2695	72.0029	51.2695	71.4321	51.2695	71.8976	51.2695	71.4564	51.2695	71.8028	51.2695	71.4911	51.2695	71.7196	51.2695	71.5346	51.2695	71.6479	51.2695	71.5867
52.7344	73.4758	52.7344	73.3877	52.7344	73.5539	52.7344	73.2928	52.7344	73.6194	52.7344	73.1945	52.7344	73.6697	52.7344	73.0962	52.7344	73.7029	52.7344	73.0016	52.7344	73.7177	52.7344	72.9142	52.7344	73.7135	52.7344	72.8374	52.7344	73.6904	52.7344	72.7745	52.7344	73.65	52.7344	72.7279	52.7344	73.5944	52.7344	72.6993	52.7344	73.5272	52.7344	72.6892	52.7344	73.4523	52.7344	72.6968	52.7344	73.3741	52.7344	72.7203	52.7344	73.2963	52.7344	72.7566	52.7344	73.2219	52.7344	72.8024	52.7344	73.1521	52.7344	72.8542	52.7344	73.087	52.7344	72.9095	52.7344	73.0257	52.7344	72.9668
54.1992	74.2323	54.1992	74.149	54.1992	74.3112	54.1992	74.0639	54.1992	74.3829	54.1992	73.9797	54.1992	74.4453	54.1992	73.8994	54.1992	74.4963	54.1992	73.8259	54.1992	74.5342	54.1992	73.7622	54.1992	74.5579	54.1992	73.711	54.1992	74.5671	54.1992	73.675	54.1992	74.5621	54.1992	73.6562	54.1992	74.5443	54.1992	73.656	54.1992	74.5156	54.1992	73.6746	54.1992	74.4789	54.1992	73.711	54.1992	74.4366	54.1992	73.7629	54.1992	74.391	54.1992	73.8269	54.1992	74.3431	54.1992	73.8985	54.1992	74.2929	54.1992	73.9733	54.1992	74.2393	54.1992	74.0471	54.1992	74.1809	54.1992	74.1168
55.6641	74.6563	55.6641	74.5731	55.6641	74.7377	55.6641	74.4905	55.6641	74.8149	55.6641	74.4109	55.6641	74.8858	55.6641	74.3368	55.6641	74.9481	55.6641	74.2708	55.6641	74.9999	55.6641	74.2154	55.6641	75.0399	55.6641	74.1733	55.6641	75.0671	55.6641	74.1469	55.6641	75.0813	55.6641	74.1382	55.6641	75.0833	55.6641	74.1486	55.6641	75.0742	55.6641	74.1785	55.6641	75.0557	55.6641	74.2271	55.6641	75.0295	55.6641	74.2922	55.6641	74.9966	55.6641	74.3702	55.6641	74.9572	55.6641	74.4567	55.6641	74.9106	55.6641	74.5466	55.6641	74.8557	55.6641	74.6348	55.6641	74.7913	55.6641	74.7173
58.5938	74.8304	58.5938	74.7477	58.5938	74.9089	58.5938	74.6629	58.5938	74.9813	58.5938	74.578	58.5938	75.0456	58.5938	74.4952	58.5938	75.0997	58.5938	74.4167	58.5938	75.1419	58.5938	74.3452	58.5938	75.1706	58.5938	74.2831	58.5938	75.1848	58.5938	74.2331	58.5938	75.184	58.5938	74.1977	58.5938	75.1686	58.5938	74.179	58.5938	75.1395	58.5938	74.1785	58.5938	75.0983	58.5938	74.1965	58.5938	75.0467	58.5938	74.2327	58.5938	74.9863	58.5938	74.2852	58.5938	74.9186	58.5938	74.3515	58.5938	74.8448	58.5938	74.428	58.5938	74.7657	58.5938	74.5109	58.5938	74.6825	58.5938	74.5968
60.0586	75.2671	60.0586	75.1862	60.0586	75.3418	60.0586	75.1009	60.0586	75.4081	60.0586	75.013	60.0586	75.464	60.0586	74.9244	60.0586	75.5073	60.0586	74.8371	60.0586	75.5357	60.0586	74.753	60.0586	75.5476	60.0586	74.6744	60.0586	75.5415	60.0586	74.6037	60.0586	75.517	60.0586	74.5434	60.0586	75.4743	60.0586	74.4958	60.0586	75.4147	60.0586	74.4629	60.0586	75.3404	60.0586	74.4463	60.0586	75.2545	60.0586	74.4468	60.0586	75.1603	60.0586	74.4646	60.0586	75.0615	60.0586	74.4989	60.0586	74.9618	60.0586	74.5486	60.0586	74.8643	60.0586	74.6119	60.0586	74.7719	60.0586	74.6871
62.9883	76.6191	62.9883	76.5434	62.9883	76.688	62.9883	76.4626	62.9883	76.7482	62.9883	76.3785	62.9883	76.7978	62.9883	76.2927	62.9883	76.8345	62.9883	76.2068	62.9883	76.8565	62.9883	76.1225	62.9883	76.8619	62.9883	76.0418	62.9883	76.8491	62.9883	75.9667	62.9883	76.8173	62.9883	75.8993	62.9883	76.7665	62.9883	75.842	62.9883	76.6976	62.9883	75.7968	62.9883	76.6127	62.9883	75.7655	62.9883	76.5152	62.9883	75.7495	62.9883	76.4093	62.9883	75.7498	62.9883	76.2999	62.9883	75.7669	62.9883	76.1918	62.9883	75.8007	62.9883	76.0896	62.9883	75.8509	62.9883	75.997	62.9883	75.9168
64.4531	76.8857	64.4531	76.8137	64.4531	76.9556	64.4531	76.7412	64.4531	77.0217	64.4531	76.6699	64.4531	77.082	64.4531	76.601	64.4531	77.1347	64.4531	76.5362	64.4531	77.1776	64.4531	76.4768	64.4531	77.2087	64.4531	76.4244	64.4531	77.2263	64.4531	76.3804	64.4531	77.2288	64.4531	76.3467	64.4531	77.2154	64.4531	76.3245	64.4531	77.1859	64.4531	76.3152	64.4531	77.1411	64.4531	76.3197	64.4531	77.083	64.4531	76.3383	64.4531	77.0141	64.4531	76.3706	64.4531	76.9374	64.4531	76.4158	64.4531	76.856	64.4531	76.4724	64.4531	76.7729	64.4531	76.5384	64.4531	76.6908	64.4531	76.6119
67.3828	76.8904	67.3828	76.8206	67.3828	76.9628	67.3828	76.7547	67.3828	77.0364	67.3828	76.6937	67.3828	77.1094	67.3828	76.6384	67.3828	77.1796	67.3828	76.5898	67.3828	77.2446	67.3828	76.5487	67.3828	77.3019	67.3828	76.5164	67.3828	77.3492	67.3828	76.4943	67.3828	77.3842	67.3828	76.4837	67.3828	77.4052	67.3828	76.4862	67.3828	77.4113	67.3828	76.5029	67.3828	77.402	67.3828	76.5348	67.3828	77.3774	67.3828	76.5817	67.3828	77.3384	67.3828	76.6428	67.3828	77.286	67.3828	76.716	67.3828	77.2217	67.3828	76.7985	67.3828	77.1471	67.3828	76.8867	67.3828	77.0645	67.3828	76.9766
68.8477	76.7948	68.8477	76.7224	68.8477	76.8674	68.8477	76.6513	68.8477	76.9385	68.8477	76.5826	68.8477	77.0065	68.8477	76.5172	68.8477	77.0693	68.8477	76.4563	68.8477	77.1244	68.8477	76.4009	68.8477	77.1697	68.8477	76.3527	68.8477	77.203	68.8477	76.3133	68.8477	77.2224	68.8477	76.2846	68.8477	77.2267	68.8477	76.2686	68.8477	77.2152	68.8477	76.267	68.8477	77.188	68.8477	76.2814	68.8477	77.1456	68.8477	76.3123	68.8477	77.0894	68.8477	76.3595	68.8477	77.0209	68.8477	76.4218	68.8477	76.9422	68.8477	76.4969	68.8477	76.8559	68.8477	76.5815	68.8477	76.7647	68.8477	76.672
71.7773	77.4139	71.7773	77.3397	71.7773	77.4842	71.7773	77.263	71.7773	77.5491	71.7773	77.185	71.7773	77.6068	71.7773	77.1071	71.7773	77.6556	71.7773	77.0304	71.7773	77.6935	71.7773	76.9565	71.7773	77.7186	71.7773	76.8868	71.7773	77.7289	71.7773	76.8232	71.7773	77.7229	71.7773	76.7678	71.7773	77.6995	71.7773	76.7229	71.7773	77.6583	71.7773	76.6906	71.7773	77.5999	71.7773	76.6733	71.7773	77.5257	71.7773	76.6728	71.7773	77.4383	71.7773	76.6903	71.7773	77.341	71.7773	76.7263	71.7773	77.2377	71.7773	76.7803	71.7773	77.1328	71.7773	76.8507	71.7773	77.0305	71.7773	76.9352
74.707	77.8166	74.707	77.7516	74.707	77.8796	74.707	77.6859	74.707	77.9395	74.707	77.6202	74.707	77.9947	74.707	77.5552	74.707	78.0432	74.707	77.4915	74.707	78.083	74.707	77.4296	74.707	78.1119	74.707	77.3704	74.707	78.1274	74.707	77.3149	74.707	78.1273	74.707	77.2644	74.707	78.1097	74.707	77.2206	74.707	78.0736	74.707	77.1858	74.707	78.0189	74.707	77.1622	74.707	77.9466	74.707	77.1524	74.707	77.8595	74.707	77.1584	74.707	77.7613	74.707	77.182	74.707	77.657	74.707	77.224	74.707	77.5519	74.707	77.2842	74.707	77.4516	74.707	77.361
77.6367	77.9345	77.6367	77.8733	77.6367	77.998	77.6367	77.815	77.6367	78.0627	77.6367	77.7598	77.6367	78.127	77.6367	77.7073	77.6367	78.1885	77.6367	77.6575	77.6367	78.2444	77.6367	77.61	77.6367	78.2915	77.6367	77.5649	77.6367	78.3264	77.6367	77.5228	77.6367	78.3459	77.6367	77.4846	77.6367	78.3471	77.6367	77.4521	77.6367	78.3282	77.6367	77.4274	77.6367	78.2883	77.6367	77.4129	77.6367	78.2282	77.6367	77.4114	77.6367	78.15	77.6367	77.4251	77.6367	78.0576	77.6367	77.456	77.6367	77.956	77.6367	77.5049	77.6367	77.851	77.6367	77.5714	77.6367	77.7483	77.6367	77.6536
79.1016	78.1101	79.1016	78.0477	79.1016	78.1747	79.1016	77.9881	79.1016	78.2405	79.1016	77.9317	79.1016	78.3058	79.1016	77.8782	79.1016	78.3686	79.1016	77.8277	79.1016	78.4262	79.1016	77.7802	79.1016	78.4756	79.1016	77.7359	79.1016	78.5136	79.1016	77.6957	79.1016	78.5371	79.1016	77.6606	79.1016	78.5433	79.1016	77.6324	79.1016	78.5303	79.1016	77.6133	79.1016	78.497	79.1016	77.6056	79.1016	78.4438	79.1016	77.6118	79.1016	78.3725	79.1016	77.6339	79.1016	78.2863	79.1016	77.673	79.1016	78.1895	79.1016	77.7295	79.1016	78.0874	79.1016	77.8022	79.1016	77.9853	79.1016	77.8887
82.0312	78.3264	82.0312	78.2599	82.0312	78.3926	82.0312	78.194	82.0312	78.4575	82.0312	78.1294	82.0312	78.5201	82.0312	78.0671	82.0312	78.579	82.0312	78.0079	82.0312	78.6327	82.0312	77.9529	82.0312	78.679	82.0312	77.9032	82.0312	78.7157	82.0312	77.8603	82.0312	78.7402	82.0312	77.8259	82.0312	78.7503	82.0312	77.8021	82.0312	78.7437	82.0312	77.7909	82.0312	78.7191	82.0312	77.7943	82.0312	78.6763	82.0312	77.8141	82.0312	78.616	82.0312	77.8511	82.0312	78.5402	82.0312	77.9055	82.0312	78.4519	82.0312	77.976	82.0312	78.355	82.0312	78.0601	82.0312	78.2542	82.0312	78.1543
84.9609	78.1254	84.9609	78.0562	84.9609	78.1989	84.9609	77.9923	84.9609	78.2754	84.9609	77.9342	84.9609	78.353	84.9609	77.8824	84.9609	78.4294	84.9609	77.8369	84.9609	78.5019	84.9609	77.7977	84.9609	78.5675	84.9609	77.7651	84.9609	78.623	84.9609	77.7394	84.9609	78.6649	84.9609	77.7215	84.9609	78.6903	84.9609	77.7126	84.9609	78.6965	84.9609	77.7142	84.9609	78.6819	84.9609	77.7283	84.9609	78.6461	84.9609	77.7565	84.9609	78.5899	84.9609	77.8	84.9609	78.5155	84.9609	77.8594	84.9609	78.4265	84.9609	77.9341	84.9609	78.3275	84.9609	78.022	84.9609	78.2235	84.9609	78.12
87.8906	78.4104	87.8906	78.3488	87.8906	78.4792	87.8906	78.2944	87.8906	78.5542	87.8906	78.2466	87.8906	78.6337	87.8906	78.2041	87.8906	78.7148	87.8906	78.1658	87.8906	78.7939	87.8906	78.1304	87.8906	78.8668	87.8906	78.0973	87.8906	78.9286	87.8906	78.0664	87.8906	78.9748	87.8906	78.0384	87.8906	79.001	87.8906	78.0149	87.8906	79.0038	87.8906	77.9985	87.8906	78.981	87.8906	77.9921	87.8906	78.9323	87.8906	77.9992	87.8906	78.8594	87.8906	78.0228	87.8906	78.7657	87.8906	78.0654	87.8906	78.6569	87.8906	78.1281	87.8906	78.5397	87.8906	78.2104	87.8906	78.4216	87.8906	78.3098
90.8203	78.786	90.8203	78.7221	90.8203	78.8478	90.8203	78.6565	90.8203	78.907	90.8203	78.5894	90.8203	78.9626	90.8203	78.5211	90.8203	79.0138	90.8203	78.452	90.8203	79.0591	90.8203	78.3829	90.8203	79.0967	90.8203	78.3149	90.8203	79.1245	90.8203	78.2497	90.8203	79.1399	90.8203	78.1898	90.8203	79.1401	90.8203	78.138	90.8203	79.1223	90.8203	78.0977	90.8203	79.0844	90.8203	78.0726	90.8203	79.0252	90.8203	78.0663	90.8203	78.9452	90.8203	78.0816	90.8203	78.8465	90.8203	78.1206	90.8203	78.7334	90.8203	78.1834	90.8203	78.6119	90.8203	78.2686	90.8203	78.4891	90.8203	78.3724
95.2148	78.825	95.2148	78.7706	95.2148	78.8817	95.2148	78.7186	95.2148	78.9405	95.2148	78.669	95.2148	79.0008	95.2148	78.6217	95.2148	79.0619	95.2148	78.5766	95.2148	79.1221	95.2148	78.534	95.2148	79.179	95.2148	78.4939	95.2148	79.2297	95.2148	78.4572	95.2148	79.2702	95.2148	78.425	95.2148	79.2967	95.2148	78.3991	95.2148	79.3052	95.2148	78.3819	95.2148	79.2929	95.2148	78.3762	95.2148	79.2578	95.2148	78.3851	95.2148	79.2	95.2148	78.4112	95.2148	79.1214	95.2148	78.4564	95.2148	79.0262	95.2148	78.5213	95.2148	78.92	95.2148	78.6043	95.2148	78.8096	95.2148	78.7022
98.1445	79.0718	98.1445	79.007	98.1445	79.1378	98.1445	78.9439	98.1445	79.2039	98.1445	78.8829	98.1445	79.2688	98.1445	78.8239	98.1445	79.3304	98.1445	78.7668	98.1445	79.386	98.1445	78.7116	98.1445	79.4326	98.1445	78.6583	98.1445	79.4665	98.1445	78.6074	98.1445	79.484	98.1445	78.5596	98.1445	79.4818	98.1445	78.5167	98.1445	79.4574	98.1445	78.4808	98.1445	79.4095	98.1445	78.4551	98.1445	79.3386	98.1445	78.4429	98.1445	79.247	98.1445	78.4477	98.1445	79.1392	98.1445	78.4724	98.1445	79.0211	98.1445	78.5189	98.1445	78.8998	98.1445	78.5876	98.1445	78.7828	98.1445	78.6768
101.074	78.9646	101.074	78.9028	101.074	79.0341	101.074	78.8489	101.074	79.1099	101.074	78.8028	101.074	79.1899	101.074	78.7635	101.074	79.2712	101.074	78.7298	101.074	79.35	101.074	78.7005	101.074	79.4222	101.074	78.6744	101.074	79.483	101.074	78.651	101.074	79.5282	101.074	78.6303	101.074	79.5534	101.074	78.6132	101.074	79.5555	101.074	78.6014	101.074	79.5325	101.074	78.5975	101.074	79.4843	101.074	78.6045	101.074	79.4127	101.074	78.6257	101.074	79.3215	101.074	78.6638	101.074	79.2164	101.074	78.7204	101.074	79.1043	101.074	78.7956	101.074	78.9923	101.074	78.8876
105.469	79.5903	105.469	79.5341	105.469	79.6474	105.469	79.4794	105.469	79.7047	105.469	79.426	105.469	79.7613	105.469	79.3739	105.469	79.8155	105.469	79.3229	105.469	79.8655	105.469	79.2729	105.469	79.9089	105.469	79.2239	105.469	79.9432	105.469	79.1766	105.469	79.9654	105.469	79.1322	105.469	79.9723	105.469	79.0927	105.469	79.9611	105.469	79.0605	105.469	79.9297	105.469	79.039	105.469	79.877	105.469	79.0315	105.469	79.8039	105.469	79.0414	105.469	79.713	105.469	79.0712	105.469	79.6089	105.469	79.1223	105.469	79.498	105.469	79.1941	105.469	79.3874	105.469	79.2839
108.398	79.5105	108.398	79.452	108.398	79.5713	108.398	79.3962	108.398	79.6335	108.398	79.3431	108.398	79.6957	108.398	79.2925	108.398	79.7559	108.398	79.2437	108.398	79.8119	108.398	79.1965	108.398	79.861	108.398	79.1506	108.398	79.9004	108.398	79.1063	108.398	79.927	108.398	79.0646	108.398	79.9377	108.398	79.0274	108.398	79.9295	108.398	78.9972	108.398	79.9002	108.398	78.9773	108.398	79.8486	108.398	78.9713	108.398	79.7753	108.398	78.9829	108.398	79.6829	108.398	79.0148	108.398	79.5761	108.398	79.0687	108.398	79.4614	108.398	79.1441	108.398	79.3462	108.398	79.2382
112.793	79.9608	112.793	79.8931	112.793	80.0223	112.793	79.8207	112.793	80.0761	112.793	79.7446	112.793	80.1203	112.793	79.6657	112.793	80.1531	112.793	79.5846	112.793	80.1734	112.793	79.5025	112.793	80.1805	112.793	79.4209	112.793	80.1741	112.793	79.342	112.793	80.1544	112.793	79.2686	112.793	80.1218	112.793	79.2043	112.793	80.0765	112.793	79.1529	112.793	80.0187	112.793	79.1182	112.793	79.9486	112.793	79.1036	112.793	79.8668	112.793	79.1115	112.793	79.7745	112.793	79.1429	112.793	79.6739	112.793	79.1971	112.793	79.5683	112.793	79.2713	112.793	79.4624	112.793	79.3615
117.188	80.2694	117.188	80.1936	117.188	80.3305	117.188	80.1044	117.188	80.3754	117.188	80.0026	117.188	80.4024	117.188	79.8885	117.188	80.4096	117.188	79.7625	117.188	80.3956	117.188	79.6255	117.188	80.3591	117.188	79.4789	117.188	80.2989	117.188	79.3254	117.188	80.2147	117.188	79.1691	117.188	80.1068	117.188	79.0156	117.188	79.9763	117.188	78.8717	117.188	79.8257	117.188	78.7454	117.188	79.6593	117.188	78.6446	117.188	79.4825	117.188	78.5764	117.188	79.3022	117.188	78.546	117.188	79.1256	117.188	78.5561	117.188	78.9605	117.188	78.6064	117.188	78.8143	117.188	78.6942
120.117	80.5262	120.117	80.4606	120.117	80.5802	120.117	80.3839	120.117	80.6216	120.117	80.2962	120.117	80.6492	120.117	80.1971	120.117	80.6612	120.117	80.0863	120.117	80.6558	120.117	79.9635	120.117	80.6307	120.117	79.8289	120.117	80.5833	120.117	79.6839	120.117	80.5111	120.117	79.531	120.117	80.4116	120.117	79.3743	120.117	80.2838	120.117	79.2197	120.117	80.1281	120.117	79.0748	120.117	79.9479	120.117	78.9481	120.117	79.7497	120.117	78.849	120.117	79.543	120.117	78.7862	120.117	79.3395	120.117	78.7666	120.117	79.152	120.117	78.7946	120.117	78.9924	120.117	78.871
124.512	80.2228	124.512	80.1621	124.512	80.2801	124.512	80.0986	124.512	80.3331	124.512	80.0334	124.512	80.3815	124.512	79.9669	124.512	80.4245	124.512	79.8995	124.512	80.4615	124.512	79.8313	124.512	80.491	124.512	79.7623	124.512	80.5104	124.512	79.6926	124.512	80.516	124.512	79.6224	124.512	80.5031	124.512	79.5532	124.512	80.4671	124.512	79.4871	124.512	80.4043	124.512	79.4279	124.512	80.3135	124.512	79.3803	124.512	80.1966	124.512	79.3502	124.512	80.0592	124.512	79.3436	124.512	79.9104	124.512	79.3659	124.512	79.7613	124.512	79.4205	124.512	79.6236	124.512	79.5075
128.906	79.9473	128.906	79.888	128.906	80.0085	128.906	79.8317	128.906	80.0708	128.906	79.7797	128.906	80.1337	128.906	79.7331	128.906	80.1967	128.906	79.6924	128.906	80.2592	128.906	79.6575	128.906	80.3199	128.906	79.6279	128.906	80.3757	128.906	79.6025	128.906	80.4224	128.906	79.5806	128.906	80.4544	128.906	79.5616	128.906	80.4658	128.906	79.5461	128.906	80.4513	128.906	79.5359	128.906	80.4081	128.906	79.5339	128.906	80.3362	128.906	79.5438	128.906	80.2396	128.906	79.5701	128.906	80.1255	128.906	79.6164	128.906	80.0034	128.906	79.6848	128.906	79.8835	128.906	79.775
133.301	80.0337	133.301	79.972	133.301	80.0975	133.301	79.9136	133.301	80.1629	133.301	79.8598	133.301	80.2295	133.301	79.8115	133.301	80.2971	133.301	79.7696	133.301	80.3656	133.301	79.7345	133.301	80.4339	133.301	79.7062	133.301	80.4999	133.301	79.6843	133.301	80.56	133.301	79.6687	133.301	80.6088	133.301	79.6594	133.301	80.64	133.301	79.6571	133.301	80.6472	133.301	79.6634	133.301	80.6258	133.301	79.6808	133.301	80.5738	133.301	79.7123	133.301	80.4927	133.301	79.761	133.301	80.3882	133.301	79.8293	133.301	80.2686	133.301	79.9178	133.301	80.1441	133.301	80.0245
139.16	80.2024	139.16	80.1272	139.16	80.2757	139.16	80.0521	139.16	80.3451	139.16	79.979	139.16	80.4089	139.16	79.9097	139.16	80.466	139.16	79.8461	139.16	80.5157	139.16	79.7897	139.16	80.558	139.16	79.742	139.16	80.593	139.16	79.7045	139.16	80.6208	139.16	79.6786	139.16	80.6404	139.16	79.6658	139.16	80.6498	139.16	79.6674	139.16	80.646	139.16	79.6848	139.16	80.6256	139.16	79.7189	139.16	80.5857	139.16	79.7704	139.16	80.5249	139.16	79.8392	139.16	80.4445	139.16	79.9241	139.16	80.3478	139.16	80.0224	139.16	80.2407	139.16	80.13
143.555	80.49	143.555	80.4121	143.555	80.5605	143.555	80.3291	143.555	80.6212	143.555	80.2431	143.555	80.6698	143.555	80.1558	143.555	80.7051	143.555	80.069	143.555	80.7264	143.555	79.9844	143.555	80.7348	143.555	79.9044	143.555	80.7317	143.555	79.832	143.555	80.7192	143.555	79.7705	143.555	80.6989	143.555	79.7234	143.555	80.6713	143.555	79.6943	143.555	80.6357	143.555	79.6861	143.555	80.5904	143.555	79.7003	143.555	80.5333	143.555	79.7377	143.555	80.4629	143.555	79.7969	143.555	80.3789	143.555	79.8755	143.555	80.283	143.555	79.9691	143.555	80.1791	143.555	80.0723
147.949	80.7158	147.949	80.6326	147.949	80.7808	147.949	80.5335	147.949	80.8254	147.949	80.4205	147.949	80.8477	147.949	80.2958	147.949	80.8469	147.949	80.1615	147.949	80.8236	147.949	80.0203	147.949	80.7798	147.949	79.8764	147.949	80.7187	147.949	79.735	147.949	80.6442	147.949	79.6028	147.949	80.5604	147.949	79.4876	147.949	80.4712	147.949	79.397	147.949	80.379	147.949	79.3377	147.949	80.2851	147.949	79.3136	147.949	80.1894	147.949	79.326	147.949	80.0906	147.949	79.3722	147.949	79.9872	147.949	79.447	147.949	79.8784	147.949	79.5428	147.949	79.7653	147.949	79.6514
153.809	80.8486	153.809	80.7777	153.809	80.9059	153.809	80.6949	153.809	80.9478	153.809	80.6014	153.809	80.9723	153.809	80.4976	153.809	80.9781	153.809	80.3837	153.809	80.9646	153.809	80.26	153.809	80.9314	153.809	80.1273	153.809	80.8786	153.809	79.9877	153.809	80.8065	153.809	79.8454	153.809	80.7157	153.809	79.7062	153.809	80.6075	153.809	79.5779	153.809	80.4842	153.809	79.4692	153.809	80.3489	153.809	79.3884	153.809	80.2056	153.809	79.3421	153.809	80.0587	153.809	79.3341	153.809	79.9123	153.809	79.3642	153.809	79.7709	153.809	79.4292	153.809	79.6393	153.809	79.5232
159.668	80.8955	159.668	80.8223	159.668	80.9588	159.668	80.7406	159.668	81.0105	159.668	80.6513	159.668	81.0488	159.668	80.5543	159.668	81.0721	159.668	80.4492	159.668	81.079	159.668	80.3353	159.668	81.0681	159.668	80.2126	159.668	81.0375	159.668	80.0824	159.668	80.9852	159.668	79.9477	159.668	80.9096	159.668	79.8141	159.668	80.8102	159.668	79.689	159.668	80.6884	159.668	79.5816	159.668	80.5477	159.668	79.501	159.668	80.3937	159.668	79.4547	159.668	80.2331	159.668	79.4475	159.668	80.0724	159.668	79.48	159.668	79.9177	159.668	79.5493	159.668	79.7748	159.668	79.6498
165.527	80.9008	165.527	80.8227	165.527	80.976	165.527	80.7436	165.527	81.0461	165.527	80.6648	165.527	81.1086	165.527	80.5864	165.527	81.1614	165.527	80.5074	165.527	81.2018	165.527	80.4261	165.527	81.2266	165.527	80.3402	165.527	81.2317	165.527	80.2481	165.527	81.2126	165.527	80.1495	165.527	81.1644	165.527	80.0462	165.527	81.0838	165.527	79.9424	165.527	80.9699	165.527	79.8452	165.527	80.8259	165.527	79.7632	165.527	80.6584	165.527	79.7056	165.527	80.4774	165.527	79.6807	165.527	80.2944	165.527	79.6938	165.527	80.1205	165.527	79.7472	165.527	79.9661	165.527	79.8394
171.387	80.864	171.387	80.7841	171.387	80.9381	171.387	80.7017	171.387	81.0034	171.387	80.6195	171.387	81.0577	171.387	80.5394	171.387	81.0998	171.387	80.4616	171.387	81.1292	171.387	80.3854	171.387	81.1456	171.387	80.3089	171.387	81.1477	171.387	80.2304	171.387	81.1328	171.387	80.1489	171.387	81.0967	171.387	80.065	171.387	81.0349	171.387	79.9814	171.387	80.9441	171.387	79.9033	171.387	80.8243	171.387	79.8373	171.387	80.6794	171.387	79.7914	171.387	80.5176	171.387	79.7728	171.387	80.3498	171.387	79.7872	171.387	80.1878	171.387	79.8377	171.387	80.0429	171.387	79.9241
177.246	80.671	177.246	80.5807	177.246	80.7577	177.246	80.4917	177.246	80.8361	177.246	80.4084	177.246	80.9023	177.246	80.3336	177.246	80.9542	177.246	80.2685	177.246	80.991	177.246	80.2123	177.246	81.0132	177.246	80.1627	177.246	81.0214	177.246	80.1168	177.246	81.0158	177.246	80.0719	177.246	80.9952	177.246	80.0268	177.246	80.9573	177.246	79.9826	177.246	80.8998	177.246	79.9427	177.246	80.8211	177.246	79.9127	177.246	80.722	177.246	79.8994	177.246	80.6055	177.246	79.909	177.246	80.4773	177.246	79.9461	177.246	80.3452	177.246	80.0119	177.246	80.2179	177.246	80.1043
183.105	80.6201	183.105	80.5345	183.105	80.6939	183.105	80.4428	183.105	80.7524	183.105	80.3509	183.105	80.7944	183.105	80.2645	183.105	80.8216	183.105	80.1876	183.105	80.8371	183.105	80.1223	183.105	80.8439	183.105	80.0687	183.105	80.8431	183.105	80.0248	183.105	80.8324	183.105	79.9878	183.105	80.8072	183.105	79.9545	183.105	80.7619	183.105	79.923	183.105	80.6932	183.105	79.8931	183.105	80.6013	183.105	79.8671	183.105	80.491	183.105	79.849	183.105	80.3703	183.105	79.8443	183.105	80.2483	183.105	79.858	183.105	80.1337	183.105	79.8935	183.105	80.0334	183.105	79.9524
188.965	80.71	188.965	80.6534	188.965	80.7481	188.965	80.5792	188.965	80.769	188.965	80.4899	188.965	80.7764	188.965	80.3886	188.965	80.7754	188.965	80.2791	188.965	80.7716	188.965	80.1645	188.965	80.7688	188.965	80.0482	188.965	80.7674	188.965	79.9336	188.965	80.7632	188.965	79.8243	188.965	80.7487	188.965	79.7242	188.965	80.7146	188.965	79.6375	188.965	80.6531	188.965	79.5684	188.965	80.5602	188.965	79.5214	188.965	80.4377	188.965	79.5	188.965	80.2929	188.965	79.5074	188.965	80.1365	188.965	79.5452	188.965	79.9806	188.965	79.6139	188.965	79.8362	188.965	79.7121
196.289	80.7644	196.289	80.6859	196.289	80.8258	196.289	80.5931	196.289	80.8681	196.289	80.4892	196.289	80.891	196.289	80.3773	196.289	80.8953	196.289	80.2596	196.289	80.8829	196.289	80.1378	196.289	80.8563	196.289	80.013	196.289	80.8169	196.289	79.8868	196.289	80.7655	196.289	79.7615	196.289	80.7011	196.289	79.6413	196.289	80.622	196.289	79.5318	196.289	80.5264	196.289	79.4402	196.289	80.4137	196.289	79.374	196.289	80.2851	196.289	79.3401	196.289	80.1437	196.289	79.343	196.289	79.9943	196.289	79.384	196.289	79.8435	196.289	79.461	196.289	79.6987	196.289	79.5683
203.613	80.6664	203.613	80.5804	203.613	80.7345	203.613	80.4813	203.613	80.7814	203.613	80.3747	203.613	80.8063	203.613	80.2659	203.613	80.8107	203.613	80.159	203.613	80.7979	203.613	80.0564	203.613	80.7719	203.613	79.9589	203.613	80.7355	203.613	79.8661	203.613	80.6892	203.613	79.7777	203.613	80.6312	203.613	79.6939	203.613	80.5579	203.613	79.6165	203.613	80.4664	203.613	79.5493	203.613	80.3563	203.613	79.4971	203.613	80.2308	203.613	79.4657	203.613	80.0959	203.613	79.4597	203.613	79.9592	203.613	79.4819	203.613	79.8284	203.613	79.5327	203.613	79.7101	203.613	79.6099
210.938	80.5768	210.938	80.4993	210.938	80.6327	210.938	80.4039	210.938	80.6647	210.938	80.2948	210.938	80.6726	210.938	80.1763	210.938	80.659	210.938	80.0522	210.938	80.6286	210.938	79.9259	210.938	80.5874	210.938	79.8	210.938	80.5407	210.938	79.6772	210.938	80.4913	210.938	79.5602	210.938	80.4381	210.938	79.4524	210.938	80.3771	210.938	79.3579	210.938	80.3027	210.938	79.2815	210.938	80.2104	210.938	79.2284	210.938	80.0986	210.938	79.2035	210.938	79.9695	210.938	79.2103	210.938	79.8289	210.938	79.2503	210.938	79.6849	210.938	79.3225	210.938	79.5468	210.938	79.4234
218.262	80.3724	218.262	80.2968	218.262	80.4202	218.262	80.1992	218.262	80.4376	218.262	80.0863	218.262	80.4256	218.262	79.9651	218.262	80.3898	218.262	79.8413	218.262	80.3394	218.262	79.7194	218.262	80.2842	218.262	79.6026	218.262	80.2323	218.262	79.4931	218.262	80.1869	218.262	79.3929	218.262	80.1464	218.262	79.304	218.262	80.105	218.262	79.229	218.262	80.0563	218.262	79.1715	218.262	79.995	218.262	79.136	218.262	79.9184	218.262	79.1268	218.262	79.8266	218.262	79.147	218.262	79.7215	218.262	79.1976	218.262	79.607	218.262	79.2758	218.262	79.489	218.262	79.3757
225.586	80.148	225.586	80.0414	225.586	80.2321	225.586	79.9192	225.586	80.2902	225.586	79.7902	225.586	80.3227	225.586	79.6637	225.586	80.333	225.586	79.5477	225.586	80.3269	225.586	79.4479	225.586	80.3099	225.586	79.3675	225.586	80.2862	225.586	79.3071	225.586	80.2567	225.586	79.2655	225.586	80.2201	225.586	79.2409	225.586	80.1739	225.586	79.2315	225.586	80.1166	225.586	79.2365	225.586	80.049	225.586	79.2556	225.586	79.9738	225.586	79.2893	225.586	79.8941	225.586	79.3378	225.586	79.8117	225.586	79.4002	225.586	79.7272	225.586	79.4742	225.586	79.6414	225.586	79.556
232.91	80.3066	232.91	80.2081	232.91	80.3794	232.91	80.091	232.91	80.4218	232.91	79.9635	232.91	80.4324	232.91	79.8332	232.91	80.4138	232.91	79.7057	232.91	80.3713	232.91	79.5841	232.91	80.3115	232.91	79.469	232.91	80.2397	232.91	79.3599	232.91	80.1578	232.91	79.2567	232.91	80.0643	232.91	79.1607	232.91	79.9561	232.91	79.0753	232.91	79.8319	232.91	79.0057	232.91	79.6953	232.91	78.957	232.91	79.555	232.91	78.9327	232.91	79.4217	232.91	78.9335	232.91	79.3038	232.91	78.9569	232.91	79.2046	232.91	78.9985	232.91	79.1224	232.91	79.0542
241.699	79.9527	241.699	79.8486	241.699	80.0355	241.699	79.731	241.699	80.092	241.699	79.609	241.699	80.1218	241.699	79.4906	241.699	80.1282	241.699	79.3812	241.699	80.1168	241.699	79.2823	241.699	80.0929	241.699	79.1918	241.699	80.0586	241.699	79.1057	241.699	80.0106	241.699	79.0199	241.699	79.9415	241.699	78.9321	241.699	79.8429	241.699	78.8433	241.699	79.7104	241.699	78.7581	241.699	79.5473	241.699	78.6833	241.699	79.3653	241.699	78.6266	241.699	79.1811	241.699	78.5944	241.699	79.0113	241.699	78.5901	241.699	78.8669	241.699	78.6151	241.699	78.7528	241.699	78.6692
250.488	79.737	250.488	79.5652	250.488	79.8775	250.488	79.3735	250.488	79.9809	250.488	79.1767	250.488	80.0472	250.488	78.9901	250.488	80.0823	250.488	78.8266	250.488	80.0952	250.488	78.6936	250.488	80.0955	250.488	78.5924	250.488	80.0889	250.488	78.5188	250.488	80.0742	250.488	78.4657	250.488	80.0433	250.488	78.4263	250.488	79.9844	250.488	78.3967	250.488	79.8873	250.488	78.3766	250.488	79.7489	250.488	78.3693	250.488	79.575	250.488	78.3799	250.488	79.3794	250.488	78.4133	250.488	79.1791	250.488	78.4731	250.488	78.9892	250.488	78.5607	250.488	78.82	250.488	78.6765
259.277	79.7798	259.277	79.6207	259.277	79.9025	259.277	79.434	259.277	79.9869	259.277	79.2339	259.277	80.0385	259.277	79.037	259.277	80.0687	259.277	78.8592	259.277	80.0924	259.277	78.7115	259.277	80.1226	259.277	78.5974	259.277	80.165	259.277	78.5133	259.277	80.2141	259.277	78.4505	259.277	80.2537	259.277	78.4	259.277	80.262	259.277	78.3564	259.277	80.2192	259.277	78.3208	259.277	80.114	259.277	78.3008	259.277	79.9472	259.277	78.3078	259.277	79.731	259.277	78.3533	259.277	79.4851	259.277	78.445	259.277	79.2307	259.277	78.5843	259.277	78.9866	259.277	78.7675
268.066	79.6002	268.066	79.4961	268.066	79.6629	268.066	79.3573	268.066	79.6845	268.066	79.1958	268.066	79.6736	268.066	79.0268	268.066	79.6475	268.066	78.867	268.066	79.6296	268.066	78.7313	268.066	79.6431	268.066	78.6298	268.066	79.7022	268.066	78.5653	268.066	79.804	268.066	78.5327	268.066	79.9272	268.066	78.5214	268.066	80.0386	268.066	78.5199	268.066	80.104	268.066	78.5209	268.066	80.0985	268.066	78.5248	268.066	80.0126	268.066	78.5395	268.066	79.8532	268.066	78.5784	268.066	79.6402	268.066	78.6549	268.066	79.4008	268.066	78.7783	268.066	79.1629	268.066	78.9501
276.855	78.9639	276.855	78.9343	276.855	78.9723	276.855	78.8891	276.855	78.9619	276.855	78.8385	276.855	78.9446	276.855	78.7942	276.855	78.941	276.855	78.7661	276.855	78.9756	276.855	78.7609	276.855	79.0687	276.855	78.7813	276.855	79.2271	276.855	78.8263	276.855	79.44	276.855	78.8918	276.855	79.6813	276.855	78.9715	276.855	79.9178	276.855	79.0585	276.855	80.1184	276.855	79.1469	276.855	80.2596	276.855	79.2346	276.855	80.3284	276.855	79.3236	276.855	80.3229	276.855	79.4201	276.855	80.2508	276.855	79.5319	276.855	80.1282	276.855	79.6641	276.855	79.9758	276.855	79.8154
287.109	77.8452	287.109	77.7219	287.109	77.8726	287.109	77.5231	287.109	77.7963	287.109	77.2813	287.109	77.6237	287.109	77.0403	287.109	77.3834	287.109	76.8522	287.109	77.1318	287.109	76.7674	287.109	76.9531	287.109	76.8198	287.109	76.9382	287.109	77.0151	287.109	77.1396	287.109	77.3293	287.109	77.5358	287.109	77.7206	287.109	78.0454	287.109	78.144	287.109	78.5747	287.109	78.562	287.109	79.0543	287.109	78.9484	287.109	79.4473	287.109	79.287	287.109	79.7421	287.109	79.5697	287.109	79.9417	287.109	79.7929	287.109	80.0545	287.109	79.9552	287.109	80.0898	287.109	80.0551
297.363	79.3953	297.363	79.2341	297.363	79.4678	297.363	78.9959	297.363	79.4412	297.363	78.6932	297.363	79.3086	297.363	78.3391	297.363	79.0684	297.363	77.949	297.363	78.7294	297.363	77.5433	297.363	78.3162	297.363	77.1517	297.363	77.8771	297.363	76.8153	297.363	77.4861	297.363	76.582	297.363	77.2317	297.363	76.4924	297.363	77.1818	297.363	76.5624	297.363	77.3425	297.363	76.7732	297.363	77.6506	297.363	77.0807	297.363	78.0086	297.363	77.433	297.363	78.3291	297.363	77.7853	297.363	78.5569	297.363	78.1048	297.363	78.6695	297.363	78.3694	297.363	78.6673	297.363	78.5621
307.617	79.2504	307.617	79.0846	307.617	79.3278	307.617	78.8451	307.617	79.3087	307.617	78.5517	307.617	79.1935	307.617	78.2269	307.617	78.9934	307.617	77.8939	307.617	78.7301	307.617	77.574	307.617	78.4343	307.617	77.2847	307.617	78.1392	307.617	77.0395	307.617	77.8718	307.617	76.8486	307.617	77.6476	307.617	76.7206	307.617	77.4721	307.617	76.6616	307.617	77.3488	307.617	76.6735	307.617	77.2851	307.617	76.7514	307.617	77.2859	307.617	76.8817	307.617	77.3416	307.617	77.0439	307.617	77.4224	307.617	77.2123	307.617	77.4888	307.617	77.3604	307.617	77.5081	307.617	77.4644
319.336	79.1645	319.336	79.009	319.336	79.2387	319.336	78.783	319.336	79.2248	319.336	78.5003	319.336	79.1204	319.336	78.1783	319.336	78.9294	319.336	77.8373	319.336	78.6649	319.336	77.4992	319.336	78.3502	319.336	77.1858	319.336	78.0196	319.336	76.9153	319.336	77.7137	319.336	76.7016	319.336	77.4708	319.336	76.5543	319.336	77.3159	319.336	76.4794	319.336	77.2534	319.336	76.4799	319.336	77.2686	319.336	76.5535	319.336	77.3339	319.336	76.6899	319.336	77.4166	319.336	76.8695	319.336	77.4852	319.336	77.0656	319.336	77.5137	319.336	77.2492	319.336	77.4853	319.336	77.395
329.59	78.7293	329.59	78.577	329.59	78.8049	329.59	78.3593	329.59	78.797	329.59	78.0904	329.59	78.7055	329.59	77.7863	329.59	78.5378	329.59	77.465	329.59	78.3102	329.59	77.1457	329.59	78.0459	329.59	76.8481	329.59	77.771	329.59	76.5897	329.59	77.5098	329.59	76.3834	329.59	77.2797	329.59	76.2367	329.59	77.0913	329.59	76.1524	329.59	76.9526	329.59	76.1317	329.59	76.8708	329.59	76.1747	329.59	76.8494	329.59	76.278	329.59	76.8786	329.59	76.429	329.59	76.9317	329.59	76.6038	329.59	76.9719	329.59	76.7706	329.59	76.9665	329.59	76.8984
341.309	78.8023	341.309	78.6401	341.309	78.8696	341.309	78.3938	341.309	78.8393	341.309	78.0811	341.309	78.7177	341.309	77.7253	341.309	78.5202	341.309	77.3532	341.309	78.2711	341.309	76.9932	341.309	77.9997	341.309	76.6714	341.309	77.7351	341.309	76.4083	341.309	77.4982	341.309	76.2149	341.309	77.2982	341.309	76.0921	341.309	77.1335	341.309	76.0324	341.309	76.9993	341.309	76.0253	341.309	76.8942	341.309	76.0616	341.309	76.8202	341.309	76.135	341.309	76.7766	341.309	76.2396	341.309	76.7531	341.309	76.3645	341.309	76.7293	341.309	76.4927	341.309	76.6837	341.309	76.6041
353.027	78.4542	353.027	78.2957	353.027	78.5293	353.027	78.0672	353.027	78.5118	353.027	77.784	353.027	78.4004	353.027	77.4619	353.027	78.2042	353.027	77.1187	353.027	77.9447	353.027	76.7739	353.027	77.654	353.027	76.45	353.027	77.3701	353.027	76.1689	353.027	77.1268	353.027	75.9483	353.027	76.9433	353.027	75.7972	353.027	76.8195	353.027	75.7151	353.027	76.7405	353.027	75.6951	353.027	76.6867	353.027	75.7286	353.027	76.6425	353.027	75.8068	353.027	76.5981	353.027	75.9193	353.027	76.5479	353.027	76.0517	353.027	76.4868	353.027	76.1865	353.027	76.4086	353.027	76.3084
366.211	78.2237	366.211	78.0739	366.211	78.2836	366.211	77.8471	366.211	78.2475	366.211	77.5617	366.211	78.1181	366.211	77.2399	366.211	77.909	366.211	76.9059	366.211	77.645	366.211	76.5841	366.211	77.3617	366.211	76.2945	366.211	77.0988	366.211	76.0492	366.211	76.8877	366.211	75.8495	366.211	76.7385	366.211	75.687	366.211	76.6366	366.211	75.5496	366.211	76.5527	366.211	75.4293	366.211	76.4593	366.211	75.3277	366.211	76.3409	366.211	75.2567	366.211	76.1953	366.211	75.2327	366.211	76.0283	366.211	75.2673	366.211	75.8492	366.211	75.3604	366.211	75.6686	366.211	75.5
379.395	77.9459	379.395	77.8273	379.395	77.9882	379.395	77.6476	379.395	77.9439	379.395	77.4229	379.395	77.8118	379.395	77.1675	379.395	77.6033	379.395	76.8945	379.395	77.3433	379.395	76.6171	379.395	77.0672	379.395	76.3512	379.395	76.812	379.395	76.1137	379.395	76.6052	379.395	75.9185	379.395	76.4568	379.395	75.7714	379.395	76.3621	379.395	75.6697	379.395	76.31	379.395	75.6069	379.395	76.2896	379.395	75.5797	379.395	76.2883	379.395	75.5906	379.395	76.2892	379.395	75.6445	379.395	76.2719	379.395	75.7409	379.395	76.2203	379.395	75.8681	379.395	76.129	379.395	76.0054
392.578	76.8648	392.578	76.7091	392.578	76.9567	392.578	76.515	392.578	76.9693	392.578	76.3119	392.578	76.9017	392.578	76.1269	392.578	76.7708	392.578	75.978	392.578	76.6118	392.578	75.8711	392.578	76.4713	392.578	75.8014	392.578	76.3896	392.578	75.7561	392.578	76.3789	392.578	75.7193	392.578	76.4135	392.578	75.6745	392.578	76.4438	392.578	75.6086	392.578	76.4238	392.578	75.5155	392.578	76.3315	392.578	75.4004	392.578	76.1734	392.578	75.2815	392.578	75.975	392.578	75.1864	392.578	75.7651	392.578	75.142	392.578	75.5653	392.578	75.1638	392.578	75.3895	392.578	75.2506
405.762	76.5591	405.762	76.2213	405.762	76.71	405.762	75.7536	405.762	76.6448	405.762	75.2428	405.762	76.3628	405.762	74.8036	405.762	75.9024	405.762	74.5566	405.762	75.3587	405.762	74.5803	405.762	74.8964	405.762	74.8681	405.762	74.7139	405.762	75.3361	405.762	74.9256	405.762	75.8729	405.762	75.4676	405.762	76.3861	405.762	76.1586	405.762	76.8197	405.762	76.8297	405.762	77.1525	405.762	77.382	405.762	77.3898	405.762	77.7786	405.762	77.5538	405.762	78.0213	405.762	77.6743	405.762	78.1321	405.762	77.7784	405.762	78.1421	405.762	77.883	405.762	78.0842	405.762	77.9895
420.41	79.9911	420.41	79.6707	420.41	80.1134	420.41	79.169	420.41	80.0247	420.41	78.5073	420.41	79.718	420.41	77.7138	420.41	79.1939	420.41	76.8347	420.41	78.4644	420.41	75.9537	420.41	77.5628	420.41	75.2144	420.41	76.5666	420.41	74.8039	420.41	75.6348	420.41	74.8541	420.41	75.0226	420.41	75.3287	420.41	74.9748	420.41	76.0552	420.41	75.5095	420.41	76.8548	420.41	76.3922	420.41	77.6124	420.41	77.3466	420.41	78.2715	420.41	78.1934	420.41	78.8088	420.41	78.8508	420.41	79.2142	420.41	79.2965	420.41	79.4791	420.41	79.5377	420.41	79.5922
435.059	79.3315	435.059	79.0668	435.059	79.4401	435.059	78.663	435.059	79.3807	435.059	78.1403	435.059	79.1485	435.059	77.5209	435.059	78.748	435.059	76.8308	435.059	78.1971	435.059	76.1076	435.059	77.5322	435.059	75.4143	435.059	76.8148	435.059	74.8511	435.059	76.1319	435.059	74.539	435.059	75.5856	435.059	74.558	435.059	75.2742	435.059	74.8861	435.059	75.2663	435.059	75.4155	435.059	75.5669	435.059	76.023	435.059	76.0952	435.059	76.617	435.059	76.7114	435.059	77.1412	435.059	77.2775	435.059	77.5609	435.059	77.7004	435.059	77.8495	435.059	77.9374	435.059	77.9824
451.172	79.7618	451.172	79.4163	451.172	79.9264	451.172	78.9038	451.172	79.8978	451.172	78.2413	451.172	79.666	451.172	77.4521	451.172	79.2273	451.172	76.5717	451.172	78.5916	451.172	75.657	451.172	77.7938	451.172	74.7965	451.172	76.9042	451.172	74.1122	451.172	76.0327	451.172	73.7311	451.172	75.3132	451.172	73.7213	451.172	74.8638	451.172	74.0455	451.172	74.7417	451.172	74.5883	451.172	74.9273	451.172	75.2224	451.172	75.3407	451.172	75.8498	451.172	75.8704	451.172	76.404	451.172	76.4019	451.172	76.8388	451.172	76.841	451.172	77.1191	451.172	77.124	451.172	77.2186
465.82	80.0908	465.82	79.8198	465.82	80.1834	465.82	79.383	465.82	80.0868	465.82	78.7932	465.82	79.7955	465.82	78.0635	465.82	79.3153	465.82	77.2116	465.82	78.6677	465.82	76.2692	465.82	77.8938	465.82	75.3008	465.82	77.0571	465.82	74.4291	465.82	76.2467	465.82	73.835	465.82	75.5726	465.82	73.6793	465.82	75.1438	465.82	73.9774	465.82	75.0332	465.82	74.5865	465.82	75.2465	465.82	75.3236	465.82	75.7108	465.82	76.0537	465.82	76.2982	465.82	76.6961	465.82	76.8725	465.82	77.2016	465.82	77.3291	465.82	77.5362	465.82	77.6056	465.82	77.6754
483.398	80.0283	483.398	79.7973	483.398	80.0908	483.398	79.4005	483.398	79.9833	483.398	78.8418	483.398	79.709	483.398	78.1274	483.398	79.2772	483.398	77.2699	483.398	78.7038	483.398	76.2955	483.398	78.0129	483.398	75.2561	483.398	77.2393	483.398	74.2501	483.398	76.4315	483.398	73.4412	483.398	75.6564	483.398	73.0287	483.398	75.0111	483.398	73.1291	483.398	74.6358	483.398	73.672	483.398	74.668	483.398	74.4633	483.398	75.1153	483.398	75.3173	483.398	75.8048	483.398	76.1073	483.398	76.5058	483.398	76.7531	483.398	77.0525	483.398	77.2002	483.398	77.3629	483.398	77.4109
499.512	79.9315	499.512	79.6945	499.512	80.0092	499.512	79.3057	499.512	79.9176	499.512	78.7693	499.512	79.6465	499.512	78.0888	499.512	79.1901	499.512	77.2706	499.512	78.5546	499.512	76.3336	499.512	77.7693	499.512	75.3218	499.512	76.897	499.512	74.3215	499.512	76.0363	499.512	73.4733	499.512	75.3019	499.512	72.9475	499.512	74.7887	499.512	72.8614	499.512	74.5496	499.512	73.1965	499.512	74.603	499.512	73.8195	499.512	74.9296	499.512	74.5722	499.512	75.4454	499.512	75.3247	499.512	76.0073	499.512	75.9798	499.512	76.4673	499.512	76.4633	499.512	76.7213	499.512	76.7208
517.09	79.8122	517.09	79.5879	517.09	79.8826	517.09	79.2214	517.09	79.7882	517.09	78.7243	517.09	79.5215	517.09	78.1071	517.09	79.0845	517.09	77.3765	517.09	78.4926	517.09	76.5342	517.09	77.7767	517.09	75.5815	517.09	76.9785	517.09	74.5341	517.09	76.1421	517.09	73.461	517.09	75.304	517.09	72.5461	517.09	74.5009	517.09	72.0991	517.09	73.8221	517.09	72.3465	517.09	73.4696	517.09	73.1683	517.09	73.6657	517.09	74.2287	517.09	74.3796	517.09	75.2497	517.09	75.2999	517.09	76.0712	517.09	76.1103	517.09	76.6053	517.09	76.6331	517.09	76.8008
536.133	78.9114	536.133	78.6254	536.133	79.0131	536.133	78.1814	536.133	78.9128	536.133	77.6113	536.133	78.6086	536.133	76.9517	536.133	78.1207	536.133	76.2413	536.133	77.4928	536.133	75.5148	536.133	76.7894	536.133	74.7971	536.133	76.0911	536.133	74.1061	536.133	75.4777	536.133	73.4676	536.133	74.9966	536.133	72.9318	536.133	74.6455	536.133	72.5765	536.133	74.4053	536.133	72.4826	536.133	74.2923	536.133	72.6923	536.133	74.3562	536.133	73.1738	536.133	74.6079	536.133	73.8197	536.133	74.9646	536.133	74.484	536.133	75.285	536.133	75.0299	536.133	75.4425	536.133	75.3628
555.176	79.2836	555.176	78.9712	555.176	79.4013	555.176	78.4794	555.176	79.3195	555.176	77.8375	555.176	79.0418	555.176	77.09	555.176	78.5758	555.176	76.2902	555.176	77.9303	555.176	75.482	555.176	77.1232	555.176	74.6835	555.176	76.2066	555.176	73.8929	555.176	75.2888	555.176	73.1271	555.176	74.5108	555.176	72.4739	555.176	73.9672	555.176	72.0983	555.176	73.6692	555.176	72.142	555.176	73.6079	555.176	72.5918	555.176	73.8024	555.176	73.2944	555.176	74.2364	555.176	74.0721	555.176	74.7901	555.176	74.7821	555.176	75.287	555.176	75.3156	555.176	75.5811	555.176	75.5949
574.219	79.4317	574.219	79.1545	574.219	79.533	574.219	78.7055	574.219	79.4533	574.219	78.0969	574.219	79.1834	574.219	77.3582	574.219	78.7167	574.219	76.5364	574.219	78.062	574.219	75.6827	574.219	77.2543	574.219	74.8314	574.219	76.3585	574.219	73.9883	574.219	75.4619	574.219	73.15	574.219	74.6465	574.219	72.36	574.219	73.9572	574.219	71.7706	574.219	73.4225	574.219	71.6245	574.219	73.1375	574.219	72.0625	574.219	73.2604	574.219	72.9426	574.219	73.8125	574.219	73.9604	574.219	74.572	574.219	74.8579	574.219	75.2561	574.219	75.4834	574.219	75.6812	574.219	75.7646
594.727	78.7869	594.727	78.4491	594.727	78.9297	594.727	77.9445	594.727	78.8604	594.727	77.3037	594.727	78.5806	594.727	76.5551	594.727	78.1115	594.727	75.724	594.727	77.4851	594.727	74.8403	594.727	76.7373	594.727	73.9523	594.727	75.9277	594.727	73.1316	594.727	75.1603	594.727	72.4492	594.727	74.5329	594.727	71.94	594.727	74.0349	594.727	71.6072	594.727	73.562	594.727	71.4856	594.727	73.0923	594.727	71.6765	594.727	72.8353	594.727	72.2484	594.727	73.0707	594.727	73.0899	594.727	73.7265	594.727	73.9518	594.727	74.4231	594.727	74.6086	594.727	74.8633	594.727	74.9295
615.234	78.7512	615.234	78.4399	615.234	78.8586	615.234	77.9328	615.234	78.7656	615.234	77.2555	615.234	78.4778	615.234	76.4548	615.234	77.9928	615.234	75.5939	615.234	77.3033	615.234	74.734	615.234	76.4275	615.234	73.9136	615.234	75.4542	615.234	73.1484	615.234	74.5509	615.234	72.4611	615.234	73.8815	615.234	71.9059	615.234	73.479	615.234	71.5487	615.234	73.244	615.234	71.4238	615.234	73.0906	615.234	71.5353	615.234	73.0479	615.234	71.8865	615.234	73.1986	615.234	72.4522	615.234	73.532	615.234	73.1194	615.234	73.9011	615.234	73.7097	615.234	74.1214	615.234	74.0674
637.207	78.36	637.207	78.0361	637.207	78.5301	637.207	77.5569	637.207	78.5483	637.207	76.9326	637.207	78.4054	637.207	76.1931	637.207	78.0785	637.207	75.387	637.207	77.5406	637.207	74.5703	637.207	76.7786	637.207	73.7836	637.207	75.8145	637.207	73.0361	637.207	74.7312	637.207	72.3189	637.207	73.6946	637.207	71.6563	637.207	72.9046	637.207	71.1608	637.207	72.4552	637.207	71.0153	637.207	72.296	637.207	71.3307	637.207	72.395	637.207	72.0214	637.207	72.7981	637.207	72.8753	637.207	73.447	637.207	73.6855	637.207	74.1047	637.207	74.2956	637.207	74.5289	637.207	74.5966
659.18	77.7479	659.18	77.4488	659.18	77.8701	659.18	76.9906	659.18	77.8011	659.18	76.3994	659.18	77.5283	659.18	75.7104	659.18	77.0462	659.18	74.9617	659.18	76.369	659.18	74.1818	659.18	75.5461	659.18	73.3854	659.18	74.6746	659.18	72.583	659.18	73.8901	659.18	71.7961	659.18	73.3014	659.18	71.059	659.18	72.903	659.18	70.4166	659.18	72.6067	659.18	69.954	659.18	72.3844	659.18	69.8467	659.18	72.3178	659.18	70.2729	659.18	72.4747	659.18	71.155	659.18	72.7981	659.18	72.1483	659.18	73.1487	659.18	72.926	659.18	73.3748	659.18	73.334
682.617	77.5853	682.617	77.1798	682.617	77.781	682.617	76.5917	682.617	77.7496	682.617	75.8613	682.617	77.4876	682.617	75.0452	682.617	77.014	682.617	74.2147	682.617	76.371	682.617	73.4458	682.617	75.604	682.617	72.797	682.617	74.7625	682.617	72.2841	682.617	73.9514	682.617	71.8777	682.617	73.3294	682.617	71.5363	682.617	72.9804	682.617	71.2546	682.617	72.8437	682.617	71.0843	682.617	72.8213	682.617	71.1126	682.617	72.8768	682.617	71.4129	682.617	73.0315	682.617	71.9794	682.617	73.2944	682.617	72.6832	682.617	73.592	682.617	73.3163	682.617	73.7755	682.617	73.7025
707.52	77.0604	707.52	76.5338	707.52	77.4054	707.52	75.8484	707.52	77.5594	707.52	75.062	707.52	77.5179	707.52	74.283	707.52	77.2785	707.52	73.6407	707.52	76.8265	707.52	73.1971	707.52	76.1205	707.52	72.8791	707.52	75.1216	707.52	72.5341	707.52	73.8837	707.52	72.0746	707.52	72.6539	707.52	71.5817	707.52	71.8242	707.52	71.2635	707.52	71.6069	707.52	71.2735	707.52	71.8657	707.52	71.6069	707.52	72.4031	707.52	72.1932	707.52	73.1188	707.52	72.9592	707.52	73.8947	707.52	73.7811	707.52	74.547	707.52	74.478	707.52	74.907	707.52	74.8838
732.422	77.3847	732.422	77.0651	732.422	77.465	732.422	76.5045	732.422	77.3431	732.422	75.7444	732.422	77.0726	732.422	74.8734	732.422	76.6882	732.422	74.018	732.422	76.1728	732.422	73.3083	732.422	75.4702	732.422	72.8183	732.422	74.5444	732.422	72.5061	732.422	73.4436	732.422	72.2253	732.422	72.334	732.422	71.8495	732.422	71.482	732.422	71.4095	732.422	71.127	732.422	71.1119	732.422	71.3134	732.422	71.2007	732.422	71.9185	732.422	71.76	732.422	72.7826	732.422	72.6577	732.422	73.7118	732.422	73.6403	732.422	74.4821	732.422	74.4507	732.422	74.9115	732.422	74.9034
757.324	78.2741	757.324	77.7826	757.324	78.516	757.324	77.0638	757.324	78.4967	757.324	76.1668	757.324	78.214	757.324	75.1879	757.324	77.682	757.324	74.2588	757.324	76.9257	757.324	73.4862	757.324	75.9669	757.324	72.889	757.324	74.8453	757.324	72.4183	757.324	73.6776	757.324	72.0399	757.324	72.6244	757.324	71.7417	757.324	71.7384	757.324	71.4759	757.324	71.0269	757.324	71.2136	757.324	70.7315	757.324	71.11	757.324	71.1541	757.324	71.5075	757.324	72.1043	757.324	72.5026	757.324	73.1537	757.324	73.6827	757.324	74.0676	757.324	74.5648	757.324	74.7065	757.324	74.9115
785.156	77.985	785.156	77.6546	785.156	78.1	785.156	77.1536	785.156	78.0006	785.156	76.5614	785.156	77.7211	785.156	75.9515	785.156	77.2931	785.156	75.3379	785.156	76.7045	785.156	74.6662	785.156	75.8956	785.156	73.8838	785.156	74.8095	785.156	73.0176	785.156	73.4769	785.156	72.1667	785.156	72.1038	785.156	71.4334	785.156	71.0474	785.156	70.8955	785.156	70.477	785.156	70.6031	785.156	70.1385	785.156	70.5398	785.156	69.8713	785.156	70.6405	785.156	70.0128	785.156	70.8987	785.156	70.7562	785.156	71.351	785.156	71.6311	785.156	71.8855	785.156	72.1701	785.156	72.2322
811.523	77.7406	811.523	77.5729	811.523	77.7905	811.523	77.2807	811.523	77.7092	811.523	76.8424	811.523	77.4756	811.523	76.246	811.523	77.0684	811.523	75.5051	811.523	76.4535	811.523	74.6469	811.523	75.5875	811.523	73.6923	811.523	74.4809	811.523	72.6733	811.523	73.258	811.523	71.6754	811.523	72.1116	811.523	70.8137	811.523	71.212	811.523	70.1614	811.523	70.7188	811.523	69.804	811.523	70.7073	811.523	69.9585	811.523	71.0142	811.523	70.8051	811.523	71.516	811.523	72.1122	811.523	72.317	811.523	73.3755	811.523	73.3296	811.523	74.2242	811.523	74.1608	811.523	74.4954
840.82	77.9333	840.82	77.6229	840.82	78.0542	840.82	77.1628	840.82	77.9831	840.82	76.6102	840.82	77.7502	840.82	76.0177	840.82	77.3814	840.82	75.4078	840.82	76.858	840.82	74.7505	840.82	76.1194	840.82	73.9741	840.82	75.1128	840.82	73.0167	840.82	73.8501	840.82	71.935	840.82	72.4354	840.82	71.0085	840.82	71.0209	840.82	70.5916	840.82	69.7161	840.82	70.7042	840.82	68.802	840.82	71.0457	840.82	69.0234	840.82	71.4536	840.82	70.4321	840.82	72.0436	840.82	72.0197	840.82	72.8542	840.82	73.19	840.82	73.607	840.82	73.8452	840.82	73.982
870.117	78.2364	870.117	77.929	870.117	78.2969	870.117	77.4312	870.117	78.1185	870.117	76.8483	870.117	77.7525	870.117	76.2788	870.117	77.2532	870.117	75.7495	870.117	76.6321	870.117	75.1921	870.117	75.8419	870.117	74.4764	870.117	74.8186	870.117	73.4864	870.117	73.5832	870.117	72.2266	870.117	72.3514	870.117	70.9126	870.117	71.4563	870.117	69.9326	870.117	70.9218	870.117	69.6096	870.117	70.3323	870.117	69.9988	870.117	69.4663	870.117	70.965	870.117	69.2513	870.117	72.2458	870.117	70.8446	870.117	73.4836	870.117	72.9219	870.117	74.3684	870.117	74.2547	870.117	74.6861
900.879	79.3641	900.879	78.8942	900.879	79.4707	900.879	78.1365	900.879	79.2279	900.879	77.2481	900.879	78.7029	900.879	76.3859	900.879	77.9749	900.879	75.5945	900.879	77.1109	900.879	74.7925	900.879	76.1475	900.879	73.8536	900.879	75.0721	900.879	72.6719	900.879	73.8666	900.879	71.2666	900.879	72.6483	900.879	69.923	900.879	71.6718	900.879	69.1181	900.879	70.9906	900.879	69.083	900.879	70.3916	900.879	69.4948	900.879	69.8541	900.879	70.0776	900.879	69.7137	900.879	71.0297	900.879	70.3411	900.879	72.3307	900.879	71.6886	900.879	73.3964	900.879	73.0437	900.879	73.6929
933.105	79.3324	933.105	78.9132	933.105	79.3641	933.105	78.2038	933.105	78.9967	933.105	77.34	933.105	78.3101	933.105	76.4071	933.105	77.4463	933.105	75.3963	933.105	76.5211	933.105	74.3024	933.105	75.536	933.105	73.243	933.105	74.4378	933.105	72.3743	933.105	73.3086	933.105	71.729	933.105	72.4325	933.105	71.2623	933.105	72.0281	933.105	70.9354	933.105	71.9583	933.105	70.6591	933.105	71.889	933.105	70.247	933.105	71.5655	933.105	69.7596	933.105	71.0348	933.105	69.9882	933.105	71.0099	933.105	71.3987	933.105	72.0826	933.105	72.9508	933.105	73.3076	933.105	73.6817
965.332	79.7001	965.332	79.3752	965.332	79.6035	965.332	78.6928	965.332	79.1253	965.332	77.8022	965.332	78.3843	965.332	76.8546	965.332	77.51	965.332	75.9029	965.332	76.5602	965.332	74.8898	965.332	75.5107	965.332	73.7321	965.332	74.3022	965.332	72.4156	965.332	72.884	965.332	71.0388	965.332	71.3439	965.332	69.8055	965.332	70.2031	965.332	69.1324	965.332	69.957	965.332	69.4459	965.332	70.0065	965.332	70.2595	965.332	69.886	965.332	70.818	965.332	70.1005	965.332	71.1221	965.332	70.9977	965.332	71.6882	965.332	72.1297	965.332	72.5576	965.332	72.9557	965.332	73.1172
1,000.49	79.1031	1,000.49	78.7593	1,000.49	79.0768	1,000.49	78.1243	1,000.49	78.721	1,000.49	77.3331	1,000.49	78.1303	1,000.49	76.4655	1,000.49	77.3007	1,000.49	75.5011	1,000.49	76.1439	1,000.49	74.3972	1,000.49	74.7191	1,000.49	73.2168	1,000.49	73.2938	1,000.49	72.1209	1,000.49	72.0361	1,000.49	71.172	1,000.49	70.9154	1,000.49	70.2285	1,000.49	70.2092	1,000.49	69.3272	1,000.49	70.325	1,000.49	69.0956	1,000.49	70.6975	1,000.49	69.6535	1,000.49	70.4754	1,000.49	70.2472	1,000.49	69.6294	1,000.49	70.7238	1,000.49	69.4261	1,000.49	71.5613	1,000.49	70.8744	1,000.49	72.6483	1,000.49	72.5178	1,000.49	73.1499
1,035.64	79.5674	1,035.64	79.546	1,035.64	79.2039	1,035.64	79.0831	1,035.64	78.5587	1,035.64	78.1547	1,035.64	77.7794	1,035.64	76.8267	1,035.64	76.9811	1,035.64	75.2982	1,035.64	76.1354	1,035.64	73.69	1,035.64	75.0521	1,035.64	71.9407	1,035.64	73.5348	1,035.64	70.3151	1,035.64	71.6131	1,035.64	69.5095	1,035.64	69.7355	1,035.64	69.5718	1,035.64	68.6257	1,035.64	69.6794	1,035.64	68.4072	1,035.64	69.5061	1,035.64	68.6162	1,035.64	69.652	1,035.64	68.9643	1,035.64	70.4298	1,035.64	69.1311	1,035.64	71.2906	1,035.64	68.9769	1,035.64	71.9009	1,035.64	69.357	1,035.64	72.2122	1,035.64	70.7568	1,035.64	71.9221
1,072.27	79.0094	1,072.27	79.0462	1,072.27	78.68	1,072.27	78.7028	1,072.27	78.1814	1,072.27	77.9283	1,072.27	77.6034	1,072.27	76.6837	1,072.27	76.8949	1,072.27	74.951	1,072.27	75.9101	1,072.27	72.9126	1,072.27	74.6424	1,072.27	71.3001	1,072.27	73.2939	1,072.27	70.9747	1,072.27	71.9177	1,072.27	71.2916	1,072.27	70.3302	1,072.27	70.8972	1,072.27	68.8446	1,072.27	69.3676	1,072.27	68.4962	1,072.27	67.6608	1,072.27	69.169	1,072.27	67.7831	1,072.27	69.5585	1,072.27	69.441	1,072.27	69.14	1,072.27	71.1434	1,072.27	68.8534	1,072.27	72.4452	1,072.27	70.0055	1,072.27	73.1292	1,072.27	71.754	1,072.27	72.9236
1,108.89	78.2564	1,108.89	78.2643	1,108.89	78.0051	1,108.89	78.0123	1,108.89	77.5384	1,108.89	77.401	1,108.89	76.9247	1,108.89	76.2772	1,108.89	76.1778	1,108.89	74.6268	1,108.89	75.2807	1,108.89	72.7233	1,108.89	74.2981	1,108.89	70.9823	1,108.89	73.1991	1,108.89	69.7984	1,108.89	71.6663	1,108.89	69.3792	1,108.89	69.5031	1,108.89	69.5762	1,108.89	67.2665	1,108.89	69.5715	1,108.89	66.0529	1,108.89	68.579	1,108.89	66.2991	1,108.89	67.0546	1,108.89	67.5357	1,108.89	66.9485	1,108.89	68.5874	1,108.89	68.4806	1,108.89	68.698	1,108.89	69.9899	1,108.89	68.5714	1,108.89	70.7875	1,108.89	69.4845	1,108.89	70.5946
1,148.44	78.4303	1,148.44	78.5925	1,148.44	78.1807	1,148.44	78.5487	1,148.44	77.8486	1,148.44	78.0303	1,148.44	77.36	1,148.44	76.7419	1,148.44	76.5633	1,148.44	74.6599	1,148.44	75.3483	1,148.44	72.3951	1,148.44	73.8244	1,148.44	70.9195	1,148.44	72.2561	1,148.44	70.3082	1,148.44	70.8409	1,148.44	69.9135	1,148.44	69.6314	1,148.44	69.6269	1,148.44	68.4909	1,148.44	69.5479	1,148.44	67.6252	1,148.44	69.411	1,148.44	67.6796	1,148.44	68.9415	1,148.44	67.9985	1,148.44	68.094	1,148.44	68.0395	1,148.44	67.8221	1,148.44	69.2905	1,148.44	69.11	1,148.44	70.867	1,148.44	70.5024	1,148.44	71.339	1,148.44	71.137
1,189.45	78.8047	1,189.45	78.7013	1,189.45	78.7037	1,189.45	78.4788	1,189.45	78.2971	1,189.45	78.0381	1,189.45	77.5336	1,189.45	77.087	1,189.45	76.4419	1,189.45	75.4739	1,189.45	75.2073	1,189.45	73.5777	1,189.45	74.0503	1,189.45	72.1361	1,189.45	72.7848	1,189.45	71.365	1,189.45	70.864	1,189.45	70.8844	1,189.45	68.5267	1,189.45	70.3195	1,189.45	67.4774	1,189.45	69.4497	1,189.45	67.4476	1,189.45	68.2752	1,189.45	66.7899	1,189.45	67.0427	1,189.45	66.6855	1,189.45	66.8257	1,189.45	67.5707	1,189.45	68.1646	1,189.45	67.4902	1,189.45	69.8169	1,189.45	68.6569	1,189.45	71.0155	1,189.45	70.6828	1,189.45	71.4449
1,230.47	79.6643	1,230.47	79.397	1,230.47	79.4102	1,230.47	78.72	1,230.47	78.6999	1,230.47	77.8002	1,230.47	77.716	1,230.47	76.6214	1,230.47	76.7549	1,230.47	75.1108	1,230.47	76.0618	1,230.47	73.6793	1,230.47	75.3385	1,230.47	72.8331	1,230.47	73.9554	1,230.47	72.1492	1,230.47	71.8552	1,230.47	71.2114	1,230.47	69.8847	1,230.47	70.4941	1,230.47	68.474	1,230.47	70.4671	1,230.47	66.796	1,230.47	70.6096	1,230.47	65.8837	1,230.47	70.1316	1,230.47	66.3941	1,230.47	69.367	1,230.47	67.0441	1,230.47	69.3038	1,230.47	68.3839	1,230.47	69.8564	1,230.47	69.963	1,230.47	70.5443	1,230.47	70.8989	1,230.47	71.0146
1,274.41	79.421	1,274.41	78.96	1,274.41	79.1575	1,274.41	78.006	1,274.41	78.3005	1,274.41	77.031	1,274.41	77.2678	1,274.41	76.2079	1,274.41	76.4658	1,274.41	75.0735	1,274.41	75.9691	1,274.41	73.6037	1,274.41	75.411	1,274.41	72.0815	1,274.41	74.1778	1,274.41	70.2792	1,274.41	71.9392	1,274.41	68.5393	1,274.41	69.7134	1,274.41	68.3253	1,274.41	68.9273	1,274.41	70.0585	1,274.41	67.8773	1,274.41	71.5122	1,274.41	66.8356	1,274.41	70.8839	1,274.41	67.1932	1,274.41	67.3709	1,274.41	65.4459	1,274.41	63.3716	1,274.41	64.9496	1,274.41	66.5151	1,274.41	69.1242	1,274.41	69.5611	1,274.41	71.1241	1,274.41	71.0695
1,319.82	79.7255	1,319.82	79.7279	1,319.82	79.3634	1,319.82	79.2746	1,319.82	78.6639	1,319.82	78.1697	1,319.82	77.6165	1,319.82	76.3144	1,319.82	76.3664	1,319.82	74.4115	1,319.82	75.1641	1,319.82	73.688	1,319.82	73.965	1,319.82	73.4725	1,319.82	72.7717	1,319.82	71.6981	1,319.82	71.8118	1,319.82	68.0018	1,319.82	70.6628	1,319.82	66.6429	1,319.82	68.568	1,319.82	69.0017	1,319.82	66.8172	1,319.82	71.1334	1,319.82	67.311	1,319.82	71.6457	1,319.82	66.8434	1,319.82	70.3656	1,319.82	66.0109	1,319.82	68.2883	1,319.82	67.3366	1,319.82	68.7173	1,319.82	68.9035	1,319.82	70.8894	1,319.82	70.9287	1,319.82	71.8433
1,366.7	79.6081	1,366.7	79.5583	1,366.7	79.2928	1,366.7	79.0243	1,366.7	78.659	1,366.7	77.812	1,366.7	77.7707	1,366.7	76.0724	1,366.7	76.6155	1,366.7	74.8663	1,366.7	75.4161	1,366.7	74.9118	1,366.7	74.6207	1,366.7	74.6819	1,366.7	73.8107	1,366.7	72.3743	1,366.7	72.0676	1,366.7	68.2221	1,366.7	69.8636	1,366.7	64.7989	1,366.7	68.8064	1,366.7	65.0376	1,366.7	67.6909	1,366.7	69.5178	1,366.7	66.9534	1,366.7	72.2615	1,366.7	68.2616	1,366.7	72.1	1,366.7	67.9063	1,366.7	69.8413	1,366.7	65.0063	1,366.7	69.3965	1,366.7	66.606	1,366.7	71.7581	1,366.7	71.0599	1,366.7	72.6634
1,413.57	79.1858	1,413.57	79.6456	1,413.57	78.5673	1,413.57	79.2776	1,413.57	77.9757	1,413.57	77.4438	1,413.57	77.1841	1,413.57	74.7187	1,413.57	76.1496	1,413.57	73.2444	1,413.57	75.3884	1,413.57	73.971	1,413.57	75.0762	1,413.57	74.0519	1,413.57	74.73	1,413.57	71.6787	1,413.57	73.9145	1,413.57	69.9053	1,413.57	71.829	1,413.57	68.1571	1,413.57	67.1598	1,413.57	61.9309	1,413.57	64.112	1,413.57	65.9818	1,413.57	68.8224	1,413.57	70.3811	1,413.57	70.6787	1,413.57	72.1079	1,413.57	68.8013	1,413.57	71.8663	1,413.57	59.304	1,413.57	71.2711	1,413.57	65.7404	1,413.57	72.1045	1,413.57	70.6985	1,413.57	72.2705
1,463.38	78.4769	1,463.38	78.8565	1,463.38	78.0115	1,463.38	78.7864	1,463.38	77.6412	1,463.38	78.0799	1,463.38	77.1868	1,463.38	77.1471	1,463.38	76.4634	1,463.38	75.6903	1,463.38	75.7729	1,463.38	73.1589	1,463.38	74.8805	1,463.38	71.0792	1,463.38	73.7935	1,463.38	69.4892	1,463.38	73.3206	1,463.38	69.3434	1,463.38	72.9234	1,463.38	67.3363	1,463.38	70.8938	1,463.38	64.6312	1,463.38	66.7516	1,463.38	63.796	1,463.38	65.8302	1,463.38	67.7165	1,463.38	68.4509	1,463.38	70.5039	1,463.38	68.6023	1,463.38	70.3124	1,463.38	66.8184	1,463.38	69.9417	1,463.38	64.5956	1,463.38	71.1911	1,463.38	67.5808	1,463.38	70.9317
1,516.11	77.3893	1,516.11	77.7855	1,516.11	77.3186	1,516.11	77.6125	1,516.11	77.5831	1,516.11	77.1846	1,516.11	77.3824	1,516.11	77.2858	1,516.11	76.784	1,516.11	76.5975	1,516.11	75.8822	1,516.11	73.0429	1,516.11	74.1119	1,516.11	67.9195	1,516.11	72.2237	1,516.11	68.9508	1,516.11	72.2152	1,516.11	72.0334	1,516.11	73.0206	1,516.11	72.5119	1,516.11	71.8759	1,516.11	70.392	1,516.11	67.9517	1,516.11	65.2292	1,516.11	64.5757	1,516.11	65.6588	1,516.11	66.8758	1,516.11	69.2109	1,516.11	69.5623	1,516.11	68.7328	1,516.11	67.1269	1,516.11	66.9492	1,516.11	60.5803	1,516.11	67.035	1,516.11	67.0373	1,516.11	67.9379
1,568.85	77.172	1,568.85	76.7693	1,568.85	77.6513	1,568.85	76.995	1,568.85	77.5639	1,568.85	77.55	1,568.85	76.7905	1,568.85	77.4424	1,568.85	76.0193	1,568.85	75.7051	1,568.85	75.5043	1,568.85	72.3206	1,568.85	74.4547	1,568.85	69.5485	1,568.85	72.7196	1,568.85	70.2143	1,568.85	70.726	1,568.85	71.6712	1,568.85	69.7317	1,568.85	71.8952	1,568.85	69.7698	1,568.85	71.3394	1,568.85	68.4868	1,568.85	68.5948	1,568.85	65.9815	1,568.85	62.0919	1,568.85	67.2016	1,568.85	66.8244	1,568.85	69.3435	1,568.85	67.4297	1,568.85	69.4929	1,568.85	65.4181	1,568.85	66.9395	1,568.85	67.1472	1,568.85	64.6751	1,568.85	67.1899
1,624.51	77.3039	1,624.51	76.1447	1,624.51	78.0895	1,624.51	76.2193	1,624.51	78.0162	1,624.51	77.2299	1,624.51	77.3581	1,624.51	77.2121	1,624.51	76.6868	1,624.51	75.3045	1,624.51	75.9025	1,624.51	72.2184	1,624.51	75.0166	1,624.51	70.0378	1,624.51	74.0993	1,624.51	69.544	1,624.51	71.8336	1,624.51	68.483	1,624.51	69.8933	1,624.51	67.4103	1,624.51	70.1137	1,624.51	70.2852	1,624.51	67.8321	1,624.51	71.0637	1,624.51	66.7412	1,624.51	66.4144	1,624.51	65.8245	1,624.51	65.9843	1,624.51	66.2958	1,624.51	67.0467	1,624.51	68.5537	1,624.51	64.6025	1,624.51	64.5202	1,624.51	64.7394	1,624.51	65.2479	1,624.51	66.9573
1,681.64	79.1456	1,681.64	78.8324	1,681.64	78.6612	1,681.64	77.9261	1,681.64	77.9892	1,681.64	77.704	1,681.64	77.4633	1,681.64	77.2874	1,681.64	77.0382	1,681.64	74.8115	1,681.64	75.8449	1,681.64	72.3663	1,681.64	74.3965	1,681.64	71.4953	1,681.64	73.6257	1,681.64	68.9599	1,681.64	71.2962	1,681.64	67.38	1,681.64	67.6825	1,681.64	63.3098	1,681.64	66.9394	1,681.64	67.1826	1,681.64	65.6154	1,681.64	70.7564	1,681.64	68.2001	1,681.64	68.6525	1,681.64	69.7228	1,681.64	65.0064	1,681.64	64.1387	1,681.64	66.7275	1,681.64	69.1124	1,681.64	67.8631	1,681.64	68.9874	1,681.64	67.0371	1,681.64	57.9985	1,681.64	64.7786
1,741.7	78.7972	1,741.7	77.6894	1,741.7	78.895	1,741.7	76.8392	1,741.7	78.3451	1,741.7	77.0544	1,741.7	78.0621	1,741.7	76.5788	1,741.7	77.2068	1,741.7	74.9034	1,741.7	75.7325	1,741.7	74.2451	1,741.7	74.7788	1,741.7	72.1651	1,741.7	73.2138	1,741.7	67.3079	1,741.7	70.3297	1,741.7	65.2682	1,741.7	68.2249	1,741.7	62.1865	1,741.7	67.3287	1,741.7	55.4202	1,741.7	64.4324	1,741.7	67.1312	1,741.7	65.9489	1,741.7	68.9738	1,741.7	66.6387	1,741.7	70.3997	1,741.7	67.5192	1,741.7	69.953	1,741.7	67.5023	1,741.7	64.8527	1,741.7	68.019	1,741.7	64.6961	1,741.7	68.726	1,741.7	66.6342
1,803.22	78.7522	1,803.22	78.7065	1,803.22	78.7625	1,803.22	77.7836	1,803.22	79.0455	1,803.22	75.9783	1,803.22	78.3201	1,803.22	74.6922	1,803.22	76.3523	1,803.22	73.8935	1,803.22	74.0456	1,803.22	74.0883	1,803.22	72.4117	1,803.22	73.1054	1,803.22	72.3115	1,803.22	68.3943	1,803.22	71.6159	1,803.22	66.1457	1,803.22	68.2797	1,803.22	65.4078	1,803.22	64.2468	1,803.22	52.721	1,803.22	64.8461	1,803.22	63.3265	1,803.22	66.7855	1,803.22	64.6095	1,803.22	66.1816	1,803.22	63.4964	1,803.22	65.1631	1,803.22	67.5202	1,803.22	70.5561	1,803.22	67.6343	1,803.22	69.9389	1,803.22	66.179	1,803.22	67.6305	1,803.22	66.6442
1,866.21	78.3346	1,866.21	78.4116	1,866.21	79.2139	1,866.21	78.9026	1,866.21	79.5576	1,866.21	77.7998	1,866.21	79.0017	1,866.21	75.997	1,866.21	78.0092	1,866.21	74.6622	1,866.21	76.3495	1,866.21	72.7589	1,866.21	74.6428	1,866.21	72.0118	1,866.21	73.2796	1,866.21	67.3064	1,866.21	70.9325	1,866.21	58.1868	1,866.21	66.6373	1,866.21	66.3078	1,866.21	67.4801	1,866.21	64.8045	1,866.21	69.8527	1,866.21	59.0557	1,866.21	67.5622	1,866.21	65.8758	1,866.21	65.6208	1,866.21	65.8848	1,866.21	63.9908	1,866.21	65.0127	1,866.21	69.2763	1,866.21	67.4855	1,866.21	70.224	1,866.21	66.0022	1,866.21	64.4509	1,866.21	63.7517
1,932.13	77.5068	1,932.13	78.087	1,932.13	78.4185	1,932.13	78.6618	1,932.13	78.9573	1,932.13	76.577	1,932.13	78.5881	1,932.13	73.2624	1,932.13	78.0638	1,932.13	73.5516	1,932.13	76.5035	1,932.13	72.8633	1,932.13	74.4323	1,932.13	66.1073	1,932.13	72.3261	1,932.13	63.4634	1,932.13	70.234	1,932.13	67.5474	1,932.13	70.0782	1,932.13	70.1646	1,932.13	68.8179	1,932.13	69.4049	1,932.13	60.2172	1,932.13	63.2355	1,932.13	66.9785	1,932.13	61.6536	1,932.13	67.0398	1,932.13	65.5371	1,932.13	65.823	1,932.13	64.7535	1,932.13	68.608	1,932.13	65.683	1,932.13	68.6067	1,932.13	64.9897	1,932.13	67.6657	1,932.13	63.2103
1,999.51	79.2101	1,999.51	78.5877	1,999.51	79.1919	1,999.51	77.5546	1,999.51	79.2426	1,999.51	76.7381	1,999.51	79.1121	1,999.51	76.143	1,999.51	78.2305	1,999.51	74.6907	1,999.51	76.6368	1,999.51	73.0432	1,999.51	74.9019	1,999.51	72.1632	1,999.51	72.5462	1,999.51	69.809	1,999.51	70.5815	1,999.51	66.9102	1,999.51	66.9731	1,999.51	67.7029	1,999.51	61.4863	1,999.51	67.7424	1,999.51	59.4907	1,999.51	59.7318	1,999.51	66.1949	1,999.51	64.3762	1,999.51	67.7521	1,999.51	68.619	1,999.51	64.8686	1,999.51	68.343	1,999.51	66.709	1,999.51	66.37	1,999.51	67.6186	1,999.51	64.5989	1,999.51	66.5693	1,999.51	64.823
2,069.82	79.8857	2,069.82	78.9014	2,069.82	79.6483	2,069.82	76.6816	2,069.82	79.2464	2,069.82	76.0134	2,069.82	78.7067	2,069.82	76.4145	2,069.82	77.5557	2,069.82	75.4917	2,069.82	76.2367	2,069.82	73.5803	2,069.82	74.7384	2,069.82	70.1352	2,069.82	73.6933	2,069.82	66.3268	2,069.82	72.7031	2,069.82	65.1157	2,069.82	67.4003	2,069.82	64.947	2,069.82	60.0865	2,069.82	67.8482	2,069.82	59.4185	2,069.82	66.2851	2,069.82	61.2785	2,069.82	58.8803	2,069.82	66.3561	2,069.82	66.109	2,069.82	64.14	2,069.82	67.1049	2,069.82	67.2321	2,069.82	64.8972	2,069.82	67.7632	2,069.82	63.9084	2,069.82	65.9614	2,069.82	64.4252
2,143.07	79.3706	2,143.07	78.5555	2,143.07	79.6498	2,143.07	77.2016	2,143.07	79.1139	2,143.07	76.6408	2,143.07	78.0938	2,143.07	76.7902	2,143.07	76.5586	2,143.07	75.1888	2,143.07	75.2162	2,143.07	73.2984	2,143.07	74.3979	2,143.07	72.7253	2,143.07	73.0907	2,143.07	70.2287	2,143.07	71.9713	2,143.07	67.4359	2,143.07	69.7389	2,143.07	66.508	2,143.07	64.8641	2,143.07	68.2565	2,143.07	58.4867	2,143.07	68.7593	2,143.07	56.5809	2,143.07	64.5807	2,143.07	64.8565	2,143.07	65.1605	2,143.07	63.3064	2,143.07	67.2228	2,143.07	65.966	2,143.07	65.0491	2,143.07	67.6704	2,143.07	64.5945	2,143.07	65.4551	2,143.07	64.8892
2,219.24	78.5219	2,219.24	77.9665	2,219.24	79.0302	2,219.24	77.7188	2,219.24	79.0667	2,219.24	77.1939	2,219.24	78.028	2,219.24	76.2618	2,219.24	75.3796	2,219.24	74.6525	2,219.24	73.6314	2,219.24	73.6056	2,219.24	72.1561	2,219.24	73.17	2,219.24	71.2663	2,219.24	69.6794	2,219.24	71.2776	2,219.24	65.2396	2,219.24	70.422	2,219.24	64.3814	2,219.24	66.9089	2,219.24	67.2384	2,219.24	63.2343	2,219.24	68.4222	2,219.24	54.1365	2,219.24	65.7902	2,219.24	63.8485	2,219.24	66.2098	2,219.24	64.0187	2,219.24	68.4374	2,219.24	65.4432	2,219.24	64.16	2,219.24	67.004	2,219.24	59.8045	2,219.24	64.1997	2,219.24	59.8309
2,296.88	78.1197	2,296.88	77.0114	2,296.88	79.0289	2,296.88	77.9671	2,296.88	78.8161	2,296.88	77.9545	2,296.88	77.9433	2,296.88	75.1649	2,296.88	75.9254	2,296.88	72.4586	2,296.88	73.3364	2,296.88	72.7762	2,296.88	72.2539	2,296.88	71.847	2,296.88	72.5369	2,296.88	68.7642	2,296.88	70.305	2,296.88	68.3342	2,296.88	68.6728	2,296.88	66.512	2,296.88	68.1829	2,296.88	62.2274	2,296.88	67.3709	2,296.88	68.0344	2,296.88	63.1806	2,296.88	68.4279	2,296.88	61.3797	2,296.88	64.6746	2,296.88	61.9728	2,296.88	68.8093	2,296.88	64.1517	2,296.88	66.2923	2,296.88	67.0748	2,296.88	55.2076	2,296.88	64.8376	2,296.88	56.5504
2,378.91	79.2992	2,378.91	77.2404	2,378.91	79.4216	2,378.91	76.3822	2,378.91	77.9286	2,378.91	76.3683	2,378.91	76.329	2,378.91	73.6368	2,378.91	73.9449	2,378.91	73.3114	2,378.91	72.571	2,378.91	74.5383	2,378.91	72.294	2,378.91	73.2495	2,378.91	72.5722	2,378.91	69.3134	2,378.91	68.8166	2,378.91	64.5222	2,378.91	61.3203	2,378.91	65.9786	2,378.91	66.2472	2,378.91	65.3986	2,378.91	66.638	2,378.91	63.6143	2,378.91	66.6666	2,378.91	67.4966	2,378.91	53.2771	2,378.91	66.3169	2,378.91	61.5827	2,378.91	67.8469	2,378.91	60.5822	2,378.91	67.2019	2,378.91	67.5929	2,378.91	58.9781	2,378.91	65.5956	2,378.91	56.8192
2,462.4	80.75	2,462.4	78.409	2,462.4	81.1814	2,462.4	75.2759	2,462.4	78.9724	2,462.4	74.7408	2,462.4	74.5505	2,462.4	75.0272	2,462.4	71.8389	2,462.4	75.318	2,462.4	72.725	2,462.4	74.3501	2,462.4	70.5186	2,462.4	70.8457	2,462.4	70.0693	2,462.4	70.7417	2,462.4	71.7847	2,462.4	69.4541	2,462.4	70.3825	2,462.4	65.8191	2,462.4	69.5824	2,462.4	65.5395	2,462.4	62.9508	2,462.4	66.2773	2,462.4	64.0321	2,462.4	67.1172	2,462.4	57.4551	2,462.4	65.9376	2,462.4	62.6178	2,462.4	66.1347	2,462.4	56.9284	2,462.4	65.7503	2,462.4	67.3454	2,462.4	59.4367	2,462.4	66.4371	2,462.4	58.8204
2,548.83	80.5076	2,548.83	78.4863	2,548.83	81.4095	2,548.83	75.4006	2,548.83	79.9915	2,548.83	74.2238	2,548.83	75.6806	2,548.83	76.4344	2,548.83	71.7	2,548.83	75.9796	2,548.83	71.5916	2,548.83	73.5531	2,548.83	72.1484	2,548.83	72.2554	2,548.83	72.4437	2,548.83	70.8511	2,548.83	71.5259	2,548.83	65.9133	2,548.83	70.998	2,548.83	66.5499	2,548.83	70.0594	2,548.83	68.066	2,548.83	68.8263	2,548.83	64.141	2,548.83	55.7578	2,548.83	65.8084	2,548.83	63.5362	2,548.83	66.3971	2,548.83	61.879	2,548.83	65.2725	2,548.83	60.7561	2,548.83	62.8537	2,548.83	66.4635	2,548.83	53.8564	2,548.83	65.476	2,548.83	58.8648
2,639.65	79.0874	2,639.65	77.631	2,639.65	80.1468	2,639.65	75.9879	2,639.65	79.7085	2,639.65	74.9114	2,639.65	76.9372	2,639.65	76.3603	2,639.65	73.2577	2,639.65	75.5974	2,639.65	72.0641	2,639.65	72.4624	2,639.65	73.7886	2,639.65	71.4116	2,639.65	69.8044	2,639.65	71.7118	2,639.65	64.3327	2,639.65	69.837	2,639.65	71.6425	2,639.65	64.5784	2,639.65	69.3183	2,639.65	67.215	2,639.65	70.4673	2,639.65	67.817	2,639.65	65.7539	2,639.65	65.4801	2,639.65	66.9376	2,639.65	65.1469	2,639.65	61.7102	2,639.65	65.9848	2,639.65	64.5589	2,639.65	62.3952	2,639.65	67.6364	2,639.65	54.4487	2,639.65	68.7846	2,639.65	61.8735
2,731.93	78.9412	2,731.93	76.9048	2,731.93	79.0585	2,731.93	74.5793	2,731.93	78.085	2,731.93	74.0715	2,731.93	75.492	2,731.93	74.4667	2,731.93	73.0201	2,731.93	74.0396	2,731.93	73.1422	2,731.93	73.3058	2,731.93	73.4932	2,731.93	72.6779	2,731.93	71.054	2,731.93	70.3385	2,731.93	68.8859	2,731.93	65.8719	2,731.93	71.8916	2,731.93	63.0513	2,731.93	70.746	2,731.93	63.3545	2,731.93	68.2407	2,731.93	64.1994	2,731.93	65.9369	2,731.93	66.8156	2,731.93	64.9694	2,731.93	64.8218	2,731.93	61.464	2,731.93	65.0508	2,731.93	62.4478	2,731.93	61.1841	2,731.93	66.1134	2,731.93	46.5813	2,731.93	67.3647	2,731.93	58.8059
2,828.61	79.6827	2,828.61	76.9311	2,828.61	79.7036	2,828.61	71.8675	2,828.61	77.6764	2,828.61	73.0021	2,828.61	73.9821	2,828.61	74.117	2,828.61	71.2616	2,828.61	74.0518	2,828.61	73.2971	2,828.61	73.8811	2,828.61	74.2	2,828.61	72.3549	2,828.61	70.6416	2,828.61	68.3774	2,828.61	70.0901	2,828.61	63.9035	2,828.61	69.8273	2,828.61	62.4943	2,828.61	68.256	2,828.61	62.387	2,828.61	67.5664	2,828.61	64.9435	2,828.61	66.0373	2,828.61	65.2509	2,828.61	61.3467	2,828.61	63.8919	2,828.61	63.3674	2,828.61	64.8271	2,828.61	59.1068	2,828.61	62.7681	2,828.61	64.827	2,828.61	49.9103	2,828.61	65.3344	2,828.61	55.861
2,928.22	79.9799	2,928.22	77.5801	2,928.22	80.0428	2,928.22	71.6759	2,928.22	77.8463	2,928.22	71.6886	2,928.22	71.9941	2,928.22	74.7377	2,928.22	68.8819	2,928.22	74.6813	2,928.22	71.7679	2,928.22	73.4331	2,928.22	73.1264	2,928.22	70.304	2,928.22	71.4026	2,928.22	66.9058	2,928.22	72.2285	2,928.22	66.4217	2,928.22	71.6111	2,928.22	65.1858	2,928.22	63.0793	2,928.22	65.6495	2,928.22	65.3036	2,928.22	63.2598	2,928.22	67.1853	2,928.22	67.3877	2,928.22	61.0865	2,928.22	65.2089	2,928.22	61.1533	2,928.22	63.8888	2,928.22	55.8233	2,928.22	61.4029	2,928.22	67.2031	2,928.22	51.012	2,928.22	67.6126	2,928.22	56.1854
3,030.76	79.9234	3,030.76	77.7697	3,030.76	79.9301	3,030.76	71.3595	3,030.76	77.6593	3,030.76	70.679	3,030.76	70.1336	3,030.76	74.4489	3,030.76	69.1632	3,030.76	75.1821	3,030.76	70.9772	3,030.76	73.1892	3,030.76	74.1196	3,030.76	69.797	3,030.76	72.6195	3,030.76	70.2523	3,030.76	73.1257	3,030.76	69.3555	3,030.76	71.1468	3,030.76	63.0577	3,030.76	60.6235	3,030.76	64.5964	3,030.76	61.4449	3,030.76	63.9964	3,030.76	67.7979	3,030.76	66.2228	3,030.76	62.9169	3,030.76	65.5003	3,030.76	58.2231	3,030.76	64.2359	3,030.76	55.5145	3,030.76	61.8574	3,030.76	64.8362	3,030.76	56.0986	3,030.76	67.3392	3,030.76	57.8716
3,137.7	79.8684	3,137.7	77.6532	3,137.7	79.2322	3,137.7	68.6014	3,137.7	76.8316	3,137.7	70.3847	3,137.7	68.883	3,137.7	74.1068	3,137.7	68.0584	3,137.7	75.0421	3,137.7	72.3277	3,137.7	72.617	3,137.7	74.1748	3,137.7	72.7586	3,137.7	73.0252	3,137.7	71.753	3,137.7	72.7925	3,137.7	68.0017	3,137.7	70.4179	3,137.7	61.639	3,137.7	64.2505	3,137.7	60.0865	3,137.7	59.8724	3,137.7	65.3363	3,137.7	65.1623	3,137.7	64.5942	3,137.7	62.8953	3,137.7	67.478	3,137.7	56.4859	3,137.7	63.045	3,137.7	57.4042	3,137.7	60.8596	3,137.7	63.2513	3,137.7	50.1586	3,137.7	67.5907	3,137.7	59.6922
3,249.02	79.9301	3,249.02	77.0452	3,249.02	78.5364	3,249.02	62.554	3,249.02	74.9882	3,249.02	70.7369	3,249.02	64.3216	3,249.02	74.6942	3,249.02	68.2304	3,249.02	74.7653	3,249.02	73.787	3,249.02	74.3456	3,249.02	74.8303	3,249.02	73.5821	3,249.02	74.2114	3,249.02	69.0418	3,249.02	70.4096	3,249.02	66.1283	3,249.02	67.4733	3,249.02	68.0264	3,249.02	62.6458	3,249.02	62.3149	3,249.02	64.023	3,249.02	64.9765	3,249.02	64.1781	3,249.02	66.8782	3,249.02	65.9022	3,249.02	66.1669	3,249.02	55.9873	3,249.02	64.019	3,249.02	59.4255	3,249.02	60.1343	3,249.02	59.2271	3,249.02	54.5727	3,249.02	66.7902	3,249.02	57.4364
3,363.28	80.191	3,363.28	76.9986	3,363.28	78.5171	3,363.28	61.1801	3,363.28	73.3949	3,363.28	71.013	3,363.28	53.0901	3,363.28	74.7721	3,363.28	69.9522	3,363.28	76.0174	3,363.28	75.3428	3,363.28	75.8671	3,363.28	75.4734	3,363.28	72.6666	3,363.28	73.6875	3,363.28	70.2599	3,363.28	67.3489	3,363.28	70.3051	3,363.28	50.5516	3,363.28	68.3191	3,363.28	59.6583	3,363.28	63.3278	3,363.28	62.898	3,363.28	62.8476	3,363.28	64.6071	3,363.28	66.2296	3,363.28	66.1778	3,363.28	67.866	3,363.28	62.8039	3,363.28	64.9468	3,363.28	55.1902	3,363.28	60.7779	3,363.28	58.8347	3,363.28	57.6206	3,363.28	66.7303	3,363.28	60.5165
3,481.93	79.8696	3,481.93	76.9625	3,481.93	78.2027	3,481.93	66.1871	3,481.93	73.185	3,481.93	70.5944	3,481.93	54.1754	3,481.93	75.2315	3,481.93	72.6015	3,481.93	77.3965	3,481.93	76.8059	3,481.93	75.9535	3,481.93	74.6581	3,481.93	73.7973	3,481.93	72.8918	3,481.93	72.8477	3,481.93	64.1147	3,481.93	69.1005	3,481.93	62.441	3,481.93	65.615	3,481.93	68.3359	3,481.93	64.7528	3,481.93	59.4818	3,481.93	64.4628	3,481.93	62.5613	3,481.93	64.3064	3,481.93	65.7954	3,481.93	67.5126	3,481.93	61.943	3,481.93	64.1323	3,481.93	52.1595	3,481.93	61.7304	3,481.93	59.6127	3,481.93	58.453	3,481.93	67.2382	3,481.93	62.4205
3,604.98	79.8311	3,604.98	76.7993	3,604.98	77.3262	3,604.98	68.975	3,604.98	70.3485	3,604.98	69.1875	3,604.98	62.2147	3,604.98	76.9621	3,604.98	75.1062	3,604.98	77.5715	3,604.98	78.6741	3,604.98	76.3607	3,604.98	74.1997	3,604.98	75.4563	3,604.98	71.3133	3,604.98	70.4425	3,604.98	62.133	3,604.98	64.5875	3,604.98	70.4302	3,604.98	64.9871	3,604.98	72.1607	3,604.98	64.455	3,604.98	62.784	3,604.98	63.699	3,604.98	62.5559	3,604.98	65.4432	3,604.98	67.551	3,604.98	65.6062	3,604.98	62.8548	3,604.98	64.6709	3,604.98	51.9181	3,604.98	61.0317	3,604.98	57.8562	3,604.98	59.3331	3,604.98	65.7235	3,604.98	63.1689
3,732.42	80.6021	3,732.42	77.1535	3,732.42	79.1153	3,732.42	70.345	3,732.42	67.9305	3,732.42	70.8639	3,732.42	68.2182	3,732.42	77.8194	3,732.42	75.9241	3,732.42	78.0035	3,732.42	78.2937	3,732.42	77.2089	3,732.42	76.1934	3,732.42	73.8234	3,732.42	73.429	3,732.42	69.2072	3,732.42	71.1165	3,732.42	68.9367	3,732.42	73.6044	3,732.42	64.5793	3,732.42	72.8972	3,732.42	63.3976	3,732.42	56.6556	3,732.42	61.8744	3,732.42	65.468	3,732.42	66.0172	3,732.42	65.5164	3,732.42	67.6053	3,732.42	62.8819	3,732.42	64.281	3,732.42	53.1448	3,732.42	58.2991	3,732.42	55.3277	3,732.42	60.3879	3,732.42	65.3939	3,732.42	63.8932
3,864.26	78.9392	3,864.26	77.3838	3,864.26	78.0385	3,864.26	71.1819	3,864.26	70.2174	3,864.26	73.8631	3,864.26	69.4623	3,864.26	78.4174	3,864.26	77.6733	3,864.26	78.581	3,864.26	78.216	3,864.26	76.3857	3,864.26	77.4681	3,864.26	72.1947	3,864.26	75.6623	3,864.26	71.8582	3,864.26	71.8374	3,864.26	70.2494	3,864.26	72.1902	3,864.26	66.2867	3,864.26	71.1598	3,864.26	60.7886	3,864.26	54.5225	3,864.26	62.8032	3,864.26	64.7376	3,864.26	61.1425	3,864.26	64.7418	3,864.26	67.3258	3,864.26	65.4944	3,864.26	65.295	3,864.26	49.249	3,864.26	60.7733	3,864.26	59.574	3,864.26	59.0262	3,864.26	65.6247	3,864.26	63.6067
4,000.49	79.1543	4,000.49	78.394	4,000.49	75.8793	4,000.49	70.3147	4,000.49	66.2542	4,000.49	74.1966	4,000.49	71.242	4,000.49	78.6926	4,000.49	77.846	4,000.49	77.874	4,000.49	79.0218	4,000.49	75.3245	4,000.49	78.4059	4,000.49	74.6046	4,000.49	76.3657	4,000.49	71.3875	4,000.49	73.8923	4,000.49	63.4944	4,000.49	73.5519	4,000.49	66.0245	4,000.49	67.7293	4,000.49	63.965	4,000.49	46.0615	4,000.49	61.0988	4,000.49	62.7364	4,000.49	64.7905	4,000.49	63.1465	4,000.49	65.1658	4,000.49	65.5118	4,000.49	64.927	4,000.49	49.8119	4,000.49	60.6277	4,000.49	54.8709	4,000.49	58.2087	4,000.49	64.6352	4,000.49	63.891
4,141.11	80.5177	4,141.11	79.2967	4,141.11	77.4526	4,141.11	69.8053	4,141.11	62.4844	4,141.11	75.9045	4,141.11	73.8337	4,141.11	79.3072	4,141.11	79.206	4,141.11	78.2214	4,141.11	78.5164	4,141.11	76.7189	4,141.11	77.8692	4,141.11	73.7636	4,141.11	76.3549	4,141.11	70.791	4,141.11	76.0262	4,141.11	71.5224	4,141.11	74.2979	4,141.11	67.2246	4,141.11	56.8778	4,141.11	65.4541	4,141.11	58.3855	4,141.11	59.5645	4,141.11	58.5684	4,141.11	64.9256	4,141.11	65.5891	4,141.11	66.6168	4,141.11	63.1068	4,141.11	66.828	4,141.11	57.4727	4,141.11	61.1379	4,141.11	58.7594	4,141.11	60.2107	4,141.11	63.2958	4,141.11	65.5293
4,287.6	80.6198	4,287.6	78.8774	4,287.6	77.5988	4,287.6	68.7825	4,287.6	65.9175	4,287.6	77.166	4,287.6	75.5702	4,287.6	77.7471	4,287.6	79.8764	4,287.6	79.5141	4,287.6	76.8287	4,287.6	77.4529	4,287.6	77.0247	4,287.6	74.1589	4,287.6	77.9003	4,287.6	73.1523	4,287.6	76.7765	4,287.6	63.8054	4,287.6	71.6407	4,287.6	60.4551	4,287.6	67.4044	4,287.6	63.7832	4,287.6	62.2506	4,287.6	62.0313	4,287.6	61.458	4,287.6	60.1359	4,287.6	63.7952	4,287.6	64.4455	4,287.6	59.9543	4,287.6	65.3326	4,287.6	60.4896	4,287.6	60.5429	4,287.6	61.6481	4,287.6	60.913	4,287.6	63.0524	4,287.6	66.4404
4,438.48	81.1338	4,438.48	78.6913	4,438.48	78.2826	4,438.48	72.0297	4,438.48	65.8761	4,438.48	76.5244	4,438.48	75.7204	4,438.48	79.6435	4,438.48	80.1124	4,438.48	79.5669	4,438.48	74.7566	4,438.48	76.2629	4,438.48	77.8261	4,438.48	74.1298	4,438.48	78.7143	4,438.48	66.94	4,438.48	76.1773	4,438.48	68.2562	4,438.48	72.7692	4,438.48	64.0819	4,438.48	67.2068	4,438.48	57.8175	4,438.48	53.428	4,438.48	60.4216	4,438.48	64.5247	4,438.48	49.5492	4,438.48	50.8163	4,438.48	57.5539	4,438.48	60.9286	4,438.48	62.633	4,438.48	62.9422	4,438.48	60.6723	4,438.48	58.8842	4,438.48	62.6795	4,438.48	63.6753	4,438.48	65.2319
4,595.21	80.9659	4,595.21	78.0528	4,595.21	77.7028	4,595.21	71.3919	4,595.21	67.1741	4,595.21	77.3039	4,595.21	77.5673	4,595.21	79.6655	4,595.21	77.6229	4,595.21	78.2091	4,595.21	75.9398	4,595.21	74.991	4,595.21	80.214	4,595.21	68.2567	4,595.21	78.4074	4,595.21	66.324	4,595.21	72.9715	4,595.21	64.7235	4,595.21	74.2896	4,595.21	61.7724	4,595.21	64.7755	4,595.21	58.5468	4,595.21	66.2862	4,595.21	63.649	4,595.21	65.2684	4,595.21	51.4984	4,595.21	63.771	4,595.21	61.2641	4,595.21	62.2893	4,595.21	55.5538	4,595.21	65.3529	4,595.21	51.4791	4,595.21	63.623	4,595.21	63.1818	4,595.21	60.7687	4,595.21	62.8531
4,756.35	81.7455	4,756.35	78.2825	4,756.35	78.4768	4,756.35	71.8419	4,756.35	70.3982	4,756.35	78.74	4,756.35	78.2946	4,756.35	80.4883	4,756.35	74.6083	4,756.35	77.039	4,756.35	77.1454	4,756.35	69.6898	4,756.35	79.6758	4,756.35	68.6318	4,756.35	76.5025	4,756.35	64.3235	4,756.35	72.3795	4,756.35	64.1676	4,756.35	74.1865	4,756.35	63.4652	4,756.35	73.2898	4,756.35	60.3421	4,756.35	71.0433	4,756.35	62.4012	4,756.35	62.4882	4,756.35	63.8168	4,756.35	63.0298	4,756.35	47.7403	4,756.35	63.3389	4,756.35	59.2151	4,756.35	60.9216	4,756.35	58.769	4,756.35	64.014	4,756.35	56.6653	4,756.35	60.0947	4,756.35	64.7694
4,924.8	82.369	4,924.8	78.7812	4,924.8	80.3907	4,924.8	72.4526	4,924.8	68.1272	4,924.8	79.5879	4,924.8	78.0627	4,924.8	80.4231	4,924.8	78.0646	4,924.8	74.3055	4,924.8	77.7456	4,924.8	69.558	4,924.8	77.899	4,924.8	66.0843	4,924.8	72.2633	4,924.8	69.7759	4,924.8	72.0375	4,924.8	66.725	4,924.8	74.3627	4,924.8	63.217	4,924.8	74.6587	4,924.8	60.7226	4,924.8	70.8295	4,924.8	58.106	4,924.8	67.1993	4,924.8	65.2234	4,924.8	58.9791	4,924.8	60.9405	4,924.8	63.7117	4,924.8	55.7528	4,924.8	56.4303	4,924.8	56.9692	4,924.8	62.2765	4,924.8	45.7803	4,924.8	59.9579	4,924.8	66.3042
5,097.66	82.0386	5,097.66	76.7432	5,097.66	79.897	5,097.66	73.7275	5,097.66	66.2637	5,097.66	80.3864	5,097.66	79.1719	5,097.66	79.0638	5,097.66	79.5172	5,097.66	72.7425	5,097.66	77.4968	5,097.66	69.6125	5,097.66	76.6439	5,097.66	71.7989	5,097.66	71.0879	5,097.66	69.6278	5,097.66	70.3527	5,097.66	67.4165	5,097.66	72.6107	5,097.66	64.5388	5,097.66	73.8175	5,097.66	62.0852	5,097.66	66.9601	5,097.66	64.0213	5,097.66	67.2302	5,097.66	64.6905	5,097.66	62.1582	5,097.66	64.6382	5,097.66	63.2677	5,097.66	62.6223	5,097.66	62.059	5,097.66	50.3639	5,097.66	62.3094	5,097.66	52.8337	5,097.66	60.8051	5,097.66	63.4465
5,277.83	82.1458	5,277.83	77.4815	5,277.83	79.6605	5,277.83	76.7579	5,277.83	69.3597	5,277.83	80.6562	5,277.83	78.7043	5,277.83	78.1159	5,277.83	79.9179	5,277.83	73.029	5,277.83	77.553	5,277.83	73.5654	5,277.83	76.5359	5,277.83	70.9307	5,277.83	74.7128	5,277.83	71.654	5,277.83	72.0298	5,277.83	69.2972	5,277.83	73.4733	5,277.83	64.1768	5,277.83	72.9328	5,277.83	61.9983	5,277.83	64.2239	5,277.83	60.8721	5,277.83	63.8659	5,277.83	64.6409	5,277.83	63.8049	5,277.83	64.8596	5,277.83	61.9184	5,277.83	63.5649	5,277.83	60.9192	5,277.83	50.8752	5,277.83	63.3261	5,277.83	54.3777	5,277.83	62.8049	5,277.83	62.1924
5,463.87	82.7172	5,463.87	77.6088	5,463.87	81.9013	5,463.87	78.3021	5,463.87	72.0987	5,463.87	81.0194	5,463.87	80.0404	5,463.87	75.4893	5,463.87	82.3339	5,463.87	74.8344	5,463.87	76.7044	5,463.87	74.6376	5,463.87	74.9901	5,463.87	74.0241	5,463.87	75.6702	5,463.87	69.5109	5,463.87	74.3476	5,463.87	67.1895	5,463.87	74.8604	5,463.87	65.544	5,463.87	70.0832	5,463.87	61.6363	5,463.87	62.9502	5,463.87	62.1219	5,463.87	65.9876	5,463.87	64.4186	5,463.87	65.6967	5,463.87	64.9002	5,463.87	63.2373	5,463.87	66.3436	5,463.87	52.3518	5,463.87	54.6816	5,463.87	59.773	5,463.87	45.7447	5,463.87	62.7279	5,463.87	63.3166
5,657.23	83.8252	5,657.23	74.8233	5,657.23	82.8976	5,657.23	79.8853	5,657.23	73.9087	5,657.23	81.2539	5,657.23	80.6379	5,657.23	76.3468	5,657.23	82.3432	5,657.23	75.5447	5,657.23	75.6776	5,657.23	75.148	5,657.23	73.7382	5,657.23	71.7427	5,657.23	76.9839	5,657.23	71.8033	5,657.23	74.6067	5,657.23	68.8344	5,657.23	73.2179	5,657.23	65.6391	5,657.23	69.9682	5,657.23	62.1239	5,657.23	63.6566	5,657.23	61.7606	5,657.23	65.4159	5,657.23	63.9767	5,657.23	68.1336	5,657.23	63.6543	5,657.23	59.5797	5,657.23	66.1482	5,657.23	58.7748	5,657.23	57.2369	5,657.23	62.7544	5,657.23	42.9806	5,657.23	64.3879	5,657.23	59.7385
5,856.45	82.9885	5,856.45	73.4336	5,856.45	82.6777	5,856.45	82.2382	5,856.45	74.0895	5,856.45	80.7832	5,856.45	81.1709	5,856.45	76.3188	5,856.45	81.7633	5,856.45	76.4958	5,856.45	75.3008	5,856.45	75.5853	5,856.45	74.0369	5,856.45	74.3213	5,856.45	77.7751	5,856.45	70.0597	5,856.45	77.1197	5,856.45	68.8222	5,856.45	75.7542	5,856.45	66.3758	5,856.45	73.3634	5,856.45	63.0577	5,856.45	65.8672	5,856.45	62.5144	5,856.45	66.0622	5,856.45	63.796	5,856.45	64.0785	5,856.45	64.9586	5,856.45	61.6371	5,856.45	64.1304	5,856.45	63.9478	5,856.45	58.2113	5,856.45	65.1263	5,856.45	49.5282	5,856.45	64.2908	5,856.45	61.1518
6,062.99	81.2123	6,062.99	76.404	6,062.99	83.754	6,062.99	82.5283	6,062.99	76.9803	6,062.99	78.7326	6,062.99	81.6467	6,062.99	78.2696	6,062.99	81.0048	6,062.99	77.9069	6,062.99	74.1512	6,062.99	77.0556	6,062.99	73.1016	6,062.99	74.5124	6,062.99	75.9937	6,062.99	74.0583	6,062.99	75.8877	6,062.99	70.5774	6,062.99	74.4817	6,062.99	67.107	6,062.99	66.9606	6,062.99	62.5725	6,062.99	57.5316	6,062.99	63.0449	6,062.99	58.9997	6,062.99	63.135	6,062.99	60.8634	6,062.99	65.9857	6,062.99	63.7592	6,062.99	66.8157	6,062.99	62.128	6,062.99	59.6333	6,062.99	61.5375	6,062.99	48.8737	6,062.99	63.2556	6,062.99	61.0066
6,276.86	79.9684	6,276.86	79.6494	6,276.86	82.7127	6,276.86	81.0735	6,276.86	79.6536	6,276.86	78.1011	6,276.86	80.9738	6,276.86	78.998	6,276.86	79.1203	6,276.86	77.5443	6,276.86	70.7546	6,276.86	77.2006	6,276.86	74.5966	6,276.86	74.5957	6,276.86	75.7096	6,276.86	70.4579	6,276.86	76.7991	6,276.86	68.9603	6,276.86	69.1065	6,276.86	65.8847	6,276.86	67.2874	6,276.86	61.324	6,276.86	64.7463	6,276.86	62.7688	6,276.86	58.8764	6,276.86	61.1321	6,276.86	65.4647	6,276.86	64.0181	6,276.86	65.9658	6,276.86	65.6002	6,276.86	60.9992	6,276.86	58.8539	6,276.86	56.9336	6,276.86	51.7706	6,276.86	61.8755	6,276.86	60.448
6,498.05	80.5865	6,498.05	79.9404	6,498.05	81.2917	6,498.05	80.1262	6,498.05	79.5261	6,498.05	78.3027	6,498.05	81.4972	6,498.05	78.9024	6,498.05	78.185	6,498.05	77.9542	6,498.05	72.5909	6,498.05	77.0443	6,498.05	74.9696	6,498.05	73.9613	6,498.05	77.5358	6,498.05	71.8769	6,498.05	76.269	6,498.05	68.2844	6,498.05	69.8242	6,498.05	64.2084	6,498.05	70.5362	6,498.05	60.5043	6,498.05	61.4563	6,498.05	59.83	6,498.05	59.3783	6,498.05	59.9765	6,498.05	58.9698	6,498.05	64.9786	6,498.05	58.5228	6,498.05	63.439	6,498.05	56.8293	6,498.05	58.3716	6,498.05	52.6859	6,498.05	48.8514	6,498.05	63.095	6,498.05	61.5622
6,726.56	80.3369	6,726.56	79.3725	6,726.56	81.427	6,726.56	79.4296	6,726.56	78.3673	6,726.56	79.1696	6,726.56	81.5586	6,726.56	78.2651	6,726.56	79.262	6,726.56	77.9925	6,726.56	69.3865	6,726.56	76.7838	6,726.56	75.0336	6,726.56	73.3397	6,726.56	78.9343	6,726.56	69.394	6,726.56	73.644	6,726.56	67.4483	6,726.56	72.2176	6,726.56	63.9394	6,726.56	68.5226	6,726.56	60.4756	6,726.56	53.2279	6,726.56	58.2153	6,726.56	58.2977	6,726.56	60.5031	6,726.56	54.4293	6,726.56	59.749	6,726.56	61.0884	6,726.56	64.3625	6,726.56	60.2139	6,726.56	56.9257	6,726.56	57.2492	6,726.56	48.4781	6,726.56	63.7414	6,726.56	59.9293
6,963.87	80.6225	6,963.87	80.0388	6,963.87	81.1791	6,963.87	79.1349	6,963.87	78.5704	6,963.87	78.4992	6,963.87	80.8114	6,963.87	78.2073	6,963.87	80.2128	6,963.87	78.5081	6,963.87	72.5283	6,963.87	75.5122	6,963.87	75.6253	6,963.87	72.1867	6,963.87	77.2947	6,963.87	66.729	6,963.87	71.3199	6,963.87	64.7913	6,963.87	74.2845	6,963.87	61.2608	6,963.87	63.7519	6,963.87	56.8564	6,963.87	61.6978	6,963.87	57.0696	6,963.87	42.2665	6,963.87	59.6384	6,963.87	58.6151	6,963.87	53.2781	6,963.87	56.3708	6,963.87	60.7148	6,963.87	58.7816	6,963.87	55.5462	6,963.87	56.2187	6,963.87	48.3859	6,963.87	61.7643	6,963.87	57.9346
7,209.96	81.2478	7,209.96	80.1471	7,209.96	80.7215	7,209.96	79.1316	7,209.96	79.3352	7,209.96	79.2684	7,209.96	79.9335	7,209.96	78.4284	7,209.96	80.4035	7,209.96	77.9158	7,209.96	76.3838	7,209.96	74.0039	7,209.96	75.3044	7,209.96	69.4059	7,209.96	71.9681	7,209.96	67.9161	7,209.96	67.989	7,209.96	65.0184	7,209.96	71.3807	7,209.96	62.4201	7,209.96	65.6032	7,209.96	58.4022	7,209.96	65.2725	7,209.96	56.7905	7,209.96	49.9661	7,209.96	62.008	7,209.96	61.5932	7,209.96	59.5198	7,209.96	51.4922	7,209.96	58.0005	7,209.96	54.8102	7,209.96	58.8741	7,209.96	53.684	7,209.96	53.049	7,209.96	61.0645	7,209.96	58.8026
7,464.84	81.1459	7,464.84	78.8871	7,464.84	81.2582	7,464.84	79.0967	7,464.84	79.7767	7,464.84	79.4867	7,464.84	79.4459	7,464.84	79.1775	7,464.84	79.2197	7,464.84	77.332	7,464.84	78.6015	7,464.84	73.3193	7,464.84	74.6812	7,464.84	69.5563	7,464.84	67.5029	7,464.84	69.4237	7,464.84	74.0536	7,464.84	68.631	7,464.84	66.2974	7,464.84	64.4976	7,464.84	67.2589	7,464.84	60.5698	7,464.84	67.419	7,464.84	58.0713	7,464.84	54.6199	7,464.84	63.5543	7,464.84	57.4587	7,464.84	62.9022	7,464.84	59.5354	7,464.84	60.3965	7,464.84	57.1514	7,464.84	60.2879	7,464.84	58.134	7,464.84	57.5997	7,464.84	60.8838	7,464.84	55.5315
7,727.05	82.0163	7,727.05	78.904	7,727.05	80.8504	7,727.05	80.39	7,727.05	78.9772	7,727.05	79.8428	7,727.05	78.8749	7,727.05	79.297	7,727.05	77.3724	7,727.05	76.6381	7,727.05	79.5628	7,727.05	74.063	7,727.05	71.3848	7,727.05	73.2301	7,727.05	73.672	7,727.05	70.0342	7,727.05	76.5944	7,727.05	65.8177	7,727.05	68.9595	7,727.05	64.5452	7,727.05	65.8432	7,727.05	59.6665	7,727.05	63.3449	7,727.05	56.9805	7,727.05	54.8379	7,727.05	63.3232	7,727.05	59.5728	7,727.05	63.0305	7,727.05	61.7265	7,727.05	62.989	7,727.05	58.4047	7,727.05	60.6955	7,727.05	55.3761	7,727.05	57.7007	7,727.05	57.9238	7,727.05	58.2656
7,999.51	80.3406	7,999.51	78.2034	7,999.51	80.7678	7,999.51	80.3354	7,999.51	78.735	7,999.51	79.2384	7,999.51	77.8443	7,999.51	79.1558	7,999.51	77.3861	7,999.51	76.0486	7,999.51	80.4578	7,999.51	75.6261	7,999.51	69.4984	7,999.51	72.9989	7,999.51	77.6148	7,999.51	70.1225	7,999.51	77.1649	7,999.51	65.2137	7,999.51	70.7702	7,999.51	64.5106	7,999.51	66.8214	7,999.51	57.1086	7,999.51	59.713	7,999.51	56.8632	7,999.51	58.6442	7,999.51	61.926	7,999.51	60.4875	7,999.51	59.7781	7,999.51	61.4101	7,999.51	62.6191	7,999.51	57.5566	7,999.51	59.1742	7,999.51	56.4404	7,999.51	58.223	7,999.51	58.0834	7,999.51	59.9229
8,282.23	80.9193	8,282.23	79.4749	8,282.23	80.5007	8,282.23	81.0529	8,282.23	79.8223	8,282.23	79.5853	8,282.23	78.3186	8,282.23	78.5102	8,282.23	79.6629	8,282.23	76.5315	8,282.23	80.564	8,282.23	75.8794	8,282.23	72.2734	8,282.23	71.9019	8,282.23	79.0486	8,282.23	70.1984	8,282.23	75.3636	8,282.23	65.6673	8,282.23	71.1279	8,282.23	65.3867	8,282.23	61.4405	8,282.23	56.3888	8,282.23	53.654	8,282.23	57.1348	8,282.23	54.0147	8,282.23	60.5703	8,282.23	54.0393	8,282.23	57.2834	8,282.23	55.8082	8,282.23	62.1789	8,282.23	58.9409	8,282.23	62.9885	8,282.23	59.4646	8,282.23	60.411	8,282.23	56.2529	8,282.23	54.6652
8,573.73	80.1006	8,573.73	78.7707	8,573.73	79.5793	8,573.73	80.5853	8,573.73	80.616	8,573.73	78.4544	8,573.73	80.8356	8,573.73	78.2995	8,573.73	81.5143	8,573.73	76.7936	8,573.73	78.6755	8,573.73	75.9718	8,573.73	76.7743	8,573.73	73.0011	8,573.73	76.6998	8,573.73	71.295	8,573.73	71.4713	8,573.73	67.2438	8,573.73	65.8338	8,573.73	65.1892	8,573.73	64.2114	8,573.73	58.3099	8,573.73	62.248	8,573.73	58.0845	8,573.73	57.3255	8,573.73	60.7382	8,573.73	57.6306	8,573.73	55.8178	8,573.73	53.1231	8,573.73	62.5919	8,573.73	56.5579	8,573.73	61.9486	8,573.73	62.3951	8,573.73	57.5155	8,573.73	49.6896	8,573.73	58.1817
8,876.95	80.5603	8,876.95	79.3051	8,876.95	80.1261	8,876.95	79.8171	8,876.95	80.7986	8,876.95	77.5802	8,876.95	81.4328	8,876.95	77.5606	8,876.95	81.6867	8,876.95	76.7822	8,876.95	76.7241	8,876.95	75.823	8,876.95	75.9065	8,876.95	73.2673	8,876.95	67.3428	8,876.95	69.0555	8,876.95	69.9421	8,876.95	64.8146	8,876.95	59.7937	8,876.95	62.2547	8,876.95	66.4015	8,876.95	55.9683	8,876.95	63.7652	8,876.95	55.3216	8,876.95	51.329	8,876.95	57.0209	8,876.95	57.0022	8,876.95	56.8181	8,876.95	51.8775	8,876.95	60.2815	8,876.95	56.6495	8,876.95	60.5081	8,876.95	59.0716	8,876.95	57.4426	8,876.95	53.1953	8,876.95	52.8356
9,188.96	80.2766	9,188.96	79.5565	9,188.96	80.4118	9,188.96	79.1303	9,188.96	79.2691	9,188.96	76.4921	9,188.96	80.9451	9,188.96	77.2137	9,188.96	78.9218	9,188.96	76.5298	9,188.96	74.965	9,188.96	75.5807	9,188.96	75.319	9,188.96	71.4214	9,188.96	66.7574	9,188.96	66.7869	9,188.96	71.3321	9,188.96	62.0708	9,188.96	61.7084	9,188.96	60.267	9,188.96	65.8317	9,188.96	56.4512	9,188.96	64.2985	9,188.96	54.8525	9,188.96	49.8748	9,188.96	55.0342	9,188.96	54.8766	9,188.96	54.233	9,188.96	51.6948	9,188.96	59.9912	9,188.96	53.9667	9,188.96	56.1723	9,188.96	55.0294	9,188.96	54.6935	9,188.96	56.614	9,188.96	49.7921
9,514.16	80.9524	9,514.16	80.5379	9,514.16	80.9005	9,514.16	79.4583	9,514.16	78.7813	9,514.16	76.1387	9,514.16	80.7698	9,514.16	76.4729	9,514.16	76.1263	9,514.16	76.3321	9,514.16	77.5237	9,514.16	74.5224	9,514.16	74.0508	9,514.16	69.5695	9,514.16	70.6986	9,514.16	65.4884	9,514.16	69.095	9,514.16	59.9867	9,514.16	63.1309	9,514.16	58.558	9,514.16	62.2108	9,514.16	54.5337	9,514.16	61.4623	9,514.16	52.2453	9,514.16	36.6863	9,514.16	58.1598	9,514.16	35.2288	9,514.16	52.6753	9,514.16	53.5429	9,514.16	58.2152	9,514.16	48.3626	9,514.16	56.0156	9,514.16	53.5487	9,514.16	56.7659	9,514.16	58.2395	9,514.16	50.3524
9,849.61	80.7681	9,849.61	80.6921	9,849.61	81.2224	9,849.61	79.5368	9,849.61	79.451	9,849.61	75.2068	9,849.61	78.4314	9,849.61	76.0462	9,849.61	75.2602	9,849.61	75.4825	9,849.61	78.5903	9,849.61	72.159	9,849.61	71.9721	9,849.61	68.1738	9,849.61	70.5462	9,849.61	65.0103	9,849.61	68.1976	9,849.61	60.2116	9,849.61	62.801	9,849.61	56.7516	9,849.61	54.5891	9,849.61	52.3883	9,849.61	58.761	9,849.61	47.602	9,849.61	51.3336	9,849.61	56.6363	9,849.61	48.9017	9,849.61	49.6381	9,849.61	49.752	9,849.61	56.1108	9,849.61	42.8719	9,849.61	55.3096	9,849.61	53.9382	9,849.61	52.896	9,849.61	56.1139	9,849.61	53.9145
10,196.8	81.1304	10,196.8	81.5301	10,196.8	80.755	10,196.8	79.174	10,196.8	80.0049	10,196.8	75.7436	10,196.8	77.1174	10,196.8	76.0071	10,196.8	75.4169	10,196.8	73.8485	10,196.8	77.8542	10,196.8	70.4916	10,196.8	70.6308	10,196.8	66.322	10,196.8	69.3777	10,196.8	63.625	10,196.8	67.5744	10,196.8	58.5408	10,196.8	63.8355	10,196.8	55.5755	10,196.8	58.1212	10,196.8	51.5449	10,196.8	54.5928	10,196.8	51.1858	10,196.8	51.8121	10,196.8	53.9247	10,196.8	52.4779	10,196.8	46.2445	10,196.8	38.021	10,196.8	54.2542	10,196.8	22.7036	10,196.8	52.593	10,196.8	56.0692	10,196.8	53.1992	10,196.8	56.4486	10,196.8	46.8145
10,555.7	81.4942	10,555.7	81.679	10,555.7	81.1235	10,555.7	79.5041	10,555.7	80.9093	10,555.7	76.715	10,555.7	77.7587	10,555.7	75.5727	10,555.7	74.9314	10,555.7	72.9763	10,555.7	75.407	10,555.7	69.7397	10,555.7	72.3886	10,555.7	64.8488	10,555.7	70.7491	10,555.7	61.8818	10,555.7	66.7124	10,555.7	56.5543	10,555.7	65.2431	10,555.7	54.2157	10,555.7	61.9494	10,555.7	47.463	10,555.7	55.3244	10,555.7	51.7532	10,555.7	50.4875	10,555.7	52.2458	10,555.7	49.1407	10,555.7	47.0305	10,555.7	35.6195	10,555.7	52.39	10,555.7	42.0726	10,555.7	53.6463	10,555.7	53.1131	10,555.7	53.3326	10,555.7	56.0797	10,555.7	44.8988
10,927.7	81.6627	10,927.7	81.6617	10,927.7	80.8412	10,927.7	79.8176	10,927.7	80.7402	10,927.7	76.8805	10,927.7	78.2999	10,927.7	75.4628	10,927.7	75.2037	10,927.7	72.1452	10,927.7	72.7884	10,927.7	69.0224	10,927.7	73.6293	10,927.7	64.7081	10,927.7	67.7753	10,927.7	62.0931	10,927.7	63.9028	10,927.7	57.5795	10,927.7	60.7629	10,927.7	53.6764	10,927.7	62.3867	10,927.7	50.3191	10,927.7	58.658	10,927.7	48.9765	10,927.7	48.9481	10,927.7	49.9387	10,927.7	49.8211	10,927.7	49.6788	10,927.7	45.117	10,927.7	52.0722	10,927.7	45.317	10,927.7	54.3443	10,927.7	52.1871	10,927.7	53.1226	10,927.7	55.3378	10,927.7	35.8402
11,313	81.6402	11,313	81.466	11,313	81.1227	11,313	79.7497	11,313	80.0091	11,313	77.0164	11,313	79.4292	11,313	74.8275	11,313	76.8636	11,313	71.2705	11,313	74.0394	11,313	68.7116	11,313	73.606	11,313	65.0204	11,313	60.3363	11,313	61.3846	11,313	63.8974	11,313	57.0764	11,313	57.3167	11,313	52.7597	11,313	62.3576	11,313	50.1027	11,313	60.1491	11,313	48.4452	11,313	51.8611	11,313	46.5552	11,313	40.1347	11,313	50.5453	11,313	43.0214	11,313	51.155	11,313	45.6234	11,313	53.9765	11,313	47.9938	11,313	54.2681	11,313	56.7931	11,313	34.6196
11,712.9	81.2314	11,712.9	80.7591	11,712.9	81.1255	11,712.9	79.0126	11,712.9	81.5365	11,712.9	76.2841	11,712.9	80.1303	11,712.9	72.7364	11,712.9	77.2538	11,712.9	69.1725	11,712.9	74.9666	11,712.9	66.027	11,712.9	71.1748	11,712.9	61.9785	11,712.9	63.0657	11,712.9	56.9445	11,712.9	65.3434	11,712.9	52.5306	11,712.9	56.9777	11,712.9	47.8969	11,712.9	61.5454	11,712.9	44.7998	11,712.9	56.4352	11,712.9	42.2461	11,712.9	47.8495	11,712.9	41.0901	11,712.9	37.421	11,712.9	45.708	11,712.9	41.8206	11,712.9	45.7619	11,712.9	45.3542	11,712.9	50.2522	11,712.9	47.11	11,712.9	47.6995	11,712.9	54.6108	11,712.9	46.3759
12,126	81.4821	12,126	80.4792	12,126	81.2937	12,126	78.3904	12,126	80.3997	12,126	75.3266	12,126	79.7865	12,126	70.8769	12,126	77.2661	12,126	65.5541	12,126	75.1017	12,126	59.4885	12,126	69.7886	12,126	52.6386	12,126	62.9267	12,126	46.56	12,126	63.5783	12,126	42.1154	12,126	59.0117	12,126	34.5779	12,126	55.7124	12,126	26.2056	12,126	47.9758	12,126	35.234	12,126	38.6749	12,126	36.6094	12,126	28.4099	12,126	33.8363	12,126	47.2305	12,126	36.0188	12,126	44.1322	12,126	40.7419	12,126	44.4229	12,126	47.4863	12,126	51.4359	12,126	50.4842
12,553.7	81.6963	12,553.7	80.7748	12,553.7	81.7276	12,553.7	78.4452	12,553.7	81.0669	12,553.7	75.1332	12,553.7	80.0608	12,553.7	70.9463	12,553.7	76.1635	12,553.7	66.6299	12,553.7	74.017	12,553.7	60.411	12,553.7	69.07	12,553.7	49.8767	12,553.7	62.6532	12,553.7	48.2551	12,553.7	58.9768	12,553.7	48.1275	12,553.7	53.1658	12,553.7	44.3727	12,553.7	53.5536	12,553.7	42.2998	12,553.7	54.4595	12,553.7	42.4113	12,553.7	49.1185	12,553.7	35.7168	12,553.7	41.888	12,553.7	45.7863	12,553.7	43.7382	12,553.7	27.3695	12,553.7	39.5561	12,553.7	38.6144	12,553.7	41.6766	12,553.7	50.1939	12,553.7	46.6336	12,553.7	52.9826
12,996.1	81.6019	12,996.1	81.0392	12,996.1	81.742	12,996.1	79.2705	12,996.1	81.1164	12,996.1	75.1588	12,996.1	79.6902	12,996.1	71.9748	12,996.1	75.1305	12,996.1	69.2424	12,996.1	74.2251	12,996.1	62.7652	12,996.1	69.6561	12,996.1	57.1857	12,996.1	61.1239	12,996.1	53.396	12,996.1	61.7955	12,996.1	49.9734	12,996.1	54.8859	12,996.1	46.613	12,996.1	59.5218	12,996.1	45.9581	12,996.1	56.5765	12,996.1	45.1075	12,996.1	49.3038	12,996.1	35.8093	12,996.1	46.0682	12,996.1	50.5214	12,996.1	41.7237	12,996.1	42.4385	12,996.1	40.2307	12,996.1	47.832	12,996.1	31.3482	12,996.1	50.7192	12,996.1	46.4233	12,996.1	52.4744
13,454.6	82.1392	13,454.6	81.3053	13,454.6	82.0103	13,454.6	79.9249	13,454.6	81.0285	13,454.6	75.1161	13,454.6	79.335	13,454.6	73.5202	13,454.6	76.2635	13,454.6	69.9532	13,454.6	75.538	13,454.6	64.2933	13,454.6	69.4716	13,454.6	60.7868	13,454.6	63.4542	13,454.6	57.3898	13,454.6	63.7498	13,454.6	54.9085	13,454.6	57.2861	13,454.6	46.5534	13,454.6	59.6085	13,454.6	48.1083	13,454.6	53.3708	13,454.6	48.1194	13,454.6	39.4788	13,454.6	33.6107	13,454.6	47.3354	13,454.6	53.04	13,454.6	44.2245	13,454.6	47.3802	13,454.6	41.6076	13,454.6	50.6977	13,454.6	40.6648	13,454.6	51.5729	13,454.6	48.4046	13,454.6	52.8079
13,929.2	82.0055	13,929.2	81.0844	13,929.2	81.8736	13,929.2	79.7086	13,929.2	81.3386	13,929.2	74.9938	13,929.2	79.4689	13,929.2	73.329	13,929.2	77.1608	13,929.2	68.8847	13,929.2	74.5406	13,929.2	63.8499	13,929.2	70.874	13,929.2	62.5365	13,929.2	64.9629	13,929.2	57.2237	13,929.2	62.4026	13,929.2	53.8579	13,929.2	58.9487	13,929.2	41.6847	13,929.2	61.6022	13,929.2	48.8357	13,929.2	50.957	13,929.2	48.4613	13,929.2	47.4532	13,929.2	36.7254	13,929.2	44.1016	13,929.2	48.8083	13,929.2	51.6632	13,929.2	45.2761	13,929.2	38.6594	13,929.2	50.3109	13,929.2	43.4331	13,929.2	49.7366	13,929.2	51.4967	13,929.2	47.7687
14,419.9	81.1616	14,419.9	80.5954	14,419.9	81.7674	14,419.9	78.4188	14,419.9	80.5761	14,419.9	74.7854	14,419.9	78.8043	14,419.9	71.5947	14,419.9	75.3015	14,419.9	66.4431	14,419.9	71.4677	14,419.9	61.3565	14,419.9	69.0343	14,419.9	58.141	14,419.9	64.9523	14,419.9	52.3246	14,419.9	61.4383	14,419.9	47.5275	14,419.9	54.76	14,419.9	34.939	14,419.9	60.327	14,419.9	43.8337	14,419.9	55.6547	14,419.9	40.6389	14,419.9	46.5373	14,419.9	29.5845	14,419.9	40.5861	14,419.9	34.3284	14,419.9	48.194	14,419.9	40.7487	14,419.9	41.7633	14,419.9	45.8055	14,419.9	47.3226	14,419.9	45.937	14,419.9	48.887	14,419.9	35.386
14,928.2	80.8335	14,928.2	80.1893	14,928.2	81.2064	14,928.2	77.757	14,928.2	79.8859	14,928.2	74.3993	14,928.2	78.1716	14,928.2	70.5537	14,928.2	74.6101	14,928.2	65.4893	14,928.2	72.2481	14,928.2	59.3634	14,928.2	65.5521	14,928.2	51.1651	14,928.2	62.653	14,928.2	45.6454	14,928.2	54.2847	14,928.2	40.3572	14,928.2	46.1186	14,928.2	33.297	14,928.2	55.5066	14,928.2	37.2116	14,928.2	50.5927	14,928.2	21.6842	14,928.2	38.7504	14,928.2	26.3287	14,928.2	44.8697	14,928.2	39.5921	14,928.2	43.367	14,928.2	37.1116	14,928.2	43.1851	14,928.2	39.3854	14,928.2	44.7262	14,928.2	37.4748	14,928.2	48.569	14,928.2	47.9822
15,455.6	81.1037	15,455.6	80.5634	15,455.6	81.1731	15,455.6	78.1391	15,455.6	79.2532	15,455.6	74.6344	15,455.6	77.3648	15,455.6	70.4289	15,455.6	73.5202	15,455.6	65.7032	15,455.6	69.9656	15,455.6	58.7369	15,455.6	63.6493	15,455.6	51.5996	15,455.6	60.0592	15,455.6	48.6913	15,455.6	53.3037	15,455.6	43.1278	15,455.6	41.448	15,455.6	36.5736	15,455.6	54.9326	15,455.6	40.0966	15,455.6	47.6919	15,455.6	31.6534	15,455.6	42.9519	15,455.6	35.8437	15,455.6	37.8107	15,455.6	35.9819	15,455.6	47.3222	15,455.6	44.5892	15,455.6	34.9056	15,455.6	42.8149	15,455.6	44.2439	15,455.6	38.4656	15,455.6	48.5082	15,455.6	49.8788
16,000.5	81.7992	16,000.5	81.4308	16,000.5	81.6108	16,000.5	79.2083	16,000.5	80.1742	16,000.5	75.4284	16,000.5	77.1272	16,000.5	71.3203	16,000.5	71.1075	16,000.5	67.2406	16,000.5	66.9298	16,000.5	60.659	16,000.5	65.2548	16,000.5	56.6782	16,000.5	56.4932	16,000.5	53.4653	16,000.5	54.4067	16,000.5	48.0573	16,000.5	43.0115	16,000.5	42.1265	16,000.5	46.3648	16,000.5	42.3856	16,000.5	46.8336	16,000.5	31.5686	16,000.5	42.4704	16,000.5	37.175	16,000.5	43.5484	16,000.5	37.9207	16,000.5	47.8449	16,000.5	44.9291	16,000.5	43.0314	16,000.5	43.5602	16,000.5	42.0086	16,000.5	36.5331	16,000.5	50.5422	16,000.5	50.0635
16,564.5	82.1004	16,564.5	81.672	16,564.5	81.3142	16,564.5	79.8869	16,564.5	79.7103	16,564.5	76.0502	16,564.5	76.7183	16,564.5	71.9581	16,564.5	71.9281	16,564.5	67.714	16,564.5	69.0452	16,564.5	60.9646	16,564.5	63.2232	16,564.5	58.0065	16,564.5	58.3423	16,564.5	53.9517	16,564.5	51.3076	16,564.5	48.2593	16,564.5	40.6997	16,564.5	41.1148	16,564.5	47.1416	16,564.5	41.1457	16,564.5	47.9623	16,564.5	36.3069	16,564.5	39.0711	16,564.5	35.7953	16,564.5	40.4862	16,564.5	39.5856	16,564.5	41.6407	16,564.5	46.2509	16,564.5	42.7525	16,564.5	46.0086	16,564.5	45.5888	16,564.5	39.2337	16,564.5	52.1423	16,564.5	42.5484
17,148.9	82.2442	17,148.9	81.7281	17,148.9	81.3494	17,148.9	79.7629	17,148.9	79.5197	17,148.9	75.4365	17,148.9	76.8302	17,148.9	71.2609	17,148.9	72.5862	17,148.9	65.0571	17,148.9	69.2105	17,148.9	56.952	17,148.9	62.0489	17,148.9	53.8552	17,148.9	59.5473	17,148.9	49.675	17,148.9	47.1208	17,148.9	43.8474	17,148.9	37.5411	17,148.9	35.5289	17,148.9	49.4944	17,148.9	38.892	17,148.9	52.7608	17,148.9	35.3093	17,148.9	33.2797	17,148.9	45.6389	17,148.9	31.2535	17,148.9	29.7268	17,148.9	43.2166	17,148.9	40.4989	17,148.9	37.6777	17,148.9	42.0303	17,148.9	44.3363	17,148.9	19.8649	17,148.9	48.9675	17,148.9	41.7407
17,752.4	82.6078	17,752.4	81.9206	17,752.4	81.8371	17,752.4	79.2626	17,752.4	79.7542	17,752.4	74.5373	17,752.4	76.8502	17,752.4	69.5178	17,752.4	72.3575	17,752.4	62.0613	17,752.4	67.1883	17,752.4	55.018	17,752.4	59.6935	17,752.4	53.8737	17,752.4	52.6937	17,752.4	50.3721	17,752.4	46.7218	17,752.4	44.6735	17,752.4	34.0149	17,752.4	37.3626	17,752.4	50.7553	17,752.4	36.0377	17,752.4	53.1142	17,752.4	38.5962	17,752.4	24.5068	17,752.4	48.341	17,752.4	33.9403	17,752.4	33.1448	17,752.4	43.6839	17,752.4	39.2929	17,752.4	41.6672	17,752.4	42.742	17,752.4	40.8903	17,752.4	22.2708	17,752.4	45.7909	17,752.4	37.1781
18,379.4	82.5372	18,379.4	81.8071	18,379.4	81.7014	18,379.4	78.8923	18,379.4	79.4284	18,379.4	73.7683	18,379.4	76.0421	18,379.4	68.305	18,379.4	70.1974	18,379.4	59.9554	18,379.4	63.5399	18,379.4	55.5728	18,379.4	51.7822	18,379.4	55.2784	18,379.4	46.6187	18,379.4	51.3544	18,379.4	38.7652	18,379.4	46.3606	18,379.4	42.1883	18,379.4	35.9279	18,379.4	53.1403	18,379.4	12.8857	18,379.4	54.1547	18,379.4	37.594	18,379.4	11.2428	18,379.4	47.3615	18,379.4	33.1233	18,379.4	30.6625	18,379.4	40.6507	18,379.4	42.6655	18,379.4	39.196	18,379.4	41.3084	18,379.4	34.7699	18,379.4	33.9037	18,379.4	45.902	18,379.4	33.9859
19,026.9	81.9586	19,026.9	81.267	19,026.9	80.9855	19,026.9	78.196	19,026.9	78.2635	19,026.9	72.6579	19,026.9	73.8465	19,026.9	66.2611	19,026.9	66.8821	19,026.9	55.6981	19,026.9	57.7615	19,026.9	57.4438	19,026.9	38.6905	19,026.9	55.6639	19,026.9	50.8789	19,026.9	51.3917	19,026.9	33.0528	19,026.9	48.1213	19,026.9	44.3807	19,026.9	37.0229	19,026.9	56.2123	19,026.9	33.7015	19,026.9	55.7309	19,026.9	35.0031	19,026.9	30.0488	19,026.9	48.0887	19,026.9	34.968	19,026.9	30.2468	19,026.9	37.3382	19,026.9	43.7425	19,026.9	40.3848	19,026.9	42.6679	19,026.9	35.176	19,026.9	35.0558	19,026.9	45.7909	19,026.9	36.2519
19,697.8	81.0003	19,697.8	80.3343	19,697.8	79.9942	19,697.8	76.959	19,697.8	76.9766	19,697.8	70.7146	19,697.8	71.395	19,697.8	62.5531	19,697.8	63.1854	19,697.8	57.5	19,697.8	48.3824	19,697.8	58.4383	19,697.8	52.8588	19,697.8	57.9893	19,697.8	54.2567	19,697.8	54.8547	19,697.8	43.3008	19,697.8	50.1089	19,697.8	46.1323	19,697.8	41.2841	19,697.8	55.1389	19,697.8	35.7533	19,697.8	54.4559	19,697.8	36.1334	19,697.8	34.7595	19,697.8	48.2198	19,697.8	32.9037	19,697.8	38.6354	19,697.8	36.9761	19,697.8	43.2865	19,697.8	38.9838	19,697.8	42.718	19,697.8	41.0982	19,697.8	37.57	19,697.8	48.1672	19,697.8	39.733
19,999.5	80.6154	19,999.5	79.9867	19,999.5	79.4337	19,999.5	76.5613	19,999.5	76.5089	19,999.5	70.4183	19,999.5	70.757	19,999.5	61.2455	19,999.5	61.0028	19,999.5	59.2036	19,999.5	55.5973	19,999.5	59.1896	19,999.5	50.1396	19,999.5	59.6291	19,999.5	56.3794	19,999.5	54.9809	19,999.5	40.8214	19,999.5	50.6185	19,999.5	42.2054	19,999.5	40.3582	19,999.5	55.4758	19,999.5	37.8419	19,999.5	54.8866	19,999.5	30.915	19,999.5	35.3292	19,999.5	47.3562	19,999.5	37.9803	19,999.5	42.5052	19,999.5	44.4246	19,999.5	48.2825	19,999.5	45.6828	19,999.5	27.0457	19,999.5	52.8488	19,999.5	34.2755	19,999.5	52.7283	19,999.5	42.3619
