"SPL Horizontal"
"On-Axis"		"10°"		"-10°"		"20°"		"-20°"		"30°"		"-30°"		"40°"		"-40°"		"50°"		"-50°"		"60°"		"-60°"		"70°"		"-70°"		"80°"		"-80°"		"90°"		"-90°"		"100°"		"-100°"		"110°"		"-110°"		"120°"		"-120°"		"130°"		"-130°"		"140°"		"-140°"		"150°"		"-150°"		"160°"		"-160°"		"170°"		"-170°"		"180°"
"Frequency [Hz]"	"Sound Pessure Level [dB]  / [2.83V 1m] "	"Frequency [Hz]"	"Sound Pessure Level [dB]  / [2.83V 1m] "	"Frequency [Hz]"	"Sound Pessure Level [dB]  / [2.83V 1m] "	"Frequency [Hz]"	"Sound Pessure Level [dB]  / [2.83V 1m] "	"Frequency [Hz]"	"Sound Pessure Level [dB]  / [2.83V 1m] "	"Frequency [Hz]"	"Sound Pessure Level [dB]  / [2.83V 1m] "	"Frequency [Hz]"	"Sound Pessure Level [dB]  / [2.83V 1m] "	"Frequency [Hz]"	"Sound Pessure Level [dB]  / [2.83V 1m] "	"Frequency [Hz]"	"Sound Pessure Level [dB]  / [2.83V 1m] "	"Frequency [Hz]"	"Sound Pessure Level [dB]  / [2.83V 1m] "	"Frequency [Hz]"	"Sound Pessure Level [dB]  / [2.83V 1m] "	"Frequency [Hz]"	"Sound Pessure Level [dB]  / [2.83V 1m] "	"Frequency [Hz]"	"Sound Pessure Level [dB]  / [2.83V 1m] "	"Frequency [Hz]"	"Sound Pessure Level [dB]  / [2.83V 1m] "	"Frequency [Hz]"	"Sound Pessure Level [dB]  / [2.83V 1m] "	"Frequency [Hz]"	"Sound Pessure Level [dB]  / [2.83V 1m] "	"Frequency [Hz]"	"Sound Pessure Level [dB]  / [2.83V 1m] "	"Frequency [Hz]"	"Sound Pessure Level [dB]  / [2.83V 1m] "	"Frequency [Hz]"	"Sound Pessure Level [dB]  / [2.83V 1m] "	"Frequency [Hz]"	"Sound Pessure Level [dB]  / [2.83V 1m] "	"Frequency [Hz]"	"Sound Pessure Level [dB]  / [2.83V 1m] "	"Frequency [Hz]"	"Sound Pessure Level [dB]  / [2.83V 1m] "	"Frequency [Hz]"	"Sound Pessure Level [dB]  / [2.83V 1m] "	"Frequency [Hz]"	"Sound Pessure Level [dB]  / [2.83V 1m] "	"Frequency [Hz]"	"Sound Pessure Level [dB]  / [2.83V 1m] "	"Frequency [Hz]"	"Sound Pessure Level [dB]  / [2.83V 1m] "	"Frequency [Hz]"	"Sound Pessure Level [dB]  / [2.83V 1m] "	"Frequency [Hz]"	"Sound Pessure Level [dB]  / [2.83V 1m] "	"Frequency [Hz]"	"Sound Pessure Level [dB]  / [2.83V 1m] "	"Frequency [Hz]"	"Sound Pessure Level [dB]  / [2.83V 1m] "	"Frequency [Hz]"	"Sound Pessure Level [dB]  / [2.83V 1m] "	"Frequency [Hz]"	"Sound Pessure Level [dB]  / [2.83V 1m] "	"Frequency [Hz]"	"Sound Pessure Level [dB]  / [2.83V 1m] "	"Frequency [Hz]"	"Sound Pessure Level [dB]  / [2.83V 1m] "	"Frequency [Hz]"	"Sound Pessure Level [dB]  / [2.83V 1m] "	"Frequency [Hz]"	"Sound Pessure Level [dB]  / [2.83V 1m] "
20.5078	41.156	20.5078	41.153	20.5078	41.4483	20.5078	41.4461	20.5078	42.0086	20.5078	42.02	20.5078	42.8011	20.5078	42.8299	20.5078	43.7731	20.5078	43.8088	20.5078	44.8598	20.5078	44.8836	20.5078	45.9961	20.5078	45.9908	20.5078	47.1264	20.5078	47.083	20.5078	48.2098	20.5078	48.1282	20.5078	49.2185	20.5078	49.1054	20.5078	50.1352	20.5078	50.0014	20.5078	50.9493	20.5078	50.8068	20.5078	51.654	20.5078	51.5145	20.5078	52.245	20.5078	52.1185	20.5078	52.7187	20.5078	52.6132	20.5078	53.0725	20.5078	52.9936	20.5078	53.3041	20.5078	53.2554	20.5078	53.412	20.5078	53.3955
21.9727	49.5484	21.9727	49.5418	21.9727	49.5816	21.9727	49.5614	21.9727	49.65	21.9727	49.6163	21.9727	49.7695	21.9727	49.7234	21.9727	49.9592	21.9727	49.9054	21.9727	50.2372	21.9727	50.1846	21.9727	50.6149	21.9727	50.5756	21.9727	51.0921	21.9727	51.0786	21.9727	51.6555	21.9727	51.6767	21.9727	52.2804	21.9727	52.3392	21.9727	52.9358	21.9727	53.0279	21.9727	53.5885	21.9727	53.7047	21.9727	54.2076	21.9727	54.3356	21.9727	54.7665	21.9727	54.893	21.9727	55.2434	21.9727	55.356	21.9727	55.621	21.9727	55.7093	21.9727	55.8867	21.9727	55.9429	21.9727	56.0317	21.9727	56.051
23.4375	49.1036	23.4375	49.0508	23.4375	49.0137	23.4375	48.857	23.4375	48.7831	23.4375	48.5279	23.4375	48.4177	23.4375	48.0763	23.4375	47.9306	23.4375	47.527	23.4375	47.347	23.4375	46.9253	23.4375	46.7125	23.4375	46.3467	23.4375	46.1031	23.4375	45.898	23.4375	45.627	23.4375	45.6935	23.4375	45.4015	23.4375	45.7997	23.4375	45.4969	23.4375	46.1904	23.4375	45.8901	23.4375	46.7634	23.4375	46.479	23.4375	47.3985	23.4375	47.142	23.4375	47.9991	23.4375	47.7807	23.4375	48.5021	23.4375	48.3303	23.4375	48.8707	23.4375	48.7523	23.4375	49.0855	23.4375	49.0251	23.4375	49.1376
24.9023	46.748	24.9023	46.7456	24.9023	46.6759	24.9023	46.679	24.9023	46.5446	24.9023	46.5835	24.9023	46.3968	24.9023	46.5205	24.9023	46.3047	24.9023	46.5703	24.9023	46.3612	24.9023	46.811	24.9023	46.6505	24.9023	47.2841	24.9023	47.2061	24.9023	47.9724	24.9023	47.9897	24.9023	48.8099	24.9023	48.9142	24.9023	49.7146	24.9023	49.8854	24.9023	50.6151	24.9023	50.8282	24.9023	51.4596	24.9023	51.6918	24.9023	52.2148	24.9023	52.4449	24.9023	52.8594	24.9023	53.0688	24.9023	53.3802	24.9023	53.5529	24.9023	53.7683	24.9023	53.8912	24.9023	54.0173	24.9023	54.0812	24.9023	54.1227
26.3672	53.1391	26.3672	53.128	26.3672	53.1	26.3672	53.0698	26.3672	53.0134	26.3672	52.9733	26.3672	52.8882	26.3672	52.8533	26.3672	52.7399	26.3672	52.7312	26.3672	52.5915	26.3672	52.6338	26.3672	52.4732	26.3672	52.5913	26.3672	52.4197	26.3672	52.6319	26.3672	52.464	26.3672	52.7748	26.3672	52.6281	26.3672	53.0234	26.3672	52.9138	26.3672	53.3627	26.3672	53.2998	26.3672	53.7625	26.3672	53.7468	26.3672	54.1849	26.3672	54.2082	26.3672	54.5916	26.3672	54.6394	26.3672	54.9486	26.3672	55.004	26.3672	55.2285	26.3672	55.2758	26.3672	55.4113	26.3672	55.4382	26.3672	55.4834
27.832	53.0326	27.832	53.0089	27.832	52.9831	27.832	52.9131	27.832	52.8629	27.832	52.7505	27.832	52.6786	27.832	52.5318	27.832	52.4432	27.832	52.2766	27.832	52.1791	27.832	52.0156	27.832	51.9203	27.832	51.7915	27.832	51.713	27.832	51.6544	27.832	51.6079	27.832	51.6481	27.832	51.6458	27.832	51.7941	27.832	51.8397	27.832	52.0802	27.832	52.1671	27.832	52.4649	27.832	52.5789	27.832	52.8936	27.832	53.0175	27.832	53.3134	27.832	53.4312	27.832	53.6822	27.832	53.7809	27.832	53.9699	27.832	54.0405	27.832	54.1573	27.832	54.194	27.832	54.2335
29.2969	55.8555	29.2969	55.8421	29.2969	55.8301	29.2969	55.7934	29.2969	55.7684	29.2969	55.7188	29.2969	55.6787	29.2969	55.6334	29.2969	55.5754	29.2969	55.5578	29.2969	55.4782	29.2969	55.5164	29.2969	55.411	29.2969	55.5337	29.2969	55.3987	29.2969	55.6293	29.2969	55.4627	29.2969	55.8119	29.2969	55.6149	29.2969	56.0759	29.2969	55.8543	29.2969	56.4021	29.2969	56.1659	29.2969	56.7619	29.2969	56.5244	29.2969	57.123	29.2969	56.8986	29.2969	57.455	29.2969	57.2574	29.2969	57.732	29.2969	57.5732	29.2969	57.9345	29.2969	57.8235	29.2969	58.0492	29.2969	57.9921	29.2969	58.0688
30.7617	59.1598	30.7617	59.1591	30.7617	59.1264	30.7617	59.1258	30.7617	59.0604	30.7617	59.0645	30.7617	58.9658	30.7617	58.9827	30.7617	58.8501	30.7617	58.8912	30.7617	58.7238	30.7617	58.8043	30.7617	58.6015	30.7617	58.7385	30.7617	58.5005	30.7617	58.7107	30.7617	58.4399	30.7617	58.7346	30.7617	58.4372	30.7617	58.8177	30.7617	58.5041	30.7617	58.9578	30.7617	58.6421	30.7617	59.1427	30.7617	58.8411	30.7617	59.3523	30.7617	59.0802	30.7617	59.5624	30.7617	59.3324	30.7617	59.7484	30.7617	59.5697	30.7617	59.8888	30.7617	59.7672	30.7617	59.9674	30.7617	59.9059	30.7617	59.9741
32.2266	59.6441	32.2266	59.6408	32.2266	59.6093	32.2266	59.6002	32.2266	59.5377	32.2266	59.5259	32.2266	59.4333	32.2266	59.4243	32.2266	59.303	32.2266	59.3051	32.2266	59.1571	32.2266	59.1812	32.2266	59.0093	32.2266	59.068	32.2266	58.8765	32.2266	58.9819	32.2266	58.777	32.2266	58.9375	32.2266	58.7272	32.2266	58.9443	32.2266	58.7382	32.2266	59.0043	32.2266	58.8118	32.2266	59.1104	32.2266	58.9396	32.2266	59.2478	32.2266	59.1041	32.2266	59.3968	32.2266	59.2829	32.2266	59.5366	32.2266	59.4528	32.2266	59.648	32.2266	59.5933	32.2266	59.7161	32.2266	59.6892	32.2266	59.731
33.6914	60.4342	33.6914	60.4088	33.6914	60.4195	33.6914	60.3447	33.6914	60.3656	33.6914	60.247	33.6914	60.2771	33.6914	60.1233	33.6914	60.1614	33.6914	59.9846	33.6914	60.0291	33.6914	59.8443	33.6914	59.8934	33.6914	59.718	33.6914	59.7696	33.6914	59.6218	33.6914	59.6732	33.6914	59.5696	33.6914	59.6179	33.6914	59.5704	33.6914	59.6127	33.6914	59.6259	33.6914	59.66	33.6914	59.729	33.6914	59.7539	33.6914	59.865	33.6914	59.8812	33.6914	60.0145	33.6914	60.0235	33.6914	60.1567	33.6914	60.1607	33.6914	60.2729	33.6914	60.2742	33.6914	60.3486	33.6914	60.3487	33.6914	60.3747
35.1562	62.4289	35.1562	62.4206	35.1562	62.409	35.1562	62.3851	35.1562	62.3619	35.1562	62.3254	35.1562	62.2902	35.1562	62.2463	35.1562	62.1989	35.1562	62.1554	35.1562	62.0952	35.1562	62.0624	35.1562	61.9888	35.1562	61.979	35.1562	61.8914	35.1562	61.918	35.1562	61.816	35.1562	61.8908	35.1562	61.7751	35.1562	61.9054	35.1562	61.7779	35.1562	61.9633	35.1562	61.8278	35.1562	62.0589	35.1562	61.9213	35.1562	62.1798	35.1562	62.0475	35.1562	62.3092	35.1562	62.1903	35.1562	62.4287	35.1562	62.3312	35.1562	62.5216	35.1562	62.4524	35.1562	62.5751	35.1562	62.5391	35.1562	62.5815
36.6211	64.1241	36.6211	64.114	36.6211	64.1095	36.6211	64.0802	36.6211	64.0709	36.6211	64.026	36.6211	64.0111	36.6211	63.9565	36.6211	63.935	36.6211	63.8791	36.6211	63.8496	36.6211	63.8027	36.6211	63.7634	36.6211	63.7376	36.6211	63.6865	36.6211	63.6939	36.6211	63.6293	36.6211	63.6799	36.6211	63.601	36.6211	63.7006	36.6211	63.6078	36.6211	63.7558	36.6211	63.6516	36.6211	63.8399	36.6211	63.729	36.6211	63.9425	36.6211	63.8317	36.6211	64.0499	36.6211	63.9472	36.6211	64.1477	36.6211	64.0615	36.6211	64.2227	36.6211	64.1604	36.6211	64.2648	36.6211	64.2322	36.6211	64.2683
38.0859	65.3419	38.0859	65.3374	38.0859	65.3234	38.0859	65.3107	38.0859	65.2826	38.0859	65.265	38.0859	65.2226	38.0859	65.2053	38.0859	65.1483	38.0859	65.1381	38.0859	65.0662	38.0859	65.0713	38.0859	64.9842	38.0859	65.0134	38.0859	64.9109	38.0859	64.9726	38.0859	64.8551	38.0859	64.9559	38.0859	64.8244	38.0859	64.9675	38.0859	64.8245	38.0859	65.008	38.0859	64.8577	38.0859	65.0735	38.0859	64.9222	38.0859	65.1561	38.0859	65.0114	38.0859	65.2445	38.0859	65.1151	38.0859	65.326	38.0859	65.2203	38.0859	65.3885	38.0859	65.3137	38.0859	65.422	38.0859	65.3832	38.0859	65.4206
39.5508	66.0951	39.5508	66.088	39.5508	66.0807	39.5508	66.06	39.5508	66.0453	39.5508	66.0133	39.5508	65.9908	39.5508	65.9511	39.5508	65.9205	39.5508	65.8784	39.5508	65.839	39.5508	65.8014	39.5508	65.7524	39.5508	65.7274	39.5508	65.6683	39.5508	65.6645	39.5508	65.5949	39.5508	65.6201	39.5508	65.5407	39.5508	65.6001	39.5508	65.5129	39.5508	65.6074	39.5508	65.5154	39.5508	65.6407	39.5508	65.5485	39.5508	65.6944	39.5508	65.6073	39.5508	65.7594	39.5508	65.6826	39.5508	65.8241	39.5508	65.7623	39.5508	65.8771	39.5508	65.834	39.5508	65.9087	39.5508	65.8865	39.5508	65.9124
41.0156	66.4799	41.0156	66.4639	41.0156	66.4715	41.0156	66.4241	41.0156	66.4391	41.0156	66.3623	41.0156	66.3846	41.0156	66.2817	41.0156	66.3109	41.0156	66.1868	41.0156	66.2225	41.0156	66.0836	41.0156	66.1254	41.0156	65.9794	41.0156	66.0269	41.0156	65.8821	41.0156	65.935	41.0156	65.7998	41.0156	65.8576	41.0156	65.7388	41.0156	65.8009	41.0156	65.7033	41.0156	65.7684	41.0156	65.6938	41.0156	65.7601	41.0156	65.7074	41.0156	65.7719	41.0156	65.7378	41.0156	65.7968	41.0156	65.7769	41.0156	65.8263	41.0156	65.8159	41.0156	65.8515	41.0156	65.847	41.0156	65.8657	41.0156	65.8644
42.4805	67.565	42.4805	67.5485	42.4805	67.5587	42.4805	67.5098	42.4805	67.5303	42.4805	67.4509	42.4805	67.4816	42.4805	67.3751	42.4805	67.4156	42.4805	67.2865	42.4805	67.3367	42.4805	67.1907	42.4805	67.2499	42.4805	67.0938	42.4805	67.161	42.4805	67.0021	42.4805	67.0759	42.4805	66.9218	42.4805	66.9997	42.4805	66.8577	42.4805	66.9368	42.4805	66.8127	42.4805	66.8897	42.4805	66.7876	42.4805	66.859	42.4805	66.7804	42.4805	66.8431	42.4805	66.787	42.4805	66.8388	42.4805	66.8021	42.4805	66.8415	42.4805	66.8199	42.4805	66.8462	42.4805	66.8354	42.4805	66.8485	42.4805	66.8453
43.9453	69.0836	43.9453	69.0742	43.9453	69.0768	43.9453	69.0494	43.9453	69.0543	43.9453	69.0106	43.9453	69.0172	43.9453	68.9602	43.9453	68.9677	43.9453	68.9013	43.9453	68.9086	43.9453	68.838	43.9453	68.8438	43.9453	68.7747	43.9453	68.7777	43.9453	68.7164	43.9453	68.7152	43.9453	68.6679	43.9453	68.6612	43.9453	68.6331	43.9453	68.62	43.9453	68.6144	43.9453	68.5947	43.9453	68.6119	43.9453	68.5865	43.9453	68.6235	43.9453	68.5942	43.9453	68.6445	43.9453	68.6144	43.9453	68.6689	43.9453	68.6416	43.9453	68.6901	43.9453	68.6693	43.9453	68.7028	43.9453	68.6915	43.9453	68.7034
45.4102	70.2969	45.4102	70.293	45.4102	70.2898	45.4102	70.2783	45.4102	70.2719	45.4102	70.2542	45.4102	70.2443	45.4102	70.2226	45.4102	70.2089	45.4102	70.1862	45.4102	70.1683	45.4102	70.1485	45.4102	70.126	45.4102	70.1135	45.4102	70.0859	45.4102	70.0853	45.4102	70.0523	45.4102	70.068	45.4102	70.0292	45.4102	70.0646	45.4102	70.0199	45.4102	70.0765	45.4102	70.0266	45.4102	70.1028	45.4102	70.0492	45.4102	70.14	45.4102	70.0855	45.4102	70.1826	45.4102	70.1309	45.4102	70.2236	45.4102	70.1792	45.4102	70.2561	45.4102	70.2235	45.4102	70.2743	45.4102	70.257	45.4102	70.2748
46.875	70.7819	46.875	70.7783	46.875	70.7747	46.875	70.7643	46.875	70.7568	46.875	70.7411	46.875	70.7291	46.875	70.7107	46.875	70.6934	46.875	70.6758	46.875	70.652	46.875	70.64	46.875	70.6084	46.875	70.607	46.875	70.5663	46.875	70.5811	46.875	70.5302	46.875	70.5657	46.875	70.5042	46.875	70.5635	46.875	70.492	46.875	70.5752	46.875	70.4956	46.875	70.5994	46.875	70.5153	46.875	70.6327	46.875	70.549	46.875	70.6699	46.875	70.5924	46.875	70.7046	46.875	70.6396	46.875	70.7308	46.875	70.6839	46.875	70.7435	46.875	70.7188	46.875	70.7395
48.3398	71.0352	48.3398	71.0344	48.3398	71.024	48.3398	71.0218	48.3398	71.0011	48.3398	70.9981	48.3398	70.9673	48.3398	70.9647	48.3398	70.9242	48.3398	70.9237	48.3398	70.8737	48.3398	70.8778	48.3398	70.8185	48.3398	70.8303	48.3398	70.7621	48.3398	70.7844	48.3398	70.7081	48.3398	70.7436	48.3398	70.6606	48.3398	70.7108	48.3398	70.623	48.3398	70.6877	48.3398	70.5981	48.3398	70.6748	48.3398	70.5871	48.3398	70.6712	48.3398	70.5895	48.3398	70.6742	48.3398	70.6029	48.3398	70.6804	48.3398	70.6231	48.3398	70.6855	48.3398	70.6455	48.3398	70.686	48.3398	70.6655	48.3398	70.6795
51.2695	72.4948	51.2695	72.488	51.2695	72.4859	51.2695	72.4655	51.2695	72.4614	51.2695	72.4279	51.2695	72.4223	51.2695	72.3764	51.2695	72.3698	51.2695	72.3125	51.2695	72.3058	51.2695	72.2386	51.2695	72.2325	51.2695	72.1574	51.2695	72.1528	51.2695	72.0721	51.2695	72.0699	51.2695	71.9863	51.2695	71.9874	51.2695	71.9036	51.2695	71.9084	51.2695	71.827	51.2695	71.8357	51.2695	71.7593	51.2695	71.7714	51.2695	71.7021	51.2695	71.7166	51.2695	71.6566	51.2695	71.6717	51.2695	71.6227	51.2695	71.6366	51.2695	71.6003	51.2695	71.6108	51.2695	71.5885	51.2695	71.5942	51.2695	71.5867
52.7344	73.4758	52.7344	73.4716	52.7344	73.4693	52.7344	73.457	52.7344	73.4525	52.7344	73.4327	52.7344	73.4258	52.7344	73.3996	52.7344	73.3902	52.7344	73.359	52.7344	73.3471	52.7344	73.3128	52.7344	73.2985	52.7344	73.263	52.7344	73.2467	52.7344	73.2121	52.7344	73.1942	52.7344	73.1625	52.7344	73.1437	52.7344	73.1165	52.7344	73.0975	52.7344	73.076	52.7344	73.0575	52.7344	73.0422	52.7344	73.025	52.7344	73.0159	52.7344	73.0004	52.7344	72.9965	52.7344	72.9834	52.7344	72.9833	52.7344	72.9729	52.7344	72.9748	52.7344	72.9676	52.7344	72.9696	52.7344	72.9659	52.7344	72.9668
54.1992	74.2323	54.1992	74.2334	54.1992	74.226	54.1992	74.2292	54.1992	74.2146	54.1992	74.2201	54.1992	74.1987	54.1992	74.2067	54.1992	74.179	54.1992	74.1897	54.1992	74.1567	54.1992	74.1702	54.1992	74.133	54.1992	74.1497	54.1992	74.1096	54.1992	74.1296	54.1992	74.0881	54.1992	74.1118	54.1992	74.0702	54.1992	74.0978	54.1992	74.0575	54.1992	74.089	54.1992	74.0511	54.1992	74.0861	54.1992	74.0515	54.1992	74.0887	54.1992	74.0583	54.1992	74.0957	54.1992	74.0701	54.1992	74.1046	54.1992	74.0845	54.1992	74.1127	54.1992	74.0989	54.1992	74.1174	54.1992	74.1104	54.1992	74.1168
55.6641	74.6563	55.6641	74.6574	55.6641	74.6524	55.6641	74.6558	55.6641	74.6457	55.6641	74.6518	55.6641	74.6367	55.6641	74.6459	55.6641	74.6258	55.6641	74.6386	55.6641	74.6137	55.6641	74.6309	55.6641	74.6014	55.6641	74.6237	55.6641	74.59	55.6641	74.6185	55.6641	74.5808	55.6641	74.6165	55.6641	74.5754	55.6641	74.6191	55.6641	74.5753	55.6641	74.6269	55.6641	74.5815	55.6641	74.6401	55.6641	74.5946	55.6641	74.6576	55.6641	74.6139	55.6641	74.6773	55.6641	74.6379	55.6641	74.6962	55.6641	74.6637	55.6641	74.711	55.6641	74.6878	55.6641	74.7186	55.6641	74.7065	55.6641	74.7173
58.5938	74.8304	58.5938	74.8314	58.5938	74.8244	58.5938	74.8273	58.5938	74.8136	58.5938	74.8182	58.5938	74.7981	58.5938	74.8043	58.5938	74.7784	58.5938	74.7861	58.5938	74.7548	58.5938	74.7644	58.5938	74.7281	58.5938	74.7404	58.5938	74.6996	58.5938	74.7154	58.5938	74.6706	58.5938	74.691	58.5938	74.643	58.5938	74.6686	58.5938	74.6185	58.5938	74.6494	58.5938	74.5988	58.5938	74.6341	58.5938	74.5849	58.5938	74.6229	58.5938	74.5773	58.5938	74.6152	58.5938	74.5755	58.5938	74.6101	58.5938	74.5783	58.5938	74.6061	58.5938	74.5839	58.5938	74.6019	58.5938	74.5906	58.5938	74.5968
60.0586	75.2671	60.0586	75.2658	60.0586	75.2612	60.0586	75.2569	60.0586	75.2481	60.0586	75.2406	60.0586	75.228	60.0586	75.2167	60.0586	75.2012	60.0586	75.1855	60.0586	75.1679	60.0586	75.1476	60.0586	75.1288	60.0586	75.1036	60.0586	75.0845	60.0586	75.0548	60.0586	75.0362	60.0586	75.0027	60.0586	74.9854	60.0586	74.9491	60.0586	74.9337	60.0586	74.896	60.0586	74.883	60.0586	74.8456	60.0586	74.8354	60.0586	74.7998	60.0586	74.7925	60.0586	74.7604	60.0586	74.7557	60.0586	74.7287	60.0586	74.7262	60.0586	74.7057	60.0586	74.7046	60.0586	74.6918	60.0586	74.6914	60.0586	74.6871
62.9883	76.6191	62.9883	76.6165	62.9883	76.6148	62.9883	76.6071	62.9883	76.6037	62.9883	76.5904	62.9883	76.5859	62.9883	76.5661	62.9883	76.5612	62.9883	76.5341	62.9883	76.5297	62.9883	76.4941	62.9883	76.4914	62.9883	76.4465	62.9883	76.4467	62.9883	76.3916	62.9883	76.3962	62.9883	76.3307	62.9883	76.3408	62.9883	76.2653	62.9883	76.2818	62.9883	76.1979	62.9883	76.2207	62.9883	76.1312	62.9883	76.1594	62.9883	76.0684	62.9883	76.0999	62.9883	76.0129	62.9883	76.0447	62.9883	75.9678	62.9883	75.9963	62.9883	75.9358	62.9883	75.9573	62.9883	75.9185	62.9883	75.9301	62.9883	75.9168
64.4531	76.8857	64.4531	76.8847	64.4531	76.8848	64.4531	76.8815	64.4531	76.882	64.4531	76.8757	64.4531	76.8773	64.4531	76.8669	64.4531	76.8705	64.4531	76.8545	64.4531	76.8615	64.4531	76.8384	64.4531	76.85	64.4531	76.8182	64.4531	76.8359	64.4531	76.7943	64.4531	76.819	64.4531	76.7673	64.4531	76.7994	64.4531	76.7382	64.4531	76.7775	64.4531	76.7085	64.4531	76.7538	64.4531	76.6799	64.4531	76.729	64.4531	76.6542	64.4531	76.7039	64.4531	76.6331	64.4531	76.6796	64.4531	76.6179	64.4531	76.6572	64.4531	76.6092	64.4531	76.6378	64.4531	76.6073	64.4531	76.6224	64.4531	76.6119
67.3828	76.8904	67.3828	76.8871	67.3828	76.8959	67.3828	76.886	67.3828	76.9032	67.3828	76.8869	67.3828	76.9121	67.3828	76.8896	67.3828	76.9217	67.3828	76.8937	67.3828	76.9315	67.3828	76.8985	67.3828	76.9409	67.3828	76.9039	67.3828	76.9493	67.3828	76.9094	67.3828	76.9565	67.3828	76.915	67.3828	76.9622	67.3828	76.9209	67.3828	76.9665	67.3828	76.9272	67.3828	76.9697	67.3828	76.9342	67.3828	76.9722	67.3828	76.942	67.3828	76.9744	67.3828	76.9502	67.3828	76.9764	67.3828	76.9585	67.3828	76.9781	67.3828	76.9661	67.3828	76.9791	67.3828	76.9723	67.3828	76.9788	67.3828	76.9766
68.8477	76.7948	68.8477	76.7867	68.8477	76.8027	68.8477	76.7787	68.8477	76.81	68.8477	76.7707	68.8477	76.8158	68.8477	76.7626	68.8477	76.8195	68.8477	76.7543	68.8477	76.8203	68.8477	76.7455	68.8477	76.8175	68.8477	76.7363	68.8477	76.8109	68.8477	76.7268	68.8477	76.8003	68.8477	76.7173	68.8477	76.7863	68.8477	76.7081	68.8477	76.7696	68.8477	76.6995	68.8477	76.7514	68.8477	76.6919	68.8477	76.733	68.8477	76.6853	68.8477	76.7157	68.8477	76.68	68.8477	76.7006	68.8477	76.6758	68.8477	76.6887	68.8477	76.673	68.8477	76.68	68.8477	76.6717	68.8477	76.6747	68.8477	76.672
71.7773	77.4139	71.7773	77.4055	71.7773	77.4185	71.7773	77.3932	71.7773	77.419	71.7773	77.3769	71.7773	77.4153	71.7773	77.3564	71.7773	77.4069	71.7773	77.3316	71.7773	77.3934	71.7773	77.3022	71.7773	77.3742	71.7773	77.2684	71.7773	77.349	71.7773	77.2302	71.7773	77.3176	71.7773	77.1886	71.7773	77.2802	71.7773	77.1444	71.7773	77.2376	71.7773	77.0993	71.7773	77.1915	71.7773	77.0553	71.7773	77.1436	71.7773	77.0147	71.7773	77.096	71.7773	76.9798	71.7773	77.0511	71.7773	76.953	71.7773	77.0107	71.7773	76.936	71.7773	76.9769	71.7773	76.93	71.7773	76.9512	71.7773	76.9352
74.707	77.8166	74.707	77.8204	74.707	77.8118	74.707	77.8227	74.707	77.8063	74.707	77.8222	74.707	77.8001	74.707	77.8178	74.707	77.7926	74.707	77.8082	74.707	77.783	74.707	77.792	74.707	77.7699	74.707	77.7684	74.707	77.7523	74.707	77.7369	74.707	77.7292	74.707	77.6974	74.707	77.6998	74.707	77.6511	74.707	77.6643	74.707	77.5997	74.707	77.6231	74.707	77.5458	74.707	77.5778	74.707	77.4927	74.707	77.5303	74.707	77.4443	74.707	77.4831	74.707	77.4042	74.707	77.4394	74.707	77.3757	74.707	77.4024	74.707	77.3609	74.707	77.3754	74.707	77.361
77.6367	77.9345	77.6367	77.9348	77.6367	77.9372	77.6367	77.9379	77.6367	77.9427	77.6367	77.9428	77.6367	77.95	77.6367	77.9478	77.6367	77.9578	77.6367	77.9512	77.6367	77.9643	77.6367	77.9507	77.6367	77.9678	77.6367	77.9444	77.6367	77.9664	77.6367	77.9307	77.6367	77.9587	77.6367	77.9089	77.6367	77.9435	77.6367	77.8792	77.6367	77.9204	77.6367	77.8429	77.6367	77.8897	77.6367	77.8025	77.6367	77.8526	77.6367	77.761	77.6367	77.8111	77.6367	77.722	77.6367	77.7683	77.6367	77.689	77.6367	77.7276	77.6367	77.6652	77.6367	77.6928	77.6367	77.6529	77.6367	77.6673	77.6367	77.6536
79.1016	78.1101	79.1016	78.1123	79.1016	78.1106	79.1016	78.117	79.1016	78.1138	79.1016	78.123	79.1016	78.1191	79.1016	78.129	79.1016	78.1253	79.1016	78.1332	79.1016	78.1312	79.1016	78.1338	79.1016	78.1351	79.1016	78.1291	79.1016	78.1354	79.1016	78.1178	79.1016	78.1307	79.1016	78.0995	79.1016	78.1199	79.1016	78.0744	79.1016	78.1025	79.1016	78.0439	79.1016	78.0785	79.1016	78.0102	79.1016	78.0489	79.1016	77.9759	79.1016	78.0155	79.1016	77.944	79.1016	77.9808	79.1016	77.9172	79.1016	77.948	79.1016	77.898	79.1016	77.9201	79.1016	77.8882	79.1016	77.8997	79.1016	77.8887
82.0312	78.3264	82.0312	78.3165	82.0312	78.337	82.0312	78.3074	82.0312	78.3481	82.0312	78.2989	82.0312	78.3589	82.0312	78.2905	82.0312	78.3686	82.0312	78.2817	82.0312	78.376	82.0312	78.2717	82.0312	78.3801	82.0312	78.26	82.0312	78.3799	82.0312	78.2462	82.0312	78.3744	82.0312	78.2302	82.0312	78.3632	82.0312	78.2126	82.0312	78.3464	82.0312	78.1942	82.0312	78.3246	82.0312	78.1764	82.0312	78.299	82.0312	78.1607	82.0312	78.271	82.0312	78.1486	82.0312	78.2425	82.0312	78.1414	82.0312	78.2152	82.0312	78.1397	82.0312	78.1906	82.0312	78.1441	82.0312	78.17	82.0312	78.1543
84.9609	78.1254	84.9609	78.1049	84.9609	78.151	84.9609	78.0902	84.9609	78.1803	84.9609	78.0816	84.9609	78.2113	84.9609	78.0785	84.9609	78.2418	84.9609	78.0797	84.9609	78.2695	84.9609	78.0837	84.9609	78.2922	84.9609	78.0887	84.9609	78.308	84.9609	78.0934	84.9609	78.3155	84.9609	78.0966	84.9609	78.3142	84.9609	78.0978	84.9609	78.3043	84.9609	78.0973	84.9609	78.2868	84.9609	78.0957	84.9609	78.2636	84.9609	78.0941	84.9609	78.2367	84.9609	78.0935	84.9609	78.2087	84.9609	78.0951	84.9609	78.1817	84.9609	78.0996	84.9609	78.1572	84.9609	78.1077	84.9609	78.1365	84.9609	78.12
87.8906	78.4104	87.8906	78.4103	87.8906	78.4171	87.8906	78.4164	87.8906	78.4298	87.8906	78.4279	87.8906	78.4473	87.8906	78.4429	87.8906	78.4676	87.8906	78.4593	87.8906	78.4885	87.8906	78.4748	87.8906	78.5074	87.8906	78.4869	87.8906	78.5218	87.8906	78.4936	87.8906	78.5293	87.8906	78.4933	87.8906	78.5283	87.8906	78.4852	87.8906	78.5176	87.8906	78.4691	87.8906	78.4976	87.8906	78.4459	87.8906	78.4692	87.8906	78.4175	87.8906	78.4351	87.8906	78.3867	87.8906	78.3987	87.8906	78.3568	87.8906	78.3641	87.8906	78.3318	87.8906	78.3356	87.8906	78.3152	87.8906	78.3167	87.8906	78.3098
90.8203	78.786	90.8203	78.7933	90.8203	78.7773	90.8203	78.7986	90.8203	78.7674	90.8203	78.8011	90.8203	78.7564	90.8203	78.8002	90.8203	78.7442	90.8203	78.7949	90.8203	78.7303	90.8203	78.7843	90.8203	78.7142	90.8203	78.7676	90.8203	78.6948	90.8203	78.7445	90.8203	78.6715	90.8203	78.7146	90.8203	78.6435	90.8203	78.6783	90.8203	78.6105	90.8203	78.6364	90.8203	78.5729	90.8203	78.5902	90.8203	78.5319	90.8203	78.5417	90.8203	78.4896	90.8203	78.4937	90.8203	78.4491	90.8203	78.4494	90.8203	78.4138	90.8203	78.4124	90.8203	78.3875	90.8203	78.3859	90.8203	78.373	90.8203	78.3724
95.2148	78.825	95.2148	78.8346	95.2148	78.8191	95.2148	78.8471	95.2148	78.8173	95.2148	78.8615	95.2148	78.8196	95.2148	78.8765	95.2148	78.8253	95.2148	78.8906	95.2148	78.8334	95.2148	78.9023	95.2148	78.8421	95.2148	78.9097	95.2148	78.8495	95.2148	78.9112	95.2148	78.8536	95.2148	78.9054	95.2148	78.8528	95.2148	78.8917	95.2148	78.8459	95.2148	78.8701	95.2148	78.8327	95.2148	78.842	95.2148	78.8139	95.2148	78.8098	95.2148	78.7909	95.2148	78.7766	95.2148	78.7659	95.2148	78.7463	95.2148	78.7418	95.2148	78.7222	95.2148	78.7214	95.2148	78.7071	95.2148	78.7074	95.2148	78.7022
98.1445	79.0718	98.1445	79.0838	98.1445	79.0611	98.1445	79.0963	98.1445	79.0521	98.1445	79.1081	98.1445	79.0448	98.1445	79.118	98.1445	79.0387	98.1445	79.1244	98.1445	79.033	98.1445	79.1253	98.1445	79.0262	98.1445	79.119	98.1445	79.0167	98.1445	79.1037	98.1445	79.0026	98.1445	79.0778	98.1445	78.9823	98.1445	79.0408	98.1445	78.9549	98.1445	78.9933	98.1445	78.92	98.1445	78.9373	98.1445	78.8787	98.1445	78.8764	98.1445	78.8331	98.1445	78.8155	98.1445	78.7865	98.1445	78.7603	98.1445	78.743	98.1445	78.7162	98.1445	78.7074	98.1445	78.6876	98.1445	78.6841	98.1445	78.6768
101.074	78.9646	101.074	78.9939	101.074	78.9427	101.074	79.029	101.074	78.929	101.074	79.0676	101.074	78.9235	101.074	79.1069	101.074	78.9255	101.074	79.144	101.074	78.9337	101.074	79.1753	101.074	78.946	101.074	79.1978	101.074	78.9597	101.074	79.2088	101.074	78.9724	101.074	79.2063	101.074	78.9813	101.074	79.1897	101.074	78.9846	101.074	79.1598	101.074	78.9808	101.074	79.1189	101.074	78.97	101.074	79.0707	101.074	78.9531	101.074	79.0201	101.074	78.9326	101.074	78.9722	101.074	78.9117	101.074	78.9319	101.074	78.8946	101.074	78.903	101.074	78.8854	101.074	78.8876
105.469	79.5903	105.469	79.5892	105.469	79.5926	105.469	79.5897	105.469	79.5954	105.469	79.5916	105.469	79.5978	105.469	79.5942	105.469	79.599	105.469	79.5961	105.469	79.5978	105.469	79.5955	105.469	79.5935	105.469	79.5905	105.469	79.5852	105.469	79.5795	105.469	79.5721	105.469	79.5611	105.469	79.5535	105.469	79.5351	105.469	79.5285	105.469	79.502	105.469	79.4974	105.469	79.4634	105.469	79.4606	105.469	79.4217	105.469	79.4201	105.469	79.3801	105.469	79.3789	105.469	79.3422	105.469	79.3409	105.469	79.3115	105.469	79.3103	105.469	79.2913	105.469	79.2905	105.469	79.2839
108.398	79.5105	108.398	79.5087	108.398	79.5127	108.398	79.508	108.398	79.5146	108.398	79.5084	108.398	79.5158	108.398	79.51	108.398	79.5155	108.398	79.5119	108.398	79.5132	108.398	79.5132	108.398	79.5084	108.398	79.5122	108.398	79.5004	108.398	79.5073	108.398	79.4883	108.398	79.4969	108.398	79.4713	108.398	79.4798	108.398	79.4486	108.398	79.4554	108.398	79.4198	108.398	79.4242	108.398	79.3858	108.398	79.3877	108.398	79.3486	108.398	79.3485	108.398	79.3113	108.398	79.31	108.398	79.2779	108.398	79.2763	108.398	79.2525	108.398	79.2513	108.398	79.2387	108.398	79.2382
112.793	79.9608	112.793	79.9468	112.793	79.9672	112.793	79.9258	112.793	79.966	112.793	79.8984	112.793	79.9568	112.793	79.8652	112.793	79.9398	112.793	79.8271	112.793	79.9155	112.793	79.7849	112.793	79.8845	112.793	79.7392	112.793	79.8476	112.793	79.6911	112.793	79.8056	112.793	79.6414	112.793	79.7593	112.793	79.5913	112.793	79.7095	112.793	79.542	112.793	79.6568	112.793	79.4949	112.793	79.6025	112.793	79.4518	112.793	79.548	112.793	79.4145	112.793	79.4956	112.793	79.385	112.793	79.4481	112.793	79.3653	112.793	79.4083	112.793	79.3571	112.793	79.3789	112.793	79.3615
117.188	80.2694	117.188	80.2647	117.188	80.2607	117.188	80.246	117.188	80.239	117.188	80.2124	117.188	80.2038	117.188	80.1628	117.188	80.1546	117.188	80.0959	117.188	80.0906	117.188	80.0107	117.188	80.011	117.188	79.9069	117.188	79.9154	117.188	79.7849	117.188	79.8044	117.188	79.647	117.188	79.6795	117.188	79.4969	117.188	79.5438	117.188	79.3404	117.188	79.4015	117.188	79.1847	117.188	79.2578	117.188	79.0383	117.188	79.1187	117.188	78.9097	117.188	78.9902	117.188	78.8064	117.188	78.8783	117.188	78.7342	117.188	78.7886	117.188	78.6965	117.188	78.7258	117.188	78.6942
120.117	80.5262	120.117	80.5199	120.117	80.5218	120.117	80.5027	120.117	80.5063	120.117	80.4738	120.117	80.4788	120.117	80.432	120.117	80.438	120.117	80.3757	120.117	80.3818	120.117	80.3032	120.117	80.3083	120.117	80.2129	120.117	80.2158	120.117	80.1039	120.117	80.1034	120.117	79.9762	120.117	79.9718	120.117	79.8316	120.117	79.8235	120.117	79.674	120.117	79.663	120.117	79.5095	120.117	79.4971	120.117	79.346	120.117	79.3339	120.117	79.1932	120.117	79.1828	120.117	79.0611	120.117	79.0532	120.117	78.9588	120.117	78.9538	120.117	78.8939	120.117	78.8915	120.117	78.871
124.512	80.2228	124.512	80.2557	124.512	80.1924	124.512	80.2896	124.512	80.1652	124.512	80.3218	124.512	80.1408	124.512	80.3495	124.512	80.1179	124.512	80.369	124.512	80.0943	124.512	80.3766	124.512	80.0671	124.512	80.3688	124.512	80.0334	124.512	80.3429	124.512	79.9908	124.512	80.2969	124.512	79.9378	124.512	80.2306	124.512	79.8745	124.512	80.1457	124.512	79.8028	124.512	80.0458	124.512	79.7266	124.512	79.9366	124.512	79.6514	124.512	79.825	124.512	79.5836	124.512	79.7191	124.512	79.5299	124.512	79.6267	124.512	79.4966	124.512	79.5545	124.512	79.4882	124.512	79.5075
128.906	79.9473	128.906	79.9723	128.906	79.9302	128.906	80.0044	128.906	79.9213	128.906	80.0419	128.906	79.9202	128.906	80.0826	128.906	79.9257	128.906	80.1233	128.906	79.9359	128.906	80.1604	128.906	79.9481	128.906	80.1897	128.906	79.9592	128.906	80.2072	128.906	79.9657	128.906	80.2095	128.906	79.9645	128.906	80.1945	128.906	79.9534	128.906	80.1619	128.906	79.9318	128.906	80.1134	128.906	79.9008	128.906	80.0525	128.906	79.8637	128.906	79.9848	128.906	79.8255	128.906	79.9168	128.906	79.7922	128.906	79.8553	128.906	79.7696	128.906	79.8066	128.906	79.7629	128.906	79.775
133.301	80.0337	133.301	80.0501	133.301	80.0212	133.301	80.0698	133.301	80.0135	133.301	80.0922	133.301	80.011	133.301	80.1167	133.301	80.0141	133.301	80.1424	133.301	80.0226	133.301	80.168	133.301	80.0357	133.301	80.1916	133.301	80.0515	133.301	80.2111	133.301	80.0676	133.301	80.224	133.301	80.0809	133.301	80.2279	133.301	80.0889	133.301	80.2214	133.301	80.0894	133.301	80.2042	133.301	80.0821	133.301	80.1775	133.301	80.0682	133.301	80.1438	133.301	80.0506	133.301	80.1072	133.301	80.0333	133.301	80.0723	133.301	80.0208	133.301	80.0435	133.301	80.0171	133.301	80.0245
139.16	80.2024	139.16	80.1937	139.16	80.2083	139.16	80.183	139.16	80.211	139.16	80.1709	139.16	80.2101	139.16	80.1585	139.16	80.2058	139.16	80.1467	139.16	80.1984	139.16	80.1367	139.16	80.1887	139.16	80.1294	139.16	80.1779	139.16	80.1254	139.16	80.1669	139.16	80.125	139.16	80.1568	139.16	80.1274	139.16	80.1481	139.16	80.1317	139.16	80.141	139.16	80.1364	139.16	80.1354	139.16	80.14	139.16	80.1311	139.16	80.1416	139.16	80.1279	139.16	80.1408	139.16	80.126	139.16	80.138	139.16	80.1256	139.16	80.134	139.16	80.127	139.16	80.13
143.555	80.49	143.555	80.4658	143.555	80.5058	143.555	80.4347	143.555	80.5122	143.555	80.3978	143.555	80.5084	143.555	80.3564	143.555	80.494	143.555	80.3117	143.555	80.4693	143.555	80.2648	143.555	80.4352	143.555	80.2173	143.555	80.3936	143.555	80.1709	143.555	80.347	143.555	80.128	143.555	80.2989	143.555	80.0909	143.555	80.2527	143.555	80.0618	143.555	80.2113	143.555	80.0419	143.555	80.1768	143.555	80.0317	143.555	80.1496	143.555	80.0303	143.555	80.1288	143.555	80.0358	143.555	80.1125	143.555	80.0461	143.555	80.0987	143.555	80.0589	143.555	80.0856	143.555	80.0723
147.949	80.7158	147.949	80.7069	147.949	80.7084	147.949	80.6823	147.949	80.684	147.949	80.6432	147.949	80.6425	147.949	80.5904	147.949	80.5846	147.949	80.5248	147.949	80.5111	147.949	80.4472	147.949	80.4242	147.949	80.3588	147.949	80.3266	147.949	80.2615	147.949	80.2224	147.949	80.1584	147.949	80.1165	147.949	80.0538	147.949	80.0147	147.949	79.953	147.949	79.9222	147.949	79.8619	147.949	79.843	147.949	79.7853	147.949	79.7793	147.949	79.7265	147.949	79.7311	147.949	79.6862	147.949	79.6967	147.949	79.6624	147.949	79.6734	147.949	79.6519	147.949	79.6588	147.949	79.6514
153.809	80.8486	153.809	80.8559	153.809	80.8309	153.809	80.8526	153.809	80.8024	153.809	80.8379	153.809	80.7624	153.809	80.8106	153.809	80.7098	153.809	80.7685	153.809	80.6436	153.809	80.7096	153.809	80.5633	153.809	80.6321	153.809	80.469	153.809	80.5351	153.809	80.3625	153.809	80.4195	153.809	80.2468	153.809	80.2885	153.809	80.1265	153.809	80.1475	153.809	80.0067	153.809	80.0043	153.809	79.8928	153.809	79.8678	153.809	79.7892	153.809	79.7468	153.809	79.6995	153.809	79.6487	153.809	79.6259	153.809	79.5781	153.809	79.5706	153.809	79.5366	153.809	79.5355	153.809	79.5232
159.668	80.8955	159.668	80.9038	159.668	80.8792	159.668	80.9041	159.668	80.8545	159.668	80.8957	159.668	80.8206	159.668	80.8776	159.668	80.7765	159.668	80.8478	159.668	80.7206	159.668	80.8037	159.668	80.6513	159.668	80.7426	159.668	80.5674	159.668	80.6621	159.668	80.4689	159.668	80.5614	159.668	80.3574	159.668	80.442	159.668	80.2371	159.668	80.3086	159.668	80.1139	159.668	80.1685	159.668	79.995	159.668	80.031	159.668	79.8874	159.668	79.9061	159.668	79.7967	159.668	79.8018	159.668	79.7262	159.668	79.7235	159.668	79.6777	159.668	79.6731	159.668	79.6519	159.668	79.6498
165.527	80.9008	165.527	80.8944	165.527	80.9052	165.527	80.8862	165.527	80.907	165.527	80.8762	165.527	80.9047	165.527	80.8634	165.527	80.8963	165.527	80.8466	165.527	80.879	165.527	80.8231	165.527	80.849	165.527	80.7895	165.527	80.8025	165.527	80.7422	165.527	80.7363	165.527	80.6776	165.527	80.6488	165.527	80.5937	165.527	80.5414	165.527	80.4911	165.527	80.4187	165.527	80.3737	165.527	80.2887	165.527	80.2488	165.527	80.1612	165.527	80.126	165.527	80.0459	165.527	80.0156	165.527	79.9511	165.527	79.9272	165.527	79.8828	165.527	79.8672	165.527	79.8449	165.527	79.8394
171.387	80.864	171.387	80.8442	171.387	80.8801	171.387	80.8207	171.387	80.8923	171.387	80.7939	171.387	80.8997	171.387	80.7637	171.387	80.9012	171.387	80.73	171.387	80.8944	171.387	80.6921	171.387	80.8765	171.387	80.6485	171.387	80.844	171.387	80.5971	171.387	80.7937	171.387	80.5358	171.387	80.7238	171.387	80.4632	171.387	80.6344	171.387	80.3796	171.387	80.5285	171.387	80.2875	171.387	80.4118	171.387	80.1924	171.387	80.2923	171.387	80.1013	171.387	80.1788	171.387	80.0225	171.387	80.0794	171.387	79.9633	171.387	80.001	171.387	79.9294	171.387	79.9483	171.387	79.9241
177.246	80.671	177.246	80.6704	177.246	80.6684	177.246	80.6656	177.246	80.6641	177.246	80.6562	177.246	80.66	177.246	80.6427	177.246	80.6577	177.246	80.6252	177.246	80.6576	177.246	80.6037	177.246	80.6587	177.246	80.5772	177.246	80.6583	177.246	80.5438	177.246	80.6526	177.246	80.5011	177.246	80.6375	177.246	80.4473	177.246	80.6095	177.246	80.3825	177.246	80.5668	177.246	80.3096	177.246	80.5098	177.246	80.2347	177.246	80.441	177.246	80.1665	177.246	80.3648	177.246	80.1138	177.246	80.2868	177.246	80.0841	177.246	80.2132	177.246	80.0811	177.246	80.1502	177.246	80.1043
183.105	80.6201	183.105	80.6379	183.105	80.5977	183.105	80.6493	183.105	80.5735	183.105	80.6536	183.105	80.5505	183.105	80.6512	183.105	80.5309	183.105	80.6428	183.105	80.5151	183.105	80.6293	183.105	80.5014	183.105	80.6103	183.105	80.486	183.105	80.5844	183.105	80.4637	183.105	80.5489	183.105	80.4299	183.105	80.5004	183.105	80.3818	183.105	80.4368	183.105	80.3193	183.105	80.3584	183.105	80.2461	183.105	80.2693	183.105	80.1684	183.105	80.1774	183.105	80.0938	183.105	80.0919	183.105	80.0298	183.105	80.0222	183.105	79.9822	183.105	79.9747	183.105	79.9554	183.105	79.9524
188.965	80.71	188.965	80.7336	188.965	80.6732	188.965	80.7439	188.965	80.6249	188.965	80.7416	188.965	80.5679	188.965	80.7284	188.965	80.506	188.965	80.7055	188.965	80.443	188.965	80.6743	188.965	80.3817	188.965	80.6352	188.965	80.3232	188.965	80.5877	188.965	80.2669	188.965	80.5303	188.965	80.2101	188.965	80.4603	188.965	80.1499	188.965	80.3752	188.965	80.0838	188.965	80.2742	188.965	80.0113	188.965	80.1597	188.965	79.9343	188.965	80.0389	188.965	79.8578	188.965	79.9226	188.965	79.7891	188.965	79.8229	188.965	79.7365	188.965	79.7506	188.965	79.7085	188.965	79.7121
196.289	80.7644	196.289	80.768	196.289	80.745	196.289	80.7577	196.289	80.709	196.289	80.7364	196.289	80.657	196.289	80.7064	196.289	80.5909	196.289	80.669	196.289	80.5129	196.289	80.6238	196.289	80.4256	196.289	80.5693	196.289	80.3311	196.289	80.5033	196.289	80.2316	196.289	80.4241	196.289	80.1292	196.289	80.3313	196.289	80.0265	196.289	80.2264	196.289	79.9262	196.289	80.1126	196.289	79.8312	196.289	79.9947	196.289	79.7442	196.289	79.8787	196.289	79.6687	196.289	79.7716	196.289	79.6088	196.289	79.6802	196.289	79.5692	196.289	79.6109	196.289	79.5547	196.289	79.5683
203.613	80.6664	203.613	80.6405	203.613	80.6761	203.613	80.6008	203.613	80.6685	203.613	80.5507	203.613	80.6436	203.613	80.4949	203.613	80.6019	203.613	80.4381	203.613	80.5443	203.613	80.3836	203.613	80.4722	203.613	80.3321	203.613	80.3872	203.613	80.2813	203.613	80.2917	203.613	80.2267	203.613	80.1889	203.613	80.1633	203.613	80.0828	203.613	80.0883	203.613	79.9782	203.613	80.0027	203.613	79.88	203.613	79.9112	203.613	79.7929	203.613	79.8213	203.613	79.7203	203.613	79.7411	203.613	79.6644	203.613	79.677	203.613	79.6267	203.613	79.6328	203.613	79.6082	203.613	79.6099
210.938	80.5768	210.938	80.5718	210.938	80.5664	210.938	80.5504	210.938	80.5424	210.938	80.5126	210.938	80.5082	210.938	80.4592	210.938	80.4682	210.938	80.3913	210.938	80.4272	210.938	80.3107	210.938	80.3891	210.938	80.2194	210.938	80.3551	210.938	80.1196	210.938	80.3227	210.938	80.0138	210.938	80.2858	210.938	79.9043	210.938	80.2363	210.938	79.7941	210.938	80.1671	210.938	79.6869	210.938	80.0744	210.938	79.5875	210.938	79.9602	210.938	79.502	210.938	79.8321	210.938	79.4372	210.938	79.7021	210.938	79.3995	210.938	79.5834	210.938	79.3939	210.938	79.4878	210.938	79.4234
218.262	80.3724	218.262	80.3657	218.262	80.3587	218.262	80.3412	218.262	80.3248	218.262	80.3038	218.262	80.2721	218.262	80.2597	218.262	80.2032	218.262	80.2144	218.262	80.1204	218.262	80.1701	218.262	80.0268	218.262	80.1251	218.262	79.9262	218.262	80.0742	218.262	79.8235	218.262	80.0116	218.262	79.7247	218.262	79.9337	218.262	79.6357	218.262	79.8414	218.262	79.5608	218.262	79.7406	218.262	79.5015	218.262	79.6406	218.262	79.4562	218.262	79.5509	218.262	79.4222	218.262	79.4784	218.262	79.3972	218.262	79.4258	218.262	79.3803	218.262	79.3925	218.262	79.3725	218.262	79.3757
225.586	80.148	225.586	80.1348	225.586	80.1447	225.586	80.1082	225.586	80.1242	225.586	80.0731	225.586	80.0884	225.586	80.0353	225.586	80.0408	225.586	79.9999	225.586	79.9852	225.586	79.9701	225.586	79.9248	225.586	79.9461	225.586	79.8612	225.586	79.925	225.586	79.7953	225.586	79.9021	225.586	79.7281	225.586	79.8723	225.586	79.6632	225.586	79.8325	225.586	79.6059	225.586	79.7834	225.586	79.5623	225.586	79.7292	225.586	79.5358	225.586	79.6765	225.586	79.5253	225.586	79.6313	225.586	79.5265	225.586	79.5967	225.586	79.5338	225.586	79.5725	225.586	79.5438	225.586	79.556
232.91	80.3066	232.91	80.314	232.91	80.2777	232.91	80.303	232.91	80.2265	232.91	80.2777	232.91	80.1547	232.91	80.242	232.91	80.067	232.91	80.1983	232.91	79.9698	232.91	80.1465	232.91	79.8701	232.91	80.0831	232.91	79.7735	232.91	80.0024	232.91	79.6824	232.91	79.8982	232.91	79.5965	232.91	79.7678	232.91	79.5133	232.91	79.6149	232.91	79.4309	232.91	79.4516	232.91	79.3504	232.91	79.2965	232.91	79.2756	232.91	79.1695	232.91	79.2109	232.91	79.0841	232.91	79.1585	232.91	79.0429	232.91	79.1167	232.91	79.0373	232.91	79.0823	232.91	79.0542
241.699	79.9527	241.699	79.9334	241.699	79.9531	241.699	79.8971	241.699	79.935	241.699	79.8486	241.699	79.9016	241.699	79.794	241.699	79.8574	241.699	79.7395	241.699	79.807	241.699	79.6898	241.699	79.7527	241.699	79.6457	241.699	79.6935	241.699	79.6038	241.699	79.6248	241.699	79.5567	241.699	79.5402	241.699	79.4952	241.699	79.4347	241.699	79.4116	241.699	79.3082	241.699	79.3032	241.699	79.1667	241.699	79.1741	241.699	79.0218	241.699	79.0356	241.699	78.8883	241.699	78.903	241.699	78.7792	241.699	78.7913	241.699	78.7038	241.699	78.7114	241.699	78.6666	241.699	78.6692
250.488	79.737	250.488	79.7193	250.488	79.7318	250.488	79.6804	250.488	79.7057	250.488	79.6247	250.488	79.6631	250.488	79.5596	250.488	79.6105	250.488	79.4933	250.488	79.5551	250.488	79.4323	250.488	79.5036	250.488	79.3784	250.488	79.4592	250.488	79.3278	250.488	79.4207	250.488	79.2722	250.488	79.3819	250.488	79.2029	250.488	79.334	250.488	79.115	250.488	79.2697	250.488	79.0106	250.488	79.1863	250.488	78.8999	250.488	79.0872	250.488	78.7979	250.488	78.9813	250.488	78.7191	250.488	78.8792	250.488	78.672	250.488	78.7905	250.488	78.6588	250.488	78.7216	250.488	78.6765
259.277	79.7798	259.277	79.7444	259.277	79.7937	259.277	79.6893	259.277	79.7875	259.277	79.6192	259.277	79.7654	259.277	79.5406	259.277	79.7336	259.277	79.4609	259.277	79.6984	259.277	79.3869	259.277	79.6646	259.277	79.3224	259.277	79.6339	259.277	79.2671	259.277	79.6032	259.277	79.2158	259.277	79.5654	259.277	79.1608	259.277	79.5117	259.277	79.0955	259.277	79.4352	259.277	79.0182	259.277	79.3347	259.277	78.9339	259.277	79.2168	259.277	78.8538	259.277	79.094	259.277	78.7906	259.277	78.9801	259.277	78.7537	259.277	78.8852	259.277	78.7465	259.277	78.8141	259.277	78.7675
268.066	79.6002	268.066	79.5661	268.066	79.6015	268.066	79.5037	268.066	79.5722	268.066	79.4228	268.066	79.5206	268.066	79.3372	268.066	79.4591	268.066	79.262	268.066	79.4017	268.066	79.211	268.066	79.3613	268.066	79.1931	268.066	79.3464	268.066	79.2092	268.066	79.3576	268.066	79.2514	268.066	79.3849	268.066	79.3044	268.066	79.4087	268.066	79.3497	268.066	79.406	268.066	79.3704	268.066	79.3601	268.066	79.3557	268.066	79.27	268.066	79.3029	268.066	79.1524	268.066	79.2187	268.066	79.0369	268.066	79.118	268.066	78.9542	268.066	79.0211	268.066	78.9241	268.066	78.9501
276.855	78.9639	276.855	78.9267	276.855	78.993	276.855	78.8834	276.855	79.0196	276.855	78.8427	276.855	79.0549	276.855	78.8172	276.855	79.112	276.855	78.8178	276.855	79.2003	276.855	78.8497	276.855	79.3211	276.855	78.9107	276.855	79.4664	276.855	78.9925	276.855	79.6233	276.855	79.0854	276.855	79.7783	276.855	79.1814	276.855	79.9197	276.855	79.2757	276.855	80.0363	276.855	79.3663	276.855	80.1164	276.855	79.4517	276.855	80.1504	276.855	79.5305	276.855	80.1353	276.855	79.6023	276.855	80.0784	276.855	79.6697	276.855	79.9948	276.855	79.7386	276.855	79.9025	276.855	79.8154
287.109	77.8452	287.109	77.812	287.109	77.8025	287.109	77.7084	287.109	77.6849	287.109	77.5451	287.109	77.5057	287.109	77.3422	287.109	77.2968	287.109	77.1376	287.109	77.112	287.109	76.9915	287.109	77.018	287.109	76.9744	287.109	77.0695	287.109	77.1346	287.109	77.2783	287.109	77.4672	287.109	77.6067	287.109	77.9156	287.109	77.9938	287.109	78.4039	287.109	78.3869	287.109	78.8684	287.109	78.7564	287.109	79.2702	287.109	79.0907	287.109	79.5918	287.109	79.3857	287.109	79.8291	287.109	79.6372	287.109	79.9834	287.109	79.838	287.109	80.0577	287.109	79.9799	287.109	80.0551
297.363	79.3953	297.363	79.4276	297.363	79.2725	297.363	79.3768	297.363	79.059	297.363	79.2553	297.363	78.7589	297.363	79.0749	297.363	78.3783	297.363	78.8421	297.363	77.9264	297.363	78.5583	297.363	77.4276	297.363	78.229	297.363	76.9391	297.363	77.8769	297.363	76.5633	297.363	77.5501	297.363	76.4189	297.363	77.3177	297.363	76.5647	297.363	77.2414	297.363	76.9431	297.363	77.3382	297.363	77.4207	297.363	77.5653	297.363	77.8727	297.363	77.8462	297.363	78.2253	297.363	78.1113	297.363	78.4552	297.363	78.3221	297.363	78.5719	297.363	78.4704	297.363	78.5998	297.363	78.5621
307.617	79.2504	307.617	79.252	307.617	79.1718	307.617	79.1744	307.617	79.0245	307.617	79.0243	307.617	78.8212	307.617	78.818	307.617	78.5777	307.617	78.5798	307.617	78.3098	307.617	78.336	307.617	78.0279	307.617	78.1085	307.617	77.7339	307.617	77.9104	307.617	77.4255	307.617	77.7462	307.617	77.1121	307.617	77.6156	307.617	76.8317	307.617	77.5182	307.617	76.6474	307.617	77.4559	307.617	76.6118	307.617	77.4299	307.617	76.7225	307.617	77.4353	307.617	76.9194	307.617	77.4583	307.617	77.1267	307.617	77.4805	307.617	77.2935	307.617	77.4863	307.617	77.4041	307.617	77.4644
319.336	79.1645	319.336	79.0863	319.336	79.158	319.336	78.9315	319.336	79.0625	319.336	78.7129	319.336	78.878	319.336	78.4486	319.336	78.6097	319.336	78.161	319.336	78.2712	319.336	77.8732	319.336	77.8864	319.336	77.6056	319.336	77.4882	319.336	77.3738	319.336	77.1142	319.336	77.1888	319.336	76.7982	319.336	77.0581	319.336	76.5643	319.336	76.9861	319.336	76.4265	319.336	76.9754	319.336	76.3915	319.336	77.0255	319.336	76.4591	319.336	77.127	319.336	76.6167	319.336	77.2549	319.336	76.8345	319.336	77.3692	319.336	77.0682	319.336	77.4262	319.336	77.2688	319.336	77.395
329.59	78.7293	329.59	78.6622	329.59	78.7419	329.59	78.5471	329.59	78.6905	329.59	78.387	329.59	78.5667	329.59	78.1841	329.59	78.3702	329.59	77.9443	329.59	78.1115	329.59	77.6793	329.59	77.8125	329.59	77.4056	329.59	77.5012	329.59	77.1433	329.59	77.2049	329.59	76.9154	329.59	76.9422	329.59	76.7455	329.59	76.7208	329.59	76.6511	329.59	76.5421	329.59	76.6356	329.59	76.4105	329.59	76.6861	329.59	76.3394	329.59	76.7773	329.59	76.3461	329.59	76.8774	329.59	76.4363	329.59	76.9506	329.59	76.59	329.59	76.964	329.59	76.7615	329.59	76.8984
341.309	78.8023	341.309	78.7688	341.309	78.7334	341.309	78.6349	341.309	78.571	341.309	78.4132	341.309	78.3326	341.309	78.1264	341.309	78.0417	341.309	77.8047	341.309	77.7245	341.309	77.4819	341.309	77.4074	341.309	77.1879	341.309	77.1161	341.309	76.9406	341.309	76.8741	341.309	76.7429	341.309	76.7029	341.309	76.5877	341.309	76.6183	341.309	76.4656	341.309	76.6219	341.309	76.3709	341.309	76.6939	341.309	76.3036	341.309	76.7939	341.309	76.2702	341.309	76.875	341.309	76.2812	341.309	76.9008	341.309	76.3451	341.309	76.8558	341.309	76.4591	341.309	76.748	341.309	76.6041
353.027	78.4542	353.027	78.4185	353.027	78.4582	353.027	78.3528	353.027	78.4202	353.027	78.2497	353.027	78.3248	353.027	78.097	353.027	78.1558	353.027	77.8872	353.027	77.9032	353.027	77.6253	353.027	77.5703	353.027	77.3318	353.027	77.1798	353.027	77.0365	353.027	76.7736	353.027	76.7684	353.027	76.4019	353.027	76.5485	353.027	76.105	353.027	76.3906	353.027	75.9013	353.027	76.3037	353.027	75.7878	353.027	76.2877	353.027	75.753	353.027	76.3256	353.027	75.7863	353.027	76.3825	353.027	75.879	353.027	76.4165	353.027	76.0164	353.027	76.3951	353.027	76.1714	353.027	76.3084
366.211	78.2237	366.211	78.1194	366.211	78.2671	366.211	77.9562	366.211	78.2523	366.211	77.7426	366.211	78.1829	366.211	77.4945	366.211	78.0604	366.211	77.233	366.211	77.8842	366.211	76.9815	366.211	77.6562	366.211	76.7594	366.211	77.3862	366.211	76.5748	366.211	77.0928	366.211	76.4183	366.211	76.7972	366.211	76.2674	366.211	76.5168	366.211	76.1005	366.211	76.2644	366.211	75.912	366.211	76.0527	366.211	75.7184	366.211	75.8933	366.211	75.5513	366.211	75.7871	366.211	75.441	366.211	75.717	366.211	75.4027	366.211	75.6552	366.211	75.4302	366.211	75.5823	366.211	75.5
379.395	77.9459	379.395	77.9831	379.395	77.8697	379.395	77.963	379.395	77.7762	379.395	77.8752	379.395	77.6827	379.395	77.7163	379.395	77.592	379.395	77.4908	379.395	77.4909	379.395	77.2121	379.395	77.3583	379.395	76.905	379.395	77.1809	379.395	76.6043	379.395	76.9647	379.395	76.3459	379.395	76.7344	379.395	76.1552	379.395	76.5201	379.395	76.0382	379.395	76.34	379.395	75.9828	379.395	76.1944	379.395	75.9696	379.395	76.0765	379.395	75.9811	379.395	75.9876	379.395	76.004	379.395	75.9381	379.395	76.0246	379.395	75.9348	379.395	76.0278	379.395	75.966	379.395	76.0054
392.578	76.8648	392.578	76.8371	392.578	76.8351	392.578	76.7768	392.578	76.7361	392.578	76.7107	392.578	76.578	392.578	76.6577	392.578	76.3954	392.578	76.6255	392.578	76.2397	392.578	76.6129	392.578	76.1577	392.578	76.6138	392.578	76.1666	392.578	76.6171	392.578	76.2462	392.578	76.605	392.578	76.3542	392.578	76.5542	392.578	76.4461	392.578	76.445	392.578	76.4851	392.578	76.2721	392.578	76.4442	392.578	76.0485	392.578	76.31	392.578	75.8017	392.578	76.0906	392.578	75.5657	392.578	75.8204	392.578	75.3751	392.578	75.5551	392.578	75.2619	392.578	75.3522	392.578	75.2506
405.762	76.5591	405.762	76.4257	405.762	76.5029	405.762	76.1204	405.762	76.2597	405.762	75.6931	405.762	75.849	405.762	75.2396	405.762	75.3183	405.762	74.8985	405.762	74.7642	405.762	74.8085	405.762	74.3479	405.762	75.0398	405.762	74.2544	405.762	75.5557	405.762	74.5696	405.762	76.2394	405.762	75.1974	405.762	76.9495	405.762	75.9439	405.762	77.5655	405.762	76.6472	405.762	78.0109	405.762	77.2195	405.762	78.2586	405.762	77.6294	405.762	78.3262	405.762	77.8782	405.762	78.2664	405.762	77.9901	405.762	78.1499	405.762	78.0081	405.762	78.0438	405.762	77.9893	405.762	77.9895
420.41	79.9911	420.41	79.8753	420.41	79.9209	420.41	79.5665	420.41	79.6721	420.41	79.0604	420.41	79.2514	420.41	78.358	420.41	78.6608	420.41	77.4739	420.41	77.8983	420.41	76.4545	420.41	76.9705	420.41	75.4177	420.41	75.9333	420.41	74.6086	420.41	74.9641	420.41	74.3664	420.41	74.3903	420.41	74.849	420.41	74.4837	420.41	75.823	420.41	75.155	420.41	76.913	420.41	76.0776	420.41	77.8759	420.41	77.0028	420.41	78.6221	420.41	77.8231	420.41	79.1461	420.41	78.504	420.41	79.4711	420.41	79.0317	420.41	79.6172	420.41	79.3965	420.41	79.5922
435.059	79.3315	435.059	79.2666	435.059	79.2842	435.059	79.0905	435.059	79.1193	435.059	78.7936	435.059	78.8324	435.059	78.3535	435.059	78.4217	435.059	77.7467	435.059	77.8898	435.059	76.9719	435.059	77.2465	435.059	76.0779	435.059	76.5157	435.059	75.185	435.059	75.754	435.059	74.4839	435.059	75.0806	435.059	74.1804	435.059	74.677	435.059	74.373	435.059	74.6875	435.059	74.9723	435.059	75.0827	435.059	75.774	435.059	75.6892	435.059	76.5819	435.059	76.3373	435.059	77.2613	435.059	76.9301	435.059	77.736	435.059	77.423	435.059	77.9752	435.059	77.7855	435.059	77.9824
451.172	79.7618	451.172	79.6388	451.172	79.7448	451.172	79.3705	451.172	79.5875	451.172	78.9542	451.172	79.2789	451.172	78.3978	451.172	78.8014	451.172	77.7234	451.172	78.1434	451.172	76.9648	451.172	77.3195	451.172	76.164	451.172	76.3908	451.172	75.3837	451.172	75.4818	451.172	74.7425	451.172	74.778	451.172	74.4276	451.172	74.4668	451.172	74.5794	451.172	74.6122	451.172	75.1199	451.172	75.0913	451.172	75.8016	451.172	75.6916	451.172	76.4088	451.172	76.2446	451.172	76.8445	451.172	76.6704	451.172	77.1021	451.172	76.9594	451.172	77.2147	451.172	77.1346	451.172	77.2186
465.82	80.0908	465.82	80.0336	465.82	80.0529	465.82	79.8773	465.82	79.9105	465.82	79.6002	465.82	79.6466	465.82	79.166	465.82	79.2436	465.82	78.5389	465.82	78.687	465.82	77.7095	465.82	77.9716	465.82	76.7251	465.82	77.1117	465.82	75.7089	465.82	76.1661	465.82	74.8514	465.82	75.2721	465.82	74.3592	465.82	74.6417	465.82	74.361	465.82	74.4554	465.82	74.8144	465.82	74.7193	465.82	75.5229	465.82	75.2799	465.82	76.2673	465.82	75.9556	465.82	76.9031	465.82	76.609	465.82	77.3634	465.82	77.1479	465.82	77.6241	465.82	77.5137	465.82	77.6754
483.398	80.0283	483.398	79.9294	483.398	79.9992	483.398	79.7062	483.398	79.8478	483.398	79.3758	483.398	79.5759	483.398	78.9535	483.398	79.1696	483.398	78.4349	483.398	78.6049	483.398	77.7923	483.398	77.8636	483.398	76.9984	483.398	76.9504	483.398	76.0665	483.398	75.9085	483.398	75.0925	483.398	74.8452	483.398	74.2757	483.398	73.9726	483.398	73.8705	483.398	73.5789	483.398	74.0297	483.398	73.8076	483.398	74.6665	483.398	74.4836	483.398	75.5258	483.398	75.3088	483.398	76.3569	483.398	76.0869	483.398	76.9939	483.398	76.7301	483.398	77.353	483.398	77.1882	483.398	77.4109
499.512	79.9315	499.512	79.8259	499.512	79.905	499.512	79.589	499.512	79.7511	499.512	79.2178	499.512	79.4818	499.512	78.7064	499.512	79.1001	499.512	78.0564	499.512	78.5833	499.512	77.2825	499.512	77.8931	499.512	76.4105	499.512	77.0146	499.512	75.4888	499.512	76.0016	499.512	74.6351	499.512	74.9979	499.512	74.0622	499.512	74.2095	499.512	73.9621	499.512	73.8202	499.512	74.3042	499.512	73.8988	499.512	74.8702	499.512	74.3624	499.512	75.4644	499.512	75.0239	499.512	75.9891	499.512	75.6905	499.512	76.3979	499.512	76.2309	499.512	76.6529	499.512	76.5812	499.512	76.7208
517.09	79.8122	517.09	79.7188	517.09	79.8086	517.09	79.538	517.09	79.6934	517.09	79.2602	517.09	79.4569	517.09	78.8489	517.09	79.0976	517.09	78.2512	517.09	78.6149	517.09	77.4279	517.09	77.9964	517.09	76.3872	517.09	77.2125	517.09	75.2039	517.09	76.2396	517.09	74.0218	517.09	75.1235	517.09	73.0696	517.09	74.0648	517.09	72.6664	517.09	73.4201	517.09	73.0122	517.09	73.4404	517.09	73.8953	517.09	73.9944	517.09	74.9036	517.09	74.7622	517.09	75.7691	517.09	75.518	517.09	76.3899	517.09	76.1506	517.09	76.736	517.09	76.5949	517.09	76.8008
536.133	78.9114	536.133	78.887	536.133	78.8516	536.133	78.7721	536.133	78.7146	536.133	78.5641	536.133	78.5003	536.133	78.262	536.133	78.1912	536.133	77.8566	536.133	77.7489	536.133	77.3161	536.133	77.1275	536.133	76.5826	536.133	76.2967	536.133	75.5979	536.133	75.2683	536.133	74.3714	536.133	74.1263	536.133	73.0981	536.133	73.0675	536.133	72.2426	536.133	72.4054	536.133	72.2302	536.133	72.4062	536.133	72.8916	536.133	73.0104	536.133	73.7217	536.133	73.868	536.133	74.4091	536.133	74.6421	536.133	74.8845	536.133	75.156	536.133	75.1896	536.133	75.3772	536.133	75.3628
555.176	79.2836	555.176	79.2353	555.176	79.2598	555.176	79.1013	555.176	79.1771	555.176	78.8757	555.176	79.0246	555.176	78.5436	555.176	78.763	555.176	78.0658	555.176	78.3475	555.176	77.396	555.176	77.7508	555.176	76.5222	555.176	76.9628	555.176	75.4913	555.176	75.9812	555.176	74.3917	555.176	74.8285	555.176	73.3259	555.176	73.6158	555.176	72.4579	555.176	72.6059	555.176	72.0847	555.176	72.125	555.176	72.4221	555.176	72.2955	555.176	73.2636	555.176	72.9586	555.176	74.2042	555.176	73.8498	555.176	74.98	555.176	74.7099	555.176	75.4667	555.176	75.332	555.176	75.5949
574.219	79.4317	574.219	79.3312	574.219	79.3927	574.219	79.124	574.219	79.2037	574.219	78.837	574.219	78.8976	574.219	78.4752	574.219	78.5345	574.219	78.0151	574.219	78.138	574.219	77.4126	574.219	77.6472	574.219	76.6221	574.219	76.9442	574.219	75.6153	574.219	75.9331	574.219	74.4024	574.219	74.6316	574.219	73.0906	574.219	73.2758	574.219	72.0357	574.219	72.3368	574.219	71.8295	574.219	72.1546	574.219	72.5994	574.219	72.554	574.219	73.7535	574.219	73.1945	574.219	74.777	574.219	73.925	574.219	75.4824	574.219	74.6841	574.219	75.818	574.219	75.3505	574.219	75.7646
594.727	78.7869	594.727	78.802	594.727	78.7569	594.727	78.7656	594.727	78.7131	594.727	78.6282	594.727	78.6185	594.727	78.3458	594.727	78.4139	594.727	77.8861	594.727	78.0389	594.727	77.2219	594.727	77.4538	594.727	76.3392	594.727	76.656	594.727	75.2733	594.727	75.6719	594.727	74.1383	594.727	74.5241	594.727	73.0777	594.727	73.212	594.727	72.1823	594.727	71.8013	594.727	71.6039	594.727	70.734	594.727	71.695	594.727	70.856	594.727	72.547	594.727	72.0969	594.727	73.6441	594.727	73.4331	594.727	74.4665	594.727	74.3218	594.727	74.8635	594.727	74.7671	594.727	74.9295
615.234	78.7512	615.234	78.6732	615.234	78.7264	615.234	78.5157	615.234	78.617	615.234	78.3301	615.234	78.4452	615.234	78.1322	615.234	78.2073	615.234	77.8636	615.234	77.8723	615.234	77.427	615.234	77.3832	615.234	76.7379	615.234	76.6663	615.234	75.7347	615.234	75.6605	615.234	74.3821	615.234	74.3594	615.234	72.743	615.234	72.875	615.234	71.1811	615.234	71.5144	615.234	70.4241	615.234	70.7524	615.234	70.7246	615.234	70.8767	615.234	71.4938	615.234	71.6578	615.234	72.3107	615.234	72.6339	615.234	73.0888	615.234	73.4694	615.234	73.7309	615.234	73.9799	615.234	74.0674
637.207	78.36	637.207	78.3449	637.207	78.3837	637.207	78.3247	637.207	78.3734	637.207	78.2466	637.207	78.2644	637.207	78.0565	637.207	78.0217	637.207	77.7205	637.207	77.657	637.207	77.2233	637.207	77.1882	637.207	76.5588	637.207	76.5851	637.207	75.7163	637.207	75.772	637.207	74.6507	637.207	74.7055	637.207	73.2832	637.207	73.454	637.207	71.6737	637.207	72.1904	637.207	70.4331	637.207	71.1653	637.207	70.5102	637.207	70.8049	637.207	71.6295	637.207	71.4367	637.207	72.8404	637.207	72.6572	637.207	73.7583	637.207	73.7732	637.207	74.3474	637.207	74.433	637.207	74.5966
659.18	77.7479	659.18	77.6063	659.18	77.7787	659.18	77.3969	659.18	77.6975	659.18	77.1629	659.18	77.548	659.18	76.9165	659.18	77.3751	659.18	76.6199	659.18	77.1702	659.18	76.1715	659.18	76.8583	659.18	75.445	659.18	76.337	659.18	74.3985	659.18	75.5238	659.18	73.1746	659.18	74.3803	659.18	72.0463	659.18	72.9154	659.18	71.1682	659.18	71.2404	659.18	70.6049	659.18	69.8596	659.18	70.71	659.18	69.6981	659.18	71.662	659.18	70.6066	659.18	72.8282	659.18	71.5566	659.18	73.5649	659.18	72.2214	659.18	73.6883	659.18	72.7822	659.18	73.334
682.617	77.5853	682.617	77.6271	682.617	77.4734	682.617	77.6016	682.617	77.3283	682.617	77.5166	682.617	77.1883	682.617	77.3461	682.617	77.0434	682.617	77.0438	682.617	76.8417	682.617	76.5753	682.617	76.5114	682.617	75.906	682.617	75.9737	682.617	74.9591	682.617	75.1348	682.617	73.6237	682.617	73.899	682.617	71.8855	682.617	72.2665	682.617	70.1568	682.617	70.5354	682.617	69.417	682.617	69.3711	682.617	69.9574	682.617	69.2848	682.617	70.9791	682.617	70.1648	682.617	71.9647	682.617	71.5068	682.617	72.7971	682.617	72.7403	682.617	73.4168	682.617	73.5041	682.617	73.7025
707.52	77.0604	707.52	76.9951	707.52	77.1641	707.52	76.9902	707.52	77.2859	707.52	77.0809	707.52	77.3846	707.52	77.2564	707.52	77.4092	707.52	77.3974	707.52	77.327	707.52	77.34	707.52	77.1228	707.52	76.9959	707.52	76.7558	707.52	76.3565	707.52	76.1179	707.52	75.3786	707.52	75.0642	707.52	73.941	707.52	73.5277	707.52	72.0324	707.52	71.6703	707.52	70.2617	707.52	70.0406	707.52	70.0414	707.52	69.54	707.52	71.3413	707.52	70.5504	707.52	72.8235	707.52	72.2456	707.52	73.949	707.52	73.7116	707.52	74.6462	707.52	74.5972	707.52	74.8838
732.422	77.3847	732.422	77.2492	732.422	77.4629	732.422	77.1903	732.422	77.4004	732.422	77.213	732.422	77.2633	732.422	77.1803	732.422	77.1799	732.422	76.9873	732.422	77.1827	732.422	76.6447	732.422	77.18	732.422	76.1806	732.422	77.0557	732.422	75.554	732.422	76.7188	732.422	74.6785	732.422	76.0713	732.422	73.4369	732.422	74.9949	732.422	71.7116	732.422	73.399	732.422	69.8671	732.422	71.4098	732.422	69.6364	732.422	69.9377	732.422	71.4179	732.422	70.3588	732.422	73.2889	732.422	71.9435	732.422	74.4776	732.422	73.3875	732.422	74.9737	732.422	74.3689	732.422	74.9034
757.324	78.2741	757.324	78.2256	757.324	78.1272	757.324	77.8999	757.324	77.8705	757.324	77.4067	757.324	77.5319	757.324	77.0331	757.324	77.1895	757.324	76.9092	757.324	76.9407	757.324	76.8269	757.324	76.7362	757.324	76.5029	757.324	76.4205	757.324	75.8034	757.324	75.9062	757.324	74.7053	757.324	75.1696	757.324	73.1871	757.324	74.1054	757.324	71.2382	757.324	72.5658	757.324	69.1942	757.324	70.7186	757.324	68.4477	757.324	69.4192	757.324	69.8678	757.324	69.5848	757.324	71.9594	757.324	70.9695	757.324	73.6875	757.324	72.7339	757.324	74.7307	757.324	74.1886	757.324	74.9115
785.156	77.985	785.156	77.8849	785.156	78.0246	785.156	77.8194	785.156	77.9523	785.156	77.756	785.156	77.7853	785.156	77.5374	785.156	77.5308	785.156	77.1077	785.156	77.1948	785.156	76.5949	785.156	76.8337	785.156	76.093	785.156	76.4546	785.156	75.4715	785.156	75.889	785.156	74.5277	785.156	74.8961	785.156	73.1508	785.156	73.4024	785.156	71.2931	785.156	71.6264	785.156	69.1738	785.156	69.953	785.156	68.2675	785.156	68.9716	785.156	69.627	785.156	69.5457	785.156	71.2421	785.156	71.0736	785.156	72.0049	785.156	72.1351	785.156	72.1443	785.156	72.3826	785.156	72.2322
811.523	77.7406	811.523	77.7274	811.523	77.751	811.523	77.6413	811.523	77.7463	811.523	77.4499	811.523	77.6592	811.523	77.2243	811.523	77.466	811.523	77.0378	811.523	77.2034	811.523	76.8603	811.523	76.9387	811.523	76.5755	811.523	76.6902	811.523	76.0223	811.523	76.3312	811.523	75.0036	811.523	75.6074	811.523	73.3493	811.523	74.2893	811.523	71.065	811.523	72.3202	811.523	68.6546	811.523	69.9914	811.523	67.6775	811.523	68.4152	811.523	69.0641	811.523	68.9577	811.523	71.225	811.523	70.8449	811.523	73.0129	811.523	72.7222	811.523	74.1375	811.523	74.0123	811.523	74.4954
840.82	77.9333	840.82	77.7602	840.82	77.9247	840.82	77.512	840.82	77.6863	840.82	77.265	840.82	77.3233	840.82	77.0341	840.82	77.06	840.82	76.838	840.82	76.9925	840.82	76.6713	840.82	76.9503	840.82	76.3765	840.82	76.7225	840.82	75.7662	840.82	76.2326	840.82	74.8497	840.82	75.4432	840.82	73.725	840.82	74.2588	840.82	72.1903	840.82	72.5629	840.82	69.7793	840.82	70.3458	840.82	67.4234	840.82	68.2648	840.82	68.5981	840.82	68.3078	840.82	71.0569	840.82	70.3393	840.82	72.7104	840.82	72.3348	840.82	73.6532	840.82	73.577	840.82	73.982
870.117	78.2364	870.117	78.2156	870.117	78.1016	870.117	77.8756	870.117	77.9083	870.117	77.2921	870.117	77.5758	870.117	76.8107	870.117	77.0316	870.117	76.6328	870.117	76.4102	870.117	76.6073	870.117	76.0298	870.117	76.5542	870.117	76.0418	870.117	76.3253	870.117	76.1213	870.117	75.6335	870.117	75.7189	870.117	74.1157	870.117	74.4964	870.117	71.5861	870.117	72.5152	870.117	68.4783	870.117	70.2997	870.117	66.8004	870.117	68.9571	870.117	68.1921	870.117	69.7103	870.117	70.846	870.117	71.7365	870.117	73.0607	870.117	73.4383	870.117	74.3134	870.117	74.3874	870.117	74.6861
900.879	79.3641	900.879	79.0387	900.879	79.4049	900.879	78.6127	900.879	79.0738	900.879	78.1671	900.879	78.4946	900.879	77.6392	900.879	77.913	900.879	77.0174	900.879	77.4913	900.879	76.4541	900.879	77.2084	900.879	76.0552	900.879	76.9221	900.879	75.727	900.879	76.4563	900.879	75.3407	900.879	75.6952	900.879	74.6904	900.879	74.6105	900.879	73.3176	900.879	73.0397	900.879	70.542	900.879	70.4683	900.879	66.076	900.879	66.8585	900.879	65.6903	900.879	66.6337	900.879	69.6127	900.879	69.7806	900.879	72.0701	900.879	72.0708	900.879	73.2985	900.879	73.3112	900.879	73.6929
933.105	79.3324	933.105	79.1695	933.105	79.3508	933.105	78.8189	933.105	79.1089	933.105	78.2411	933.105	78.5279	933.105	77.5536	933.105	77.8092	933.105	76.9899	933.105	77.2374	933.105	76.8018	933.105	76.8329	933.105	76.9314	933.105	76.57	933.105	76.8767	933.105	76.4883	933.105	76.1964	933.105	76.357	933.105	74.864	933.105	75.6909	933.105	73.0695	933.105	74.1009	933.105	70.6937	933.105	71.4837	933.105	67.4948	933.105	68.2026	933.105	66.289	933.105	66.6056	933.105	69.1949	933.105	68.9191	933.105	71.8012	933.105	71.605	933.105	73.2395	933.105	73.1791	933.105	73.6817
965.332	79.7001	965.332	79.6814	965.332	79.4413	965.332	79.2581	965.332	79.0273	965.332	78.5492	965.332	78.4418	965.332	77.8519	965.332	77.75	965.332	77.3051	965.332	77.1578	965.332	76.795	965.332	76.703	965.332	76.277	965.332	76.303	965.332	75.9121	965.332	76.0375	965.332	75.6784	965.332	75.7569	965.332	75.1934	965.332	74.9535	965.332	73.8625	965.332	73.435	965.332	71.093	965.332	71.3766	965.332	67.3991	965.332	68.802	965.332	65.9373	965.332	67.3919	965.332	67.7388	965.332	69.5625	965.332	70.4895	965.332	71.7158	965.332	72.432	965.332	72.8319	965.332	73.1172
1,000.49	79.1031	1,000.49	78.9184	1,000.49	79.0524	1,000.49	78.4836	1,000.49	78.7431	1,000.49	77.7871	1,000.49	78.1298	1,000.49	76.9261	1,000.49	77.2348	1,000.49	76.2156	1,000.49	76.3145	1,000.49	75.9734	1,000.49	75.8011	1,000.49	76.1475	1,000.49	75.7639	1,000.49	76.3481	1,000.49	75.7367	1,000.49	76.1625	1,000.49	75.4118	1,000.49	75.4224	1,000.49	74.6956	1,000.49	74.1481	1,000.49	73.2889	1,000.49	72.1974	1,000.49	70.7883	1,000.49	69.0423	1,000.49	67.3604	1,000.49	65.7144	1,000.49	65.5113	1,000.49	68.2126	1,000.49	67.4873	1,000.49	71.5029	1,000.49	70.2283	1,000.49	73.0124	1,000.49	72.2004	1,000.49	73.1499
1,035.64	79.5674	1,035.64	79.3988	1,035.64	79.3283	1,035.64	78.7698	1,035.64	78.9197	1,035.64	78.033	1,035.64	78.2638	1,035.64	77.2877	1,035.64	77.2253	1,035.64	76.2467	1,035.64	76.1625	1,035.64	75.1388	1,035.64	75.3671	1,035.64	74.5988	1,035.64	74.6553	1,035.64	74.3759	1,035.64	74.257	1,035.64	74.066	1,035.64	74.3994	1,035.64	73.8027	1,035.64	74.245	1,035.64	73.1493	1,035.64	73.0603	1,035.64	71.1483	1,035.64	70.7838	1,035.64	67.882	1,035.64	67.3812	1,035.64	66.6856	1,035.64	64.9392	1,035.64	67.5444	1,035.64	67.707	1,035.64	68.9655	1,035.64	70.3312	1,035.64	70.9058	1,035.64	71.6859	1,035.64	71.9221
1,072.27	79.0094	1,072.27	78.8851	1,072.27	78.802	1,072.27	78.4488	1,072.27	78.3113	1,072.27	77.8062	1,072.27	77.5377	1,072.27	76.9767	1,072.27	76.5742	1,072.27	75.9243	1,072.27	75.6095	1,072.27	74.791	1,072.27	74.6285	1,072.27	74.0664	1,072.27	73.7319	1,072.27	74.0929	1,072.27	73.4215	1,072.27	74.2712	1,072.27	73.4962	1,072.27	73.8937	1,072.27	72.9891	1,072.27	72.7109	1,072.27	71.5741	1,072.27	70.6324	1,072.27	69.5974	1,072.27	67.5273	1,072.27	66.7579	1,072.27	65.2416	1,072.27	62.9077	1,072.27	67.608	1,072.27	64.7121	1,072.27	70.4852	1,072.27	69.2169	1,072.27	72.2828	1,072.27	72.0048	1,072.27	72.9236
1,108.89	78.2564	1,108.89	78.1295	1,108.89	78.2347	1,108.89	77.8379	1,108.89	78.0024	1,108.89	77.2284	1,108.89	77.41	1,108.89	76.1967	1,108.89	76.2587	1,108.89	74.9157	1,108.89	74.8079	1,108.89	73.8762	1,108.89	73.8549	1,108.89	73.4351	1,108.89	73.4566	1,108.89	73.2962	1,108.89	72.939	1,108.89	72.9795	1,108.89	72.4464	1,108.89	72.3309	1,108.89	72.3219	1,108.89	71.4173	1,108.89	71.7913	1,108.89	69.8969	1,108.89	69.6251	1,108.89	66.8373	1,108.89	64.8038	1,108.89	64.3989	1,108.89	59.5923	1,108.89	67.2333	1,108.89	66.0091	1,108.89	69.5422	1,108.89	69.4465	1,108.89	70.423	1,108.89	70.4653	1,108.89	70.5946
1,148.44	78.4303	1,148.44	78.1826	1,148.44	78.2672	1,148.44	77.5603	1,148.44	77.8991	1,148.44	76.8504	1,148.44	77.3498	1,148.44	76.0819	1,148.44	76.4122	1,148.44	74.9039	1,148.44	75.1356	1,148.44	73.4359	1,148.44	73.907	1,148.44	72.4016	1,148.44	73.0064	1,148.44	71.9465	1,148.44	72.5722	1,148.44	71.9466	1,148.44	72.5357	1,148.44	71.9578	1,148.44	72.1726	1,148.44	71.0266	1,148.44	71.1055	1,148.44	68.7534	1,148.44	69.5825	1,148.44	65.363	1,148.44	67.0499	1,148.44	62.5398	1,148.44	62.7227	1,148.44	65.7117	1,148.44	62.5637	1,148.44	69.2328	1,148.44	66.3627	1,148.44	71.0002	1,148.44	69.4685	1,148.44	71.137
1,189.45	78.8047	1,189.45	78.8355	1,189.45	78.7067	1,189.45	78.5118	1,189.45	78.5471	1,189.45	77.7499	1,189.45	78.0432	1,189.45	76.5379	1,189.45	77.1844	1,189.45	74.9103	1,189.45	76.1512	1,189.45	73.383	1,189.45	75.0914	1,189.45	72.4606	1,189.45	74.1068	1,189.45	71.7924	1,189.45	73.1105	1,189.45	71.5243	1,189.45	72.4045	1,189.45	71.6315	1,189.45	72.2323	1,189.45	70.8656	1,189.45	71.5555	1,189.45	68.3116	1,189.45	69.7411	1,189.45	63.6507	1,189.45	66.8867	1,189.45	58.7411	1,189.45	61.914	1,189.45	63.7577	1,189.45	62.2131	1,189.45	68.8317	1,189.45	67.9782	1,189.45	71.1964	1,189.45	70.4581	1,189.45	71.4449
1,230.47	79.6643	1,230.47	79.4343	1,230.47	79.4374	1,230.47	78.7666	1,230.47	78.8998	1,230.47	77.8747	1,230.47	78.2052	1,230.47	76.8215	1,230.47	77.4933	1,230.47	75.6106	1,230.47	76.4102	1,230.47	74.2136	1,230.47	74.7821	1,230.47	72.976	1,230.47	73.7509	1,230.47	72.8447	1,230.47	73.7477	1,230.47	72.9407	1,230.47	73.7997	1,230.47	72.3233	1,230.47	73.6758	1,230.47	71.438	1,230.47	73.0396	1,230.47	69.9353	1,230.47	71.5704	1,230.47	65.9176	1,230.47	68.6425	1,230.47	59.2176	1,230.47	62.0228	1,230.47	64.4501	1,230.47	60.8521	1,230.47	68.1026	1,230.47	66.5935	1,230.47	70.516	1,230.47	69.4736	1,230.47	71.0146
1,274.41	79.421	1,274.41	79.3931	1,274.41	79.2909	1,274.41	79.0956	1,274.41	79.1673	1,274.41	78.5746	1,274.41	78.6801	1,274.41	77.7224	1,274.41	77.7226	1,274.41	76.4742	1,274.41	76.7091	1,274.41	74.8413	1,274.41	75.5679	1,274.41	73.4562	1,274.41	74.0157	1,274.41	73.0044	1,274.41	72.9423	1,274.41	72.4378	1,274.41	72.9326	1,274.41	71.3928	1,274.41	73.1154	1,274.41	70.8066	1,274.41	72.9471	1,274.41	69.9155	1,274.41	71.7468	1,274.41	66.602	1,274.41	69.0208	1,274.41	57.825	1,274.41	64.836	1,274.41	62.5699	1,274.41	60.4309	1,274.41	68.8174	1,274.41	66.99	1,274.41	70.6711	1,274.41	70.5259	1,274.41	71.0695
1,319.82	79.7255	1,319.82	79.5855	1,319.82	79.712	1,319.82	79.1751	1,319.82	79.5133	1,319.82	78.3743	1,319.82	79.0447	1,319.82	77.4079	1,319.82	78.1347	1,319.82	76.3019	1,319.82	76.7224	1,319.82	74.8268	1,319.82	75.1464	1,319.82	73.1914	1,319.82	74.0101	1,319.82	71.8046	1,319.82	73.2502	1,319.82	71.6825	1,319.82	72.8193	1,319.82	72.4764	1,319.82	73.1899	1,319.82	72.2804	1,319.82	73.0857	1,319.82	70.5124	1,319.82	71.1753	1,319.82	66.6409	1,319.82	67.4997	1,319.82	58.1915	1,319.82	62.8305	1,319.82	64.3477	1,319.82	61.1196	1,319.82	68.9981	1,319.82	66.8512	1,319.82	71.1206	1,319.82	70.5571	1,319.82	71.8433
1,366.7	79.6081	1,366.7	79.7216	1,366.7	79.5457	1,366.7	79.4465	1,366.7	79.481	1,366.7	78.7396	1,366.7	78.9509	1,366.7	77.8458	1,366.7	78.1591	1,366.7	76.6487	1,366.7	77.1735	1,366.7	75.0802	1,366.7	75.4296	1,366.7	73.3108	1,366.7	73.3376	1,366.7	71.7854	1,366.7	72.3174	1,366.7	72.4032	1,366.7	72.7955	1,366.7	72.7792	1,366.7	73.0587	1,366.7	71.9153	1,366.7	72.1456	1,366.7	71.0857	1,366.7	70.2721	1,366.7	67.188	1,366.7	65.9454	1,366.7	51.0425	1,366.7	55.4355	1,366.7	62.9817	1,366.7	63.5658	1,366.7	69.5226	1,366.7	69.9321	1,366.7	72.2992	1,366.7	72.2178	1,366.7	72.6634
1,413.57	79.1858	1,413.57	78.8498	1,413.57	79.2882	1,413.57	78.5473	1,413.57	78.9477	1,413.57	78.0775	1,413.57	78.3328	1,413.57	77.4737	1,413.57	77.3414	1,413.57	76.2472	1,413.57	76.5376	1,413.57	74.5913	1,413.57	75.361	1,413.57	72.9268	1,413.57	72.772	1,413.57	71.0368	1,413.57	71.1266	1,413.57	71.8525	1,413.57	70.6366	1,413.57	73.0761	1,413.57	72.0864	1,413.57	72.8345	1,413.57	73.3699	1,413.57	71.3127	1,413.57	72.0899	1,413.57	67.8074	1,413.57	69.5028	1,413.57	62.3753	1,413.57	62.9689	1,413.57	54.8298	1,413.57	58.3276	1,413.57	68.58	1,413.57	66.3155	1,413.57	71.0158	1,413.57	71.2106	1,413.57	72.2705
1,463.38	78.4769	1,463.38	78.6597	1,463.38	78.4925	1,463.38	78.5232	1,463.38	78.1142	1,463.38	77.9662	1,463.38	77.6471	1,463.38	77.1003	1,463.38	77.7513	1,463.38	75.9065	1,463.38	77.0617	1,463.38	74.574	1,463.38	75.6239	1,463.38	72.8564	1,463.38	73.7172	1,463.38	70.8986	1,463.38	69.9481	1,463.38	69.8522	1,463.38	67.5947	1,463.38	70.5424	1,463.38	69.8031	1,463.38	71.5552	1,463.38	72.2533	1,463.38	71.2435	1,463.38	71.9622	1,463.38	69.3556	1,463.38	69.4252	1,463.38	63.5124	1,463.38	65.225	1,463.38	55.9474	1,463.38	54.4266	1,463.38	66.6751	1,463.38	64.4507	1,463.38	70.24	1,463.38	68.0448	1,463.38	70.9317
1,516.11	77.3893	1,516.11	77.7849	1,516.11	76.9679	1,516.11	77.5978	1,516.11	76.8368	1,516.11	77.118	1,516.11	76.6939	1,516.11	76.7073	1,516.11	75.7881	1,516.11	75.7142	1,516.11	74.7978	1,516.11	74.3796	1,516.11	74.1462	1,516.11	72.635	1,516.11	72.4348	1,516.11	70.4292	1,516.11	70.2493	1,516.11	69.5017	1,516.11	68.8953	1,516.11	70.2548	1,516.11	68.7761	1,516.11	71.2362	1,516.11	70.8973	1,516.11	71.6372	1,516.11	71.1958	1,516.11	69.7395	1,516.11	70.2808	1,516.11	64.3863	1,516.11	67.984	1,516.11	46.3875	1,516.11	60.7492	1,516.11	62.7895	1,516.11	53.9188	1,516.11	67.4348	1,516.11	64.7176	1,516.11	67.9379
1,568.85	77.172	1,568.85	76.8891	1,568.85	76.9692	1,568.85	76.3048	1,568.85	76.3363	1,568.85	75.5519	1,568.85	76.2549	1,568.85	75.2363	1,568.85	75.8363	1,568.85	74.7356	1,568.85	74.4398	1,568.85	73.3986	1,568.85	73.033	1,568.85	71.1218	1,568.85	72.3996	1,568.85	69.3082	1,568.85	70.7237	1,568.85	67.5418	1,568.85	68.2097	1,568.85	67.4446	1,568.85	67.9121	1,568.85	69.4645	1,568.85	68.4546	1,568.85	69.504	1,568.85	69.4595	1,568.85	68.0034	1,568.85	68.6637	1,568.85	64.2278	1,568.85	64.4459	1,568.85	53.9267	1,568.85	54.7272	1,568.85	63.1847	1,568.85	57.272	1,568.85	66.4374	1,568.85	65.3226	1,568.85	67.1899
1,624.51	77.3039	1,624.51	77.2468	1,624.51	77.1226	1,624.51	76.7064	1,624.51	77.0522	1,624.51	76.5322	1,624.51	76.3945	1,624.51	75.2471	1,624.51	76.0321	1,624.51	74.2369	1,624.51	75.3603	1,624.51	73.4922	1,624.51	73.8181	1,624.51	70.0477	1,624.51	72.1458	1,624.51	68.5141	1,624.51	69.7188	1,624.51	67.2857	1,624.51	68.7077	1,624.51	67.1463	1,624.51	68.5853	1,624.51	69.4381	1,624.51	69.3393	1,624.51	69.4626	1,624.51	69.9749	1,624.51	69.3847	1,624.51	69.0754	1,624.51	65.6781	1,624.51	65.7713	1,624.51	51.6511	1,624.51	56.7955	1,624.51	60.9718	1,624.51	56.2834	1,624.51	66.4306	1,624.51	63.8864	1,624.51	66.9573
1,681.64	79.1456	1,681.64	78.5444	1,681.64	78.7208	1,681.64	77.5955	1,681.64	78.7535	1,681.64	76.5757	1,681.64	77.7879	1,681.64	75.9329	1,681.64	75.972	1,681.64	76.0057	1,681.64	74.8298	1,681.64	74.7544	1,681.64	74.176	1,681.64	72.9141	1,681.64	73.1655	1,681.64	70.2661	1,681.64	71.6101	1,681.64	66.9477	1,681.64	69.6177	1,681.64	65.1409	1,681.64	68.5131	1,681.64	67.3045	1,681.64	70.0687	1,681.64	68.9871	1,681.64	71.3052	1,681.64	69.8231	1,681.64	70.2185	1,681.64	66.6835	1,681.64	66.5035	1,681.64	60.7737	1,681.64	60.1382	1,681.64	54.5669	1,681.64	52.0592	1,681.64	62.9205	1,681.64	60.0147	1,681.64	64.7786
1,741.7	78.7972	1,741.7	78.7133	1,741.7	79.1169	1,741.7	78.3366	1,741.7	78.1449	1,741.7	77.9946	1,741.7	77.0934	1,741.7	76.7174	1,741.7	77.354	1,741.7	75.4148	1,741.7	75.7739	1,741.7	75.137	1,741.7	74.1855	1,741.7	73.495	1,741.7	73.3529	1,741.7	71.7961	1,741.7	72.1989	1,741.7	68.487	1,741.7	69.7703	1,741.7	65.4978	1,741.7	67.3711	1,741.7	66.7613	1,741.7	70.0228	1,741.7	68.4636	1,741.7	71.0326	1,741.7	70.6343	1,741.7	70.6771	1,741.7	69.0017	1,741.7	67.8143	1,741.7	62.1717	1,741.7	62.5524	1,741.7	56.3427	1,741.7	51.4586	1,741.7	66.8776	1,741.7	62.3902	1,741.7	66.6342
1,803.22	78.7522	1,803.22	78.5236	1,803.22	78.4189	1,803.22	77.9424	1,803.22	77.9344	1,803.22	77.5601	1,803.22	76.8938	1,803.22	76.9658	1,803.22	75.7682	1,803.22	76.0602	1,803.22	74.8741	1,803.22	74.8852	1,803.22	74.3469	1,803.22	74.4451	1,803.22	73.8275	1,803.22	72.2918	1,803.22	72.7397	1,803.22	70.1583	1,803.22	68.2664	1,803.22	67.7938	1,803.22	66.2619	1,803.22	66.7396	1,803.22	67.7889	1,803.22	70.5485	1,803.22	68.9072	1,803.22	70.4432	1,803.22	70.612	1,803.22	69.0311	1,803.22	69.9493	1,803.22	61.1552	1,803.22	65.7206	1,803.22	50.7728	1,803.22	55.524	1,803.22	61.2801	1,803.22	64.8415	1,803.22	66.6442
1,866.21	78.3346	1,866.21	78.2815	1,866.21	78.0581	1,866.21	77.5352	1,866.21	76.9876	1,866.21	76.1586	1,866.21	76.4646	1,866.21	75.7012	1,866.21	75.9186	1,866.21	75.0134	1,866.21	74.4811	1,866.21	73.4799	1,866.21	74.2361	1,866.21	73.1442	1,866.21	73.3322	1,866.21	71.9519	1,866.21	70.818	1,866.21	71.2862	1,866.21	67.901	1,866.21	67.9379	1,866.21	68.0831	1,866.21	64.4705	1,866.21	65.7723	1,866.21	69.6672	1,866.21	65.889	1,866.21	70.7605	1,866.21	67.8308	1,866.21	67.5193	1,866.21	67.7612	1,866.21	62.9892	1,866.21	63.868	1,866.21	59.7607	1,866.21	51.6311	1,866.21	61.8896	1,866.21	62.6706	1,866.21	63.7517
1,932.13	77.5068	1,932.13	76.7921	1,932.13	77.7334	1,932.13	77.0898	1,932.13	76.1427	1,932.13	76.3106	1,932.13	74.8378	1,932.13	74.4922	1,932.13	74.1344	1,932.13	72.5273	1,932.13	73.3476	1,932.13	71.7503	1,932.13	71.8871	1,932.13	70.7029	1,932.13	71.4924	1,932.13	70.2339	1,932.13	70.5713	1,932.13	67.07	1,932.13	69.0761	1,932.13	65.039	1,932.13	64.6107	1,932.13	69.2038	1,932.13	64.0502	1,932.13	65.6249	1,932.13	68.6186	1,932.13	66.0433	1,932.13	69.2678	1,932.13	62.3701	1,932.13	68.4799	1,932.13	51.9531	1,932.13	65.2282	1,932.13	59.6848	1,932.13	48.9229	1,932.13	63.7337	1,932.13	60.9594	1,932.13	63.2103
1,999.51	79.2101	1,999.51	78.6035	1,999.51	78.8686	1,999.51	77.5129	1,999.51	78.1917	1,999.51	76.4038	1,999.51	77.3201	1,999.51	74.7154	1,999.51	76.0901	1,999.51	73.2389	1,999.51	74.8982	1,999.51	72.455	1,999.51	73.7695	1,999.51	71.5765	1,999.51	73.0385	1,999.51	70.574	1,999.51	72.0035	1,999.51	68.6151	1,999.51	70.5667	1,999.51	66.1735	1,999.51	68.4098	1,999.51	64.2975	1,999.51	66.4559	1,999.51	66.9754	1,999.51	68.2781	1,999.51	68.6368	1,999.51	69.5889	1,999.51	66.276	1,999.51	68.5738	1,999.51	59.3116	1,999.51	64.1833	1,999.51	53.2627	1,999.51	45.619	1,999.51	63.7003	1,999.51	62.0062	1,999.51	64.823
2,069.82	79.8857	2,069.82	79.4595	2,069.82	79.8277	2,069.82	78.7172	2,069.82	79.323	2,069.82	77.7519	2,069.82	78.5045	2,069.82	76.2992	2,069.82	77.0752	2,069.82	74.5716	2,069.82	75.1988	2,069.82	72.6452	2,069.82	73.4253	2,069.82	71.7623	2,069.82	72.6685	2,069.82	71.1726	2,069.82	72.4087	2,069.82	70.4417	2,069.82	71.2207	2,069.82	67.4808	2,069.82	68.882	2,069.82	64.3949	2,069.82	65.5003	2,069.82	64.643	2,069.82	67.3662	2,069.82	67.7924	2,069.82	69.6585	2,069.82	67.9952	2,069.82	69.573	2,069.82	64.2133	2,069.82	65.3254	2,069.82	46.9685	2,069.82	51.0519	2,069.82	62.7508	2,069.82	60.8415	2,069.82	64.4252
2,143.07	79.3706	2,143.07	79.154	2,143.07	79.5288	2,143.07	78.8591	2,143.07	78.8898	2,143.07	78.2317	2,143.07	78.4756	2,143.07	77.1653	2,143.07	77.556	2,143.07	76.0331	2,143.07	75.9879	2,143.07	74.3911	2,143.07	74.0287	2,143.07	72.6741	2,143.07	72.0771	2,143.07	71.926	2,143.07	71.3385	2,143.07	70.5441	2,143.07	70.7477	2,143.07	69.5239	2,143.07	69.5345	2,143.07	66.3302	2,143.07	64.9474	2,143.07	64.7569	2,143.07	63.2872	2,143.07	65.5811	2,143.07	66.4579	2,143.07	67.6571	2,143.07	66.9362	2,143.07	64.782	2,143.07	63.146	2,143.07	48.3179	2,143.07	43.0675	2,143.07	60.6134	2,143.07	61.2456	2,143.07	64.8892
2,219.24	78.5219	2,219.24	78.3159	2,219.24	78.3777	2,219.24	77.7766	2,219.24	77.9938	2,219.24	77.5577	2,219.24	77.2629	2,219.24	76.732	2,219.24	76.4514	2,219.24	75.8564	2,219.24	75.1241	2,219.24	74.1132	2,219.24	73.8933	2,219.24	72.235	2,219.24	71.9943	2,219.24	71.4773	2,219.24	70.797	2,219.24	69.9753	2,219.24	69.185	2,219.24	68.0856	2,219.24	68.8667	2,219.24	67.9167	2,219.24	67.0467	2,219.24	65.4066	2,219.24	64.8645	2,219.24	66.9264	2,219.24	64.8202	2,219.24	66.0872	2,219.24	66.1565	2,219.24	63.5167	2,219.24	63.7806	2,219.24	53.3022	2,219.24	55.6279	2,219.24	56.6504	2,219.24	54.9747	2,219.24	59.8309
2,296.88	78.1197	2,296.88	78.0378	2,296.88	78.3372	2,296.88	77.4378	2,296.88	77.8017	2,296.88	76.3432	2,296.88	77.0296	2,296.88	75.1551	2,296.88	76.1099	2,296.88	74.6286	2,296.88	74.649	2,296.88	73.5555	2,296.88	73.5652	2,296.88	71.294	2,296.88	72.27	2,296.88	70.0033	2,296.88	70.9478	2,296.88	69.361	2,296.88	69.2639	2,296.88	68.0013	2,296.88	67.9462	2,296.88	66.3458	2,296.88	66.8201	2,296.88	66.0021	2,296.88	65.2902	2,296.88	65.5332	2,296.88	66.1582	2,296.88	66.3797	2,296.88	66.6865	2,296.88	61.2955	2,296.88	65.7532	2,296.88	50.9054	2,296.88	60.2514	2,296.88	55.3892	2,296.88	40.8993	2,296.88	56.5504
2,378.91	79.2992	2,378.91	79.0392	2,378.91	79.3217	2,378.91	78.4243	2,378.91	79.0837	2,378.91	77.3681	2,378.91	78.3354	2,378.91	76.0507	2,378.91	77.4757	2,378.91	74.5068	2,378.91	76.0876	2,378.91	73.3375	2,378.91	74.8815	2,378.91	71.3239	2,378.91	73.7638	2,378.91	70.0446	2,378.91	72.7255	2,378.91	67.8555	2,378.91	71.3123	2,378.91	67.9454	2,378.91	69.0675	2,378.91	65.0024	2,378.91	68.4916	2,378.91	64.5822	2,378.91	66.9796	2,378.91	65.9436	2,378.91	67.9285	2,378.91	66.2614	2,378.91	68.4561	2,378.91	62.8629	2,378.91	66.5598	2,378.91	48.5134	2,378.91	60.2379	2,378.91	55.9973	2,378.91	50.1972	2,378.91	56.8192
2,462.4	80.75	2,462.4	80.6379	2,462.4	80.5406	2,462.4	79.9438	2,462.4	80.3382	2,462.4	79.2648	2,462.4	79.6248	2,462.4	78.2282	2,462.4	78.8353	2,462.4	76.6267	2,462.4	77.6292	2,462.4	74.9456	2,462.4	76.0966	2,462.4	73.187	2,462.4	74.9058	2,462.4	71.3654	2,462.4	73.3091	2,462.4	69.2821	2,462.4	72.0983	2,462.4	68.1768	2,462.4	70.3809	2,462.4	65.43	2,462.4	67.9411	2,462.4	63.1664	2,462.4	65.7939	2,462.4	67.5535	2,462.4	68.5408	2,462.4	67.9481	2,462.4	70.2916	2,462.4	67.1536	2,462.4	67.8625	2,462.4	59.7293	2,462.4	60.2043	2,462.4	52.2051	2,462.4	50.9172	2,462.4	58.8204
2,548.83	80.5076	2,548.83	80.5253	2,548.83	80.6972	2,548.83	80.41	2,548.83	79.9016	2,548.83	79.0494	2,548.83	79.3698	2,548.83	78.2325	2,548.83	78.2238	2,548.83	77.0547	2,548.83	77.1608	2,548.83	76.0699	2,548.83	75.7544	2,548.83	74.2429	2,548.83	74.5439	2,548.83	71.8362	2,548.83	72.6165	2,548.83	70.2978	2,548.83	71.3431	2,548.83	69.7095	2,548.83	69.6112	2,548.83	68.3862	2,548.83	67.5711	2,548.83	66.5598	2,548.83	63.421	2,548.83	65.4458	2,548.83	64.5864	2,548.83	67.9465	2,548.83	68.7757	2,548.83	67.3522	2,548.83	67.383	2,548.83	62.4772	2,548.83	62.3031	2,548.83	56.6944	2,548.83	57.9833	2,548.83	58.8648
2,639.65	79.0874	2,639.65	79.0455	2,639.65	79.0225	2,639.65	78.9005	2,639.65	78.908	2,639.65	78.0999	2,639.65	78.1366	2,639.65	77.2716	2,639.65	77.2981	2,639.65	75.8827	2,639.65	76.2555	2,639.65	74.3087	2,639.65	74.6187	2,639.65	73.9762	2,639.65	73.1556	2,639.65	72.1318	2,639.65	71.8982	2,639.65	68.8167	2,639.65	69.731	2,639.65	66.9478	2,639.65	68.5567	2,639.65	68.062	2,639.65	67.5098	2,639.65	65.6827	2,639.65	65.8967	2,639.65	66.9347	2,639.65	61.134	2,639.65	66.8214	2,639.65	64.0153	2,639.65	66.3141	2,639.65	65.7227	2,639.65	60.1202	2,639.65	57.7479	2,639.65	60.1931	2,639.65	57.0784	2,639.65	61.8735
2,731.93	78.9412	2,731.93	78.5339	2,731.93	78.4768	2,731.93	78.2329	2,731.93	78.4854	2,731.93	77.4108	2,731.93	77.8684	2,731.93	76.2189	2,731.93	77.0586	2,731.93	75.1497	2,731.93	76.3085	2,731.93	73.1571	2,731.93	74.6381	2,731.93	72.1463	2,731.93	72.5485	2,731.93	71.0312	2,731.93	70.7731	2,731.93	68.9704	2,731.93	69.4985	2,731.93	64.5649	2,731.93	68.1567	2,731.93	65.979	2,731.93	66.1348	2,731.93	64.234	2,731.93	66.0275	2,731.93	63.5999	2,731.93	64.271	2,731.93	65.9846	2,731.93	64.2075	2,731.93	63.7436	2,731.93	64.9999	2,731.93	54.9364	2,731.93	60.3211	2,731.93	55.9088	2,731.93	35.2367	2,731.93	58.8059
2,828.61	79.6827	2,828.61	79.0859	2,828.61	79.334	2,828.61	78.1152	2,828.61	79.2646	2,828.61	78.2495	2,828.61	78.6333	2,828.61	77.0123	2,828.61	77.705	2,828.61	75.595	2,828.61	76.6828	2,828.61	73.204	2,828.61	75.1953	2,828.61	71.2022	2,828.61	73.1827	2,828.61	71.1388	2,828.61	71.5389	2,828.61	68.925	2,828.61	70.0487	2,828.61	65.2657	2,828.61	68.4116	2,828.61	64.5291	2,828.61	66.5709	2,828.61	64.0539	2,828.61	65.7148	2,828.61	64.6327	2,828.61	64.6451	2,828.61	64.2475	2,828.61	65.7619	2,828.61	65.5704	2,828.61	66.4384	2,828.61	59.3848	2,828.61	62.2976	2,828.61	50.169	2,828.61	51.8947	2,828.61	55.861
2,928.22	79.9799	2,928.22	79.7343	2,928.22	80.0028	2,928.22	79.0554	2,928.22	79.5172	2,928.22	78.5445	2,928.22	79.0396	2,928.22	77.8876	2,928.22	78.2599	2,928.22	76.639	2,928.22	77.0323	2,928.22	74.8518	2,928.22	75.671	2,928.22	72.0974	2,928.22	73.6811	2,928.22	70.4002	2,928.22	71.5775	2,928.22	69.7252	2,928.22	70.2719	2,928.22	67.4309	2,928.22	67.5494	2,928.22	64.6516	2,928.22	67.0248	2,928.22	64.3473	2,928.22	66.0092	2,928.22	64.4015	2,928.22	62.6955	2,928.22	66.7322	2,928.22	66.101	2,928.22	65.5446	2,928.22	66.6216	2,928.22	61.0928	2,928.22	63.8205	2,928.22	42.7202	2,928.22	53.3094	2,928.22	56.1854
3,030.76	79.9234	3,030.76	80.046	3,030.76	79.898	3,030.76	79.4753	3,030.76	79.4305	3,030.76	78.6725	3,030.76	78.8113	3,030.76	78.1068	3,030.76	78.1118	3,030.76	76.9271	3,030.76	77.2198	3,030.76	75.3719	3,030.76	75.8076	3,030.76	72.9095	3,030.76	73.8074	3,030.76	70.9983	3,030.76	71.8364	3,030.76	70.2715	3,030.76	70.1848	3,030.76	68.0599	3,030.76	67.6122	3,030.76	65.4501	3,030.76	66.9137	3,030.76	66.3188	3,030.76	66.4812	3,030.76	60.1561	3,030.76	62.918	3,030.76	65.2108	3,030.76	63.6033	3,030.76	67.0484	3,030.76	67.4627	3,030.76	64.3961	3,030.76	65.4419	3,030.76	59.8901	3,030.76	58.1147	3,030.76	57.8716
3,137.7	79.8684	3,137.7	79.8113	3,137.7	79.8388	3,137.7	79.6727	3,137.7	79.5349	3,137.7	79.0056	3,137.7	78.9793	3,137.7	78.0382	3,137.7	77.8074	3,137.7	76.9028	3,137.7	76.5135	3,137.7	75.7803	3,137.7	75.5032	3,137.7	73.537	3,137.7	73.9039	3,137.7	70.5317	3,137.7	71.5594	3,137.7	70.7915	3,137.7	70.8043	3,137.7	68.9394	3,137.7	69.369	3,137.7	64.0115	3,137.7	65.8309	3,137.7	66.9733	3,137.7	65.6956	3,137.7	63.6362	3,137.7	65.6911	3,137.7	64.1803	3,137.7	62.1999	3,137.7	65.7353	3,137.7	65.3574	3,137.7	63.7885	3,137.7	63.6755	3,137.7	60.6974	3,137.7	56.4943	3,137.7	59.6922
3,249.02	79.9301	3,249.02	79.7546	3,249.02	79.9652	3,249.02	79.459	3,249.02	79.7402	3,249.02	78.6403	3,249.02	79.2778	3,249.02	77.5018	3,249.02	78.3297	3,249.02	76.1043	3,249.02	77.0138	3,249.02	74.7844	3,249.02	75.4233	3,249.02	73.2158	3,249.02	73.5931	3,249.02	70.4049	3,249.02	71.2807	3,249.02	69.6197	3,249.02	69.1346	3,249.02	68.0889	3,249.02	69.6993	3,249.02	65.2451	3,249.02	66.7955	3,249.02	64.79	3,249.02	65.1082	3,249.02	64.8116	3,249.02	65.0541	3,249.02	62.6814	3,249.02	63.3775	3,249.02	65.9944	3,249.02	65.0168	3,249.02	64.0191	3,249.02	63.9543	3,249.02	60.2477	3,249.02	57.1584	3,249.02	57.4364
3,363.28	80.191	3,363.28	79.9476	3,363.28	80.2759	3,363.28	79.7476	3,363.28	79.9553	3,363.28	78.9126	3,363.28	79.4668	3,363.28	77.8473	3,363.28	78.3736	3,363.28	76.4516	3,363.28	76.906	3,363.28	74.7785	3,363.28	75.6457	3,363.28	73.2109	3,363.28	73.8756	3,363.28	70.5695	3,363.28	71.4732	3,363.28	68.3129	3,363.28	69.3471	3,363.28	68.0047	3,363.28	68.0544	3,363.28	64.0435	3,363.28	66.2431	3,363.28	64.3622	3,363.28	66.3503	3,363.28	64.1119	3,363.28	65.9897	3,363.28	62.4444	3,363.28	62.0427	3,363.28	64.343	3,363.28	65.328	3,363.28	62.8294	3,363.28	64.7848	3,363.28	58.3447	3,363.28	61.5313	3,363.28	60.5165
3,481.93	79.8696	3,481.93	79.9695	3,481.93	79.6612	3,481.93	80.0938	3,481.93	79.6249	3,481.93	79.7502	3,481.93	79.3164	3,481.93	78.5803	3,481.93	78.4226	3,481.93	77.5399	3,481.93	77.2329	3,481.93	76.0896	3,481.93	75.6589	3,481.93	74.1521	3,481.93	74.3741	3,481.93	71.8529	3,481.93	71.6676	3,481.93	69.6856	3,481.93	69.0563	3,481.93	68.0304	3,481.93	69.0763	3,481.93	65.6159	3,481.93	65.2742	3,481.93	64.8841	3,481.93	63.1896	3,481.93	65.7735	3,481.93	67.7777	3,481.93	64.1786	3,481.93	63.4693	3,481.93	65.8924	3,481.93	64.7757	3,481.93	64.2994	3,481.93	64.9119	3,481.93	60.6475	3,481.93	61.8358	3,481.93	62.4205
3,604.98	79.8311	3,604.98	80.0974	3,604.98	80.0237	3,604.98	80.138	3,604.98	80.3356	3,604.98	79.9226	3,604.98	80.0825	3,604.98	78.8224	3,604.98	79.7241	3,604.98	77.2375	3,604.98	78.4482	3,604.98	75.5783	3,604.98	76.7541	3,604.98	74.0033	3,604.98	75.0512	3,604.98	71.3724	3,604.98	73.3187	3,604.98	70.3637	3,604.98	70.4506	3,604.98	68.4722	3,604.98	69.7163	3,604.98	64.8294	3,604.98	67.2093	3,604.98	63.5178	3,604.98	64.9115	3,604.98	66.1406	3,604.98	67.7011	3,604.98	63.8323	3,604.98	66.1851	3,604.98	66.3692	3,604.98	65.39	3,604.98	63.9553	3,604.98	66.6592	3,604.98	61.4852	3,604.98	62.9535	3,604.98	63.1689
3,732.42	80.6021	3,732.42	80.7885	3,732.42	80.7332	3,732.42	80.673	3,732.42	80.8999	3,732.42	80.5151	3,732.42	80.8337	3,732.42	79.9072	3,732.42	80.3455	3,732.42	78.3779	3,732.42	79.1605	3,732.42	75.8561	3,732.42	77.1726	3,732.42	74.6585	3,732.42	75.1988	3,732.42	72.9186	3,732.42	73.5493	3,732.42	69.2501	3,732.42	70.5699	3,732.42	69.4275	3,732.42	68.7615	3,732.42	66.4447	3,732.42	68.522	3,732.42	64.1296	3,732.42	65.8598	3,732.42	66.0838	3,732.42	67.0335	3,732.42	64.9668	3,732.42	65.8124	3,732.42	66.6805	3,732.42	66.7959	3,732.42	64.8054	3,732.42	66.2221	3,732.42	62.013	3,732.42	63.0698	3,732.42	63.8932
3,864.26	78.9392	3,864.26	79.52	3,864.26	79.1871	3,864.26	80.0185	3,864.26	79.677	3,864.26	79.9834	3,864.26	79.8384	3,864.26	79.8291	3,864.26	79.3645	3,864.26	78.4454	3,864.26	78.0248	3,864.26	75.8145	3,864.26	76.1106	3,864.26	74.2047	3,864.26	74.2388	3,864.26	72.9982	3,864.26	72.7215	3,864.26	69.0681	3,864.26	70.1548	3,864.26	69.2562	3,864.26	67.8894	3,864.26	66.2378	3,864.26	67.656	3,864.26	62.3789	3,864.26	63.2114	3,864.26	66.5455	3,864.26	66.2627	3,864.26	63.5531	3,864.26	64.4176	3,864.26	65.6849	3,864.26	65.9313	3,864.26	65.7966	3,864.26	65.4202	3,864.26	62.6213	3,864.26	59.7949	3,864.26	63.6067
4,000.49	79.1543	4,000.49	79.4558	4,000.49	79.5805	4,000.49	79.7629	4,000.49	80.3551	4,000.49	79.4473	4,000.49	80.7311	4,000.49	79.2839	4,000.49	80.3872	4,000.49	77.361	4,000.49	79.0725	4,000.49	75.9067	4,000.49	77.4744	4,000.49	73.2292	4,000.49	75.6118	4,000.49	69.6861	4,000.49	73.4099	4,000.49	69.5355	4,000.49	71.3468	4,000.49	66.7273	4,000.49	68.1807	4,000.49	65.4911	4,000.49	69.5884	4,000.49	60.4724	4,000.49	65.6731	4,000.49	66.2158	4,000.49	66.2002	4,000.49	63.3462	4,000.49	67.6693	4,000.49	66.1998	4,000.49	65.6207	4,000.49	64.462	4,000.49	67.0876	4,000.49	60.7769	4,000.49	62.1291	4,000.49	63.891
4,141.11	80.5177	4,141.11	80.4132	4,141.11	80.3733	4,141.11	80.8385	4,141.11	81.2509	4,141.11	81.2655	4,141.11	81.4141	4,141.11	79.8549	4,141.11	80.6722	4,141.11	78.2966	4,141.11	79.0434	4,141.11	77.3153	4,141.11	77.6503	4,141.11	74.2943	4,141.11	74.8876	4,141.11	72.4098	4,141.11	73.4027	4,141.11	71.5305	4,141.11	70.3498	4,141.11	66.2881	4,141.11	68.1273	4,141.11	68.5261	4,141.11	67.1196	4,141.11	64.6641	4,141.11	65.2482	4,141.11	66.0222	4,141.11	66.5842	4,141.11	65.1384	4,141.11	67.1836	4,141.11	66.007	4,141.11	66.3268	4,141.11	65.9977	4,141.11	68.5823	4,141.11	62.2503	4,141.11	63.5774	4,141.11	65.5293
4,287.6	80.6198	4,287.6	80.4638	4,287.6	80.7795	4,287.6	80.7208	4,287.6	81.1267	4,287.6	81.3602	4,287.6	81.4024	4,287.6	79.8333	4,287.6	80.7192	4,287.6	78.7732	4,287.6	79.9619	4,287.6	77.0382	4,287.6	77.8304	4,287.6	73.5244	4,287.6	76.4692	4,287.6	73.3349	4,287.6	73.3499	4,287.6	68.8244	4,287.6	71.7223	4,287.6	69.3423	4,287.6	69.8163	4,287.6	69.6833	4,287.6	69.3535	4,287.6	64.5555	4,287.6	65.33	4,287.6	67.1397	4,287.6	65.2076	4,287.6	65.9081	4,287.6	67.2381	4,287.6	65.3019	4,287.6	66.7335	4,287.6	66.131	4,287.6	67.8522	4,287.6	62.6628	4,287.6	61.8645	4,287.6	66.4404
4,438.48	81.1338	4,438.48	81.3073	4,438.48	81.689	4,438.48	81.2579	4,438.48	81.4853	4,438.48	80.6234	4,438.48	81.5877	4,438.48	80.113	4,438.48	81.167	4,438.48	79.8649	4,438.48	80.294	4,438.48	76.6042	4,438.48	78.6944	4,438.48	75.1128	4,438.48	75.8334	4,438.48	71.5821	4,438.48	74.4243	4,438.48	68.9263	4,438.48	72.0483	4,438.48	69.342	4,438.48	68.9579	4,438.48	67.1571	4,438.48	68.3609	4,438.48	64.1434	4,438.48	65.0256	4,438.48	62.364	4,438.48	64.2497	4,438.48	64.528	4,438.48	67.9921	4,438.48	64.3988	4,438.48	66.7158	4,438.48	65.7997	4,438.48	66.8238	4,438.48	58.0174	4,438.48	61.0579	4,438.48	65.2319
4,595.21	80.9659	4,595.21	80.9942	4,595.21	81.0106	4,595.21	81.246	4,595.21	81.2161	4,595.21	81.0684	4,595.21	80.8706	4,595.21	80.5	4,595.21	80.841	4,595.21	78.7959	4,595.21	79.0242	4,595.21	77.1857	4,595.21	76.8719	4,595.21	74.3123	4,595.21	75.5823	4,595.21	71.9325	4,595.21	74.105	4,595.21	72.6565	4,595.21	71.8383	4,595.21	68.9213	4,595.21	68.1973	4,595.21	66.9774	4,595.21	67.1048	4,595.21	63.471	4,595.21	65.9758	4,595.21	63.0744	4,595.21	60.7975	4,595.21	65.9357	4,595.21	66.2461	4,595.21	63.3548	4,595.21	64.3074	4,595.21	64.6441	4,595.21	65.6278	4,595.21	62.9837	4,595.21	63.1143	4,595.21	62.8531
4,756.35	81.7455	4,756.35	81.5577	4,756.35	81.6143	4,756.35	81.6968	4,756.35	82.1147	4,756.35	81.5649	4,756.35	82.003	4,756.35	80.1237	4,756.35	81.2391	4,756.35	78.2483	4,756.35	79.7107	4,756.35	76.3808	4,756.35	78.6095	4,756.35	74.578	4,756.35	77.1669	4,756.35	73.6723	4,756.35	74.5703	4,756.35	70.9068	4,756.35	72.3779	4,756.35	67.6154	4,756.35	70.4875	4,756.35	65.6099	4,756.35	67.3519	4,756.35	65.3533	4,756.35	67.3696	4,756.35	64.4693	4,756.35	63.9722	4,756.35	64.3113	4,756.35	66.1816	4,756.35	66.4528	4,756.35	67.7602	4,756.35	65.1525	4,756.35	66.9869	4,756.35	62.4468	4,756.35	62.0526	4,756.35	64.7694
4,924.8	82.369	4,924.8	82.3026	4,924.8	82.3952	4,924.8	82.2491	4,924.8	82.4518	4,924.8	81.47	4,924.8	82.2469	4,924.8	80.8564	4,924.8	81.2315	4,924.8	80.3286	4,924.8	80.5823	4,924.8	78.4542	4,924.8	79.3323	4,924.8	77.2664	4,924.8	76.5362	4,924.8	75.4481	4,924.8	74.4349	4,924.8	71.5005	4,924.8	72.7091	4,924.8	69.5694	4,924.8	71.2007	4,924.8	69.6618	4,924.8	68.3138	4,924.8	64.5783	4,924.8	65.8898	4,924.8	66.2862	4,924.8	66.8449	4,924.8	64.4224	4,924.8	65.0988	4,924.8	67.0587	4,924.8	66.2078	4,924.8	67.3505	4,924.8	68.059	4,924.8	59.9077	4,924.8	59.3453	4,924.8	66.3042
5,097.66	82.0386	5,097.66	82.1335	5,097.66	82.0841	5,097.66	81.252	5,097.66	82.1954	5,097.66	80.866	5,097.66	82.172	5,097.66	80.7249	5,097.66	81.5703	5,097.66	79.431	5,097.66	80.5513	5,097.66	77.823	5,097.66	78.807	5,097.66	76.3452	5,097.66	76.6938	5,097.66	74.0209	5,097.66	75.1037	5,097.66	72.5739	5,097.66	73.6519	5,097.66	71.4228	5,097.66	69.8795	5,097.66	70.1721	5,097.66	68.1556	5,097.66	64.0194	5,097.66	66.6973	5,097.66	66.0494	5,097.66	67.2251	5,097.66	67.8036	5,097.66	67.6235	5,097.66	64.2864	5,097.66	64.353	5,097.66	68.5879	5,097.66	69.0252	5,097.66	54.2836	5,097.66	62.5534	5,097.66	63.4465
5,277.83	82.1458	5,277.83	81.8561	5,277.83	81.9679	5,277.83	81.7531	5,277.83	81.8706	5,277.83	81.5932	5,277.83	81.1177	5,277.83	80.9899	5,277.83	80.6425	5,277.83	79.6603	5,277.83	79.7557	5,277.83	78.5042	5,277.83	78.6345	5,277.83	76.6828	5,277.83	77.3697	5,277.83	74.029	5,277.83	75.9411	5,277.83	72.5142	5,277.83	73.2744	5,277.83	67.0152	5,277.83	70.389	5,277.83	64.1039	5,277.83	70.0282	5,277.83	63.8592	5,277.83	66.2382	5,277.83	64.4459	5,277.83	61.9521	5,277.83	69.4782	5,277.83	69.4554	5,277.83	64.1353	5,277.83	67.6834	5,277.83	67.4904	5,277.83	67.4436	5,277.83	61.5439	5,277.83	62.4271	5,277.83	62.1924
5,463.87	82.7172	5,463.87	81.8314	5,463.87	82.4421	5,463.87	81.5787	5,463.87	82.1336	5,463.87	81.3636	5,463.87	81.6184	5,463.87	80.8769	5,463.87	81.3775	5,463.87	81.0093	5,463.87	80.6656	5,463.87	78.7737	5,463.87	79.5379	5,463.87	77.2959	5,463.87	78.3003	5,463.87	75.4252	5,463.87	74.8921	5,463.87	72.8051	5,463.87	72.4212	5,463.87	69.6867	5,463.87	70.7699	5,463.87	70.0711	5,463.87	67.964	5,463.87	67.4034	5,463.87	64.6716	5,463.87	66.984	5,463.87	62.5575	5,463.87	67.9456	5,463.87	66.3221	5,463.87	66.8679	5,463.87	67.0652	5,463.87	67.8827	5,463.87	67.7292	5,463.87	61.4548	5,463.87	64.3659	5,463.87	63.3166
5,657.23	83.8252	5,657.23	83.0007	5,657.23	83.1603	5,657.23	82.0204	5,657.23	82.0291	5,657.23	81.6719	5,657.23	82.1323	5,657.23	81.6157	5,657.23	81.4837	5,657.23	81.434	5,657.23	80.7738	5,657.23	79.7111	5,657.23	79.1693	5,657.23	77.8096	5,657.23	77.2609	5,657.23	74.9431	5,657.23	74.691	5,657.23	71.7279	5,657.23	72.867	5,657.23	70.5788	5,657.23	70.3352	5,657.23	69.338	5,657.23	69.4155	5,657.23	63.8937	5,657.23	67.3589	5,657.23	65.0377	5,657.23	64.9977	5,657.23	66.3392	5,657.23	64.4217	5,657.23	66.0099	5,657.23	69.2478	5,657.23	67.1474	5,657.23	67.2267	5,657.23	61.9354	5,657.23	61.037	5,657.23	59.7385
5,856.45	82.9885	5,856.45	82.4645	5,856.45	82.8665	5,856.45	81.2943	5,856.45	81.665	5,856.45	81.3735	5,856.45	81.0265	5,856.45	80.8708	5,856.45	81.057	5,856.45	80.0942	5,856.45	80.6102	5,856.45	78.8927	5,856.45	78.9527	5,856.45	76.9159	5,856.45	77.2606	5,856.45	74.5774	5,856.45	75.5271	5,856.45	72.4746	5,856.45	71.9764	5,856.45	70.0692	5,856.45	69.7045	5,856.45	66.5846	5,856.45	68.3234	5,856.45	64.1485	5,856.45	67.3541	5,856.45	64.7449	5,856.45	63.1961	5,856.45	68.1597	5,856.45	65.6009	5,856.45	66.6619	5,856.45	67.9232	5,856.45	67.9147	5,856.45	67.0045	5,856.45	63.2797	5,856.45	63.9994	5,856.45	61.1518
6,062.99	81.2123	6,062.99	81.0827	6,062.99	81.1988	6,062.99	80.3989	6,062.99	79.942	6,062.99	80.1069	6,062.99	78.9897	6,062.99	80.1832	6,062.99	79.8348	6,062.99	79.1083	6,062.99	80.2019	6,062.99	78.1124	6,062.99	79.3401	6,062.99	76.5183	6,062.99	77.1927	6,062.99	74.0105	6,062.99	74.92	6,062.99	70.9953	6,062.99	71.9283	6,062.99	67.6238	6,062.99	70.1524	6,062.99	66.5825	6,062.99	67.9496	6,062.99	65.6735	6,062.99	66.9361	6,062.99	63.8785	6,062.99	64.2191	6,062.99	67.3978	6,062.99	67.0238	6,062.99	66.4468	6,062.99	66.8596	6,062.99	67.9331	6,062.99	65.8398	6,062.99	62.4316	6,062.99	65.341	6,062.99	61.0066
6,276.86	79.9684	6,276.86	78.9467	6,276.86	79.1044	6,276.86	77.8048	6,276.86	78.7835	6,276.86	77.3696	6,276.86	78.9104	6,276.86	78.5919	6,276.86	79.2852	6,276.86	78.6212	6,276.86	79.2381	6,276.86	76.5635	6,276.86	78.2543	6,276.86	73.8383	6,276.86	76.1326	6,276.86	70.7953	6,276.86	73.8933	6,276.86	69.554	6,276.86	71.5406	6,276.86	66.6606	6,276.86	69.3096	6,276.86	65.8875	6,276.86	66.9543	6,276.86	66.3209	6,276.86	65.8433	6,276.86	60.8703	6,276.86	63.6087	6,276.86	66.3898	6,276.86	65.2142	6,276.86	64.336	6,276.86	63.1123	6,276.86	65.8665	6,276.86	62.4787	6,276.86	61.9482	6,276.86	65.415	6,276.86	60.448
6,498.05	80.5865	6,498.05	79.7667	6,498.05	80.1508	6,498.05	78.3812	6,498.05	79.501	6,498.05	78.5488	6,498.05	79.6101	6,498.05	77.9848	6,498.05	79.5295	6,498.05	77.0204	6,498.05	79.0747	6,498.05	76.2866	6,498.05	77.8369	6,498.05	72.9789	6,498.05	75.8896	6,498.05	71.4227	6,498.05	75.0575	6,498.05	68.8099	6,498.05	71.8783	6,498.05	67.0195	6,498.05	67.9715	6,498.05	64.89	6,498.05	65.8132	6,498.05	62.6882	6,498.05	65.7632	6,498.05	57.5104	6,498.05	63.0237	6,498.05	59.7676	6,498.05	65.0096	6,498.05	63.652	6,498.05	67.9188	6,498.05	63.9112	6,498.05	64.4694	6,498.05	57.1768	6,498.05	65.4153	6,498.05	61.5622
6,726.56	80.3369	6,726.56	79.6839	6,726.56	80.5497	6,726.56	78.0862	6,726.56	79.497	6,726.56	77.6144	6,726.56	78.721	6,726.56	77.8064	6,726.56	79.5941	6,726.56	77.4454	6,726.56	79.4532	6,726.56	75.7999	6,726.56	78.3587	6,726.56	74.77	6,726.56	77.0126	6,726.56	73.2587	6,726.56	74.4623	6,726.56	68.9127	6,726.56	72.2791	6,726.56	67.2956	6,726.56	70.4913	6,726.56	65.0959	6,726.56	67.3806	6,726.56	65.3561	6,726.56	65.3619	6,726.56	62.6435	6,726.56	63.2603	6,726.56	59.7095	6,726.56	63.2242	6,726.56	65.3619	6,726.56	66.4391	6,726.56	66.6715	6,726.56	65.0418	6,726.56	62.7095	6,726.56	65.3826	6,726.56	59.9293
6,963.87	80.6225	6,963.87	79.6838	6,963.87	79.9774	6,963.87	78.4278	6,963.87	79.6084	6,963.87	77.6494	6,963.87	79.4033	6,963.87	78.0379	6,963.87	79.5278	6,963.87	77.9734	6,963.87	79.4007	6,963.87	75.7851	6,963.87	79.2117	6,963.87	74.122	6,963.87	77.3896	6,963.87	71.4702	6,963.87	74.926	6,963.87	68.1368	6,963.87	73.0186	6,963.87	65.9083	6,963.87	69.8791	6,963.87	62.2725	6,963.87	67.4097	6,963.87	58.831	6,963.87	66.1104	6,963.87	61.7427	6,963.87	62.4727	6,963.87	61.0416	6,963.87	61.6203	6,963.87	64.5317	6,963.87	66.2622	6,963.87	63.8949	6,963.87	64.9598	6,963.87	58.6607	6,963.87	63.9433	6,963.87	57.9346
7,209.96	81.2478	7,209.96	80.3872	7,209.96	81.0013	7,209.96	79.4541	7,209.96	80.9953	7,209.96	79.1702	7,209.96	80.4533	7,209.96	78.3601	7,209.96	80.2053	7,209.96	77.7123	7,209.96	80.4405	7,209.96	76.9854	7,209.96	79.1933	7,209.96	75.2576	7,209.96	77.2334	7,209.96	72.3535	7,209.96	75.7391	7,209.96	70.0207	7,209.96	72.4546	7,209.96	67.0704	7,209.96	70.1276	7,209.96	64.6392	7,209.96	67.4272	7,209.96	63.7121	7,209.96	65.3915	7,209.96	62.2241	7,209.96	64.4251	7,209.96	54.7006	7,209.96	64.0785	7,209.96	65.6015	7,209.96	67.4197	7,209.96	64.2187	7,209.96	65.8786	7,209.96	58.5877	7,209.96	65.104	7,209.96	58.8026
7,464.84	81.1459	7,464.84	80.7233	7,464.84	81.4805	7,464.84	80.0015	7,464.84	80.8024	7,464.84	79.0241	7,464.84	79.8618	7,464.84	79.0227	7,464.84	79.8555	7,464.84	78.6883	7,464.84	79.2774	7,464.84	77.7832	7,464.84	78.5696	7,464.84	75.1575	7,464.84	77.1228	7,464.84	72.689	7,464.84	75.0719	7,464.84	70.225	7,464.84	71.9448	7,464.84	67.68	7,464.84	69.8103	7,464.84	64.0717	7,464.84	67.3859	7,464.84	63.7031	7,464.84	63.6225	7,464.84	63.1287	7,464.84	62.5561	7,464.84	61.7513	7,464.84	57.5595	7,464.84	64.6116	7,464.84	66.626	7,464.84	62.5618	7,464.84	63.9048	7,464.84	61.214	7,464.84	64.3247	7,464.84	55.5315
7,727.05	82.0163	7,727.05	81.9129	7,727.05	81.7852	7,727.05	80.5923	7,727.05	81.2345	7,727.05	79.0871	7,727.05	80.5754	7,727.05	78.9709	7,727.05	80.1577	7,727.05	78.4032	7,727.05	79.8656	7,727.05	77.3587	7,727.05	79.5804	7,727.05	74.778	7,727.05	77.5619	7,727.05	71.9871	7,727.05	75.071	7,727.05	70.6175	7,727.05	72.8507	7,727.05	67.4246	7,727.05	69.2312	7,727.05	65.2453	7,727.05	67.4789	7,727.05	63.147	7,727.05	62.8815	7,727.05	61.115	7,727.05	63.0061	7,727.05	60.7491	7,727.05	64.3204	7,727.05	63.609	7,727.05	65.2901	7,727.05	61.7661	7,727.05	65.6397	7,727.05	54.6403	7,727.05	63.8891	7,727.05	58.2656
7,999.51	80.3406	7,999.51	80.9193	7,999.51	81.3863	7,999.51	79.8979	7,999.51	80.6561	7,999.51	78.6513	7,999.51	79.3473	7,999.51	78.3213	7,999.51	78.9316	7,999.51	78.58	7,999.51	79.2282	7,999.51	77.7941	7,999.51	78.5623	7,999.51	76.3161	7,999.51	76.9233	7,999.51	73.603	7,999.51	75.3584	7,999.51	71.4483	7,999.51	72.2938	7,999.51	68.6807	7,999.51	68.7313	7,999.51	65.9711	7,999.51	67.1505	7,999.51	63.0341	7,999.51	65.411	7,999.51	63.6568	7,999.51	62.6952	7,999.51	59.5559	7,999.51	61.6886	7,999.51	63.1472	7,999.51	64.0243	7,999.51	62.2228	7,999.51	65.3819	7,999.51	60.0375	7,999.51	64.1012	7,999.51	59.9229
8,282.23	80.9193	8,282.23	81.0159	8,282.23	80.6339	8,282.23	80.798	8,282.23	80.9044	8,282.23	78.7398	8,282.23	79.4916	8,282.23	78.1853	8,282.23	78.6412	8,282.23	78.7972	8,282.23	78.892	8,282.23	77.2159	8,282.23	78.2325	8,282.23	75.6148	8,282.23	76.4715	8,282.23	73.7013	8,282.23	74.6587	8,282.23	71.1222	8,282.23	72.2758	8,282.23	67.5577	8,282.23	68.2662	8,282.23	65.766	8,282.23	65.5339	8,282.23	64.1406	8,282.23	61.9834	8,282.23	59.1274	8,282.23	62.5815	8,282.23	58.9628	8,282.23	61.9377	8,282.23	61.3562	8,282.23	64.3746	8,282.23	60.3131	8,282.23	64.3698	8,282.23	58.6441	8,282.23	60.7695	8,282.23	54.6652
8,573.73	80.1006	8,573.73	80.9959	8,573.73	80.6598	8,573.73	81.2099	8,573.73	80.9729	8,573.73	79.6324	8,573.73	79.6493	8,573.73	78.2755	8,573.73	79.0015	8,573.73	78.187	8,573.73	78.8361	8,573.73	76.776	8,573.73	77.5782	8,573.73	74.981	8,573.73	76.6473	8,573.73	72.7209	8,573.73	74.0118	8,573.73	68.7305	8,573.73	70.0332	8,573.73	66.5951	8,573.73	67.1386	8,573.73	64.5541	8,573.73	61.0847	8,573.73	61.0481	8,573.73	61.6049	8,573.73	57.645	8,573.73	60.0638	8,573.73	60.9676	8,573.73	62.0387	8,573.73	62.6867	8,573.73	64.1986	8,573.73	62.0951	8,573.73	62.8063	8,573.73	57.1372	8,573.73	61.5744	8,573.73	58.1817
8,876.95	80.5603	8,876.95	80.9732	8,876.95	80.6972	8,876.95	80.7948	8,876.95	80.9847	8,876.95	79.3132	8,876.95	79.8888	8,876.95	77.5398	8,876.95	78.1642	8,876.95	76.5441	8,876.95	76.9508	8,876.95	74.8322	8,876.95	75.9999	8,876.95	73.0446	8,876.95	74.1715	8,876.95	70.6753	8,876.95	71.4449	8,876.95	67.5569	8,876.95	70.1637	8,876.95	63.4812	8,876.95	65.6475	8,876.95	61.3707	8,876.95	63.461	8,876.95	58.0651	8,876.95	58.3722	8,876.95	56.6811	8,876.95	57.0246	8,876.95	58.2239	8,876.95	58.7046	8,876.95	58.1619	8,876.95	58.5397	8,876.95	60.6538	8,876.95	59.9171	8,876.95	53.5194	8,876.95	59.9881	8,876.95	52.8356
9,188.96	80.2766	9,188.96	80.136	9,188.96	80.4049	9,188.96	79.6225	9,188.96	79.7868	9,188.96	78.6669	9,188.96	78.5679	9,188.96	77.5079	9,188.96	76.5327	9,188.96	75.8807	9,188.96	76.344	9,188.96	74.3708	9,188.96	76.0608	9,188.96	72.9015	9,188.96	73.613	9,188.96	69.8231	9,188.96	71.1992	9,188.96	66.7685	9,188.96	67.9317	9,188.96	63.8625	9,188.96	65.0943	9,188.96	63.3272	9,188.96	63.7435	9,188.96	56.4963	9,188.96	59.9138	9,188.96	56.2436	9,188.96	55.399	9,188.96	53.4622	9,188.96	54.7905	9,188.96	53.6477	9,188.96	52.9832	9,188.96	59.7358	9,188.96	59.4485	9,188.96	56.8737	9,188.96	57.4458	9,188.96	49.7921
9,514.16	80.9524	9,514.16	80.5067	9,514.16	80.2216	9,514.16	78.9746	9,514.16	79.1521	9,514.16	77.5775	9,514.16	78.4401	9,514.16	76.5553	9,514.16	77.5399	9,514.16	75.5883	9,514.16	76.29	9,514.16	75.1672	9,514.16	75.3046	9,514.16	72.4131	9,514.16	73.4759	9,514.16	69.0433	9,514.16	71.512	9,514.16	67.1404	9,514.16	68.2481	9,514.16	64.1794	9,514.16	65.4611	9,514.16	61.3017	9,514.16	62.2087	9,514.16	57.1599	9,514.16	58.283	9,514.16	49.8135	9,514.16	54.0688	9,514.16	51.5423	9,514.16	49.8906	9,514.16	52.6944	9,514.16	56.8323	9,514.16	57.9814	9,514.16	57.9711	9,514.16	57.9199	9,514.16	58.9487	9,514.16	50.3524
9,849.61	80.7681	9,849.61	79.9537	9,849.61	80.391	9,849.61	78.892	9,849.61	79.4393	9,849.61	77.3353	9,849.61	78.4745	9,849.61	75.8395	9,849.61	76.9965	9,849.61	75.6224	9,849.61	76.5848	9,849.61	74.6814	9,849.61	75.7509	9,849.61	72.1296	9,849.61	73.8938	9,849.61	69.118	9,849.61	71.3577	9,849.61	65.2588	9,849.61	67.7423	9,849.61	62.6064	9,849.61	64.6135	9,849.61	60.7417	9,849.61	61.6771	9,849.61	57.6054	9,849.61	59.4607	9,849.61	55.2112	9,849.61	57.2132	9,849.61	41.1214	9,849.61	51.4276	9,849.61	53.6389	9,849.61	55.2676	9,849.61	53.998	9,849.61	57.6231	9,849.61	58.3146	9,849.61	59.7167	9,849.61	53.9145
10,196.8	81.1304	10,196.8	80.5296	10,196.8	80.8624	10,196.8	79.754	10,196.8	80.3681	10,196.8	78.0796	10,196.8	79.0152	10,196.8	76.0291	10,196.8	77.8533	10,196.8	75.7929	10,196.8	76.7445	10,196.8	74.0892	10,196.8	75.552	10,196.8	71.5788	10,196.8	73.7079	10,196.8	68.6314	10,196.8	70.7009	10,196.8	63.6358	10,196.8	66.5395	10,196.8	61.7253	10,196.8	63.2146	10,196.8	58.3331	10,196.8	60.2257	10,196.8	57.0576	10,196.8	59.212	10,196.8	56.1918	10,196.8	54.5343	10,196.8	40.9438	10,196.8	56.8301	10,196.8	51.3519	10,196.8	55.4142	10,196.8	50.2363	10,196.8	56.5399	10,196.8	55.9757	10,196.8	58.496	10,196.8	46.8145
10,555.7	81.4942	10,555.7	80.8915	10,555.7	81.2069	10,555.7	79.9621	10,555.7	80.6498	10,555.7	78.4948	10,555.7	79.3794	10,555.7	76.8076	10,555.7	77.5626	10,555.7	75.9174	10,555.7	77.0682	10,555.7	74.1142	10,555.7	75.686	10,555.7	70.4424	10,555.7	73.0581	10,555.7	68.2969	10,555.7	70.0105	10,555.7	63.9082	10,555.7	65.7171	10,555.7	61.2457	10,555.7	63.8163	10,555.7	57.8395	10,555.7	57.9576	10,555.7	55.1304	10,555.7	56.6254	10,555.7	55.9711	10,555.7	55.8264	10,555.7	54.2387	10,555.7	55.9192	10,555.7	50.8084	10,555.7	53.7956	10,555.7	52.1455	10,555.7	55.3121	10,555.7	57.5893	10,555.7	57.2126	10,555.7	44.8988
10,927.7	81.6627	10,927.7	81.3862	10,927.7	81.3582	10,927.7	80.2954	10,927.7	80.9008	10,927.7	78.9957	10,927.7	79.4677	10,927.7	77.1206	10,927.7	77.9553	10,927.7	76.1801	10,927.7	77.1542	10,927.7	73.896	10,927.7	75.4192	10,927.7	69.7601	10,927.7	72.6284	10,927.7	67.1768	10,927.7	69.4846	10,927.7	64.3501	10,927.7	66.2846	10,927.7	60.4008	10,927.7	62.841	10,927.7	57.7654	10,927.7	58.5474	10,927.7	55.6835	10,927.7	55.3599	10,927.7	55.0844	10,927.7	54.914	10,927.7	48.4713	10,927.7	56.1989	10,927.7	50.9225	10,927.7	52.0798	10,927.7	51.9252	10,927.7	54.9323	10,927.7	55.5154	10,927.7	57.5015	10,927.7	35.8402
11,313	81.6402	11,313	81.1432	11,313	81.1662	11,313	80.041	11,313	80.6913	11,313	78.7523	11,313	79.6383	11,313	77.2054	11,313	78.0429	11,313	75.5409	11,313	76.7725	11,313	73.0016	11,313	75.1896	11,313	69.7418	11,313	71.7482	11,313	66.1008	11,313	69.285	11,313	62.6718	11,313	66.0729	11,313	59.1443	11,313	62.0171	11,313	58.2437	11,313	59.4246	11,313	56.7107	11,313	55.7353	11,313	54.1801	11,313	56.5069	11,313	48.9249	11,313	53.7371	11,313	48.3071	11,313	49.8712	11,313	49.6949	11,313	53.2196	11,313	55.8133	11,313	58.5776	11,313	34.6196
11,712.9	81.2314	11,712.9	80.8436	11,712.9	81.233	11,712.9	79.605	11,712.9	80.8383	11,712.9	78.0287	11,712.9	79.8044	11,712.9	76.5758	11,712.9	78.3595	11,712.9	74.1277	11,712.9	76.7142	11,712.9	72.1199	11,712.9	75.242	11,712.9	70.1691	11,712.9	72.7542	11,712.9	66.1887	11,712.9	69.9202	11,712.9	62.6393	11,712.9	66.3041	11,712.9	58.8403	11,712.9	63.2162	11,712.9	55.6252	11,712.9	59.6641	11,712.9	54.8759	11,712.9	58.3568	11,712.9	51.228	11,712.9	55.8681	11,712.9	50.5377	11,712.9	54.2954	11,712.9	45.2979	11,712.9	51.7905	11,712.9	50.0801	11,712.9	52.9091	11,712.9	52.4749	11,712.9	56.8266	11,712.9	46.3759
12,126	81.4821	12,126	81.0822	12,126	81.5137	12,126	79.8344	12,126	80.9686	12,126	78.3139	12,126	79.9755	12,126	76.5076	12,126	78.4429	12,126	74.2459	12,126	76.1971	12,126	72.1047	12,126	74.7391	12,126	68.647	12,126	72.8155	12,126	65.7576	12,126	70.1811	12,126	62.7093	12,126	66.2762	12,126	58.0239	12,126	63.3833	12,126	57.7193	12,126	59.3163	12,126	55.1007	12,126	57.1666	12,126	49.0709	12,126	55.7247	12,126	48.8562	12,126	53.3371	12,126	48.721	12,126	50.6907	12,126	53.0934	12,126	51.4239	12,126	48.201	12,126	53.683	12,126	50.4842
12,553.7	81.6963	12,553.7	81.346	12,553.7	81.4982	12,553.7	80.1501	12,553.7	81.0338	12,553.7	78.855	12,553.7	79.8442	12,553.7	76.0891	12,553.7	77.9026	12,553.7	73.9148	12,553.7	75.4131	12,553.7	72.3337	12,553.7	73.6761	12,553.7	69.6136	12,553.7	71.4757	12,553.7	66.3238	12,553.7	68.3923	12,553.7	62.1062	12,553.7	64.171	12,553.7	57.6531	12,553.7	61.0931	12,553.7	55.0804	12,553.7	56.2606	12,553.7	53.4675	12,553.7	55.205	12,553.7	43.7643	12,553.7	52.7211	12,553.7	42.9006	12,553.7	50.9642	12,553.7	49.0079	12,553.7	43.2181	12,553.7	54.0296	12,553.7	52.0653	12,553.7	40.1464	12,553.7	43.5244	12,553.7	52.9826
12,996.1	81.6019	12,996.1	81.5963	12,996.1	81.39	12,996.1	80.4448	12,996.1	80.7181	12,996.1	79.1861	12,996.1	79.1503	12,996.1	76.5339	12,996.1	76.8319	12,996.1	74.0189	12,996.1	74.1557	12,996.1	71.2789	12,996.1	72.1535	12,996.1	67.3855	12,996.1	68.9881	12,996.1	64.2855	12,996.1	65.5086	12,996.1	59.8127	12,996.1	61.4711	12,996.1	56.0224	12,996.1	58.0146	12,996.1	54.3728	12,996.1	53.3534	12,996.1	52.7208	12,996.1	51.1985	12,996.1	40.1059	12,996.1	49.4404	12,996.1	39.5591	12,996.1	46.5787	12,996.1	48.3906	12,996.1	45.1641	12,996.1	52.9888	12,996.1	52.6114	12,996.1	44.663	12,996.1	40.7285	12,996.1	52.4744
13,454.6	82.1392	13,454.6	82.0231	13,454.6	81.6175	13,454.6	80.9113	13,454.6	80.5975	13,454.6	79.5589	13,454.6	78.6443	13,454.6	76.2887	13,454.6	75.5398	13,454.6	73.3649	13,454.6	73.1856	13,454.6	69.6534	13,454.6	70.9958	13,454.6	64.8167	13,454.6	65.8271	13,454.6	59.8085	13,454.6	62.9167	13,454.6	56.2374	13,454.6	59.3105	13,454.6	48.5966	13,454.6	55.7524	13,454.6	51.558	13,454.6	51.3888	13,454.6	47.4853	13,454.6	51.1199	13,454.6	47.0668	13,454.6	45.327	13,454.6	42.2918	13,454.6	45.8832	13,454.6	48.9133	13,454.6	45.1837	13,454.6	50.5518	13,454.6	53.9599	13,454.6	45.9328	13,454.6	51.0764	13,454.6	52.8079
13,929.2	82.0055	13,929.2	81.5572	13,929.2	81.5103	13,929.2	80.0363	13,929.2	80.4827	13,929.2	77.6602	13,929.2	78.7289	13,929.2	74.3696	13,929.2	76.2533	13,929.2	70.7079	13,929.2	74.0374	13,929.2	65.8979	13,929.2	72.0502	13,929.2	60.3128	13,929.2	68.9071	13,929.2	56.7893	13,929.2	65.1255	13,929.2	56.1897	13,929.2	61.6007	13,929.2	53.2426	13,929.2	58.9404	13,929.2	51.5029	13,929.2	53.2466	13,929.2	52.5496	13,929.2	54.1584	13,929.2	39.489	13,929.2	51.5038	13,929.2	46.923	13,929.2	47.6509	13,929.2	42.8593	13,929.2	44.8385	13,929.2	50.6049	13,929.2	55.9471	13,929.2	49.3118	13,929.2	52.0708	13,929.2	47.7687
14,419.9	81.1616	14,419.9	80.3415	14,419.9	80.9161	14,419.9	78.8638	14,419.9	80.2381	14,419.9	75.9315	14,419.9	78.7605	14,419.9	72.9845	14,419.9	76.4516	14,419.9	70.3446	14,419.9	74.3794	14,419.9	68.3202	14,419.9	72.4342	14,419.9	65.8848	14,419.9	69.7375	14,419.9	63.5998	14,419.9	66.4532	14,419.9	60.9931	14,419.9	63.1142	14,419.9	57.0774	14,419.9	59.5965	14,419.9	55.0634	14,419.9	53.5635	14,419.9	52.6979	14,419.9	53.8504	14,419.9	46.177	14,419.9	52.774	14,419.9	47.9869	14,419.9	47.1225	14,419.9	38.2073	14,419.9	42.9485	14,419.9	51.2272	14,419.9	54.9953	14,419.9	50.8035	14,419.9	49.3634	14,419.9	35.386
14,928.2	80.8335	14,928.2	80.3439	14,928.2	80.5009	14,928.2	78.9333	14,928.2	79.7405	14,928.2	76.5904	14,928.2	78.0581	14,928.2	74.1005	14,928.2	75.707	14,928.2	71.236	14,928.2	73.3758	14,928.2	69.7114	14,928.2	71.0487	14,928.2	67.3427	14,928.2	68.5681	14,928.2	63.9517	14,928.2	65.4206	14,928.2	61.2742	14,928.2	62.163	14,928.2	57.8218	14,928.2	57.1373	14,928.2	55.2812	14,928.2	53.6375	14,928.2	52.6085	14,928.2	51.8986	14,928.2	45.2742	14,928.2	51.1145	14,928.2	47.336	14,928.2	42.1872	14,928.2	28.8609	14,928.2	45.4781	14,928.2	49.3677	14,928.2	52.5552	14,928.2	47.1231	14,928.2	48.3882	14,928.2	47.9822
15,455.6	81.1037	15,455.6	80.6472	15,455.6	80.6491	15,455.6	79.1768	15,455.6	79.7611	15,455.6	77.0152	15,455.6	77.8744	15,455.6	74.1987	15,455.6	75.3953	15,455.6	71.0513	15,455.6	72.5496	15,455.6	69.1062	15,455.6	69.8304	15,455.6	66.2117	15,455.6	66.5072	15,455.6	63.0714	15,455.6	62.6815	15,455.6	60.0895	15,455.6	58.5351	15,455.6	57.3638	15,455.6	52.98	15,455.6	54.0674	15,455.6	50.9832	15,455.6	51.9548	15,455.6	49.2769	15,455.6	46.7089	15,455.6	46.6758	15,455.6	45.8784	15,455.6	19.9386	15,455.6	37.3199	15,455.6	41.7455	15,455.6	47.1313	15,455.6	48.5693	15,455.6	48.1978	15,455.6	48.6525	15,455.6	49.8788
16,000.5	81.7992	16,000.5	81.3017	16,000.5	81.4249	16,000.5	79.5869	16,000.5	80.343	16,000.5	77.131	16,000.5	78.1208	16,000.5	74.0982	16,000.5	75.1621	16,000.5	70.2932	16,000.5	71.3576	16,000.5	67.8928	16,000.5	67.7664	16,000.5	64.1742	16,000.5	62.2794	16,000.5	61.3679	16,000.5	56.4338	16,000.5	57.5252	16,000.5	50.6755	16,000.5	53.9402	16,000.5	46.6934	16,000.5	52.1845	16,000.5	41.684	16,000.5	49.8208	16,000.5	45.3801	16,000.5	48.9424	16,000.5	44.5666	16,000.5	46.0634	16,000.5	40.8891	16,000.5	42.3902	16,000.5	27.9974	16,000.5	44.8307	16,000.5	45.7439	16,000.5	50.8369	16,000.5	49.1353	16,000.5	50.0635
16,564.5	82.1004	16,564.5	81.411	16,564.5	81.6713	16,564.5	79.42	16,564.5	80.5448	16,564.5	76.5836	16,564.5	78.1916	16,564.5	72.7537	16,564.5	74.6262	16,564.5	68.4216	16,564.5	70.0871	16,564.5	65.5585	16,564.5	65.3001	16,564.5	61.3723	16,564.5	58.1963	16,564.5	57.8816	16,564.5	52.7529	16,564.5	54.209	16,564.5	50.3863	16,564.5	51.929	16,564.5	46.3976	16,564.5	48.3566	16,564.5	45.3127	16,564.5	41.9896	16,564.5	44.7447	16,564.5	48.2274	16,564.5	47.385	16,564.5	44.0404	16,564.5	43.0371	16,564.5	39.2321	16,564.5	39.6545	16,564.5	41.5976	16,564.5	49.3311	16,564.5	50.263	16,564.5	51.0705	16,564.5	42.5484
17,148.9	82.2442	17,148.9	81.4217	17,148.9	81.7973	17,148.9	79.4575	17,148.9	80.4375	17,148.9	76.6129	17,148.9	77.6641	17,148.9	72.447	17,148.9	73.5777	17,148.9	68.2347	17,148.9	68.8482	17,148.9	65.1997	17,148.9	63.2482	17,148.9	61.0866	17,148.9	56.8759	17,148.9	58.4017	17,148.9	54.2643	17,148.9	54.1337	17,148.9	52.8579	17,148.9	51.9376	17,148.9	49.1532	17,148.9	46.2914	17,148.9	44.6967	17,148.9	37.7747	17,148.9	46.4565	17,148.9	48.6762	17,148.9	46.8745	17,148.9	39.0067	17,148.9	38.6567	17,148.9	28.691	17,148.9	34.8312	17,148.9	33.2043	17,148.9	49.04	17,148.9	49.6245	17,148.9	49.3893	17,148.9	41.7407
17,752.4	82.6078	17,752.4	81.8177	17,752.4	82.103	17,752.4	79.8816	17,752.4	80.5554	17,752.4	76.8662	17,752.4	77.4366	17,752.4	72.4888	17,752.4	73.0165	17,752.4	67.3437	17,752.4	68.304	17,752.4	63.6277	17,752.4	63.2106	17,752.4	60.2875	17,752.4	59.2467	17,752.4	58.4334	17,752.4	57.6237	17,752.4	54.4604	17,752.4	54.9809	17,752.4	53.2113	17,752.4	51.3585	17,752.4	48.4668	17,752.4	49.367	17,752.4	42.1448	17,752.4	46.3516	17,752.4	43.5003	17,752.4	49.3545	17,752.4	43.1781	17,752.4	38.6839	17,752.4	32.0758	17,752.4	39.7446	17,752.4	39.446	17,752.4	49.4079	17,752.4	49.6212	17,752.4	48.7034	17,752.4	37.1781
18,379.4	82.5372	18,379.4	81.5396	18,379.4	82.0725	18,379.4	79.3232	18,379.4	80.4249	18,379.4	76.0422	18,379.4	77.336	18,379.4	71.2161	18,379.4	73.1715	18,379.4	65.5828	18,379.4	68.3663	18,379.4	62.6172	18,379.4	63.1478	18,379.4	60.2856	18,379.4	59.257	18,379.4	58.9423	18,379.4	56.7607	18,379.4	55.5924	18,379.4	54.4632	18,379.4	53.1482	18,379.4	51.1439	18,379.4	49.5058	18,379.4	48.5736	18,379.4	45.0011	18,379.4	45.9433	18,379.4	41.3889	18,379.4	48.8083	18,379.4	40.5398	18,379.4	38.8735	18,379.4	31.0521	18,379.4	39.0979	18,379.4	41.5747	18,379.4	46.1495	18,379.4	47.9005	18,379.4	46.9999	18,379.4	33.9859
19,026.9	81.9586	19,026.9	80.7657	19,026.9	81.489	19,026.9	78.3653	19,026.9	79.8101	19,026.9	74.7451	19,026.9	76.761	19,026.9	69.2212	19,026.9	72.6303	19,026.9	62.5956	19,026.9	67.229	19,026.9	60.87	19,026.9	60.7276	19,026.9	59.8859	19,026.9	56.211	19,026.9	59.1383	19,026.9	55.9227	19,026.9	55.4891	19,026.9	53.9889	19,026.9	53.1339	19,026.9	51.5085	19,026.9	48.1067	19,026.9	47.1667	19,026.9	44.5467	19,026.9	46.1053	19,026.9	41.4314	19,026.9	44.6089	19,026.9	36.3696	19,026.9	36.9601	19,026.9	34.6226	19,026.9	38.8431	19,026.9	38.6151	19,026.9	43.8998	19,026.9	45.1597	19,026.9	46.0295	19,026.9	36.2519
19,697.8	81.0003	19,697.8	79.8173	19,697.8	80.5681	19,697.8	77.1321	19,697.8	78.8427	19,697.8	73.119	19,697.8	75.5733	19,697.8	66.9772	19,697.8	70.655	19,697.8	59.4484	19,697.8	63.4796	19,697.8	58.6241	19,697.8	52.1529	19,697.8	60.1938	19,697.8	56.6124	19,697.8	59.0488	19,697.8	57.5269	19,697.8	55.3771	19,697.8	55.1586	19,697.8	52.1196	19,697.8	51.5859	19,697.8	45.9932	19,697.8	48.8778	19,697.8	39.4198	19,697.8	47.9519	19,697.8	43.6643	19,697.8	42.3486	19,697.8	42.2937	19,697.8	39.648	19,697.8	33.6491	19,697.8	42.1052	19,697.8	42.787	19,697.8	37.7294	19,697.8	44.2796	19,697.8	47.1013	19,697.8	39.733
19,999.5	80.6154	19,999.5	79.7735	19,999.5	80.1022	19,999.5	76.6227	19,999.5	78.3649	19,999.5	72.1175	19,999.5	74.9921	19,999.5	65.3971	19,999.5	69.5536	19,999.5	56.1097	19,999.5	61.8159	19,999.5	57.8579	19,999.5	48.136	19,999.5	61.0332	19,999.5	58.6743	19,999.5	59.3845	19,999.5	57.5283	19,999.5	55.5679	19,999.5	54.852	19,999.5	53.9102	19,999.5	52.1386	19,999.5	48.5381	19,999.5	50.9968	19,999.5	44.8815	19,999.5	46.794	19,999.5	49.5492	19,999.5	47.0474	19,999.5	50.0433	19,999.5	47.0844	19,999.5	49.4799	19,999.5	45.8995	19,999.5	45.2853	19,999.5	49.1203	19,999.5	40.4282	19,999.5	43.7735	19,999.5	42.3619
