"SPL Vertical"
"On-Axis"		"10°"		"-10°"		"20°"		"-20°"		"30°"		"-30°"		"40°"		"-40°"		"50°"		"-50°"		"60°"		"-60°"		"70°"		"-70°"		"80°"		"-80°"		"90°"		"-90°"		"100°"		"-100°"		"110°"		"-110°"		"120°"		"-120°"		"130°"		"-130°"		"140°"		"-140°"		"150°"		"-150°"		"160°"		"-160°"		"170°"		"-170°"		"180°"
"Frequency [Hz]"	"Sound Pessure Level [dB]  / [2.83V 1m] "	"Frequency [Hz]"	"Sound Pessure Level [dB]  / [2.83V 1m] "	"Frequency [Hz]"	"Sound Pessure Level [dB]  / [2.83V 1m] "	"Frequency [Hz]"	"Sound Pessure Level [dB]  / [2.83V 1m] "	"Frequency [Hz]"	"Sound Pessure Level [dB]  / [2.83V 1m] "	"Frequency [Hz]"	"Sound Pessure Level [dB]  / [2.83V 1m] "	"Frequency [Hz]"	"Sound Pessure Level [dB]  / [2.83V 1m] "	"Frequency [Hz]"	"Sound Pessure Level [dB]  / [2.83V 1m] "	"Frequency [Hz]"	"Sound Pessure Level [dB]  / [2.83V 1m] "	"Frequency [Hz]"	"Sound Pessure Level [dB]  / [2.83V 1m] "	"Frequency [Hz]"	"Sound Pessure Level [dB]  / [2.83V 1m] "	"Frequency [Hz]"	"Sound Pessure Level [dB]  / [2.83V 1m] "	"Frequency [Hz]"	"Sound Pessure Level [dB]  / [2.83V 1m] "	"Frequency [Hz]"	"Sound Pessure Level [dB]  / [2.83V 1m] "	"Frequency [Hz]"	"Sound Pessure Level [dB]  / [2.83V 1m] "	"Frequency [Hz]"	"Sound Pessure Level [dB]  / [2.83V 1m] "	"Frequency [Hz]"	"Sound Pessure Level [dB]  / [2.83V 1m] "	"Frequency [Hz]"	"Sound Pessure Level [dB]  / [2.83V 1m] "	"Frequency [Hz]"	"Sound Pessure Level [dB]  / [2.83V 1m] "	"Frequency [Hz]"	"Sound Pessure Level [dB]  / [2.83V 1m] "	"Frequency [Hz]"	"Sound Pessure Level [dB]  / [2.83V 1m] "	"Frequency [Hz]"	"Sound Pessure Level [dB]  / [2.83V 1m] "	"Frequency [Hz]"	"Sound Pessure Level [dB]  / [2.83V 1m] "	"Frequency [Hz]"	"Sound Pessure Level [dB]  / [2.83V 1m] "	"Frequency [Hz]"	"Sound Pessure Level [dB]  / [2.83V 1m] "	"Frequency [Hz]"	"Sound Pessure Level [dB]  / [2.83V 1m] "	"Frequency [Hz]"	"Sound Pessure Level [dB]  / [2.83V 1m] "	"Frequency [Hz]"	"Sound Pessure Level [dB]  / [2.83V 1m] "	"Frequency [Hz]"	"Sound Pessure Level [dB]  / [2.83V 1m] "	"Frequency [Hz]"	"Sound Pessure Level [dB]  / [2.83V 1m] "	"Frequency [Hz]"	"Sound Pessure Level [dB]  / [2.83V 1m] "	"Frequency [Hz]"	"Sound Pessure Level [dB]  / [2.83V 1m] "	"Frequency [Hz]"	"Sound Pessure Level [dB]  / [2.83V 1m] "	"Frequency [Hz]"	"Sound Pessure Level [dB]  / [2.83V 1m] "	"Frequency [Hz]"	"Sound Pessure Level [dB]  / [2.83V 1m] "	"Frequency [Hz]"	"Sound Pessure Level [dB]  / [2.83V 1m] "
20.5078	37.5621	20.5078	37.208	20.5078	38.0652	20.5078	36.9839	20.5078	38.694	20.5078	36.8411	20.5078	39.392	20.5078	36.7237	20.5078	40.092	20.5078	36.586	20.5078	40.7346	20.5078	36.3995	20.5078	41.2768	20.5078	36.1531	20.5078	41.6911	20.5078	35.8526	20.5078	41.9633	20.5078	35.5205	20.5078	42.0886	20.5078	35.1983	20.5078	42.0693	20.5078	34.9468	20.5078	41.913	20.5078	34.838	20.5078	41.6309	20.5078	34.9349	20.5078	41.2361	20.5078	35.2637	20.5078	40.7423	20.5078	35.8007	20.5078	40.1623	20.5078	36.4852	20.5078	39.5081	20.5078	37.2478	20.5078	38.792	20.5078	38.0302
21.9727	41.6527	21.9727	41.1447	21.9727	42.1867	21.9727	40.6822	21.9727	42.7254	21.9727	40.2796	21.9727	43.2468	21.9727	39.9457	21.9727	43.7302	21.9727	39.6833	21.9727	44.1562	21.9727	39.4906	21.9727	44.508	21.9727	39.3641	21.9727	44.7716	21.9727	39.301	21.9727	44.9365	21.9727	39.3002	21.9727	44.9966	21.9727	39.3627	21.9727	44.9509	21.9727	39.4906	21.9727	44.8033	21.9727	39.6849	21.9727	44.5628	21.9727	39.9448	21.9727	44.242	21.9727	40.2659	21.9727	43.8562	21.9727	40.6411	21.9727	43.4221	21.9727	41.0606	21.9727	42.9562	21.9727	41.5136	21.9727	42.4737	21.9727	41.9886
23.4375	46.383	23.4375	45.9532	23.4375	46.8328	23.4375	45.5585	23.4375	47.2849	23.4375	45.2105	23.4375	47.7211	23.4375	44.9166	23.4375	48.1238	23.4375	44.6803	23.4375	48.477	23.4375	44.5024	23.4375	48.7673	23.4375	44.3827	23.4375	48.984	23.4375	44.3208	23.4375	49.1197	23.4375	44.3172	23.4375	49.1708	23.4375	44.373	23.4375	49.1371	23.4375	44.4891	23.4375	49.0223	23.4375	44.6655	23.4375	48.8329	23.4375	44.9003	23.4375	48.5779	23.4375	45.1888	23.4375	48.268	23.4375	45.5238	23.4375	47.9144	23.4375	45.896	23.4375	47.5287	23.4375	46.2942	23.4375	47.1223	23.4375	46.7069
24.9023	48.0032	24.9023	47.6757	24.9023	48.3532	24.9023	47.3788	24.9023	48.7141	24.9023	47.1178	24.9023	49.0718	24.9023	46.8948	24.9023	49.4106	24.9023	46.7102	24.9023	49.7148	24.9023	46.5639	24.9023	49.9697	24.9023	46.4557	24.9023	50.1627	24.9023	46.3864	24.9023	50.2847	24.9023	46.3581	24.9023	50.3306	24.9023	46.3734	24.9023	50.2993	24.9023	46.4354	24.9023	50.1938	24.9023	46.5467	24.9023	50.0206	24.9023	46.7084	24.9023	49.7889	24.9023	46.9193	24.9023	49.5093	24.9023	47.1756	24.9023	49.1933	24.9023	47.471	24.9023	48.8525	24.9023	47.7967	24.9023	48.4986	24.9023	48.1429
26.3672	49.0549	26.3672	48.7369	26.3672	49.3953	26.3672	48.4494	26.3672	49.7459	26.3672	48.1967	26.3672	50.0913	26.3672	47.9795	26.3672	50.4145	26.3672	47.7965	26.3672	50.6982	26.3672	47.6454	26.3672	50.9267	26.3672	47.5244	26.3672	51.0869	26.3672	47.4324	26.3672	51.1696	26.3672	47.3703	26.3672	51.1701	26.3672	47.3403	26.3672	51.0881	26.3672	47.3458	26.3672	50.9281	26.3672	47.3913	26.3672	50.6988	26.3672	47.4811	26.3672	50.4121	26.3672	47.6185	26.3672	50.0823	26.3672	47.8054	26.3672	49.725	26.3672	48.0412	26.3672	49.3558	26.3672	48.322	26.3672	48.99	26.3672	48.6415
27.832	52.0096	27.832	51.7433	27.832	52.2906	27.832	51.4985	27.832	52.5772	27.832	51.2792	27.832	52.8583	27.832	51.0876	27.832	53.1217	27.832	50.924	27.832	53.3547	27.832	50.7885	27.832	53.5455	27.832	50.6808	27.832	53.684	27.832	50.6017	27.832	53.7624	27.832	50.5524	27.832	53.7763	27.832	50.5352	27.832	53.7248	27.832	50.5531	27.832	53.6107	27.832	50.6091	27.832	53.4397	27.832	50.7059	27.832	53.2204	27.832	50.8447	27.832	52.9629	27.832	51.0253	27.832	52.6785	27.832	51.2448	27.832	52.3785	27.832	51.498	27.832	52.0746	27.832	51.7776
29.2969	53.0278	29.2969	52.7977	29.2969	53.2761	29.2969	52.5911	29.2969	53.5346	29.2969	52.4112	29.2969	53.7933	29.2969	52.2592	29.2969	54.0403	29.2969	52.1355	29.2969	54.2633	29.2969	52.0398	29.2969	54.45	29.2969	51.9717	29.2969	54.5902	29.2969	51.9312	29.2969	54.6762	29.2969	51.9187	29.2969	54.7039	29.2969	51.9348	29.2969	54.6729	29.2969	51.9805	29.2969	54.5867	29.2969	52.0568	29.2969	54.4517	29.2969	52.1642	29.2969	54.2762	29.2969	52.3022	29.2969	54.0694	29.2969	52.4693	29.2969	53.8409	29.2969	52.6629	29.2969	53.5994	29.2969	52.8785	29.2969	53.3535	29.2969	53.1108
30.7617	53.8461	30.7617	53.5827	30.7617	54.1257	30.7617	53.342	30.7617	54.4123	30.7617	53.1282	30.7617	54.6943	30.7617	52.9432	30.7617	54.9588	30.7617	52.7876	30.7617	55.1923	30.7617	52.661	30.7617	55.382	30.7617	52.5626	30.7617	55.5168	30.7617	52.4921	30.7617	55.5886	30.7617	52.4496	30.7617	55.5928	30.7617	52.4358	30.7617	55.529	30.7617	52.4523	30.7617	55.4008	30.7617	52.501	30.7617	55.2153	30.7617	52.5841	30.7617	54.9825	30.7617	52.7036	30.7617	54.7143	30.7617	52.8605	30.7617	54.4236	30.7617	53.0547	30.7617	54.1235	30.7617	53.2838	30.7617	53.8264	30.7617	53.5434
32.2266	56.1263	32.2266	55.8686	32.2266	56.39	32.2266	55.6237	32.2266	56.6512	32.2266	55.3963	32.2266	56.899	32.2266	55.1895	32.2266	57.1218	32.2266	55.0052	32.2266	57.3075	32.2266	54.8447	32.2266	57.4447	32.2266	54.7089	32.2266	57.5242	32.2266	54.599	32.2266	57.5397	32.2266	54.5163	32.2266	57.4885	32.2266	54.4626	32.2266	57.3724	32.2266	54.4399	32.2266	57.1972	32.2266	54.4506	32.2266	56.9724	32.2266	54.4968	32.2266	56.71	32.2266	54.5804	32.2266	56.4235	32.2266	54.7023	32.2266	56.1266	32.2266	54.8626	32.2266	55.8319	32.2266	55.0597	32.2266	55.5502	32.2266	55.2905
33.6914	57.7715	33.6914	57.5382	33.6914	58.0101	33.6914	57.3162	33.6914	58.2465	33.6914	57.1096	33.6914	58.4716	33.6914	56.9216	33.6914	58.6756	33.6914	56.7541	33.6914	58.848	33.6914	56.6085	33.6914	58.9791	33.6914	56.486	33.6914	59.0605	33.6914	56.3876	33.6914	59.0862	33.6914	56.3147	33.6914	59.0531	33.6914	56.2689	33.6914	58.9616	33.6914	56.252	33.6914	58.8156	33.6914	56.2662	33.6914	58.6224	33.6914	56.3135	33.6914	58.3914	33.6914	56.3958	33.6914	58.1342	33.6914	56.5142	33.6914	57.8629	33.6914	56.6687	33.6914	57.5895	33.6914	56.8579	33.6914	57.3248	33.6914	57.0784
35.1562	59.2163	35.1562	59.0076	35.1562	59.4313	35.1562	58.8103	35.1562	59.6463	35.1562	58.6274	35.1562	59.8529	35.1562	58.4611	35.1562	60.0415	35.1562	58.3127	35.1562	60.202	35.1562	58.183	35.1562	60.3247	35.1562	58.0729	35.1562	60.4012	35.1562	57.9834	35.1562	60.4256	35.1562	57.9158	35.1562	60.3947	35.1562	57.8718	35.1562	60.3089	35.1562	57.8532	35.1562	60.1722	35.1562	57.8621	35.1562	59.9917	35.1562	57.9005	35.1562	59.7767	35.1562	57.9704	35.1562	59.5383	35.1562	58.0731	35.1562	59.2882	35.1562	58.2088	35.1562	59.0376	35.1562	58.3768	35.1562	58.7968	35.1562	58.5743
36.6211	60.9652	36.6211	60.7419	36.6211	61.1898	36.6211	60.526	36.6211	61.408	36.6211	60.3223	36.6211	61.6109	36.6211	60.1343	36.6211	61.7894	36.6211	59.9642	36.6211	61.9341	36.6211	59.8134	36.6211	62.0366	36.6211	59.6832	36.6211	62.0899	36.6211	59.5747	36.6211	62.0893	36.6211	59.4889	36.6211	62.0329	36.6211	59.4273	36.6211	61.9217	36.6211	59.3919	36.6211	61.7602	36.6211	59.3847	36.6211	61.5556	36.6211	59.4082	36.6211	61.3179	36.6211	59.4646	36.6211	61.0586	36.6211	59.5561	36.6211	60.7902	36.6211	59.6838	36.6211	60.5249	36.6211	59.8476	36.6211	60.2737	36.6211	60.0456
38.0859	61.5234	38.0859	61.3338	38.0859	61.7203	38.0859	61.1558	38.0859	61.9187	38.0859	60.9927	38.0859	62.1115	38.0859	60.8466	38.0859	62.2904	38.0859	60.7191	38.0859	62.4465	38.0859	60.6111	38.0859	62.5711	38.0859	60.5238	38.0859	62.6568	38.0859	60.4579	38.0859	62.6978	38.0859	60.4144	38.0859	62.6911	38.0859	60.3943	38.0859	62.6364	38.0859	60.3987	38.0859	62.5365	38.0859	60.4289	38.0859	62.3966	38.0859	60.486	38.0859	62.2238	38.0859	60.5707	38.0859	62.0267	38.0859	60.6833	38.0859	61.8144	38.0859	60.8232	38.0859	61.5961	38.0859	60.9885	38.0859	61.3807	38.0859	61.176
39.5508	63.0851	39.5508	62.8943	39.5508	63.2799	39.5508	62.7129	39.5508	63.4724	39.5508	62.5449	39.5508	63.6552	39.5508	62.3934	39.5508	63.82	39.5508	62.2607	39.5508	63.9587	39.5508	62.1485	39.5508	64.0635	39.5508	62.0578	39.5508	64.128	39.5508	61.9895	39.5508	64.1479	39.5508	61.9442	39.5508	64.1212	39.5508	61.9225	39.5508	64.0492	39.5508	61.9248	39.5508	63.9357	39.5508	61.9515	39.5508	63.7868	39.5508	62.0029	39.5508	63.6107	39.5508	62.0792	39.5508	63.416	39.5508	62.1801	39.5508	63.2119	39.5508	62.3052	39.5508	63.0067	39.5508	62.4532	39.5508	62.808	39.5508	62.6219
41.0156	63.9618	41.0156	63.7994	41.0156	64.1335	41.0156	63.6507	41.0156	64.3083	41.0156	63.5189	41.0156	64.4792	41.0156	63.4063	41.0156	64.6381	41.0156	63.3142	41.0156	64.7766	41.0156	63.2431	41.0156	64.887	41.0156	63.1931	41.0156	64.963	41.0156	63.1639	41.0156	65.0005	41.0156	63.1552	41.0156	64.9978	41.0156	63.1663	41.0156	64.9565	41.0156	63.1969	41.0156	64.8805	41.0156	63.2464	41.0156	64.7754	41.0156	63.3143	41.0156	64.6481	41.0156	63.3999	41.0156	64.5053	41.0156	63.5022	41.0156	64.3534	41.0156	63.6197	41.0156	64.1977	41.0156	63.7507	41.0156	64.0429	41.0156	63.8928
42.4805	65.111	42.4805	64.9097	42.4805	65.3074	42.4805	64.7095	42.4805	65.4923	42.4805	64.5153	42.4805	65.6584	42.4805	64.3316	42.4805	65.7981	42.4805	64.1618	42.4805	65.9043	42.4805	64.0089	42.4805	65.9704	42.4805	63.8754	42.4805	65.9913	42.4805	63.7633	42.4805	65.964	42.4805	63.6744	42.4805	65.8881	42.4805	63.61	42.4805	65.766	42.4805	63.5715	42.4805	65.603	42.4805	63.5599	42.4805	65.4068	42.4805	63.5762	42.4805	65.1872	42.4805	63.6213	42.4805	64.955	42.4805	63.6957	42.4805	64.7207	42.4805	63.7998	42.4805	64.4944	42.4805	63.9335	42.4805	64.284	42.4805	64.0957
43.9453	66.0647	43.9453	65.8797	43.9453	66.2471	43.9453	65.6973	43.9453	66.4209	43.9453	65.522	43.9453	66.5796	43.9453	65.3575	43.9453	66.7163	43.9453	65.207	43.9453	66.8242	43.9453	65.0729	43.9453	66.8974	43.9453	64.9575	43.9453	66.9309	43.9453	64.8626	43.9453	66.9216	43.9453	64.7896	43.9453	66.8688	43.9453	64.74	43.9453	66.7741	43.9453	64.715	43.9453	66.6417	43.9453	64.7158	43.9453	66.4778	43.9453	64.7431	43.9453	66.2899	43.9453	64.798	43.9453	66.0868	43.9453	64.8806	43.9453	65.8772	43.9453	64.9909	43.9453	65.6694	43.9453	65.1277	43.9453	65.4713	43.9453	65.289
45.4102	67.0431	45.4102	66.876	45.4102	67.209	45.4102	66.7121	45.4102	67.3682	45.4102	66.5555	45.4102	67.5151	45.4102	66.4095	45.4102	67.6432	45.4102	66.2768	45.4102	67.7465	45.4102	66.1598	45.4102	67.8191	45.4102	66.0602	45.4102	67.8563	45.4102	65.9798	45.4102	67.8551	45.4102	65.9198	45.4102	67.8144	45.4102	65.8812	45.4102	67.7357	45.4102	65.8651	45.4102	67.6224	45.4102	65.8722	45.4102	67.48	45.4102	65.9033	45.4102	67.3153	45.4102	65.9587	45.4102	67.1358	45.4102	66.0387	45.4102	66.9493	45.4102	66.143	45.4102	66.7632	45.4102	66.2703	45.4102	66.5844	45.4102	66.4185
46.875	67.9584	46.875	67.785	46.875	68.1302	46.875	67.6151	46.875	68.2947	46.875	67.4534	46.875	68.4458	46.875	67.3037	46.875	68.5771	46.875	67.1693	46.875	68.6826	46.875	67.0528	46.875	68.7568	46.875	66.9564	46.875	68.7956	46.875	66.8816	46.875	68.7963	46.875	66.8295	46.875	68.7584	46.875	66.8009	46.875	68.6834	46.875	66.7962	46.875	68.575	46.875	66.8156	46.875	68.4385	46.875	66.8589	46.875	68.2804	46.875	66.9258	46.875	68.1079	46.875	67.0156	46.875	67.928	46.875	67.1271	46.875	67.7477	46.875	67.2589	46.875	67.5728	46.875	67.4085
48.3398	68.6035	48.3398	68.4349	48.3398	68.7725	48.3398	68.2717	48.3398	68.936	48.3398	68.1185	48.3398	69.088	48.3398	67.9791	48.3398	69.2223	48.3398	67.8567	48.3398	69.3327	48.3398	67.7538	48.3398	69.4139	48.3398	67.6722	48.3398	69.4618	48.3398	67.6132	48.3398	69.4736	48.3398	67.5774	48.3398	69.4489	48.3398	67.5651	48.3398	69.3889	48.3398	67.576	48.3398	69.2969	48.3398	67.6096	48.3398	69.1777	48.3398	67.6651	48.3398	69.0371	48.3398	67.7416	48.3398	68.8813	48.3398	67.8379	48.3398	68.7169	48.3398	67.9525	48.3398	68.5499	48.3398	68.0837	48.3398	68.3858	48.3398	68.2291
51.2695	69.9552	51.2695	69.7884	51.2695	70.1178	51.2695	69.6227	51.2695	70.2706	51.2695	69.4631	51.2695	70.4075	51.2695	69.3136	51.2695	70.5228	51.2695	69.1779	51.2695	70.6107	51.2695	69.0591	51.2695	70.6667	51.2695	68.9596	51.2695	70.6874	51.2695	68.8811	51.2695	70.6713	51.2695	68.8249	51.2695	70.6187	51.2695	68.7917	51.2695	70.5324	51.2695	68.7818	51.2695	70.417	51.2695	68.7951	51.2695	70.2783	51.2695	68.8311	51.2695	70.1231	51.2695	68.8891	51.2695	69.9582	51.2695	68.9682	51.2695	69.7901	51.2695	69.0671	51.2695	69.6244	51.2695	69.1844	51.2695	69.4658	51.2695	69.3181
52.7344	70.6026	52.7344	70.4384	52.7344	70.7622	52.7344	70.2748	52.7344	70.9116	52.7344	70.1165	52.7344	71.0452	52.7344	69.9677	52.7344	71.157	52.7344	69.832	52.7344	71.2419	52.7344	69.7122	52.7344	71.2951	52.7344	69.6108	52.7344	71.3134	52.7344	69.5295	52.7344	71.2953	52.7344	69.4695	52.7344	71.241	52.7344	69.4318	52.7344	71.1529	52.7344	69.4166	52.7344	71.0354	52.7344	69.4241	52.7344	70.8942	52.7344	69.4541	52.7344	70.7361	52.7344	69.5064	52.7344	70.5681	52.7344	69.5802	52.7344	70.397	52.7344	69.6749	52.7344	70.2289	52.7344	69.7891	52.7344	70.0689	52.7344	69.9212
54.1992	71.0594	54.1992	70.8967	54.1992	71.2184	54.1992	70.7355	54.1992	71.3681	54.1992	70.5804	54.1992	71.5029	54.1992	70.4357	54.1992	71.617	54.1992	70.3048	54.1992	71.7053	54.1992	70.1907	54.1992	71.7633	54.1992	70.0958	54.1992	71.7877	54.1992	70.0217	54.1992	71.7771	54.1992	69.9696	54.1992	71.7317	54.1992	69.9401	54.1992	71.6537	54.1992	69.9335	54.1992	71.5471	54.1992	69.9497	54.1992	71.4171	54.1992	69.9882	54.1992	71.2697	54.1992	70.0482	54.1992	71.1112	54.1992	70.1289	54.1992	70.9478	54.1992	70.2291	54.1992	70.7851	54.1992	70.3472	54.1992	70.6282	54.1992	70.4811
55.6641	71.5168	55.6641	71.3568	55.6641	71.673	55.6641	71.198	55.6641	71.8198	55.6641	71.0453	55.6641	71.9515	55.6641	70.9029	55.6641	72.0628	55.6641	70.7744	55.6641	72.1485	55.6641	70.6628	55.6641	72.2045	55.6641	70.5704	55.6641	72.228	55.6641	70.499	55.6641	72.2175	55.6641	70.4496	55.6641	72.1735	55.6641	70.4228	55.6641	72.0984	55.6641	70.4188	55.6641	71.996	55.6641	70.4372	55.6641	71.8711	55.6641	70.4774	55.6641	71.7296	55.6641	70.5386	55.6641	71.5774	55.6641	70.6198	55.6641	71.42	55.6641	70.7195	55.6641	71.2629	55.6641	70.836	55.6641	71.1107	55.6641	70.9673
58.5938	72.3101	58.5938	72.1525	58.5938	72.4623	58.5938	71.995	58.5938	72.604	58.5938	71.842	58.5938	72.7296	58.5938	71.6981	58.5938	72.834	58.5938	71.5668	58.5938	72.9123	58.5938	71.4513	58.5938	72.9609	58.5938	71.3543	58.5938	72.977	58.5938	71.2775	58.5938	72.9598	58.5938	71.2223	58.5938	72.9099	58.5938	71.1894	58.5938	72.8298	58.5938	71.1793	58.5938	72.7235	58.5938	71.1918	58.5938	72.5959	58.5938	71.2264	58.5938	72.4527	58.5938	71.2824	58.5938	72.2998	58.5938	71.3587	58.5938	72.1427	58.5938	71.4542	58.5938	71.9867	58.5938	71.5671	58.5938	71.8362	58.5938	71.6953
60.0586	72.6979	60.0586	72.542	60.0586	72.8486	60.0586	72.3863	60.0586	72.989	60.0586	72.2355	60.0586	73.1136	60.0586	72.0939	60.0586	73.2172	60.0586	71.9654	60.0586	73.2953	60.0586	71.853	60.0586	73.3442	60.0586	71.7592	60.0586	73.3614	60.0586	71.6858	60.0586	73.3461	60.0586	71.6341	60.0586	73.299	60.0586	71.6045	60.0586	73.2224	60.0586	71.5974	60.0586	73.1202	60.0586	71.6124	60.0586	72.997	60.0586	71.649	60.0586	72.8584	60.0586	71.7064	60.0586	72.7098	60.0586	71.7834	60.0586	72.5566	60.0586	71.8788	60.0586	72.404	60.0586	71.9909	60.0586	72.2564	60.0586	72.1176
62.9883	73.4592	62.9883	73.3057	62.9883	73.6067	62.9883	73.1514	62.9883	73.7428	62.9883	73.0015	62.9883	73.8624	62.9883	72.8603	62.9883	73.9605	62.9883	72.732	62.9883	74.033	62.9883	72.6199	62.9883	74.0765	62.9883	72.5267	62.9883	74.0893	62.9883	72.4542	62.9883	74.0707	62.9883	72.4038	62.9883	74.022	62.9883	72.3759	62.9883	73.9457	62.9883	72.3707	62.9883	73.8457	62.9883	72.3876	62.9883	73.7267	62.9883	72.4258	62.9883	73.5937	62.9883	72.4841	62.9883	73.4518	62.9883	72.561	62.9883	73.306	62.9883	72.6551	62.9883	73.1607	62.9883	72.7643	62.9883	73.0198	62.9883	72.8867
64.4531	73.7622	64.4531	73.6089	64.4531	73.9093	64.4531	73.4547	64.4531	74.0446	64.4531	73.3045	64.4531	74.163	64.4531	73.1631	64.4531	74.2596	64.4531	73.0345	64.4531	74.3304	64.4531	72.9222	64.4531	74.3723	64.4531	72.8289	64.4531	74.3835	64.4531	72.7564	64.4531	74.3637	64.4531	72.706	64.4531	74.3142	64.4531	72.6784	64.4531	74.2377	64.4531	72.6734	64.4531	74.138	64.4531	72.6907	64.4531	74.0198	64.4531	72.7291	64.4531	73.8881	64.4531	72.7875	64.4531	73.7478	64.4531	72.8645	64.4531	73.6037	64.4531	72.9583	64.4531	73.46	64.4531	73.067	64.4531	73.3205	64.4531	73.1886
67.3828	74.2607	67.3828	74.1097	67.3828	74.4049	67.3828	73.9571	67.3828	74.537	67.3828	73.8082	67.3828	74.6518	67.3828	73.6675	67.3828	74.7449	67.3828	73.5393	67.3828	74.8123	67.3828	73.4271	67.3828	74.8512	67.3828	73.3336	67.3828	74.8602	67.3828	73.261	67.3828	74.8391	67.3828	73.2104	67.3828	74.7894	67.3828	73.1825	67.3828	74.7137	67.3828	73.1772	67.3828	74.6158	67.3828	73.194	67.3828	74.5001	67.3828	73.232	67.3828	74.3715	67.3828	73.2899	67.3828	74.2344	67.3828	73.3661	67.3828	74.0935	67.3828	73.4588	67.3828	73.9527	67.3828	73.5662	67.3828	73.8158	67.3828	73.6861
68.8477	74.456	68.8477	74.3049	68.8477	74.6	68.8477	74.1521	68.8477	74.7315	68.8477	74.0028	68.8477	74.8456	68.8477	73.8617	68.8477	74.9376	68.8477	73.7332	68.8477	75.0039	68.8477	73.6209	68.8477	75.0418	68.8477	73.5277	68.8477	75.0501	68.8477	73.4557	68.8477	75.0288	68.8477	73.4061	68.8477	74.9795	68.8477	73.3797	68.8477	74.9049	68.8477	73.3762	68.8477	74.8089	68.8477	73.3951	68.8477	74.6958	68.8477	73.4353	68.8477	74.57	68.8477	73.4952	68.8477	74.4359	68.8477	73.5732	68.8477	74.2978	68.8477	73.6674	68.8477	74.1594	68.8477	73.7755	68.8477	74.0242	68.8477	73.8953
71.7773	75.0631	71.7773	74.9154	71.7773	75.2025	71.7773	74.7648	71.7773	75.3284	71.7773	74.6164	71.7773	75.436	71.7773	74.4751	71.7773	75.521	71.7773	74.3452	71.7773	75.5799	71.7773	74.2307	71.7773	75.6105	71.7773	74.1344	71.7773	75.6118	71.7773	74.0586	71.7773	75.5842	71.7773	74.0049	71.7773	75.5296	71.7773	73.974	71.7773	75.4511	71.7773	73.9659	71.7773	75.3525	71.7773	73.98	71.7773	75.2382	71.7773	74.0155	71.7773	75.1125	71.7773	74.0707	71.7773	74.9799	71.7773	74.1441	71.7773	74.8441	71.7773	74.2336	71.7773	74.7089	71.7773	74.3372	71.7773	74.5774	71.7773	74.4527
74.707	75.6745	74.707	75.5306	74.707	75.8096	74.707	75.3833	74.707	75.9308	74.707	75.2376	74.707	76.0332	74.707	75.0985	74.707	76.1129	74.707	74.9704	74.707	76.1667	74.707	74.857	74.707	76.1923	74.707	74.7612	74.707	76.1893	74.707	74.6853	74.707	76.158	74.707	74.6307	74.707	76.1006	74.707	74.598	74.707	76.0201	74.707	74.5874	74.707	75.9204	74.707	74.5981	74.707	75.8058	74.707	74.6292	74.707	75.6807	74.707	74.6794	74.707	75.5495	74.707	74.7471	74.707	75.4163	74.707	74.8307	74.707	75.2845	74.707	74.9282	74.707	75.1574	74.707	75.0379
77.6367	75.9471	77.6367	75.8047	77.6367	76.0804	77.6367	75.6584	77.6367	76.1995	77.6367	75.5136	77.6367	76.2998	77.6367	75.3753	77.6367	76.3774	77.6367	75.2479	77.6367	76.4295	77.6367	75.1354	77.6367	76.4544	77.6367	75.0409	77.6367	76.4515	77.6367	74.9668	77.6367	76.4218	77.6367	74.9145	77.6367	76.3674	77.6367	74.8845	77.6367	76.2911	77.6367	74.877	77.6367	76.1967	77.6367	74.891	77.6367	76.0881	77.6367	74.9256	77.6367	75.9692	77.6367	74.979	77.6367	75.8439	77.6367	75.0496	77.6367	75.7155	77.6367	75.1354	77.6367	75.5875	77.6367	75.2344	77.6367	75.4628	77.6367	75.3443
79.1016	76.1128	79.1016	75.971	79.1016	76.2452	79.1016	75.8251	79.1016	76.363	79.1016	75.6803	79.1016	76.4619	79.1016	75.5418	79.1016	76.5379	79.1016	75.4142	79.1016	76.5884	79.1016	75.3013	79.1016	76.6116	79.1016	75.2065	79.1016	76.6074	79.1016	75.1321	79.1016	76.5766	79.1016	75.0796	79.1016	76.5214	79.1016	75.0497	79.1016	76.445	79.1016	75.0422	79.1016	76.3509	79.1016	75.0565	79.1016	76.2431	79.1016	75.0912	79.1016	76.1254	79.1016	75.1447	79.1016	76.0016	79.1016	75.2153	79.1016	75.8749	79.1016	75.3008	79.1016	75.7485	79.1016	75.3991	79.1016	75.6253	79.1016	75.5081
82.0312	76.7577	82.0312	76.6168	82.0312	76.8877	82.0312	76.4703	82.0312	77.002	82.0312	76.3237	82.0312	77.0959	82.0312	76.182	82.0312	77.1659	82.0312	76.05	82.0312	77.2093	82.0312	75.9318	82.0312	77.2247	82.0312	75.8309	82.0312	77.212	82.0312	75.7497	82.0312	77.1724	82.0312	75.69	82.0312	77.1086	82.0312	75.6526	82.0312	77.0237	82.0312	75.6377	82.0312	76.922	82.0312	75.6447	82.0312	76.8076	82.0312	75.6726	82.0312	76.6846	82.0312	75.7197	82.0312	76.557	82.0312	75.7844	82.0312	76.4283	82.0312	75.8648	82.0312	76.3014	82.0312	75.9587	82.0312	76.1793	82.0312	76.0643
84.9609	77.1274	84.9609	76.9932	84.9609	77.2503	84.9609	76.8528	84.9609	77.3574	84.9609	76.7111	84.9609	77.4446	84.9609	76.5732	84.9609	77.509	84.9609	76.4438	84.9609	77.5483	84.9609	76.3267	84.9609	77.5617	84.9609	76.2254	84.9609	77.5492	84.9609	76.1423	84.9609	77.5119	84.9609	76.0792	84.9609	77.4517	84.9609	76.0371	84.9609	77.3712	84.9609	76.0163	84.9609	77.2733	84.9609	76.0166	84.9609	77.1615	84.9609	76.0374	84.9609	77.0393	84.9609	76.0778	84.9609	76.9106	84.9609	76.1366	84.9609	76.7794	84.9609	76.2124	84.9609	76.6495	84.9609	76.3037	84.9609	76.5248	84.9609	76.4087
87.8906	77.07	87.8906	76.9279	87.8906	77.2048	87.8906	76.7842	87.8906	77.3273	87.8906	76.6445	87.8906	77.4329	87.8906	76.5142	87.8906	77.5182	87.8906	76.3983	87.8906	77.5808	87.8906	76.3008	87.8906	77.6195	87.8906	76.2249	87.8906	77.6344	87.8906	76.1728	87.8906	77.6268	87.8906	76.1453	87.8906	77.5985	87.8906	76.1424	87.8906	77.5519	87.8906	76.163	87.8906	77.4893	87.8906	76.2053	87.8906	77.4128	87.8906	76.267	87.8906	77.3242	87.8906	76.3454	87.8906	77.2253	87.8906	76.4377	87.8906	77.118	87.8906	76.541	87.8906	77.0043	87.8906	76.6522	87.8906	76.8869	87.8906	76.7685
90.8203	77.7783	90.8203	77.6426	90.8203	77.9029	90.8203	77.5015	90.8203	78.0114	90.8203	77.3607	90.8203	78.0996	90.8203	77.2259	90.8203	78.1646	90.8203	77.1023	90.8203	78.2045	90.8203	76.9944	90.8203	78.2193	90.8203	76.9057	90.8203	78.2101	90.8203	76.839	90.8203	78.1793	90.8203	76.7957	90.8203	78.1301	90.8203	76.7762	90.8203	78.0658	90.8203	76.7803	90.8203	77.9897	90.8203	76.8064	90.8203	77.9043	90.8203	76.8526	90.8203	77.8117	90.8203	76.9164	90.8203	77.7132	90.8203	76.9949	90.8203	77.6102	90.8203	77.0851	90.8203	77.5039	90.8203	77.184	90.8203	77.3959	90.8203	77.2885
95.2148	78.3074	95.2148	78.1861	95.2148	78.4154	95.2148	78.0566	95.2148	78.5064	95.2148	77.9238	95.2148	78.577	95.2148	77.7933	95.2148	78.6253	95.2148	77.67	95.2148	78.6505	95.2148	77.5587	95.2148	78.6528	95.2148	77.4632	95.2148	78.6339	95.2148	77.3867	95.2148	78.596	95.2148	77.3311	95.2148	78.5421	95.2148	77.2977	95.2148	78.4751	95.2148	77.2864	95.2148	78.3978	95.2148	77.2968	95.2148	78.3122	95.2148	77.3274	95.2148	78.2198	95.2148	77.3764	95.2148	78.1219	95.2148	77.4415	95.2148	78.0198	95.2148	77.5203	95.2148	77.9152	95.2148	77.6099	95.2148	77.8102	95.2148	77.7075
98.1445	78.6394	98.1445	78.5198	98.1445	78.7466	98.1445	78.3928	98.1445	78.8372	98.1445	78.2636	98.1445	78.9077	98.1445	78.1377	98.1445	78.956	98.1445	78.0203	98.1445	78.9809	98.1445	77.916	98.1445	78.9829	98.1445	77.8286	98.1445	78.9637	98.1445	77.7613	98.1445	78.9263	98.1445	77.7157	98.1445	78.8744	98.1445	77.6927	98.1445	78.812	98.1445	77.692	98.1445	78.7423	98.1445	77.7125	98.1445	78.6676	98.1445	77.7522	98.1445	78.5888	98.1445	77.8087	98.1445	78.5062	98.1445	77.8791	98.1445	78.4196	98.1445	77.9603	98.1445	78.3293	98.1445	78.0489	98.1445	78.2361	98.1445	78.1419
101.074	79.0581	101.074	78.9371	101.074	79.1628	101.074	78.8049	101.074	79.2468	101.074	78.6665	101.074	79.3067	101.074	78.5276	101.074	79.3397	101.074	78.3931	101.074	79.3449	101.074	78.2682	101.074	79.3225	101.074	78.1572	101.074	79.2747	101.074	78.0637	101.074	79.2054	101.074	77.9906	101.074	79.1195	101.074	77.9398	101.074	79.0228	101.074	77.912	101.074	78.9206	101.074	77.9071	101.074	78.8173	101.074	77.9241	101.074	78.7154	101.074	77.9607	101.074	78.6162	101.074	78.0143	101.074	78.5197	101.074	78.0816	101.074	78.4254	101.074	78.1593	101.074	78.3333	101.074	78.244
105.469	79.3736	105.469	79.2571	105.469	79.4769	105.469	79.1328	105.469	79.5622	105.469	79.0065	105.469	79.6256	105.469	78.8838	105.469	79.6645	105.469	78.77	105.469	79.678	105.469	78.6696	105.469	79.6664	105.469	78.5861	105.469	79.6317	105.469	78.5219	105.469	79.5774	105.469	78.478	105.469	79.5079	105.469	78.4547	105.469	79.4282	105.469	78.4511	105.469	79.3431	105.469	78.4654	105.469	79.2565	105.469	78.4954	105.469	79.1714	105.469	78.5385	105.469	79.0891	105.469	78.5918	105.469	79.01	105.469	78.6526	105.469	78.9338	105.469	78.7187	105.469	78.8599	105.469	78.7881
108.398	79.7071	108.398	79.5883	108.398	79.812	108.398	79.4612	108.398	79.8983	108.398	79.3311	108.398	79.9622	108.398	79.2036	108.398	80.0009	108.398	79.0838	108.398	80.0129	108.398	78.976	108.398	79.9986	108.398	78.8837	108.398	79.9597	108.398	78.8094	108.398	79.8995	108.398	78.7548	108.398	79.8223	108.398	78.7203	108.398	79.7334	108.398	78.7057	108.398	79.6376	108.398	78.7099	108.398	79.5394	108.398	78.7313	108.398	79.4422	108.398	78.7676	108.398	79.3482	108.398	78.8164	108.398	79.2582	108.398	78.8752	108.398	79.1727	108.398	78.9418	108.398	79.0913	108.398	79.0142
112.793	80.0564	112.793	79.9368	112.793	80.1627	112.793	79.8093	112.793	80.2505	112.793	79.6797	112.793	80.3159	112.793	79.5538	112.793	80.3558	112.793	79.4367	112.793	80.3688	112.793	79.3328	112.793	80.3553	112.793	79.2455	112.793	80.3172	112.793	79.1771	112.793	80.258	112.793	79.1285	112.793	80.1825	112.793	79.0998	112.793	80.0957	112.793	79.0901	112.793	80.0026	112.793	79.0979	112.793	79.9073	112.793	79.121	112.793	79.8128	112.793	79.1574	112.793	79.721	112.793	79.2048	112.793	79.6329	112.793	79.2612	112.793	79.5491	112.793	79.3249	112.793	79.4696	112.793	79.3947
117.188	80.5375	117.188	80.4143	117.188	80.645	117.188	80.2809	117.188	80.7318	117.188	80.1432	117.188	80.7937	117.188	80.007	117.188	80.8279	117.188	79.8775	117.188	80.8333	117.188	79.7597	117.188	80.8104	117.188	79.6574	117.188	80.7617	117.188	79.5739	117.188	80.6914	117.188	79.5111	117.188	80.6046	117.188	79.4699	117.188	80.5068	117.188	79.4504	117.188	80.4035	117.188	79.4514	117.188	80.2992	117.188	79.471	117.188	80.1972	117.188	79.5069	117.188	80.0996	117.188	79.5562	117.188	80.007	117.188	79.6161	117.188	79.9194	117.188	79.6839	117.188	79.8364	117.188	79.7578
120.117	80.6638	120.117	80.5413	120.117	80.7686	120.117	80.407	120.117	80.8508	120.117	80.2671	120.117	80.9065	120.117	80.1279	120.117	80.9337	120.117	79.9951	120.117	80.9319	120.117	79.874	120.117	80.9026	120.117	79.7686	120.117	80.8491	120.117	79.682	120.117	80.7756	120.117	79.6159	120.117	80.6875	120.117	79.5713	120.117	80.5898	120.117	79.5478	120.117	80.4872	120.117	79.5444	120.117	80.3836	120.117	79.5596	120.117	80.2817	120.117	79.5912	120.117	80.1831	120.117	79.6367	120.117	80.0887	120.117	79.6939	120.117	79.9989	120.117	79.7603	120.117	79.9139	120.117	79.8341
124.512	80.8895	124.512	80.7628	124.512	80.9973	124.512	80.6238	124.512	81.0811	124.512	80.4798	124.512	81.1374	124.512	80.3382	124.512	81.1645	124.512	80.2062	124.512	81.1631	124.512	80.0897	124.512	81.1355	124.512	79.9934	124.512	81.0857	124.512	79.9204	124.512	81.0189	124.512	79.8719	124.512	80.9403	124.512	79.8476	124.512	80.8553	124.512	79.8458	124.512	80.7678	124.512	79.8637	124.512	80.6809	124.512	79.8982	124.512	80.5961	124.512	79.9458	124.512	80.514	124.512	80.0032	124.512	80.4346	124.512	80.0675	124.512	80.3574	124.512	80.1364	124.512	80.2819	124.512	80.2081
128.906	81.0678	128.906	80.9458	128.906	81.1705	128.906	80.8106	128.906	81.2488	128.906	80.6691	128.906	81.2992	128.906	80.5283	128.906	81.3202	128.906	80.3949	128.906	81.312	128.906	80.275	128.906	81.2771	128.906	80.1732	128.906	81.2193	128.906	80.093	128.906	81.1441	128.906	80.0363	128.906	81.0576	128.906	80.0036	128.906	80.9659	128.906	79.994	128.906	80.874	128.906	80.0057	128.906	80.7857	128.906	80.0357	128.906	80.7026	128.906	80.0807	128.906	80.6249	128.906	80.1369	128.906	80.5512	128.906	80.2008	128.906	80.4799	128.906	80.269	128.906	80.4094	128.906	80.339
133.301	81.3142	133.301	81.1944	133.301	81.4128	133.301	81.0591	133.301	81.4858	133.301	80.9148	133.301	81.5305	133.301	80.7686	133.301	81.5459	133.301	80.6274	133.301	81.5325	133.301	80.4974	133.301	81.4925	133.301	80.3837	133.301	81.4295	133.301	80.2898	133.301	81.3479	133.301	80.2179	133.301	81.2528	133.301	80.1685	133.301	81.1491	133.301	80.1412	133.301	81.0416	133.301	80.1345	133.301	80.9342	133.301	80.1462	133.301	80.8298	133.301	80.1739	133.301	80.7306	133.301	80.215	133.301	80.6375	133.301	80.267	133.301	80.5508	133.301	80.3279	133.301	80.4703	133.301	80.3959
139.16	81.2494	139.16	81.123	139.16	81.3577	139.16	80.985	139.16	81.4429	139.16	80.8428	139.16	81.5015	139.16	80.704	139.16	81.532	139.16	80.576	139.16	81.535	139.16	80.4654	139.16	81.513	139.16	80.3771	139.16	81.4701	139.16	80.314	139.16	81.4116	139.16	80.2771	139.16	81.343	139.16	80.2656	139.16	81.2692	139.16	80.277	139.16	81.1937	139.16	80.3078	139.16	81.1188	139.16	80.354	139.16	81.0453	139.16	80.4115	139.16	80.9732	139.16	80.4766	139.16	80.9021	139.16	80.5461	139.16	80.8315	139.16	80.6175	139.16	80.7606	139.16	80.6893
143.555	81.4189	143.555	81.2888	143.555	81.5269	143.555	81.1435	143.555	81.6075	143.555	80.9908	143.555	81.6568	143.555	80.839	143.555	81.6733	143.555	80.6959	143.555	81.6577	143.555	80.569	143.555	81.6134	143.555	80.4643	143.555	81.5462	143.555	80.386	143.555	81.4633	143.555	80.336	143.555	81.3726	143.555	80.3145	143.555	81.2813	143.555	80.3193	143.555	81.195	143.555	80.3469	143.555	81.1163	143.555	80.3928	143.555	81.0456	143.555	80.4519	143.555	80.9811	143.555	80.5192	143.555	80.92	143.555	80.5905	143.555	80.8595	143.555	80.6619	143.555	80.797	143.555	80.7312
147.949	81.6261	147.949	81.4915	147.949	81.7367	147.949	81.3401	147.949	81.8178	147.949	81.1797	147.949	81.8655	147.949	81.0188	147.949	81.8782	147.949	80.8655	147.949	81.857	147.949	80.7269	147.949	81.8051	147.949	80.609	147.949	81.7282	147.949	80.5161	147.949	81.6334	147.949	80.4502	147.949	81.5282	147.949	80.4117	147.949	81.4199	147.949	80.3992	147.949	81.3142	147.949	80.4099	147.949	81.2148	147.949	80.4401	147.949	81.1232	147.949	80.4858	147.949	81.0393	147.949	80.5428	147.949	80.9615	147.949	80.607	147.949	80.8878	147.949	80.6753	147.949	80.8162	147.949	80.7454
153.809	81.6562	153.809	81.5226	153.809	81.7641	153.809	81.3697	153.809	81.8411	153.809	81.2052	153.809	81.8839	153.809	81.0372	153.809	81.8914	153.809	80.8738	153.809	81.8646	153.809	80.7227	153.809	81.8069	153.809	80.5908	153.809	81.7238	153.809	80.4835	153.809	81.6226	153.809	80.4042	153.809	81.5111	153.809	80.3545	153.809	81.3971	153.809	80.3341	153.809	81.2868	153.809	80.3407	153.809	81.1846	153.809	80.3707	153.809	81.0918	153.809	80.4196	153.809	81.0077	153.809	80.4822	153.809	80.9298	153.809	80.5536	153.809	80.8551	153.809	80.6291	153.809	80.7809	153.809	80.7055
159.668	81.6736	159.668	81.5406	159.668	81.7811	159.668	81.389	159.668	81.8583	159.668	81.2269	159.668	81.9025	159.668	81.063	159.668	81.9134	159.668	80.9059	159.668	81.8933	159.668	80.7634	159.668	81.8461	159.668	80.6417	159.668	81.7775	159.668	80.5454	159.668	81.6936	159.668	80.477	159.668	81.6006	159.668	80.4369	159.668	81.5037	159.668	80.4242	159.668	81.4071	159.668	80.4363	159.668	81.3132	159.668	80.4698	159.668	81.2235	159.668	80.5207	159.668	81.1378	159.668	80.5846	159.668	81.0553	159.668	80.6573	159.668	80.9747	159.668	80.735	159.668	80.8947	159.668	80.8147
165.527	81.6683	165.527	81.5233	165.527	81.7841	165.527	81.3561	165.527	81.866	165.527	81.1758	165.527	81.9118	165.527	80.9925	165.527	81.9223	165.527	80.8168	165.527	81.9005	165.527	80.6586	165.527	81.8513	165.527	80.5263	165.527	81.7816	165.527	80.4258	165.527	81.6984	165.527	80.3604	165.527	81.6086	165.527	80.3303	165.527	81.5177	165.527	80.3336	165.527	81.4293	165.527	80.3661	165.527	81.3451	165.527	80.4226	165.527	81.2649	165.527	80.4972	165.527	81.1874	165.527	80.5837	165.527	81.1105	165.527	80.6765	165.527	81.0319	165.527	80.7705	165.527	80.9494	165.527	80.8622
171.387	81.6404	171.387	81.5004	171.387	81.7554	171.387	81.3426	171.387	81.8401	171.387	81.1751	171.387	81.8909	171.387	81.0068	171.387	81.9068	171.387	80.8465	171.387	81.8889	171.387	80.702	171.387	81.8413	171.387	80.5798	171.387	81.7699	171.387	80.4845	171.387	81.6821	171.387	80.4184	171.387	81.5858	171.387	80.3821	171.387	81.4875	171.387	80.3743	171.387	81.3921	171.387	80.3924	171.387	81.3018	171.387	80.4329	171.387	81.2168	171.387	80.4914	171.387	81.1359	171.387	80.5632	171.387	81.057	171.387	80.6436	171.387	80.9778	171.387	80.7282	171.387	80.8968	171.387	80.8133
177.246	81.574	177.246	81.4248	177.246	81.6933	177.246	81.2543	177.246	81.7766	177.246	81.0725	177.246	81.8203	177.246	80.8901	177.246	81.8243	177.246	80.7177	177.246	81.7919	177.246	80.565	177.246	81.7297	177.246	80.4395	177.246	81.646	177.246	80.346	177.246	81.5502	177.246	80.2865	177.246	81.4506	177.246	80.26	177.246	81.3532	177.246	80.2634	177.246	81.2611	177.246	80.2922	177.246	81.175	177.246	80.341	177.246	81.0941	177.246	80.4043	177.246	81.0169	177.246	80.4773	177.246	80.9417	177.246	80.5553	177.246	80.867	177.246	80.635	177.246	80.7914	177.246	80.7141
183.105	81.4354	183.105	81.2896	183.105	81.5493	183.105	81.1211	183.105	81.6251	183.105	80.9408	183.105	81.6594	183.105	80.7607	183.105	81.6527	183.105	80.5923	183.105	81.609	183.105	80.446	183.105	81.5358	183.105	80.3293	183.105	81.4433	183.105	80.2468	183.105	81.3428	183.105	80.1996	183.105	81.2453	183.105	80.1859	183.105	81.1587	183.105	80.2019	183.105	81.0868	183.105	80.2426	183.105	81.029	183.105	80.3023	183.105	80.9811	183.105	80.3755	183.105	80.9371	183.105	80.457	183.105	80.8909	183.105	80.5419	183.105	80.838	183.105	80.6258	183.105	80.776	183.105	80.7048
188.965	81.4119	188.965	81.2477	188.965	81.5405	188.965	81.0576	188.965	81.6265	188.965	80.8535	188.965	81.6661	188.965	80.6489	188.965	81.6593	188.965	80.4577	188.965	81.6095	188.965	80.293	188.965	81.524	188.965	80.1649	188.965	81.4133	188.965	80.08	188.965	81.2902	188.965	80.0399	188.965	81.1681	188.965	80.0416	188.965	81.0586	188.965	80.0785	188.965	80.9701	188.965	80.1423	188.965	80.9052	188.965	80.2243	188.965	80.8608	188.965	80.3164	188.965	80.8293	188.965	80.4116	188.965	80.8012	188.965	80.5042	188.965	80.7675	188.965	80.5892	188.965	80.7223	188.965	80.6628
196.289	81.5517	196.289	81.3978	196.289	81.6658	196.289	81.2122	196.289	81.7346	196.289	81.005	196.289	81.7559	196.289	80.7883	196.289	81.7306	196.289	80.5749	196.289	81.6631	196.289	80.3782	196.289	81.5612	196.289	80.2102	196.289	81.4355	196.289	80.081	196.289	81.2983	196.289	79.9974	196.289	81.1621	196.289	79.9613	196.289	81.0376	196.289	79.9703	196.289	80.9324	196.289	80.0177	196.289	80.8496	196.289	80.094	196.289	80.7879	196.289	80.1886	196.289	80.7422	196.289	80.2906	196.289	80.7046	196.289	80.3908	196.289	80.6662	196.289	80.4816	196.289	80.6192	196.289	80.5583
203.613	81.3838	203.613	81.22	203.613	81.5066	203.613	81.0248	203.613	81.5817	203.613	80.8096	203.613	81.6059	203.613	80.587	203.613	81.5797	203.613	80.3698	203.613	81.5074	203.613	80.1703	203.613	81.3967	203.613	79.9988	203.613	81.2579	203.613	79.8634	203.613	81.1025	203.613	79.7692	203.613	80.9426	203.613	79.718	203.613	80.7896	203.613	79.7082	203.613	80.6535	203.613	79.7354	203.613	80.5416	203.613	79.7927	203.613	80.4567	203.613	79.8711	203.613	80.3959	203.613	79.9611	203.613	80.3513	203.613	80.0528	203.613	80.312	203.613	80.1378	203.613	80.2673	203.613	80.2101
210.938	81.1836	210.938	81.0255	210.938	81.2983	210.938	80.8319	210.938	81.3646	210.938	80.6137	210.938	81.3811	210.938	80.3841	210.938	81.3501	210.938	80.1575	210.938	81.2772	210.938	79.9487	210.938	81.1715	210.938	79.7707	210.938	81.0443	210.938	79.6337	210.938	80.9079	210.938	79.5432	210.938	80.7734	210.938	79.4999	210.938	80.6495	210.938	79.5	210.938	80.5409	210.938	79.5367	210.938	80.4491	210.938	79.6011	210.938	80.3725	210.938	79.6844	210.938	80.3072	210.938	79.7778	210.938	80.2479	210.938	79.8737	210.938	80.1885	210.938	79.9658	210.938	80.1236	210.938	80.0497
218.262	81.0532	218.262	80.8962	218.262	81.1681	218.262	80.7057	218.262	81.2351	218.262	80.4926	218.262	81.252	218.262	80.2691	218.262	81.2206	218.262	80.0484	218.262	81.1468	218.262	79.8437	218.262	81.04	218.262	79.6673	218.262	80.9122	218.262	79.5295	218.262	80.7763	218.262	79.4376	218.262	80.6439	218.262	79.3946	218.262	80.5242	218.262	79.3992	218.262	80.4231	218.262	79.4457	218.262	80.3428	218.262	79.5251	218.262	80.2819	218.262	79.6261	218.262	80.2356	218.262	79.7374	218.262	80.1963	218.262	79.848	218.262	80.1548	218.262	79.9492	218.262	80.1028	218.262	80.0349
225.586	80.9776	225.586	80.8204	225.586	81.0861	225.586	80.6241	225.586	81.1402	225.586	80.401	225.586	81.1384	225.586	80.1657	225.586	81.0841	225.586	79.9338	225.586	80.9855	225.586	79.7209	225.586	80.855	225.586	79.5412	225.586	80.7082	225.586	79.4059	225.586	80.5617	225.586	79.3221	225.586	80.4301	225.586	79.2919	225.586	80.3239	225.586	79.3124	225.586	80.2477	225.586	79.3761	225.586	80.2	225.586	79.4726	225.586	80.1745	225.586	79.5897	225.586	80.1617	225.586	79.7146	225.586	80.1503	225.586	79.8357	225.586	80.1296	225.586	79.9428	225.586	80.0909	225.586	80.029
232.91	80.9367	232.91	80.7716	232.91	81.0495	232.91	80.564	232.91	81.104	232.91	80.3261	232.91	81.0982	232.91	80.0725	232.91	81.0345	232.91	79.8188	232.91	80.9201	232.91	79.5812	232.91	80.7669	232.91	79.3746	232.91	80.5908	232.91	79.2124	232.91	80.4106	232.91	79.1042	232.91	80.2447	232.91	79.0549	232.91	80.1085	232.91	79.0641	232.91	80.0112	232.91	79.1255	232.91	79.9543	232.91	79.2283	232.91	79.9318	232.91	79.3583	232.91	79.9313	232.91	79.4996	232.91	79.9372	232.91	79.6368	232.91	79.9332	232.91	79.756	232.91	79.9059	232.91	79.8473
241.699	80.7627	241.699	80.5776	241.699	80.8964	241.699	80.3532	241.699	80.9708	241.699	80.1042	241.699	80.9821	241.699	79.8474	241.699	80.9312	241.699	79.5992	241.699	80.8238	241.699	79.3743	241.699	80.6702	241.699	79.1843	241.699	80.4851	241.699	79.0368	241.699	80.2863	241.699	78.9364	241.699	80.0925	241.699	78.8842	241.699	79.9204	241.699	78.8793	241.699	79.7819	241.699	78.9179	241.699	79.6826	241.699	78.9932	241.699	79.6211	241.699	79.0946	241.699	79.5897	241.699	79.2089	241.699	79.5756	241.699	79.3215	241.699	79.5636	241.699	79.4191	241.699	79.5395	241.699	79.4928
250.488	80.6926	250.488	80.4818	250.488	80.8395	250.488	80.2187	250.488	80.9152	250.488	79.9186	250.488	80.917	250.488	79.6003	250.488	80.8469	250.488	79.2843	250.488	80.7122	250.488	78.9917	250.488	80.5254	250.488	78.7417	250.488	80.304	250.488	78.5492	250.488	80.0691	250.488	78.4231	250.488	79.8428	250.488	78.3655	250.488	79.6455	250.488	78.3719	250.488	79.4913	250.488	78.4328	250.488	79.3854	250.488	78.5356	250.488	79.3232	250.488	78.6654	250.488	79.2923	250.488	78.8065	250.488	79.2759	250.488	78.9435	250.488	79.2568	250.488	79.0633	250.488	79.2202	250.488	79.1567
259.277	80.6514	259.277	80.4524	259.277	80.793	259.277	80.207	259.277	80.8701	259.277	79.9296	259.277	80.8801	259.277	79.6378	259.277	80.8247	259.277	79.3501	259.277	80.7102	259.277	79.0847	259.277	80.548	259.277	78.8571	259.277	80.3538	259.277	78.6782	259.277	80.1459	259.277	78.5539	259.277	79.9434	259.277	78.4856	259.277	79.7629	259.277	78.4713	259.277	79.6159	259.277	78.5064	259.277	79.5071	259.277	78.5841	259.277	79.4338	259.277	78.6943	259.277	79.3867	259.277	78.8243	259.277	79.3524	259.277	78.9588	259.277	79.3157	259.277	79.0833	259.277	79.2633	259.277	79.1865
268.066	80.461	268.066	80.223	268.066	80.6268	268.066	79.9258	268.066	80.7128	268.066	79.5883	268.066	80.7166	268.066	79.2351	268.066	80.6413	268.066	78.8946	268.066	80.4955	268.066	78.5958	268.066	80.2937	268.066	78.362	268.066	80.0553	268.066	78.2053	268.066	79.8035	268.066	78.1238	268.066	79.5621	268.066	78.1043	268.066	79.352	268.066	78.1291	268.066	79.186	268.066	78.1825	268.066	79.0665	268.066	78.2541	268.066	78.9855	268.066	78.3382	268.066	78.9288	268.066	78.4308	268.066	78.882	268.066	78.5269	268.066	78.8333	268.066	78.6201	268.066	78.7752	268.066	78.7041
276.855	80.2887	276.855	80.0693	276.855	80.4397	276.855	79.7916	276.855	80.515	276.855	79.4689	276.855	80.5122	276.855	79.1177	276.855	80.4341	276.855	78.7592	276.855	80.2907	276.855	78.4192	276.855	80.0978	276.855	78.1268	276.855	79.8751	276.855	77.9085	276.855	79.6425	276.855	77.7808	276.855	79.4172	276.855	77.7431	276.855	79.213	276.855	77.7785	276.855	79.0409	276.855	77.8615	276.855	78.9087	276.855	77.9679	276.855	78.8167	276.855	78.0815	276.855	78.7556	276.855	78.1946	276.855	78.7083	276.855	78.3048	276.855	78.6572	276.855	78.4104	276.855	78.5912	276.855	78.5077
287.109	80.3642	287.109	80.1708	287.109	80.4838	287.109	79.913	287.109	80.5242	287.109	79.6028	287.109	80.4854	287.109	79.2541	287.109	80.3744	287.109	78.8828	287.109	80.2047	287.109	78.5088	287.109	79.9957	287.109	78.1588	287.109	79.7696	287.109	77.8663	287.109	79.5477	287.109	77.6676	287.109	79.3461	287.109	77.5887	287.109	79.173	287.109	77.632	287.109	79.0313	287.109	77.7723	287.109	78.9224	287.109	77.9678	287.109	78.8482	287.109	78.1764	287.109	78.808	287.109	78.3675	287.109	78.7927	287.109	78.5249	287.109	78.7853	287.109	78.643	287.109	78.7668	287.109	78.7223
297.363	80.1451	297.363	79.9822	297.363	80.2337	297.363	79.7535	297.363	80.2448	297.363	79.4727	297.363	80.1803	297.363	79.1581	297.363	80.0457	297.363	78.8298	297.363	79.8498	297.363	78.5065	297.363	79.6058	297.363	78.2028	297.363	79.3341	297.363	77.9293	297.363	79.0652	297.363	77.6961	297.363	78.8381	297.363	77.5173	297.363	78.6898	297.363	77.413	297.363	78.6376	297.363	77.4026	297.363	78.6668	297.363	77.4937	297.363	78.7377	297.363	77.6724	297.363	78.8047	297.363	77.9067	297.363	78.8345	297.363	78.1573	297.363	78.8098	297.363	78.3906	297.363	78.7258	297.363	78.5842
307.617	80.1752	307.617	79.9785	307.617	80.2954	307.617	79.7178	307.617	80.3308	307.617	79.4085	307.617	80.2786	307.617	79.0686	307.617	80.1428	307.617	78.7178	307.617	79.9344	307.617	78.3772	307.617	79.6696	307.617	78.0673	307.617	79.3675	307.617	77.8057	307.617	79.0469	307.617	77.6045	307.617	78.7265	307.617	77.4701	307.617	78.4287	307.617	77.4049	307.617	78.1839	307.617	77.409	307.617	78.0251	307.617	77.4792	307.617	77.972	307.617	77.6058	307.617	78.013	307.617	77.7701	307.617	78.1048	307.617	77.9444	307.617	78.1921	307.617	78.0968	307.617	78.2305	307.617	78.1984
319.336	79.9557	319.336	79.6932	319.336	80.1339	319.336	79.3648	319.336	80.2141	319.336	78.9929	319.336	80.1892	319.336	78.6029	319.336	80.0601	319.336	78.2222	319.336	79.8381	319.336	77.8786	319.336	79.5458	319.336	77.5975	319.336	79.2146	319.336	77.3974	319.336	78.8795	319.336	77.2851	319.336	78.5715	319.336	77.2533	319.336	78.3133	319.336	77.2849	319.336	78.1187	319.336	77.3605	319.336	77.9949	319.336	77.4651	319.336	77.9428	319.336	77.5893	319.336	77.9522	319.336	77.7246	319.336	77.999	319.336	77.8583	319.336	78.0498	319.336	77.9723	319.336	78.0725	319.336	78.0476
329.59	79.8734	329.59	79.664	329.59	80.0025	329.59	79.389	329.59	80.0412	329.59	79.0654	329.59	79.9852	329.59	78.7106	329.59	79.8381	329.59	78.3413	329.59	79.6119	329.59	77.9733	329.59	79.327	329.59	77.6241	329.59	79.0111	329.59	77.3145	329.59	78.694	329.59	77.0681	329.59	78.4016	329.59	76.9072	329.59	78.1502	329.59	76.8436	329.59	77.9454	329.59	76.873	329.59	77.7883	329.59	76.9752	329.59	77.68	329.59	77.1207	329.59	77.6209	329.59	77.2783	329.59	77.6042	329.59	77.4212	329.59	77.6113	329.59	77.5298	329.59	77.6162	329.59	77.5941
341.309	79.6964	341.309	79.4579	341.309	79.8507	341.309	79.1549	341.309	79.9074	341.309	78.8125	341.309	79.8602	341.309	78.4585	341.309	79.7107	341.309	78.1191	341.309	79.4693	341.309	77.8141	341.309	79.1554	341.309	77.5532	341.309	78.7981	341.309	77.3366	341.309	78.4358	341.309	77.1612	341.309	78.1104	341.309	77.0264	341.309	77.8569	341.309	76.9383	341.309	77.6913	341.309	76.9067	341.309	77.6064	341.309	76.9379	341.309	77.5799	341.309	77.0275	341.309	77.586	341.309	77.1581	341.309	77.6023	341.309	77.3032	341.309	77.6098	341.309	77.4355	341.309	77.5914	341.309	77.5345
353.027	79.6966	353.027	79.4512	353.027	79.8401	353.027	79.1175	353.027	79.8747	353.027	78.7156	353.027	79.8008	353.027	78.2718	353.027	79.6256	353.027	77.8185	353.027	79.3629	353.027	77.393	353.027	79.0316	353.027	77.0327	353.027	78.6546	353.027	76.7656	353.027	78.2594	353.027	76.6015	353.027	77.8788	353.027	76.53	353.027	77.5505	353.027	76.5287	353.027	77.3114	353.027	76.5755	353.027	77.1834	353.027	76.6564	353.027	77.1594	353.027	76.7643	353.027	77.2033	353.027	76.8926	353.027	77.2671	353.027	77.0294	353.027	77.31	353.027	77.1568	353.027	77.3082	353.027	77.255
366.211	79.6485	366.211	79.3946	366.211	79.7915	366.211	79.038	366.211	79.822	366.211	78.5956	366.211	79.7435	366.211	78.0946	366.211	79.5634	366.211	77.5727	366.211	79.2937	366.211	77.0773	366.211	78.9518	366.211	76.659	366.211	78.5625	366.211	76.361	366.211	78.1589	366.211	76.2044	366.211	77.7811	366.211	76.1812	366.211	77.4708	366.211	76.2592	366.211	77.259	366.211	76.3965	366.211	77.1537	366.211	76.556	366.211	77.1349	366.211	76.7127	366.211	77.1642	366.211	76.854	366.211	77.2014	366.211	76.9758	366.211	77.2184	366.211	77.0765	366.211	77.2027	366.211	77.1538
379.395	79.756	379.395	79.5259	379.395	79.8918	379.395	79.2116	379.395	79.927	379.395	78.8266	379.395	79.8589	379.395	78.3873	379.395	79.6881	379.395	77.914	379.395	79.4196	379.395	77.4329	379.395	79.064	379.395	76.9795	379.395	78.6384	379.395	76.5959	379.395	78.168	379.395	76.3213	379.395	77.6894	379.395	76.1788	379.395	77.2536	379.395	76.1669	379.395	76.9211	379.395	76.2638	379.395	76.7411	379.395	76.4369	379.395	76.7225	379.395	76.6502	379.395	76.8252	379.395	76.8679	379.395	76.9824	379.395	77.0568	379.395	77.1309	379.395	77.1899	379.395	77.2273	379.395	77.2491
392.578	79.36	392.578	79.079	392.578	79.5477	392.578	78.7265	392.578	79.6227	392.578	78.3256	392.578	79.5721	392.578	77.8971	392.578	79.3934	392.578	77.4561	392.578	79.1001	392.578	77.0104	392.578	78.7232	392.578	76.5639	392.578	78.3058	392.578	76.1257	392.578	77.8901	392.578	75.7212	392.578	77.5054	392.578	75.3956	392.578	77.1642	392.578	75.2029	392.578	76.8733	392.578	75.1798	392.578	76.6487	392.578	75.3202	392.578	76.5138	392.578	75.5754	392.578	76.4782	392.578	75.8771	392.578	76.516	392.578	76.1632	392.578	76.5725	392.578	76.3905	392.578	76.5913	392.578	76.5352
405.762	79.2484	405.762	78.9764	405.762	79.4028	405.762	78.6019	405.762	79.4304	405.762	78.1437	405.762	79.3307	405.762	77.6267	405.762	79.1144	405.762	77.0852	405.762	78.802	405.762	76.5646	405.762	78.4195	405.762	76.1149	405.762	77.9938	405.762	75.7738	405.762	77.5528	405.762	75.5505	405.762	77.1299	405.762	75.4252	405.762	76.7661	405.762	75.3676	405.762	76.5	405.762	75.3569	405.762	76.3484	405.762	75.391	405.762	76.2963	405.762	75.479	405.762	76.3065	405.762	75.6257	405.762	76.3367	405.762	75.8176	405.762	76.3469	405.762	76.0208	405.762	76.3047	405.762	76.1935
420.41	79.5908	420.41	79.3836	420.41	79.6689	420.41	79.0488	420.41	79.6231	420.41	78.596	420.41	79.4638	420.41	78.0443	420.41	79.2045	420.41	77.4248	420.41	78.8611	420.41	76.7838	420.41	78.4512	420.41	76.1849	420.41	77.9925	420.41	75.7008	420.41	77.5026	420.41	75.3903	420.41	77.0018	420.41	75.2688	420.41	76.5248	420.41	75.301	420.41	76.1314	420.41	75.4271	420.41	75.8952	420.41	75.5969	420.41	75.856	420.41	75.7829	420.41	75.9775	420.41	75.9722	420.41	76.1653	420.41	76.1519	420.41	76.3265	420.41	76.3015	420.41	76.4073	420.41	76.3947
435.059	79.1065	435.059	78.8753	435.059	79.2119	435.059	78.5323	435.059	79.1876	435.059	78.0999	435.059	79.0404	435.059	77.6033	435.059	78.7865	435.059	77.0655	435.059	78.45	435.059	76.5063	435.059	78.0597	435.059	75.9508	435.059	77.6433	435.059	75.443	435.059	77.2232	435.059	75.0532	435.059	76.8181	435.059	74.8595	435.059	76.4481	435.059	74.9032	435.059	76.1426	435.059	75.1546	435.059	75.9436	435.059	75.5284	435.059	75.8917	435.059	75.9292	435.059	75.9954	435.059	76.2839	435.059	76.2089	435.059	76.5486	435.059	76.45	435.059	76.7006	435.059	76.6403	435.059	76.7306
451.172	79.5976	451.172	79.3611	451.172	79.6957	451.172	78.9951	451.172	79.6444	451.172	78.505	451.172	79.4359	451.172	77.8959	451.172	79.0755	451.172	77.1761	451.172	78.5891	451.172	76.3633	451.172	78.0238	451.172	75.4937	451.172	77.4359	451.172	74.6329	451.172	76.8719	451.172	73.8819	451.172	76.3543	451.172	73.3609	451.172	75.8868	451.172	73.1579	451.172	75.4745	451.172	73.2756	451.172	75.1424	451.172	73.6303	451.172	74.9301	451.172	74.1018	451.172	74.8671	451.172	74.5779	451.172	74.9439	451.172	74.9717	451.172	75.1029	451.172	75.2255	451.172	75.2554	451.172	75.3151
465.82	79.1037	465.82	78.9625	465.82	79.1041	465.82	78.6809	465.82	78.9688	465.82	78.2632	465.82	78.7105	465.82	77.7197	465.82	78.351	465.82	77.0696	465.82	77.9191	465.82	76.344	465.82	77.4475	465.82	75.5872	465.82	76.9708	465.82	74.8559	465.82	76.5228	465.82	74.2153	465.82	76.1318	465.82	73.7309	465.82	75.8197	465.82	73.4589	465.82	75.6054	465.82	73.4306	465.82	75.5004	465.82	73.6355	465.82	75.4937	465.82	74.0129	465.82	75.5461	465.82	74.4679	465.82	75.6077	465.82	74.9044	465.82	75.6379	465.82	75.2538	465.82	75.6067	465.82	75.4864
483.398	78.9258	483.398	78.693	483.398	79.0214	483.398	78.3311	483.398	78.9779	483.398	77.856	483.398	78.7974	483.398	77.2905	483.398	78.4873	483.398	76.6604	483.398	78.0635	483.398	75.989	483.398	77.5522	483.398	75.2958	483.398	76.9895	483.398	74.6025	483.398	76.419	483.398	73.9444	483.398	75.8886	483.398	73.3793	483.398	75.445	483.398	72.9814	483.398	75.1263	483.398	72.8147	483.398	74.9549	483.398	72.9001	483.398	74.9253	483.398	73.2005	483.398	74.9928	483.398	73.6349	483.398	75.0834	483.398	74.108	483.398	75.1225	483.398	74.5361	483.398	75.0572	483.398	74.8617
499.512	78.6871	499.512	78.5585	499.512	78.6822	499.512	78.3008	499.512	78.5436	499.512	77.9192	499.512	78.2792	499.512	77.4177	499.512	77.9063	499.512	76.8023	499.512	77.4477	499.512	76.0873	499.512	76.9252	499.512	75.3037	499.512	76.3548	499.512	74.501	499.512	75.7496	499.512	73.7396	499.512	75.1335	499.512	73.0776	499.512	74.5638	499.512	72.5696	499.512	74.1435	499.512	72.2771	499.512	73.9831	499.512	72.2614	499.512	74.1056	499.512	72.5393	499.512	74.401	499.512	73.0417	499.512	74.7015	499.512	73.6375	499.512	74.8746	499.512	74.1949	499.512	74.8522	499.512	74.6184
517.09	78.0828	517.09	78.0521	517.09	77.9766	517.09	77.8878	517.09	77.739	517.09	77.5996	517.09	77.3866	517.09	77.2012	517.09	76.9476	517.09	76.7074	517.09	76.4565	517.09	76.1305	517.09	75.9471	517.09	75.4815	517.09	75.4462	517.09	74.7749	517.09	74.9666	517.09	74.0391	517.09	74.5005	517.09	73.322	517.09	74.0277	517.09	72.6922	517.09	73.557	517.09	72.2351	517.09	73.1749	517.09	72.0398	517.09	73.0235	517.09	72.1562	517.09	73.1658	517.09	72.5404	517.09	73.4911	517.09	73.0549	517.09	73.8023	517.09	73.5359	517.09	73.9465	517.09	73.8559
536.133	76.6159	536.133	76.6643	536.133	76.3857	536.133	76.5547	536.133	75.9757	536.133	76.3286	536.133	75.4149	536.133	76.0294	536.133	74.7542	536.133	75.685	536.133	74.0558	536.133	75.2981	536.133	73.3822	536.133	74.8527	536.133	72.7861	536.133	74.3352	536.133	72.3049	536.133	73.7561	536.133	71.9593	536.133	73.1574	536.133	71.7459	536.133	72.5969	536.133	71.6328	536.133	72.1224	536.133	71.5766	536.133	71.76	536.133	71.5583	536.133	71.5255	536.133	71.5918	536.133	71.4364	536.133	71.684	536.133	71.4917	536.133	71.7924	536.133	71.6389	536.133	71.8415	536.133	71.7832
555.176	76.9415	555.176	77.3923	555.176	76.1919	555.176	77.5681	555.176	75.1307	555.176	77.5097	555.176	73.7531	555.176	77.2783	555.176	72.0651	555.176	76.9505	555.176	70.0925	555.176	76.5986	555.176	67.9057	555.176	76.2603	555.176	65.6855	555.176	75.9249	555.176	63.8076	555.176	75.5555	555.176	62.6833	555.176	75.1283	555.176	62.2979	555.176	74.6548	555.176	62.335	555.176	74.1715	555.176	62.684	555.176	73.7026	555.176	63.4198	555.176	73.2264	555.176	64.5421	555.176	72.6797	555.176	65.9164	555.176	71.9917	555.176	67.3717	555.176	71.1153	555.176	68.7733	555.176	70.0367
574.219	83.9912	574.219	83.9928	574.219	83.7725	574.219	83.796	574.219	83.3294	574.219	83.4269	574.219	82.6731	574.219	82.9201	574.219	81.8362	574.219	82.32	574.219	80.8639	574.219	81.6828	574.219	79.807	574.219	81.075	574.219	78.7282	574.219	80.5638	574.219	77.7025	574.219	80.1971	574.219	76.7859	574.219	79.9844	574.219	75.975	574.219	79.9013	574.219	75.218	574.219	79.9111	574.219	74.5247	574.219	79.9801	574.219	74.1424	574.219	80.0689	574.219	74.4908	574.219	80.1156	574.219	75.593	574.219	80.0343	574.219	76.9705	574.219	79.7332	574.219	78.2081	574.219	79.1375
594.727	85.0105	594.727	84.7552	594.727	85.0825	594.727	84.3494	594.727	84.9566	594.727	83.8287	594.727	84.6337	594.727	83.2107	594.727	84.1171	594.727	82.4903	594.727	83.412	594.727	81.6585	594.727	82.5486	594.727	80.7403	594.727	81.604	594.727	79.8258	594.727	80.7053	594.727	79.0679	594.727	80.0087	594.727	78.6269	594.727	79.5983	594.727	78.5816	594.727	79.3414	594.727	78.8791	594.727	78.9763	594.727	79.3755	594.727	78.418	594.727	79.916	594.727	77.9846	594.727	80.3764	594.727	78.1801	594.727	80.6623	594.727	78.9654	594.727	80.7002	594.727	79.8277	594.727	80.4316
615.234	83.3893	615.234	83.0857	615.234	83.4907	615.234	82.5784	615.234	83.3998	615.234	81.8838	615.234	83.1273	615.234	81.0415	615.234	82.6855	615.234	80.1152	615.234	82.0945	615.234	79.1883	615.234	81.3824	615.234	78.3497	615.234	80.5806	615.234	77.6681	615.234	79.7303	615.234	77.1651	615.234	78.908	615.234	76.814	615.234	78.2408	615.234	76.5797	615.234	77.847	615.234	76.4719	615.234	77.7179	615.234	76.5498	615.234	77.7203	615.234	76.8495	615.234	77.7507	615.234	77.3064	615.234	77.8218	615.234	77.7754	615.234	77.9759	615.234	78.1131	615.234	78.159	615.234	78.2382
637.207	82.3526	637.207	81.9892	637.207	82.5278	637.207	81.4285	637.207	82.5304	637.207	80.6837	637.207	82.3692	637.207	79.8028	637.207	82.0438	637.207	78.8654	637.207	81.5579	637.207	77.9525	637.207	80.9344	637.207	77.1005	637.207	80.2058	637.207	76.2925	637.207	79.3809	637.207	75.5152	637.207	78.445	637.207	74.8486	637.207	77.4423	637.207	74.4886	637.207	76.5608	637.207	74.6056	637.207	76.0298	637.207	75.1649	637.207	75.8992	637.207	75.9669	637.207	76.0858	637.207	76.7958	637.207	76.5319	637.207	77.4803	637.207	77.1325	637.207	77.8945	637.207	77.6759	637.207	77.9617
659.18	81.4823	659.18	81.1413	659.18	81.6793	659.18	80.6647	659.18	81.7025	659.18	80.0408	659.18	81.5241	659.18	79.2644	659.18	81.1441	659.18	78.3667	659.18	80.601	659.18	77.4199	659.18	79.9639	659.18	76.5017	659.18	79.3118	659.18	75.6514	659.18	78.7082	659.18	74.873	659.18	78.1692	659.18	74.1914	659.18	77.6439	659.18	73.7039	659.18	77.0539	659.18	73.564	659.18	76.4035	659.18	73.8752	659.18	75.8657	659.18	74.5791	659.18	75.6929	659.18	75.4599	659.18	75.9423	659.18	76.2576	659.18	76.3975	659.18	76.7814	659.18	76.7931	659.18	76.9528
682.617	81.4537	682.617	80.9736	682.617	81.6852	682.617	80.2741	682.617	81.6743	682.617	79.4028	682.617	81.464	682.617	78.4086	682.617	81.1101	682.617	77.3427	682.617	80.6407	682.617	76.2906	682.617	80.0409	682.617	75.3952	682.617	79.2991	682.617	74.7907	682.617	78.4898	682.617	74.4668	682.617	77.7828	682.617	74.2576	682.617	77.276	682.617	74.0045	682.617	76.8632	682.617	73.7307	682.617	76.415	682.617	73.6899	682.617	76.0296	682.617	74.1447	682.617	75.9716	682.617	75.0121	682.617	76.2911	682.617	75.9425	682.617	76.7282	682.617	76.6502	682.617	77.0166	682.617	77.0115
707.52	80.9907	707.52	80.4749	707.52	81.2738	707.52	79.7376	707.52	81.3409	707.52	78.8333	707.52	81.2165	707.52	77.8586	707.52	80.9204	707.52	76.9253	707.52	80.4713	707.52	76.1255	707.52	79.8956	707.52	75.4979	707.52	79.2178	707.52	74.9988	707.52	78.441	707.52	74.532	707.52	77.5675	707.52	74.0329	707.52	76.6651	707.52	73.51	707.52	75.8771	707.52	73.0443	707.52	75.3066	707.52	72.8169	707.52	74.9828	707.52	73.0768	707.52	75.0157	707.52	73.889	707.52	75.4849	707.52	74.9704	707.52	76.1303	707.52	75.9268	707.52	76.5437	707.52	76.4886
732.422	80.8669	732.422	80.5074	732.422	80.9553	732.422	79.8254	732.422	80.8418	732.422	78.8336	732.422	80.585	732.422	77.6549	732.422	80.2244	732.422	76.5199	732.422	79.7814	732.422	75.6481	732.422	79.2635	732.422	75.0768	732.422	78.6776	732.422	74.6646	732.422	78.0363	732.422	74.2586	732.422	77.3694	732.422	73.7837	732.422	76.7848	732.422	73.2286	732.422	76.4475	732.422	72.6655	732.422	76.3152	732.422	72.3157	732.422	76.1012	732.422	72.5132	732.422	75.6782	732.422	73.359	732.422	75.3322	732.422	74.477	732.422	75.4171	732.422	75.3841	732.422	75.7386	732.422	75.8126
757.324	80.6228	757.324	79.8609	757.324	81.0413	757.324	78.8765	757.324	81.0607	757.324	77.8079	757.324	80.7261	757.324	76.773	757.324	80.1638	757.324	75.8389	757.324	79.5086	757.324	75.0217	757.324	78.8572	757.324	74.3282	757.324	78.2846	757.324	73.7807	757.324	77.8378	757.324	73.4127	757.324	77.4794	757.324	73.2431	757.324	77.0817	757.324	73.1868	757.324	76.5352	757.324	73.0441	757.324	75.9225	757.324	72.6901	757.324	75.5598	757.324	72.3224	757.324	75.6502	757.324	72.4708	757.324	75.967	757.324	73.361	757.324	76.1557	757.324	74.5288	757.324	76.0191	757.324	75.477
785.156	80.2434	785.156	79.6323	785.156	80.6234	785.156	78.8689	785.156	80.7384	785.156	78.0839	785.156	80.5592	785.156	77.4115	785.156	80.0341	785.156	76.9063	785.156	79.1467	785.156	76.5157	785.156	78.0318	785.156	76.1209	785.156	76.9602	785.156	75.5725	785.156	76.1275	785.156	74.7413	785.156	75.536	785.156	73.6282	785.156	75.1078	785.156	72.4965	785.156	74.7181	785.156	71.9172	785.156	74.1845	785.156	72.2576	785.156	73.4725	785.156	73.0839	785.156	72.9599	785.156	73.8259	785.156	73.1319	785.156	74.3046	785.156	73.771	785.156	74.5503	785.156	74.3267	785.156	74.577
811.523	80.2855	811.523	79.8104	811.523	80.5811	811.523	79.2149	811.523	80.6746	811.523	78.6131	811.523	80.5413	811.523	78.1244	811.523	80.1391	811.523	77.7667	811.523	79.4454	811.523	77.4119	811.523	78.5129	811.523	76.8856	811.523	77.4592	811.523	76.1014	811.523	76.395	811.523	75.1002	811.523	75.3851	811.523	74.005	811.523	74.4952	811.523	72.9646	811.523	73.8713	811.523	72.1426	811.523	73.5806	811.523	71.8046	811.523	73.4038	811.523	72.2609	811.523	73.1893	811.523	73.3924	811.523	73.2926	811.523	74.6294	811.523	74.091	811.523	75.4708	811.523	75.105	811.523	75.6496
840.82	80.8177	840.82	80.4684	840.82	81.001	840.82	80.03	840.82	80.9947	840.82	79.6155	840.82	80.7698	840.82	79.2467	840.82	80.282	840.82	78.7915	840.82	79.539	840.82	78.1067	840.82	78.6369	840.82	77.2007	840.82	77.6609	840.82	76.2181	840.82	76.585	840.82	75.3235	840.82	75.4058	840.82	74.6043	840.82	74.3047	840.82	73.9979	840.82	73.3836	840.82	73.3801	840.82	72.4905	840.82	72.8091	840.82	71.8372	840.82	72.6679	840.82	72.1423	840.82	73.2514	840.82	73.2089	840.82	74.1979	840.82	74.2167	840.82	74.9264	840.82	74.8834	840.82	75.1536
870.117	80.7144	870.117	80.4409	870.117	80.7192	870.117	79.9305	870.117	80.5209	870.117	79.2944	870.117	80.2292	870.117	78.6355	870.117	79.9089	870.117	77.9698	870.117	79.5181	870.117	77.2779	870.117	78.9116	870.117	76.6329	870.117	77.9154	870.117	76.1409	870.117	76.4842	870.117	75.7277	870.117	74.9195	870.117	75.1592	870.117	73.88	870.117	74.2556	870.117	73.6515	870.117	73.0983	870.117	73.6778	870.117	72.1665	870.117	73.3651	870.117	72.1369	870.117	72.7456	870.117	73.1657	870.117	72.778	870.117	74.6321	870.117	74.0795	870.117	75.7859	870.117	75.5199	870.117	76.1481
900.879	81.4581	900.879	81.1554	900.879	81.4662	900.879	80.6063	900.879	81.2186	900.879	79.9213	900.879	80.7741	900.879	79.1655	900.879	80.1497	900.879	78.2843	900.879	79.351	900.879	77.1564	900.879	78.4489	900.879	75.7846	900.879	77.55	900.879	74.4787	900.879	76.6362	900.879	73.6945	900.879	75.5399	900.879	73.5339	900.879	74.299	900.879	73.639	900.879	73.5188	900.879	73.5944	900.879	73.5425	900.879	73.2222	900.879	73.7113	900.879	72.7442	900.879	73.6872	900.879	72.8357	900.879	73.8657	900.879	73.8056	900.879	74.5059	900.879	74.9337	900.879	75.2328	900.879	75.4736
933.105	81.4574	933.105	81.2373	933.105	81.3875	933.105	80.7715	933.105	81.0578	933.105	80.101	933.105	80.5862	933.105	79.2311	933.105	80.0567	933.105	78.1541	933.105	79.4336	933.105	76.8889	933.105	78.676	933.105	75.5705	933.105	77.8445	933.105	74.5045	933.105	76.9893	933.105	73.9184	933.105	76.0751	933.105	73.6906	933.105	75.1637	933.105	73.5737	933.105	74.5712	933.105	73.4558	933.105	74.5328	933.105	73.3097	933.105	74.7114	933.105	73.191	933.105	74.5888	933.105	73.44	933.105	74.2331	933.105	74.3749	933.105	74.4659	933.105	75.4779	933.105	75.3787	933.105	75.9056
965.332	81.7676	965.332	81.6252	965.332	81.7075	965.332	81.2482	965.332	81.5077	965.332	80.653	965.332	81.1978	965.332	79.8489	965.332	80.7593	965.332	78.7749	965.332	80.1629	965.332	77.366	965.332	79.4026	965.332	75.7817	965.332	78.5124	965.332	74.4741	965.332	77.4683	965.332	73.717	965.332	76.0798	965.332	73.2123	965.332	74.3597	965.332	72.6394	965.332	73.1629	965.332	72.3569	965.332	73.0854	965.332	72.8198	965.332	73.2774	965.332	73.5525	965.332	73.3563	965.332	74.0359	965.332	73.7103	965.332	74.3143	965.332	74.188	965.332	74.5433	965.332	74.4833	965.332	74.6205
1,000.49	82.515	1,000.49	82.1811	1,000.49	82.5765	1,000.49	81.4745	1,000.49	82.498	1,000.49	80.4239	1,000.49	82.3515	1,000.49	79.2473	1,000.49	82.1273	1,000.49	78.2097	1,000.49	81.7852	1,000.49	77.2053	1,000.49	81.3141	1,000.49	75.9148	1,000.49	80.7177	1,000.49	74.5394	1,000.49	79.9008	1,000.49	73.7451	1,000.49	78.6696	1,000.49	73.5171	1,000.49	77.0531	1,000.49	73.0237	1,000.49	75.7876	1,000.49	71.9727	1,000.49	75.7206	1,000.49	71.4219	1,000.49	76.0887	1,000.49	72.4779	1,000.49	75.8598	1,000.49	74.1465	1,000.49	75.2959	1,000.49	75.4171	1,000.49	75.3646	1,000.49	76.1127	1,000.49	75.9336	1,000.49	76.2711
1,035.64	82.0356	1,035.64	81.1144	1,035.64	82.6429	1,035.64	79.7254	1,035.64	83.0353	1,035.64	77.6861	1,035.64	83.2561	1,035.64	75.1209	1,035.64	83.3514	1,035.64	73.2607	1,035.64	83.3948	1,035.64	72.766	1,035.64	83.3035	1,035.64	71.8081	1,035.64	82.8915	1,035.64	69.7424	1,035.64	82.2303	1,035.64	68.304	1,035.64	81.4814	1,035.64	67.9074	1,035.64	80.4354	1,035.64	67.9725	1,035.64	78.8817	1,035.64	68.2516	1,035.64	77.709	1,035.64	68.2871	1,035.64	77.7771	1,035.64	69.9827	1,035.64	77.5049	1,035.64	72.8782	1,035.64	76.294	1,035.64	75.1982	1,035.64	75.8047	1,035.64	76.5161	1,035.64	76.4628	1,035.64	76.8813
1,072.27	76.3966	1,072.27	73.5567	1,072.27	78.181	1,072.27	70.4232	1,072.27	79.1473	1,072.27	69.1364	1,072.27	79.8558	1,072.27	70.0343	1,072.27	80.5998	1,072.27	71.523	1,072.27	81.2155	1,072.27	72.6819	1,072.27	81.5542	1,072.27	72.9211	1,072.27	81.5913	1,072.27	72.447	1,072.27	81.0938	1,072.27	71.9372	1,072.27	79.9273	1,072.27	71.0707	1,072.27	78.4969	1,072.27	69.6894	1,072.27	77.5695	1,072.27	68.6926	1,072.27	77.3275	1,072.27	68.1646	1,072.27	76.9716	1,072.27	66.5644	1,072.27	75.979	1,072.27	63.6945	1,072.27	74.9487	1,072.27	64.9114	1,072.27	74.5269	1,072.27	69.0707	1,072.27	73.9509	1,072.27	72.2423
1,108.89	75.8083	1,108.89	75.723	1,108.89	76.015	1,108.89	75.9832	1,108.89	76.1221	1,108.89	76.419	1,108.89	75.9911	1,108.89	76.6982	1,108.89	75.7951	1,108.89	76.6412	1,108.89	76.151	1,108.89	76.3641	1,108.89	77.0392	1,108.89	76.0404	1,108.89	77.65	1,108.89	75.6074	1,108.89	77.4862	1,108.89	74.9735	1,108.89	76.6869	1,108.89	74.0875	1,108.89	75.5819	1,108.89	72.9644	1,108.89	74.7042	1,108.89	71.796	1,108.89	74.4556	1,108.89	70.7846	1,108.89	74.1432	1,108.89	69.7868	1,108.89	73.1367	1,108.89	67.9938	1,108.89	72.1067	1,108.89	64.0592	1,108.89	71.6027	1,108.89	61.5717	1,108.89	70.4554	1,108.89	67.27
1,148.44	78.9986	1,148.44	79.5568	1,148.44	78.0625	1,148.44	79.7913	1,148.44	76.8907	1,148.44	79.7037	1,148.44	75.7829	1,148.44	79.1645	1,148.44	74.8324	1,148.44	78.1969	1,148.44	73.9333	1,148.44	77.1875	1,148.44	73.2419	1,148.44	76.4756	1,148.44	73.0105	1,148.44	75.8595	1,148.44	73.0941	1,148.44	75.0017	1,148.44	73.0222	1,148.44	74.0136	1,148.44	72.5825	1,148.44	73.4317	1,148.44	72.2358	1,148.44	73.3688	1,148.44	72.6353	1,148.44	73.0666	1,148.44	72.7659	1,148.44	72.0732	1,148.44	71.6099	1,148.44	70.7602	1,148.44	70.386	1,148.44	69.3606	1,148.44	69.8854	1,148.44	67.9214	1,148.44	68.7891	1,148.44	67.5544
1,189.45	80.927	1,189.45	80.8827	1,189.45	80.3872	1,189.45	80.4513	1,189.45	79.3134	1,189.45	79.7313	1,189.45	78.0519	1,189.45	78.718	1,189.45	76.6513	1,189.45	77.6951	1,189.45	75.0635	1,189.45	77.2114	1,189.45	74.2361	1,189.45	77.0992	1,189.45	74.6803	1,189.45	76.5034	1,189.45	74.9574	1,189.45	75.2261	1,189.45	74.1014	1,189.45	74.087	1,189.45	72.7577	1,189.45	73.8021	1,189.45	71.9566	1,189.45	73.5432	1,189.45	71.4438	1,189.45	72.0153	1,189.45	70.7472	1,189.45	69.1455	1,189.45	70.1	1,189.45	67.1944	1,189.45	69.1766	1,189.45	68.3091	1,189.45	68.9034	1,189.45	70.0107	1,189.45	70.102	1,189.45	70.6989
1,230.47	81.5388	1,230.47	82.3965	1,230.47	80.3362	1,230.47	82.5434	1,230.47	79.1309	1,230.47	81.755	1,230.47	77.7031	1,230.47	80.1942	1,230.47	75.5554	1,230.47	78.7616	1,230.47	72.9644	1,230.47	78.1608	1,230.47	71.4237	1,230.47	77.7141	1,230.47	71.7724	1,230.47	76.6187	1,230.47	72.1343	1,230.47	75.2989	1,230.47	71.2463	1,230.47	74.9096	1,230.47	69.8978	1,230.47	75.5078	1,230.47	69.7647	1,230.47	75.9042	1,230.47	69.3378	1,230.47	75.2737	1,230.47	69.0672	1,230.47	73.8462	1,230.47	69.3982	1,230.47	72.766	1,230.47	68.0427	1,230.47	72.675	1,230.47	65.3013	1,230.47	72.3133	1,230.47	67.2558	1,230.47	70.5416
1,274.41	82.6881	1,274.41	83.1989	1,274.41	81.9013	1,274.41	83.1516	1,274.41	81.159	1,274.41	82.2254	1,274.41	80.5352	1,274.41	80.408	1,274.41	79.6732	1,274.41	78.5948	1,274.41	78.4764	1,274.41	77.8811	1,274.41	77.1388	1,274.41	77.3248	1,274.41	75.2938	1,274.41	75.4649	1,274.41	73.746	1,274.41	73.0442	1,274.41	73.7106	1,274.41	72.3889	1,274.41	73.1723	1,274.41	73.3914	1,274.41	71.9616	1,274.41	74.1012	1,274.41	72.3178	1,274.41	73.6993	1,274.41	72.7998	1,274.41	72.334	1,274.41	72.2172	1,274.41	70.7871	1,274.41	72.0244	1,274.41	71.7119	1,274.41	71.1106	1,274.41	72.6712	1,274.41	69.7551	1,274.41	71.372
1,319.82	81.6729	1,319.82	81.7515	1,319.82	81.0499	1,319.82	81.4757	1,319.82	80.3071	1,319.82	80.9208	1,319.82	80.2079	1,319.82	79.8869	1,319.82	80.3839	1,319.82	78.6656	1,319.82	79.8992	1,319.82	77.6944	1,319.82	77.955	1,319.82	76.8295	1,319.82	74.7464	1,319.82	74.2675	1,319.82	73.1557	1,319.82	70.0804	1,319.82	73.3809	1,319.82	67.8764	1,319.82	72.8963	1,319.82	71.1197	1,319.82	72.7026	1,319.82	74.4616	1,319.82	72.7957	1,319.82	75.6162	1,319.82	72.236	1,319.82	74.157	1,319.82	72.2933	1,319.82	69.9735	1,319.82	72.6641	1,319.82	68.0146	1,319.82	72.0858	1,319.82	69.3907	1,319.82	71.6645	1,319.82	70.7979
1,366.7	80.2899	1,366.7	80.6448	1,366.7	79.8654	1,366.7	80.4025	1,366.7	79.6792	1,366.7	79.6689	1,366.7	79.2794	1,366.7	79.0207	1,366.7	78.5955	1,366.7	78.2468	1,366.7	77.9931	1,366.7	76.4018	1,366.7	77.3209	1,366.7	74.665	1,366.7	76.4184	1,366.7	73.9969	1,366.7	75.6161	1,366.7	73.5539	1,366.7	76.0505	1,366.7	72.5148	1,366.7	76.2931	1,366.7	70.5042	1,366.7	75.0858	1,366.7	71.0932	1,366.7	72.4237	1,366.7	72.6096	1,366.7	71.8487	1,366.7	71.2781	1,366.7	74.5291	1,366.7	68.1514	1,366.7	74.0448	1,366.7	66.5734	1,366.7	69.303	1,366.7	70.5274	1,366.7	69.3426	1,366.7	71.7828
1,413.57	79.3113	1,413.57	79.8632	1,413.57	78.2534	1,413.57	80.2872	1,413.57	77.1329	1,413.57	80.8084	1,413.57	76.8774	1,413.57	81.2295	1,413.57	77.1542	1,413.57	81.0004	1,413.57	77.5012	1,413.57	79.0548	1,413.57	77.5872	1,413.57	75.112	1,413.57	76.2302	1,413.57	73.4747	1,413.57	74.6315	1,413.57	74.4062	1,413.57	74.7321	1,413.57	73.8578	1,413.57	74.5462	1,413.57	69.9339	1,413.57	74.1416	1,413.57	65.098	1,413.57	75.5317	1,413.57	69.408	1,413.57	74.9771	1,413.57	74.6365	1,413.57	69.3049	1,413.57	75.2759	1,413.57	69.7516	1,413.57	71.3638	1,413.57	68.889	1,413.57	69.293	1,413.57	64.521	1,413.57	67.2019
1,463.38	79.4256	1,463.38	80.8813	1,463.38	78.1711	1,463.38	82.2429	1,463.38	76.2838	1,463.38	82.8708	1,463.38	73.4042	1,463.38	82.7145	1,463.38	72.3696	1,463.38	82.2467	1,463.38	74.2749	1,463.38	80.8707	1,463.38	75.0393	1,463.38	77.9646	1,463.38	74.1073	1,463.38	76.5612	1,463.38	74.3356	1,463.38	78.1084	1,463.38	75.3427	1,463.38	77.9285	1,463.38	75.6172	1,463.38	76.0115	1,463.38	74.2947	1,463.38	73.1857	1,463.38	71.2228	1,463.38	70.423	1,463.38	69.4945	1,463.38	73.7798	1,463.38	68.4335	1,463.38	75.3379	1,463.38	68.5136	1,463.38	71.675	1,463.38	66.8211	1,463.38	65.2892	1,463.38	60.8182	1,463.38	62.8155
1,516.11	84.4485	1,516.11	85.4594	1,516.11	82.7563	1,516.11	85.8715	1,516.11	80.9009	1,516.11	85.8304	1,516.11	79.2812	1,516.11	85.3059	1,516.11	77.0486	1,516.11	84.2744	1,516.11	73.403	1,516.11	82.746	1,516.11	67.3185	1,516.11	80.4815	1,516.11	56.0851	1,516.11	77.8436	1,516.11	58.5266	1,516.11	75.4068	1,516.11	59.6983	1,516.11	74.0689	1,516.11	59.7557	1,516.11	74.2705	1,516.11	64.3558	1,516.11	74.1235	1,516.11	63.0473	1,516.11	74.4881	1,516.11	62.2922	1,516.11	76.1606	1,516.11	64.457	1,516.11	77.3663	1,516.11	63.516	1,516.11	75.9172	1,516.11	61.1243	1,516.11	71.2532	1,516.11	62.3058	1,516.11	65.0347
1,568.85	85.1462	1,568.85	85.1718	1,568.85	84.6331	1,568.85	85.1148	1,568.85	83.7674	1,568.85	84.6534	1,568.85	83.0962	1,568.85	83.6169	1,568.85	81.4612	1,568.85	82.2335	1,568.85	79.2963	1,568.85	80.5118	1,568.85	76.8926	1,568.85	78.2814	1,568.85	70.7681	1,568.85	77.4469	1,568.85	62.0864	1,568.85	78.7025	1,568.85	61.5607	1,568.85	78.6489	1,568.85	62.8932	1,568.85	76.7528	1,568.85	67.1088	1,568.85	74.828	1,568.85	69.3754	1,568.85	73.7375	1,568.85	69.5925	1,568.85	72.0789	1,568.85	65.1764	1,568.85	70.6266	1,568.85	68.9022	1,568.85	72.1538	1,568.85	70.706	1,568.85	73.3397	1,568.85	66.3531	1,568.85	70.2023
1,624.51	84.079	1,624.51	84.3908	1,624.51	83.7702	1,624.51	84.5093	1,624.51	83.0792	1,624.51	83.2813	1,624.51	82.3744	1,624.51	80.9383	1,624.51	81.0946	1,624.51	79.2732	1,624.51	78.7644	1,624.51	76.8126	1,624.51	75.577	1,624.51	74.1572	1,624.51	72.2541	1,624.51	74.0494	1,624.51	72.0854	1,624.51	74.2703	1,624.51	71.9321	1,624.51	72.6755	1,624.51	71.4665	1,624.51	70.9723	1,624.51	71.8097	1,624.51	70.5804	1,624.51	64.8631	1,624.51	70.6546	1,624.51	67.0237	1,624.51	73.7428	1,624.51	71.8448	1,624.51	73.5975	1,624.51	70.0373	1,624.51	69.6772	1,624.51	67.7047	1,624.51	68.0971	1,624.51	71.4305	1,624.51	70.1936
1,681.64	82.6057	1,681.64	83.275	1,681.64	82.6659	1,681.64	83.5635	1,681.64	82.8775	1,681.64	82.6119	1,681.64	82.1284	1,681.64	80.5138	1,681.64	81.4998	1,681.64	78.5886	1,681.64	79.8559	1,681.64	78.1611	1,681.64	76.19	1,681.64	76.9845	1,681.64	73.1921	1,681.64	73.1059	1,681.64	72.2973	1,681.64	71.7341	1,681.64	70.2717	1,681.64	72.7783	1,681.64	71.1774	1,681.64	75.6274	1,681.64	69.6756	1,681.64	74.6815	1,681.64	68.0212	1,681.64	67.6815	1,681.64	69.8569	1,681.64	65.0903	1,681.64	68.9189	1,681.64	68.6852	1,681.64	66.3457	1,681.64	67.0291	1,681.64	71.032	1,681.64	68.4483	1,681.64	70.8318	1,681.64	67.3623
1,741.7	83.6951	1,741.7	83.2447	1,741.7	83.1119	1,741.7	83.0372	1,741.7	82.2626	1,741.7	82.4787	1,741.7	82.7782	1,741.7	80.053	1,741.7	81.9064	1,741.7	76.6678	1,741.7	77.9125	1,741.7	77.2226	1,741.7	74.317	1,741.7	78.4413	1,741.7	77.2958	1,741.7	77.2074	1,741.7	76.398	1,741.7	73.3985	1,741.7	70.9407	1,741.7	68.6451	1,741.7	67.0182	1,741.7	67.1366	1,741.7	64.3374	1,741.7	72.9759	1,741.7	69.2507	1,741.7	73.5049	1,741.7	66.8308	1,741.7	73.4232	1,741.7	64.1906	1,741.7	71.4317	1,741.7	66.6558	1,741.7	64.9944	1,741.7	67.6792	1,741.7	62.3155	1,741.7	71.0233	1,741.7	69.2361
1,803.22	85.0029	1,803.22	83.9237	1,803.22	84.1352	1,803.22	82.3911	1,803.22	83.159	1,803.22	82.5861	1,803.22	83.0455	1,803.22	81.4566	1,803.22	79.9741	1,803.22	75.1227	1,803.22	76.0346	1,803.22	69.8431	1,803.22	76.3492	1,803.22	77.8831	1,803.22	78.8149	1,803.22	78.7206	1,803.22	78.1045	1,803.22	74.6795	1,803.22	72.9608	1,803.22	71.7769	1,803.22	73.7106	1,803.22	63.6119	1,803.22	70.7405	1,803.22	70.1528	1,803.22	66.8123	1,803.22	72.413	1,803.22	70.5229	1,803.22	70.2355	1,803.22	69.9603	1,803.22	70.9779	1,803.22	65.4215	1,803.22	71.4075	1,803.22	71.0318	1,803.22	67.0726	1,803.22	70.8359	1,803.22	63.3334
1,866.21	84.6991	1,866.21	83.0295	1,866.21	84.9077	1,866.21	81.3542	1,866.21	84.514	1,866.21	80.2053	1,866.21	82.8222	1,866.21	78.5144	1,866.21	78.9083	1,866.21	74.22	1,866.21	79.6662	1,866.21	66.7894	1,866.21	77.7881	1,866.21	72.5206	1,866.21	78.514	1,866.21	73.9228	1,866.21	77.9424	1,866.21	69.0903	1,866.21	72.3806	1,866.21	70.2768	1,866.21	74.4373	1,866.21	58.9783	1,866.21	74.6353	1,866.21	70.001	1,866.21	73.1726	1,866.21	51.4172	1,866.21	70.1542	1,866.21	67.3228	1,866.21	72.465	1,866.21	68.1103	1,866.21	71.7484	1,866.21	67.0736	1,866.21	68.4002	1,866.21	58.4412	1,866.21	71.6427	1,866.21	68.2121
1,932.13	82.5922	1,932.13	82.527	1,932.13	84.0699	1,932.13	82.414	1,932.13	84.256	1,932.13	78.3556	1,932.13	82.924	1,932.13	72.1185	1,932.13	81.7601	1,932.13	75.0523	1,932.13	80.0267	1,932.13	75.8361	1,932.13	76.7268	1,932.13	68.7639	1,932.13	74.3151	1,932.13	65.2198	1,932.13	73.6754	1,932.13	52.1857	1,932.13	74.0047	1,932.13	59.774	1,932.13	72.7721	1,932.13	67.8862	1,932.13	71.9627	1,932.13	68.9483	1,932.13	70.3886	1,932.13	62.7685	1,932.13	71.7124	1,932.13	67.2641	1,932.13	69.4818	1,932.13	63.2104	1,932.13	73.9069	1,932.13	58.3252	1,932.13	71.0743	1,932.13	62.2741	1,932.13	66.8317	1,932.13	68.4255
1,999.51	82.2504	1,999.51	82.2029	1,999.51	82.9691	1,999.51	82.875	1,999.51	83.9931	1,999.51	80.2575	1,999.51	83.1306	1,999.51	73.2138	1,999.51	78.3791	1,999.51	71.6757	1,999.51	78.0314	1,999.51	75.1306	1,999.51	75.4782	1,999.51	75.1467	1,999.51	74.2258	1,999.51	71.4487	1,999.51	76.2206	1,999.51	63.3286	1,999.51	76.768	1,999.51	67.9206	1,999.51	73.1619	1,999.51	59.5917	1,999.51	72.1893	1,999.51	70.3235	1,999.51	57.5873	1,999.51	66.7599	1,999.51	70.5028	1,999.51	71.8181	1,999.51	67.7923	1,999.51	71.4528	1,999.51	75.0414	1,999.51	68.5338	1,999.51	72.1851	1,999.51	64.5843	1,999.51	63.5076	1,999.51	65.4076
2,069.82	79.3861	2,069.82	79.1278	2,069.82	80.5732	2,069.82	75.4738	2,069.82	82.8102	2,069.82	73.7454	2,069.82	80.8766	2,069.82	76.9329	2,069.82	80.04	2,069.82	75.9464	2,069.82	79.4493	2,069.82	76.5723	2,069.82	76.173	2,069.82	78.6059	2,069.82	78.128	2,069.82	73.6408	2,069.82	77.6352	2,069.82	62.5334	2,069.82	75.9989	2,069.82	64.1956	2,069.82	71.9535	2,069.82	68.9497	2,069.82	74.7274	2,069.82	67.9831	2,069.82	73.8148	2,069.82	64.0114	2,069.82	72.5611	2,069.82	69.2968	2,069.82	63.8587	2,069.82	69.8072	2,069.82	73.0295	2,069.82	63.3805	2,069.82	73.6094	2,069.82	59.3371	2,069.82	71.1197	2,069.82	61.7455
2,143.07	81.9505	2,143.07	80.918	2,143.07	81.8572	2,143.07	79.468	2,143.07	80.4116	2,143.07	79.1593	2,143.07	77.9695	2,143.07	79.429	2,143.07	77.1658	2,143.07	76.7056	2,143.07	77.6758	2,143.07	72.4885	2,143.07	75.8893	2,143.07	76.3994	2,143.07	78.2965	2,143.07	75.6082	2,143.07	74.4551	2,143.07	71.6802	2,143.07	72.9683	2,143.07	70.2404	2,143.07	69.4114	2,143.07	70.9399	2,143.07	72.6871	2,143.07	65.6161	2,143.07	71.0635	2,143.07	60.5238	2,143.07	73.3257	2,143.07	67.6143	2,143.07	68.2597	2,143.07	70.081	2,143.07	71.6243	2,143.07	67.9628	2,143.07	69.9186	2,143.07	57.1705	2,143.07	70.9505	2,143.07	61.3608
2,219.24	81.9602	2,219.24	79.9815	2,219.24	80.6147	2,219.24	78.4205	2,219.24	77.7262	2,219.24	79.2148	2,219.24	78.1542	2,219.24	76.9188	2,219.24	78.2032	2,219.24	74.1924	2,219.24	73.1854	2,219.24	73.3979	2,219.24	76.8581	2,219.24	69.6248	2,219.24	77.9156	2,219.24	67.5741	2,219.24	77.3965	2,219.24	61.7079	2,219.24	73.8952	2,219.24	67.0752	2,219.24	69.5977	2,219.24	63.6307	2,219.24	75.5842	2,219.24	63.213	2,219.24	74.887	2,219.24	59.731	2,219.24	74.2051	2,219.24	60.3375	2,219.24	67.4798	2,219.24	66.4178	2,219.24	71.1437	2,219.24	63.7904	2,219.24	73.5526	2,219.24	64.5253	2,219.24	65.6506	2,219.24	56.1439
2,296.88	80.7376	2,296.88	80.7105	2,296.88	80.6344	2,296.88	80.2966	2,296.88	78.7628	2,296.88	76.9429	2,296.88	74.9942	2,296.88	75.3283	2,296.88	68.2847	2,296.88	78.0292	2,296.88	73.1703	2,296.88	77.2408	2,296.88	75.7206	2,296.88	68.4296	2,296.88	77.6415	2,296.88	66.0578	2,296.88	75.4082	2,296.88	70.4236	2,296.88	73.64	2,296.88	70.0938	2,296.88	69.8841	2,296.88	66.099	2,296.88	70.6869	2,296.88	68.2748	2,296.88	67.5453	2,296.88	71.8727	2,296.88	63.136	2,296.88	69.9748	2,296.88	64.3111	2,296.88	64.2932	2,296.88	60.6429	2,296.88	65.6063	2,296.88	68.8381	2,296.88	65.2012	2,296.88	67.3241	2,296.88	60.2377
2,378.91	79.9757	2,378.91	79.6839	2,378.91	79.8559	2,378.91	79.4659	2,378.91	78.6697	2,378.91	77.9562	2,378.91	76.7492	2,378.91	75.0123	2,378.91	75.5366	2,378.91	74.7548	2,378.91	75.9979	2,378.91	73.75	2,378.91	74.8901	2,378.91	63.0481	2,378.91	72.6688	2,378.91	59.5277	2,378.91	69.4479	2,378.91	59.3396	2,378.91	72.0797	2,378.91	65.2564	2,378.91	72.904	2,378.91	69.3154	2,378.91	69.4768	2,378.91	62.8713	2,378.91	69.2874	2,378.91	65.5729	2,378.91	59.481	2,378.91	69.2862	2,378.91	61.3577	2,378.91	68.9323	2,378.91	60.2621	2,378.91	62.0872	2,378.91	60.9274	2,378.91	58.0842	2,378.91	66.4102	2,378.91	61.8541
2,462.4	81.1283	2,462.4	79.6768	2,462.4	79.9953	2,462.4	76.8643	2,462.4	77.1282	2,462.4	75.979	2,462.4	74.5256	2,462.4	76.5343	2,462.4	74.3525	2,462.4	76.5339	2,462.4	75.4019	2,462.4	74.1745	2,462.4	75.093	2,462.4	71.4329	2,462.4	72.7764	2,462.4	71.3698	2,462.4	71.5073	2,462.4	70.4038	2,462.4	72.1578	2,462.4	68.5013	2,462.4	68.7954	2,462.4	67.3316	2,462.4	68.8755	2,462.4	65.1085	2,462.4	68.436	2,462.4	65.2109	2,462.4	64.4029	2,462.4	65.4367	2,462.4	65.6635	2,462.4	63.4354	2,462.4	60.9967	2,462.4	61.4427	2,462.4	63.3634	2,462.4	62.0906	2,462.4	65.9672	2,462.4	62.7129
2,548.83	82.1612	2,548.83	80.7044	2,548.83	80.8716	2,548.83	78.1746	2,548.83	77.2283	2,548.83	77.0784	2,548.83	72.6335	2,548.83	76.9429	2,548.83	74.3164	2,548.83	74.7732	2,548.83	76.5019	2,548.83	72.1045	2,548.83	75.2047	2,548.83	71.339	2,548.83	72.5944	2,548.83	69.7301	2,548.83	74.1564	2,548.83	66.5517	2,548.83	73.7477	2,548.83	67.5765	2,548.83	69.2227	2,548.83	70.0725	2,548.83	58.6295	2,548.83	66.9208	2,548.83	69.8979	2,548.83	65.8076	2,548.83	63.0612	2,548.83	66.1305	2,548.83	66.0159	2,548.83	63.1498	2,548.83	62.5915	2,548.83	61.4973	2,548.83	60.3377	2,548.83	62.1658	2,548.83	66.3451	2,548.83	63.4524
2,639.65	80.9003	2,639.65	80.8903	2,639.65	79.8636	2,639.65	79.8252	2,639.65	76.3471	2,639.65	77.2204	2,639.65	72.7198	2,639.65	75.8516	2,639.65	75.0986	2,639.65	73.508	2,639.65	76.1092	2,639.65	72.9649	2,639.65	75.6164	2,639.65	72.9501	2,639.65	73.4825	2,639.65	71.3624	2,639.65	73.5585	2,639.65	71.703	2,639.65	73.4609	2,639.65	67.1032	2,639.65	72.0139	2,639.65	65.8699	2,639.65	71.5713	2,639.65	68.9913	2,639.65	69.9665	2,639.65	66.5152	2,639.65	68.6868	2,639.65	65.0166	2,639.65	65.1381	2,639.65	64.1171	2,639.65	64.945	2,639.65	60.1553	2,639.65	63.0192	2,639.65	61.7444	2,639.65	66.7573	2,639.65	64.0815
2,731.93	81.2283	2,731.93	81.196	2,731.93	79.4979	2,731.93	79.6127	2,731.93	74.652	2,731.93	75.4374	2,731.93	73.2665	2,731.93	73.4255	2,731.93	75.4895	2,731.93	74.0052	2,731.93	76.307	2,731.93	73.3741	2,731.93	75.1221	2,731.93	71.4963	2,731.93	73.0074	2,731.93	67.8442	2,731.93	65.9364	2,731.93	63.8202	2,731.93	68.9267	2,731.93	62.3119	2,731.93	68.5814	2,731.93	62.762	2,731.93	69.4925	2,731.93	64.035	2,731.93	69.028	2,731.93	65.8855	2,731.93	68.1633	2,731.93	64.396	2,731.93	62.5669	2,731.93	61.3594	2,731.93	62.2275	2,731.93	61.1094	2,731.93	61.4228	2,731.93	63.4174	2,731.93	63.8373	2,731.93	61.6874
2,828.61	81.6732	2,828.61	80.5434	2,828.61	80.1618	2,828.61	76.6839	2,828.61	75.9454	2,828.61	73.0313	2,828.61	76.1373	2,828.61	72.0207	2,828.61	77.0482	2,828.61	73.7156	2,828.61	76.5629	2,828.61	72.7689	2,828.61	75.1851	2,828.61	70.5329	2,828.61	75.6543	2,828.61	66.9269	2,828.61	64.9281	2,828.61	63.0825	2,828.61	64.2529	2,828.61	66.8735	2,828.61	71.8808	2,828.61	64.6471	2,828.61	69.893	2,828.61	64.7777	2,828.61	68.3465	2,828.61	63.9807	2,828.61	66.6799	2,828.61	63.0518	2,828.61	64.7489	2,828.61	63.5965	2,828.61	63.1874	2,828.61	59.6109	2,828.61	58.6108	2,828.61	61.5679	2,828.61	64.9328	2,828.61	63.8003
2,928.22	82.131	2,928.22	81.2402	2,928.22	80.3359	2,928.22	76.4256	2,928.22	75.4853	2,928.22	70.6474	2,928.22	75.1642	2,928.22	72.4256	2,928.22	76.84	2,928.22	73.4832	2,928.22	76.6265	2,928.22	73.5241	2,928.22	76.1477	2,928.22	69.6786	2,928.22	75.793	2,928.22	68.2022	2,928.22	59.8435	2,928.22	69.3432	2,928.22	49.2383	2,928.22	67.7794	2,928.22	73.546	2,928.22	66.7863	2,928.22	72.3855	2,928.22	65.2469	2,928.22	66.8994	2,928.22	65.8379	2,928.22	67.664	2,928.22	63.717	2,928.22	64.2334	2,928.22	60.6164	2,928.22	61.8742	2,928.22	54.4311	2,928.22	59.1377	2,928.22	65.1305	2,928.22	64.5662	2,928.22	63.9896
3,030.76	82.3491	3,030.76	81.6952	3,030.76	80.2107	3,030.76	76.9088	3,030.76	74.1563	3,030.76	66.7763	3,030.76	75.1585	3,030.76	70.8135	3,030.76	78.1794	3,030.76	73.2202	3,030.76	77.6948	3,030.76	72.5379	3,030.76	76.4235	3,030.76	70.822	3,030.76	74.0614	3,030.76	71.6058	3,030.76	61.8514	3,030.76	69.4499	3,030.76	60.7176	3,030.76	64.6494	3,030.76	74.1237	3,030.76	64.6009	3,030.76	72.3127	3,030.76	62.8412	3,030.76	65.5008	3,030.76	64.7382	3,030.76	67.0937	3,030.76	64.5366	3,030.76	65.1131	3,030.76	62.2192	3,030.76	63.1721	3,030.76	58.8142	3,030.76	52.1921	3,030.76	66.4751	3,030.76	63.3997	3,030.76	65.9604
3,137.7	82.6895	3,137.7	82.0906	3,137.7	79.2117	3,137.7	76.5591	3,137.7	71.2419	3,137.7	65.0764	3,137.7	75.2765	3,137.7	72.3534	3,137.7	78.6211	3,137.7	74.7488	3,137.7	78.6834	3,137.7	73.5732	3,137.7	77.1321	3,137.7	73.9305	3,137.7	72.5439	3,137.7	71.7567	3,137.7	68.744	3,137.7	66.0856	3,137.7	64.0427	3,137.7	65.4826	3,137.7	73.8251	3,137.7	65.3216	3,137.7	70.7435	3,137.7	65.1715	3,137.7	65.2101	3,137.7	64.6386	3,137.7	67.5112	3,137.7	65.3599	3,137.7	66.4823	3,137.7	63.6304	3,137.7	64.5585	3,137.7	59.452	3,137.7	49.0895	3,137.7	65.6806	3,137.7	65.0906	3,137.7	66.7932
3,249.02	82.9099	3,249.02	81.2655	3,249.02	79.6365	3,249.02	74.6208	3,249.02	71.7277	3,249.02	59.925	3,249.02	76.0295	3,249.02	70.3337	3,249.02	78.1704	3,249.02	72.5214	3,249.02	78.4636	3,249.02	74.1541	3,249.02	77.2147	3,249.02	72.7176	3,249.02	73.6318	3,249.02	67.947	3,249.02	70.9814	3,249.02	68.4312	3,249.02	61.5613	3,249.02	67.7262	3,249.02	73.3334	3,249.02	66.3289	3,249.02	69.2803	3,249.02	64.2682	3,249.02	62.4149	3,249.02	65.3776	3,249.02	67.3128	3,249.02	63.7437	3,249.02	65.3694	3,249.02	63.1153	3,249.02	65.1551	3,249.02	58.0426	3,249.02	51.2947	3,249.02	63.1482	3,249.02	65.7449	3,249.02	67.0129
3,363.28	81.6236	3,363.28	80.3448	3,363.28	79.4609	3,363.28	74.7479	3,363.28	73.6168	3,363.28	60.3378	3,363.28	75.8681	3,363.28	72.037	3,363.28	78.0001	3,363.28	76.4263	3,363.28	77.6811	3,363.28	76.1608	3,363.28	78.3532	3,363.28	73.1845	3,363.28	75.2106	3,363.28	71.8881	3,363.28	73.8243	3,363.28	71.0503	3,363.28	64.8031	3,363.28	67.4642	3,363.28	71.9393	3,363.28	65.0163	3,363.28	65.4199	3,363.28	64.1177	3,363.28	61.8123	3,363.28	65.1707	3,363.28	66.1609	3,363.28	65.2135	3,363.28	65.7925	3,363.28	61.7665	3,363.28	63.5197	3,363.28	49.4187	3,363.28	50.0888	3,363.28	63.4195	3,363.28	64.9146	3,363.28	66.3012
3,481.93	80.525	3,481.93	79.9819	3,481.93	78.0676	3,481.93	74.2029	3,481.93	72.8847	3,481.93	60.8379	3,481.93	73.9459	3,481.93	74.9012	3,481.93	78.4673	3,481.93	76.9865	3,481.93	76.7456	3,481.93	75.0975	3,481.93	77.5426	3,481.93	73.9442	3,481.93	74.1703	3,481.93	71.4743	3,481.93	72.479	3,481.93	67.2738	3,481.93	69.7862	3,481.93	65.8832	3,481.93	72.8893	3,481.93	63.2972	3,481.93	67.7842	3,481.93	63.623	3,481.93	63.4657	3,481.93	63.0264	3,481.93	63.9227	3,481.93	64.0909	3,481.93	66.7832	3,481.93	59.7006	3,481.93	60.8191	3,481.93	45.9245	3,481.93	56.5438	3,481.93	64.3389	3,481.93	62.8812	3,481.93	65.69
3,604.98	80.7756	3,604.98	80.3229	3,604.98	77.6499	3,604.98	74.0186	3,604.98	67.7734	3,604.98	63.6064	3,604.98	72.5019	3,604.98	75.7689	3,604.98	78.7754	3,604.98	75.9523	3,604.98	77.9281	3,604.98	75.2303	3,604.98	77.2297	3,604.98	73.017	3,604.98	73.7777	3,604.98	66.3969	3,604.98	70.1303	3,604.98	64.6926	3,604.98	71.6595	3,604.98	63.8447	3,604.98	71.0863	3,604.98	59.512	3,604.98	68.9037	3,604.98	61.4056	3,604.98	64.4703	3,604.98	59.9967	3,604.98	62.2775	3,604.98	61.2984	3,604.98	64.868	3,604.98	60.0345	3,604.98	61.9411	3,604.98	46.0143	3,604.98	55.8785	3,604.98	62.5121	3,604.98	63.571	3,604.98	65.9313
3,732.42	80.713	3,732.42	79.955	3,732.42	77.4658	3,732.42	72.9732	3,732.42	61.2579	3,732.42	68.1552	3,732.42	74.719	3,732.42	76.0532	3,732.42	78.5304	3,732.42	76.4916	3,732.42	78.2105	3,732.42	74.5057	3,732.42	76.4853	3,732.42	70.8524	3,732.42	72.9571	3,732.42	67.8651	3,732.42	63.881	3,732.42	64.5611	3,732.42	71.4188	3,732.42	61.938	3,732.42	68.5835	3,732.42	58.9245	3,732.42	67.063	3,732.42	60.0749	3,732.42	61.8798	3,732.42	61.3438	3,732.42	62.5583	3,732.42	61.487	3,732.42	64.0184	3,732.42	57.0724	3,732.42	62.136	3,732.42	44.4063	3,732.42	57.2755	3,732.42	61.9046	3,732.42	64.0433	3,732.42	64.7395
3,864.26	79.7534	3,864.26	78.8952	3,864.26	75.6752	3,864.26	71.0481	3,864.26	55.7944	3,864.26	70.3708	3,864.26	75.5275	3,864.26	77.4337	3,864.26	78.9618	3,864.26	76.9038	3,864.26	78.5646	3,864.26	73.9089	3,864.26	74.4161	3,864.26	70.4481	3,864.26	68.6123	3,864.26	67.9512	3,864.26	57.1286	3,864.26	63.4464	3,864.26	70.4367	3,864.26	61.7327	3,864.26	66.2425	3,864.26	54.8483	3,864.26	62.0689	3,864.26	56.2896	3,864.26	58.2762	3,864.26	59.0252	3,864.26	59.2508	3,864.26	59.2316	3,864.26	64.4676	3,864.26	56.6239	3,864.26	60.683	3,864.26	42.9791	3,864.26	58.7794	3,864.26	61.6875	3,864.26	61.8236	3,864.26	63.5304
4,000.49	80.7656	4,000.49	80.3279	4,000.49	75.4138	4,000.49	69.5114	4,000.49	64.8624	4,000.49	72.3042	4,000.49	77.0161	4,000.49	76.7394	4,000.49	79.0663	4,000.49	75.1492	4,000.49	78.5309	4,000.49	72.7919	4,000.49	72.8874	4,000.49	69.9066	4,000.49	65.7733	4,000.49	65.4515	4,000.49	55.2198	4,000.49	60.721	4,000.49	71.1624	4,000.49	60.1274	4,000.49	69.3875	4,000.49	57.544	4,000.49	65.0826	4,000.49	51.2775	4,000.49	55.1563	4,000.49	52.6759	4,000.49	56.4599	4,000.49	56.9171	4,000.49	64.2027	4,000.49	56.8804	4,000.49	61.6287	4,000.49	44.8465	4,000.49	56.9562	4,000.49	62.2943	4,000.49	62.2016	4,000.49	64.2871
4,141.11	80.7997	4,141.11	79.1603	4,141.11	75.4951	4,141.11	65.9849	4,141.11	68.7961	4,141.11	73.9484	4,141.11	78.1326	4,141.11	75.9731	4,141.11	78.9418	4,141.11	74.9707	4,141.11	77.0258	4,141.11	72.3974	4,141.11	71.0674	4,141.11	69.7804	4,141.11	66.0319	4,141.11	66.7334	4,141.11	55.4923	4,141.11	63.3903	4,141.11	68.4736	4,141.11	60.2466	4,141.11	69.8983	4,141.11	55.9471	4,141.11	65.8422	4,141.11	51.9949	4,141.11	58.2905	4,141.11	55.3856	4,141.11	56.1706	4,141.11	54.7867	4,141.11	63.9006	4,141.11	55.5686	4,141.11	60.9513	4,141.11	45.7869	4,141.11	56.8024	4,141.11	63	4,141.11	61.8852	4,141.11	64.3019
4,287.6	81.3498	4,287.6	77.7007	4,287.6	77.3654	4,287.6	64.808	4,287.6	66.8647	4,287.6	72.8794	4,287.6	78.4603	4,287.6	76.0767	4,287.6	78.7586	4,287.6	75.3028	4,287.6	75.8331	4,287.6	72.6101	4,287.6	68.7458	4,287.6	69.4019	4,287.6	64.6282	4,287.6	63.5283	4,287.6	58.6278	4,287.6	56.3455	4,287.6	66.8392	4,287.6	54.7655	4,287.6	69.8559	4,287.6	51.7661	4,287.6	61.5028	4,287.6	47.6933	4,287.6	56.4715	4,287.6	47.6633	4,287.6	54.3053	4,287.6	47.2976	4,287.6	63.0625	4,287.6	51.8985	4,287.6	58.753	4,287.6	50.4276	4,287.6	59.6234	4,287.6	61.0312	4,287.6	62.518	4,287.6	63.6593
4,438.48	80.7216	4,438.48	78.0785	4,438.48	77.3036	4,438.48	67.8625	4,438.48	64.1267	4,438.48	74.0995	4,438.48	77.8258	4,438.48	76.6073	4,438.48	78.2658	4,438.48	74.8516	4,438.48	73.463	4,438.48	71.0067	4,438.48	67.3718	4,438.48	64.9596	4,438.48	64.4833	4,438.48	57.7378	4,438.48	51.1832	4,438.48	53.828	4,438.48	66.0009	4,438.48	46.369	4,438.48	69.0666	4,438.48	47.6082	4,438.48	59.4662	4,438.48	44.5626	4,438.48	51.8102	4,438.48	45.7114	4,438.48	54.4654	4,438.48	44.4663	4,438.48	60.9162	4,438.48	43.6576	4,438.48	58.7958	4,438.48	54.7707	4,438.48	60.3832	4,438.48	61.5691	4,438.48	59.6158	4,438.48	63.4275
4,595.21	81.7582	4,595.21	77.919	4,595.21	78.2567	4,595.21	66.2023	4,595.21	63.2589	4,595.21	75.292	4,595.21	78.1414	4,595.21	76.5816	4,595.21	77.3864	4,595.21	73.5595	4,595.21	72.4266	4,595.21	67.608	4,595.21	65.7745	4,595.21	59.7545	4,595.21	61.3448	4,595.21	52.2253	4,595.21	52.2306	4,595.21	44.7907	4,595.21	66.5276	4,595.21	49.0987	4,595.21	68.0824	4,595.21	48.1063	4,595.21	58.7021	4,595.21	51.655	4,595.21	47.0155	4,595.21	52.7609	4,595.21	52.3539	4,595.21	49.6945	4,595.21	60.5892	4,595.21	43.629	4,595.21	60.0502	4,595.21	54.9943	4,595.21	61.0264	4,595.21	60.475	4,595.21	60.0837	4,595.21	63.7167
4,756.35	80.8147	4,756.35	77.7004	4,756.35	77.9528	4,756.35	69.8847	4,756.35	68.2863	4,756.35	76.1338	4,756.35	78.4349	4,756.35	76.0988	4,756.35	76.1201	4,756.35	71.2886	4,756.35	69.3598	4,756.35	63.705	4,756.35	64.315	4,756.35	48.5202	4,756.35	59.2398	4,756.35	55.2574	4,756.35	59.6358	4,756.35	55.3605	4,756.35	65.5327	4,756.35	54.729	4,756.35	67.2883	4,756.35	53.1786	4,756.35	58.5332	4,756.35	55.4318	4,756.35	51.2732	4,756.35	54.2001	4,756.35	56.4319	4,756.35	51.4534	4,756.35	59.0244	4,756.35	49.7661	4,756.35	60.2125	4,756.35	54.0876	4,756.35	61.0116	4,756.35	59.0166	4,756.35	62.5267	4,756.35	62.5548
4,924.8	81.7235	4,924.8	78.4213	4,924.8	77.4943	4,924.8	68.1586	4,924.8	71.4119	4,924.8	77.2248	4,924.8	79.4582	4,924.8	75.6504	4,924.8	75.4457	4,924.8	67.9276	4,924.8	64.9319	4,924.8	61.9807	4,924.8	58.7974	4,924.8	62.8824	4,924.8	60.6848	4,924.8	60.3574	4,924.8	53.7332	4,924.8	57.1395	4,924.8	55.035	4,924.8	55.0486	4,924.8	64.774	4,924.8	52.1748	4,924.8	50.5512	4,924.8	53.3448	4,924.8	55.3552	4,924.8	53.0254	4,924.8	59.8949	4,924.8	53.0171	4,924.8	57.9795	4,924.8	49.6965	4,924.8	55.0828	4,924.8	51.9822	4,924.8	60.6431	4,924.8	58.046	4,924.8	61.1129	4,924.8	62.6765
5,097.66	82.4447	5,097.66	79.1959	5,097.66	77.1256	5,097.66	72.125	5,097.66	73.9248	5,097.66	77.443	5,097.66	79.2116	5,097.66	74.0725	5,097.66	75.4577	5,097.66	70.7339	5,097.66	55.8592	5,097.66	63.3444	5,097.66	64.5463	5,097.66	59.7503	5,097.66	66.965	5,097.66	48.5173	5,097.66	55.9547	5,097.66	55.8532	5,097.66	62.3356	5,097.66	51.1639	5,097.66	66.5858	5,097.66	54.4143	5,097.66	56.9343	5,097.66	50.5717	5,097.66	47.9057	5,097.66	48.9357	5,097.66	58.7062	5,097.66	54.4551	5,097.66	59.5643	5,097.66	53.6722	5,097.66	59.0127	5,097.66	56.5625	5,097.66	60.6012	5,097.66	59.0833	5,097.66	62.607	5,097.66	62.4697
5,277.83	83.1195	5,277.83	77.9013	5,277.83	78.3845	5,277.83	73.7337	5,277.83	74.5278	5,277.83	77.7673	5,277.83	78.9687	5,277.83	73.8675	5,277.83	74.0919	5,277.83	66.8932	5,277.83	62.0629	5,277.83	63.229	5,277.83	66.7565	5,277.83	62.2231	5,277.83	64.5599	5,277.83	62.0452	5,277.83	46.5363	5,277.83	60.6836	5,277.83	58.8206	5,277.83	52.0381	5,277.83	61.8048	5,277.83	56.0047	5,277.83	56.7703	5,277.83	52.993	5,277.83	46.9906	5,277.83	50.5763	5,277.83	56.9553	5,277.83	49.2127	5,277.83	57.633	5,277.83	53.26	5,277.83	56.4674	5,277.83	56.2517	5,277.83	59.1827	5,277.83	59.1588	5,277.83	63.4314	5,277.83	60.4759
5,463.87	83.4196	5,463.87	77.4036	5,463.87	78.0728	5,463.87	76.0197	5,463.87	76.0778	5,463.87	77.0882	5,463.87	78.6829	5,463.87	73.988	5,463.87	72.4713	5,463.87	68.9303	5,463.87	63.4573	5,463.87	66.1228	5,463.87	63.6261	5,463.87	65.6719	5,463.87	64.7618	5,463.87	59.9579	5,463.87	53.8595	5,463.87	56.9674	5,463.87	54.3	5,463.87	48.8166	5,463.87	56.8329	5,463.87	42.6913	5,463.87	45.5387	5,463.87	47.6574	5,463.87	56.2361	5,463.87	38.7702	5,463.87	57.6422	5,463.87	33.4868	5,463.87	59.8746	5,463.87	49.1618	5,463.87	58.0772	5,463.87	58.2937	5,463.87	59.4906	5,463.87	61.7243	5,463.87	63.5501	5,463.87	60.2465
5,657.23	84.4842	5,657.23	76.8215	5,657.23	80.8127	5,657.23	77.6366	5,657.23	73.6891	5,657.23	78.3791	5,657.23	79.8436	5,657.23	73.7601	5,657.23	71.527	5,657.23	64.5979	5,657.23	66.5806	5,657.23	67.9756	5,657.23	64.7031	5,657.23	66.6063	5,657.23	57.8185	5,657.23	62.4487	5,657.23	61.2845	5,657.23	58.2619	5,657.23	58.8666	5,657.23	54.4266	5,657.23	60.429	5,657.23	48.5593	5,657.23	56.5892	5,657.23	55.6922	5,657.23	58.2037	5,657.23	53.7289	5,657.23	53.5782	5,657.23	58.0938	5,657.23	61.7614	5,657.23	52.8494	5,657.23	56.8643	5,657.23	61.899	5,657.23	60.8465	5,657.23	64.5477	5,657.23	63.578	5,657.23	60.3466
5,856.45	84.2069	5,856.45	77.2121	5,856.45	81.7447	5,856.45	79.9392	5,856.45	74.6911	5,856.45	78.7596	5,856.45	79.9726	5,856.45	70.8484	5,856.45	71.4969	5,856.45	63.4721	5,856.45	68.9444	5,856.45	62.8985	5,856.45	68.5679	5,856.45	65.6593	5,856.45	50.5192	5,856.45	65.0119	5,856.45	58.5264	5,856.45	62.3551	5,856.45	62.4596	5,856.45	58.994	5,856.45	63.9452	5,856.45	59.258	5,856.45	54.9565	5,856.45	58.9803	5,856.45	58.3173	5,856.45	60.5794	5,856.45	57.6763	5,856.45	60.3838	5,856.45	61.0708	5,856.45	59.2793	5,856.45	52.2295	5,856.45	62.272	5,856.45	62.6895	5,856.45	65.5565	5,856.45	63.9007	5,856.45	59.3128
6,062.99	84.9125	6,062.99	78.0705	6,062.99	82.0406	6,062.99	80.9681	6,062.99	76.2776	6,062.99	78.2123	6,062.99	80.2924	6,062.99	68.7434	6,062.99	67.8306	6,062.99	57.3199	6,062.99	68.9717	6,062.99	59.8537	6,062.99	66.3481	6,062.99	66.0517	6,062.99	62.3721	6,062.99	63.634	6,062.99	63.3228	6,062.99	57.5659	6,062.99	65.1849	6,062.99	60.5564	6,062.99	63.3952	6,062.99	57.2104	6,062.99	52.2205	6,062.99	58.3475	6,062.99	53.7343	6,062.99	57.9037	6,062.99	56.0627	6,062.99	61.9372	6,062.99	60.1121	6,062.99	61.6009	6,062.99	54.4714	6,062.99	61.1483	6,062.99	62.7156	6,062.99	65.7198	6,062.99	62.8063	6,062.99	59.923
6,276.86	84.9242	6,276.86	78.0142	6,276.86	82.6143	6,276.86	81.4086	6,276.86	76.4677	6,276.86	77.6843	6,276.86	80.4103	6,276.86	68.9958	6,276.86	66.2027	6,276.86	54.0755	6,276.86	67.4571	6,276.86	64.6484	6,276.86	64.5247	6,276.86	66.2691	6,276.86	60.7541	6,276.86	64.8147	6,276.86	64.7092	6,276.86	60.18	6,276.86	68.528	6,276.86	57.7433	6,276.86	65.5999	6,276.86	54.1914	6,276.86	57.633	6,276.86	57.6743	6,276.86	53.1541	6,276.86	57.9189	6,276.86	49.9652	6,276.86	62.171	6,276.86	57.8012	6,276.86	61.8759	6,276.86	56.0129	6,276.86	60.4739	6,276.86	61.2434	6,276.86	64.8316	6,276.86	63.6393	6,276.86	60.8232
6,498.05	84.9963	6,498.05	78.9531	6,498.05	82.4742	6,498.05	81.7328	6,498.05	77.7714	6,498.05	76.6343	6,498.05	79.752	6,498.05	69.6812	6,498.05	65.4879	6,498.05	59.6975	6,498.05	69.8454	6,498.05	67.7652	6,498.05	65.9488	6,498.05	65.7857	6,498.05	66.3779	6,498.05	62.2496	6,498.05	66.8798	6,498.05	55.7148	6,498.05	67.09	6,498.05	55.6442	6,498.05	65.141	6,498.05	50.9203	6,498.05	59.4422	6,498.05	53.6163	6,498.05	53.2061	6,498.05	56.4013	6,498.05	45.3809	6,498.05	59.9281	6,498.05	56.0301	6,498.05	61.3406	6,498.05	55.2492	6,498.05	57.767	6,498.05	59.9891	6,498.05	64.2266	6,498.05	62.8943	6,498.05	60.108
6,726.56	84.979	6,726.56	78.8819	6,726.56	83.3694	6,726.56	82.1218	6,726.56	77.3567	6,726.56	76.2405	6,726.56	79.5497	6,726.56	68.6037	6,726.56	65.426	6,726.56	64.1484	6,726.56	68.9423	6,726.56	67.7506	6,726.56	64.4866	6,726.56	59.3213	6,726.56	68.358	6,726.56	58.076	6,726.56	64.9045	6,726.56	43.3178	6,726.56	67.5042	6,726.56	42.8524	6,726.56	62.1852	6,726.56	48.5219	6,726.56	63.5016	6,726.56	39.9123	6,726.56	53.4373	6,726.56	46.2268	6,726.56	49.9186	6,726.56	55.4583	6,726.56	52.9723	6,726.56	60.7405	6,726.56	50.6628	6,726.56	56.7294	6,726.56	56.2715	6,726.56	63.8324	6,726.56	62.5609	6,726.56	61.0846
6,963.87	84.2701	6,963.87	80.0156	6,963.87	82.7289	6,963.87	81.9428	6,963.87	78.3238	6,963.87	74.7232	6,963.87	79.0694	6,963.87	67.083	6,963.87	66.4938	6,963.87	65.5693	6,963.87	68.1904	6,963.87	65.6244	6,963.87	67.3963	6,963.87	54.4756	6,963.87	66.4541	6,963.87	45.2407	6,963.87	63.7366	6,963.87	54.0266	6,963.87	62.4881	6,963.87	48.4558	6,963.87	57.1295	6,963.87	52.9323	6,963.87	60.3933	6,963.87	47.6897	6,963.87	53.7773	6,963.87	38.4722	6,963.87	47.4571	6,963.87	50.5025	6,963.87	53.3377	6,963.87	60.1522	6,963.87	53.3083	6,963.87	58.1001	6,963.87	55.8447	6,963.87	62.4508	6,963.87	62.0413	6,963.87	60.378
7,209.96	84.3287	7,209.96	80.1615	7,209.96	83.2646	7,209.96	82.3634	7,209.96	78.3028	7,209.96	73.5777	7,209.96	79.4287	7,209.96	68.2372	7,209.96	65.1123	7,209.96	65.9311	7,209.96	67.4832	7,209.96	61.7357	7,209.96	65.7216	7,209.96	58.21	7,209.96	62.2683	7,209.96	50.1901	7,209.96	61.2582	7,209.96	60.1259	7,209.96	62.4608	7,209.96	52.9339	7,209.96	48.7418	7,209.96	56.4085	7,209.96	59.8214	7,209.96	55.1419	7,209.96	56.3671	7,209.96	45.5369	7,209.96	45.5978	7,209.96	44.1623	7,209.96	43.6597	7,209.96	59.5444	7,209.96	59.2079	7,209.96	59.0505	7,209.96	53.9074	7,209.96	63.3258	7,209.96	61.8092	7,209.96	60.8806
7,464.84	83.7089	7,464.84	80.2741	7,464.84	82.9295	7,464.84	81.7189	7,464.84	78.286	7,464.84	71.2484	7,464.84	78.404	7,464.84	70.3825	7,464.84	63.0574	7,464.84	63.6346	7,464.84	63.5003	7,464.84	52.2804	7,464.84	66.1432	7,464.84	62.4652	7,464.84	57.785	7,464.84	56.5819	7,464.84	61.7268	7,464.84	59.2792	7,464.84	58.1675	7,464.84	54.2773	7,464.84	56.2753	7,464.84	55.4898	7,464.84	51.62	7,464.84	52.4553	7,464.84	54.993	7,464.84	50.9214	7,464.84	43.2192	7,464.84	49.6457	7,464.84	31.8644	7,464.84	57.8989	7,464.84	57.1757	7,464.84	59.3604	7,464.84	57.6314	7,464.84	62.942	7,464.84	59.9386	7,464.84	59.7093
7,727.05	83.2353	7,727.05	80.399	7,727.05	82.917	7,727.05	81.3334	7,727.05	77.2669	7,727.05	70.2224	7,727.05	77.869	7,727.05	71.1548	7,727.05	64.5431	7,727.05	58.6762	7,727.05	64.2826	7,727.05	45.9046	7,727.05	59.2077	7,727.05	64.2071	7,727.05	62.8545	7,727.05	56.8395	7,727.05	62.4944	7,727.05	59.9925	7,727.05	57.2268	7,727.05	53.8524	7,727.05	56.9091	7,727.05	55.6746	7,727.05	53.4209	7,727.05	53.3136	7,727.05	53.7298	7,727.05	47.3575	7,727.05	47.8219	7,727.05	49.0286	7,727.05	48.3678	7,727.05	57.3609	7,727.05	58.2144	7,727.05	57.8069	7,727.05	57.2933	7,727.05	62.4327	7,727.05	60.2481	7,727.05	61.4719
7,999.51	82.3439	7,999.51	81.0593	7,999.51	82.6635	7,999.51	80.7294	7,999.51	77.2227	7,999.51	70.8316	7,999.51	76.8685	7,999.51	70.6425	7,999.51	65.4191	7,999.51	59.0808	7,999.51	64.3392	7,999.51	54.2322	7,999.51	54.4497	7,999.51	65.5103	7,999.51	64.7793	7,999.51	57.4407	7,999.51	61.1901	7,999.51	60.2349	7,999.51	58.1636	7,999.51	55.7548	7,999.51	59.8038	7,999.51	54.626	7,999.51	55.9652	7,999.51	51.9429	7,999.51	54.1824	7,999.51	48.4164	7,999.51	48.1598	7,999.51	49.9337	7,999.51	49.4547	7,999.51	56.7404	7,999.51	59.3204	7,999.51	57.9789	7,999.51	58.606	7,999.51	62.2657	7,999.51	58.2442	7,999.51	60.4231
8,282.23	82.5545	8,282.23	81.3157	8,282.23	82.9905	8,282.23	79.7796	8,282.23	76.7928	8,282.23	72.1837	8,282.23	75.4037	8,282.23	69.95	8,282.23	61.8268	8,282.23	62.9494	8,282.23	65.0259	8,282.23	58.2638	8,282.23	60.2318	8,282.23	64.9976	8,282.23	66.2365	8,282.23	55.6248	8,282.23	61.8888	8,282.23	59.7696	8,282.23	60.1225	8,282.23	53.4056	8,282.23	57.2558	8,282.23	55.108	8,282.23	56.6503	8,282.23	48.964	8,282.23	53.4795	8,282.23	19.233	8,282.23	50.1684	8,282.23	45.1298	8,282.23	54.4091	8,282.23	55.6989	8,282.23	58.4372	8,282.23	56.0412	8,282.23	57.8661	8,282.23	61.5844	8,282.23	57.7113	8,282.23	61.273
8,573.73	82.1803	8,573.73	81.6443	8,573.73	82.4148	8,573.73	78.4316	8,573.73	76.1956	8,573.73	73.1633	8,573.73	74.0028	8,573.73	67.8305	8,573.73	64.8852	8,573.73	63.9225	8,573.73	60.0007	8,573.73	54.5049	8,573.73	59.5481	8,573.73	59.6308	8,573.73	64.765	8,573.73	52.1236	8,573.73	60.2482	8,573.73	58.4211	8,573.73	59.8322	8,573.73	46.4757	8,573.73	57.0276	8,573.73	54.0198	8,573.73	55.9742	8,573.73	51.3311	8,573.73	53.8927	8,573.73	42.7145	8,573.73	46.1711	8,573.73	33.7165	8,573.73	54.7083	8,573.73	51.0132	8,573.73	57.755	8,573.73	54.5746	8,573.73	57.092	8,573.73	61.3013	8,573.73	58.0258	8,573.73	60.6782
8,876.95	81.6278	8,876.95	80.759	8,876.95	82.1258	8,876.95	76.8502	8,876.95	76.0335	8,876.95	73.5418	8,876.95	72.3891	8,876.95	65.5548	8,876.95	66.382	8,876.95	62.6071	8,876.95	55.8731	8,876.95	57.5264	8,876.95	56.8106	8,876.95	60.2862	8,876.95	62.3461	8,876.95	60.3447	8,876.95	55.7823	8,876.95	57.0812	8,876.95	58.0047	8,876.95	52.876	8,876.95	50.7786	8,876.95	55.5791	8,876.95	51.9685	8,876.95	54.6403	8,876.95	50.8667	8,876.95	53.9581	8,876.95	42.0735	8,876.95	46.6748	8,876.95	51.8091	8,876.95	47.3285	8,876.95	57.1207	8,876.95	53.8208	8,876.95	54.8547	8,876.95	60.6538	8,876.95	58.3309	8,876.95	60.322
9,188.96	81.8618	9,188.96	80.4687	9,188.96	81.6529	9,188.96	77.0904	9,188.96	75.8447	9,188.96	73.9201	9,188.96	72.2319	9,188.96	65.1365	9,188.96	67.2313	9,188.96	59.4564	9,188.96	56.1947	9,188.96	61.6989	9,188.96	58.5829	9,188.96	63.1713	9,188.96	58.2342	9,188.96	60.2466	9,188.96	56.1968	9,188.96	58.5395	9,188.96	57.7894	9,188.96	56.7961	9,188.96	48.6519	9,188.96	53.9138	9,188.96	50.1348	9,188.96	51.6204	9,188.96	47.5833	9,188.96	53.4239	9,188.96	43.2223	9,188.96	50.1656	9,188.96	47.0605	9,188.96	46.315	9,188.96	54.138	9,188.96	53.0183	9,188.96	56.3684	9,188.96	60.7408	9,188.96	57.5169	9,188.96	59.9709
9,514.16	82.1702	9,514.16	81.1165	9,514.16	81.7627	9,514.16	78.3619	9,514.16	77.4129	9,514.16	73.8614	9,514.16	72.6223	9,514.16	63.0154	9,514.16	66.0665	9,514.16	56.963	9,514.16	62.5628	9,514.16	63.9146	9,514.16	62.6282	9,514.16	62.1349	9,514.16	53.2246	9,514.16	60.2898	9,514.16	59.559	9,514.16	58.8382	9,514.16	55.3748	9,514.16	55.9654	9,514.16	42.3119	9,514.16	54.7329	9,514.16	46.3014	9,514.16	51.2351	9,514.16	40.5757	9,514.16	51.7777	9,514.16	43.0223	9,514.16	49.6133	9,514.16	46.6339	9,514.16	37.8671	9,514.16	49.3429	9,514.16	50.839	9,514.16	53.7168	9,514.16	59.8004	9,514.16	56.7217	9,514.16	59.0517
9,849.61	82.8357	9,849.61	82.0957	9,849.61	82.6567	9,849.61	79.1284	9,849.61	79.1353	9,849.61	72.4271	9,849.61	73.905	9,849.61	55.2292	9,849.61	62.9082	9,849.61	62.264	9,849.61	66.7395	9,849.61	63.8117	9,849.61	64.09	9,849.61	61.9321	9,849.61	59.5379	9,849.61	60.2784	9,849.61	61.8447	9,849.61	54.4766	9,849.61	57.3642	9,849.61	49.5251	9,849.61	47.6078	9,849.61	53.9414	9,849.61	34.88	9,849.61	50.305	9,849.61	31.9581	9,849.61	51.5843	9,849.61	29.658	9,849.61	49.3463	9,849.61	42.4478	9,849.61	39.1745	9,849.61	46.8814	9,849.61	40.7741	9,849.61	49.1426	9,849.61	57.435	9,849.61	55.9831	9,849.61	56.278
10,196.8	83.2479	10,196.8	82.6493	10,196.8	82.8328	10,196.8	79.3372	10,196.8	79.4207	10,196.8	71.2385	10,196.8	73.5899	10,196.8	49.1079	10,196.8	55.4048	10,196.8	63.8247	10,196.8	67.3352	10,196.8	63.6403	10,196.8	64.1925	10,196.8	61.0869	10,196.8	61.1246	10,196.8	58.5129	10,196.8	60.8625	10,196.8	52.6533	10,196.8	57.1769	10,196.8	52.3698	10,196.8	48.5859	10,196.8	50.4223	10,196.8	45.4129	10,196.8	51.6295	10,196.8	34.778	10,196.8	48.7466	10,196.8	35.993	10,196.8	47.9673	10,196.8	35.9458	10,196.8	42.7614	10,196.8	41.0635	10,196.8	45.3241	10,196.8	49.4703	10,196.8	56.3289	10,196.8	54.9352	10,196.8	55.353
10,555.7	83.3125	10,555.7	82.914	10,555.7	82.8146	10,555.7	79.2732	10,555.7	79.611	10,555.7	70.0358	10,555.7	72.8402	10,555.7	51.7307	10,555.7	54.3392	10,555.7	63.9215	10,555.7	66.8463	10,555.7	63.5912	10,555.7	64.4167	10,555.7	60.764	10,555.7	59.9192	10,555.7	57.1764	10,555.7	55.2378	10,555.7	53.0425	10,555.7	51.129	10,555.7	52.2168	10,555.7	52.0921	10,555.7	48.2675	10,555.7	41.8697	10,555.7	50.9178	10,555.7	37.2129	10,555.7	45.6976	10,555.7	38.1861	10,555.7	47.83	10,555.7	45.7664	10,555.7	45.8322	10,555.7	36.1741	10,555.7	43.581	10,555.7	46.509	10,555.7	55.1978	10,555.7	52.5997	10,555.7	54.7763
10,927.7	83.2983	10,927.7	83.1149	10,927.7	82.6538	10,927.7	79.2138	10,927.7	79.7584	10,927.7	67.8829	10,927.7	72.3665	10,927.7	58.8824	10,927.7	60.2676	10,927.7	66.5847	10,927.7	65.3916	10,927.7	63.9637	10,927.7	62.7848	10,927.7	61.6938	10,927.7	57.624	10,927.7	57.0448	10,927.7	59.2089	10,927.7	52.5746	10,927.7	47.4221	10,927.7	49.3524	10,927.7	49.7396	10,927.7	47.989	10,927.7	43.6698	10,927.7	50.0931	10,927.7	35.2677	10,927.7	47.861	10,927.7	37.7542	10,927.7	49.7581	10,927.7	46.2525	10,927.7	45.6262	10,927.7	36.9056	10,927.7	38.9126	10,927.7	48.0873	10,927.7	54.6053	10,927.7	49.9253	10,927.7	54.7653
11,313	83.6104	11,313	83.1206	11,313	82.5065	11,313	78.8615	11,313	78.5636	11,313	66.4488	11,313	69.6755	11,313	62.6874	11,313	61.6347	11,313	67.5668	11,313	63.968	11,313	64.6167	11,313	62.4602	11,313	61.7543	11,313	56.7911	11,313	57.5789	11,313	57.6412	11,313	52.9699	11,313	49.8269	11,313	49.5237	11,313	49.4332	11,313	47.7097	11,313	44.8004	11,313	48.4915	11,313	34.3579	11,313	48.6295	11,313	41.8976	11,313	49.9697	11,313	43.6417	11,313	45.3573	11,313	40.0278	11,313	22.2823	11,313	47.5542	11,313	54.1703	11,313	49.5166	11,313	55.7987
11,712.9	83.8589	11,712.9	83.1182	11,712.9	82.2543	11,712.9	77.9003	11,712.9	77.2403	11,712.9	63.3472	11,712.9	65.7231	11,712.9	64.4442	11,712.9	62.3728	11,712.9	67.4393	11,712.9	63.8982	11,712.9	64.3914	11,712.9	62.1297	11,712.9	60.8356	11,712.9	52.3665	11,712.9	57.1332	11,712.9	53.5607	11,712.9	50.8851	11,712.9	47.8611	11,712.9	47.1841	11,712.9	52.6804	11,712.9	42.7912	11,712.9	49.8126	11,712.9	44.0618	11,712.9	46.0423	11,712.9	45.3695	11,712.9	42.941	11,712.9	48.2954	11,712.9	34.3663	11,712.9	46.4662	11,712.9	40.081	11,712.9	30.1831	11,712.9	46.4562	11,712.9	54.4726	11,712.9	49.1079	11,712.9	56.4347
12,126	83.881	12,126	82.688	12,126	81.7407	12,126	76.5165	12,126	74.947	12,126	58.453	12,126	59.9301	12,126	65.1761	12,126	63.0667	12,126	67.294	12,126	63.5369	12,126	63.409	12,126	62.8608	12,126	59.7218	12,126	52.1563	12,126	52.3151	12,126	54.6686	12,126	45.9361	12,126	27.1574	12,126	41.1991	12,126	53.0854	12,126	37.7682	12,126	49.8097	12,126	39.882	12,126	46.6871	12,126	39.0193	12,126	40.7054	12,126	45.7295	12,126	39.6469	12,126	47.3253	12,126	38.0154	12,126	39.158	12,126	43.7328	12,126	54.1042	12,126	47.6921	12,126	55.7217
12,553.7	83.6293	12,553.7	82.0815	12,553.7	81.5073	12,553.7	74.9655	12,553.7	73.937	12,553.7	52.7414	12,553.7	51.8177	12,553.7	66.5326	12,553.7	64.2795	12,553.7	66.4007	12,553.7	64.4902	12,553.7	61.4241	12,553.7	61.8389	12,553.7	55.7128	12,553.7	53.5394	12,553.7	49.6981	12,553.7	53.3218	12,553.7	39.391	12,553.7	33.6926	12,553.7	38.1496	12,553.7	47.9125	12,553.7	33.0709	12,553.7	51.1764	12,553.7	34.1386	12,553.7	41.6238	12,553.7	28.7804	12,553.7	39.7186	12,553.7	42.7002	12,553.7	38.5585	12,553.7	44.9588	12,553.7	36.7897	12,553.7	40.2069	12,553.7	42.3521	12,553.7	52.7433	12,553.7	49.0276	12,553.7	54.9648
12,996.1	83.459	12,996.1	81.4705	12,996.1	81.2176	12,996.1	73.4676	12,996.1	73.1057	12,996.1	55.6822	12,996.1	50.6201	12,996.1	66.357	12,996.1	65.3732	12,996.1	65.2122	12,996.1	63.7215	12,996.1	58.6536	12,996.1	59.0574	12,996.1	50.9747	12,996.1	50.674	12,996.1	39.9287	12,996.1	49.2209	12,996.1	33.0678	12,996.1	43.0247	12,996.1	26.5797	12,996.1	43.2872	12,996.1	27.2931	12,996.1	52.6176	12,996.1	35.4966	12,996.1	42.2393	12,996.1	34.4271	12,996.1	34.292	12,996.1	38.546	12,996.1	39.9486	12,996.1	42.3165	12,996.1	39.7905	12,996.1	42.94	12,996.1	39.4983	12,996.1	51.1373	12,996.1	48.2153	12,996.1	53.6276
13,454.6	83.2648	13,454.6	81.0667	13,454.6	80.9501	13,454.6	72.0225	13,454.6	71.9827	13,454.6	58.5738	13,454.6	58.8394	13,454.6	66.1207	13,454.6	64.5299	13,454.6	63.3256	13,454.6	63.1358	13,454.6	54.7843	13,454.6	55.5201	13,454.6	39.4555	13,454.6	48.4276	13,454.6	22.2455	13,454.6	28.9767	13,454.6	40.6254	13,454.6	49.2717	13,454.6	31.7734	13,454.6	47.3498	13,454.6	32.1684	13,454.6	52.7104	13,454.6	37.8038	13,454.6	43.8961	13,454.6	32.7521	13,454.6	38.7577	13,454.6	31.805	13,454.6	40.5111	13,454.6	37.6036	13,454.6	40.5464	13,454.6	42.1524	13,454.6	27.15	13,454.6	48.9965	13,454.6	46.8817	13,454.6	53.5396
13,929.2	83.0053	13,929.2	80.6919	13,929.2	80.5835	13,929.2	70.9294	13,929.2	71.115	13,929.2	61.2348	13,929.2	60.7682	13,929.2	66.15	13,929.2	65.3041	13,929.2	61.6871	13,929.2	62.5738	13,929.2	50.9914	13,929.2	51.3878	13,929.2	37.9537	13,929.2	44.7327	13,929.2	43.1761	13,929.2	42.8697	13,929.2	44.2298	13,929.2	51.1194	13,929.2	35.1378	13,929.2	51.2417	13,929.2	36.8599	13,929.2	52.4085	13,929.2	39.2802	13,929.2	44.1074	13,929.2	34.5176	13,929.2	34.0025	13,929.2	34.8514	13,929.2	35.118	13,929.2	29.0497	13,929.2	41.9112	13,929.2	41.952	13,929.2	20.1962	13,929.2	47.5293	13,929.2	46.3825	13,929.2	52.62
14,419.9	82.9427	14,419.9	80.6572	14,419.9	80.1392	14,419.9	70.0099	14,419.9	70.3478	14,419.9	63.9055	14,419.9	62.9429	14,419.9	66.2202	14,419.9	65.9665	14,419.9	59.7352	14,419.9	59.794	14,419.9	40.7131	14,419.9	41.5952	14,419.9	51.0455	14,419.9	43.7471	14,419.9	50.3521	14,419.9	46.5747	14,419.9	47.9634	14,419.9	50.5419	14,419.9	40.5355	14,419.9	51.3176	14,419.9	41.0666	14,419.9	54.9264	14,419.9	42.2668	14,419.9	43.0769	14,419.9	37.4115	14,419.9	34.3744	14,419.9	38.1407	14,419.9	31.611	14,419.9	32.7513	14,419.9	43.6485	14,419.9	42.3112	14,419.9	34.7602	14,419.9	47.4505	14,419.9	45.9489	14,419.9	51.8444
14,928.2	83.285	14,928.2	80.7884	14,928.2	79.8325	14,928.2	68.7774	14,928.2	68.2722	14,928.2	64.606	14,928.2	64.5137	14,928.2	65.9105	14,928.2	64.8621	14,928.2	57.9937	14,928.2	55.6922	14,928.2	49.1542	14,928.2	45.0934	14,928.2	54.0249	14,928.2	50.2986	14,928.2	51.783	14,928.2	51.178	14,928.2	47.8275	14,928.2	51.8555	14,928.2	41.5849	14,928.2	44.8214	14,928.2	40.5598	14,928.2	57.6237	14,928.2	43.0386	14,928.2	46.0262	14,928.2	37.9819	14,928.2	39.0656	14,928.2	40.4392	14,928.2	33.0612	14,928.2	37.5291	14,928.2	40.494	14,928.2	41.5417	14,928.2	34.905	14,928.2	46.8676	14,928.2	45.1737	14,928.2	50.7511
15,455.6	83.3483	15,455.6	80.4793	15,455.6	79.8749	15,455.6	66.6131	15,455.6	66.6561	15,455.6	66.2739	15,455.6	65.3334	15,455.6	65.0689	15,455.6	65.1116	15,455.6	52.6612	15,455.6	51.9088	15,455.6	56.1085	15,455.6	52.3827	15,455.6	56.2533	15,455.6	52.3225	15,455.6	52.2013	15,455.6	49.3693	15,455.6	47.609	15,455.6	54.2748	15,455.6	40.3417	15,455.6	37.3134	15,455.6	39.1262	15,455.6	58.3618	15,455.6	43.6972	15,455.6	47.2525	15,455.6	37.3573	15,455.6	41.0171	15,455.6	40.2244	15,455.6	18.7074	15,455.6	37.5169	15,455.6	41.3333	15,455.6	38.3712	15,455.6	41.0203	15,455.6	46.0217	15,455.6	43.7961	15,455.6	49.4295
16,000.5	83.3204	16,000.5	79.913	16,000.5	79.8236	16,000.5	63.3308	16,000.5	64.5127	16,000.5	66.0949	16,000.5	66.0813	16,000.5	64.0291	16,000.5	64.3702	16,000.5	47.3931	16,000.5	44.4556	16,000.5	57.0667	16,000.5	54.3347	16,000.5	55.3116	16,000.5	50.5124	16,000.5	49.6327	16,000.5	51.3745	16,000.5	42.0696	16,000.5	54.4577	16,000.5	34.9473	16,000.5	36.7807	16,000.5	34.0817	16,000.5	59.5238	16,000.5	41.6016	16,000.5	45.9414	16,000.5	35.9067	16,000.5	44.3776	16,000.5	37.1875	16,000.5	33.7041	16,000.5	34.9382	16,000.5	39.6231	16,000.5	25.1262	16,000.5	42.3218	16,000.5	45.1408	16,000.5	43.1001	16,000.5	48.0181
16,564.5	82.9755	16,564.5	79.2331	16,564.5	79.394	16,564.5	59.4901	16,564.5	61.255	16,564.5	66.069	16,564.5	66.942	16,564.5	62.544	16,564.5	63.5991	16,564.5	48.7367	16,564.5	43.8271	16,564.5	55.1307	16,564.5	56.3224	16,564.5	51.4481	16,564.5	51.6211	16,564.5	42.1295	16,564.5	51.1904	16,564.5	39.2135	16,564.5	54.2957	16,564.5	23.0702	16,564.5	47.0017	16,564.5	20.8179	16,564.5	59.7286	16,564.5	36.7043	16,564.5	46.0643	16,564.5	30.5607	16,564.5	42.358	16,564.5	31.3968	16,564.5	31.5851	16,564.5	31.9533	16,564.5	38.0557	16,564.5	29.204	16,564.5	41.9641	16,564.5	45.3409	16,564.5	38.9004	16,564.5	46.5495
17,148.9	82.2437	17,148.9	78.3053	17,148.9	78.6077	17,148.9	54.7386	17,148.9	57.8723	17,148.9	66.0307	17,148.9	67.0328	17,148.9	59.3583	17,148.9	61.8687	17,148.9	52.9551	17,148.9	52.8766	17,148.9	52.6467	17,148.9	55.6182	17,148.9	44.6315	17,148.9	50.451	17,148.9	27.3302	17,148.9	45.4516	17,148.9	36.3975	17,148.9	54.4547	17,148.9	28.1888	17,148.9	50.4485	17,148.9	25.7625	17,148.9	59.1159	17,148.9	32.3542	17,148.9	46.8501	17,148.9	24.6979	17,148.9	41.7207	17,148.9	17.4639	17,148.9	31.5162	17,148.9	32.6662	17,148.9	34.0177	17,148.9	27.6553	17,148.9	42.9853	17,148.9	44.1154	17,148.9	32.0818	17,148.9	45.3698
17,752.4	81.6509	17,752.4	77.3824	17,752.4	77.5035	17,752.4	42.636	17,752.4	44.2298	17,752.4	65.6741	17,752.4	67.1881	17,752.4	57.5343	17,752.4	59.2559	17,752.4	53.5988	17,752.4	53.0984	17,752.4	46.3842	17,752.4	52.826	17,752.4	43.1746	17,752.4	46.2528	17,752.4	40.3671	17,752.4	38.9427	17,752.4	39.0463	17,752.4	54.2483	17,752.4	31.4569	17,752.4	50.0462	17,752.4	28.0842	17,752.4	59.1745	17,752.4	34.339	17,752.4	45.7643	17,752.4	6.92676	17,752.4	41.2747	17,752.4	28.7932	17,752.4	27.2381	17,752.4	28.2555	17,752.4	28.6188	17,752.4	29.5505	17,752.4	40.9895	17,752.4	44.2475	17,752.4	27.1534	17,752.4	43.605
18,379.4	80.9746	18,379.4	76.6255	18,379.4	76.4508	18,379.4	43.147	18,379.4	48.63	18,379.4	65.6468	18,379.4	65.8705	18,379.4	55.2744	18,379.4	52.6914	18,379.4	51.313	18,379.4	55.1234	18,379.4	47.7331	18,379.4	50.977	18,379.4	46.9262	18,379.4	36.9578	18,379.4	40.7187	18,379.4	28.3798	18,379.4	39.0266	18,379.4	53.4189	18,379.4	32.312	18,379.4	50.2795	18,379.4	29.2265	18,379.4	58.9389	18,379.4	34.8895	18,379.4	44.3246	18,379.4	18.5895	18,379.4	41.0539	18,379.4	30.2696	18,379.4	32.4264	18,379.4	30.4226	18,379.4	36.4127	18,379.4	30.98	18,379.4	40.4735	18,379.4	43.7759	18,379.4	33.0927	18,379.4	42.4176
19,026.9	80.738	19,026.9	76.1846	19,026.9	75.9019	19,026.9	53.4982	19,026.9	53.0589	19,026.9	65.3031	19,026.9	64.4928	19,026.9	54.0682	19,026.9	48.4298	19,026.9	51.1132	19,026.9	54.6064	19,026.9	48.4226	19,026.9	46.7077	19,026.9	45.0668	19,026.9	42.6472	19,026.9	40.965	19,026.9	28.3777	19,026.9	39.4522	19,026.9	52.7228	19,026.9	34.6656	19,026.9	51.3965	19,026.9	30.3295	19,026.9	58.783	19,026.9	32.9074	19,026.9	43.2266	19,026.9	25.1159	19,026.9	40.6387	19,026.9	26.4743	19,026.9	33.479	19,026.9	30.6632	19,026.9	36.4255	19,026.9	36.0027	19,026.9	40.9305	19,026.9	43.7663	19,026.9	36.3745	19,026.9	41.8062
19,697.8	80.9106	19,697.8	76.1541	19,697.8	75.7968	19,697.8	57.7951	19,697.8	56.5208	19,697.8	64.3385	19,697.8	63.6252	19,697.8	51.4677	19,697.8	35.125	19,697.8	51.8764	19,697.8	49.8193	19,697.8	47.0267	19,697.8	38.8018	19,697.8	44.9992	19,697.8	45.3373	19,697.8	43.0521	19,697.8	35.4354	19,697.8	39.8676	19,697.8	51.6978	19,697.8	34.254	19,697.8	53.5252	19,697.8	28.5906	19,697.8	59.1455	19,697.8	33.3303	19,697.8	43.3778	19,697.8	28.8847	19,697.8	39.9531	19,697.8	28.9567	19,697.8	33.8937	19,697.8	31.56	19,697.8	36.2334	19,697.8	36.8792	19,697.8	40.0951	19,697.8	44.6379	19,697.8	39.0612	19,697.8	42.4116
19,999.5	80.9383	19,999.5	76.1083	19,999.5	75.6827	19,999.5	57.9992	19,999.5	58.3271	19,999.5	64.1029	19,999.5	63.4387	19,999.5	50.9405	19,999.5	40.3186	19,999.5	52.1036	19,999.5	46.7076	19,999.5	47.9614	19,999.5	38.8305	19,999.5	48.849	19,999.5	46.8304	19,999.5	43.2521	19,999.5	30.527	19,999.5	42.0665	19,999.5	51.6532	19,999.5	30.9456	19,999.5	53.8702	19,999.5	23.8088	19,999.5	57.8846	19,999.5	25.8912	19,999.5	34.5956	19,999.5	36.092	19,999.5	44.2828	19,999.5	38.6797	19,999.5	38.3207	19,999.5	40.5191	19,999.5	39.4447	19,999.5	42.4505	19,999.5	40.4076	19,999.5	48.5454	19,999.5	44.4701	19,999.5	34.6954
