"SPL Horizontal"
"On-Axis"		"10°"		"-10°"		"20°"		"-20°"		"30°"		"-30°"		"40°"		"-40°"		"50°"		"-50°"		"60°"		"-60°"		"70°"		"-70°"		"80°"		"-80°"		"90°"		"-90°"		"100°"		"-100°"		"110°"		"-110°"		"120°"		"-120°"		"130°"		"-130°"		"140°"		"-140°"		"150°"		"-150°"		"160°"		"-160°"		"170°"		"-170°"		"180°"
"Frequency [Hz]"	"Sound Pessure Level [dB]  / [2.83V 1m] "	"Frequency [Hz]"	"Sound Pessure Level [dB]  / [2.83V 1m] "	"Frequency [Hz]"	"Sound Pessure Level [dB]  / [2.83V 1m] "	"Frequency [Hz]"	"Sound Pessure Level [dB]  / [2.83V 1m] "	"Frequency [Hz]"	"Sound Pessure Level [dB]  / [2.83V 1m] "	"Frequency [Hz]"	"Sound Pessure Level [dB]  / [2.83V 1m] "	"Frequency [Hz]"	"Sound Pessure Level [dB]  / [2.83V 1m] "	"Frequency [Hz]"	"Sound Pessure Level [dB]  / [2.83V 1m] "	"Frequency [Hz]"	"Sound Pessure Level [dB]  / [2.83V 1m] "	"Frequency [Hz]"	"Sound Pessure Level [dB]  / [2.83V 1m] "	"Frequency [Hz]"	"Sound Pessure Level [dB]  / [2.83V 1m] "	"Frequency [Hz]"	"Sound Pessure Level [dB]  / [2.83V 1m] "	"Frequency [Hz]"	"Sound Pessure Level [dB]  / [2.83V 1m] "	"Frequency [Hz]"	"Sound Pessure Level [dB]  / [2.83V 1m] "	"Frequency [Hz]"	"Sound Pessure Level [dB]  / [2.83V 1m] "	"Frequency [Hz]"	"Sound Pessure Level [dB]  / [2.83V 1m] "	"Frequency [Hz]"	"Sound Pessure Level [dB]  / [2.83V 1m] "	"Frequency [Hz]"	"Sound Pessure Level [dB]  / [2.83V 1m] "	"Frequency [Hz]"	"Sound Pessure Level [dB]  / [2.83V 1m] "	"Frequency [Hz]"	"Sound Pessure Level [dB]  / [2.83V 1m] "	"Frequency [Hz]"	"Sound Pessure Level [dB]  / [2.83V 1m] "	"Frequency [Hz]"	"Sound Pessure Level [dB]  / [2.83V 1m] "	"Frequency [Hz]"	"Sound Pessure Level [dB]  / [2.83V 1m] "	"Frequency [Hz]"	"Sound Pessure Level [dB]  / [2.83V 1m] "	"Frequency [Hz]"	"Sound Pessure Level [dB]  / [2.83V 1m] "	"Frequency [Hz]"	"Sound Pessure Level [dB]  / [2.83V 1m] "	"Frequency [Hz]"	"Sound Pessure Level [dB]  / [2.83V 1m] "	"Frequency [Hz]"	"Sound Pessure Level [dB]  / [2.83V 1m] "	"Frequency [Hz]"	"Sound Pessure Level [dB]  / [2.83V 1m] "	"Frequency [Hz]"	"Sound Pessure Level [dB]  / [2.83V 1m] "	"Frequency [Hz]"	"Sound Pessure Level [dB]  / [2.83V 1m] "	"Frequency [Hz]"	"Sound Pessure Level [dB]  / [2.83V 1m] "	"Frequency [Hz]"	"Sound Pessure Level [dB]  / [2.83V 1m] "	"Frequency [Hz]"	"Sound Pessure Level [dB]  / [2.83V 1m] "	"Frequency [Hz]"	"Sound Pessure Level [dB]  / [2.83V 1m] "	"Frequency [Hz]"	"Sound Pessure Level [dB]  / [2.83V 1m] "
20.5078	37.5621	20.5078	37.3952	20.5078	37.7812	20.5078	37.2687	20.5078	38.0569	20.5078	37.1677	20.5078	38.3826	20.5078	37.0784	20.5078	38.7414	20.5078	36.9897	20.5078	39.11	20.5078	36.894	20.5078	39.4636	20.5078	36.7862	20.5078	39.7791	20.5078	36.6644	20.5078	40.0374	20.5078	36.5316	20.5078	40.2232	20.5078	36.3984	20.5078	40.3254	20.5078	36.2853	20.5078	40.3364	20.5078	36.2231	20.5078	40.2524	20.5078	36.2478	20.5078	40.0736	20.5078	36.3897	20.5078	39.8034	20.5078	36.661	20.5078	39.4495	20.5078	37.0485	20.5078	39.0236	20.5078	37.5189	20.5078	38.5425	20.5078	38.0302
21.9727	41.6527	21.9727	41.3224	21.9727	41.9861	21.9727	41.0053	21.9727	42.3128	21.9727	40.71	21.9727	42.6238	21.9727	40.4439	21.9727	42.9122	21.9727	40.2136	21.9727	43.1727	21.9727	40.0256	21.9727	43.4006	21.9727	39.8869	21.9727	43.5906	21.9727	39.8044	21.9727	43.7363	21.9727	39.7834	21.9727	43.8302	21.9727	39.8261	21.9727	43.8649	21.9727	39.9314	21.9727	43.8347	21.9727	40.0957	21.9727	43.7368	21.9727	40.3138	21.9727	43.5717	21.9727	40.5806	21.9727	43.3437	21.9727	40.8901	21.9727	43.06	21.9727	41.2352	21.9727	42.7308	21.9727	41.6057	21.9727	42.3688	21.9727	41.9886
23.4375	46.383	23.4375	46.3264	23.4375	46.4403	23.4375	46.2732	23.4375	46.4966	23.4375	46.2263	23.4375	46.551	23.4375	46.1889	23.4375	46.6034	23.4375	46.1635	23.4375	46.6542	23.4375	46.1515	23.4375	46.7039	23.4375	46.153	23.4375	46.7527	23.4375	46.1668	23.4375	46.8	23.4375	46.1909	23.4375	46.8443	23.4375	46.2234	23.4375	46.8835	23.4375	46.2629	23.4375	46.9142	23.4375	46.3087	23.4375	46.933	23.4375	46.3607	23.4375	46.9365	23.4375	46.4194	23.4375	46.9224	23.4375	46.4848	23.4375	46.8902	23.4375	46.5561	23.4375	46.8411	23.4375	46.6313	23.4375	46.7785	23.4375	46.7069
24.9023	48.0032	24.9023	47.9521	24.9023	48.0554	24.9023	47.9037	24.9023	48.1072	24.9023	47.8597	24.9023	48.1574	24.9023	47.8219	24.9023	48.2051	24.9023	47.7915	24.9023	48.2498	24.9023	47.7696	24.9023	48.291	24.9023	47.7569	24.9023	48.3279	24.9023	47.7539	24.9023	48.3594	24.9023	47.7607	24.9023	48.3838	24.9023	47.777	24.9023	48.3994	24.9023	47.8023	24.9023	48.4043	24.9023	47.8357	24.9023	48.3973	24.9023	47.8761	24.9023	48.378	24.9023	47.9222	24.9023	48.3469	24.9023	47.973	24.9023	48.3054	24.9023	48.0275	24.9023	48.2558	24.9023	48.0845	24.9023	48.2008	24.9023	48.1429
26.3672	49.0549	26.3672	49.0146	26.3672	49.0945	26.3672	48.9744	26.3672	49.132	26.3672	48.9349	26.3672	49.1661	26.3672	48.8965	26.3672	49.195	26.3672	48.8589	26.3672	49.217	26.3672	48.8219	26.3672	49.2301	26.3672	48.7845	26.3672	49.2329	26.3672	48.7462	26.3672	49.2243	26.3672	48.7066	26.3672	49.2039	26.3672	48.666	26.3672	49.1719	26.3672	48.6259	26.3672	49.1288	26.3672	48.589	26.3672	49.0756	26.3672	48.5589	26.3672	49.0129	26.3672	48.5401	26.3672	48.942	26.3672	48.5369	26.3672	48.8652	26.3672	48.5524	26.3672	48.786	26.3672	48.5878	26.3672	48.7094	26.3672	48.6415
27.832	52.0096	27.832	52.0192	27.832	51.9987	27.832	52.0273	27.832	51.9867	27.832	52.0336	27.832	51.9733	27.832	52.0376	27.832	51.9582	27.832	52.0391	27.832	51.941	27.832	52.0376	27.832	51.9215	27.832	52.0329	27.832	51.8999	27.832	52.0246	27.832	51.8768	27.832	52.0123	27.832	51.8531	27.832	51.9956	27.832	51.83	27.832	51.9741	27.832	51.8089	27.832	51.948	27.832	51.7906	27.832	51.9181	27.832	51.7759	27.832	51.8859	27.832	51.7654	27.832	51.8533	27.832	51.7595	27.832	51.823	27.832	51.7591	27.832	51.7972	27.832	51.7649	27.832	51.7776
29.2969	53.0278	29.2969	53.025	29.2969	53.0311	29.2969	53.0231	29.2969	53.0346	29.2969	53.0222	29.2969	53.0381	29.2969	53.023	29.2969	53.0414	29.2969	53.0254	29.2969	53.0445	29.2969	53.0294	29.2969	53.0477	29.2969	53.0344	29.2969	53.0517	29.2969	53.0393	29.2969	53.0572	29.2969	53.0435	29.2969	53.0652	29.2969	53.0466	29.2969	53.0761	29.2969	53.0488	29.2969	53.0892	29.2969	53.0512	29.2969	53.1033	29.2969	53.055	29.2969	53.1161	29.2969	53.0615	29.2969	53.1257	29.2969	53.0711	29.2969	53.1302	29.2969	53.0834	29.2969	53.1288	29.2969	53.0973	29.2969	53.122	29.2969	53.1108
30.7617	53.8461	30.7617	53.8712	30.7617	53.8201	30.7617	53.8946	30.7617	53.7936	30.7617	53.9154	30.7617	53.7669	30.7617	53.9326	30.7617	53.7397	30.7617	53.9451	30.7617	53.7118	30.7617	53.9517	30.7617	53.6828	30.7617	53.9515	30.7617	53.6527	30.7617	53.9433	30.7617	53.6217	30.7617	53.9262	30.7617	53.591	30.7617	53.8998	30.7617	53.5621	30.7617	53.8641	30.7617	53.5367	30.7617	53.8203	30.7617	53.5163	30.7617	53.7706	30.7617	53.5023	30.7617	53.718	30.7617	53.4951	30.7617	53.666	30.7617	53.4953	30.7617	53.618	30.7617	53.5031	30.7617	53.5766	30.7617	53.5189	30.7617	53.5434
32.2266	56.1263	32.2266	56.1235	32.2266	56.117	32.2266	56.1095	32.2266	56.0955	32.2266	56.0856	32.2266	56.0618	32.2266	56.0532	32.2266	56.0166	32.2266	56.0141	32.2266	55.9609	32.2266	55.9698	32.2266	55.8961	32.2266	55.9212	32.2266	55.8243	32.2266	55.8689	32.2266	55.748	32.2266	55.8127	32.2266	55.6698	32.2266	55.7525	32.2266	55.5925	32.2266	55.6882	32.2266	55.5188	32.2266	55.6205	32.2266	55.4512	32.2266	55.551	32.2266	55.3917	32.2266	55.4825	32.2266	55.3427	32.2266	55.4184	32.2266	55.3062	32.2266	55.3627	32.2266	55.2843	32.2266	55.319	32.2266	55.2788	32.2266	55.2905
33.6914	57.7715	33.6914	57.7746	33.6914	57.7608	33.6914	57.7695	33.6914	57.7428	33.6914	57.7561	33.6914	57.7183	33.6914	57.7342	33.6914	57.6878	33.6914	57.7037	33.6914	57.6518	33.6914	57.6649	33.6914	57.6111	33.6914	57.618	33.6914	57.5661	33.6914	57.5635	33.6914	57.5175	33.6914	57.5027	33.6914	57.4659	33.6914	57.4371	33.6914	57.4121	33.6914	57.3691	33.6914	57.3569	33.6914	57.3014	33.6914	57.3016	33.6914	57.2374	33.6914	57.2477	33.6914	57.1805	33.6914	57.1971	33.6914	57.1339	33.6914	57.1522	33.6914	57.1003	33.6914	57.1157	33.6914	57.0816	33.6914	57.0904	33.6914	57.0784
35.1562	59.2163	35.1562	59.22	35.1562	59.2061	35.1562	59.2168	35.1562	59.1898	35.1562	59.2066	35.1562	59.1678	35.1562	59.189	35.1562	59.1401	35.1562	59.1641	35.1562	59.1066	35.1562	59.1322	35.1562	59.0674	35.1562	59.0934	35.1562	59.0224	35.1562	59.0481	35.1562	58.9722	35.1562	58.997	35.1562	58.9175	35.1562	58.9409	35.1562	58.86	35.1562	58.8814	35.1562	58.8016	35.1562	58.8205	35.1562	58.7449	35.1562	58.7607	35.1562	58.6926	35.1562	58.7049	35.1562	58.6471	35.1562	58.6559	35.1562	58.6109	35.1562	58.6166	35.1562	58.5859	35.1562	58.5889	35.1562	58.5734	35.1562	58.5743
36.6211	60.9652	36.6211	60.9602	36.6211	60.9608	36.6211	60.9451	36.6211	60.9479	36.6211	60.9195	36.6211	60.9269	36.6211	60.8833	36.6211	60.8984	36.6211	60.8367	36.6211	60.8623	36.6211	60.7803	36.6211	60.8184	36.6211	60.715	36.6211	60.7661	36.6211	60.6418	36.6211	60.7055	36.6211	60.5623	36.6211	60.6366	36.6211	60.4784	36.6211	60.5607	36.6211	60.3926	36.6211	60.4795	36.6211	60.3082	36.6211	60.3958	36.6211	60.229	36.6211	60.313	36.6211	60.1592	36.6211	60.2348	36.6211	60.1029	36.6211	60.1653	36.6211	60.0637	36.6211	60.1084	36.6211	60.0442	36.6211	60.0676	36.6211	60.0456
38.0859	61.5234	38.0859	61.5337	38.0859	61.5115	38.0859	61.5415	38.0859	61.4989	38.0859	61.546	38.0859	61.4859	38.0859	61.5461	38.0859	61.4726	38.0859	61.5413	38.0859	61.4587	38.0859	61.5311	38.0859	61.4431	38.0859	61.5151	38.0859	61.425	38.0859	61.4936	38.0859	61.4029	38.0859	61.467	38.0859	61.3763	38.0859	61.4362	38.0859	61.3449	38.0859	61.4023	38.0859	61.3098	38.0859	61.3662	38.0859	61.2729	38.0859	61.3291	38.0859	61.2371	38.0859	61.292	38.0859	61.2057	38.0859	61.2562	38.0859	61.182	38.0859	61.2233	38.0859	61.1684	38.0859	61.1957	38.0859	61.1665	38.0859	61.176
39.5508	63.0851	39.5508	63.0855	39.5508	63.0795	39.5508	63.0799	39.5508	63.0696	39.5508	63.0676	39.5508	63.0563	39.5508	63.0483	39.5508	63.0399	39.5508	63.0221	39.5508	63.0209	39.5508	62.9896	39.5508	62.9988	39.5508	62.9519	39.5508	62.973	39.5508	62.9105	39.5508	62.9429	39.5508	62.8674	39.5508	62.908	39.5508	62.8246	39.5508	62.8685	39.5508	62.784	39.5508	62.8253	39.5508	62.7469	39.5508	62.7805	39.5508	62.714	39.5508	62.7365	39.5508	62.6853	39.5508	62.6964	39.5508	62.661	39.5508	62.6631	39.5508	62.6415	39.5508	62.639	39.5508	62.6279	39.5508	62.6252	39.5508	62.6219
41.0156	63.9618	41.0156	63.9608	41.0156	63.9624	41.0156	63.9593	41.0156	63.9625	41.0156	63.9576	41.0156	63.9625	41.0156	63.9561	41.0156	63.9627	41.0156	63.9552	41.0156	63.963	41.0156	63.955	41.0156	63.9635	41.0156	63.9552	41.0156	63.9637	41.0156	63.9553	41.0156	63.9629	41.0156	63.9548	41.0156	63.9601	41.0156	63.953	41.0156	63.9546	41.0156	63.9497	41.0156	63.9459	41.0156	63.9447	41.0156	63.9344	41.0156	63.9379	41.0156	63.9214	41.0156	63.9294	41.0156	63.9086	41.0156	63.9195	41.0156	63.898	41.0156	63.9092	41.0156	63.8914	41.0156	63.8998	41.0156	63.8897	41.0156	63.8928
42.4805	65.111	42.4805	65.1548	42.4805	65.0565	42.4805	65.1862	42.4805	64.9929	42.4805	65.2031	42.4805	64.9217	42.4805	65.204	42.4805	64.8443	42.4805	65.1872	42.4805	64.762	42.4805	65.1519	42.4805	64.6763	42.4805	65.0976	42.4805	64.5892	42.4805	65.0248	42.4805	64.5024	42.4805	64.935	42.4805	64.418	42.4805	64.8312	42.4805	64.3381	42.4805	64.7179	42.4805	64.2646	42.4805	64.6004	42.4805	64.1995	42.4805	64.4849	42.4805	64.1449	42.4805	64.3769	42.4805	64.1029	42.4805	64.2814	42.4805	64.0755	42.4805	64.2015	42.4805	64.0643	42.4805	64.1393	42.4805	64.0708	42.4805	64.0957
43.9453	66.0647	43.9453	66.0798	43.9453	66.0386	43.9453	66.0838	43.9453	66.0021	43.9453	66.0768	43.9453	65.9556	43.9453	66.0591	43.9453	65.9002	43.9453	66.031	43.9453	65.8372	43.9453	65.9932	43.9453	65.7683	43.9453	65.9465	43.9453	65.6955	43.9453	65.8918	43.9453	65.6211	43.9453	65.8304	43.9453	65.5477	43.9453	65.7638	43.9453	65.4778	43.9453	65.694	43.9453	65.4138	43.9453	65.623	43.9453	65.3583	43.9453	65.553	43.9453	65.3133	43.9453	65.4862	43.9453	65.2806	43.9453	65.4245	43.9453	65.2615	43.9453	65.3699	43.9453	65.2567	43.9453	65.3241	43.9453	65.2661	43.9453	65.289
45.4102	67.0431	45.4102	67.0453	45.4102	67.0314	45.4102	67.0381	45.4102	67.0101	45.4102	67.0221	45.4102	66.9799	45.4102	66.9982	45.4102	66.9414	45.4102	66.967	45.4102	66.896	45.4102	66.9296	45.4102	66.8453	45.4102	66.8868	45.4102	66.7911	45.4102	66.8395	45.4102	66.7352	45.4102	66.7888	45.4102	66.6794	45.4102	66.7358	45.4102	66.6255	45.4102	66.6819	45.4102	66.5751	45.4102	66.6287	45.4102	66.5294	45.4102	66.578	45.4102	66.4898	45.4102	66.5315	45.4102	66.4575	45.4102	66.4909	45.4102	66.4335	45.4102	66.4578	45.4102	66.4187	45.4102	66.4334	45.4102	66.4136	45.4102	66.4185
46.875	67.9584	46.875	67.9576	46.875	67.9503	46.875	67.9477	46.875	67.9336	46.875	67.929	46.875	67.909	46.875	67.9021	46.875	67.8774	46.875	67.868	46.875	67.8399	46.875	67.8279	46.875	67.7977	46.875	67.7833	46.875	67.7521	46.875	67.7359	46.875	67.7046	46.875	67.6875	46.875	67.6566	46.875	67.6396	46.875	67.6095	46.875	67.5937	46.875	67.5648	46.875	67.5509	46.875	67.5236	46.875	67.5124	46.875	67.4874	46.875	67.4789	46.875	67.4571	46.875	67.4511	46.875	67.4337	46.875	67.4298	46.875	67.4176	46.875	67.4155	46.875	67.4091	46.875	67.4085
48.3398	68.6035	48.3398	68.6087	48.3398	68.5924	48.3398	68.6075	48.3398	68.5761	48.3398	68.5996	48.3398	68.5555	48.3398	68.5852	48.3398	68.5315	48.3398	68.5648	48.3398	68.5051	48.3398	68.5392	48.3398	68.4771	48.3398	68.5095	48.3398	68.4481	48.3398	68.4769	48.3398	68.4188	48.3398	68.4427	48.3398	68.3898	48.3398	68.4081	48.3398	68.3613	48.3398	68.3741	48.3398	68.3339	48.3398	68.3419	48.3398	68.3081	48.3398	68.3121	48.3398	68.2845	48.3398	68.2857	48.3398	68.2641	48.3398	68.2635	48.3398	68.2476	48.3398	68.2463	48.3398	68.2359	48.3398	68.2347	48.3398	68.2295	48.3398	68.2291
51.2695	69.9552	51.2695	69.9614	51.2695	69.9394	51.2695	69.9581	51.2695	69.9144	51.2695	69.9454	51.2695	69.8809	51.2695	69.9238	51.2695	69.8397	51.2695	69.894	51.2695	69.7919	51.2695	69.8569	51.2695	69.7388	51.2695	69.8138	51.2695	69.682	51.2695	69.7657	51.2695	69.6233	51.2695	69.7141	51.2695	69.5645	51.2695	69.6604	51.2695	69.5076	51.2695	69.6058	51.2695	69.4546	51.2695	69.5517	51.2695	69.4073	51.2695	69.4996	51.2695	69.3676	51.2695	69.4509	51.2695	69.3368	51.2695	69.4069	51.2695	69.3161	51.2695	69.3693	51.2695	69.306	51.2695	69.3393	51.2695	69.3068	51.2695	69.3181
52.7344	70.6026	52.7344	70.6026	52.7344	70.5923	52.7344	70.5924	52.7344	70.5721	52.7344	70.5723	52.7344	70.5426	52.7344	70.5427	52.7344	70.5048	52.7344	70.5047	52.7344	70.4598	52.7344	70.4592	52.7344	70.4089	52.7344	70.4077	52.7344	70.3537	52.7344	70.3517	52.7344	70.2957	52.7344	70.2928	52.7344	70.2366	52.7344	70.2328	52.7344	70.1782	52.7344	70.1736	52.7344	70.1221	52.7344	70.117	52.7344	70.0702	52.7344	70.065	52.7344	70.0239	52.7344	70.0191	52.7344	69.9848	52.7344	69.9808	52.7344	69.9542	52.7344	69.9511	52.7344	69.9329	52.7344	69.9311	52.7344	69.9218	52.7344	69.9212
54.1992	71.0594	54.1992	71.0606	54.1992	71.049	54.1992	71.0527	54.1992	71.03	54.1992	71.0357	54.1992	71.0029	54.1992	71.0101	54.1992	70.9686	54.1992	70.9768	54.1992	70.9284	54.1992	70.9369	54.1992	70.8834	54.1992	70.8915	54.1992	70.8352	54.1992	70.8423	54.1992	70.7851	54.1992	70.7909	54.1992	70.7348	54.1992	70.739	54.1992	70.6858	54.1992	70.6884	54.1992	70.6394	54.1992	70.6407	54.1992	70.5971	54.1992	70.5974	54.1992	70.56	54.1992	70.5598	54.1992	70.5292	54.1992	70.5288	54.1992	70.5055	54.1992	70.5051	54.1992	70.4893	54.1992	70.4891	54.1992	70.4811	54.1992	70.4811
55.6641	71.5168	55.6641	71.5145	55.6641	71.51	55.6641	71.5032	55.6641	71.4943	55.6641	71.4833	55.6641	71.4704	55.6641	71.4554	55.6641	71.4392	55.6641	71.4205	55.6641	71.4018	55.6641	71.3799	55.6641	71.3595	55.6641	71.3351	55.6641	71.3139	55.6641	71.2875	55.6641	71.2664	55.6641	71.2389	55.6641	71.2186	55.6641	71.1908	55.6641	71.1718	55.6641	71.1447	55.6641	71.1274	55.6641	71.1019	55.6641	71.0866	55.6641	71.0638	55.6641	71.0505	55.6641	71.0311	55.6641	71.0202	55.6641	71.0047	55.6641	70.9962	55.6641	70.9851	55.6641	70.9792	55.6641	70.9725	55.6641	70.9696	55.6641	70.9673
58.5938	72.3101	58.5938	72.3064	58.5938	72.3035	58.5938	72.2928	58.5938	72.2871	58.5938	72.2698	58.5938	72.2611	58.5938	72.2381	58.5938	72.2267	58.5938	72.1989	58.5938	72.1849	58.5938	72.1536	58.5938	72.1371	58.5938	72.1038	58.5938	72.085	58.5938	72.0511	58.5938	72.0304	58.5938	71.9974	58.5938	71.9751	58.5938	71.9444	58.5938	71.9209	58.5938	71.8937	58.5938	71.8697	58.5938	71.8468	58.5938	71.823	58.5938	71.8048	58.5938	71.7824	58.5938	71.7688	58.5938	71.7488	58.5938	71.7394	58.5938	71.7231	58.5938	71.7171	58.5938	71.7056	58.5938	71.7023	58.5938	71.6963	58.5938	71.6953
60.0586	72.6979	60.0586	72.6942	60.0586	72.6917	60.0586	72.6809	60.0586	72.6761	60.0586	72.6584	60.0586	72.6515	60.0586	72.6276	60.0586	72.619	60.0586	72.5895	60.0586	72.5797	60.0586	72.5457	60.0586	72.535	60.0586	72.4978	60.0586	72.4863	60.0586	72.4476	60.0586	72.4353	60.0586	72.3968	60.0586	72.3836	60.0586	72.347	60.0586	72.3328	60.0586	72.2999	60.0586	72.2846	60.0586	72.2564	60.0586	72.2405	60.0586	72.2178	60.0586	72.2018	60.0586	72.1847	60.0586	72.1698	60.0586	72.1577	60.0586	72.145	60.0586	72.1373	60.0586	72.128	60.0586	72.1239	60.0586	72.1189	60.0586	72.1176
62.9883	73.4592	62.9883	73.4547	62.9883	73.4536	62.9883	73.4402	62.9883	73.4382	62.9883	73.4162	62.9883	73.4138	62.9883	73.3836	62.9883	73.3814	62.9883	73.3437	62.9883	73.3422	62.9883	73.298	62.9883	73.298	62.9883	73.2483	62.9883	73.2503	62.9883	73.1965	62.9883	73.2009	62.9883	73.1445	62.9883	73.1514	62.9883	73.0941	62.9883	73.1033	62.9883	73.0469	62.9883	73.0579	62.9883	73.0043	62.9883	73.0165	62.9883	72.9674	62.9883	72.9798	62.9883	72.937	62.9883	72.9485	62.9883	72.9135	62.9883	72.9233	62.9883	72.8973	62.9883	72.9044	62.9883	72.8884	62.9883	72.8921	62.9883	72.8867
64.4531	73.7622	64.4531	73.7575	64.4531	73.7567	64.4531	73.7427	64.4531	73.7411	64.4531	73.7183	64.4531	73.7163	64.4531	73.6853	64.4531	73.6832	64.4531	73.645	64.4531	73.6433	64.4531	73.5989	64.4531	73.5982	64.4531	73.5491	64.4531	73.5495	64.4531	73.4973	64.4531	73.4991	64.4531	73.4455	64.4531	73.4488	64.4531	73.3955	64.4531	73.4001	64.4531	73.349	64.4531	73.3544	64.4531	73.307	64.4531	73.313	64.4531	73.2707	64.4531	73.2766	64.4531	73.2407	64.4531	73.246	64.4531	73.2173	64.4531	73.2217	64.4531	73.2008	64.4531	73.2039	64.4531	73.1913	64.4531	73.1928	64.4531	73.1886
67.3828	74.2607	67.3828	74.2548	67.3828	74.2563	67.3828	74.2387	67.3828	74.2418	67.3828	74.2132	67.3828	74.2177	67.3828	74.1791	67.3828	74.185	67.3828	74.138	67.3828	74.1451	67.3828	74.0914	67.3828	74.0995	67.3828	74.0412	67.3828	74.05	67.3828	73.9894	67.3828	73.9985	67.3828	73.9378	67.3828	73.9469	67.3828	73.8883	67.3828	73.8969	67.3828	73.8425	67.3828	73.8502	67.3828	73.8014	67.3828	73.808	67.3828	73.7661	67.3828	73.7713	67.3828	73.737	67.3828	73.7409	67.3828	73.7144	67.3828	73.7171	67.3828	73.6984	67.3828	73.7001	67.3828	73.689	67.3828	73.6897	67.3828	73.6861
68.8477	74.456	68.8477	74.4498	68.8477	74.4516	68.8477	74.4332	68.8477	74.4368	68.8477	74.4069	68.8477	74.4123	68.8477	74.3721	68.8477	74.3792	68.8477	74.3302	68.8477	74.3388	68.8477	74.2831	68.8477	74.2929	68.8477	74.2326	68.8477	74.2434	68.8477	74.1809	68.8477	74.1924	68.8477	74.1301	68.8477	74.1418	68.8477	74.0818	68.8477	74.0933	68.8477	74.0377	68.8477	74.0485	68.8477	73.9989	68.8477	74.0085	68.8477	73.966	68.8477	73.9743	68.8477	73.9395	68.8477	73.9461	68.8477	73.9193	68.8477	73.9243	68.8477	73.9053	68.8477	73.9086	68.8477	73.8974	68.8477	73.899	68.8477	73.8953
71.7773	75.0631	71.7773	75.0565	71.7773	75.0582	71.7773	75.0386	71.7773	75.0422	71.7773	75.0102	71.7773	75.0156	71.7773	74.9723	71.7773	74.9798	71.7773	74.9266	71.7773	74.9362	71.7773	74.875	71.7773	74.8867	71.7773	74.8195	71.7773	74.8333	71.7773	74.7626	71.7773	74.7782	71.7773	74.7065	71.7773	74.7234	71.7773	74.6532	71.7773	74.6708	71.7773	74.6046	71.7773	74.6222	71.7773	74.5619	71.7773	74.5787	71.7773	74.5261	71.7773	74.5414	71.7773	74.4974	71.7773	74.5105	71.7773	74.476	71.7773	74.4864	71.7773	74.4616	71.7773	74.4688	71.7773	74.4539	71.7773	74.4576	71.7773	74.4527
74.707	75.6745	74.707	75.6682	74.707	75.6689	74.707	75.6503	74.707	75.6517	74.707	75.6214	74.707	75.6237	74.707	75.5828	74.707	75.5861	74.707	75.536	74.707	75.5407	74.707	75.4829	74.707	75.4893	74.707	75.4259	74.707	75.434	74.707	75.3672	74.707	75.3772	74.707	75.3089	74.707	75.3207	74.707	75.2534	74.707	75.2666	74.707	75.2022	74.707	75.2164	74.707	75.1569	74.707	75.1713	74.707	75.1183	74.707	75.1323	74.707	75.0872	74.707	75.0998	74.707	75.0638	74.707	75.0742	74.707	75.0479	74.707	75.0553	74.707	75.0394	74.707	75.0432	74.707	75.0379
77.6367	75.9471	77.6367	75.9418	77.6367	75.9407	77.6367	75.9248	77.6367	75.9229	77.6367	75.897	77.6367	75.8946	77.6367	75.8595	77.6367	75.857	77.6367	75.814	77.6367	75.812	77.6367	75.7626	77.6367	75.7616	77.6367	75.7075	77.6367	75.7078	77.6367	75.6512	77.6367	75.653	77.6367	75.596	77.6367	75.5992	77.6367	75.5437	77.6367	75.5482	77.6367	75.4962	77.6367	75.5016	77.6367	75.4546	77.6367	75.4603	77.6367	75.4196	77.6367	75.425	77.6367	75.3914	77.6367	75.3961	77.6367	75.37	77.6367	75.3737	77.6367	75.3552	77.6367	75.3577	77.6367	75.3467	77.6367	75.3479	77.6367	75.3443
79.1016	76.1128	79.1016	76.1086	79.1016	76.1051	79.1016	76.0927	79.1016	76.0859	79.1016	76.0656	79.1016	76.0562	79.1016	76.0287	79.1016	76.0171	79.1016	75.9835	79.1016	75.9705	79.1016	75.9321	79.1016	75.9186	79.1016	75.8768	79.1016	75.8635	79.1016	75.8201	79.1016	75.8075	79.1016	75.7643	79.1016	75.753	79.1016	75.7116	79.1016	75.7017	79.1016	75.6637	79.1016	75.6553	79.1016	75.6218	79.1016	75.6147	79.1016	75.5866	79.1016	75.5807	79.1016	75.5581	79.1016	75.5533	79.1016	75.5364	79.1016	75.5327	79.1016	75.521	79.1016	75.5184	79.1016	75.5116	79.1016	75.5103	79.1016	75.5081
82.0312	76.7577	82.0312	76.7564	82.0312	76.7458	82.0312	76.7423	82.0312	76.7212	82.0312	76.716	82.0312	76.6846	82.0312	76.6788	82.0312	76.6374	82.0312	76.6324	82.0312	76.5814	82.0312	76.5787	82.0312	76.5189	82.0312	76.52	82.0312	76.4524	82.0312	76.4588	82.0312	76.3848	82.0312	76.3975	82.0312	76.3188	82.0312	76.3382	82.0312	76.2571	82.0312	76.2828	82.0312	76.202	82.0312	76.2325	82.0312	76.155	82.0312	76.1883	82.0312	76.1173	82.0312	76.1506	82.0312	76.0892	82.0312	76.1194	82.0312	76.0706	82.0312	76.0947	82.0312	76.0608	82.0312	76.0763	82.0312	76.0589	82.0312	76.0643
84.9609	77.1274	84.9609	77.1217	84.9609	77.1208	84.9609	77.1041	84.9609	77.1023	84.9609	77.0751	84.9609	77.0723	84.9609	77.0361	84.9609	77.0321	84.9609	76.9884	84.9609	76.9829	84.9609	76.9341	84.9609	76.9266	84.9609	76.8751	84.9609	76.8649	84.9609	76.8135	84.9609	76.7999	84.9609	76.7513	84.9609	76.7339	84.9609	76.6906	84.9609	76.6692	84.9609	76.6331	84.9609	76.608	84.9609	76.5803	84.9609	76.5527	84.9609	76.5334	84.9609	76.505	84.9609	76.493	84.9609	76.4663	84.9609	76.46	84.9609	76.4373	84.9609	76.4347	84.9609	76.4182	84.9609	76.4174	84.9609	76.4087	84.9609	76.4087
87.8906	77.07	87.8906	77.0526	87.8906	77.0775	87.8906	77.0258	87.8906	77.0756	87.8906	76.9908	87.8906	77.0651	87.8906	76.9495	87.8906	77.0476	87.8906	76.9043	87.8906	77.0249	87.8906	76.858	87.8906	76.9991	87.8906	76.8136	87.8906	76.972	87.8906	76.7738	87.8906	76.9455	87.8906	76.7408	87.8906	76.9207	87.8906	76.7163	87.8906	76.8984	87.8906	76.7008	87.8906	76.8789	87.8906	76.6944	87.8906	76.8617	87.8906	76.696	87.8906	76.8463	87.8906	76.7042	87.8906	76.8318	87.8906	76.7172	87.8906	76.8172	87.8906	76.7332	87.8906	76.802	87.8906	76.7507	87.8906	76.7858	87.8906	76.7685
90.8203	77.7783	90.8203	77.7707	90.8203	77.7727	90.8203	77.7501	90.8203	77.7545	90.8203	77.7175	90.8203	77.725	90.8203	77.6746	90.8203	77.6863	90.8203	77.624	90.8203	77.6409	90.8203	77.5684	90.8203	77.5916	90.8203	77.5113	90.8203	77.5415	90.8203	77.4559	90.8203	77.4932	90.8203	77.4051	90.8203	77.4492	90.8203	77.3613	90.8203	77.4113	90.8203	77.3261	90.8203	77.3803	90.8203	77.3001	90.8203	77.3562	90.8203	77.2831	90.8203	77.3381	90.8203	77.2742	90.8203	77.3247	90.8203	77.272	90.8203	77.3143	90.8203	77.2748	90.8203	77.3053	90.8203	77.2808	90.8203	77.2968	90.8203	77.2885
95.2148	78.3074	95.2148	78.3055	95.2148	78.2958	95.2148	78.2904	95.2148	78.2713	95.2148	78.2631	95.2148	78.2348	95.2148	78.225	95.2148	78.1884	95.2148	78.1782	95.2148	78.1342	95.2148	78.1249	95.2148	78.0752	95.2148	78.0678	95.2148	78.0144	95.2148	78.0096	95.2148	77.9549	95.2148	77.9529	95.2148	77.8993	95.2148	77.9	95.2148	77.8499	95.2148	77.8526	95.2148	77.8079	95.2148	77.812	95.2148	77.7741	95.2148	77.7788	95.2148	77.7482	95.2148	77.7528	95.2148	77.7296	95.2148	77.7336	95.2148	77.7173	95.2148	77.7202	95.2148	77.71	95.2148	77.7118	95.2148	77.7069	95.2148	77.7075
98.1445	78.6394	98.1445	78.6388	98.1445	78.6254	98.1445	78.6242	98.1445	78.5973	98.1445	78.5969	98.1445	78.5564	98.1445	78.5589	98.1445	78.5051	98.1445	78.513	98.1445	78.4465	98.1445	78.4621	98.1445	78.3841	98.1445	78.4093	98.1445	78.3221	98.1445	78.3578	98.1445	78.2643	98.1445	78.3102	98.1445	78.2139	98.1445	78.2684	98.1445	78.1734	98.1445	78.2339	98.1445	78.1439	98.1445	78.2069	98.1445	78.1253	98.1445	78.187	98.1445	78.1163	98.1445	78.1729	98.1445	78.1151	98.1445	78.163	98.1445	78.1191	98.1445	78.1556	98.1445	78.1261	98.1445	78.1489	98.1445	78.1341	98.1445	78.1419
101.074	79.0581	101.074	79.0677	101.074	79.0296	101.074	79.0586	101.074	78.9832	101.074	79.0318	101.074	78.9206	101.074	78.9891	101.074	78.8446	101.074	78.9333	101.074	78.759	101.074	78.8675	101.074	78.6681	101.074	78.7951	101.074	78.5765	101.074	78.7199	101.074	78.4891	101.074	78.6452	101.074	78.41	101.074	78.574	101.074	78.3426	101.074	78.5085	101.074	78.2889	101.074	78.45	101.074	78.2498	101.074	78.3993	101.074	78.2247	101.074	78.3562	101.074	78.2121	101.074	78.32	101.074	78.2098	101.074	78.2899	101.074	78.2156	101.074	78.2648	101.074	78.2274	101.074	78.244
105.469	79.3736	105.469	79.3752	105.469	79.3569	105.469	79.3621	105.469	79.3255	105.469	79.3352	105.469	79.2806	105.469	79.2965	105.469	79.2243	105.469	79.2484	105.469	79.1591	105.469	79.1936	105.469	79.0885	105.469	79.1355	105.469	79.016	105.469	79.0775	105.469	78.9457	105.469	79.0226	105.469	78.8814	105.469	78.9735	105.469	78.8266	105.469	78.932	105.469	78.7838	105.469	78.8987	105.469	78.7545	105.469	78.8729	105.469	78.7386	105.469	78.8529	105.469	78.7349	105.469	78.8364	105.469	78.741	105.469	78.821	105.469	78.7539	105.469	78.8052	105.469	78.7704	105.469	78.7881
108.398	79.7071	108.398	79.7038	108.398	79.6935	108.398	79.6843	108.398	79.6637	108.398	79.65	108.398	79.6187	108.398	79.6029	108.398	79.5608	108.398	79.5459	108.398	79.4925	108.398	79.4822	108.398	79.4172	108.398	79.4154	108.398	79.3385	108.398	79.3488	108.398	79.2603	108.398	79.2856	108.398	79.1867	108.398	79.2284	108.398	79.1213	108.398	79.179	108.398	79.0673	108.398	79.1384	108.398	79.0266	108.398	79.1061	108.398	78.9999	108.398	79.0809	108.398	78.9865	108.398	79.0608	108.398	78.9841	108.398	79.044	108.398	78.9899	108.398	79.0287	108.398	79.0007	108.398	79.0142
112.793	80.0564	112.793	80.0546	112.793	80.042	112.793	80.0369	112.793	80.0119	112.793	80.0049	112.793	79.9677	112.793	79.9606	112.793	79.9117	112.793	79.907	112.793	79.8471	112.793	79.8474	112.793	79.7773	112.793	79.7853	112.793	79.7057	112.793	79.7237	112.793	79.6358	112.793	79.6657	112.793	79.5705	112.793	79.6132	112.793	79.5125	112.793	79.5676	112.793	79.4636	112.793	79.5291	112.793	79.4252	112.793	79.4971	112.793	79.3976	112.793	79.4705	112.793	79.3808	112.793	79.4478	112.793	79.3737	112.793	79.4279	112.793	79.3748	112.793	79.4101	112.793	79.3824	112.793	79.3947
117.188	80.5375	117.188	80.5362	117.188	80.5191	117.188	80.5157	117.188	80.4817	117.188	80.4775	117.188	80.427	117.188	80.424	117.188	80.3577	117.188	80.3586	117.188	80.2774	117.188	80.2855	117.188	80.1907	117.188	80.2091	117.188	80.1024	117.188	80.1338	117.188	80.0172	117.188	80.0634	117.188	79.9393	117.188	80.0008	117.188	79.8721	117.188	79.9475	117.188	79.8177	117.188	79.9036	117.188	79.777	117.188	79.8682	117.188	79.7497	117.188	79.8394	117.188	79.7346	117.188	79.8152	117.188	79.73	117.188	79.794	117.188	79.7336	117.188	79.7749	117.188	79.7435	117.188	79.7578
120.117	80.6638	120.117	80.6589	120.117	80.6484	120.117	80.6339	120.117	80.6135	120.117	80.59	120.117	80.561	120.117	80.5298	120.117	80.4935	120.117	80.4565	120.117	80.415	120.117	80.3743	120.117	80.3297	120.117	80.2879	120.117	80.2427	120.117	80.2022	120.117	80.1588	120.117	80.1215	120.117	80.0821	120.117	80.0493	120.117	80.0158	120.117	79.9879	120.117	79.9614	120.117	79.9384	120.117	79.919	120.117	79.9005	120.117	79.8877	120.117	79.8729	120.117	79.8656	120.117	79.8542	120.117	79.8506	120.117	79.8424	120.117	79.8411	120.117	79.8361	120.117	79.8358	120.117	79.8341
124.512	80.8895	124.512	80.8904	124.512	80.8681	124.512	80.8711	124.512	80.8276	124.512	80.8331	124.512	80.77	124.512	80.7787	124.512	80.6986	124.512	80.7118	124.512	80.6176	124.512	80.6368	124.512	80.5317	124.512	80.5586	124.512	80.4461	124.512	80.4823	124.512	80.3659	124.512	80.4123	124.512	80.2957	124.512	80.3523	124.512	80.2393	124.512	80.3044	124.512	80.1988	124.512	80.2693	124.512	80.1742	124.512	80.2458	124.512	80.1641	124.512	80.2318	124.512	80.1654	124.512	80.2242	124.512	80.1741	124.512	80.2196	124.512	80.1862	124.512	80.215	124.512	80.1983	124.512	80.2081
128.906	81.0678	128.906	81.0632	128.906	81.052	128.906	81.039	128.906	81.0162	128.906	80.997	128.906	80.962	128.906	80.9403	128.906	80.8922	128.906	80.8727	128.906	80.8105	128.906	80.7984	128.906	80.7214	128.906	80.722	128.906	80.63	128.906	80.6479	128.906	80.5414	128.906	80.5799	128.906	80.4607	128.906	80.5212	128.906	80.3923	128.906	80.4735	128.906	80.3394	128.906	80.4372	128.906	80.3038	128.906	80.4112	128.906	80.2852	128.906	80.393	128.906	80.2814	128.906	80.3795	128.906	80.2889	128.906	80.3675	128.906	80.3037	128.906	80.3544	128.906	80.3214	128.906	80.339
133.301	81.3142	133.301	81.3112	133.301	81.2939	133.301	81.2852	133.301	81.251	133.301	81.2381	133.301	81.1877	133.301	81.1729	133.301	81.1075	133.301	81.0938	133.301	81.0148	133.301	81.0058	133.301	80.9145	133.301	80.9141	133.301	80.8122	133.301	80.824	133.301	80.7132	133.301	80.7401	133.301	80.6221	133.301	80.6656	133.301	80.5429	133.301	80.6024	133.301	80.478	133.301	80.5508	133.301	80.429	133.301	80.5098	133.301	80.3957	133.301	80.4776	133.301	80.377	133.301	80.4519	133.301	80.3704	133.301	80.4305	133.301	80.3731	133.301	80.4121	133.301	80.3824	133.301	80.3959
139.16	81.2494	139.16	81.2495	139.16	81.2301	139.16	81.2307	139.16	81.1928	139.16	81.1947	139.16	81.1401	139.16	81.1443	139.16	81.0753	139.16	81.0837	139.16	81.0025	139.16	81.0177	139.16	80.9262	139.16	80.9515	139.16	80.8511	139.16	80.8897	139.16	80.7813	139.16	80.8361	139.16	80.7208	139.16	80.7933	139.16	80.6724	139.16	80.762	139.16	80.6381	139.16	80.7414	139.16	80.6184	139.16	80.7293	139.16	80.6125	139.16	80.7226	139.16	80.6184	139.16	80.7179	139.16	80.6328	139.16	80.7121	139.16	80.6518	139.16	80.7029	139.16	80.6716	139.16	80.6893
143.555	81.4189	143.555	81.419	143.555	81.3923	143.555	81.3934	143.555	81.3409	143.555	81.3448	143.555	81.2682	143.555	81.2778	143.555	81.1792	143.555	81.1984	143.555	81.0807	143.555	81.1136	143.555	80.98	143.555	81.0304	143.555	80.8842	143.555	80.9551	143.555	80.7996	143.555	80.8922	143.555	80.7308	143.555	80.844	143.555	80.6804	143.555	80.8106	143.555	80.6489	143.555	80.7895	143.555	80.6351	143.555	80.7774	143.555	80.6361	143.555	80.7703	143.555	80.6483	143.555	80.7644	143.555	80.6676	143.555	80.757	143.555	80.69	143.555	80.7462	143.555	80.712	143.555	80.7312
147.949	81.6261	147.949	81.6165	147.949	81.6065	147.949	81.5788	147.949	81.5586	147.949	81.5158	147.949	81.4849	147.949	81.4322	147.949	81.3899	147.949	81.3347	147.949	81.2795	147.949	81.2307	147.949	81.1608	147.949	81.1283	147.949	81.0418	147.949	81.0349	147.949	80.9304	147.949	80.9556	147.949	80.8335	147.949	80.8934	147.949	80.7564	147.949	80.8483	147.949	80.7019	147.949	80.818	147.949	80.6702	147.949	80.7991	147.949	80.6593	147.949	80.7874	147.949	80.6649	147.949	80.7793	147.949	80.6815	147.949	80.7711	147.949	80.7035	147.949	80.7604	147.949	80.7259	147.949	80.7454
153.809	81.6562	153.809	81.6517	153.809	81.6328	153.809	81.6202	153.809	81.5817	153.809	81.5638	153.809	81.5048	153.809	81.4856	153.809	81.4056	153.809	81.3904	153.809	81.2894	153.809	81.2842	153.809	81.1631	153.809	81.1742	153.809	81.0353	153.809	81.0683	153.809	80.9146	153.809	80.974	153.809	80.809	153.809	80.8968	153.809	80.7244	153.809	80.8391	153.809	80.6639	153.809	80.8001	153.809	80.6276	153.809	80.776	153.809	80.6132	153.809	80.7615	153.809	80.6165	153.809	80.7511	153.809	80.6325	153.809	80.7401	153.809	80.6558	153.809	80.7253	153.809	80.6815	153.809	80.7055
159.668	81.6736	159.668	81.6729	159.668	81.6492	159.668	81.6482	159.668	81.6005	159.668	81.6016	159.668	81.5291	159.668	81.5362	159.668	81.4382	159.668	81.4565	159.668	81.3321	159.668	81.3675	159.668	81.2161	159.668	81.2748	159.668	81.0966	159.668	81.1845	159.668	80.9808	159.668	81.1023	159.668	80.8759	159.668	81.0329	159.668	80.789	159.668	80.9789	159.668	80.7254	159.668	80.9404	159.668	80.6877	159.668	80.9148	159.668	80.6753	159.668	80.8973	159.668	80.6846	159.668	80.8826	159.668	80.7096	159.668	80.8657	159.668	80.7436	159.668	80.8435	159.668	80.7803	159.668	80.8147
165.527	81.6683	165.527	81.6591	165.527	81.6473	165.527	81.6203	165.527	81.5978	165.527	81.5551	165.527	81.5236	165.527	81.4685	165.527	81.4305	165.527	81.3673	165.527	81.3256	165.527	81.2596	165.527	81.2163	165.527	81.1535	165.527	81.1099	165.527	81.0567	165.527	81.0127	165.527	80.9753	165.527	80.9294	165.527	80.9136	165.527	80.8633	165.527	80.8732	165.527	80.8159	165.527	80.8527	165.527	80.7877	165.527	80.8484	165.527	80.7776	165.527	80.8543	165.527	80.783	165.527	80.8639	165.527	80.7998	165.527	80.871	165.527	80.8223	165.527	80.8711	165.527	80.8448	165.527	80.8622
171.387	81.6404	171.387	81.6261	171.387	81.6243	171.387	81.5825	171.387	81.5787	171.387	81.5124	171.387	81.5065	171.387	81.4208	171.387	81.4124	171.387	81.3142	171.387	81.3031	171.387	81.2005	171.387	81.1865	171.387	81.0883	171.387	81.0714	171.387	80.9862	171.387	80.966	171.387	80.9014	171.387	80.8773	171.387	80.8386	171.387	80.8095	171.387	80.7994	171.387	80.7644	171.387	80.7816	171.387	80.7409	171.387	80.7807	171.387	80.736	171.387	80.7899	171.387	80.745	171.387	80.8027	171.387	80.7625	171.387	80.8131	171.387	80.7829	171.387	80.8174	171.387	80.8011	171.387	80.8133
177.246	81.574	177.246	81.573	177.246	81.5437	177.246	81.5417	177.246	81.4831	177.246	81.4829	177.246	81.3953	177.246	81.4014	177.246	81.2851	177.246	81.3039	177.246	81.1594	177.246	81.1985	177.246	81.0266	177.246	81.0938	177.246	80.8959	177.246	80.998	177.246	80.7767	177.246	80.9178	177.246	80.677	177.246	80.8569	177.246	80.6026	177.246	80.8158	177.246	80.556	177.246	80.7918	177.246	80.5367	177.246	80.7801	177.246	80.5412	177.246	80.7744	177.246	80.5643	177.246	80.7689	177.246	80.5993	177.246	80.7588	177.246	80.6396	177.246	80.7409	177.246	80.6794	177.246	80.7141
183.105	81.4354	183.105	81.4277	183.105	81.4084	183.105	81.3863	183.105	81.3482	183.105	81.3147	183.105	81.2586	183.105	81.2188	183.105	81.1461	183.105	81.1064	183.105	81.0189	183.105	80.9874	183.105	80.8871	183.105	80.8725	183.105	80.7612	183.105	80.7724	183.105	80.6512	183.105	80.6955	183.105	80.5649	183.105	80.6469	183.105	80.5071	183.105	80.6267	183.105	80.479	183.105	80.6304	183.105	80.4785	183.105	80.6502	183.105	80.5008	183.105	80.6769	183.105	80.5393	183.105	80.7015	183.105	80.5863	183.105	80.7171	183.105	80.6341	183.105	80.7189	183.105	80.6754	183.105	80.7048
188.965	81.4119	188.965	81.4118	188.965	81.3753	188.965	81.3761	188.965	81.303	188.965	81.308	188.965	81.1982	188.965	81.213	188.965	81.0664	188.965	81.0987	188.965	80.9161	188.965	80.9751	188.965	80.758	188.965	80.8532	188.965	80.605	188.965	80.7445	188.965	80.4708	188.965	80.6591	188.965	80.3675	188.965	80.6035	188.965	80.3034	188.965	80.5792	188.965	80.2813	188.965	80.5822	188.965	80.2979	188.965	80.6045	188.965	80.3453	188.965	80.6354	188.965	80.4126	188.965	80.6644	188.965	80.488	188.965	80.6825	188.965	80.5604	188.965	80.6832	188.965	80.6208	188.965	80.6628
196.289	81.5517	196.289	81.5329	196.289	81.5281	196.289	81.4735	196.289	81.4626	196.289	81.3773	196.289	81.3582	196.289	81.2505	196.289	81.2206	196.289	81.1018	196.289	81.0584	196.289	80.9424	196.289	80.8825	196.289	80.7858	196.289	80.7059	196.289	80.6464	196.289	80.5426	196.289	80.5376	196.289	80.4056	196.289	80.468	196.289	80.3056	196.289	80.4398	196.289	80.2486	196.289	80.4474	196.289	80.2348	196.289	80.4793	196.289	80.2588	196.289	80.5211	196.289	80.3108	196.289	80.5588	196.289	80.3784	196.289	80.5814	196.289	80.4493	196.289	80.582	196.289	80.5122	196.289	80.5583
203.613	81.3838	203.613	81.3613	203.613	81.3663	203.613	81.301	203.613	81.3087	203.613	81.2066	203.613	81.2128	203.613	81.0836	203.613	81.0827	203.613	80.9389	203.613	80.9249	203.613	80.7811	203.613	80.7484	203.613	80.6203	203.613	80.5646	203.613	80.4681	203.613	80.3865	203.613	80.3363	203.613	80.2279	203.613	80.2351	203.613	80.1011	203.613	80.1706	203.613	80.0151	203.613	80.1429	203.613	79.9735	203.613	80.1457	203.613	79.9734	203.613	80.1683	203.613	80.0062	203.613	80.1972	203.613	80.0594	203.613	80.2197	203.613	80.1193	203.613	80.2257	203.613	80.1728	203.613	80.2101
210.938	81.1836	210.938	81.1567	210.938	81.1672	210.938	81.0878	210.938	81.1084	210.938	80.9808	210.938	81.0109	210.938	80.8422	210.938	80.8808	210.938	80.6811	210.938	80.7272	210.938	80.5089	210.938	80.5613	210.938	80.3386	210.938	80.3962	210.938	80.1837	210.938	80.2449	210.938	80.0563	210.938	80.1184	210.938	79.9651	210.938	80.0235	210.938	79.9133	210.938	79.9626	210.938	79.8981	210.938	79.934	210.938	79.9119	210.938	79.9327	210.938	79.944	210.938	79.9516	210.938	79.983	210.938	79.9821	210.938	80.0186	210.938	80.0144	210.938	80.0425	210.938	80.0393	210.938	80.0497
218.262	81.0532	218.262	81.0415	218.262	81.0239	218.262	80.9901	218.262	80.9543	218.262	80.9022	218.262	80.8471	218.262	80.7828	218.262	80.7071	218.262	80.639	218.262	80.5421	218.262	80.4799	218.262	80.363	218.262	80.3164	218.262	80.1835	218.262	80.1612	218.262	80.0193	218.262	80.0274	218.262	79.8854	218.262	79.9265	218.262	79.793	218.262	79.8659	218.262	79.7471	218.262	79.8471	218.262	79.7452	218.262	79.8644	218.262	79.7787	218.262	79.9062	218.262	79.8353	218.262	79.9577	218.262	79.9012	218.262	80.0037	218.262	79.9635	218.262	80.032	218.262	80.0108	218.262	80.0349
225.586	80.9776	225.586	80.963	225.586	80.9441	225.586	80.9024	225.586	80.863	225.586	80.8009	225.586	80.7375	225.586	80.6662	225.586	80.5734	225.586	80.5082	225.586	80.3802	225.586	80.3387	225.586	80.171	225.586	80.1705	225.586	79.9634	225.586	80.0171	225.586	79.7779	225.586	79.8912	225.586	79.6347	225.586	79.8032	225.586	79.5487	225.586	79.7593	225.586	79.5252	225.586	79.7593	225.586	79.5587	225.586	79.7966	225.586	79.6348	225.586	79.8584	225.586	79.7344	225.586	79.9281	225.586	79.8383	225.586	79.9887	225.586	79.9299	225.586	80.0254	225.586	79.9962	225.586	80.029
232.91	80.9367	232.91	80.9265	232.91	80.8925	232.91	80.8625	232.91	80.7967	232.91	80.7493	232.91	80.6547	232.91	80.5957	232.91	80.4737	232.91	80.414	232.91	80.2632	232.91	80.2197	232.91	80.0355	232.91	80.0293	232.91	79.8062	232.91	79.8593	232.91	79.594	232.91	79.7239	232.91	79.4182	232.91	79.6334	232.91	79.2955	232.91	79.5923	232.91	79.2367	232.91	79.5984	232.91	79.2437	232.91	79.6427	232.91	79.3093	232.91	79.7105	232.91	79.418	232.91	79.7832	232.91	79.5484	232.91	79.8409	232.91	79.677	232.91	79.8661	232.91	79.7819	232.91	79.8473
241.699	80.7627	241.699	80.7353	241.699	80.736	241.699	80.6557	241.699	80.6559	241.699	80.5291	241.699	80.5259	241.699	80.3635	241.699	80.3524	241.699	80.1704	241.699	80.1442	241.699	79.9644	241.699	79.9134	241.699	79.762	241.699	79.675	241.699	79.5802	241.699	79.4478	241.699	79.4337	241.699	79.252	241.699	79.333	241.699	79.1062	241.699	79.2823	241.699	79.0223	241.699	79.2792	241.699	79.0032	241.699	79.3147	241.699	79.0419	241.699	79.3742	241.699	79.1239	241.699	79.4393	241.699	79.2302	241.699	79.4906	241.699	79.3399	241.699	79.5117	241.699	79.4327	241.699	79.4928
250.488	80.6926	250.488	80.6641	250.488	80.6567	250.488	80.5739	250.488	80.5566	250.488	80.4276	250.488	80.3963	250.488	80.2336	250.488	80.1841	250.488	80.0044	250.488	79.9331	250.488	79.7572	250.488	79.6609	250.488	79.5131	250.488	79.388	250.488	79.2952	250.488	79.1359	250.488	79.1229	250.488	78.9253	250.488	79.0068	250.488	78.7743	250.488	78.9455	250.488	78.6955	250.488	78.9291	250.488	78.6915	250.488	78.9453	250.488	78.7518	250.488	78.9841	250.488	78.8537	250.488	79.0371	250.488	78.9685	250.488	79.0938	250.488	79.0686	250.488	79.1391	250.488	79.1342	250.488	79.1567
259.277	80.6514	259.277	80.6273	259.277	80.6143	259.277	80.5428	259.277	80.5172	259.277	80.4015	259.277	80.3642	259.277	80.2099	259.277	80.1627	259.277	79.9787	259.277	79.9248	259.277	79.7231	259.277	79.6675	259.277	79.4627	259.277	79.4111	259.277	79.2211	259.277	79.1761	259.277	79.0228	259.277	78.9802	259.277	78.8888	259.277	78.836	259.277	78.8285	259.277	78.7514	259.277	78.8358	259.277	78.7299	259.277	78.8914	259.277	78.7684	259.277	78.9713	259.277	78.8545	259.277	79.0552	259.277	78.9656	259.277	79.1277	259.277	79.0733	259.277	79.1756	259.277	79.1519	259.277	79.1865
268.066	80.461	268.066	80.3931	268.066	80.4614	268.066	80.2615	268.066	80.3917	268.066	80.0723	268.066	80.2498	268.066	79.836	268.066	80.0356	268.066	79.5694	268.066	79.7553	268.066	79.2966	268.066	79.4254	268.066	79.0476	268.066	79.0755	268.066	78.8521	268.066	78.7449	268.066	78.7318	268.066	78.4724	268.066	78.6914	268.066	78.2829	268.066	78.7172	268.066	78.1821	268.066	78.7807	268.066	78.1591	268.066	78.8481	268.066	78.1964	268.066	78.8911	268.066	78.2754	268.066	78.8947	268.066	78.3789	268.066	78.8585	268.066	78.4918	268.066	78.7916	268.066	78.6026	268.066	78.7041
276.855	80.2887	276.855	80.2811	276.855	80.2391	276.855	80.2097	276.855	80.1397	276.855	80.0712	276.855	79.9969	276.855	79.8663	276.855	79.8143	276.855	79.6008	276.855	79.5943	276.855	79.2862	276.855	79.3406	276.855	78.9422	276.855	79.0637	276.855	78.6003	276.855	78.7847	276.855	78.3035	276.855	78.535	276.855	78.0985	276.855	78.3483	276.855	78.0178	276.855	78.246	276.855	78.0595	276.855	78.2257	276.855	78.1838	276.855	78.2629	276.855	78.3312	276.855	78.3246	276.855	78.4497	276.855	78.3854	276.855	78.5139	276.855	78.4348	276.855	78.5269	276.855	78.4747	276.855	78.5077
287.109	80.3642	287.109	80.3177	287.109	80.3453	287.109	80.2148	287.109	80.2536	287.109	80.0643	287.109	80.086	287.109	79.8737	287.109	79.8458	287.109	79.6495	287.109	79.5452	287.109	79.3988	287.109	79.206	287.109	79.1302	287.109	78.857	287.109	78.8565	287.109	78.527	287.109	78.5973	287.109	78.2374	287.109	78.3824	287.109	78.0023	287.109	78.2486	287.109	77.8358	287.109	78.2251	287.109	77.7569	287.109	78.3124	287.109	77.7809	287.109	78.4729	287.109	77.9058	287.109	78.6439	287.109	78.1061	287.109	78.7645	287.109	78.34	287.109	78.7948	287.109	78.56	287.109	78.7223
297.363	80.1451	297.363	80.0374	297.363	80.1876	297.363	79.8723	297.363	80.1553	297.363	79.6561	297.363	80.0399	297.363	79.3969	297.363	79.8363	297.363	79.1099	297.363	79.5449	297.363	78.8212	297.363	79.174	297.363	78.5652	297.363	78.7442	297.363	78.3715	297.363	78.2948	297.363	78.2491	297.363	77.883	297.363	78.1824	297.363	77.5699	297.363	78.1493	297.363	77.3981	297.363	78.1424	297.363	77.3785	297.363	78.1738	297.363	77.495	297.363	78.2562	297.363	77.7141	297.363	78.3802	297.363	77.9878	297.363	78.5084	297.363	78.2584	297.363	78.5905	297.363	78.47	297.363	78.5842
307.617	80.1752	307.617	80.2004	307.617	80.0773	307.617	80.1382	307.617	79.9262	307.617	79.9815	307.617	79.7414	307.617	79.732	307.617	79.5368	307.617	79.399	307.617	79.319	307.617	79.0026	307.617	79.0892	307.617	78.5796	307.617	78.8471	307.617	78.1862	307.617	78.5951	307.617	77.8843	307.617	78.343	307.617	77.7098	307.617	78.1093	307.617	77.6515	307.617	77.92	307.617	77.6684	307.617	77.8015	307.617	77.7268	307.617	77.7706	307.617	77.8157	307.617	77.8251	307.617	77.931	307.617	77.939	307.617	78.0555	307.617	78.0684	307.617	78.1559	307.617	78.1661	307.617	78.1984
319.336	79.9557	319.336	79.9079	319.336	79.9124	319.336	79.7824	319.336	79.7706	319.336	79.5929	319.336	79.5332	319.336	79.3476	319.336	79.2164	319.336	79.0466	319.336	78.8495	319.336	78.6848	319.336	78.4703	319.336	78.2637	319.336	78.1167	319.336	77.8107	319.336	77.8217	319.336	77.3928	319.336	77.611	319.336	77.1057	319.336	77.5004	319.336	77.0208	319.336	77.489	319.336	77.1267	319.336	77.5552	319.336	77.3391	319.336	77.6656	319.336	77.5673	319.336	77.789	319.336	77.7602	319.336	77.9032	319.336	77.9044	319.336	77.9925	319.336	78.0005	319.336	78.0439	319.336	78.0476
329.59	79.8734	329.59	79.7608	329.59	79.9223	329.59	79.5928	329.59	79.892	329.59	79.3746	329.59	79.7611	329.59	79.1147	329.59	79.5116	329.59	78.8264	329.59	79.14	329.59	78.5222	329.59	78.6669	329.59	78.2066	329.59	78.1394	329.59	77.8775	329.59	77.6233	329.59	77.5392	329.59	77.1862	329.59	77.2198	329.59	76.8805	329.59	76.9741	329.59	76.733	329.59	76.8579	329.59	76.7411	329.59	76.8877	329.59	76.8725	329.59	77.028	329.59	77.0731	329.59	77.2173	329.59	77.2849	329.59	77.3991	329.59	77.4608	329.59	77.5332	329.59	77.5693	329.59	77.5941
341.309	79.6964	341.309	79.6628	341.309	79.6396	341.309	79.5344	341.309	79.5008	341.309	79.3129	341.309	79.2902	341.309	79.0083	341.309	79.0163	341.309	78.6436	341.309	78.6833	341.309	78.2563	341.309	78.2936	341.309	77.8909	341.309	77.859	341.309	77.5824	341.309	77.4132	341.309	77.3423	341.309	77.0157	341.309	77.1644	341.309	76.7343	341.309	77.0429	341.309	76.6137	341.309	76.9832	341.309	76.653	341.309	76.9949	341.309	76.8116	341.309	77.076	341.309	77.03	341.309	77.2058	341.309	77.2493	341.309	77.3499	341.309	77.4226	341.309	77.4703	341.309	77.521	341.309	77.5345
353.027	79.6966	353.027	79.6259	353.027	79.6754	353.027	79.468	353.027	79.5599	353.027	79.2283	353.027	79.3525	353.027	78.9117	353.027	79.0595	353.027	78.5251	353.027	78.6901	353.027	78.0853	353.027	78.2543	353.027	77.6267	353.027	77.7648	353.027	77.2037	353.027	77.2445	353.027	76.8792	353.027	76.7365	353.027	76.7009	353.027	76.3057	353.027	76.6778	353.027	76.0222	353.027	76.7759	353.027	75.932	353.027	76.9362	353.027	76.0329	353.027	77.1007	353.027	76.2751	353.027	77.2301	353.027	76.5817	353.027	77.3053	353.027	76.8771	353.027	77.3168	353.027	77.1088	353.027	77.255
366.211	79.6485	366.211	79.5574	366.211	79.6494	366.211	79.3665	366.211	79.5727	366.211	79.0771	366.211	79.4249	366.211	78.7015	366.211	79.2024	366.211	78.2575	366.211	78.8976	366.211	77.7635	366.211	78.5107	366.211	77.2405	366.211	78.061	366.211	76.7226	366.211	77.5868	366.211	76.2666	366.211	77.1329	366.211	75.9472	366.211	76.7363	366.211	75.8282	366.211	76.4241	366.211	75.9256	366.211	76.2248	366.211	76.1919	366.211	76.168	366.211	76.5361	366.211	76.2628	366.211	76.8616	366.211	76.4768	366.211	77.0948	366.211	76.7437	366.211	77.195	366.211	76.9897	366.211	77.1538
379.395	79.756	379.395	79.7199	379.395	79.715	379.395	79.6025	379.395	79.5963	379.395	79.3912	379.395	79.4018	379.395	79.0692	379.395	79.1384	379.395	78.6271	379.395	78.8131	379.395	78.0755	379.395	78.4272	379.395	77.4537	379.395	77.9816	379.395	76.8277	379.395	77.4968	379.395	76.2782	379.395	77.0284	379.395	75.8839	379.395	76.6548	379.395	75.7055	379.395	76.4305	379.395	75.7661	379.395	76.3539	379.395	76.0308	379.395	76.3889	379.395	76.4094	379.395	76.5075	379.395	76.792	379.395	76.6935	379.395	77.0876	379.395	76.9173	379.395	77.2442	379.395	77.1237	379.395	77.2491
392.578	79.36	392.578	79.3154	392.578	79.3415	392.578	79.2051	392.578	79.2525	392.578	79.0166	392.578	79.0804	392.578	78.7317	392.578	78.8138	392.578	78.3367	392.578	78.4508	392.578	77.8371	392.578	78.0031	392.578	77.2701	392.578	77.4958	392.578	76.7044	392.578	76.9643	392.578	76.2138	392.578	76.4557	392.578	75.8411	392.578	76.0343	392.578	75.5919	392.578	75.7685	392.578	75.4694	392.578	75.6919	392.578	75.4966	392.578	75.7754	392.578	75.6814	392.578	75.9505	392.578	75.97	392.578	76.1544	392.578	76.2605	392.578	76.3445	392.578	76.4627	392.578	76.4846	392.578	76.5352
405.762	79.2484	405.762	79.1588	405.762	79.2434	405.762	78.9863	405.762	79.1405	405.762	78.7443	405.762	78.9437	405.762	78.4374	405.762	78.6578	405.762	78.0557	405.762	78.283	405.762	77.5805	405.762	77.8197	405.762	77.0059	405.762	77.2811	405.762	76.3762	405.762	76.7035	405.762	75.8141	405.762	76.1475	405.762	75.4842	405.762	75.6934	405.762	75.4599	405.762	75.4301	405.762	75.6388	405.762	75.4137	405.762	75.8477	405.762	75.6069	405.762	75.9843	405.762	75.8836	405.762	76.0462	405.762	76.1142	405.762	76.081	405.762	76.2333	405.762	76.1287	405.762	76.245	405.762	76.1935
420.41	79.5908	420.41	79.5168	420.41	79.5364	420.41	79.3209	420.41	79.3651	420.41	79.0258	420.41	79.0968	420.41	78.6573	420.41	78.7448	420.41	78.2273	420.41	78.3072	420.41	77.7274	420.41	77.7723	420.41	77.1415	420.41	77.1441	420.41	76.4723	420.41	76.4702	420.41	75.7713	420.41	75.843	420.41	75.1501	420.41	75.3487	420.41	74.7449	420.41	75.0106	420.41	74.6338	420.41	74.8187	420.41	74.7917	420.41	74.8055	420.41	75.1322	420.41	75.0251	420.41	75.5608	420.41	75.4423	420.41	75.98	420.41	75.9089	420.41	76.2872	420.41	76.2604	420.41	76.3947
435.059	79.1065	435.059	79.0724	435.059	79.0609	435.059	78.9648	435.059	78.9273	435.059	78.7782	435.059	78.7047	435.059	78.4936	435.059	78.4024	435.059	78.0888	435.059	78.0335	435.059	77.5536	435.059	77.6022	435.059	76.9011	435.059	77.0997	435.059	76.1681	435.059	76.5218	435.059	75.414	435.059	75.9054	435.059	74.7323	435.059	75.349	435.059	74.2664	435.059	74.9785	435.059	74.1719	435.059	74.8713	435.059	74.5006	435.059	75.0166	435.059	75.1237	435.059	75.3451	435.059	75.8123	435.059	75.7693	435.059	76.368	435.059	76.1997	435.059	76.6821	435.059	76.5475	435.059	76.7306
451.172	79.5976	451.172	79.5208	451.172	79.5541	451.172	79.3102	451.172	79.3979	451.172	78.9644	451.172	79.1252	451.172	78.5064	451.172	78.7317	451.172	77.9749	451.172	78.2218	451.172	77.3999	451.172	77.6041	451.172	76.7814	451.172	76.884	451.172	76.0967	451.172	76.0804	451.172	75.3445	451.172	75.2683	451.172	74.6078	451.172	74.6027	451.172	74.0706	451.172	74.2441	451.172	73.9009	451.172	74.2122	451.172	74.0779	451.172	74.3789	451.172	74.4259	451.172	74.6145	451.172	74.7861	451.172	74.8578	451.172	75.0768	451.172	75.0799	451.172	75.2596	451.172	75.246	451.172	75.3151
465.82	79.1037	465.82	79.0618	465.82	79.0584	465.82	78.9303	465.82	78.9127	465.82	78.6902	465.82	78.6531	465.82	78.3164	465.82	78.2838	465.82	77.7921	465.82	77.8312	465.82	77.1263	465.82	77.3244	465.82	76.3695	465.82	76.7657	465.82	75.6132	465.82	76.1278	465.82	74.9505	465.82	75.3975	465.82	74.4265	465.82	74.6404	465.82	74.0522	465.82	74.0288	465.82	73.8728	465.82	73.7579	465.82	73.964	465.82	73.8752	465.82	74.3199	465.82	74.2419	465.82	74.7979	465.82	74.6759	465.82	75.2144	465.82	75.0607	465.82	75.4529	465.82	75.3425	465.82	75.4864
483.398	78.9258	483.398	78.8914	483.398	78.8902	483.398	78.783	483.398	78.792	483.398	78.5976	483.398	78.6275	483.398	78.3212	483.398	78.3672	483.398	77.9257	483.398	77.9654	483.398	77.378	483.398	77.3908	483.398	76.6541	483.398	76.6547	483.398	75.7606	483.398	75.8131	483.398	74.7762	483.398	74.9453	483.398	73.8907	483.398	74.1389	483.398	73.3359	483.398	73.5074	483.398	73.1915	483.398	73.1909	483.398	73.3463	483.398	73.26	483.398	73.6679	483.398	73.62	483.398	74.0719	483.398	74.082	483.398	74.469	483.398	74.4925	483.398	74.7562	483.398	74.7671	483.398	74.8617
499.512	78.6871	499.512	78.6331	499.512	78.6324	499.512	78.4716	499.512	78.4742	499.512	78.2097	499.512	78.2196	499.512	77.8511	499.512	77.8669	499.512	77.3858	499.512	77.3985	499.512	76.7918	499.512	76.7849	499.512	76.0479	499.512	76.0109	499.512	75.1544	499.512	75.1163	499.512	74.1709	499.512	74.2233	499.512	73.2705	499.512	73.5028	499.512	72.7193	499.512	73.0688	499.512	72.6605	499.512	72.9231	499.512	72.9496	499.512	73.0301	499.512	73.3564	499.512	73.3569	499.512	73.772	499.512	73.8142	499.512	74.1625	499.512	74.2544	499.512	74.4716	499.512	74.5457	499.512	74.6184
517.09	78.0828	517.09	78.0621	517.09	78.0136	517.09	77.925	517.09	77.8671	517.09	77.6471	517.09	77.6467	517.09	77.2229	517.09	77.3562	517.09	76.6637	517.09	76.9921	517.09	75.9797	517.09	76.5232	517.09	75.1712	517.09	75.8921	517.09	74.2418	517.09	75.0498	517.09	73.2346	517.09	74.0102	517.09	72.2872	517.09	72.9098	517.09	71.6587	517.09	72.0211	517.09	71.5756	517.09	71.6042	517.09	71.9651	517.09	71.686	517.09	72.5362	517.09	72.1017	517.09	73.0751	517.09	72.6739	517.09	73.5042	517.09	73.2457	517.09	73.7839	517.09	73.6717	517.09	73.8559
536.133	76.6159	536.133	76.5965	536.133	76.5532	536.133	76.4803	536.133	76.4161	536.133	76.2621	536.133	76.1857	536.133	75.9376	536.133	75.8347	536.133	75.4978	536.133	75.3671	536.133	74.9482	536.133	74.8151	536.133	74.3137	536.133	74.1781	536.133	73.5812	536.133	73.3932	536.133	72.6407	536.133	72.4108	536.133	71.3758	536.133	71.3117	536.133	69.9426	536.133	70.3322	536.133	69.0156	536.133	69.7429	536.133	69.1564	536.133	69.6857	536.133	69.9145	536.133	70.0945	536.133	70.6741	536.133	70.7233	536.133	71.2486	536.133	71.3041	536.133	71.6276	536.133	71.6766	536.133	71.7832
555.176	76.9415	555.176	76.877	555.176	76.8743	555.176	76.6749	555.176	76.7028	555.176	76.3585	555.176	76.4526	555.176	75.9575	555.176	76.1271	555.176	75.4639	555.176	75.711	555.176	74.8102	555.176	75.1948	555.176	73.923	555.176	74.578	555.176	72.8299	555.176	73.8396	555.176	71.7417	555.176	72.9263	555.176	70.9272	555.176	71.825	555.176	70.3672	555.176	70.677	555.176	69.8033	555.176	69.745	555.176	69.2315	555.176	69.1598	555.176	69.0283	555.176	68.8736	555.176	69.3555	555.176	68.8914	555.176	69.8378	555.176	69.2229	555.176	70.1025	555.176	69.6893	555.176	70.0367
574.219	83.9912	574.219	83.9044	574.219	83.9992	574.219	83.7567	574.219	83.8815	574.219	83.53	574.219	83.6102	574.219	83.2109	574.219	83.2009	574.219	82.8128	574.219	82.6838	574.219	82.3368	574.219	82.064	574.219	81.7271	574.219	81.3249	574.219	80.8991	574.219	80.4652	574.219	79.8269	574.219	79.5182	574.219	78.6239	574.219	78.5621	574.219	77.5678	574.219	77.7818	574.219	76.9703	574.219	77.462	574.219	76.9164	574.219	77.6785	574.219	77.2506	574.219	78.1421	574.219	77.796	574.219	78.5693	574.219	78.4021	574.219	78.8918	574.219	78.896	574.219	79.1066	574.219	79.1375
594.727	85.0105	594.727	85.0024	594.727	84.9092	594.727	84.8933	594.727	84.7289	594.727	84.6995	594.727	84.5189	594.727	84.4118	594.727	84.2867	594.727	84.0007	594.727	83.9632	594.727	83.4407	594.727	83.4433	594.727	82.714	594.727	82.6629	594.727	81.8061	594.727	81.6488	594.727	80.7422	594.727	80.5084	594.727	79.6564	594.727	79.3715	594.727	78.7945	594.727	78.3579	594.727	78.3697	594.727	77.6505	594.727	78.4208	594.727	77.526	594.727	78.8444	594.727	78.0441	594.727	79.4568	594.727	78.8646	594.727	80.0338	594.727	79.6253	594.727	80.3883	594.727	80.1654	594.727	80.4316
615.234	83.3893	615.234	83.446	615.234	83.3314	615.234	83.4093	615.234	83.2886	615.234	83.2199	615.234	83.1693	615.234	82.8868	615.234	82.8812	615.234	82.438	615.234	82.4296	615.234	81.8839	615.234	81.8723	615.234	81.2256	615.234	81.2111	615.234	80.4538	615.234	80.3788	615.234	79.5347	615.234	79.3289	615.234	78.465	615.234	78.1054	615.234	77.4225	615.234	76.8494	615.234	76.7994	615.234	75.849	615.234	76.8004	615.234	75.5459	615.234	77.1658	615.234	76.0435	615.234	77.5917	615.234	76.8668	615.234	77.9572	615.234	77.5787	615.234	78.1966	615.234	78.0381	615.234	78.2382
637.207	82.3526	637.207	82.1658	637.207	82.428	637.207	81.9628	637.207	82.3399	637.207	81.81	637.207	82.1071	637.207	81.6886	637.207	81.7866	637.207	81.4996	637.207	81.42	637.207	81.123	637.207	81.0059	637.207	80.4798	637.207	80.5021	637.207	79.5597	637.207	79.8186	637.207	78.3925	637.207	78.8344	637.207	77.0077	637.207	77.5128	637.207	75.5381	637.207	76.0857	637.207	74.4875	637.207	75.0677	637.207	74.4577	637.207	74.8095	637.207	75.2435	637.207	75.2259	637.207	76.2531	637.207	76.064	637.207	77.1572	637.207	76.9885	637.207	77.7709	637.207	77.682	637.207	77.9617
659.18	81.4823	659.18	81.5145	659.18	81.3948	659.18	81.3964	659.18	81.3016	659.18	81.0861	659.18	81.1991	659.18	80.6768	659.18	81.0603	659.18	80.3189	659.18	80.8283	659.18	80.0139	659.18	80.4148	659.18	79.561	659.18	79.7592	659.18	78.7447	659.18	78.8898	659.18	77.5313	659.18	77.8955	659.18	76.144	659.18	76.8054	659.18	74.8991	659.18	75.5428	659.18	73.9752	659.18	74.1799	659.18	73.6969	659.18	73.4053	659.18	74.4483	659.18	73.8967	659.18	75.7181	659.18	75.0106	659.18	76.6743	659.18	75.968	659.18	77.0406	659.18	76.5923	659.18	76.9528
682.617	81.4537	682.617	81.3415	682.617	81.5522	682.617	81.2307	682.617	81.5716	682.617	81.0788	682.617	81.4113	682.617	80.791	682.617	81.0368	682.617	80.3096	682.617	80.5669	682.617	79.6934	682.617	80.1341	682.617	79.0306	682.617	79.6591	682.617	78.2603	682.617	78.912	682.617	77.1964	682.617	77.7411	682.617	75.7931	682.617	76.2112	682.617	74.4203	682.617	74.6418	682.617	73.7534	682.617	73.551	682.617	73.9973	682.617	73.4023	682.617	74.7357	682.617	74.1141	682.617	75.5779	682.617	75.1527	682.617	76.3242	682.617	76.1025	682.617	76.8435	682.617	76.7573	682.617	77.0115
707.52	80.9907	707.52	80.8887	707.52	80.9405	707.52	80.6685	707.52	80.8477	707.52	80.4319	707.52	80.8372	707.52	80.2177	707.52	80.8397	707.52	79.945	707.52	80.6717	707.52	79.4971	707.52	80.283	707.52	78.8596	707.52	79.7729	707.52	78.1129	707.52	79.1217	707.52	77.2106	707.52	78.0999	707.52	75.9018	707.52	76.5651	707.52	74.0835	707.52	74.7091	707.52	72.4699	707.52	72.9766	707.52	72.3632	707.52	71.9761	707.52	73.394	707.52	72.4959	707.52	74.5453	707.52	74.1036	707.52	75.5125	707.52	75.5352	707.52	76.1929	707.52	76.3124	707.52	76.4886
732.422	80.8669	732.422	80.7906	732.422	80.9121	732.422	80.6912	732.422	80.863	732.422	80.5091	732.422	80.7076	732.422	80.2054	732.422	80.5076	732.422	79.7999	732.422	80.2786	732.422	79.2966	732.422	79.9412	732.422	78.6151	732.422	79.4286	732.422	77.649	732.422	78.7403	732.422	76.3745	732.422	77.837	732.422	74.8577	732.422	76.5593	732.422	73.1676	732.422	74.8227	732.422	71.5697	732.422	72.9582	732.422	71.1751	732.422	71.752	732.422	72.5248	732.422	71.8028	732.422	74.1933	732.422	72.9295	732.422	75.3044	732.422	74.3241	732.422	75.8059	732.422	75.3385	732.422	75.8126
757.324	80.6228	757.324	80.5309	757.324	80.6778	757.324	80.3602	757.324	80.6637	757.324	80.125	757.324	80.5007	757.324	79.9217	757.324	80.2225	757.324	79.7754	757.324	79.9776	757.324	79.5593	757.324	79.7891	757.324	79.1071	757.324	79.4619	757.324	78.3212	757.324	78.8314	757.324	77.1411	757.324	77.8924	757.324	75.4631	757.324	76.6108	757.324	73.2366	757.324	74.7947	757.324	70.8811	757.324	72.4476	757.324	69.6133	757.324	70.6929	757.324	70.2156	757.324	71.0246	757.324	71.9936	757.324	72.4259	757.324	73.8649	757.324	73.8381	757.324	75.1237	757.324	74.9581	757.324	75.477
785.156	80.2434	785.156	80.1277	785.156	80.2397	785.156	79.961	785.156	80.18	785.156	79.8336	785.156	80.1176	785.156	79.6783	785.156	79.997	785.156	79.3757	785.156	79.7606	785.156	78.9633	785.156	79.4409	785.156	78.5827	785.156	79.0778	785.156	78.1867	785.156	78.5905	785.156	77.4916	785.156	77.8141	785.156	76.2213	785.156	76.6654	785.156	74.3448	785.156	75.1721	785.156	72.2186	785.156	73.3612	785.156	70.8569	785.156	71.542	785.156	71.4704	785.156	71.1047	785.156	73.0545	785.156	72.4267	785.156	74.1441	785.156	73.7568	785.156	74.5407	785.156	74.4001	785.156	74.577
811.523	80.2855	811.523	80.2549	811.523	80.2636	811.523	80.1545	811.523	80.1792	811.523	79.9792	811.523	80.0247	811.523	79.774	811.523	79.8304	811.523	79.5625	811.523	79.6883	811.523	79.3007	811.523	79.6249	811.523	78.9506	811.523	79.4832	811.523	78.462	811.523	79.0698	811.523	77.6773	811.523	78.3141	811.523	76.365	811.523	77.1783	811.523	74.3995	811.523	75.582	811.523	72.14	811.523	73.6201	811.523	70.8356	811.523	71.722	811.523	71.3131	811.523	70.7848	811.523	72.7801	811.523	71.9133	811.523	74.2517	811.523	73.9546	811.523	75.2486	811.523	75.2916	811.523	75.6496
840.82	80.8177	840.82	80.749	840.82	80.7901	840.82	80.5869	840.82	80.6027	840.82	80.2694	840.82	80.2847	840.82	79.8526	840.82	79.9677	840.82	79.5319	840.82	79.7196	840.82	79.3267	840.82	79.468	840.82	78.9703	840.82	79.1492	840.82	78.2897	840.82	78.7555	840.82	77.4053	840.82	78.1773	840.82	76.4273	840.82	77.1995	840.82	75.0286	840.82	75.6588	840.82	72.7013	840.82	73.5043	840.82	70.2755	840.82	71.1714	840.82	70.5869	840.82	70.6119	840.82	72.369	840.82	72.0779	840.82	73.9179	840.82	73.5568	840.82	74.9357	840.82	74.601	840.82	75.1536
870.117	80.7144	870.117	80.6793	870.117	80.5664	870.117	80.3793	870.117	80.3853	870.117	79.943	870.117	80.1739	870.117	79.6256	870.117	79.748	870.117	79.4769	870.117	79.1736	870.117	79.2789	870.117	78.8758	870.117	78.9546	870.117	78.8712	870.117	78.5882	870.117	78.5986	870.117	78.0423	870.117	77.7923	870.117	76.9368	870.117	76.6142	870.117	75.009	870.117	75.097	870.117	72.559	870.117	73.0283	870.117	71.0014	870.117	71.0927	870.117	71.5498	870.117	71.3843	870.117	73.2482	870.117	73.1635	870.117	74.9083	870.117	74.6906	870.117	75.9259	870.117	75.6903	870.117	76.1481
900.879	81.4581	900.879	81.2232	900.879	81.4137	900.879	80.8676	900.879	81.0355	900.879	80.5203	900.879	80.5548	900.879	80.2391	900.879	80.287	900.879	79.9958	900.879	80.1524	900.879	79.7317	900.879	79.854	900.879	79.3851	900.879	79.428	900.879	78.8542	900.879	79.0585	900.879	78.0124	900.879	78.5533	900.879	76.798	900.879	77.5155	900.879	75.1723	900.879	75.7351	900.879	72.8625	900.879	73.1028	900.879	69.8581	900.879	69.6978	900.879	69.6688	900.879	68.0872	900.879	72.515	900.879	70.6212	900.879	74.4971	900.879	73.2481	900.879	75.3879	900.879	74.8091	900.879	75.4736
933.105	81.4574	933.105	81.3392	933.105	81.2984	933.105	81.0247	933.105	80.8866	933.105	80.4876	933.105	80.416	933.105	79.8174	933.105	79.8759	933.105	79.3671	933.105	79.1301	933.105	79.2241	933.105	78.5121	933.105	79.009	933.105	78.3938	933.105	78.5668	933.105	78.3422	933.105	78.1092	933.105	77.9128	933.105	77.499	933.105	77.1798	933.105	76.0416	933.105	76.0573	933.105	73.1932	933.105	74.0012	933.105	69.7342	933.105	70.7594	933.105	69.1843	933.105	68.5326	933.105	71.1325	933.105	70.4966	933.105	73.343	933.105	73.202	933.105	75.1852	933.105	75.1627	933.105	75.9056
965.332	81.7676	965.332	81.6337	965.332	81.6828	965.332	81.2471	965.332	81.4009	965.332	80.7423	965.332	80.9281	965.332	80.2654	965.332	80.3822	965.332	79.7533	965.332	79.9018	965.332	79.292	965.332	79.5265	965.332	79.1632	965.332	79.2613	965.332	79.1356	965.332	79.0454	965.332	78.6062	965.332	78.6225	965.332	77.4246	965.332	77.6611	965.332	75.7976	965.332	75.9963	965.332	73.4319	965.332	73.5453	965.332	69.847	965.332	70.2809	965.332	68.3136	965.332	68.0288	965.332	71.2669	965.332	70.2991	965.332	73.5917	965.332	73.0121	965.332	74.5054	965.332	74.2787	965.332	74.6205
1,000.49	82.515	1,000.49	82.3268	1,000.49	82.2814	1,000.49	81.8837	1,000.49	81.6593	1,000.49	81.0294	1,000.49	81.0266	1,000.49	79.8243	1,000.49	80.4011	1,000.49	79.178	1,000.49	79.6039	1,000.49	79.3529	1,000.49	79.055	1,000.49	79.4312	1,000.49	79.0948	1,000.49	79.283	1,000.49	79.1795	1,000.49	79.2764	1,000.49	79.0037	1,000.49	78.9517	1,000.49	78.6413	1,000.49	77.5014	1,000.49	77.6411	1,000.49	74.8503	1,000.49	75.3288	1,000.49	71.4932	1,000.49	71.8641	1,000.49	69.2288	1,000.49	69.4438	1,000.49	71.1323	1,000.49	70.3619	1,000.49	73.7586	1,000.49	72.9822	1,000.49	75.6012	1,000.49	75.3131	1,000.49	76.2711
1,035.64	82.0356	1,035.64	81.8501	1,035.64	82.1015	1,035.64	81.2981	1,035.64	81.8488	1,035.64	80.4498	1,035.64	80.967	1,035.64	79.6087	1,035.64	79.818	1,035.64	78.4672	1,035.64	78.9305	1,035.64	77.2243	1,035.64	78.1831	1,035.64	77.4219	1,035.64	77.6787	1,035.64	78.4744	1,035.64	77.8921	1,035.64	78.5126	1,035.64	78.3417	1,035.64	77.6415	1,035.64	78.1581	1,035.64	77.0236	1,035.64	77.2247	1,035.64	75.9201	1,035.64	75.7812	1,035.64	72.6922	1,035.64	73.2055	1,035.64	70.6214	1,035.64	70.0239	1,035.64	72.8444	1,035.64	71.4084	1,035.64	75.0143	1,035.64	73.8824	1,035.64	76.5853	1,035.64	75.7458	1,035.64	76.8813
1,072.27	76.3966	1,072.27	76.0686	1,072.27	76.014	1,072.27	75.2488	1,072.27	75.4603	1,072.27	74.1758	1,072.27	75.0987	1,072.27	72.7074	1,072.27	74.1871	1,072.27	71.0301	1,072.27	72.2197	1,072.27	69.6499	1,072.27	70.1003	1,072.27	68.516	1,072.27	69.4197	1,072.27	68.8406	1,072.27	69.8703	1,072.27	70.6332	1,072.27	70.8145	1,072.27	71.1791	1,072.27	71.545	1,072.27	70.1971	1,072.27	70.8276	1,072.27	68.153	1,072.27	67.8768	1,072.27	65.0165	1,072.27	63.9381	1,072.27	63.0965	1,072.27	62.3567	1,072.27	67.1621	1,072.27	65.6671	1,072.27	70.4821	1,072.27	70.4316	1,072.27	71.6177	1,072.27	72.4458	1,072.27	72.2423
1,108.89	75.8083	1,108.89	75.8252	1,108.89	75.954	1,108.89	75.4979	1,108.89	75.948	1,108.89	74.8465	1,108.89	75.1158	1,108.89	73.9877	1,108.89	73.8895	1,108.89	72.547	1,108.89	72.9229	1,108.89	70.9357	1,108.89	71.7146	1,108.89	70.1199	1,108.89	70.1225	1,108.89	69.3737	1,108.89	69.0709	1,108.89	67.9689	1,108.89	68.5352	1,108.89	67.0937	1,108.89	68.0489	1,108.89	66.6777	1,108.89	67.3948	1,108.89	64.9943	1,108.89	65.6672	1,108.89	60.7431	1,108.89	62.4992	1,108.89	54.6121	1,108.89	56.0201	1,108.89	60.2258	1,108.89	55.4347	1,108.89	64.0816	1,108.89	64.258	1,108.89	66.1803	1,108.89	67.0552	1,108.89	67.27
1,148.44	78.9986	1,148.44	78.9233	1,148.44	78.8887	1,148.44	78.5295	1,148.44	78.6717	1,148.44	77.7348	1,148.44	78.1633	1,148.44	76.8111	1,148.44	77.0389	1,148.44	75.9182	1,148.44	75.625	1,148.44	74.5452	1,148.44	74.3492	1,148.44	72.6899	1,148.44	73.0728	1,148.44	71.486	1,148.44	72.0955	1,148.44	71.256	1,148.44	71.8892	1,148.44	71.1093	1,148.44	71.8274	1,148.44	70.5364	1,148.44	71.2559	1,148.44	68.9226	1,148.44	69.8455	1,148.44	65.22	1,148.44	67.2187	1,148.44	58.5935	1,148.44	62.2386	1,148.44	60.3604	1,148.44	59.3842	1,148.44	65.3451	1,148.44	63.4029	1,148.44	67.806	1,148.44	65.5975	1,148.44	67.5544
1,189.45	80.927	1,189.45	80.689	1,189.45	80.6138	1,189.45	80.1806	1,189.45	80.2209	1,189.45	79.9114	1,189.45	79.6913	1,189.45	79.1656	1,189.45	78.8923	1,189.45	77.6517	1,189.45	77.8611	1,189.45	76.2346	1,189.45	76.3547	1,189.45	75.0063	1,189.45	74.8635	1,189.45	73.495	1,189.45	73.8878	1,189.45	72.4369	1,189.45	72.831	1,189.45	72.0648	1,189.45	72.6239	1,189.45	71.5096	1,189.45	72.6139	1,189.45	70.0303	1,189.45	71.1076	1,189.45	66.4432	1,189.45	67.9195	1,189.45	61.3012	1,189.45	61.6858	1,189.45	62.8293	1,189.45	61.1332	1,189.45	67.3684	1,189.45	66.2913	1,189.45	70.442	1,189.45	68.8841	1,189.45	70.6989
1,230.47	81.5388	1,230.47	81.3616	1,230.47	81.383	1,230.47	80.9816	1,230.47	81.0161	1,230.47	80.4535	1,230.47	80.3678	1,230.47	79.5793	1,230.47	79.6097	1,230.47	78.6119	1,230.47	78.736	1,230.47	77.6595	1,230.47	77.3407	1,230.47	76.5773	1,230.47	76.0084	1,230.47	75.7415	1,230.47	75.319	1,230.47	75.43	1,230.47	75.0474	1,230.47	75.2833	1,230.47	74.7093	1,230.47	74.3732	1,230.47	73.7529	1,230.47	72.1153	1,230.47	72.4289	1,230.47	68.8832	1,230.47	69.8445	1,230.47	63.7823	1,230.47	63.3289	1,230.47	59.8087	1,230.47	54.7643	1,230.47	66.2047	1,230.47	63.3464	1,230.47	69.9611	1,230.47	68.0968	1,230.47	70.5416
1,274.41	82.6881	1,274.41	82.4951	1,274.41	82.5006	1,274.41	82.2701	1,274.41	82.0839	1,274.41	81.8055	1,274.41	81.5276	1,274.41	80.8939	1,274.41	80.4964	1,274.41	79.6514	1,274.41	79.3524	1,274.41	78.1183	1,274.41	78.2859	1,274.41	77.2233	1,274.41	77.0882	1,274.41	76.808	1,274.41	76.0537	1,274.41	76.2533	1,274.41	75.4347	1,274.41	76.0016	1,274.41	75.3166	1,274.41	75.1853	1,274.41	75.1687	1,274.41	73.6171	1,274.41	74.1051	1,274.41	70.875	1,274.41	71.6465	1,274.41	63.9123	1,274.41	66.7413	1,274.41	62.4918	1,274.41	57.601	1,274.41	68.6158	1,274.41	66.7577	1,274.41	70.7952	1,274.41	70.866	1,274.41	71.372
1,319.82	81.6729	1,319.82	81.9123	1,319.82	81.5263	1,319.82	81.5892	1,319.82	81.3482	1,319.82	80.7027	1,319.82	80.6928	1,319.82	79.9203	1,319.82	79.6984	1,319.82	78.6666	1,319.82	78.6318	1,319.82	76.7954	1,319.82	76.9381	1,319.82	75.3611	1,319.82	74.6657	1,319.82	74.2334	1,319.82	73.1497	1,319.82	73.603	1,319.82	73.0398	1,319.82	73.3828	1,319.82	73.6246	1,319.82	73.5625	1,319.82	73.3456	1,319.82	72.955	1,319.82	72.3931	1,319.82	69.4526	1,319.82	70.0702	1,319.82	64.979	1,319.82	64.8776	1,319.82	62.7108	1,319.82	60.8377	1,319.82	67.5968	1,319.82	64.8496	1,319.82	70.1185	1,319.82	70.0402	1,319.82	70.7979
1,366.7	80.2899	1,366.7	79.8642	1,366.7	79.8455	1,366.7	79.6848	1,366.7	78.8251	1,366.7	79.0997	1,366.7	78.5293	1,366.7	77.6494	1,366.7	78.1483	1,366.7	76.6996	1,366.7	76.9948	1,366.7	75.6833	1,366.7	75.2866	1,366.7	73.2662	1,366.7	73.4132	1,366.7	70.3193	1,366.7	72.5386	1,366.7	69.2274	1,366.7	72.7242	1,366.7	70.8391	1,366.7	71.8179	1,366.7	70.7107	1,366.7	70.1421	1,366.7	68.8359	1,366.7	70.3638	1,366.7	65.6188	1,366.7	68.0929	1,366.7	52.5675	1,366.7	57.1057	1,366.7	64.1122	1,366.7	52.231	1,366.7	69.7124	1,366.7	64.5824	1,366.7	71.5861	1,366.7	70.0935	1,366.7	71.7828
1,413.57	79.3113	1,413.57	78.799	1,413.57	79.3829	1,413.57	78.5718	1,413.57	79.5273	1,413.57	78.1221	1,413.57	79.4317	1,413.57	76.6821	1,413.57	79.1141	1,413.57	75.6262	1,413.57	78.2024	1,413.57	74.655	1,413.57	76.1399	1,413.57	72.1107	1,413.57	74.5914	1,413.57	70.7449	1,413.57	72.6836	1,413.57	70.6124	1,413.57	70.7572	1,413.57	69.0708	1,413.57	70.5282	1,413.57	69.1382	1,413.57	70.4609	1,413.57	69.5431	1,413.57	70.1821	1,413.57	67.7746	1,413.57	68.9719	1,413.57	61.6013	1,413.57	67.1395	1,413.57	44.7415	1,413.57	60.872	1,413.57	61.5701	1,413.57	51.3766	1,413.57	68.5836	1,413.57	59.2473	1,413.57	67.2019
1,463.38	79.4256	1,463.38	79.1278	1,463.38	80.0231	1,463.38	79.3528	1,463.38	79.8234	1,463.38	78.4014	1,463.38	79.2406	1,463.38	77.5723	1,463.38	78.6233	1,463.38	77.0168	1,463.38	78.5084	1,463.38	75.4806	1,463.38	77.9086	1,463.38	73.7445	1,463.38	75.9403	1,463.38	71.6415	1,463.38	74.2878	1,463.38	71.6387	1,463.38	73.2953	1,463.38	71.6013	1,463.38	72.9389	1,463.38	71.4701	1,463.38	72.6706	1,463.38	69.9895	1,463.38	71.478	1,463.38	65.3498	1,463.38	70.3709	1,463.38	61.55	1,463.38	68.1533	1,463.38	58.0321	1,463.38	62.6869	1,463.38	61.0407	1,463.38	59.1387	1,463.38	63.4131	1,463.38	63.133	1,463.38	62.8155
1,516.11	84.4485	1,516.11	84.3395	1,516.11	84.2147	1,516.11	83.8067	1,516.11	83.7704	1,516.11	83.4254	1,516.11	83.3577	1,516.11	82.7447	1,516.11	82.6647	1,516.11	81.1724	1,516.11	81.6783	1,516.11	79.7267	1,516.11	80.2536	1,516.11	78.3304	1,516.11	78.3357	1,516.11	76.4541	1,516.11	76.1737	1,516.11	75.4917	1,516.11	75.5141	1,516.11	76.118	1,516.11	75.3495	1,516.11	76.7131	1,516.11	76.1524	1,516.11	76.3535	1,516.11	77.2741	1,516.11	75.9014	1,516.11	75.429	1,516.11	74.0587	1,516.11	73.258	1,516.11	68.5786	1,516.11	69.9796	1,516.11	58.9622	1,516.11	63.9188	1,516.11	61.6079	1,516.11	63.0553	1,516.11	65.0347
1,568.85	85.1462	1,568.85	84.8146	1,568.85	84.7924	1,568.85	84.5711	1,568.85	84.1352	1,568.85	84.0098	1,568.85	83.7601	1,568.85	82.834	1,568.85	83.093	1,568.85	82.2214	1,568.85	81.9479	1,568.85	81.2388	1,568.85	81.0277	1,568.85	79.3416	1,568.85	79.6686	1,568.85	77.5293	1,568.85	77.1235	1,568.85	75.3747	1,568.85	75.6809	1,568.85	74.4985	1,568.85	74.0083	1,568.85	75.2035	1,568.85	74.1223	1,568.85	75.3809	1,568.85	75.5031	1,568.85	74.614	1,568.85	74.8051	1,568.85	70.9424	1,568.85	73.8845	1,568.85	61.5325	1,568.85	68.346	1,568.85	63.97	1,568.85	59.2726	1,568.85	68.6112	1,568.85	69.4347	1,568.85	70.2023
1,624.51	84.079	1,624.51	83.7564	1,624.51	83.4793	1,624.51	83.1207	1,624.51	82.9983	1,624.51	82.5534	1,624.51	82.8533	1,624.51	81.6181	1,624.51	81.6205	1,624.51	81.0487	1,624.51	80.4583	1,624.51	79.7601	1,624.51	79.559	1,624.51	78.2163	1,624.51	78.5421	1,624.51	76.4958	1,624.51	78.1542	1,624.51	74.1669	1,624.51	75.0191	1,624.51	71.9495	1,624.51	73.7025	1,624.51	73.6254	1,624.51	74.9111	1,624.51	75.2449	1,624.51	74.5993	1,624.51	75.1072	1,624.51	72.7394	1,624.51	73.4494	1,624.51	70.1694	1,624.51	68.9075	1,624.51	65.1047	1,624.51	66.4873	1,624.51	63.5983	1,624.51	67.4804	1,624.51	69.7238	1,624.51	70.1936
1,681.64	82.6057	1,681.64	82.6135	1,681.64	82.2926	1,681.64	82.6093	1,681.64	82.3791	1,681.64	82.3255	1,681.64	82.3446	1,681.64	81.0584	1,681.64	80.9087	1,681.64	79.8885	1,681.64	79.1304	1,681.64	78.0532	1,681.64	78.758	1,681.64	76.2937	1,681.64	78.1745	1,681.64	74.9955	1,681.64	77.5294	1,681.64	73.1667	1,681.64	75.7129	1,681.64	71.1385	1,681.64	74.5848	1,681.64	71.3975	1,681.64	73.6857	1,681.64	73.753	1,681.64	71.8998	1,681.64	74.2774	1,681.64	71.6879	1,681.64	72.2256	1,681.64	71.6985	1,681.64	64.098	1,681.64	69.0438	1,681.64	66.4943	1,681.64	48.4675	1,681.64	65.9521	1,681.64	68.2406	1,681.64	67.3623
1,741.7	83.6951	1,741.7	83.5529	1,741.7	83.402	1,741.7	82.511	1,741.7	82.9967	1,741.7	81.7742	1,741.7	82.2369	1,741.7	80.8581	1,741.7	81.9444	1,741.7	79.0835	1,741.7	81.5873	1,741.7	77.42	1,741.7	79.0329	1,741.7	76.735	1,741.7	77.1277	1,741.7	75.5893	1,741.7	76.6528	1,741.7	73.954	1,741.7	75.6399	1,741.7	73.2723	1,741.7	73.5322	1,741.7	73.6711	1,741.7	71.7816	1,741.7	73.7419	1,741.7	71.2143	1,741.7	72.5356	1,741.7	70.6969	1,741.7	68.0427	1,741.7	70.2749	1,741.7	64.2559	1,741.7	65.4339	1,741.7	65.8288	1,741.7	42.853	1,741.7	72.2553	1,741.7	65.4097	1,741.7	69.2361
1,803.22	85.0029	1,803.22	84.0547	1,803.22	84.6479	1,803.22	83.2457	1,803.22	84.3574	1,803.22	83.457	1,803.22	83.2075	1,803.22	81.3269	1,803.22	81.941	1,803.22	79.3781	1,803.22	81.2283	1,803.22	78.6886	1,803.22	80.2001	1,803.22	76.8113	1,803.22	78.2865	1,803.22	73.2815	1,803.22	76.1279	1,803.22	71.9447	1,803.22	74.8711	1,803.22	72.6204	1,803.22	72.761	1,803.22	72.4668	1,803.22	72.4915	1,803.22	71.3124	1,803.22	73.9177	1,803.22	70.8274	1,803.22	74.2478	1,803.22	71.9965	1,803.22	71.1279	1,803.22	64.1266	1,803.22	66.7544	1,803.22	58.9568	1,803.22	57.9425	1,803.22	65.2238	1,803.22	61.343	1,803.22	63.3334
1,866.21	84.6991	1,866.21	83.8055	1,866.21	84.806	1,866.21	83.507	1,866.21	83.6179	1,866.21	82.8204	1,866.21	82.5248	1,866.21	81.9508	1,866.21	81.3922	1,866.21	80.2791	1,866.21	79.8883	1,866.21	78.8244	1,866.21	79.6102	1,866.21	77.7515	1,866.21	77.3102	1,866.21	75.7554	1,866.21	74.4603	1,866.21	73.0823	1,866.21	72.9372	1,866.21	70.2738	1,866.21	73.4345	1,866.21	71.5617	1,866.21	74.2945	1,866.21	73.2548	1,866.21	73.982	1,866.21	73.2818	1,866.21	73.597	1,866.21	72.8611	1,866.21	71.3192	1,866.21	70.3028	1,866.21	67.4326	1,866.21	64.2236	1,866.21	60.108	1,866.21	64.1479	1,866.21	65.443	1,866.21	68.2121
1,932.13	82.5922	1,932.13	82.8469	1,932.13	82.6459	1,932.13	82.3421	1,932.13	82.2213	1,932.13	81.1439	1,932.13	81.4476	1,932.13	80.3642	1,932.13	79.3172	1,932.13	78.9564	1,932.13	78.7705	1,932.13	77.3141	1,932.13	78.1094	1,932.13	76.3735	1,932.13	76.2799	1,932.13	75.3611	1,932.13	74.5721	1,932.13	71.5757	1,932.13	72.1675	1,932.13	69.2728	1,932.13	69.103	1,932.13	67.9079	1,932.13	67.6641	1,932.13	70.466	1,932.13	71.232	1,932.13	72.1295	1,932.13	72.3477	1,932.13	71.0184	1,932.13	70.1516	1,932.13	65.206	1,932.13	65.7014	1,932.13	61.9098	1,932.13	57.0967	1,932.13	67.915	1,932.13	64.242	1,932.13	68.4255
1,999.51	82.2504	1,999.51	82.2804	1,999.51	81.8054	1,999.51	81.1789	1,999.51	81.7889	1,999.51	79.6514	1,999.51	80.839	1,999.51	78.8601	1,999.51	79.809	1,999.51	77.263	1,999.51	77.3911	1,999.51	75.998	1,999.51	74.2903	1,999.51	74.2177	1,999.51	75.7975	1,999.51	74.6964	1,999.51	75.6182	1,999.51	73.2061	1,999.51	70.7877	1,999.51	70.8394	1,999.51	67.8448	1,999.51	69.2341	1,999.51	69.7675	1,999.51	70.8344	1,999.51	69.978	1,999.51	71.3364	1,999.51	71.5153	1,999.51	68.4096	1,999.51	72.1687	1,999.51	61.9225	1,999.51	70.5029	1,999.51	66.6495	1,999.51	59.6317	1,999.51	67.1373	1,999.51	64.299	1,999.51	65.4076
2,069.82	79.3861	2,069.82	80.9153	2,069.82	80.0393	2,069.82	80.9809	2,069.82	80.6632	2,069.82	79.1135	2,069.82	78.9201	2,069.82	77.3031	2,069.82	78.1208	2,069.82	74.9842	2,069.82	74.9648	2,069.82	71.4513	2,069.82	74.9803	2,069.82	72.0572	2,069.82	75.4455	2,069.82	72.6298	2,069.82	73.3201	2,069.82	72.9067	2,069.82	72.1919	2,069.82	67.9767	2,069.82	69.0217	2,069.82	67.8319	2,069.82	59.8382	2,069.82	63.8261	2,069.82	67.9552	2,069.82	59.3976	2,069.82	70.1476	2,069.82	58.5943	2,069.82	65.3096	2,069.82	59.8786	2,069.82	62.6916	2,069.82	63.086	2,069.82	60.6365	2,069.82	65.7919	2,069.82	64.8165	2,069.82	61.7455
2,143.07	81.9505	2,143.07	82.1994	2,143.07	81.6627	2,143.07	81.9296	2,143.07	81.6924	2,143.07	79.0067	2,143.07	80.4309	2,143.07	77.1418	2,143.07	77.424	2,143.07	76.4307	2,143.07	75.9904	2,143.07	75.1222	2,143.07	74.9108	2,143.07	73.4345	2,143.07	71.6539	2,143.07	73.173	2,143.07	69.653	2,143.07	71.6432	2,143.07	73.0349	2,143.07	67.4469	2,143.07	74.0115	2,143.07	61.0794	2,143.07	68.5292	2,143.07	61.7592	2,143.07	70.6108	2,143.07	68.2925	2,143.07	67.2497	2,143.07	69.8586	2,143.07	67.5523	2,143.07	68.9084	2,143.07	66.7318	2,143.07	58.9614	2,143.07	61.1368	2,143.07	61.3505	2,143.07	58.4617	2,143.07	61.3608
2,219.24	81.9602	2,219.24	81.8508	2,219.24	81.382	2,219.24	80.9347	2,219.24	81.5073	2,219.24	80.4835	2,219.24	80.1135	2,219.24	78.9471	2,219.24	77.7501	2,219.24	77.7428	2,219.24	74.9795	2,219.24	76.0735	2,219.24	72.367	2,219.24	75.1662	2,219.24	74.0423	2,219.24	73.0452	2,219.24	74.0684	2,219.24	72.5518	2,219.24	69.9966	2,219.24	70.6509	2,219.24	71.8726	2,219.24	70.9404	2,219.24	70.8423	2,219.24	63.4273	2,219.24	68.4679	2,219.24	63.4048	2,219.24	64.7437	2,219.24	68.3355	2,219.24	68.0566	2,219.24	68.1243	2,219.24	64.5257	2,219.24	64.6953	2,219.24	65.8812	2,219.24	57.7622	2,219.24	51.6843	2,219.24	56.1439
2,296.88	80.7376	2,296.88	80.0881	2,296.88	80.5604	2,296.88	80.1386	2,296.88	79.3269	2,296.88	79.1673	2,296.88	78.7347	2,296.88	78.2319	2,296.88	79.335	2,296.88	76.9007	2,296.88	78.3626	2,296.88	75.7185	2,296.88	76.6386	2,296.88	74.0247	2,296.88	74.3394	2,296.88	71.2321	2,296.88	70.8232	2,296.88	72.018	2,296.88	68.5569	2,296.88	71.6345	2,296.88	71.6895	2,296.88	66.8306	2,296.88	68.1189	2,296.88	67.1426	2,296.88	63.6948	2,296.88	66.782	2,296.88	68.2125	2,296.88	62.8767	2,296.88	68.3588	2,296.88	64.5909	2,296.88	66.5198	2,296.88	60.6795	2,296.88	66.401	2,296.88	61.4566	2,296.88	62.3575	2,296.88	60.2377
2,378.91	79.9757	2,378.91	80.3729	2,378.91	79.9317	2,378.91	78.9947	2,378.91	79.5579	2,378.91	78.0266	2,378.91	79.1646	2,378.91	77.2235	2,378.91	77.959	2,378.91	75.6995	2,378.91	74.981	2,378.91	74.109	2,378.91	74.3417	2,378.91	73.6188	2,378.91	73.6969	2,378.91	72.3325	2,378.91	73.3417	2,378.91	68.5595	2,378.91	70.9595	2,378.91	69.1854	2,378.91	67.4188	2,378.91	67.5016	2,378.91	67.9842	2,378.91	67.4299	2,378.91	59.929	2,378.91	64.2717	2,378.91	62.0214	2,378.91	61.4015	2,378.91	67.5132	2,378.91	62.7516	2,378.91	65.5946	2,378.91	63.0093	2,378.91	63.6759	2,378.91	58.3037	2,378.91	59.5667	2,378.91	61.8541
2,462.4	81.1283	2,462.4	80.9303	2,462.4	81.0767	2,462.4	80.1803	2,462.4	80.5795	2,462.4	79.0322	2,462.4	79.6412	2,462.4	77.9295	2,462.4	78.5842	2,462.4	76.1016	2,462.4	77.2168	2,462.4	74.1492	2,462.4	75.943	2,462.4	72.724	2,462.4	74.2747	2,462.4	70.3032	2,462.4	73.02	2,462.4	68.736	2,462.4	71.2692	2,462.4	68.3756	2,462.4	70.6933	2,462.4	66.5265	2,462.4	69.8471	2,462.4	63.9243	2,462.4	66.992	2,462.4	65.2415	2,462.4	67.7452	2,462.4	66.342	2,462.4	69.1627	2,462.4	64.6048	2,462.4	67.7565	2,462.4	60.5849	2,462.4	65.1171	2,462.4	61.0143	2,462.4	61.579	2,462.4	62.7129
2,548.83	82.1612	2,548.83	81.7551	2,548.83	82.3716	2,548.83	81.3998	2,548.83	81.0734	2,548.83	79.9003	2,548.83	80.3968	2,548.83	78.99	2,548.83	79.2956	2,548.83	77.9238	2,548.83	78.1831	2,548.83	75.5905	2,548.83	76.8534	2,548.83	74.3406	2,548.83	74.8696	2,548.83	72.6001	2,548.83	73.6151	2,548.83	70.3446	2,548.83	71.5523	2,548.83	70.0762	2,548.83	70.6378	2,548.83	68.9679	2,548.83	70.4105	2,548.83	67.8341	2,548.83	68.1698	2,548.83	65.3902	2,548.83	66.4296	2,548.83	66.0349	2,548.83	68.2962	2,548.83	66.3127	2,548.83	67.4315	2,548.83	62.1348	2,548.83	63.9019	2,548.83	62.0819	2,548.83	64.4903	2,548.83	63.4524
2,639.65	80.9003	2,639.65	81.0499	2,639.65	80.9362	2,639.65	80.3778	2,639.65	80.0673	2,639.65	79.3621	2,639.65	79.64	2,639.65	78.2197	2,639.65	78.5134	2,639.65	77.4533	2,639.65	77.6127	2,639.65	76.4478	2,639.65	76.1713	2,639.65	74.1977	2,639.65	74.335	2,639.65	73.1905	2,639.65	72.7448	2,639.65	70.8953	2,639.65	70.6249	2,639.65	68.8308	2,639.65	69.0328	2,639.65	70.037	2,639.65	69.3899	2,639.65	67.4068	2,639.65	68.9944	2,639.65	65.6268	2,639.65	66.7002	2,639.65	67.3899	2,639.65	67.8299	2,639.65	65.2904	2,639.65	66.9028	2,639.65	64.239	2,639.65	62.0946	2,639.65	66.4837	2,639.65	60.7317	2,639.65	64.0815
2,731.93	81.2283	2,731.93	80.8793	2,731.93	80.9595	2,731.93	80.2765	2,731.93	80.4692	2,731.93	79.3875	2,731.93	79.9098	2,731.93	77.9083	2,731.93	78.6918	2,731.93	76.7348	2,731.93	77.1712	2,731.93	75.6823	2,731.93	75.7858	2,731.93	73.8046	2,731.93	74.235	2,731.93	72.2991	2,731.93	73.1446	2,731.93	70.3505	2,731.93	70.4447	2,731.93	67.8648	2,731.93	67.9429	2,731.93	68.681	2,731.93	66.9234	2,731.93	66.5508	2,731.93	68.075	2,731.93	65.2099	2,731.93	65.6303	2,731.93	66.5288	2,731.93	67.3107	2,731.93	65.1415	2,731.93	67.8461	2,731.93	61.3885	2,731.93	64.6766	2,731.93	62.4517	2,731.93	60.6802	2,731.93	61.6874
2,828.61	81.6732	2,828.61	81.2736	2,828.61	81.2181	2,828.61	80.531	2,828.61	81.3009	2,828.61	80.1616	2,828.61	80.457	2,828.61	78.7196	2,828.61	79.2368	2,828.61	77.0781	2,828.61	77.611	2,828.61	75.4818	2,828.61	75.8415	2,828.61	73.6659	2,828.61	74.7867	2,828.61	72.6329	2,828.61	73.85	2,828.61	70.5511	2,828.61	71.6905	2,828.61	67.7601	2,828.61	68.8128	2,828.61	67.5625	2,828.61	68.4808	2,828.61	65.8263	2,828.61	68.2704	2,828.61	65.6244	2,828.61	66.0266	2,828.61	66.8644	2,828.61	66.6267	2,828.61	65.1314	2,828.61	68.5141	2,828.61	59.9184	2,828.61	63.8332	2,828.61	64.9329	2,828.61	59.0172	2,828.61	63.8003
2,928.22	82.131	2,928.22	81.8019	2,928.22	81.6062	2,928.22	81.0584	2,928.22	81.6433	2,928.22	80.7262	2,928.22	80.5948	2,928.22	79.6407	2,928.22	79.6095	2,928.22	78.0845	2,928.22	78.5177	2,928.22	76.2553	2,928.22	76.7358	2,928.22	74.6554	2,928.22	75.3474	2,928.22	73.6578	2,928.22	74.0837	2,928.22	71.5109	2,928.22	72.8558	2,928.22	69.0735	2,928.22	69.7834	2,928.22	66.9625	2,928.22	69.0585	2,928.22	68.3875	2,928.22	68.4912	2,928.22	66.1444	2,928.22	64.8743	2,928.22	66.7797	2,928.22	65.8266	2,928.22	68.5042	2,928.22	67.6945	2,928.22	61.591	2,928.22	64.3625	2,928.22	61.4959	2,928.22	60.2626	2,928.22	63.9896
3,030.76	82.3491	3,030.76	82.2807	3,030.76	82.0406	3,030.76	81.6749	3,030.76	81.7787	3,030.76	81.4194	3,030.76	80.9781	3,030.76	80.7456	3,030.76	80.1368	3,030.76	79.1818	3,030.76	79.0714	3,030.76	77.0893	3,030.76	77.6845	3,030.76	75.386	3,030.76	75.8841	3,030.76	74.3906	3,030.76	74.4432	3,030.76	72.9146	3,030.76	73.2161	3,030.76	70.3569	3,030.76	70.9005	3,030.76	68.9627	3,030.76	69.4037	3,030.76	68.6692	3,030.76	69.5465	3,030.76	68.017	3,030.76	67.3737	3,030.76	68.196	3,030.76	65.5838	3,030.76	67.3117	3,030.76	67.4883	3,030.76	61.0081	3,030.76	64.8072	3,030.76	63.4075	3,030.76	60.6479	3,030.76	65.9604
3,137.7	82.6895	3,137.7	82.1858	3,137.7	82.8722	3,137.7	82.1666	3,137.7	82.0106	3,137.7	81.4784	3,137.7	81.3031	3,137.7	80.6542	3,137.7	80.4602	3,137.7	79.6175	3,137.7	79.8189	3,137.7	77.9979	3,137.7	78.6956	3,137.7	75.9882	3,137.7	76.4823	3,137.7	74.8089	3,137.7	74.6627	3,137.7	73.5024	3,137.7	73.9138	3,137.7	70.3125	3,137.7	71.8512	3,137.7	69.3139	3,137.7	68.897	3,137.7	69.4542	3,137.7	69.575	3,137.7	67.0335	3,137.7	68.9397	3,137.7	67.9176	3,137.7	66.5404	3,137.7	67.0668	3,137.7	68.2189	3,137.7	61.4738	3,137.7	65.1954	3,137.7	65.1267	3,137.7	61.3871	3,137.7	66.7932
3,249.02	82.9099	3,249.02	82.6957	3,249.02	82.9116	3,249.02	82.3947	3,249.02	82.618	3,249.02	81.6536	3,249.02	81.9147	3,249.02	80.5017	3,249.02	80.9693	3,249.02	79.4631	3,249.02	79.9831	3,249.02	78.189	3,249.02	78.8907	3,249.02	76.0838	3,249.02	77.1448	3,249.02	74.8128	3,249.02	74.9046	3,249.02	73.8152	3,249.02	73.8346	3,249.02	70.8463	3,249.02	72.0777	3,249.02	68.9498	3,249.02	68.8443	3,249.02	69.4775	3,249.02	69.1512	3,249.02	67.7679	3,249.02	68.9932	3,249.02	67.1755	3,249.02	66.8174	3,249.02	66.7689	3,249.02	67.8684	3,249.02	62.2807	3,249.02	65.3743	3,249.02	67.129	3,249.02	61.5769	3,249.02	67.0129
3,363.28	81.6236	3,363.28	81.1454	3,363.28	81.884	3,363.28	81.4104	3,363.28	81.2578	3,363.28	80.9201	3,363.28	80.9291	3,363.28	79.8865	3,363.28	79.8561	3,363.28	78.7676	3,363.28	79.056	3,363.28	77.672	3,363.28	77.916	3,363.28	75.5801	3,363.28	76.1523	3,363.28	74.1331	3,363.28	73.8775	3,363.28	72.4291	3,363.28	71.8739	3,363.28	69.9322	3,363.28	70.2077	3,363.28	66.5131	3,363.28	66.5491	3,363.28	68.3869	3,363.28	67.0562	3,363.28	67.5193	3,363.28	67.697	3,363.28	65.9196	3,363.28	64.9793	3,363.28	66.857	3,363.28	65.7886	3,363.28	61.2223	3,363.28	64.1007	3,363.28	64.9642	3,363.28	61.029	3,363.28	66.3012
3,481.93	80.525	3,481.93	80.5329	3,481.93	80.6356	3,481.93	80.5309	3,481.93	80.8477	3,481.93	80.3123	3,481.93	80.6986	3,481.93	79.5888	3,481.93	80.41	3,481.93	78.6047	3,481.93	79.9516	3,481.93	77.7295	3,481.93	78.7389	3,481.93	76.1028	3,481.93	76.8393	3,481.93	74.0884	3,481.93	75.0069	3,481.93	72.9275	3,481.93	72.4937	3,481.93	70.5816	3,481.93	70.8923	3,481.93	67.979	3,481.93	68.2684	3,481.93	68.6555	3,481.93	67.1136	3,481.93	67.4063	3,481.93	68.456	3,481.93	66.7293	3,481.93	66.4996	3,481.93	67.3224	3,481.93	67.2562	3,481.93	60.894	3,481.93	65.5558	3,481.93	63.6445	3,481.93	58.9577	3,481.93	65.69
3,604.98	80.7756	3,604.98	81.1981	3,604.98	81.0312	3,604.98	81.3561	3,604.98	81.8882	3,604.98	81.5849	3,604.98	82.081	3,604.98	81.0894	3,604.98	81.9734	3,604.98	80.0855	3,604.98	81.0993	3,604.98	78.663	3,604.98	79.6315	3,604.98	76.9333	3,604.98	78.0797	3,604.98	74.6822	3,604.98	76.0383	3,604.98	72.8377	3,604.98	73.7552	3,604.98	71.3606	3,604.98	72.4164	3,604.98	67.2811	3,604.98	70.681	3,604.98	68.0218	3,604.98	68.2679	3,604.98	67.9359	3,604.98	69.6745	3,604.98	66.1821	3,604.98	67.8263	3,604.98	67.6117	3,604.98	68.8828	3,604.98	61.2275	3,604.98	66.5458	3,604.98	61.5855	3,604.98	61.9615	3,604.98	65.9313
3,732.42	80.713	3,732.42	81.4039	3,732.42	80.5145	3,732.42	81.3004	3,732.42	81.2247	3,732.42	81.6335	3,732.42	81.4339	3,732.42	81.4515	3,732.42	81.31	3,732.42	80.3965	3,732.42	80.1242	3,732.42	78.9414	3,732.42	78.3518	3,732.42	77.1187	3,732.42	76.5735	3,732.42	75.1667	3,732.42	75.0144	3,732.42	73.5962	3,732.42	71.7952	3,732.42	71.789	3,732.42	70.2246	3,732.42	69.1048	3,732.42	68.8735	3,732.42	68.4907	3,732.42	66.1954	3,732.42	68.3569	3,732.42	68.0149	3,732.42	66.4421	3,732.42	65.6534	3,732.42	68.1109	3,732.42	66.6288	3,732.42	62.5672	3,732.42	65.4227	3,732.42	61.7148	3,732.42	58.3205	3,732.42	64.7395
3,864.26	79.7534	3,864.26	80.0003	3,864.26	80.2218	3,864.26	80.6176	3,864.26	80.4988	3,864.26	81.0102	3,864.26	80.8802	3,864.26	80.6419	3,864.26	80.9022	3,864.26	79.0936	3,864.26	80.0682	3,864.26	77.5639	3,864.26	78.4609	3,864.26	76.101	3,864.26	76.6235	3,864.26	73.6438	3,864.26	75.0629	3,864.26	71.0862	3,864.26	72.8467	3,864.26	69.7321	3,864.26	71.2819	3,864.26	67.1095	3,864.26	69.9201	3,864.26	66.3367	3,864.26	66.7516	3,864.26	67.428	3,864.26	67.7903	3,864.26	65.0914	3,864.26	66.61	3,864.26	66.8904	3,864.26	65.4936	3,864.26	60.6298	3,864.26	65.7334	3,864.26	61.2121	3,864.26	57.2643	3,864.26	63.5304
4,000.49	80.7656	4,000.49	80.6698	4,000.49	81.5001	4,000.49	82.0263	4,000.49	81.3632	4,000.49	82.3014	4,000.49	81.6635	4,000.49	81.7866	4,000.49	81.4955	4,000.49	80.4274	4,000.49	80.6657	4,000.49	78.7774	4,000.49	78.6456	4,000.49	76.6298	4,000.49	76.9051	4,000.49	74.6717	4,000.49	74.8715	4,000.49	71.5338	4,000.49	72.5883	4,000.49	69.9768	4,000.49	70.1905	4,000.49	68.0982	4,000.49	68.6595	4,000.49	65.0578	4,000.49	65.537	4,000.49	67.7095	4,000.49	66.8928	4,000.49	64.9775	4,000.49	66.0555	4,000.49	66.8229	4,000.49	65.2822	4,000.49	62.6846	4,000.49	65.6875	4,000.49	58.8329	4,000.49	58.6177	4,000.49	64.2871
4,141.11	80.7997	4,141.11	81.135	4,141.11	81.1783	4,141.11	81.7312	4,141.11	81.7208	4,141.11	81.4955	4,141.11	81.6761	4,141.11	80.7432	4,141.11	81.5898	4,141.11	80.1166	4,141.11	80.72	4,141.11	77.8853	4,141.11	79.101	4,141.11	75.2403	4,141.11	77.0603	4,141.11	74.1913	4,141.11	75.0827	4,141.11	72.1427	4,141.11	73.1861	4,141.11	70.1015	4,141.11	70.788	4,141.11	68.9258	4,141.11	69.5656	4,141.11	65.1653	4,141.11	66.5656	4,141.11	68.2458	4,141.11	66.3941	4,141.11	66.1757	4,141.11	66.3088	4,141.11	66.3684	4,141.11	64.2484	4,141.11	63.28	4,141.11	65.5617	4,141.11	61.7725	4,141.11	57.3117	4,141.11	64.3019
4,287.6	81.3498	4,287.6	81.6182	4,287.6	81.4748	4,287.6	81.6638	4,287.6	82.311	4,287.6	81.876	4,287.6	82.3137	4,287.6	81.1009	4,287.6	82.0033	4,287.6	80.1591	4,287.6	81.1464	4,287.6	78.1852	4,287.6	79.2579	4,287.6	76.0439	4,287.6	77.2229	4,287.6	74.2066	4,287.6	75.1629	4,287.6	71.5983	4,287.6	73.3079	4,287.6	70.1657	4,287.6	71.0781	4,287.6	68.6562	4,287.6	69.4106	4,287.6	64.4134	4,287.6	67.6275	4,287.6	67.0877	4,287.6	66.3551	4,287.6	64.9946	4,287.6	67.6699	4,287.6	65.4265	4,287.6	65.25	4,287.6	63.0029	4,287.6	66.088	4,287.6	59.9229	4,287.6	57.6447	4,287.6	63.6593
4,438.48	80.7216	4,438.48	80.8641	4,438.48	81.1716	4,438.48	81.6701	4,438.48	81.7582	4,438.48	81.8118	4,438.48	82.2691	4,438.48	80.9994	4,438.48	81.6341	4,438.48	79.7943	4,438.48	80.6976	4,438.48	78.1674	4,438.48	79.3476	4,438.48	76.1791	4,438.48	77.2922	4,438.48	74.2106	4,438.48	75.4739	4,438.48	71.9806	4,438.48	73.4684	4,438.48	70.031	4,438.48	71.4027	4,438.48	68.5831	4,438.48	69.1961	4,438.48	65.9129	4,438.48	68.0884	4,438.48	67.0959	4,438.48	65.5064	4,438.48	66.466	4,438.48	67.386	4,438.48	66.1557	4,438.48	64.1695	4,438.48	63.3765	4,438.48	66.3834	4,438.48	59.4357	4,438.48	58.3833	4,438.48	63.4275
4,595.21	81.7582	4,595.21	81.8418	4,595.21	81.9189	4,595.21	82.5493	4,595.21	82.5789	4,595.21	82.6908	4,595.21	82.9028	4,595.21	81.9617	4,595.21	82.2992	4,595.21	80.5384	4,595.21	81.3503	4,595.21	78.7389	4,595.21	79.6997	4,595.21	76.5118	4,595.21	77.4064	4,595.21	74.196	4,595.21	75.5741	4,595.21	71.4802	4,595.21	74.1057	4,595.21	69.3508	4,595.21	72.0298	4,595.21	67.6056	4,595.21	69.7783	4,595.21	65.4136	4,595.21	68.3598	4,595.21	65.6994	4,595.21	66.5968	4,595.21	65.9041	4,595.21	68.13	4,595.21	64.9554	4,595.21	65.8188	4,595.21	64.433	4,595.21	66.8736	4,595.21	58.8851	4,595.21	58.0923	4,595.21	63.7167
4,756.35	80.8147	4,756.35	81.16	4,756.35	80.8031	4,756.35	81.582	4,756.35	81.4589	4,756.35	81.3096	4,756.35	81.4967	4,756.35	80.7029	4,756.35	80.9903	4,756.35	79.9227	4,756.35	80.2401	4,756.35	78.4036	4,756.35	78.6925	4,756.35	76.5838	4,756.35	76.9795	4,756.35	74.8311	4,756.35	75.0121	4,756.35	72.8558	4,756.35	72.962	4,756.35	70.997	4,756.35	70.8937	4,756.35	69.5793	4,756.35	68.2504	4,756.35	67.2594	4,756.35	67.186	4,756.35	67.354	4,756.35	65.2899	4,756.35	67.1286	4,756.35	67.0182	4,756.35	66.5534	4,756.35	64.3911	4,756.35	64.9853	4,756.35	66.4472	4,756.35	58.809	4,756.35	57.0465	4,756.35	62.5548
4,924.8	81.7235	4,924.8	81.3352	4,924.8	81.9926	4,924.8	81.3779	4,924.8	81.7075	4,924.8	81.5247	4,924.8	81.9548	4,924.8	80.6902	4,924.8	81.4764	4,924.8	78.8839	4,924.8	80.1679	4,924.8	77.4902	4,924.8	79.1489	4,924.8	75.2387	4,924.8	77.411	4,924.8	72.9956	4,924.8	75.3429	4,924.8	70.5286	4,924.8	72.9256	4,924.8	67.8506	4,924.8	70.692	4,924.8	67.5083	4,924.8	68.5691	4,924.8	64.68	4,924.8	67.0466	4,924.8	64.6126	4,924.8	65.5939	4,924.8	66.186	4,924.8	67.4363	4,924.8	64.5832	4,924.8	65.6139	4,924.8	63.9955	4,924.8	66.0724	4,924.8	54.4767	4,924.8	59.6889	4,924.8	62.6765
5,097.66	82.4447	5,097.66	82.3759	5,097.66	82.2108	5,097.66	82.3032	5,097.66	82.0988	5,097.66	81.9582	5,097.66	81.8572	5,097.66	81.5247	5,097.66	81.2885	5,097.66	80.4854	5,097.66	80.6287	5,097.66	79.2724	5,097.66	79.3185	5,097.66	77.0316	5,097.66	77.185	5,097.66	74.9441	5,097.66	75.343	5,097.66	73.2128	5,097.66	73.3028	5,097.66	70.9214	5,097.66	70.9149	5,097.66	69.2638	5,097.66	69.6866	5,097.66	67.2465	5,097.66	66.5833	5,097.66	65.2655	5,097.66	65.1661	5,097.66	67.9726	5,097.66	66.7207	5,097.66	65.0974	5,097.66	65.3011	5,097.66	65.6028	5,097.66	65.8601	5,097.66	56.7435	5,097.66	59.3021	5,097.66	62.4697
5,277.83	83.1195	5,277.83	82.7719	5,277.83	82.8595	5,277.83	82.2868	5,277.83	82.7987	5,277.83	81.7071	5,277.83	81.9742	5,277.83	81.1522	5,277.83	81.6114	5,277.83	79.9736	5,277.83	80.9984	5,277.83	78.3445	5,277.83	79.154	5,277.83	76.1353	5,277.83	77.421	5,277.83	73.1546	5,277.83	75.3018	5,277.83	71.4374	5,277.83	73.3951	5,277.83	69.5983	5,277.83	70.6811	5,277.83	66.5441	5,277.83	69.5691	5,277.83	64.7055	5,277.83	67.5108	5,277.83	63.9023	5,277.83	65.8876	5,277.83	67.1314	5,277.83	66.4503	5,277.83	63.0142	5,277.83	65.6947	5,277.83	64.7915	5,277.83	65.2831	5,277.83	53.7342	5,277.83	61.1498	5,277.83	60.4759
5,463.87	83.4196	5,463.87	82.7433	5,463.87	83.0961	5,463.87	81.9014	5,463.87	82.5087	5,463.87	81.145	5,463.87	81.8205	5,463.87	79.9339	5,463.87	80.7371	5,463.87	79.1098	5,463.87	79.8239	5,463.87	77.5421	5,463.87	78.4275	5,463.87	76.3632	5,463.87	76.8423	5,463.87	73.2096	5,463.87	74.9758	5,463.87	71.2323	5,463.87	72.1383	5,463.87	70.1068	5,463.87	69.4234	5,463.87	67.917	5,463.87	67.9077	5,463.87	65.7213	5,463.87	66.3966	5,463.87	63.6663	5,463.87	64.788	5,463.87	64.0697	5,463.87	64.6734	5,463.87	62.2962	5,463.87	64.7394	5,463.87	65.1069	5,463.87	63.4085	5,463.87	54.7187	5,463.87	60.3949	5,463.87	60.2465
5,657.23	84.4842	5,657.23	84.0295	5,657.23	84.3639	5,657.23	82.9929	5,657.23	83.1689	5,657.23	82.2007	5,657.23	82.4329	5,657.23	80.7483	5,657.23	81.4816	5,657.23	79.0431	5,657.23	80.6529	5,657.23	77.7524	5,657.23	79.1173	5,657.23	75.0602	5,657.23	76.2601	5,657.23	71.8498	5,657.23	74.4308	5,657.23	70.3491	5,657.23	72.0315	5,657.23	66.6451	5,657.23	70.1253	5,657.23	66.4563	5,657.23	67.5921	5,657.23	64.7627	5,657.23	66.3749	5,657.23	60.6054	5,657.23	63.8359	5,657.23	63.949	5,657.23	64.7343	5,657.23	60.1738	5,657.23	65.3356	5,657.23	64.1522	5,657.23	63.0129	5,657.23	48.7309	5,657.23	60.8901	5,657.23	60.3466
5,856.45	84.2069	5,856.45	83.5893	5,856.45	83.922	5,856.45	82.4718	5,856.45	83.1162	5,856.45	81.5099	5,856.45	81.8678	5,856.45	80.7686	5,856.45	81.1984	5,856.45	79.9632	5,856.45	80.7668	5,856.45	78.661	5,856.45	78.9491	5,856.45	76.4994	5,856.45	77.1558	5,856.45	74.464	5,856.45	75.1184	5,856.45	72.6664	5,856.45	72.94	5,856.45	68.9407	5,856.45	70.7097	5,856.45	67.6623	5,856.45	68.6953	5,856.45	66.9607	5,856.45	66.9604	5,856.45	65.2041	5,856.45	64.7529	5,856.45	67.5284	5,856.45	64.3332	5,856.45	63.627	5,856.45	66.1899	5,856.45	64.6326	5,856.45	61.0555	5,856.45	45.0352	5,856.45	63.0562	5,856.45	59.3128
6,062.99	84.9125	6,062.99	84.3438	6,062.99	84.5031	6,062.99	82.9294	6,062.99	83.5506	6,062.99	82.3016	6,062.99	82.8203	6,062.99	81.6348	6,062.99	82.2102	6,062.99	81.3546	6,062.99	81.5602	6,062.99	79.6672	6,062.99	80.8588	6,062.99	77.9119	6,062.99	79.112	6,062.99	75.1653	6,062.99	77.3469	6,062.99	72.593	6,062.99	74.658	6,062.99	70.5217	6,062.99	72.7061	6,062.99	67.9753	6,062.99	69.5957	6,062.99	65.9597	6,062.99	69.232	6,062.99	65.1899	6,062.99	66.6207	6,062.99	66.6538	6,062.99	65.7405	6,062.99	65.7763	6,062.99	68.8459	6,062.99	65.4445	6,062.99	63.8789	6,062.99	52.3002	6,062.99	64.1712	6,062.99	59.923
6,276.86	84.9242	6,276.86	83.9041	6,276.86	84.5654	6,276.86	82.3106	6,276.86	83.1725	6,276.86	81.9121	6,276.86	82.5919	6,276.86	81.7071	6,276.86	82.4312	6,276.86	81.5244	6,276.86	82.3387	6,276.86	80.2705	6,276.86	81.3624	6,276.86	78.13	6,276.86	79.4028	6,276.86	75.8667	6,276.86	77.5221	6,276.86	73.3144	6,276.86	74.6392	6,276.86	71.7042	6,276.86	72.6187	6,276.86	69.6332	6,276.86	70.1396	6,276.86	67.6594	6,276.86	69.0116	6,276.86	65.7173	6,276.86	66.8737	6,276.86	66.9106	6,276.86	66.6885	6,276.86	66.2907	6,276.86	68.5547	6,276.86	66.5733	6,276.86	64.1285	6,276.86	54.2802	6,276.86	65.0737	6,276.86	60.8232
6,498.05	84.9963	6,498.05	83.7541	6,498.05	84.4269	6,498.05	82.3518	6,498.05	82.9542	6,498.05	81.8838	6,498.05	82.0652	6,498.05	82.2728	6,498.05	82.3621	6,498.05	81.8371	6,498.05	82.6895	6,498.05	80.902	6,498.05	81.5958	6,498.05	78.6489	6,498.05	80.2086	6,498.05	76.639	6,498.05	78.1226	6,498.05	74.2877	6,498.05	75.51	6,498.05	71.5958	6,498.05	73.152	6,498.05	68.8935	6,498.05	70.465	6,498.05	67.6362	6,498.05	69.7152	6,498.05	65.6011	6,498.05	67.1309	6,498.05	66.6821	6,498.05	66.9137	6,498.05	66.8173	6,498.05	68.9493	6,498.05	65.8273	6,498.05	65.0463	6,498.05	55.4955	6,498.05	65.6084	6,498.05	60.108
6,726.56	84.979	6,726.56	83.7628	6,726.56	84.2115	6,726.56	82.269	6,726.56	82.7023	6,726.56	81.9365	6,726.56	82.1068	6,726.56	82.5354	6,726.56	82.4773	6,726.56	82.5638	6,726.56	83.1215	6,726.56	81.7055	6,726.56	82.4809	6,726.56	79.8478	6,726.56	80.7934	6,726.56	77.6165	6,726.56	78.7621	6,726.56	75.1451	6,726.56	76.2881	6,726.56	73.0012	6,726.56	73.906	6,726.56	69.3762	6,726.56	71.4591	6,726.56	68.3278	6,726.56	69.8397	6,726.56	66.9357	6,726.56	68.6241	6,726.56	66.7665	6,726.56	66.9135	6,726.56	67.6963	6,726.56	69.3142	6,726.56	65.5416	6,726.56	66.124	6,726.56	53.6331	6,726.56	65.4595	6,726.56	61.0846
6,963.87	84.2701	6,963.87	83.0279	6,963.87	83.671	6,963.87	81.579	6,963.87	82.0664	6,963.87	81.7694	6,963.87	81.3832	6,963.87	82.4791	6,963.87	82.2923	6,963.87	82.6647	6,963.87	82.9028	6,963.87	81.7577	6,963.87	81.9558	6,963.87	79.6688	6,963.87	80.3828	6,963.87	77.7974	6,963.87	78.3698	6,963.87	74.8483	6,963.87	75.7407	6,963.87	72.4501	6,963.87	73.737	6,963.87	69.5005	6,963.87	70.8462	6,963.87	68.049	6,963.87	69.627	6,963.87	66.4069	6,963.87	68.155	6,963.87	66.1102	6,963.87	66.0489	6,963.87	67.2863	6,963.87	67.9277	6,963.87	65.5403	6,963.87	65.8393	6,963.87	52.0101	6,963.87	64.9631	6,963.87	60.378
7,209.96	84.3287	7,209.96	83.6907	7,209.96	83.9561	7,209.96	82.4064	7,209.96	82.7733	7,209.96	82.4394	7,209.96	81.8605	7,209.96	83.3591	7,209.96	82.9004	7,209.96	83.378	7,209.96	83.3526	7,209.96	82.5192	7,209.96	82.5718	7,209.96	80.3869	7,209.96	80.9276	7,209.96	78.2175	7,209.96	78.9375	7,209.96	75.4284	7,209.96	76.5396	7,209.96	72.5243	7,209.96	74.0835	7,209.96	70.0338	7,209.96	71.683	7,209.96	68.234	7,209.96	69.7489	7,209.96	66.5594	7,209.96	67.7787	7,209.96	66.4983	7,209.96	66.7094	7,209.96	67.821	7,209.96	68.543	7,209.96	65.6952	7,209.96	66.1891	7,209.96	54.5507	7,209.96	64.1149	7,209.96	60.8806
7,464.84	83.7089	7,464.84	82.9871	7,464.84	83.3059	7,464.84	81.9299	7,464.84	82.2007	7,464.84	81.9004	7,464.84	81.7292	7,464.84	82.6289	7,464.84	82.4551	7,464.84	82.3589	7,464.84	83.0006	7,464.84	81.4005	7,464.84	82.2718	7,464.84	79.4714	7,464.84	80.5107	7,464.84	76.8751	7,464.84	78.4496	7,464.84	74.3078	7,464.84	76.1874	7,464.84	72.0458	7,464.84	73.5976	7,464.84	68.837	7,464.84	71.1626	7,464.84	67.4942	7,464.84	68.8254	7,464.84	65.7778	7,464.84	67.8091	7,464.84	66.1014	7,464.84	65.9443	7,464.84	67.3662	7,464.84	67.172	7,464.84	64.8076	7,464.84	65.6297	7,464.84	51.93	7,464.84	62.2485	7,464.84	59.7093
7,727.05	83.2353	7,727.05	82.7486	7,727.05	83.0406	7,727.05	82.2023	7,727.05	82.6096	7,727.05	82.0352	7,727.05	82.0511	7,727.05	82.5054	7,727.05	82.325	7,727.05	82.6269	7,727.05	82.8025	7,727.05	81.5506	7,727.05	82.1927	7,727.05	79.6393	7,727.05	80.4221	7,727.05	76.9823	7,727.05	78.6411	7,727.05	74.5356	7,727.05	76.1366	7,727.05	72.0014	7,727.05	73.6211	7,727.05	69.8122	7,727.05	71.3612	7,727.05	67.8163	7,727.05	69.0018	7,727.05	66.1874	7,727.05	68.1293	7,727.05	65.7683	7,727.05	66.4398	7,727.05	67.8586	7,727.05	66.9422	7,727.05	64.6315	7,727.05	66.1506	7,727.05	51.935	7,727.05	62.6053	7,727.05	61.4719
7,999.51	82.3439	7,999.51	82.5219	7,999.51	82.6099	7,999.51	82.2162	7,999.51	82.5775	7,999.51	82.0897	7,999.51	81.9428	7,999.51	82.3261	7,999.51	81.8912	7,999.51	82.3733	7,999.51	82.3757	7,999.51	81.5566	7,999.51	81.9211	7,999.51	79.5061	7,999.51	80.3478	7,999.51	76.8644	7,999.51	78.4581	7,999.51	74.7491	7,999.51	75.7918	7,999.51	71.5257	7,999.51	73.2137	7,999.51	69.3025	7,999.51	70.8556	7,999.51	67.509	7,999.51	68.9824	7,999.51	65.9094	7,999.51	67.6056	7,999.51	65.5666	7,999.51	66.5129	7,999.51	67.7992	7,999.51	66.1867	7,999.51	63.8001	7,999.51	65.4301	7,999.51	51.3575	7,999.51	61.5527	7,999.51	60.4231
8,282.23	82.5545	8,282.23	83.2002	8,282.23	82.974	8,282.23	83.3374	8,282.23	83.563	8,282.23	82.5291	8,282.23	82.5228	8,282.23	82.5837	8,282.23	81.9962	8,282.23	82.5883	8,282.23	82.5842	8,282.23	81.5981	8,282.23	82.1786	8,282.23	80.0118	8,282.23	80.7315	8,282.23	77.3765	8,282.23	78.6399	8,282.23	75.0045	8,282.23	76.2282	8,282.23	71.8215	8,282.23	73.6442	8,282.23	69.9483	8,282.23	71.1484	8,282.23	68.0239	8,282.23	68.9342	8,282.23	66.1851	8,282.23	68.3473	8,282.23	65.8969	8,282.23	66.9485	8,282.23	68.6269	8,282.23	66.625	8,282.23	64.4923	8,282.23	65.7959	8,282.23	50.9805	8,282.23	61.0452	8,282.23	61.273
8,573.73	82.1803	8,573.73	83.559	8,573.73	83.1962	8,573.73	83.8304	8,573.73	84.1543	8,573.73	82.4483	8,573.73	83.0606	8,573.73	81.8801	8,573.73	81.9914	8,573.73	82.1555	8,573.73	82.2501	8,573.73	81.4096	8,573.73	82.0608	8,573.73	79.5048	8,573.73	80.54	8,573.73	76.9565	8,573.73	78.6104	8,573.73	74.7674	8,573.73	76.3414	8,573.73	71.3232	8,573.73	73.6993	8,573.73	69.6939	8,573.73	70.9081	8,573.73	67.2284	8,573.73	69.0878	8,573.73	65.7871	8,573.73	67.9009	8,573.73	65.0884	8,573.73	66.694	8,573.73	67.7692	8,573.73	66.6258	8,573.73	63.8761	8,573.73	66.213	8,573.73	53.2274	8,573.73	61.5795	8,573.73	60.6782
8,876.95	81.6278	8,876.95	83.7208	8,876.95	82.8655	8,876.95	84.1664	8,876.95	84.4967	8,876.95	82.1382	8,876.95	83.2992	8,876.95	80.8305	8,876.95	81.2856	8,876.95	81.2673	8,876.95	81.5203	8,876.95	81.0878	8,876.95	81.3049	8,876.95	79.5942	8,876.95	79.9481	8,876.95	77.0335	8,876.95	78.3264	8,876.95	74.8135	8,876.95	75.8179	8,876.95	72.0675	8,876.95	73.2051	8,876.95	70.0757	8,876.95	70.4269	8,876.95	67.4573	8,876.95	67.9866	8,876.95	66.2397	8,876.95	67.2226	8,876.95	65.0858	8,876.95	66.0112	8,876.95	67.7123	8,876.95	66.5181	8,876.95	64.7708	8,876.95	65.798	8,876.95	53.9772	8,876.95	61.5544	8,876.95	60.322
9,188.96	81.8618	9,188.96	84.4698	9,188.96	83.005	9,188.96	84.9859	9,188.96	84.9599	9,188.96	82.153	9,188.96	84.0872	9,188.96	80.3488	9,188.96	81.9174	9,188.96	81.4697	9,188.96	81.4817	9,188.96	81.8664	9,188.96	81.3188	9,188.96	80.466	9,188.96	80.2509	9,188.96	77.9646	9,188.96	78.4331	9,188.96	75.4873	9,188.96	76.0226	9,188.96	72.4051	9,188.96	73.3098	9,188.96	70.0858	9,188.96	70.5219	9,188.96	66.7673	9,188.96	68.4003	9,188.96	66.2367	9,188.96	66.7313	9,188.96	65.4895	9,188.96	65.9879	9,188.96	67.6698	9,188.96	66.3387	9,188.96	63.2327	9,188.96	65.6351	9,188.96	56.609	9,188.96	62.1522	9,188.96	59.9709
9,514.16	82.1702	9,514.16	84.2416	9,514.16	82.5373	9,514.16	84.3647	9,514.16	84.3901	9,514.16	81.4557	9,514.16	83.7635	9,514.16	79.9862	9,514.16	81.5739	9,514.16	81.3051	9,514.16	81.2301	9,514.16	81.9175	9,514.16	80.9724	9,514.16	80.3828	9,514.16	79.8992	9,514.16	77.8109	9,514.16	77.9638	9,514.16	75.0258	9,514.16	75.3055	9,514.16	72.251	9,514.16	72.4279	9,514.16	69.6156	9,514.16	69.7427	9,514.16	66.4734	9,514.16	67.0319	9,514.16	66.0064	9,514.16	65.7294	9,514.16	65.2119	9,514.16	64.29	9,514.16	66.3929	9,514.16	65.4355	9,514.16	62.8126	9,514.16	64.9565	9,514.16	56.3406	9,514.16	61.2442	9,514.16	59.0517
9,849.61	82.8357	9,849.61	83.1579	9,849.61	82.8447	9,849.61	83.0714	9,849.61	83.0868	9,849.61	81.9856	9,849.61	82.6466	9,849.61	81.6265	9,849.61	81.7527	9,849.61	82.0359	9,849.61	81.786	9,849.61	81.6439	9,849.61	81.3721	9,849.61	79.5983	9,849.61	79.7315	9,849.61	76.9421	9,849.61	77.5026	9,849.61	74.198	9,849.61	74.475	9,849.61	71.06	9,849.61	71.6252	9,849.61	68.7738	9,849.61	68.5573	9,849.61	65.543	9,849.61	65.8537	9,849.61	64.9391	9,849.61	64.5733	9,849.61	64.2341	9,849.61	61.9692	9,849.61	64.7186	9,849.61	63.4257	9,849.61	60.6249	9,849.61	63.55	9,849.61	55.9614	9,849.61	59.968	9,849.61	56.278
10,196.8	83.2479	10,196.8	82.077	10,196.8	83.3027	10,196.8	82.4308	10,196.8	82.3116	10,196.8	82.9928	10,196.8	81.6633	10,196.8	82.346	10,196.8	81.8664	10,196.8	81.4697	10,196.8	82.4362	10,196.8	80.2378	10,196.8	81.6172	10,196.8	77.8178	10,196.8	79.4618	10,196.8	75.2423	10,196.8	76.8293	10,196.8	72.5523	10,196.8	73.6775	10,196.8	69.9346	10,196.8	70.5229	10,196.8	67.2854	10,196.8	67.3812	10,196.8	64.3354	10,196.8	64.8427	10,196.8	63.5012	10,196.8	63.8628	10,196.8	62.9889	10,196.8	60.7839	10,196.8	62.624	10,196.8	61.9394	10,196.8	59.1229	10,196.8	62.3416	10,196.8	54.8304	10,196.8	58.6529	10,196.8	55.353
10,555.7	83.3125	10,555.7	81.26	10,555.7	83.0771	10,555.7	82.1236	10,555.7	81.3184	10,555.7	83.0747	10,555.7	81.5238	10,555.7	81.762	10,555.7	82.2778	10,555.7	80.263	10,555.7	82.433	10,555.7	78.954	10,555.7	81.0882	10,555.7	76.7694	10,555.7	78.4813	10,555.7	74.5904	10,555.7	75.945	10,555.7	71.8819	10,555.7	72.6157	10,555.7	68.9277	10,555.7	69.4693	10,555.7	66.1903	10,555.7	66.2921	10,555.7	62.8668	10,555.7	63.7418	10,555.7	62.35	10,555.7	62.6288	10,555.7	61.6779	10,555.7	60.5848	10,555.7	61.6755	10,555.7	60.6565	10,555.7	57.4933	10,555.7	61.2087	10,555.7	52.8981	10,555.7	57.6083	10,555.7	54.7763
10,927.7	83.2983	10,927.7	81.2004	10,927.7	82.721	10,927.7	81.8459	10,927.7	81.0531	10,927.7	82.6379	10,927.7	81.9358	10,927.7	81.3577	10,927.7	82.3036	10,927.7	79.8462	10,927.7	81.8858	10,927.7	79	10,927.7	80.07	10,927.7	77.0289	10,927.7	77.8971	10,927.7	74.4479	10,927.7	75.3408	10,927.7	71.5257	10,927.7	72.4804	10,927.7	68.6466	10,927.7	69.5693	10,927.7	65.4376	10,927.7	66.1223	10,927.7	62.5505	10,927.7	64.0085	10,927.7	61.934	10,927.7	62.0693	10,927.7	60.8559	10,927.7	60.6261	10,927.7	61.0112	10,927.7	60.4952	10,927.7	56.6645	10,927.7	60.7471	10,927.7	53.0258	10,927.7	56.858	10,927.7	54.7653
11,313	83.6104	11,313	81.8195	11,313	82.6669	11,313	82.0008	11,313	81.8913	11,313	82.4122	11,313	82.6202	11,313	81.1242	11,313	81.9253	11,313	80.0864	11,313	81.271	11,313	79.5417	11,313	80.2364	11,313	77.6008	11,313	78.8605	11,313	74.8897	11,313	76.7155	11,313	71.6725	11,313	73.6641	11,313	68.5264	11,313	70.5684	11,313	65.1469	11,313	67.28	11,313	62.5049	11,313	65.0293	11,313	61.5567	11,313	62.6127	11,313	60.0637	11,313	61.3217	11,313	60.3638	11,313	61.2546	11,313	55.0227	11,313	61.7321	11,313	53.4626	11,313	57.0032	11,313	55.7987
11,712.9	83.8589	11,712.9	82.6187	11,712.9	83.0629	11,712.9	82.3431	11,712.9	82.8504	11,712.9	82.1945	11,712.9	82.8924	11,712.9	81.1273	11,712.9	81.4297	11,712.9	80.6987	11,712.9	81.1647	11,712.9	80.2792	11,712.9	81.2181	11,712.9	78.0757	11,712.9	80.1356	11,712.9	75.058	11,712.9	77.9054	11,712.9	71.5474	11,712.9	74.5854	11,712.9	68.5159	11,712.9	71.2617	11,712.9	64.7297	11,712.9	67.7416	11,712.9	62.4769	11,712.9	65.3911	11,712.9	61.1214	11,712.9	63.5445	11,712.9	59.9586	11,712.9	61.3846	11,712.9	59.8804	11,712.9	61.5922	11,712.9	53.7701	11,712.9	62.1027	11,712.9	52.9735	11,712.9	57.3285	11,712.9	56.4347
12,126	83.881	12,126	83.1054	12,126	83.3497	12,126	82.5744	12,126	83.2118	12,126	81.8112	12,126	82.5339	12,126	80.9745	12,126	80.9481	12,126	81.0235	12,126	81.3872	12,126	80.589	12,126	81.7245	12,126	78.105	12,126	80.3651	12,126	74.8321	12,126	77.79	12,126	71.4529	12,126	74.3557	12,126	68.2437	12,126	70.961	12,126	64.3972	12,126	67.3766	12,126	63.5038	12,126	64.756	12,126	60.9805	12,126	63.0288	12,126	59.3917	12,126	61.3262	12,126	58.2337	12,126	61.2042	12,126	53.2811	12,126	61.6923	12,126	53.3144	12,126	56.8756	12,126	55.7217
12,553.7	83.6293	12,553.7	83.3025	12,553.7	83.3789	12,553.7	82.6579	12,553.7	83.2118	12,553.7	81.5933	12,553.7	82.2173	12,553.7	81.0401	12,553.7	80.8819	12,553.7	81.2103	12,553.7	81.5095	12,553.7	80.5519	12,553.7	81.6462	12,553.7	78.1821	12,553.7	79.9861	12,553.7	75.0023	12,553.7	77.2353	12,553.7	71.4166	12,553.7	73.6884	12,553.7	67.8829	12,553.7	70.3598	12,553.7	64.6188	12,553.7	67.1147	12,553.7	63.5936	12,553.7	64.3406	12,553.7	61.2424	12,553.7	62.5328	12,553.7	58.969	12,553.7	60.7557	12,553.7	56.4373	12,553.7	60.5152	12,553.7	52.4076	12,553.7	60.3017	12,553.7	53.1251	12,553.7	57.206	12,553.7	54.9648
12,996.1	83.459	12,996.1	83.3031	12,996.1	83.4478	12,996.1	82.5139	12,996.1	83.1016	12,996.1	81.562	12,996.1	81.9518	12,996.1	81.1879	12,996.1	81.0256	12,996.1	81.2755	12,996.1	81.3365	12,996.1	80.5007	12,996.1	81.1141	12,996.1	78.0513	12,996.1	79.3005	12,996.1	74.7014	12,996.1	76.6178	12,996.1	71.4009	12,996.1	73.097	12,996.1	67.5328	12,996.1	69.8949	12,996.1	64.3207	12,996.1	66.3709	12,996.1	63.0668	12,996.1	63.9865	12,996.1	60.9633	12,996.1	61.9469	12,996.1	58.6666	12,996.1	60.5947	12,996.1	53.6407	12,996.1	59.6353	12,996.1	53.0271	12,996.1	59.3287	12,996.1	51.7938	12,996.1	56.2247	12,996.1	53.6276
13,454.6	83.2648	13,454.6	83.3053	13,454.6	83.3579	13,454.6	82.3203	13,454.6	82.9123	13,454.6	81.4765	13,454.6	81.7615	13,454.6	80.9438	13,454.6	81.1424	13,454.6	80.8063	13,454.6	81.0483	13,454.6	80.0818	13,454.6	80.6375	13,454.6	77.7841	13,454.6	78.8953	13,454.6	74.4112	13,454.6	76.2477	13,454.6	71.2211	13,454.6	72.8517	13,454.6	67.1919	13,454.6	69.5183	13,454.6	64.2618	13,454.6	66.0844	13,454.6	62.5572	13,454.6	63.4799	13,454.6	60.2473	13,454.6	61.698	13,454.6	58.2082	13,454.6	60.5005	13,454.6	51.4823	13,454.6	58.9023	13,454.6	53.8565	13,454.6	58.3681	13,454.6	50.111	13,454.6	56.2962	13,454.6	53.5396
13,929.2	83.0053	13,929.2	83.071	13,929.2	83.2708	13,929.2	82.0338	13,929.2	82.5877	13,929.2	81.3546	13,929.2	81.6511	13,929.2	80.5333	13,929.2	81.0883	13,929.2	80.2473	13,929.2	80.5789	13,929.2	79.6035	13,929.2	80.2614	13,929.2	77.5268	13,929.2	78.6673	13,929.2	74.1025	13,929.2	76.1755	13,929.2	70.9228	13,929.2	72.7319	13,929.2	66.6211	13,929.2	69.3383	13,929.2	64.2811	13,929.2	65.7925	13,929.2	62.616	13,929.2	63.3921	13,929.2	59.803	13,929.2	61.1469	13,929.2	57.4222	13,929.2	59.99	13,929.2	50.5539	13,929.2	58.0933	13,929.2	54.1226	13,929.2	57.6846	13,929.2	47.1857	13,929.2	56.3004	13,929.2	52.62
14,419.9	82.9427	14,419.9	82.9629	14,419.9	83.2516	14,419.9	82.0259	14,419.9	82.4994	14,419.9	81.3867	14,419.9	81.82	14,419.9	80.1987	14,419.9	81.0503	14,419.9	79.7486	14,419.9	80.2197	14,419.9	79.2981	14,419.9	80.0632	14,419.9	77.2883	14,419.9	78.727	14,419.9	73.8828	14,419.9	76.2599	14,419.9	70.6926	14,419.9	72.7471	14,419.9	66.2099	14,419.9	69.1696	14,419.9	64.0012	14,419.9	65.5909	14,419.9	62.3943	14,419.9	63.5205	14,419.9	59.1006	14,419.9	60.9335	14,419.9	56.9629	14,419.9	59.274	14,419.9	49.5278	14,419.9	56.8096	14,419.9	53.7994	14,419.9	56.6733	14,419.9	43.819	14,419.9	56.5523	14,419.9	51.8444
14,928.2	83.285	14,928.2	83.0691	14,928.2	83.5404	14,928.2	82.1539	14,928.2	82.8013	14,928.2	81.5059	14,928.2	82.2897	14,928.2	80.1004	14,928.2	81.2868	14,928.2	79.6775	14,928.2	80.2729	14,928.2	79.3333	14,928.2	80.1973	14,928.2	77.2759	14,928.2	79.0783	14,928.2	73.8807	14,928.2	76.3221	14,928.2	70.4588	14,928.2	72.8273	14,928.2	65.8511	14,928.2	69.0558	14,928.2	63.8549	14,928.2	65.5103	14,928.2	61.059	14,928.2	63.6593	14,928.2	57.6159	14,928.2	60.8539	14,928.2	55.4847	14,928.2	59.1586	14,928.2	45.6822	14,928.2	55.4357	14,928.2	53.2815	14,928.2	55.2787	14,928.2	40.9236	14,928.2	56.2064	14,928.2	50.7511
15,455.6	83.3483	15,455.6	82.9631	15,455.6	83.3989	15,455.6	82.2152	15,455.6	82.7587	15,455.6	81.4838	15,455.6	82.2527	15,455.6	79.905	15,455.6	81.0017	15,455.6	79.5176	15,455.6	80.0579	15,455.6	79.1191	15,455.6	79.9655	15,455.6	77.0723	15,455.6	78.8838	15,455.6	73.8234	15,455.6	75.9936	15,455.6	70.0223	15,455.6	72.6067	15,455.6	65.5193	15,455.6	68.622	15,455.6	63.9793	15,455.6	65.2315	15,455.6	60.9228	15,455.6	63.3373	15,455.6	56.7634	15,455.6	60.191	15,455.6	54.4583	15,455.6	58.3345	15,455.6	42.1005	15,455.6	53.6524	15,455.6	53.0183	15,455.6	53.8157	15,455.6	42.2497	15,455.6	55.1522	15,455.6	49.4295
16,000.5	83.3204	16,000.5	82.8041	16,000.5	83.2451	16,000.5	82.2553	16,000.5	82.6341	16,000.5	81.3881	16,000.5	82.0353	16,000.5	79.8021	16,000.5	80.6884	16,000.5	79.1774	16,000.5	79.7492	16,000.5	78.9271	16,000.5	79.5015	16,000.5	76.934	16,000.5	78.4142	16,000.5	73.6897	16,000.5	75.3174	16,000.5	69.9656	16,000.5	72.2041	16,000.5	65.6669	16,000.5	67.8003	16,000.5	63.658	16,000.5	64.6304	16,000.5	60.2097	16,000.5	62.7612	16,000.5	56.2555	16,000.5	59.0446	16,000.5	54.0377	16,000.5	57.1715	16,000.5	46.3827	16,000.5	52.1472	16,000.5	52.7887	16,000.5	51.9679	16,000.5	45.0843	16,000.5	53.7505	16,000.5	48.0181
16,564.5	82.9755	16,564.5	82.4467	16,564.5	82.7485	16,564.5	81.8937	16,564.5	82.1955	16,564.5	81.0065	16,564.5	81.4765	16,564.5	79.5315	16,564.5	80.0903	16,564.5	78.6493	16,564.5	79.0242	16,564.5	78.4763	16,564.5	78.481	16,564.5	76.5023	16,564.5	77.5628	16,564.5	73.3645	16,564.5	74.5638	16,564.5	69.4571	16,564.5	71.2563	16,564.5	65.3953	16,564.5	66.815	16,564.5	63.4594	16,564.5	63.9446	16,564.5	58.6612	16,564.5	61.8772	16,564.5	55.0641	16,564.5	58.1727	16,564.5	53.0935	16,564.5	55.1581	16,564.5	48.8287	16,564.5	49.9996	16,564.5	50.9722	16,564.5	50.4758	16,564.5	46.8278	16,564.5	51.2762	16,564.5	46.5495
17,148.9	82.2437	17,148.9	81.7748	17,148.9	82.0452	17,148.9	81.2615	17,148.9	81.5833	17,148.9	80.3545	17,148.9	80.698	17,148.9	78.8336	17,148.9	79.3633	17,148.9	77.8627	17,148.9	78.0891	17,148.9	77.7645	17,148.9	77.4078	17,148.9	76.0068	17,148.9	76.7265	17,148.9	72.9922	17,148.9	73.7466	17,148.9	68.6996	17,148.9	70.3796	17,148.9	65.2408	17,148.9	65.9971	17,148.9	62.7906	17,148.9	63.2221	17,148.9	57.7628	17,148.9	60.6202	17,148.9	53.3909	17,148.9	56.7341	17,148.9	51.0217	17,148.9	54.0242	17,148.9	49.0424	17,148.9	46.7612	17,148.9	48.8973	17,148.9	48.3472	17,148.9	47.0353	17,148.9	48.4501	17,148.9	45.3698
17,752.4	81.6509	17,752.4	81.2675	17,752.4	81.4472	17,752.4	80.7013	17,752.4	80.9866	17,752.4	79.7793	17,752.4	79.985	17,752.4	78.1435	17,752.4	78.7109	17,752.4	77.0647	17,752.4	77.2268	17,752.4	77.1013	17,752.4	76.6555	17,752.4	75.3665	17,752.4	75.9879	17,752.4	72.365	17,752.4	73.1965	17,752.4	67.9349	17,752.4	69.6743	17,752.4	64.4956	17,752.4	65.3805	17,752.4	61.8881	17,752.4	62.5561	17,752.4	56.846	17,752.4	59.2651	17,752.4	53.07	17,752.4	55.3404	17,752.4	48.7135	17,752.4	53.1541	17,752.4	48.6679	17,752.4	42.0068	17,752.4	46.1665	17,752.4	47.7701	17,752.4	46.3749	17,752.4	45.8774	17,752.4	43.605
18,379.4	80.9746	18,379.4	80.7223	18,379.4	80.923	18,379.4	80.1228	18,379.4	80.4177	18,379.4	79.1407	18,379.4	79.3708	18,379.4	77.4403	18,379.4	78.1015	18,379.4	76.1753	18,379.4	76.4473	18,379.4	76.2636	18,379.4	75.9463	18,379.4	74.5397	18,379.4	75.3394	18,379.4	71.5142	18,379.4	72.6603	18,379.4	67.0114	18,379.4	68.8931	18,379.4	63.6715	18,379.4	64.8216	18,379.4	60.5039	18,379.4	61.7795	18,379.4	54.9909	18,379.4	57.9846	18,379.4	51.6087	18,379.4	54.5833	18,379.4	46.6443	18,379.4	51.4936	18,379.4	48.378	18,379.4	38.2776	18,379.4	44.8751	18,379.4	46.0258	18,379.4	44.9782	18,379.4	44.7141	18,379.4	42.4176
19,026.9	80.738	19,026.9	80.5854	19,026.9	80.7521	19,026.9	79.9329	19,026.9	80.154	19,026.9	78.8774	19,026.9	79.0329	19,026.9	77.2376	19,026.9	77.6808	19,026.9	75.7617	19,026.9	75.9964	19,026.9	75.9008	19,026.9	75.5222	19,026.9	74.1524	19,026.9	74.8311	19,026.9	71.1104	19,026.9	72.1796	19,026.9	66.5935	19,026.9	68.2709	19,026.9	63.2514	19,026.9	64.2822	19,026.9	59.401	19,026.9	61.1416	19,026.9	54.2864	19,026.9	57.4852	19,026.9	50.1945	19,026.9	53.8725	19,026.9	45.7339	19,026.9	50.6231	19,026.9	48.481	19,026.9	35.3393	19,026.9	43.2839	19,026.9	43.2756	19,026.9	43.8027	19,026.9	43.7738	19,026.9	41.8062
19,697.8	80.9106	19,697.8	80.7849	19,697.8	80.9278	19,697.8	80.1229	19,697.8	80.2238	19,697.8	78.9515	19,697.8	79.0234	19,697.8	77.3176	19,697.8	77.6685	19,697.8	75.7328	19,697.8	75.9841	19,697.8	75.7804	19,697.8	75.3573	19,697.8	74.0494	19,697.8	74.67	19,697.8	71.002	19,697.8	72.1197	19,697.8	66.4134	19,697.8	68.2861	19,697.8	63.0572	19,697.8	64.2069	19,697.8	58.9028	19,697.8	60.9579	19,697.8	53.2968	19,697.8	57.0736	19,697.8	50.919	19,697.8	53.5874	19,697.8	43.8464	19,697.8	50.4444	19,697.8	48.6024	19,697.8	17.9395	19,697.8	41.6204	19,697.8	38.7703	19,697.8	42.8599	19,697.8	44.8328	19,697.8	42.4116
19,999.5	80.9383	19,999.5	80.7552	19,999.5	81.0216	19,999.5	80.1744	19,999.5	80.2356	19,999.5	79.0573	19,999.5	79.0767	19,999.5	77.4223	19,999.5	77.7021	19,999.5	75.6904	19,999.5	75.9566	19,999.5	75.5592	19,999.5	75.3632	19,999.5	73.885	19,999.5	74.8046	19,999.5	70.8641	19,999.5	72.1178	19,999.5	66.4471	19,999.5	68.6087	19,999.5	62.9545	19,999.5	64.4062	19,999.5	56.7032	19,999.5	61.1973	19,999.5	53.2007	19,999.5	55.4445	19,999.5	51.192	19,999.5	51.6149	19,999.5	37.004	19,999.5	52.3971	19,999.5	46.4792	19,999.5	42.3304	19,999.5	42.7686	19,999.5	42.3908	19,999.5	47.6228	19,999.5	50.0874	19,999.5	34.6954
