"SPL Horizontal"
"On-Axis"		"10°"		"-10°"		"20°"		"-20°"		"30°"		"-30°"		"40°"		"-40°"		"50°"		"-50°"		"60°"		"-60°"		"70°"		"-70°"		"80°"		"-80°"		"90°"		"-90°"		"100°"		"-100°"		"110°"		"-110°"		"120°"		"-120°"		"130°"		"-130°"		"140°"		"-140°"		"150°"		"-150°"		"160°"		"-160°"		"170°"		"-170°"		"180°"
"Frequency / Hz"	"Sound Pressure Level / dB (re 20 µPa/V)  [2.83  V @ 1. m]"	"Frequency / Hz"	"Sound Pressure Level / dB (re 20 µPa/V)  [2.83  V @ 1. m]"	"Frequency / Hz"	"Sound Pressure Level / dB (re 20 µPa/V)  [2.83  V @ 1. m]"	"Frequency / Hz"	"Sound Pressure Level / dB (re 20 µPa/V)  [2.83  V @ 1. m]"	"Frequency / Hz"	"Sound Pressure Level / dB (re 20 µPa/V)  [2.83  V @ 1. m]"	"Frequency / Hz"	"Sound Pressure Level / dB (re 20 µPa/V)  [2.83  V @ 1. m]"	"Frequency / Hz"	"Sound Pressure Level / dB (re 20 µPa/V)  [2.83  V @ 1. m]"	"Frequency / Hz"	"Sound Pressure Level / dB (re 20 µPa/V)  [2.83  V @ 1. m]"	"Frequency / Hz"	"Sound Pressure Level / dB (re 20 µPa/V)  [2.83  V @ 1. m]"	"Frequency / Hz"	"Sound Pressure Level / dB (re 20 µPa/V)  [2.83  V @ 1. m]"	"Frequency / Hz"	"Sound Pressure Level / dB (re 20 µPa/V)  [2.83  V @ 1. m]"	"Frequency / Hz"	"Sound Pressure Level / dB (re 20 µPa/V)  [2.83  V @ 1. m]"	"Frequency / Hz"	"Sound Pressure Level / dB (re 20 µPa/V)  [2.83  V @ 1. m]"	"Frequency / Hz"	"Sound Pressure Level / dB (re 20 µPa/V)  [2.83  V @ 1. m]"	"Frequency / Hz"	"Sound Pressure Level / dB (re 20 µPa/V)  [2.83  V @ 1. m]"	"Frequency / Hz"	"Sound Pressure Level / dB (re 20 µPa/V)  [2.83  V @ 1. m]"	"Frequency / Hz"	"Sound Pressure Level / dB (re 20 µPa/V)  [2.83  V @ 1. m]"	"Frequency / Hz"	"Sound Pressure Level / dB (re 20 µPa/V)  [2.83  V @ 1. m]"	"Frequency / Hz"	"Sound Pressure Level / dB (re 20 µPa/V)  [2.83  V @ 1. m]"	"Frequency / Hz"	"Sound Pressure Level / dB (re 20 µPa/V)  [2.83  V @ 1. m]"	"Frequency / Hz"	"Sound Pressure Level / dB (re 20 µPa/V)  [2.83  V @ 1. m]"	"Frequency / Hz"	"Sound Pressure Level / dB (re 20 µPa/V)  [2.83  V @ 1. m]"	"Frequency / Hz"	"Sound Pressure Level / dB (re 20 µPa/V)  [2.83  V @ 1. m]"	"Frequency / Hz"	"Sound Pressure Level / dB (re 20 µPa/V)  [2.83  V @ 1. m]"	"Frequency / Hz"	"Sound Pressure Level / dB (re 20 µPa/V)  [2.83  V @ 1. m]"	"Frequency / Hz"	"Sound Pressure Level / dB (re 20 µPa/V)  [2.83  V @ 1. m]"	"Frequency / Hz"	"Sound Pressure Level / dB (re 20 µPa/V)  [2.83  V @ 1. m]"	"Frequency / Hz"	"Sound Pressure Level / dB (re 20 µPa/V)  [2.83  V @ 1. m]"	"Frequency / Hz"	"Sound Pressure Level / dB (re 20 µPa/V)  [2.83  V @ 1. m]"	"Frequency / Hz"	"Sound Pressure Level / dB (re 20 µPa/V)  [2.83  V @ 1. m]"	"Frequency / Hz"	"Sound Pressure Level / dB (re 20 µPa/V)  [2.83  V @ 1. m]"	"Frequency / Hz"	"Sound Pressure Level / dB (re 20 µPa/V)  [2.83  V @ 1. m]"	"Frequency / Hz"	"Sound Pressure Level / dB (re 20 µPa/V)  [2.83  V @ 1. m]"	"Frequency / Hz"	"Sound Pressure Level / dB (re 20 µPa/V)  [2.83  V @ 1. m]"	"Frequency / Hz"	"Sound Pressure Level / dB (re 20 µPa/V)  [2.83  V @ 1. m]"	"Frequency / Hz"	"Sound Pressure Level / dB (re 20 µPa/V)  [2.83  V @ 1. m]"
20.5078	64.1522	20.5078	64.1442	20.5078	64.1468	20.5078	64.1225	20.5078	64.1283	20.5078	64.087	20.5078	64.0973	20.5078	64.038	20.5078	64.0543	20.5078	63.9763	20.5078	64	20.5078	63.9037	20.5078	63.9352	20.5078	63.8228	20.5078	63.861	20.5078	63.7367	20.5078	63.7788	20.5078	63.6488	20.5078	63.6909	20.5078	63.562	20.5078	63.5997	20.5078	63.4785	20.5078	63.5083	20.5078	63.4	20.5078	63.4198	20.5078	63.3276	20.5078	63.3372	20.5078	63.2625	20.5078	63.2638	20.5078	63.2066	20.5078	63.2028	20.5078	63.1625	20.5078	63.1572	20.5078	63.1334	20.5078	63.1298	20.5078	63.1219
21.9727	65.4086	21.9727	65.3957	21.9727	65.4095	21.9727	65.3695	21.9727	65.3995	21.9727	65.3296	21.9727	65.3799	21.9727	65.2764	21.9727	65.3519	21.9727	65.2111	21.9727	65.3162	21.9727	65.1362	21.9727	65.2735	21.9727	65.0549	21.9727	65.2249	21.9727	64.9705	21.9727	65.1714	21.9727	64.8868	21.9727	65.1144	21.9727	64.8071	21.9727	65.0554	21.9727	64.7346	21.9727	64.9961	21.9727	64.6728	21.9727	64.9378	21.9727	64.6246	21.9727	64.8815	21.9727	64.593	21.9727	64.8275	21.9727	64.5796	21.9727	64.7759	21.9727	64.5844	21.9727	64.7265	21.9727	64.6053	21.9727	64.68	21.9727	64.6385
23.4375	65.8322	23.4375	65.8189	23.4375	65.8319	23.4375	65.7917	23.4375	65.8188	23.4375	65.751	23.4375	65.7944	23.4375	65.6978	23.4375	65.7604	23.4375	65.6336	23.4375	65.7188	23.4375	65.5603	23.4375	65.6715	23.4375	65.4807	23.4375	65.6203	23.4375	65.3979	23.4375	65.5671	23.4375	65.3158	23.4375	65.5138	23.4375	65.2385	23.4375	65.4618	23.4375	65.1702	23.4375	65.4119	23.4375	65.1141	23.4375	65.3641	23.4375	65.0726	23.4375	65.3172	23.4375	65.0468	23.4375	65.2701	23.4375	65.0367	23.4375	65.2223	23.4375	65.0416	23.4375	65.1748	23.4375	65.0603	23.4375	65.1298	23.4375	65.0906
24.9023	66.7335	24.9023	66.7243	24.9023	66.731	24.9023	66.7031	24.9023	66.7168	24.9023	66.6697	24.9023	66.6908	24.9023	66.6243	24.9023	66.6533	24.9023	66.5672	24.9023	66.6046	24.9023	66.4991	24.9023	66.5456	24.9023	66.4216	24.9023	66.478	24.9023	66.3367	24.9023	66.4037	24.9023	66.247	24.9023	66.3249	24.9023	66.1555	24.9023	66.2436	24.9023	66.0659	24.9023	66.1616	24.9023	65.9816	24.9023	66.0807	24.9023	65.9061	24.9023	66.0028	24.9023	65.8424	24.9023	65.9302	24.9023	65.7933	24.9023	65.8655	24.9023	65.7607	24.9023	65.8121	24.9023	65.7462	24.9023	65.7728	24.9023	65.7504
26.3672	66.9161	26.3672	66.9065	26.3672	66.9108	26.3672	66.8821	26.3672	66.8913	26.3672	66.8436	26.3672	66.8581	26.3672	66.792	26.3672	66.8121	26.3672	66.729	26.3672	66.7545	26.3672	66.6571	26.3672	66.6864	26.3672	66.5791	26.3672	66.6091	26.3672	66.4977	26.3672	66.5247	26.3672	66.4156	26.3672	66.4355	26.3672	66.3352	26.3672	66.3449	26.3672	66.2581	26.3672	66.2564	26.3672	66.1859	26.3672	66.1737	26.3672	66.12	26.3672	66.1	26.3672	66.0618	26.3672	66.0382	26.3672	66.013	26.3672	65.9903	26.3672	65.975	26.3672	65.9573	26.3672	65.9493	26.3672	65.9396	26.3672	65.9372
27.832	68.632	27.832	68.6207	27.832	68.6283	27.832	68.5948	27.832	68.6096	27.832	68.5551	27.832	68.576	27.832	68.5026	27.832	68.5281	27.832	68.4389	27.832	68.4672	27.832	68.3658	27.832	68.3948	27.832	68.2853	27.832	68.3133	27.832	68.1999	27.832	68.2257	27.832	68.1121	27.832	68.1352	27.832	68.0247	27.832	68.045	27.832	67.9404	27.832	67.9582	27.832	67.8618	27.832	67.8774	27.832	67.7913	27.832	67.8047	27.832	67.7309	27.832	67.7421	27.832	67.6822	27.832	67.691	27.832	67.6468	27.832	67.6529	27.832	67.6258	27.832	67.6288	27.832	67.6197
29.2969	69.5423	29.2969	69.5333	29.2969	69.5376	29.2969	69.5109	29.2969	69.5191	29.2969	69.4757	29.2969	69.4875	29.2969	69.4288	29.2969	69.4435	29.2969	69.3715	29.2969	69.3884	29.2969	69.3053	29.2969	69.3237	29.2969	69.2321	29.2969	69.2515	29.2969	69.1539	29.2969	69.1737	29.2969	69.073	29.2969	69.0928	29.2969	68.9917	29.2969	69.0112	29.2969	68.9128	29.2969	68.9315	29.2969	68.8387	29.2969	68.8563	29.2969	68.7719	29.2969	68.7879	29.2969	68.7147	29.2969	68.7285	29.2969	68.6689	29.2969	68.6799	29.2969	68.6359	29.2969	68.6436	29.2969	68.6166	29.2969	68.6206	29.2969	68.6115
30.7617	70.4031	30.7617	70.3905	30.7617	70.4039	30.7617	70.366	30.7617	70.3936	30.7617	70.3297	30.7617	70.3727	30.7617	70.2822	30.7617	70.3423	30.7617	70.2246	30.7617	70.3033	30.7617	70.1585	30.7617	70.257	30.7617	70.0862	30.7617	70.2047	30.7617	70.0103	30.7617	70.1477	30.7617	69.934	30.7617	70.0872	30.7617	69.8606	30.7617	70.0247	30.7617	69.7932	30.7617	69.9615	30.7617	69.7347	30.7617	69.8993	30.7617	69.6872	30.7617	69.8395	30.7617	69.6519	30.7617	69.784	30.7617	69.6293	30.7617	69.7342	30.7617	69.6192	30.7617	69.6919	30.7617	69.6211	30.7617	69.6582	30.7617	69.6344
32.2266	70.8265	32.2266	70.837	32.2266	70.7994	32.2266	70.8308	32.2266	70.7562	32.2266	70.8083	32.2266	70.6979	32.2266	70.7703	32.2266	70.6261	32.2266	70.718	32.2266	70.5427	32.2266	70.653	32.2266	70.45	32.2266	70.577	32.2266	70.3507	32.2266	70.4918	32.2266	70.2478	32.2266	70.3996	32.2266	70.1445	32.2266	70.3027	32.2266	70.0441	32.2266	70.2038	32.2266	69.9504	32.2266	70.1058	32.2266	69.8666	32.2266	70.0119	32.2266	69.796	32.2266	69.925	32.2266	69.741	32.2266	69.8481	32.2266	69.7033	32.2266	69.7837	32.2266	69.6838	32.2266	69.7337	32.2266	69.6827	32.2266	69.6997
33.6914	71.7507	33.6914	71.7439	33.6914	71.743	33.6914	71.7226	33.6914	71.7209	33.6914	71.6876	33.6914	71.6851	33.6914	71.6399	33.6914	71.6367	33.6914	71.5807	33.6914	71.577	33.6914	71.512	33.6914	71.5077	33.6914	71.4357	33.6914	71.4308	33.6914	71.3539	33.6914	71.3483	33.6914	71.269	33.6914	71.2626	33.6914	71.1834	33.6914	71.1762	33.6914	71.0996	33.6914	71.092	33.6914	71.0201	33.6914	71.0128	33.6914	70.9476	33.6914	70.9413	33.6914	70.8846	33.6914	70.8799	33.6914	70.8333	33.6914	70.8302	33.6914	70.7954	33.6914	70.7938	33.6914	70.7723	33.6914	70.7716	33.6914	70.7643
35.1562	72.4282	35.1562	72.4253	35.1562	72.4153	35.1562	72.4068	35.1562	72.3873	35.1562	72.3732	35.1562	72.3451	35.1562	72.3256	35.1562	72.2901	35.1562	72.2653	35.1562	72.2241	35.1562	72.1944	35.1562	72.1491	35.1562	72.115	35.1562	72.0674	35.1562	72.0298	35.1562	71.9815	35.1562	71.9412	35.1562	71.894	35.1562	71.852	35.1562	71.8073	35.1562	71.7649	35.1562	71.7239	35.1562	71.6824	35.1562	71.6462	35.1562	71.607	35.1562	71.5764	35.1562	71.5412	35.1562	71.5166	35.1562	71.4869	35.1562	71.4686	35.1562	71.446	35.1562	71.4339	35.1562	71.4197	35.1562	71.4137	35.1562	71.4089
36.6211	72.9447	36.6211	72.9444	36.6211	72.9291	36.6211	72.9282	36.6211	72.8981	36.6211	72.8966	36.6211	72.8527	36.6211	72.8506	36.6211	72.7942	36.6211	72.7916	36.6211	72.7246	36.6211	72.7215	36.6211	72.6461	36.6211	72.6428	36.6211	72.5615	36.6211	72.5579	36.6211	72.4735	36.6211	72.4698	36.6211	72.3853	36.6211	72.3812	36.6211	72.2997	36.6211	72.295	36.6211	72.2194	36.6211	72.2139	36.6211	72.1467	36.6211	72.1402	36.6211	72.0833	36.6211	72.076	36.6211	72.0305	36.6211	72.0231	36.6211	71.9894	36.6211	71.9829	36.6211	71.9607	36.6211	71.9563	36.6211	71.9454	36.6211	71.9438
38.0859	73.6153	38.0859	73.614	38.0859	73.6006	38.0859	73.5968	38.0859	73.5702	38.0859	73.5644	38.0859	73.5247	38.0859	73.5178	38.0859	73.4656	38.0859	73.4586	38.0859	73.3945	38.0859	73.3887	38.0859	73.3136	38.0859	73.3103	38.0859	73.2255	38.0859	73.2258	38.0859	73.1331	38.0859	73.1379	38.0859	73.0398	38.0859	73.0492	38.0859	72.9487	38.0859	72.9621	38.0859	72.8628	38.0859	72.8792	38.0859	72.7849	38.0859	72.8026	38.0859	72.7172	38.0859	72.7346	38.0859	72.6616	38.0859	72.677	38.0859	72.6194	38.0859	72.6315	38.0859	72.5917	38.0859	72.5994	38.0859	72.5791	38.0859	72.5817
39.5508	74.2626	39.5508	74.2561	39.5508	74.2516	39.5508	74.2326	39.5508	74.2236	39.5508	74.1927	39.5508	74.1792	39.5508	74.1377	39.5508	74.1198	39.5508	74.0693	39.5508	74.0472	39.5508	73.9899	39.5508	73.9637	39.5508	73.9021	39.5508	73.8721	39.5508	73.8088	39.5508	73.7754	39.5508	73.7132	39.5508	73.6772	39.5508	73.6184	39.5508	73.5807	39.5508	73.5275	39.5508	73.4893	39.5508	73.443	39.5508	73.4058	39.5508	73.3672	39.5508	73.3326	39.5508	73.3018	39.5508	73.2715	39.5508	73.2484	39.5508	73.224	39.5508	73.2079	39.5508	73.1908	39.5508	73.1814	39.5508	73.1726	39.5508	73.1695
41.0156	75.0093	41.0156	75.0069	41.0156	74.995	41.0156	74.988	41.0156	74.9647	41.0156	74.9528	41.0156	74.9192	41.0156	74.9023	41.0156	74.8602	41.0156	74.838	41.0156	74.7893	41.0156	74.7619	41.0156	74.7089	41.0156	74.6763	41.0156	74.6214	41.0156	74.5842	41.0156	74.5294	41.0156	74.4886	41.0156	74.4356	41.0156	74.3927	41.0156	74.3427	41.0156	74.2999	41.0156	74.2535	41.0156	74.2128	41.0156	74.1707	41.0156	74.1341	41.0156	74.0968	41.0156	74.0659	41.0156	74.0342	41.0156	74.0098	41.0156	73.9848	41.0156	73.9674	41.0156	73.9499	41.0156	73.9395	41.0156	73.9306	41.0156	73.9271
42.4805	75.6514	42.4805	75.648	42.4805	75.6385	42.4805	75.6285	42.4805	75.6097	42.4805	75.5933	42.4805	75.5659	42.4805	75.5434	42.4805	75.5083	42.4805	75.4802	42.4805	75.4386	42.4805	75.4056	42.4805	75.3589	42.4805	75.3221	42.4805	75.2715	42.4805	75.2323	42.4805	75.1791	42.4805	75.1394	42.4805	75.0844	42.4805	75.0464	42.4805	74.9903	42.4805	74.9563	42.4805	74.8996	42.4805	74.8716	42.4805	74.8154	42.4805	74.7945	42.4805	74.7406	42.4805	74.7268	42.4805	74.6778	42.4805	74.6699	42.4805	74.6292	42.4805	74.6255	42.4805	74.5961	42.4805	74.5948	42.4805	74.5794	42.4805	74.5791
43.9453	76.2009	43.9453	76.2011	43.9453	76.1847	43.9453	76.1854	43.9453	76.1532	43.9453	76.1542	43.9453	76.1075	43.9453	76.1088	43.9453	76.0492	43.9453	76.0508	43.9453	75.9805	43.9453	75.9823	43.9453	75.9037	43.9453	75.9057	43.9453	75.8216	43.9453	75.8236	43.9453	75.7369	43.9453	75.7389	43.9453	75.6524	43.9453	75.6544	43.9453	75.5706	43.9453	75.5728	43.9453	75.494	43.9453	75.4965	43.9453	75.4246	43.9453	75.4276	43.9453	75.3641	43.9453	75.3676	43.9453	75.3141	43.9453	75.3178	43.9453	75.2758	43.9453	75.2792	43.9453	75.25	43.9453	75.2525	43.9453	75.2376	43.9453	75.2385
45.4102	76.6286	45.4102	76.6312	45.4102	76.6098	45.4102	76.6175	45.4102	76.5753	45.4102	76.5877	45.4102	76.5261	45.4102	76.5428	45.4102	76.4637	45.4102	76.4842	45.4102	76.3899	45.4102	76.4136	45.4102	76.307	45.4102	76.3334	45.4102	76.2174	45.4102	76.2459	45.4102	76.1241	45.4102	76.1538	45.4102	76.03	45.4102	76.0601	45.4102	75.9383	45.4102	75.9674	45.4102	75.8519	45.4102	75.8788	45.4102	75.7734	45.4102	75.7971	45.4102	75.7052	45.4102	75.7248	45.4102	75.6489	45.4102	75.6641	45.4102	75.6061	45.4102	75.6167	45.4102	75.5776	45.4102	75.5839	45.4102	75.5642	45.4102	75.5663
46.875	77.3219	46.875	77.3208	46.875	77.3054	46.875	77.3024	46.875	77.2719	46.875	77.2673	46.875	77.2223	46.875	77.2166	46.875	77.1584	46.875	77.1524	46.875	77.082	46.875	77.0766	46.875	76.9957	46.875	76.992	46.875	76.9021	46.875	76.9012	46.875	76.8042	46.875	76.8071	46.875	76.7052	46.875	76.7123	46.875	76.6082	46.875	76.6195	46.875	76.5162	46.875	76.5309	46.875	76.4324	46.875	76.4489	46.875	76.3592	46.875	76.3759	46.875	76.2987	46.875	76.3138	46.875	76.2528	46.875	76.2647	46.875	76.2225	46.875	76.2301	46.875	76.2086	46.875	76.2112
48.3398	77.8551	48.3398	77.8524	48.3398	77.8409	48.3398	77.8329	48.3398	77.8103	48.3398	77.7973	48.3398	77.7645	48.3398	77.7468	48.3398	77.705	48.3398	77.6832	48.3398	77.6337	48.3398	77.6086	48.3398	77.5529	48.3398	77.5256	48.3398	77.4654	48.3398	77.4369	48.3398	77.3739	48.3398	77.3453	48.3398	77.2812	48.3398	77.2534	48.3398	77.1902	48.3398	77.1638	48.3398	77.1035	48.3398	77.079	48.3398	77.0237	48.3398	77.0015	48.3398	76.953	48.3398	76.9335	48.3398	76.8934	48.3398	76.8772	48.3398	76.8464	48.3398	76.8343	48.3398	76.8135	48.3398	76.806	48.3398	76.7955	48.3398	76.7929
51.2695	78.8007	51.2695	78.8044	51.2695	78.7793	51.2695	78.7903	51.2695	78.7408	51.2695	78.7591	51.2695	78.6867	51.2695	78.712	51.2695	78.6188	51.2695	78.6509	51.2695	78.5398	51.2695	78.5782	51.2695	78.4526	51.2695	78.4969	51.2695	78.3606	51.2695	78.41	51.2695	78.2672	51.2695	78.321	51.2695	78.1759	51.2695	78.2328	51.2695	78.0898	51.2695	78.1483	51.2695	78.0116	51.2695	78.0699	51.2695	77.9435	51.2695	77.9992	51.2695	77.8871	51.2695	77.9377	51.2695	77.8432	51.2695	77.8861	51.2695	77.8123	51.2695	77.8451	51.2695	77.7944	51.2695	77.815	51.2695	77.7892	51.2695	77.7962
52.7344	79.3434	52.7344	79.342	52.7344	79.3245	52.7344	79.3204	52.7344	79.286	52.7344	79.2794	52.7344	79.2292	52.7344	79.2202	52.7344	79.1563	52.7344	79.1452	52.7344	79.0699	52.7344	79.0573	52.7344	78.9732	52.7344	78.96	52.7344	78.8699	52.7344	78.8572	52.7344	78.7637	52.7344	78.7529	52.7344	78.6587	52.7344	78.6511	52.7344	78.5585	52.7344	78.555	52.7344	78.4664	52.7344	78.4673	52.7344	78.385	52.7344	78.39	52.7344	78.3163	52.7344	78.3242	52.7344	78.2614	52.7344	78.2706	52.7344	78.221	52.7344	78.2294	52.7344	78.1951	52.7344	78.201	52.7344	78.1834	52.7344	78.1855
54.1992	79.8095	54.1992	79.8024	54.1992	79.7959	54.1992	79.7748	54.1992	79.7623	54.1992	79.7277	54.1992	79.71	54.1992	79.6625	54.1992	79.641	54.1992	79.5817	54.1992	79.5581	54.1992	79.4882	54.1992	79.4644	54.1992	79.3854	54.1992	79.3634	54.1992	79.2771	54.1992	79.2588	54.1992	79.1675	54.1992	79.1543	54.1992	79.0605	54.1992	79.0532	54.1992	78.96	54.1992	78.9586	54.1992	78.8692	54.1992	78.873	54.1992	78.7906	54.1992	78.7982	54.1992	78.7259	54.1992	78.7355	54.1992	78.676	54.1992	78.6856	54.1992	78.6414	54.1992	78.649	54.1992	78.6218	54.1992	78.6259	54.1992	78.6168
55.6641	80.235	55.6641	80.2301	55.6641	80.2188	55.6641	80.2048	55.6641	80.1818	55.6641	80.16	55.6641	80.1248	55.6641	80.0976	55.6641	80.0494	55.6641	80.0195	55.6641	79.9582	55.6641	79.9284	55.6641	79.8544	55.6641	79.8273	55.6641	79.7419	55.6641	79.7193	55.6641	79.6251	55.6641	79.608	55.6641	79.5086	55.6641	79.4971	55.6641	79.397	55.6641	79.39	55.6641	79.2942	55.6641	79.2902	55.6641	79.2035	55.6641	79.2008	55.6641	79.1268	55.6641	79.1243	55.6641	79.0652	55.6641	79.0624	55.6641	79.0191	55.6641	79.0162	55.6641	78.9882	55.6641	78.986	55.6641	78.9723	55.6641	78.9715
58.5938	81.0681	58.5938	81.0585	58.5938	81.0579	58.5938	81.0295	58.5938	81.0286	58.5938	80.9817	58.5938	80.9812	58.5938	80.9166	58.5938	80.9175	58.5938	80.8363	58.5938	80.8397	58.5938	80.7436	58.5938	80.7503	58.5938	80.6417	58.5938	80.6523	58.5938	80.5341	58.5938	80.5489	58.5938	80.4246	58.5938	80.4432	58.5938	80.3169	58.5938	80.3385	58.5938	80.2146	58.5938	80.2377	58.5938	80.1208	58.5938	80.1436	58.5938	80.0381	58.5938	80.0589	58.5938	79.9684	58.5938	79.9859	58.5938	79.9132	58.5938	79.9266	58.5938	79.8736	58.5938	79.8826	58.5938	79.8504	58.5938	79.8549	58.5938	79.8441
60.0586	81.4246	60.0586	81.4214	60.0586	81.4104	60.0586	81.4008	60.0586	81.3794	60.0586	81.3635	60.0586	81.3328	60.0586	81.3111	60.0586	81.2725	60.0586	81.2455	60.0586	81.201	60.0586	81.1693	60.0586	81.1208	60.0586	81.0852	60.0586	81.035	60.0586	80.9965	60.0586	80.9466	60.0586	80.9062	60.0586	80.8586	60.0586	80.8175	60.0586	80.7734	60.0586	80.7331	60.0586	80.6936	60.0586	80.6555	60.0586	80.6213	60.0586	80.5866	60.0586	80.558	60.0586	80.528	60.0586	80.5051	60.0586	80.4809	60.0586	80.4637	60.0586	80.4459	60.0586	80.4345	60.0586	80.4236	60.0586	80.4179	60.0586	80.4143
62.9883	82.2442	62.9883	82.2365	62.9883	82.2327	62.9883	82.21	62.9883	82.2024	62.9883	82.1655	62.9883	82.1546	62.9883	82.105	62.9883	82.0911	62.9883	82.0309	62.9883	82.0145	62.9883	81.9459	62.9883	81.9279	62.9883	81.8537	62.9883	81.8349	62.9883	81.7577	62.9883	81.7392	62.9883	81.6617	62.9883	81.6445	62.9883	81.5691	62.9883	81.5542	62.9883	81.4831	62.9883	81.471	62.9883	81.4062	62.9883	81.3972	62.9883	81.34	62.9883	81.3339	62.9883	81.2857	62.9883	81.282	62.9883	81.2436	62.9883	81.2417	62.9883	81.2138	62.9883	81.213	62.9883	81.1961	62.9883	81.1959	62.9883	81.1902
64.4531	82.5647	64.4531	82.5575	64.4531	82.5521	64.4531	82.5307	64.4531	82.5199	64.4531	82.4856	64.4531	82.4693	64.4531	82.4242	64.4531	82.4023	64.4531	82.3491	64.4531	82.3216	64.4531	82.2635	64.4531	82.2306	64.4531	82.1709	64.4531	82.1329	64.4531	82.0751	64.4531	82.0326	64.4531	81.9794	64.4531	81.9337	64.4531	81.8874	64.4531	81.84	64.4531	81.8017	64.4531	81.7544	64.4531	81.7245	64.4531	81.6795	64.4531	81.6574	64.4531	81.6167	64.4531	81.6014	64.4531	81.5667	64.4531	81.5568	64.4531	81.5297	64.4531	81.5238	64.4531	81.5052	64.4531	81.5022	64.4531	81.4927	64.4531	81.4918
67.3828	83.1962	67.3828	83.1821	67.3828	83.1911	67.3828	83.1493	67.3828	83.1671	67.3828	83.0992	67.3828	83.1253	67.3828	83.0337	67.3828	83.0676	67.3828	82.9559	67.3828	82.9963	67.3828	82.8689	67.3828	82.9144	67.3828	82.7767	67.3828	82.8252	67.3828	82.6831	67.3828	82.7324	67.3828	82.5917	67.3828	82.6395	67.3828	82.5057	67.3828	82.5501	67.3828	82.4278	67.3828	82.4675	67.3828	82.3599	67.3828	82.394	67.3828	82.3031	67.3828	82.3315	67.3828	82.258	67.3828	82.2806	67.3828	82.2246	67.3828	82.2415	67.3828	82.2022	67.3828	82.2136	67.3828	82.1904	67.3828	82.1961	67.3828	82.1884
68.8477	83.5074	68.8477	83.4931	68.8477	83.5025	68.8477	83.46	68.8477	83.4791	68.8477	83.4094	68.8477	83.4385	68.8477	83.3434	68.8477	83.3829	68.8477	83.2652	68.8477	83.315	68.8477	83.1783	68.8477	83.238	68.8477	83.0869	68.8477	83.155	68.8477	82.995	68.8477	83.0695	68.8477	82.9066	68.8477	82.9846	68.8477	82.825	68.8477	82.903	68.8477	82.7529	68.8477	82.8272	68.8477	82.6918	68.8477	82.7594	68.8477	82.6426	68.8477	82.701	68.8477	82.6052	68.8477	82.6528	68.8477	82.579	68.8477	82.6151	68.8477	82.5631	68.8477	82.5872	68.8477	82.5565	68.8477	82.5686	68.8477	82.5584
71.7773	84.1689	71.7773	84.1588	71.7773	84.1574	71.7773	84.1273	71.7773	84.1253	71.7773	84.0757	71.7773	84.0744	71.7773	84.0062	71.7773	84.0076	71.7773	83.9221	71.7773	83.9284	71.7773	83.8275	71.7773	83.8407	71.7773	83.727	71.7773	83.7489	71.7773	83.6253	71.7773	83.6569	71.7773	83.5273	71.7773	83.5683	71.7773	83.437	71.7773	83.4861	71.7773	83.3577	71.7773	83.4122	71.7773	83.2915	71.7773	83.3478	71.7773	83.2393	71.7773	83.2934	71.7773	83.2009	71.7773	83.2489	71.7773	83.1751	71.7773	83.2138	71.7773	83.1604	71.7773	83.1874	71.7773	83.1552	71.7773	83.169	71.7773	83.1583
74.707	84.7589	74.707	84.7473	74.707	84.7487	74.707	84.714	74.707	84.7173	74.707	84.6604	74.707	84.6665	74.707	84.5889	74.707	84.5987	74.707	84.5027	74.707	84.5174	74.707	84.4056	74.707	84.4264	74.707	84.3021	74.707	84.3298	74.707	84.1968	74.707	84.2318	74.707	84.0942	74.707	84.1364	74.707	83.9983	74.707	84.0469	74.707	83.9124	74.707	83.9657	74.707	83.8387	74.707	83.8944	74.707	83.7786	74.707	83.8336	74.707	83.7325	74.707	83.7831	74.707	83.7001	74.707	83.7424	74.707	83.6806	74.707	83.7112	74.707	83.6729	74.707	83.689	74.707	83.676
77.6367	85.2495	77.6367	85.2402	77.6367	85.2368	77.6367	85.2092	77.6367	85.2029	77.6367	85.1576	77.6367	85.1497	77.6367	85.0879	77.6367	85.0799	77.6367	85.0034	77.6367	84.9968	77.6367	84.9082	77.6367	84.9047	77.6367	84.807	77.6367	84.8078	77.6367	84.7046	77.6367	84.7105	77.6367	84.6055	77.6367	84.6167	77.6367	84.5136	77.6367	84.5297	77.6367	84.432	77.6367	84.452	77.6367	84.3626	77.6367	84.3848	77.6367	84.306	77.6367	84.3287	77.6367	84.2623	77.6367	84.2834	77.6367	84.2306	77.6367	84.2483	77.6367	84.21	77.6367	84.2228	77.6367	84.1995	77.6367	84.2062	77.6367	84.1984
79.1016	85.4439	79.1016	85.435	79.1016	85.4299	79.1016	85.4036	79.1016	85.3938	79.1016	85.351	79.1016	85.3375	79.1016	85.2797	79.1016	85.264	79.1016	85.1933	79.1016	85.1769	79.1016	85.0961	79.1016	85.0807	79.1016	84.9931	79.1016	84.9801	79.1016	84.8893	79.1016	84.8799	79.1016	84.7897	79.1016	84.7843	79.1016	84.6985	79.1016	84.6969	79.1016	84.6186	79.1016	84.62	79.1016	84.5517	79.1016	84.5549	79.1016	84.4981	79.1016	84.5019	79.1016	84.4571	79.1016	84.4606	79.1016	84.4274	79.1016	84.43	79.1016	84.4075	79.1016	84.409	79.1016	84.3961	79.1016	84.3968	79.1016	84.3927
82.0312	85.8183	82.0312	85.8138	82.0312	85.7989	82.0312	85.7856	82.0312	85.7564	82.0312	85.7353	82.0312	85.6932	82.0312	85.6655	82.0312	85.6124	82.0312	85.5798	82.0312	85.5184	82.0312	85.4828	82.0312	85.4164	82.0312	85.3797	82.0312	85.3118	82.0312	85.2758	82.0312	85.2099	82.0312	85.1763	82.0312	85.1156	82.0312	85.0855	82.0312	85.0325	82.0312	85.0067	82.0312	84.9628	82.0312	84.9416	82.0312	84.9072	82.0312	84.8906	82.0312	84.8651	82.0312	84.8527	82.0312	84.8349	82.0312	84.826	82.0312	84.8145	82.0312	84.8087	82.0312	84.802	82.0312	84.7986	82.0312	84.7956	82.0312	84.7945
84.9609	86.1381	84.9609	86.137	84.9609	86.115	84.9609	86.1122	84.9609	86.0688	84.9609	86.0655	84.9609	86.0019	84.9609	86	84.9609	85.9178	84.9609	85.9198	84.9609	85.8213	84.9609	85.8301	84.9609	85.7177	84.9609	85.7364	84.9609	85.6128	84.9609	85.6442	84.9609	85.5124	84.9609	85.5583	84.9609	85.4217	84.9609	85.4827	84.9609	85.3447	84.9609	85.4194	84.9609	85.284	84.9609	85.3692	84.9609	85.2405	84.9609	85.331	84.9609	85.2133	84.9609	85.3025	84.9609	85.2005	84.9609	85.2807	84.9609	85.199	84.9609	85.2629	84.9609	85.2056	84.9609	85.2468	84.9609	85.2173	84.9609	85.2315
87.8906	86.6755	87.8906	86.6749	87.8906	86.6488	87.8906	86.6472	87.8906	86.5961	87.8906	86.5942	87.8906	86.52	87.8906	86.5188	87.8906	86.4247	87.8906	86.4253	87.8906	86.3154	87.8906	86.3189	87.8906	86.1982	87.8906	86.2058	87.8906	86.0796	87.8906	86.0922	87.8906	85.9658	87.8906	85.984	87.8906	85.8623	87.8906	85.8862	87.8906	85.7732	87.8906	85.8024	87.8906	85.7009	87.8906	85.7343	87.8906	85.6459	87.8906	85.6815	87.8906	85.6072	87.8906	85.6423	87.8906	85.5825	87.8906	85.6141	87.8906	85.569	87.8906	85.5939	87.8906	85.5638	87.8906	85.5797	87.8906	85.5646	87.8906	85.5701
90.8203	87.0078	90.8203	87.0028	90.8203	86.9827	90.8203	86.9684	90.8203	86.9284	90.8203	86.9065	90.8203	86.8469	90.8203	86.8202	90.8203	86.7419	90.8203	86.7138	90.8203	86.6181	90.8203	86.5923	90.8203	86.4815	90.8203	86.4617	90.8203	86.3387	90.8203	86.3279	90.8203	86.1968	90.8203	86.1969	90.8203	86.0624	90.8203	86.0742	90.8203	85.9413	90.8203	85.964	90.8203	85.8379	90.8203	85.8692	90.8203	85.7546	90.8203	85.791	90.8203	85.6917	90.8203	85.7292	90.8203	85.6481	90.8203	85.6825	90.8203	85.621	90.8203	85.6487	90.8203	85.6076	90.8203	85.6255	90.8203	85.6049	90.8203	85.6111
95.2148	87.0189	95.2148	87.0172	95.2148	86.9954	95.2148	86.9904	95.2148	86.948	95.2148	86.9403	95.2148	86.8795	95.2148	86.8698	95.2148	86.7937	95.2148	86.7831	95.2148	86.6955	95.2148	86.6855	95.2148	86.5902	95.2148	86.5825	95.2148	86.4833	95.2148	86.4795	95.2148	86.3801	95.2148	86.3817	95.2148	86.2848	95.2148	86.2929	95.2148	86.2011	95.2148	86.2159	95.2148	86.1309	95.2148	86.1518	95.2148	86.0754	95.2148	86.1007	95.2148	86.0341	95.2148	86.0613	95.2148	86.006	95.2148	86.0319	95.2148	85.9891	95.2148	86.0106	95.2148	85.9813	95.2148	85.9956	95.2148	85.9807	95.2148	85.9857
98.1445	87.1994	98.1445	87.1981	98.1445	87.175	98.1445	87.1714	98.1445	87.1257	98.1445	87.1217	98.1445	87.054	98.1445	87.0521	98.1445	86.9637	98.1445	86.9674	98.1445	86.8597	98.1445	86.873	98.1445	86.7479	98.1445	86.7747	98.1445	86.6342	98.1445	86.6781	98.1445	86.5248	98.1445	86.5878	98.1445	86.425	98.1445	86.5073	98.1445	86.3387	98.1445	86.4382	98.1445	86.2687	98.1445	86.3806	98.1445	86.2157	98.1445	86.333	98.1445	86.1795	98.1445	86.2933	98.1445	86.1584	98.1445	86.2594	98.1445	86.1503	98.1445	86.2298	98.1445	86.1529	98.1445	86.2036	98.1445	86.1639	98.1445	86.1813
101.074	87.2218	101.074	87.212	101.074	87.2074	101.074	87.1782	101.074	87.1701	101.074	87.1223	101.074	87.113	101.074	87.0478	101.074	87.0401	101.074	86.9596	101.074	86.9567	101.074	86.864	101.074	86.8682	101.074	86.7675	101.074	86.7805	101.074	86.6768	101.074	86.6987	101.074	86.5976	101.074	86.6272	101.074	86.5341	101.074	86.5689	101.074	86.4885	101.074	86.5253	101.074	86.4606	101.074	86.496	101.074	86.4481	101.074	86.4794	101.074	86.4473	101.074	86.4725	101.074	86.4536	101.074	86.4721	101.074	86.4626	101.074	86.4744	101.074	86.4706	101.074	86.4763	101.074	86.4753
105.469	87.578	105.469	87.5709	105.469	87.5472	105.469	87.5262	105.469	87.4804	105.469	87.4469	105.469	87.3824	105.469	87.3383	105.469	87.2602	105.469	87.2075	105.469	87.1226	105.469	87.0633	105.469	86.98	105.469	86.9153	105.469	86.8426	105.469	86.7731	105.469	86.7198	105.469	86.6453	105.469	86.6185	105.469	86.5385	105.469	86.5423	105.469	86.4567	105.469	86.4911	105.469	86.4009	105.469	86.4613	105.469	86.3696	105.469	86.4473	105.469	86.359	105.469	86.4427	105.469	86.364	105.469	86.4411	105.469	86.3787	105.469	86.4377	105.469	86.3976	105.469	86.4294	105.469	86.4156
108.398	87.7521	108.398	87.74	108.398	87.7279	108.398	87.6929	108.398	87.6679	108.398	87.6139	108.398	87.5745	108.398	87.5078	108.398	87.4521	108.398	87.3811	108.398	87.3068	108.398	87.2414	108.398	87.1465	108.398	87.0974	108.398	86.9805	108.398	86.9577	108.398	86.819	108.398	86.8299	108.398	86.6718	108.398	86.7197	108.398	86.5472	108.398	86.6301	108.398	86.4505	108.398	86.5612	108.398	86.3837	108.398	86.5106	108.398	86.345	108.398	86.4743	108.398	86.3299	108.398	86.4475	108.398	86.3321	108.398	86.4257	108.398	86.3454	108.398	86.4055	108.398	86.3643	108.398	86.385
112.793	87.7837	112.793	87.7674	112.793	87.7639	112.793	87.7154	112.793	87.7097	112.793	87.6305	112.793	87.6244	112.793	87.517	112.793	87.5135	112.793	87.3818	112.793	87.384	112.793	87.2331	112.793	87.2442	112.793	87.0806	112.793	87.1028	112.793	86.9347	112.793	86.9682	112.793	86.8046	112.793	86.8476	112.793	86.6976	112.793	86.746	112.793	86.6174	112.793	86.6658	112.793	86.5638	112.793	86.6069	112.793	86.5332	112.793	86.5671	112.793	86.5195	112.793	86.5428	112.793	86.5163	112.793	86.53	112.793	86.518	112.793	86.5246	112.793	86.5205	112.793	86.5229	112.793	86.5221
117.188	87.7999	117.188	87.7919	117.188	87.772	117.188	87.7486	117.188	87.7091	117.188	87.6726	117.188	87.6141	117.188	87.5682	117.188	87.4915	117.188	87.4412	117.188	87.3475	117.188	87.2988	117.188	87.1896	117.188	87.1491	117.188	87.0263	117.188	87.0007	117.188	86.8666	117.188	86.8618	117.188	86.7192	117.188	86.7393	117.188	86.5918	117.188	86.6377	117.188	86.4897	117.188	86.5589	117.188	86.4154	117.188	86.5014	117.188	86.3685	117.188	86.4614	117.188	86.3453	117.188	86.4339	117.188	86.3406	117.188	86.4135	117.188	86.3482	117.188	86.396	117.188	86.3624	117.188	86.3791
120.117	87.9134	120.117	87.9031	120.117	87.887	120.117	87.8563	120.117	87.8253	120.117	87.7753	120.117	87.7316	120.117	87.6643	120.117	87.611	120.117	87.5287	120.117	87.4698	120.117	87.3756	120.117	87.3151	120.117	87.2132	120.117	87.1545	120.117	87.05	120.117	86.9954	120.117	86.8944	120.117	86.8446	120.117	86.754	120.117	86.708	120.117	86.6343	120.117	86.5902	120.117	86.538	120.117	86.4944	120.117	86.465	120.117	86.4214	120.117	86.4126	120.117	86.3705	120.117	86.3762	120.117	86.3391	120.117	86.3514	120.117	86.3233	120.117	86.3345	120.117	86.3193	120.117	86.3238
124.512	87.7372	124.512	87.7352	124.512	87.7066	124.512	87.7014	124.512	87.6446	124.512	87.6384	124.512	87.5544	124.512	87.5504	124.512	87.4411	124.512	87.4432	124.512	87.3114	124.512	87.3233	124.512	87.1727	124.512	87.1977	124.512	87.0331	124.512	87.0731	124.512	86.8998	124.512	86.955	124.512	86.779	124.512	86.848	124.512	86.6748	124.512	86.7546	124.512	86.5896	124.512	86.676	124.512	86.5241	124.512	86.612	124.512	86.4773	124.512	86.561	124.512	86.4475	124.512	86.5209	124.512	86.432	124.512	86.4894	124.512	86.4282	124.512	86.4648	124.512	86.4335	124.512	86.4461
128.906	87.575	128.906	87.5605	128.906	87.5592	128.906	87.5174	128.906	87.5136	128.906	87.4494	128.906	87.4412	128.906	87.3617	128.906	87.3471	128.906	87.261	128.906	87.2382	128.906	87.1546	128.906	87.1225	128.906	87.0497	128.906	87.0085	128.906	86.9532	128.906	86.9037	128.906	86.8704	128.906	86.8141	128.906	86.8046	128.906	86.743	128.906	86.7565	128.906	86.6915	128.906	86.7241	128.906	86.6579	128.906	86.704	128.906	86.6391	128.906	86.6918	128.906	86.6317	128.906	86.6833	128.906	86.6321	128.906	86.6754	128.906	86.6378	128.906	86.6665	128.906	86.6465	128.906	86.6566
133.301	87.5625	133.301	87.5398	133.301	87.5458	133.301	87.48	133.301	87.4909	133.301	87.3883	133.301	87.4018	133.301	87.2726	133.301	87.2854	133.301	87.1429	133.301	87.1505	133.301	87.0098	133.301	87.0078	133.301	86.8837	133.301	86.868	133.301	86.7729	133.301	86.7412	133.301	86.6828	133.301	86.6352	133.301	86.6155	133.301	86.5545	133.301	86.5701	133.301	86.4999	133.301	86.543	133.301	86.4688	133.301	86.5294	133.301	86.4561	133.301	86.5238	133.301	86.4563	133.301	86.5211	133.301	86.4644	133.301	86.5175	133.301	86.4763	133.301	86.5112	133.301	86.4894	133.301	86.5015
139.16	87.4953	139.16	87.4818	139.16	87.4614	139.16	87.4202	139.16	87.3842	139.16	87.313	139.16	87.271	139.16	87.1673	139.16	87.1313	139.16	86.9941	139.16	86.9767	139.16	86.8083	139.16	86.8199	139.16	86.6272	139.16	86.6731	139.16	86.4679	139.16	86.5468	139.16	86.3446	139.16	86.4483	139.16	86.2655	139.16	86.381	139.16	86.2315	139.16	86.3445	139.16	86.2362	139.16	86.3353	139.16	86.2683	139.16	86.3476	139.16	86.3149	139.16	86.3734	139.16	86.3642	139.16	86.4043	139.16	86.4068	139.16	86.4318	139.16	86.437	139.16	86.4489	139.16	86.4512
143.555	87.1043	143.555	87.1049	143.555	87.0599	143.555	87.0618	143.555	86.9744	143.555	86.9778	143.555	86.8535	143.555	86.8586	143.555	86.7067	143.555	86.7125	143.555	86.5466	143.555	86.5508	143.555	86.3889	143.555	86.3869	143.555	86.25	143.555	86.2353	143.555	86.1447	143.555	86.1102	143.555	86.0826	143.555	86.0225	143.555	86.0663	143.555	85.9789	143.555	86.0905	143.555	85.9798	143.555	86.1441	143.555	86.0199	143.555	86.2131	143.555	86.0886	143.555	86.2833	143.555	86.1721	143.555	86.3424	143.555	86.2558	143.555	86.3809	143.555	86.3263	143.555	86.3923	143.555	86.3737
147.949	87.0515	147.949	87.0314	147.949	87.0232	147.949	86.9647	147.949	86.948	147.949	86.8565	147.949	86.8303	147.949	86.7151	147.949	86.6784	147.949	86.5515	147.949	86.5032	147.949	86.3786	147.949	86.3188	147.949	86.2107	147.949	86.1414	147.949	86.0614	147.949	85.9873	147.949	85.9422	147.949	85.8709	147.949	85.8603	147.949	85.8012	147.949	85.8182	147.949	85.7798	147.949	85.813	147.949	85.8002	147.949	85.8376	147.949	85.8494	147.949	85.8821	147.949	85.912	147.949	85.9354	147.949	85.9728	147.949	85.9868	147.949	86.0201	147.949	86.0268	147.949	86.0462	147.949	86.0481
153.809	87.052	153.809	87.0272	153.809	87.0224	153.809	86.9495	153.809	86.9408	153.809	86.8238	153.809	86.8128	153.809	86.6587	153.809	86.6475	153.809	86.4665	153.809	86.4567	153.809	86.2624	153.809	86.2548	153.809	86.0634	153.809	86.0575	153.809	85.8866	153.809	85.8807	153.809	85.7461	153.809	85.7383	153.809	85.6509	153.809	85.6403	153.809	85.6031	153.809	85.5909	153.809	85.598	153.809	85.5871	153.809	85.6261	153.809	85.6197	153.809	85.6749	153.809	85.6745	153.809	85.7314	153.809	85.736	153.809	85.7833	153.809	85.7899	153.809	85.8206	153.809	85.8251	153.809	85.8357
159.668	86.9837	159.668	86.9699	159.668	86.9444	159.668	86.9042	159.668	86.8541	159.668	86.7913	159.668	86.7184	159.668	86.6395	159.668	86.5466	159.668	86.4597	159.668	86.3511	159.668	86.2656	159.668	86.147	159.668	86.0727	159.668	85.951	159.668	85.8969	159.668	85.7791	159.668	85.7522	159.668	85.6448	159.668	85.6491	159.668	85.5567	159.668	85.5919	159.668	85.5168	159.668	85.5782	159.668	85.5204	159.668	85.5994	159.668	85.557	159.668	85.6427	159.668	85.6131	159.668	85.6938	159.668	85.6744	159.668	85.7398	159.668	85.7284	159.668	85.7707	159.668	85.7654	159.668	85.78
165.527	86.9662	165.527	86.9452	165.527	86.9305	165.527	86.8699	165.527	86.8405	165.527	86.747	165.527	86.703	165.527	86.5876	165.527	86.5294	165.527	86.4066	165.527	86.3346	165.527	86.2211	165.527	86.136	165.527	86.0488	165.527	85.9515	165.527	85.9053	165.527	85.7968	165.527	85.8017	165.527	85.684	165.527	85.7431	165.527	85.6194	165.527	85.728	165.527	85.6037	165.527	85.75	165.527	85.6319	165.527	85.7987	165.527	85.6938	165.527	85.8618	165.527	85.7757	165.527	85.9263	165.527	85.8621	165.527	85.9801	165.527	85.9383	165.527	86.0131	165.527	85.9927	165.527	86.0183
171.387	86.7514	171.387	86.7255	171.387	86.7163	171.387	86.64	171.387	86.6227	171.387	86.5001	171.387	86.477	171.387	86.3157	171.387	86.2894	171.387	86.1011	171.387	86.0743	171.387	85.8754	171.387	85.8501	171.387	85.6615	171.387	85.6378	171.387	85.4826	171.387	85.4587	171.387	85.3578	171.387	85.3305	171.387	85.2973	171.387	85.2632	171.387	85.2995	171.387	85.2569	171.387	85.352	171.387	85.302	171.387	85.4356	171.387	85.3825	171.387	85.5301	171.387	85.4796	171.387	85.618	171.387	85.5757	171.387	85.6863	171.387	85.6563	171.387	85.727	171.387	85.7115	171.387	85.7358
177.246	86.4472	177.246	86.428	177.246	86.3951	177.246	86.3379	177.246	86.2771	177.246	86.1825	177.246	86.1042	177.246	85.9737	177.246	85.8933	177.246	85.7297	177.246	85.6662	177.246	85.4743	177.246	85.4482	177.246	85.2358	177.246	85.2638	177.246	85.043	177.246	85.1321	177.246	84.9197	177.246	85.0637	177.246	84.8795	177.246	85.0589	177.246	84.9217	177.246	85.1104	177.246	85.0324	177.246	85.2059	177.246	85.188	177.246	85.3302	177.246	85.3614	177.246	85.4666	177.246	85.5266	177.246	85.5971	177.246	85.6621	177.246	85.7041	177.246	85.7528	177.246	85.7721	177.246	85.79
183.105	86.7916	183.105	86.7905	183.105	86.7143	183.105	86.7115	183.105	86.5615	183.105	86.559	183.105	86.3402	183.105	86.3412	183.105	86.063	183.105	86.0715	183.105	85.7488	183.105	85.7694	183.105	85.4246	183.105	85.4607	183.105	85.1241	183.105	85.1767	183.105	84.8839	183.105	84.9501	183.105	84.7346	183.105	84.8081	183.105	84.692	183.105	84.7651	183.105	84.7511	183.105	84.8176	183.105	84.8884	183.105	84.9456	183.105	85.0706	183.105	85.1178	183.105	85.2631	183.105	85.3006	183.105	85.4358	183.105	85.4634	183.105	85.5657	183.105	85.5828	183.105	85.6375	183.105	85.6433
188.965	86.7554	188.965	86.7486	188.965	86.682	188.965	86.6648	188.965	86.5297	188.965	86.5108	188.965	86.3041	188.965	86.2978	188.965	86.0161	188.965	86.0413	188.965	85.6828	188.965	85.7609	188.965	85.3281	188.965	85.4799	188.965	84.9828	188.965	85.2234	188.965	84.6817	188.965	85.0147	188.965	84.4584	188.965	84.8718	188.965	84.3367	188.965	84.8031	188.965	84.3233	188.965	84.8057	188.965	84.4058	188.965	84.8661	188.965	84.5566	188.965	84.9631	188.965	84.7409	188.965	85.0716	188.965	84.9249	188.965	85.1668	188.965	85.0804	188.965	85.2272	188.965	85.1877	188.965	85.2369
196.289	86.8608	196.289	86.8254	196.289	86.8091	196.289	86.7057	196.289	86.6714	196.289	86.5082	196.289	86.4528	196.289	86.2441	196.289	86.1632	196.289	85.9304	196.289	85.8184	196.289	85.5904	196.289	85.4408	196.289	85.2541	196.289	85.0606	196.289	84.9557	196.289	84.7136	196.289	84.7285	196.289	84.4369	196.289	84.5965	196.289	84.2614	196.289	84.567	196.289	84.203	196.289	84.6283	196.289	84.2575	196.289	84.7528	196.289	84.4012	196.289	84.906	196.289	84.5985	196.289	85.0537	196.289	84.8101	196.289	85.1676	196.289	85.0003	196.289	85.2271	196.289	85.1424	196.289	85.22
203.613	86.8214	203.613	86.7881	203.613	86.7635	203.613	86.664	203.613	86.6173	203.613	86.4532	203.613	86.3892	203.613	86.1648	203.613	86.0896	203.613	85.8136	203.613	85.734	203.613	85.4219	203.613	85.3439	203.613	85.0211	203.613	84.9477	203.613	84.6501	203.613	84.5796	203.613	84.3505	203.613	84.2756	203.613	84.1561	203.613	84.0671	203.613	84.0822	203.613	83.9726	203.613	84.1205	203.613	83.9922	203.613	84.244	203.613	84.1071	203.613	84.4153	203.613	84.2848	203.613	84.5953	203.613	84.4854	203.613	84.7481	203.613	84.6695	203.613	84.8442	203.613	84.8034	203.613	84.8646
210.938	86.6687	210.938	86.6283	210.938	86.6252	210.938	86.5052	210.938	86.4999	210.938	86.3028	210.938	86.298	210.938	86.0276	210.938	86.029	210.938	85.6901	210.938	85.7074	210.938	85.3064	210.938	85.3534	210.938	84.8994	210.938	84.9923	210.938	84.5008	210.938	84.6531	210.938	84.1495	210.938	84.3648	210.938	83.8859	210.938	84.1507	210.938	83.7402	210.938	84.0234	210.938	83.719	210.938	83.9815	210.938	83.8013	210.938	84.0113	210.938	83.9464	210.938	84.0903	210.938	84.1089	210.938	84.1922	210.938	84.2505	210.938	84.2901	210.938	84.3456	210.938	84.3597	210.938	84.3819
218.262	86.3829	218.262	86.3648	218.262	86.3192	218.262	86.2661	218.262	86.1754	218.262	86.0906	218.262	85.9566	218.262	85.8454	218.262	85.6727	218.262	85.5418	218.262	85.34	218.262	85.1971	218.262	84.982	218.262	84.8352	218.262	84.6298	218.262	84.4869	218.262	84.3194	218.262	84.1871	218.262	84.0851	218.262	83.9685	218.262	83.9502	218.262	83.8542	218.262	83.9197	218.262	83.8492	218.262	83.9784	218.262	83.9383	218.262	84.0974	218.262	84.0887	218.262	84.2434	218.262	84.2605	218.262	84.3858	218.262	84.4159	218.262	84.5003	218.262	84.5273	218.262	84.5688	218.262	84.5796
225.586	86.3944	225.586	86.3886	225.586	86.3024	225.586	86.2864	225.586	86.115	225.586	86.0936	225.586	85.839	225.586	85.8206	225.586	85.4873	225.586	85.4837	225.586	85.0804	225.586	85.1059	225.586	84.6489	225.586	84.7174	225.586	84.2344	225.586	84.3539	225.586	83.8859	225.586	84.0536	225.586	83.6516	225.586	83.8511	225.586	83.5634	225.586	83.7691	225.586	83.6244	225.586	83.8107	225.586	83.8059	225.586	83.9563	225.586	84.0577	225.586	84.168	225.586	84.3252	225.586	84.3999	225.586	84.5622	225.586	84.6092	225.586	84.7372	225.586	84.763	225.586	84.8325	225.586	84.8407
232.91	86.5934	232.91	86.5696	232.91	86.5117	232.91	86.4435	232.91	86.3242	232.91	86.2216	232.91	86.0338	232.91	85.9149	232.91	85.6478	232.91	85.5398	232.91	85.1796	232.91	85.1205	232.91	84.6517	232.91	84.6888	232.91	84.101	232.91	84.2829	232.91	83.5824	232.91	83.9426	232.91	83.1664	232.91	83.7024	232.91	82.9228	232.91	83.5843	232.91	82.8902	232.91	83.5925	232.91	83.0526	232.91	83.7107	232.91	83.346	232.91	83.9037	232.91	83.6895	232.91	84.1241	232.91	84.0139	232.91	84.3222	232.91	84.2723	232.91	84.4566	232.91	84.4382	232.91	84.4995
241.699	86.3603	241.699	86.3226	241.699	86.2971	241.699	86.1844	241.699	86.1351	241.699	85.9485	241.699	85.8797	241.699	85.6211	241.699	85.5401	241.699	85.2132	241.699	85.1299	241.699	84.7453	241.699	84.6675	241.699	84.2515	241.699	84.1766	241.699	83.7813	241.699	83.6869	241.699	83.3939	241.699	83.2368	241.699	83.1405	241.699	82.8746	241.699	83.0447	241.699	82.6543	241.699	83.0943	241.699	82.6169	241.699	83.2517	241.699	82.7637	241.699	83.469	241.699	83.0458	241.699	83.6976	241.699	83.382	241.699	83.8915	241.699	83.6915	241.699	84.0103	241.699	83.9155	241.699	84.0234
250.488	86.307	250.488	86.2765	250.488	86.2249	250.488	86.1357	250.488	86.0312	250.488	85.8898	250.488	85.7304	250.488	85.5476	250.488	85.332	250.488	85.1227	250.488	84.8534	250.488	84.636	250.488	84.3237	250.488	84.1193	250.488	83.7866	250.488	83.6181	250.488	83.2988	250.488	83.1895	250.488	82.9186	250.488	82.8879	250.488	82.687	250.488	82.7435	250.488	82.6132	250.488	82.7475	250.488	82.674	250.488	82.8596	250.488	82.8276	250.488	83.0303	250.488	83.0278	250.488	83.216	250.488	83.2316	250.488	83.3819	250.488	83.4027	250.488	83.4994	250.488	83.5133	250.488	83.5466
259.277	86.604	259.277	86.5723	259.277	86.5222	259.277	86.4258	259.277	86.3297	259.277	86.1656	259.277	86.0314	259.277	85.7969	259.277	85.6351	259.277	85.3315	259.277	85.1532	259.277	84.7904	259.277	84.6057	259.277	84.205	259.277	84.0237	259.277	83.6197	259.277	83.4523	259.277	83.0928	259.277	82.9518	259.277	82.6929	259.277	82.5898	259.277	82.4812	259.277	82.4217	259.277	82.4784	259.277	82.4637	259.277	82.6458	259.277	82.6769	259.277	82.9049	259.277	82.9802	259.277	83.178	259.277	83.2836	259.277	83.4132	259.277	83.518	259.277	83.5816	259.277	83.6473	259.277	83.665
268.066	86.2937	268.066	86.278	268.066	86.1893	268.066	86.147	268.066	85.9627	268.066	85.907	268.066	85.6159	268.066	85.5638	268.066	85.1557	268.066	85.1246	268.066	84.5951	268.066	84.6027	268.066	83.9572	268.066	84.0272	268.066	83.2804	268.066	83.4486	268.066	82.625	268.066	82.9368	268.066	82.0714	268.066	82.5623	268.066	81.702	268.066	82.3718	268.066	81.5709	268.066	82.3715	268.066	81.6807	268.066	82.5285	268.066	81.984	268.066	82.7847	268.066	82.4009	268.066	83.0737	268.066	82.8393	268.066	83.3329	268.066	83.2142	268.066	83.5095	268.066	83.4645	268.066	83.562
276.855	86.1787	276.855	86.1279	276.855	86.1419	276.855	85.9858	276.855	86.0153	276.855	85.7446	276.855	85.7921	276.855	85.396	276.855	85.4622	276.855	84.9375	276.855	85.0141	276.855	84.3766	276.855	84.4415	276.855	83.7356	276.855	83.7546	276.855	83.0571	276.855	82.9967	276.855	82.4103	276.855	82.2559	276.855	81.8916	276.855	81.6536	276.855	81.6014	276.855	81.2904	276.855	81.5933	276.855	81.1892	276.855	81.8322	276.855	81.2994	276.855	82.2048	276.855	81.5532	276.855	82.5768	276.855	81.8955	276.855	82.8414	276.855	82.272	276.855	82.9389	276.855	82.6153	276.855	82.8555
287.109	85.9947	287.109	85.9641	287.109	85.914	287.109	85.826	287.109	85.7229	287.109	85.5874	287.109	85.4292	287.109	85.2557	287.109	85.0488	287.109	84.8376	287.109	84.605	287.109	84.3413	287.109	84.1251	287.109	83.7829	287.109	83.6309	287.109	83.1962	287.109	83.1345	287.109	82.6407	287.109	82.6459	287.109	82.1978	287.109	82.1985	287.109	81.941	287.109	81.8686	287.109	81.8933	287.109	81.7509	287.109	82.0155	287.109	81.881	287.109	82.2377	287.109	82.1874	287.109	82.4956	287.109	82.5397	287.109	82.7395	287.109	82.8279	287.109	82.9276	287.109	82.9935	287.109	83.0222
297.363	85.983	297.363	86.0172	297.363	85.8188	297.363	85.9232	297.363	85.5277	297.363	85.7091	297.363	85.1145	297.363	85.3881	297.363	84.5851	297.363	84.9762	297.363	83.9499	297.363	84.4901	297.363	83.2339	297.363	83.9473	297.363	82.4892	297.363	83.3707	297.363	81.8004	297.363	82.8008	297.363	81.2698	297.363	82.3108	297.363	80.9802	297.363	82.0034	297.363	80.9585	297.363	81.9628	297.363	81.1687	297.363	82.1836	297.363	81.5386	297.363	82.5604	297.363	81.9895	297.363	82.9548	297.363	82.4526	297.363	83.2575	297.363	82.8708	297.363	83.4073	297.363	83.1949	297.363	83.3835
307.617	85.9054	307.617	85.8054	307.617	85.8651	307.617	85.5696	307.617	85.6848	307.617	85.2067	307.617	85.3695	307.617	84.7309	307.617	84.9256	307.617	84.1637	307.617	84.3584	307.617	83.5363	307.617	83.6716	307.617	82.8898	307.617	82.8765	307.617	82.2708	307.617	82.0099	307.617	81.7256	307.617	81.1601	307.617	81.2971	307.617	80.4831	307.617	81.0285	307.617	80.1606	307.617	80.9639	307.617	80.2733	307.617	81.1252	307.617	80.7172	307.617	81.4741	307.617	81.2933	307.617	81.9078	307.617	81.8405	307.617	82.3037	307.617	82.2728	307.617	82.568	307.617	82.5509	307.617	82.6534
319.336	85.194	319.336	85.1535	319.336	85.1173	319.336	84.9918	319.336	84.9292	319.336	84.7064	319.336	84.6381	319.336	84.2968	319.336	84.2572	319.336	83.767	319.336	83.8037	319.336	83.1289	319.336	83.2996	319.336	82.4105	319.336	82.7711	319.336	81.6687	319.336	82.2497	319.336	81.0051	319.336	81.7723	319.336	80.5608	319.336	81.3878	319.336	80.4572	319.336	81.1701	319.336	80.7081	319.336	81.2068	319.336	81.2086	319.336	81.5297	319.336	81.8134	319.336	82.0511	319.336	82.4018	319.336	82.6069	319.336	82.8906	319.336	83.0552	319.336	83.2261	319.336	83.3193	319.336	83.375
329.59	86.2721	329.59	86.201	329.59	86.2177	329.59	86.0119	329.59	86.0271	329.59	85.7084	329.59	85.6892	329.59	85.2903	329.59	85.1978	329.59	84.7549	329.59	84.5582	329.59	84.1016	329.59	83.7933	329.59	83.3413	329.59	82.9485	329.59	82.513	329.59	82.0939	329.59	81.7043	329.59	81.3205	329.59	81.0638	329.59	80.7278	329.59	80.7679	329.59	80.4158	329.59	80.9139	329.59	80.4766	329.59	81.4291	329.59	80.9392	329.59	82.1222	329.59	81.6917	329.59	82.8062	329.59	82.5145	329.59	83.3575	329.59	83.2057	329.59	83.7074	329.59	83.6508	329.59	83.8148
341.309	87.3383	341.309	87.2764	341.309	87.2089	341.309	87.0245	341.309	86.8934	341.309	86.5905	341.309	86.4005	341.309	85.9892	341.309	85.7384	341.309	85.2372	341.309	84.9103	341.309	84.3454	341.309	83.9161	341.309	83.3142	341.309	82.7665	341.309	82.147	341.309	81.5159	341.309	80.8908	341.309	80.3066	341.309	79.6972	341.309	79.3821	341.309	78.8557	341.309	78.9715	341.309	78.668	341.309	79.0946	341.309	79.169	341.309	79.5756	341.309	80.0715	341.309	80.2298	341.309	81.0216	341.309	80.9349	341.309	81.7777	341.309	81.5881	341.309	82.2203	341.309	82.0808	341.309	82.3139
353.027	88.2104	353.027	88.1899	353.027	88.108	353.027	88.0396	353.027	87.8844	353.027	87.7486	353.027	87.5359	353.027	87.3082	353.027	87.0535	353.027	86.7193	353.027	86.4216	353.027	85.9956	353.027	85.6189	353.027	85.1526	353.027	84.6215	353.027	84.1911	353.027	83.4127	353.027	83.0987	353.027	82.0061	353.027	81.8922	353.027	80.4942	353.027	80.6828	353.027	79.1234	353.027	79.6936	353.027	78.2876	353.027	79.1403	353.027	78.233	353.027	79.0694	353.027	78.7667	353.027	79.3643	353.027	79.4931	353.027	79.8406	353.027	80.1204	353.027	80.2939	353.027	80.493	353.027	80.5458
366.211	88.5111	366.211	88.3694	366.211	88.4841	366.211	88.0729	366.211	88.2949	366.211	87.6514	366.211	87.9634	366.211	87.1351	366.211	87.5121	366.211	86.5376	366.211	86.9553	366.211	85.8558	366.211	86.2942	366.211	85.0918	366.211	85.5178	366.211	84.2795	366.211	84.6109	366.211	83.4878	366.211	83.5737	366.211	82.7932	366.211	82.4538	366.211	82.2554	366.211	81.3845	366.211	81.921	366.211	80.5793	366.211	81.8088	366.211	80.2187	366.211	81.8633	366.211	80.3003	366.211	81.963	366.211	80.6536	366.211	82.0015	366.211	81.0856	366.211	81.9345	366.211	81.4707	366.211	81.7571
379.395	88.6259	379.395	88.5953	379.395	88.5255	379.395	88.4202	379.395	88.3087	379.395	88.0904	379.395	87.9874	379.395	87.598	379.395	87.5679	379.395	86.9345	379.395	87.0492	379.395	86.0913	379.395	86.4245	379.395	85.0679	379.395	85.6862	379.395	83.8916	379.395	84.8354	379.395	82.6487	379.395	83.8978	379.395	81.5136	379.395	82.9408	379.395	80.7231	379.395	82.0855	379.395	80.4464	379.395	81.4877	379.395	80.6599	379.395	81.2665	379.395	81.1894	379.395	81.4189	379.395	81.8278	379.395	81.8167	379.395	82.394	379.395	82.2845	379.395	82.7554	379.395	82.6659	379.395	82.8448
392.578	87.8621	392.578	87.841	392.578	87.7614	392.578	87.7035	392.578	87.5299	392.578	87.4506	392.578	87.1629	392.578	87.0821	392.578	86.6683	392.578	86.5992	392.578	86.0693	392.578	86.0007	392.578	85.3991	392.578	85.2771	392.578	84.6871	392.578	84.41	392.578	83.9449	392.578	83.3863	392.578	83.1679	392.578	82.2359	392.578	82.367	392.578	81.1022	392.578	81.6222	392.578	80.2921	392.578	81.1068	392.578	80.1138	392.578	80.996	392.578	80.5297	392.578	81.2873	392.578	81.2022	392.578	81.7785	392.578	81.8393	392.578	82.2349	392.578	82.3004	392.578	82.5061	392.578	82.5302
405.762	87.4686	405.762	87.3831	405.762	87.4114	405.762	87.1627	405.762	87.2069	405.762	86.8197	405.762	86.8523	405.762	86.3714	405.762	86.3456	405.762	85.8357	405.762	85.6869	405.762	85.2221	405.762	84.8828	405.762	84.5253	405.762	83.9573	405.762	83.7337	405.762	82.9696	405.762	82.8586	405.762	82.0301	405.762	81.9724	405.762	81.2929	405.762	81.2239	405.762	80.8943	405.762	80.7972	405.762	80.8715	405.762	80.8036	405.762	81.1516	405.762	81.1888	405.762	81.6123	405.762	81.7641	405.762	82.1263	405.762	82.326	405.762	82.574	405.762	82.7341	405.762	82.8581	405.762	82.918
420.41	87.8755	420.41	87.7884	420.41	87.824	420.41	87.5695	420.41	87.6344	420.41	87.2252	420.41	87.3201	420.41	86.7593	420.41	86.8974	420.41	86.1799	420.41	86.3697	420.41	85.5028	420.41	85.719	420.41	84.74	420.41	84.9111	420.41	83.8872	420.41	83.9073	420.41	82.9399	420.41	82.6751	420.41	81.9502	420.41	81.2218	420.41	81.0903	420.41	79.7219	420.41	80.6212	420.41	78.7194	420.41	80.6881	420.41	78.8186	420.41	81.1619	420.41	79.7749	420.41	81.7759	420.41	80.8905	420.41	82.3105	420.41	81.7953	420.41	82.6318	420.41	82.3926	420.41	82.6691
435.059	87.6665	435.059	87.5566	435.059	87.6283	435.059	87.3124	435.059	87.4393	435.059	86.9472	435.059	87.1077	435.059	86.4549	435.059	86.6486	435.059	85.8056	435.059	86.0805	435.059	84.9742	435.059	85.4185	435.059	83.9793	435.059	84.6681	435.059	82.8915	435.059	83.8275	435.059	81.7939	435.059	82.8997	435.059	80.7477	435.059	81.9126	435.059	79.8462	435.059	80.9583	435.059	79.3006	435.059	80.2415	435.059	79.3327	435.059	80.0124	435.059	79.9036	435.059	80.3157	435.059	80.7209	435.059	80.9143	435.059	81.4817	435.059	81.5282	435.059	81.9886	435.059	81.9772	435.059	82.1527
451.172	88.6576	451.172	88.5849	451.172	88.5701	451.172	88.3458	451.172	88.3263	451.172	87.9408	451.172	87.9245	451.172	87.3878	451.172	87.3611	451.172	86.7188	451.172	86.6386	451.172	85.9513	451.172	85.7738	451.172	85.0551	451.172	84.7956	451.172	83.9586	451.172	83.7299	451.172	82.6141	451.172	82.5873	451.172	81.0984	451.172	81.3805	451.172	79.7049	451.172	80.1829	451.172	78.9218	451.172	79.2402	451.172	79.1068	451.172	79.0093	451.172	80.058	451.172	79.7177	451.172	81.2147	451.172	80.915	451.172	82.1621	451.172	82.0007	451.172	82.7421	451.172	82.6863	451.172	82.9237
465.82	88.5496	465.82	88.479	465.82	88.4337	465.82	88.2228	465.82	88.1473	465.82	87.7951	465.82	87.7216	465.82	87.2185	465.82	87.1914	465.82	86.5204	465.82	86.5747	465.82	85.7311	465.82	85.8649	465.82	84.8764	465.82	85.0463	465.82	83.9586	465.82	84.1157	465.82	82.9454	465.82	83.079	465.82	81.8054	465.82	81.936	465.82	80.586	465.82	80.7183	465.82	79.4884	465.82	79.6203	465.82	78.8231	465.82	79.0439	465.82	78.7738	465.82	79.2162	465.82	79.2264	465.82	79.8414	465.82	79.8935	465.82	80.4712	465.82	80.4977	465.82	80.8394	465.82	80.8459
483.398	88.3689	483.398	88.3556	483.398	88.2302	483.398	88.1953	483.398	87.9471	483.398	87.9023	483.398	87.5332	483.398	87.4884	483.398	87.0001	483.398	86.9487	483.398	86.3579	483.398	86.2548	483.398	85.6157	483.398	85.3636	483.398	84.7717	483.398	84.2381	483.398	83.8027	483.398	82.8709	483.398	82.6898	483.398	81.3087	483.398	81.4948	483.398	79.7236	483.398	80.4296	483.398	78.5594	483.398	79.7904	483.398	78.4015	483.398	79.7285	483.398	79.1952	483.398	80.145	483.398	80.2706	483.398	80.8029	483.398	81.1625	483.398	81.4416	483.398	81.7319	483.398	81.8605	483.398	81.9641
499.512	88.2242	499.512	88.1621	499.512	88.1424	499.512	87.9559	499.512	87.9008	499.512	87.5823	499.512	87.4933	499.512	87.0208	499.512	86.9359	499.512	86.288	499.512	86.2499	499.512	85.4463	499.512	85.4443	499.512	84.5672	499.512	84.5281	499.512	83.6786	499.512	83.534	499.512	82.7576	499.512	82.501	499.512	81.773	499.512	81.4323	499.512	80.7385	499.512	80.3394	499.512	79.7809	499.512	79.4085	499.512	79.2247	499.512	79.0261	499.512	79.419	499.512	79.3505	499.512	80.2272	499.512	80.0884	499.512	81.1184	499.512	80.8839	499.512	81.6955	499.512	81.5121	499.512	81.8189
517.09	89.0313	517.09	88.8701	517.09	88.9907	517.09	88.5391	517.09	88.7432	517.09	88.0838	517.09	88.3135	517.09	87.5407	517.09	87.7455	517.09	86.9126	517.09	87.0831	517.09	86.1594	517.09	86.3456	517.09	85.2182	517.09	85.5047	517.09	84.0457	517.09	84.4878	517.09	82.656	517.09	83.225	517.09	81.1346	517.09	81.7201	517.09	79.6696	517.09	80.1064	517.09	78.6894	517.09	78.742	517.09	78.7808	517.09	78.3449	517.09	79.898	517.09	79.3194	517.09	81.3348	517.09	80.9242	517.09	82.5503	517.09	82.3291	517.09	83.3148	517.09	83.2216	517.09	83.5476
536.133	87.9298	536.133	87.8373	536.133	87.8073	536.133	87.554	536.133	87.4733	536.133	87.115	536.133	86.9632	536.133	86.5558	536.133	86.3242	536.133	85.9049	536.133	85.5831	536.133	85.1761	536.133	84.7368	536.133	84.3599	536.133	83.7795	536.133	83.4123	536.133	82.7391	536.133	82.2586	536.133	81.6712	536.133	80.8684	536.133	80.6198	536.133	79.4417	536.133	79.6651	536.133	78.5521	536.133	79.0675	536.133	78.653	536.133	79.1495	536.133	79.4159	536.133	79.832	536.133	80.3082	536.133	80.6904	536.133	81.0755	536.133	81.3928	536.133	81.6132	536.133	81.7954	536.133	81.8642
555.176	88.2876	555.176	88.2728	555.176	88.1951	555.176	88.1231	555.176	88.0045	555.176	87.8185	555.176	87.6892	555.176	87.3452	555.176	87.2097	555.176	86.6865	555.176	86.555	555.176	85.8376	555.176	85.7502	555.176	84.8317	555.176	84.8142	555.176	83.73	555.176	83.6962	555.176	82.545	555.176	82.2455	555.176	81.1501	555.176	80.2692	555.176	79.2806	555.176	77.7776	555.176	76.7498	555.176	75.7438	555.176	74.5092	555.176	75.9098	555.176	75.2698	555.176	77.5316	555.176	77.699	555.176	79.2244	555.176	79.664	555.176	80.5544	555.176	80.8923	555.176	81.324	555.176	81.4395
574.219	88.8009	574.219	88.7183	574.219	88.6735	574.219	88.443	574.219	88.3341	574.219	87.9926	574.219	87.8264	574.219	87.4074	574.219	87.2271	574.219	86.7528	574.219	86.5852	574.219	86.0541	574.219	85.8815	574.219	85.231	574.219	85.0663	574.219	84.1441	574.219	84.1359	574.219	82.7237	574.219	83.1324	574.219	81.0592	574.219	81.9916	574.219	79.379	574.219	80.4519	574.219	78.0651	574.219	78.3633	574.219	77.7806	574.219	76.6001	574.219	78.7328	574.219	77.0156	574.219	80.1239	574.219	78.8326	574.219	81.2987	574.219	80.5183	574.219	82.0246	574.219	81.6669	574.219	82.1746
594.727	88.26	594.727	88.2414	594.727	88.0786	594.727	87.9959	594.727	87.734	594.727	87.5332	594.727	87.2555	594.727	86.9074	594.727	86.6721	594.727	86.1955	594.727	86.0227	594.727	85.4786	594.727	85.3322	594.727	84.8239	594.727	84.5719	594.727	84.2073	594.727	83.6669	594.727	83.4368	594.727	82.5463	594.727	82.2345	594.727	81.1724	594.727	80.4314	594.727	79.5639	594.727	78.2683	594.727	77.959	594.727	76.8342	594.727	77.2543	594.727	77.2983	594.727	78.2167	594.727	79.0477	594.727	79.8129	594.727	80.842	594.727	81.0838	594.727	81.9759	594.727	81.9102	594.727	82.2755
615.234	88.2261	615.234	88.1512	615.234	88.1229	615.234	87.9018	615.234	87.8212	615.234	87.4656	615.234	87.309	615.234	86.8468	615.234	86.6154	615.234	86.0835	615.234	85.815	615.234	85.2169	615.234	84.975	615.234	84.2623	615.234	84.0838	615.234	83.201	615.234	83.0445	615.234	81.9563	615.234	81.766	615.234	80.4308	615.234	80.2624	615.234	78.6196	615.234	78.6067	615.234	76.5721	615.234	76.8344	615.234	74.5964	615.234	75.2951	615.234	74.4258	615.234	75.2886	615.234	76.4626	615.234	77.1468	615.234	78.519	615.234	79.1746	615.234	79.9006	615.234	80.3662	615.234	80.5619
637.207	88.4018	637.207	88.2577	637.207	88.3038	637.207	87.914	637.207	87.9595	637.207	87.4163	637.207	87.4074	637.207	86.7925	637.207	86.6921	637.207	86.0721	637.207	85.8371	637.207	85.309	637.207	84.8954	637.207	84.5646	637.207	84.0181	637.207	83.8489	637.207	83.3358	637.207	83.0572	637.207	82.6918	637.207	81.9577	637.207	81.6632	637.207	80.2863	637.207	79.9399	637.207	78.0966	637.207	77.8095	637.207	76.6347	637.207	76.4095	637.207	77.4523	637.207	76.5427	637.207	79.3167	637.207	77.7936	637.207	80.8811	637.207	79.433	637.207	81.7062	637.207	80.8458	637.207	81.6717
659.18	88.3283	659.18	88.1859	659.18	88.1912	659.18	87.7609	659.18	87.7917	659.18	87.1131	659.18	87.1447	659.18	86.333	659.18	86.3045	659.18	85.4458	659.18	85.3619	659.18	84.4218	659.18	84.3816	659.18	83.2901	659.18	83.3717	659.18	82.1689	659.18	82.2951	659.18	81.1808	659.18	81.0732	659.18	80.3017	659.18	79.6096	659.18	79.2422	659.18	77.7713	659.18	77.6306	659.18	75.3978	659.18	75.7026	659.18	73.3476	659.18	75.2849	659.18	74.4354	659.18	76.7924	659.18	77.122	659.18	78.423	659.18	79.1238	659.18	79.6311	659.18	80.1571	659.18	80.2802
682.617	87.8983	682.617	87.8636	682.617	87.6356	682.617	87.5833	682.617	87.0762	682.617	87.0593	682.617	86.3533	682.617	86.2935	682.617	85.6098	682.617	85.3734	682.617	84.8526	682.617	84.4361	682.617	84.0362	682.617	83.5398	682.617	83.1797	682.617	82.6074	682.617	82.3127	682.617	81.506	682.617	81.4004	682.617	80.1463	682.617	80.2716	682.617	78.5531	682.617	78.6095	682.617	76.8746	682.617	76.1534	682.617	75.1754	682.617	73.163	682.617	74.2758	682.617	72.5873	682.617	76.2086	682.617	75.6673	682.617	78.894	682.617	78.4417	682.617	80.4252	682.617	80.0835	682.617	80.7502
707.52	87.9529	707.52	87.8587	707.52	87.7981	707.52	87.4812	707.52	87.4231	707.52	86.8132	707.52	86.8246	707.52	85.9184	707.52	85.9964	707.52	84.955	707.52	84.9914	707.52	84.0828	707.52	83.9429	707.52	83.3812	707.52	82.9975	707.52	82.8534	707.52	82.1531	707.52	82.3317	707.52	81.2636	707.52	81.4574	707.52	80.2252	707.52	79.7707	707.52	78.9208	707.52	76.9535	707.52	77.0016	707.52	73.945	707.52	74.4999	707.52	74.2635	707.52	74.0543	707.52	77.2019	707.52	76.4943	707.52	79.6728	707.52	78.8431	707.52	80.9301	707.52	80.374	707.52	81.0901
732.422	87.7255	732.422	87.5542	732.422	87.697	732.422	87.2411	732.422	87.3618	732.422	86.7804	732.422	86.6643	732.422	86.0934	732.422	85.6949	732.422	85.0891	732.422	84.6274	732.422	83.8363	732.422	83.5496	732.422	82.5692	732.422	82.4605	732.422	81.4561	732.422	81.4741	732.422	80.4387	732.422	80.6986	732.422	79.31	732.422	79.7704	732.422	77.8194	732.422	78.1486	732.422	75.5269	732.422	75.6492	732.422	72.1283	732.422	72.767	732.422	70.4973	732.422	72.1718	732.422	73.3992	732.422	74.7484	732.422	76.0526	732.422	77.1541	732.422	77.6042	732.422	78.3257	732.422	78.3753
757.324	87.6803	757.324	87.5159	757.324	87.4212	757.324	86.9803	757.324	86.7898	757.324	86.1887	757.324	85.879	757.324	85.2615	757.324	84.7754	757.324	84.2796	757.324	83.6371	757.324	83.2946	757.324	82.674	757.324	82.528	757.324	81.8699	757.324	82.0827	757.324	80.9956	757.324	81.4752	757.324	80.056	757.324	80.3639	757.324	79.233	757.324	78.9264	757.324	78.2631	757.324	77.0641	757.324	76.4759	757.324	74.5	757.324	73.8281	757.324	73.3641	757.324	73.2181	757.324	75.3688	757.324	75.8582	757.324	77.4319	757.324	78.2411	757.324	78.883	757.324	79.522	757.324	79.6844
785.156	88.2686	785.156	88.2743	785.156	87.9695	785.156	88.004	785.156	87.4166	785.156	87.4662	785.156	86.723	785.156	86.5136	785.156	85.9315	785.156	84.9644	785.156	84.7964	785.156	83.0283	785.156	83.2462	785.156	81.3498	785.156	81.8989	785.156	80.1101	785.156	81.0271	785.156	78.8642	785.156	80.1852	785.156	77.6034	785.156	79.3268	785.156	76.2044	785.156	77.8492	785.156	73.4383	785.156	74.8081	785.156	67.9106	785.156	70.7061	785.156	64.5968	785.156	68.9725	785.156	72.4756	785.156	72.8571	785.156	77.9502	785.156	77.2515	785.156	80.4904	785.156	79.8613	785.156	80.9326
811.523	87.1628	811.523	87.188	811.523	86.6519	811.523	86.6142	811.523	85.9091	811.523	85.6185	811.523	85.0466	811.523	84.5472	811.523	83.9885	811.523	83.4364	811.523	82.8168	811.523	81.9921	811.523	81.7811	811.523	80.543	811.523	81.0014	811.523	80.0293	811.523	80.5507	811.523	79.9416	811.523	80.0788	811.523	79.2985	811.523	79.1979	811.523	78.3685	811.523	78.5082	811.523	76.7212	811.523	77.9591	811.523	72.3395	811.523	75.7165	811.523	65.4843	811.523	70.5658	811.523	69.1629	811.523	67.2019	811.523	72.7232	811.523	70.6363	811.523	74.7715	811.523	73.7594	811.523	75.1999
840.82	87.6062	840.82	87.3813	840.82	87.3941	840.82	86.9349	840.82	86.634	840.82	86.2701	840.82	85.5441	840.82	85.2216	840.82	84.5234	840.82	83.9194	840.82	83.5439	840.82	82.8441	840.82	82.1766	840.82	81.8633	840.82	80.5818	840.82	80.4427	840.82	79.6833	840.82	79.3674	840.82	79.8957	840.82	79.417	840.82	80.0841	840.82	78.9142	840.82	79.1061	840.82	77.1907	840.82	76.9823	840.82	74.3528	840.82	74.5347	840.82	68.4739	840.82	73.0514	840.82	60.069	840.82	73.1699	840.82	73.3151	840.82	74.707	840.82	77.2694	840.82	76.7863	840.82	77.9387
870.117	88.9811	870.117	88.7421	870.117	88.7857	870.117	88.1508	870.117	88.1641	870.117	87.2506	870.117	87.1647	870.117	85.9781	870.117	85.8328	870.117	84.3985	870.117	84.2062	870.117	82.8259	870.117	82.3299	870.117	81.8086	870.117	80.6296	870.117	81.7527	870.117	80.0456	870.117	81.6664	870.117	80.094	870.117	80.8956	870.117	79.8716	870.117	80.3555	870.117	79.8188	870.117	79.9707	870.117	79.3036	870.117	78.2915	870.117	76.6493	870.117	74.4835	870.117	72.1262	870.117	68.6007	870.117	72.2384	870.117	69.5462	870.117	74.8373	870.117	74.1932	870.117	76.3971	870.117	76.3635
900.879	89.4807	900.879	89.2247	900.879	89.2867	900.879	88.6667	900.879	88.7281	900.879	87.9129	900.879	87.9028	900.879	86.7354	900.879	86.9692	900.879	85.2364	900.879	86.097	900.879	84.061	900.879	84.9572	900.879	83.0419	900.879	83.5181	900.879	81.5846	900.879	82.9784	900.879	81.1072	900.879	83.3919	900.879	81.8908	900.879	82.9961	900.879	81.6512	900.879	81.3673	900.879	80.3667	900.879	79.7072	900.879	78.9854	900.879	77.4261	900.879	76.8197	900.879	73.5467	900.879	72.6844	900.879	75.8337	900.879	73.9211	900.879	78.4711	900.879	78.3077	900.879	79.2282	900.879	79.4077
933.105	89.6943	933.105	89.5844	933.105	89.4057	933.105	89.1074	933.105	88.7528	933.105	88.4345	933.105	87.6156	933.105	87.2198	933.105	86.1081	933.105	84.976	933.105	84.48	933.105	82.2995	933.105	82.6743	933.105	81.3427	933.105	80.5256	933.105	81.6271	933.105	78.5395	933.105	81.226	933.105	78.8894	933.105	81.5605	933.105	80.2855	933.105	81.7307	933.105	80.0393	933.105	79.4636	933.105	78.159	933.105	74.9801	933.105	75.6661	933.105	70.5649	933.105	69.2171	933.105	65.5459	933.105	71.9564	933.105	74.4304	933.105	77.9265	933.105	79.1223	933.105	80.0796	933.105	80.4469
965.332	90.6338	965.332	90.4001	965.332	90.2271	965.332	89.4724	965.332	89.5311	965.332	88.459	965.332	88.4024	965.332	87.4674	965.332	86.6751	965.332	85.9454	965.332	84.7277	965.332	83.8795	965.332	82.6137	965.332	81.9979	965.332	80.0795	965.332	80.8094	965.332	78.0884	965.332	79.6352	965.332	76.4144	965.332	78.7722	965.332	75.5456	965.332	79.285	965.332	76.844	965.332	78.9662	965.332	77.247	965.332	77.2129	965.332	75.736	965.332	75.3387	965.332	71.9092	965.332	72.9444	965.332	72.0154	965.332	73.4188	965.332	75.7215	965.332	76.53	965.332	77.0314	965.332	77.3981
1,000.49	88.3166	1,000.49	88.3623	1,000.49	87.8888	1,000.49	87.9241	1,000.49	87.1174	1,000.49	87.0561	1,000.49	86.051	1,000.49	86.0293	1,000.49	84.7923	1,000.49	84.8985	1,000.49	83.4346	1,000.49	83.3704	1,000.49	81.623	1,000.49	81.1421	1,000.49	78.8913	1,000.49	78.642	1,000.49	75.7591	1,000.49	76.2147	1,000.49	74.2357	1,000.49	75.8405	1,000.49	76.3347	1,000.49	77.7862	1,000.49	77.83	1,000.49	78.2541	1,000.49	77.4954	1,000.49	76.0098	1,000.49	76.4883	1,000.49	70.7024	1,000.49	73.7446	1,000.49	67.5106	1,000.49	72.196	1,000.49	74.6568	1,000.49	75.3195	1,000.49	78.6566	1,000.49	78.0144	1,000.49	79.5035
1,035.64	88.7182	1,035.64	88.6496	1,035.64	88.3737	1,035.64	87.9219	1,035.64	87.8695	1,035.64	86.8145	1,035.64	86.9097	1,035.64	85.7919	1,035.64	85.2577	1,035.64	84.4538	1,035.64	83.5247	1,035.64	82.1255	1,035.64	82.1666	1,035.64	79.1312	1,035.64	80.7067	1,035.64	77.0596	1,035.64	79.9347	1,035.64	76.4315	1,035.64	79.2522	1,035.64	75.9508	1,035.64	76.9943	1,035.64	78.1424	1,035.64	75.7559	1,035.64	80.0778	1,035.64	76.0509	1,035.64	79.9469	1,035.64	73.2293	1,035.64	78.6338	1,035.64	63.1699	1,035.64	75.2021	1,035.64	67.1957	1,035.64	67.4948	1,035.64	74.4711	1,035.64	72.9253	1,035.64	75.8506	1,035.64	75.5137
1,072.27	88.4609	1,072.27	88.3438	1,072.27	87.9938	1,072.27	88.1324	1,072.27	87.026	1,072.27	87.7519	1,072.27	86.0242	1,072.27	86.6119	1,072.27	85.0521	1,072.27	85.0325	1,072.27	83.751	1,072.27	83.4586	1,072.27	81.9981	1,072.27	81.6456	1,072.27	79.5507	1,072.27	79.6105	1,072.27	76.7709	1,072.27	77.463	1,072.27	75.1947	1,072.27	76.2965	1,072.27	73.9083	1,072.27	76.236	1,072.27	74.33	1,072.27	77.1036	1,072.27	75.9924	1,072.27	77.6243	1,072.27	75.231	1,072.27	75.2696	1,072.27	69.9475	1,072.27	71.9611	1,072.27	57.5568	1,072.27	73.2918	1,072.27	70.8746	1,072.27	77.7255	1,072.27	74.2752	1,072.27	77.499
1,108.89	88.1835	1,108.89	88.036	1,108.89	87.9358	1,108.89	87.3624	1,108.89	87.4236	1,108.89	86.4461	1,108.89	86.4223	1,108.89	85.5179	1,108.89	84.7199	1,108.89	84.268	1,108.89	83.0091	1,108.89	82.9474	1,108.89	81.4332	1,108.89	81.1895	1,108.89	78.3917	1,108.89	78.0293	1,108.89	73.1026	1,108.89	74.3267	1,108.89	70.0911	1,108.89	72.6434	1,108.89	70.1519	1,108.89	74.0177	1,108.89	73.67	1,108.89	76.5663	1,108.89	76.6824	1,108.89	77.4227	1,108.89	77.4593	1,108.89	75.8824	1,108.89	75.5002	1,108.89	74.4325	1,108.89	70.6649	1,108.89	71.6205	1,108.89	68.9834	1,108.89	73.9407	1,108.89	73.5693	1,108.89	75.8275
1,148.44	86.6846	1,148.44	86.7665	1,148.44	86.506	1,148.44	86.3457	1,148.44	85.97	1,148.44	85.236	1,148.44	84.8343	1,148.44	84.103	1,148.44	83.7478	1,148.44	82.9164	1,148.44	83.0599	1,148.44	81.0228	1,148.44	82.1046	1,148.44	79.2994	1,148.44	80.6989	1,148.44	78.4097	1,148.44	79.3363	1,148.44	75.7122	1,148.44	76.7134	1,148.44	73.2627	1,148.44	74.2448	1,148.44	74.3817	1,148.44	72.8878	1,148.44	74.9699	1,148.44	72.7249	1,148.44	74.2721	1,148.44	73.6251	1,148.44	72.2815	1,148.44	72.4191	1,148.44	72.1346	1,148.44	59.382	1,148.44	70.3699	1,148.44	68.0967	1,148.44	71.8324	1,148.44	73.4497	1,148.44	74.1371
1,189.45	86.8	1,189.45	86.5015	1,189.45	86.7021	1,189.45	86.0191	1,189.45	86.0714	1,189.45	85.2139	1,189.45	85.3959	1,189.45	84.0476	1,189.45	84.3446	1,189.45	82.7499	1,189.45	82.3822	1,189.45	81.7158	1,189.45	80.5414	1,189.45	79.9535	1,189.45	78.6154	1,189.45	76.8771	1,189.45	76.4285	1,189.45	74.8641	1,189.45	73.8686	1,189.45	71.2842	1,189.45	69.3975	1,189.45	73.4933	1,189.45	68.4969	1,189.45	74.3153	1,189.45	69.8662	1,189.45	75.6719	1,189.45	71.2096	1,189.45	74.2542	1,189.45	70.0017	1,189.45	70.5126	1,189.45	65.1997	1,189.45	70.2627	1,189.45	62.9617	1,189.45	73.5593	1,189.45	65.5644	1,189.45	72.4324
1,230.47	86.3098	1,230.47	86.1082	1,230.47	86.3278	1,230.47	85.5972	1,230.47	86.2845	1,230.47	84.8481	1,230.47	85.32	1,230.47	83.6575	1,230.47	83.6822	1,230.47	82.179	1,230.47	82.815	1,230.47	80.8256	1,230.47	81.9703	1,230.47	79.4921	1,230.47	79.962	1,230.47	77.4462	1,230.47	78.9528	1,230.47	76.0603	1,230.47	78.1569	1,230.47	74.7681	1,230.47	74.0818	1,230.47	74.4742	1,230.47	67.3202	1,230.47	75.182	1,230.47	64.077	1,230.47	75.4794	1,230.47	68.4916	1,230.47	74.4661	1,230.47	71.8805	1,230.47	69.9724	1,230.47	69.7866	1,230.47	68.3733	1,230.47	66.2762	1,230.47	71.8151	1,230.47	72.3083	1,230.47	72.9941
1,274.41	87.8257	1,274.41	87.7443	1,274.41	87.6266	1,274.41	86.8027	1,274.41	87.207	1,274.41	85.8535	1,274.41	86.2113	1,274.41	84.9173	1,274.41	85.0625	1,274.41	83.521	1,274.41	83.3123	1,274.41	82.3616	1,274.41	81.5144	1,274.41	81.9882	1,274.41	80.0998	1,274.41	80.9087	1,274.41	78.4772	1,274.41	77.9782	1,274.41	77.091	1,274.41	73.267	1,274.41	74.8431	1,274.41	70.0608	1,274.41	74.2303	1,274.41	73.2471	1,274.41	73.3372	1,274.41	74.3805	1,274.41	73.754	1,274.41	72.4579	1,274.41	73.2634	1,274.41	69.6784	1,274.41	69.8148	1,274.41	70.7045	1,274.41	69.4395	1,274.41	74.0527	1,274.41	70.2011	1,274.41	72.65
1,319.82	87.802	1,319.82	87.9202	1,319.82	87.3244	1,319.82	87.3223	1,319.82	86.7926	1,319.82	86.2526	1,319.82	85.9325	1,319.82	85.2331	1,319.82	84.5813	1,319.82	84.0959	1,319.82	82.9552	1,319.82	82.3837	1,319.82	81.6998	1,319.82	80.8056	1,319.82	80.3979	1,319.82	78.4933	1,319.82	78.9117	1,319.82	75.975	1,319.82	77.9592	1,319.82	73.95	1,319.82	75.8671	1,319.82	72.7065	1,319.82	73.7359	1,319.82	70.1753	1,319.82	73.1945	1,319.82	72.706	1,319.82	72.951	1,319.82	72.6175	1,319.82	70.0863	1,319.82	69.0493	1,319.82	64.8965	1,319.82	66.7697	1,319.82	65.4202	1,319.82	72.4528	1,319.82	71.0209	1,319.82	74.276
1,366.7	88.5267	1,366.7	88.1803	1,366.7	88.0514	1,366.7	87.7704	1,366.7	87.032	1,366.7	86.7672	1,366.7	86.4585	1,366.7	85.4619	1,366.7	85.0084	1,366.7	84.1927	1,366.7	83.1981	1,366.7	82.5413	1,366.7	82.2099	1,366.7	81.0139	1,366.7	80.8217	1,366.7	79.0746	1,366.7	79.7981	1,366.7	77.5257	1,366.7	78.9493	1,366.7	76.4471	1,366.7	77.0594	1,366.7	73.0172	1,366.7	74.7175	1,366.7	71.3423	1,366.7	74.2321	1,366.7	73.7521	1,366.7	74.5868	1,366.7	73.5861	1,366.7	73.1093	1,366.7	69.2791	1,366.7	71.3965	1,366.7	63.8717	1,366.7	71.2427	1,366.7	70.2229	1,366.7	73.7116	1,366.7	74.2713
1,413.57	88.422	1,413.57	88.4342	1,413.57	88.2382	1,413.57	87.9494	1,413.57	87.652	1,413.57	87.2898	1,413.57	86.904	1,413.57	86.071	1,413.57	85.7532	1,413.57	84.5296	1,413.57	83.9714	1,413.57	82.9955	1,413.57	82.0984	1,413.57	81.2444	1,413.57	80.4587	1,413.57	80.3198	1,413.57	78.7861	1,413.57	79.0856	1,413.57	77.2885	1,413.57	76.247	1,413.57	75.8282	1,413.57	71.879	1,413.57	74.5388	1,413.57	71.9141	1,413.57	73.9339	1,413.57	75.8847	1,413.57	75.5671	1,413.57	75.267	1,413.57	74.8192	1,413.57	73.5251	1,413.57	69.5203	1,413.57	70.8685	1,413.57	66.1408	1,413.57	72.3848	1,413.57	72.0319	1,413.57	74.4941
1,463.38	88.3384	1,463.38	87.989	1,463.38	88.3766	1,463.38	87.6072	1,463.38	87.9495	1,463.38	87.0232	1,463.38	86.7952	1,463.38	86.2179	1,463.38	85.5082	1,463.38	84.5088	1,463.38	84.0083	1,463.38	82.9466	1,463.38	81.8431	1,463.38	81.5632	1,463.38	79.5105	1,463.38	80.4369	1,463.38	77.6218	1,463.38	79.7181	1,463.38	75.3631	1,463.38	76.7989	1,463.38	72.4132	1,463.38	73.7258	1,463.38	69.8305	1,463.38	72.4964	1,463.38	73.5685	1,463.38	73.4141	1,463.38	75.484	1,463.38	74.6171	1,463.38	75.2409	1,463.38	71.8918	1,463.38	71.0327	1,463.38	70.8405	1,463.38	69.1285	1,463.38	73.2731	1,463.38	73.3253	1,463.38	74.133
1,516.11	88.4884	1,516.11	88.4566	1,516.11	88.161	1,516.11	87.9029	1,516.11	87.587	1,516.11	87.1494	1,516.11	86.457	1,516.11	86.0674	1,516.11	85.6743	1,516.11	84.3597	1,516.11	84.1477	1,516.11	83.0373	1,516.11	82.1419	1,516.11	81.7087	1,516.11	79.651	1,516.11	79.8242	1,516.11	77.8384	1,516.11	78.2049	1,516.11	75.4075	1,516.11	75.6786	1,516.11	73.3465	1,516.11	73.3833	1,516.11	71.8847	1,516.11	72.3891	1,516.11	70.137	1,516.11	72.5271	1,516.11	71.0442	1,516.11	72.29	1,516.11	73.7263	1,516.11	68.3625	1,516.11	70.8699	1,516.11	69.9959	1,516.11	65.0198	1,516.11	72.2279	1,516.11	72.5863	1,516.11	73.4376
1,568.85	88.0753	1,568.85	88.0952	1,568.85	87.7444	1,568.85	87.2837	1,568.85	87.0426	1,568.85	86.5008	1,568.85	86.5445	1,568.85	84.9859	1,568.85	85.1184	1,568.85	83.2091	1,568.85	83.4942	1,568.85	82.4646	1,568.85	82.1061	1,568.85	80.254	1,568.85	80.1114	1,568.85	77.9452	1,568.85	78.6689	1,568.85	75.3085	1,568.85	75.558	1,568.85	73.098	1,568.85	74.6115	1,568.85	73.4543	1,568.85	73.9048	1,568.85	73.4951	1,568.85	70.5671	1,568.85	73.9531	1,568.85	70.5987	1,568.85	73.5752	1,568.85	72.8781	1,568.85	68.5026	1,568.85	69.6635	1,568.85	66.6727	1,568.85	62.7989	1,568.85	72.7648	1,568.85	72.4351	1,568.85	74.3973
1,624.51	88.9415	1,624.51	88.4389	1,624.51	88.7688	1,624.51	88.0542	1,624.51	88.01	1,624.51	87.0755	1,624.51	87.4636	1,624.51	85.7964	1,624.51	86.5035	1,624.51	84.3835	1,624.51	85.5098	1,624.51	81.8014	1,624.51	83.7269	1,624.51	80.223	1,624.51	81.5908	1,624.51	78.6187	1,624.51	79.7463	1,624.51	76.8524	1,624.51	77.4166	1,624.51	74.8792	1,624.51	75.9037	1,624.51	74.6458	1,624.51	74.306	1,624.51	73.2924	1,624.51	68.936	1,624.51	75.5228	1,624.51	71.6242	1,624.51	74.4882	1,624.51	74.0738	1,624.51	73.0859	1,624.51	73.6649	1,624.51	68.4753	1,624.51	72.4462	1,624.51	71.8083	1,624.51	67.1355	1,624.51	71.0522
1,681.64	90.7594	1,681.64	90.1091	1,681.64	90.1005	1,681.64	89.3142	1,681.64	89.6529	1,681.64	88.1031	1,681.64	88.4159	1,681.64	86.6284	1,681.64	87.0782	1,681.64	86.1034	1,681.64	86.2088	1,681.64	84.4593	1,681.64	84.4849	1,681.64	82.7792	1,681.64	83.4976	1,681.64	80.0681	1,681.64	81.3787	1,681.64	77.4084	1,681.64	80.5774	1,681.64	75.1972	1,681.64	76.4451	1,681.64	69.198	1,681.64	72.4244	1,681.64	65.1065	1,681.64	73.2905	1,681.64	67.9249	1,681.64	73.6817	1,681.64	74.4106	1,681.64	71.8015	1,681.64	70.0195	1,681.64	74.033	1,681.64	62.9938	1,681.64	75.5961	1,681.64	73.861	1,681.64	76.9041	1,681.64	75.9579
1,741.7	91.3781	1,741.7	91.2234	1,741.7	91.558	1,741.7	90.6009	1,741.7	90.6425	1,741.7	90.1423	1,741.7	89.7311	1,741.7	88.8025	1,741.7	88.0323	1,741.7	86.6728	1,741.7	85.3035	1,741.7	84.4354	1,741.7	83.3906	1,741.7	81.4454	1,741.7	81.0119	1,741.7	81.453	1,741.7	79.645	1,741.7	78.9017	1,741.7	77.1922	1,741.7	77.3629	1,741.7	77.8901	1,741.7	71.0306	1,741.7	76.7559	1,741.7	65.2386	1,741.7	74.6208	1,741.7	68.7743	1,741.7	75.7691	1,741.7	74.7209	1,741.7	73.9613	1,741.7	76.2089	1,741.7	74.5225	1,741.7	67.1374	1,741.7	69.0031	1,741.7	71.9229	1,741.7	71.6222	1,741.7	75.8469
1,803.22	91.6858	1,803.22	91.2606	1,803.22	90.9674	1,803.22	91.4555	1,803.22	90.7823	1,803.22	90.4754	1,803.22	89.6498	1,803.22	88.6135	1,803.22	87.0666	1,803.22	88.3056	1,803.22	85.4803	1,803.22	86.1551	1,803.22	84.6721	1,803.22	84.8437	1,803.22	81.7837	1,803.22	82.4183	1,803.22	80.5495	1,803.22	77.6997	1,803.22	78.5265	1,803.22	74.9435	1,803.22	79.3111	1,803.22	76.4232	1,803.22	77.7576	1,803.22	73.2982	1,803.22	73.345	1,803.22	70.4032	1,803.22	65.7889	1,803.22	70.1616	1,803.22	73.7124	1,803.22	72.7007	1,803.22	73.0307	1,803.22	71.3478	1,803.22	66.9884	1,803.22	70.5591	1,803.22	72.4078	1,803.22	75.0703
1,866.21	90.8785	1,866.21	90.8288	1,866.21	90.7446	1,866.21	90.8294	1,866.21	89.8534	1,866.21	89.7614	1,866.21	88.7597	1,866.21	89.0748	1,866.21	86.9618	1,866.21	87.5816	1,866.21	85.9418	1,866.21	85.0346	1,866.21	83.0699	1,866.21	83.2552	1,866.21	81.7557	1,866.21	78.734	1,866.21	79.0844	1,866.21	74.2274	1,866.21	74.7403	1,866.21	71.5417	1,866.21	73.8858	1,866.21	70.9107	1,866.21	72.7351	1,866.21	70.7009	1,866.21	73.2754	1,866.21	74.0709	1,866.21	69.0967	1,866.21	75.7814	1,866.21	75.813	1,866.21	74.1693	1,866.21	73.8494	1,866.21	71.5992	1,866.21	66.5097	1,866.21	67.1506	1,866.21	65.3497	1,866.21	69.0526
1,932.13	90.8593	1,932.13	90.3677	1,932.13	90.2646	1,932.13	89.7815	1,932.13	89.7242	1,932.13	89.2442	1,932.13	88.6838	1,932.13	87.9951	1,932.13	87.2918	1,932.13	86.1709	1,932.13	85.0652	1,932.13	83.5714	1,932.13	82.7384	1,932.13	81.9605	1,932.13	80.6369	1,932.13	77.8366	1,932.13	77.5722	1,932.13	74.7433	1,932.13	74.4186	1,932.13	75.1005	1,932.13	71.3562	1,932.13	75.2198	1,932.13	72.9881	1,932.13	72.8724	1,932.13	67.3787	1,932.13	65.0128	1,932.13	63.8846	1,932.13	70.2049	1,932.13	70.9185	1,932.13	74.8567	1,932.13	73.8953	1,932.13	72.3628	1,932.13	69.8598	1,932.13	70.0952	1,932.13	69.6662	1,932.13	72.9229
1,999.51	90.4401	1,999.51	90.2659	1,999.51	90.4755	1,999.51	90.1226	1,999.51	90.1843	1,999.51	89.3868	1,999.51	89.5654	1,999.51	88.2417	1,999.51	88.1465	1,999.51	86.6723	1,999.51	86.5213	1,999.51	84.727	1,999.51	84.017	1,999.51	81.861	1,999.51	82.221	1,999.51	79.8884	1,999.51	79.3519	1,999.51	77.4082	1,999.51	76.8475	1,999.51	75.0621	1,999.51	73.5506	1,999.51	73.9306	1,999.51	71.8927	1,999.51	71.9812	1,999.51	71.9254	1,999.51	70.1351	1,999.51	69.4509	1,999.51	72.1952	1,999.51	71.1637	1,999.51	74.1567	1,999.51	72.5434	1,999.51	71.0244	1,999.51	70.4518	1,999.51	70.9127	1,999.51	69.9146	1,999.51	72.2428
2,069.82	91.4639	2,069.82	91.3822	2,069.82	91.2878	2,069.82	90.8808	2,069.82	90.9453	2,069.82	90.134	2,069.82	90.0961	2,069.82	89.0113	2,069.82	88.9204	2,069.82	87.3883	2,069.82	87.2467	2,069.82	85.2041	2,069.82	85.4298	2,069.82	82.6768	2,069.82	82.8476	2,069.82	80.2749	2,069.82	80.4879	2,069.82	77.7971	2,069.82	77.9932	2,069.82	75.2591	2,069.82	75.8642	2,069.82	73.6601	2,069.82	74.7867	2,069.82	72.2532	2,069.82	72.7334	2,069.82	68.3504	2,069.82	71.0071	2,069.82	72.4459	2,069.82	73.916	2,069.82	73.256	2,069.82	75.4632	2,069.82	71.6079	2,069.82	72.9547	2,069.82	70.1687	2,069.82	71.9775	2,069.82	72.3111
2,143.07	91.7303	2,143.07	91.5843	2,143.07	91.5783	2,143.07	91.4747	2,143.07	91.3224	2,143.07	90.8436	2,143.07	90.4602	2,143.07	89.6387	2,143.07	89.1164	2,143.07	87.8735	2,143.07	87.3518	2,143.07	85.6629	2,143.07	85.4455	2,143.07	83.3839	2,143.07	83.5037	2,143.07	80.6299	2,143.07	81.3429	2,143.07	78.2572	2,143.07	78.2302	2,143.07	75.611	2,143.07	75.4208	2,143.07	74.3421	2,143.07	74.8157	2,143.07	74.5636	2,143.07	73.6195	2,143.07	70.6391	2,143.07	70.0256	2,143.07	71.142	2,143.07	73.3349	2,143.07	75.2613	2,143.07	75.0016	2,143.07	72.7779	2,143.07	72.0772	2,143.07	71.8921	2,143.07	73.6854	2,143.07	76.1108
2,219.24	90.7614	2,219.24	90.8608	2,219.24	90.7595	2,219.24	90.8106	2,219.24	90.2	2,219.24	90.168	2,219.24	89.5469	2,219.24	89.275	2,219.24	88.2643	2,219.24	87.8047	2,219.24	86.8857	2,219.24	86.1407	2,219.24	84.8431	2,219.24	83.7433	2,219.24	82.7781	2,219.24	82.0726	2,219.24	80.1604	2,219.24	79.8387	2,219.24	78.2609	2,219.24	76.5543	2,219.24	75.9694	2,219.24	73.0847	2,219.24	73.0642	2,219.24	73.0882	2,219.24	73.8033	2,219.24	73.7253	2,219.24	70.6238	2,219.24	71.6657	2,219.24	70.5815	2,219.24	74.5206	2,219.24	74.0986	2,219.24	73.3734	2,219.24	71.6039	2,219.24	70.224	2,219.24	69.7621	2,219.24	71.8792
2,296.88	89.5765	2,296.88	89.8852	2,296.88	89.4661	2,296.88	89.6754	2,296.88	89.3309	2,296.88	89.2302	2,296.88	88.5747	2,296.88	88.0181	2,296.88	87.5062	2,296.88	86.3901	2,296.88	85.9821	2,296.88	84.9761	2,296.88	84.4593	2,296.88	83.0096	2,296.88	82.0949	2,296.88	81.3298	2,296.88	80.0794	2,296.88	79.9083	2,296.88	78.2784	2,296.88	76.8431	2,296.88	75.181	2,296.88	74.8947	2,296.88	73.314	2,296.88	74.7907	2,296.88	72.6766	2,296.88	72.67	2,296.88	71.6106	2,296.88	71.9344	2,296.88	70.3867	2,296.88	73.7013	2,296.88	74.3346	2,296.88	74.0976	2,296.88	72.0205	2,296.88	72.3393	2,296.88	68.9642	2,296.88	73.2031
2,378.91	88.5788	2,378.91	88.7547	2,378.91	88.9	2,378.91	88.8429	2,378.91	88.9505	2,378.91	88.3786	2,378.91	88.6084	2,378.91	87.0594	2,378.91	87.699	2,378.91	85.768	2,378.91	86.2823	2,378.91	83.7079	2,378.91	84.4443	2,378.91	81.4277	2,378.91	82.4468	2,378.91	79.8738	2,378.91	80.7389	2,378.91	77.7529	2,378.91	78.4146	2,378.91	75.9583	2,378.91	75.8433	2,378.91	72.668	2,378.91	73.6285	2,378.91	73.0015	2,378.91	73.7567	2,378.91	72.4698	2,378.91	73.3201	2,378.91	70.558	2,378.91	70.8418	2,378.91	74.473	2,378.91	73.7835	2,378.91	73.1995	2,378.91	72.7826	2,378.91	70.0095	2,378.91	70.0012	2,378.91	71.2582
2,462.4	90.155	2,462.4	90.2004	2,462.4	90.2469	2,462.4	89.9921	2,462.4	90.1825	2,462.4	89.5423	2,462.4	89.7055	2,462.4	88.4784	2,462.4	88.8042	2,462.4	87.0428	2,462.4	87.2654	2,462.4	84.9365	2,462.4	85.2672	2,462.4	82.8554	2,462.4	83.4052	2,462.4	80.0997	2,462.4	81.079	2,462.4	77.4434	2,462.4	79.236	2,462.4	75.6925	2,462.4	77.5988	2,462.4	72.1779	2,462.4	74.6878	2,462.4	72.2181	2,462.4	73.8235	2,462.4	73.0506	2,462.4	73.7083	2,462.4	70.2443	2,462.4	72.2621	2,462.4	73.0765	2,462.4	75.0811	2,462.4	72.5321	2,462.4	73.6583	2,462.4	67.2769	2,462.4	69.537	2,462.4	71.0415
2,548.83	90.36	2,548.83	90.3604	2,548.83	90.185	2,548.83	90.2505	2,548.83	90.2153	2,548.83	90.2022	2,548.83	89.6185	2,548.83	89.2344	2,548.83	88.6422	2,548.83	87.7627	2,548.83	87.1647	2,548.83	85.9289	2,548.83	85.355	2,548.83	83.9415	2,548.83	83.0908	2,548.83	81.2519	2,548.83	80.6079	2,548.83	79.4243	2,548.83	78.7674	2,548.83	77.22	2,548.83	76.8846	2,548.83	74.7715	2,548.83	74.1611	2,548.83	72.8741	2,548.83	74.2041	2,548.83	72.8881	2,548.83	72.8655	2,548.83	72.5604	2,548.83	73.1203	2,548.83	74.6301	2,548.83	75.4446	2,548.83	74.3063	2,548.83	72.8585	2,548.83	68.685	2,548.83	70.0949	2,548.83	72.2232
2,639.65	89.198	2,639.65	88.9921	2,639.65	89.2191	2,639.65	89.4207	2,639.65	88.8191	2,639.65	88.939	2,639.65	88.4683	2,639.65	88.4506	2,639.65	87.1965	2,639.65	87.1977	2,639.65	85.8144	2,639.65	85.4316	2,639.65	84.0122	2,639.65	83.3018	2,639.65	81.6954	2,639.65	82.1123	2,639.65	79.8886	2,639.65	79.2065	2,639.65	77.5304	2,639.65	76.5315	2,639.65	76.5416	2,639.65	76.5935	2,639.65	72.908	2,639.65	73.5607	2,639.65	69.8361	2,639.65	73.6457	2,639.65	71.951	2,639.65	73.39	2,639.65	70.6576	2,639.65	74.3095	2,639.65	73.1646	2,639.65	74.3596	2,639.65	72.8191	2,639.65	68.978	2,639.65	68.9296	2,639.65	71.308
2,731.93	87.9185	2,731.93	87.9804	2,731.93	88.2437	2,731.93	87.7279	2,731.93	87.5461	2,731.93	87.0834	2,731.93	87.0025	2,731.93	86.4414	2,731.93	85.9037	2,731.93	86.28	2,731.93	84.9734	2,731.93	84.3697	2,731.93	82.979	2,731.93	82.8189	2,731.93	80.9771	2,731.93	81.0954	2,731.93	79.1602	2,731.93	77.687	2,731.93	76.7409	2,731.93	76.6659	2,731.93	74.0081	2,731.93	73.9806	2,731.93	72.5205	2,731.93	73.6073	2,731.93	72.9366	2,731.93	73.1775	2,731.93	71.4935	2,731.93	72.1677	2,731.93	69.8298	2,731.93	75.5412	2,731.93	72.9052	2,731.93	74.2049	2,731.93	71.9544	2,731.93	69.7231	2,731.93	62.9936	2,731.93	70.8873
2,828.61	88.4926	2,828.61	88.5006	2,828.61	88.2055	2,828.61	87.8252	2,828.61	88.1421	2,828.61	87.5357	2,828.61	87.352	2,828.61	86.2954	2,828.61	86.4117	2,828.61	84.849	2,828.61	84.9	2,828.61	84.0777	2,828.61	83.6264	2,828.61	82.6595	2,828.61	82.0018	2,828.61	79.2901	2,828.61	79.7145	2,828.61	77.3302	2,828.61	76.4074	2,828.61	76.1404	2,828.61	75.184	2,828.61	72.091	2,828.61	73.6844	2,828.61	71.4727	2,828.61	72.1584	2,828.61	72.4506	2,828.61	73.5941	2,828.61	68.0612	2,828.61	71.0171	2,828.61	75.0869	2,828.61	74.3928	2,828.61	74.5175	2,828.61	74.248	2,828.61	68.0081	2,828.61	67.5966	2,828.61	67.8864
2,928.22	88.718	2,928.22	88.6015	2,928.22	88.6329	2,928.22	88.4426	2,928.22	88.5506	2,928.22	88.1871	2,928.22	87.6823	2,928.22	87.2691	2,928.22	86.8558	2,928.22	85.5044	2,928.22	85.6532	2,928.22	84.135	2,928.22	83.9565	2,928.22	82.5222	2,928.22	81.491	2,928.22	79.0632	2,928.22	80.2788	2,928.22	78.1543	2,928.22	77.5437	2,928.22	75.6144	2,928.22	75.0453	2,928.22	74.1155	2,928.22	73.8399	2,928.22	70.037	2,928.22	70.457	2,928.22	73.9819	2,928.22	74.0995	2,928.22	71.6836	2,928.22	70.7657	2,928.22	72.9962	2,928.22	73.7933	2,928.22	75.0769	2,928.22	74.7092	2,928.22	71.8921	2,928.22	66.7553	2,928.22	69.4495
3,030.76	88.254	3,030.76	88.3836	3,030.76	88.4911	3,030.76	89.0218	3,030.76	88.5711	3,030.76	88.9085	3,030.76	88.299	3,030.76	87.3992	3,030.76	86.6673	3,030.76	84.9825	3,030.76	84.8697	3,030.76	83.5162	3,030.76	83.0369	3,030.76	80.2897	3,030.76	80.6329	3,030.76	78.7393	3,030.76	78.4268	3,030.76	76.7661	3,030.76	75.6211	3,030.76	74.2794	3,030.76	73.0015	3,030.76	74.3383	3,030.76	72.4344	3,030.76	69.1549	3,030.76	68.8351	3,030.76	73.1003	3,030.76	72.7099	3,030.76	72.2423	3,030.76	68.7136	3,030.76	69.5325	3,030.76	71.8169	3,030.76	74.1985	3,030.76	72.9979	3,030.76	62.7023	3,030.76	65.9079	3,030.76	67.0882
3,137.7	87.7963	3,137.7	88.0409	3,137.7	87.9491	3,137.7	88.0425	3,137.7	87.7065	3,137.7	88.1652	3,137.7	87.9179	3,137.7	87.2399	3,137.7	86.9295	3,137.7	86.4031	3,137.7	84.6654	3,137.7	83.8493	3,137.7	81.8379	3,137.7	81.6012	3,137.7	80.3307	3,137.7	79.4775	3,137.7	77.1541	3,137.7	77.1956	3,137.7	75.8727	3,137.7	74.8636	3,137.7	72.6411	3,137.7	72.2636	3,137.7	70.8671	3,137.7	70.3602	3,137.7	67.5769	3,137.7	69.2675	3,137.7	68.7256	3,137.7	72.5898	3,137.7	70.3668	3,137.7	71.6012	3,137.7	70.1257	3,137.7	73.8011	3,137.7	71.9894	3,137.7	65.9277	3,137.7	66.8812	3,137.7	70.4479
3,249.02	87.5173	3,249.02	87.6746	3,249.02	87.588	3,249.02	87.4931	3,249.02	87.2931	3,249.02	87.2105	3,249.02	86.6035	3,249.02	86.8854	3,249.02	85.8309	3,249.02	86.0111	3,249.02	84.9065	3,249.02	84.1766	3,249.02	83.1982	3,249.02	82.7848	3,249.02	81.5372	3,249.02	80.7694	3,249.02	78.9475	3,249.02	77.1615	3,249.02	75.9257	3,249.02	75.2417	3,249.02	74.63	3,249.02	71.9266	3,249.02	70.8013	3,249.02	72.4906	3,249.02	71.5965	3,249.02	67.2103	3,249.02	66.2628	3,249.02	70.9758	3,249.02	70.3711	3,249.02	69.0886	3,249.02	68.1063	3,249.02	72.7182	3,249.02	71.7017	3,249.02	66.5209	3,249.02	42.4279	3,249.02	65.8054
3,363.28	88.2476	3,363.28	87.9791	3,363.28	87.5239	3,363.28	86.8673	3,363.28	87.1113	3,363.28	85.912	3,363.28	86.269	3,363.28	86.0357	3,363.28	86.0722	3,363.28	85.7651	3,363.28	85.4616	3,363.28	84.2041	3,363.28	83.8239	3,363.28	81.9883	3,363.28	81.4477	3,363.28	79.4475	3,363.28	79.0283	3,363.28	76.9161	3,363.28	76.3345	3,363.28	73.8096	3,363.28	73.7268	3,363.28	71.0057	3,363.28	70.337	3,363.28	70.5951	3,363.28	70.8761	3,363.28	68.8719	3,363.28	68.6997	3,363.28	70.0704	3,363.28	71.3107	3,363.28	68.7883	3,363.28	68.1803	3,363.28	72.0006	3,363.28	71.3121	3,363.28	65.9803	3,363.28	61.9334	3,363.28	66.1944
3,481.93	88.7857	3,481.93	88.5382	3,481.93	88.1026	3,481.93	87.7841	3,481.93	87.0022	3,481.93	87.3023	3,481.93	86.3168	3,481.93	87.0744	3,481.93	85.684	3,481.93	85.892	3,481.93	84.7795	3,481.93	84.7515	3,481.93	84.1314	3,481.93	82.2851	3,481.93	81.4308	3,481.93	80.1034	3,481.93	78.3375	3,481.93	76.8656	3,481.93	75.5178	3,481.93	73.4425	3,481.93	72.9653	3,481.93	71.9987	3,481.93	70.6133	3,481.93	69.391	3,481.93	69.9176	3,481.93	69.4422	3,481.93	67.9616	3,481.93	68.7484	3,481.93	69.2871	3,481.93	68.1198	3,481.93	68.0869	3,481.93	71.8998	3,481.93	72.5785	3,481.93	61.4764	3,481.93	60.8081	3,481.93	61.4399
3,604.98	89.2431	3,604.98	88.4719	3,604.98	88.5078	3,604.98	87.4237	3,604.98	86.973	3,604.98	87.2914	3,604.98	86.6179	3,604.98	87.2942	3,604.98	86.4616	3,604.98	86.7045	3,604.98	85.8388	3,604.98	84.954	3,604.98	84.2759	3,604.98	83.0933	3,604.98	81.5467	3,604.98	80.5483	3,604.98	79.1342	3,604.98	77.2311	3,604.98	76.889	3,604.98	74.7595	3,604.98	73.6941	3,604.98	73.0041	3,604.98	70.8521	3,604.98	69.9436	3,604.98	69.6097	3,604.98	70.5434	3,604.98	68.5194	3,604.98	70.3284	3,604.98	70.4524	3,604.98	68.6892	3,604.98	68.3828	3,604.98	71.3154	3,604.98	71.8642	3,604.98	60.0666	3,604.98	61.7674	3,604.98	62.4678
3,732.42	89.9148	3,732.42	88.9154	3,732.42	89.4095	3,732.42	87.6859	3,732.42	87.533	3,732.42	87.4639	3,732.42	87.2229	3,732.42	87.0178	3,732.42	87.7107	3,732.42	86.9333	3,732.42	86.9711	3,732.42	85.266	3,732.42	84.921	3,732.42	82.9777	3,732.42	81.906	3,732.42	79.9787	3,732.42	79.5267	3,732.42	76.7556	3,732.42	76.8603	3,732.42	74.9906	3,732.42	73.4694	3,732.42	71.5458	3,732.42	70.9178	3,732.42	67.5427	3,732.42	68.9043	3,732.42	71.6861	3,732.42	71.7025	3,732.42	70.815	3,732.42	69.8092	3,732.42	69.0726	3,732.42	69.7822	3,732.42	70.7485	3,732.42	70.5446	3,732.42	65.9445	3,732.42	61.6616	3,732.42	61.2381
3,864.26	89.5306	3,864.26	89.304	3,864.26	88.6323	3,864.26	88.1216	3,864.26	87.6002	3,864.26	87.6137	3,864.26	87.1134	3,864.26	88.076	3,864.26	87.0987	3,864.26	87.3401	3,864.26	86.2704	3,864.26	85.477	3,864.26	83.5211	3,864.26	82.984	3,864.26	81.0365	3,864.26	80.1456	3,864.26	78.6872	3,864.26	78.2365	3,864.26	75.6862	3,864.26	74.2203	3,864.26	72.5266	3,864.26	73.1608	3,864.26	71.4357	3,864.26	68.964	3,864.26	66.4579	3,864.26	70.3118	3,864.26	68.8054	3,864.26	68.82	3,864.26	67.3434	3,864.26	72.0984	3,864.26	67.9051	3,864.26	70.7811	3,864.26	69.3054	3,864.26	66.796	3,864.26	60.9705	3,864.26	61.149
4,000.49	89.0562	4,000.49	88.623	4,000.49	87.6667	4,000.49	86.8767	4,000.49	86.5795	4,000.49	86.817	4,000.49	86.5694	4,000.49	87.5548	4,000.49	86.3721	4,000.49	86.0857	4,000.49	84.9684	4,000.49	84.2385	4,000.49	83.1612	4,000.49	81.6231	4,000.49	81.0176	4,000.49	78.3663	4,000.49	77.944	4,000.49	76.782	4,000.49	75.3921	4,000.49	74.2561	4,000.49	73.3654	4,000.49	72.4956	4,000.49	70.2893	4,000.49	69.8477	4,000.49	65.6408	4,000.49	67.6938	4,000.49	69.4509	4,000.49	68.7475	4,000.49	69.1536	4,000.49	69.7272	4,000.49	69.9885	4,000.49	70.8046	4,000.49	69.2952	4,000.49	60.3118	4,000.49	64.5766	4,000.49	65.1531
4,141.11	89.8542	4,141.11	89.081	4,141.11	89.2548	4,141.11	88.1126	4,141.11	87.242	4,141.11	87.2455	4,141.11	86.8043	4,141.11	86.4687	4,141.11	86.1725	4,141.11	85.8581	4,141.11	85.1421	4,141.11	84.6311	4,141.11	83.8193	4,141.11	82.7352	4,141.11	82.0684	4,141.11	79.9129	4,141.11	78.7604	4,141.11	76.6764	4,141.11	75.8017	4,141.11	73.0244	4,141.11	73.5772	4,141.11	70.985	4,141.11	70.3154	4,141.11	68.896	4,141.11	68.7426	4,141.11	69.6355	4,141.11	69.6795	4,141.11	66.5706	4,141.11	68.374	4,141.11	70.2787	4,141.11	71.4187	4,141.11	68.5904	4,141.11	69.7961	4,141.11	64.5562	4,141.11	60.8728	4,141.11	66.6566
4,287.6	89.4407	4,287.6	89.0458	4,287.6	88.502	4,287.6	87.773	4,287.6	87.2958	4,287.6	86.7032	4,287.6	86.0019	4,287.6	86.3773	4,287.6	86.274	4,287.6	85.5683	4,287.6	85.4877	4,287.6	84.5948	4,287.6	83.6778	4,287.6	82.8279	4,287.6	81.3695	4,287.6	80.4404	4,287.6	78.3919	4,287.6	77.2451	4,287.6	76.6203	4,287.6	73.0984	4,287.6	72.2212	4,287.6	72.0954	4,287.6	71.0931	4,287.6	70.0415	4,287.6	68.0175	4,287.6	68.8415	4,287.6	68.6525	4,287.6	68.1276	4,287.6	66.7426	4,287.6	70.7896	4,287.6	69.711	4,287.6	68.6669	4,287.6	68.6141	4,287.6	66.7392	4,287.6	59.3364	4,287.6	64.437
4,438.48	88.6276	4,438.48	88.7486	4,438.48	88.4038	4,438.48	87.5994	4,438.48	87.4425	4,438.48	86.6508	4,438.48	86.238	4,438.48	86.522	4,438.48	85.6817	4,438.48	86.2875	4,438.48	84.9672	4,438.48	84.6829	4,438.48	83.4957	4,438.48	82.7161	4,438.48	81.5662	4,438.48	80.0476	4,438.48	79.6425	4,438.48	77.884	4,438.48	76.0803	4,438.48	75.3977	4,438.48	73.2199	4,438.48	73.1948	4,438.48	71.4811	4,438.48	67.7612	4,438.48	68.3071	4,438.48	67.7802	4,438.48	70.777	4,438.48	69.3176	4,438.48	68.6184	4,438.48	71.1518	4,438.48	70.9032	4,438.48	69.073	4,438.48	65.6829	4,438.48	67.2118	4,438.48	63.5449	4,438.48	66.2449
4,595.21	88.0637	4,595.21	87.9855	4,595.21	87.8368	4,595.21	87.9533	4,595.21	86.4652	4,595.21	85.9849	4,595.21	85.1911	4,595.21	85.3767	4,595.21	84.1963	4,595.21	85.9122	4,595.21	83.427	4,595.21	84.9125	4,595.21	83.1524	4,595.21	83.0984	4,595.21	81.9088	4,595.21	80.6511	4,595.21	78.7116	4,595.21	76.1169	4,595.21	76.635	4,595.21	75.1512	4,595.21	72.9943	4,595.21	69.595	4,595.21	70.2091	4,595.21	66.5267	4,595.21	67.9849	4,595.21	63.3721	4,595.21	67.9909	4,595.21	65.1392	4,595.21	66.9696	4,595.21	70.2875	4,595.21	70.3329	4,595.21	66.3224	4,595.21	65.314	4,595.21	56.8396	4,595.21	59.0985	4,595.21	68.3311
4,756.35	87.7698	4,756.35	88.5079	4,756.35	87.6231	4,756.35	87.3581	4,756.35	87.7116	4,756.35	86.0273	4,756.35	85.0265	4,756.35	84.814	4,756.35	85.0011	4,756.35	85.1003	4,756.35	86.1052	4,756.35	84.5986	4,756.35	84.5099	4,756.35	83.569	4,756.35	81.7334	4,756.35	79.7685	4,756.35	80.0464	4,756.35	77.6321	4,756.35	77.2674	4,756.35	73.2206	4,756.35	72.5572	4,756.35	72.203	4,756.35	71.1013	4,756.35	71.7653	4,756.35	68.9431	4,756.35	66.7884	4,756.35	67.5522	4,756.35	69.8395	4,756.35	68.0553	4,756.35	73.11	4,756.35	70.674	4,756.35	65.7674	4,756.35	66.1783	4,756.35	62.519	4,756.35	58.3016	4,756.35	66.857
4,924.8	88.6752	4,924.8	88.9034	4,924.8	88.963	4,924.8	88.6714	4,924.8	87.6797	4,924.8	86.5489	4,924.8	86.2506	4,924.8	86.4422	4,924.8	85.3292	4,924.8	86.2525	4,924.8	85.1834	4,924.8	85.3339	4,924.8	84.8689	4,924.8	82.6095	4,924.8	82.0779	4,924.8	80.118	4,924.8	78.799	4,924.8	77.5001	4,924.8	76.6195	4,924.8	75.6601	4,924.8	73.3109	4,924.8	70.6072	4,924.8	69.3953	4,924.8	67.2442	4,924.8	68.0764	4,924.8	65.1879	4,924.8	67.3796	4,924.8	69.5987	4,924.8	70.4573	4,924.8	67.1616	4,924.8	69.8257	4,924.8	63.4963	4,924.8	62.2881	4,924.8	60.6288	4,924.8	60.4729	4,924.8	69.3452
5,097.66	88.1931	5,097.66	88.6411	5,097.66	88.7852	5,097.66	88.4307	5,097.66	88.0547	5,097.66	86.9434	5,097.66	86.3186	5,097.66	86.8511	5,097.66	86.0779	5,097.66	86.7343	5,097.66	85.6799	5,097.66	85.6353	5,097.66	83.9465	5,097.66	82.812	5,097.66	81.206	5,097.66	81.4326	5,097.66	78.4064	5,097.66	77.5961	5,097.66	76.1523	5,097.66	76.4927	5,097.66	72.7819	5,097.66	71.9451	5,097.66	67.8005	5,097.66	69.2774	5,097.66	66.8125	5,097.66	64.7022	5,097.66	67.0065	5,097.66	69.7218	5,097.66	68.7561	5,097.66	70.4958	5,097.66	67.693	5,097.66	68.1505	5,097.66	64.4068	5,097.66	59.668	5,097.66	50.004	5,097.66	69.8297
5,277.83	88.5925	5,277.83	88.4215	5,277.83	88.4569	5,277.83	88.9409	5,277.83	87.9425	5,277.83	87.6771	5,277.83	86.1356	5,277.83	86.6677	5,277.83	86.3311	5,277.83	86.1635	5,277.83	85.993	5,277.83	85.257	5,277.83	84.1054	5,277.83	83.5558	5,277.83	81.8606	5,277.83	79.2767	5,277.83	78.6832	5,277.83	77.2726	5,277.83	75.008	5,277.83	69.458	5,277.83	73.1541	5,277.83	67.7572	5,277.83	69.229	5,277.83	68.2863	5,277.83	68.2224	5,277.83	69.7051	5,277.83	64.1751	5,277.83	63.7741	5,277.83	68.1542	5,277.83	69.1022	5,277.83	69.2825	5,277.83	65.3022	5,277.83	64.9787	5,277.83	55.7323	5,277.83	49.9417	5,277.83	67.6403
5,463.87	88.5374	5,463.87	88.8186	5,463.87	89.1252	5,463.87	88.3414	5,463.87	88.1966	5,463.87	87.1708	5,463.87	87.364	5,463.87	86.8679	5,463.87	86.0399	5,463.87	87.2094	5,463.87	85.0908	5,463.87	86.4283	5,463.87	84.4658	5,463.87	84.4871	5,463.87	82.8803	5,463.87	81.78	5,463.87	77.8775	5,463.87	79.1135	5,463.87	75.3316	5,463.87	75.5445	5,463.87	72.9784	5,463.87	73.1484	5,463.87	70.3771	5,463.87	66.579	5,463.87	65.5464	5,463.87	65.7518	5,463.87	63.7062	5,463.87	69.2047	5,463.87	68.5014	5,463.87	66.2894	5,463.87	69.3632	5,463.87	63.6217	5,463.87	68.4299	5,463.87	52.2104	5,463.87	44.2638	5,463.87	69.3344
5,657.23	88.5649	5,657.23	88.1813	5,657.23	88.3747	5,657.23	87.5567	5,657.23	88.3548	5,657.23	86.5222	5,657.23	86.7765	5,657.23	85.3605	5,657.23	85.7308	5,657.23	84.909	5,657.23	85.8128	5,657.23	84.2471	5,657.23	84.3435	5,657.23	81.7807	5,657.23	81.5777	5,657.23	80.3321	5,657.23	80.2966	5,657.23	75.6947	5,657.23	76.1115	5,657.23	74.2256	5,657.23	73.0778	5,657.23	72.118	5,657.23	70.3872	5,657.23	70.3119	5,657.23	66.5828	5,657.23	66.2587	5,657.23	64.8142	5,657.23	68.8473	5,657.23	65.509	5,657.23	70.27	5,657.23	67.5645	5,657.23	66.5396	5,657.23	65.6081	5,657.23	54.8877	5,657.23	53.8092	5,657.23	67.806
5,856.45	87.1431	5,856.45	87.1011	5,856.45	87.4496	5,856.45	87.0382	5,856.45	86.8271	5,856.45	86.7861	5,856.45	86.6853	5,856.45	85.2708	5,856.45	84.6117	5,856.45	85.2989	5,856.45	84.1455	5,856.45	84.8864	5,856.45	83.8951	5,856.45	84.6936	5,856.45	83.0047	5,856.45	80.5503	5,856.45	78.9889	5,856.45	76.9408	5,856.45	76.217	5,856.45	73.1789	5,856.45	71.4266	5,856.45	69.3844	5,856.45	69.3974	5,856.45	64.157	5,856.45	66.5329	5,856.45	62.1566	5,856.45	62.7072	5,856.45	57.365	5,856.45	67.1967	5,856.45	66.8518	5,856.45	67.2061	5,856.45	65.2471	5,856.45	65.1806	5,856.45	59.0678	5,856.45	55.0084	5,856.45	69.4331
6,062.99	88.7643	6,062.99	88.7155	6,062.99	87.7772	6,062.99	88.5983	6,062.99	87.817	6,062.99	87.5453	6,062.99	86.5293	6,062.99	85.7113	6,062.99	85.7033	6,062.99	84.3499	6,062.99	84.4253	6,062.99	83.8199	6,062.99	83.9876	6,062.99	81.0303	6,062.99	80.7335	6,062.99	78.6483	6,062.99	79.3724	6,062.99	75.2297	6,062.99	76.173	6,062.99	74.826	6,062.99	72.8737	6,062.99	70.7287	6,062.99	69.5217	6,062.99	68.8805	6,062.99	68.2931	6,062.99	67.6378	6,062.99	64.2337	6,062.99	64.8974	6,062.99	64.6991	6,062.99	67.9851	6,062.99	69.0376	6,062.99	62.659	6,062.99	63.7454	6,062.99	56.9911	6,062.99	59.4267	6,062.99	71.6728
6,276.86	88.8678	6,276.86	87.8891	6,276.86	88.0147	6,276.86	87.9514	6,276.86	87.9335	6,276.86	87.5846	6,276.86	86.8649	6,276.86	85.714	6,276.86	85.3944	6,276.86	84.9032	6,276.86	84.5144	6,276.86	84.4391	6,276.86	83.919	6,276.86	82.709	6,276.86	82.2252	6,276.86	79.9185	6,276.86	78.7231	6,276.86	76.8537	6,276.86	75.9391	6,276.86	74.0138	6,276.86	71.8604	6,276.86	71.0568	6,276.86	70.3967	6,276.86	68.0083	6,276.86	66.9461	6,276.86	65.6088	6,276.86	63.4187	6,276.86	58.9413	6,276.86	64.671	6,276.86	66.0112	6,276.86	67.4081	6,276.86	66.5815	6,276.86	63.5796	6,276.86	59.3491	6,276.86	57.7611	6,276.86	69.9481
6,498.05	89.0322	6,498.05	88.7247	6,498.05	88.5746	6,498.05	88.7502	6,498.05	88.695	6,498.05	87.9985	6,498.05	87.48	6,498.05	86.3148	6,498.05	85.6464	6,498.05	84.6235	6,498.05	84.2708	6,498.05	83.3586	6,498.05	83.2173	6,498.05	81.7038	6,498.05	80.9393	6,498.05	79.1778	6,498.05	77.7495	6,498.05	76.3409	6,498.05	74.571	6,498.05	72.875	6,498.05	72.4574	6,498.05	69.6906	6,498.05	67.4845	6,498.05	67.5504	6,498.05	66.3526	6,498.05	66.7257	6,498.05	61.19	6,498.05	65.8899	6,498.05	65.1419	6,498.05	68.419	6,498.05	69.0644	6,498.05	65.1114	6,498.05	65.2293	6,498.05	65.0708	6,498.05	62.0492	6,498.05	68.1997
6,726.56	88.93	6,726.56	89.1152	6,726.56	88.9046	6,726.56	88.9429	6,726.56	89.0637	6,726.56	88.4146	6,726.56	87.9384	6,726.56	86.9825	6,726.56	85.9494	6,726.56	84.9227	6,726.56	85.2275	6,726.56	84.2155	6,726.56	83.6592	6,726.56	82.2548	6,726.56	81.7193	6,726.56	78.8512	6,726.56	77.4087	6,726.56	74.9379	6,726.56	74.4241	6,726.56	71.0871	6,726.56	71.3012	6,726.56	68.3099	6,726.56	68.074	6,726.56	65.9634	6,726.56	66.0989	6,726.56	62.2263	6,726.56	58.0208	6,726.56	65.8646	6,726.56	64.1303	6,726.56	66.4021	6,726.56	64.1456	6,726.56	62.2427	6,726.56	61.1581	6,726.56	66.1363	6,726.56	64.2419	6,726.56	70.3089
6,963.87	88.1848	6,963.87	88.5673	6,963.87	88.9229	6,963.87	88.463	6,963.87	88.4817	6,963.87	87.7167	6,963.87	88.0058	6,963.87	86.4216	6,963.87	86.3373	6,963.87	84.8635	6,963.87	84.1106	6,963.87	82.1733	6,963.87	83.365	6,963.87	80.7715	6,963.87	80.8635	6,963.87	78.3283	6,963.87	78.3925	6,963.87	75.5468	6,963.87	75.0356	6,963.87	72.6122	6,963.87	71.3024	6,963.87	70.4648	6,963.87	69.0909	6,963.87	66.8479	6,963.87	64.2453	6,963.87	65.1316	6,963.87	55.1718	6,963.87	65.3688	6,963.87	62.32	6,963.87	68.2165	6,963.87	69.3644	6,963.87	64.8017	6,963.87	62.019	6,963.87	61.8772	6,963.87	62.6057	6,963.87	69.6216
7,209.96	89.1186	7,209.96	89.3346	7,209.96	89.3446	7,209.96	89.0513	7,209.96	88.8445	7,209.96	88.5226	7,209.96	88.062	7,209.96	87.7175	7,209.96	86.6786	7,209.96	85.1614	7,209.96	84.4583	7,209.96	83.9532	7,209.96	83.3811	7,209.96	82.5435	7,209.96	81.0171	7,209.96	79.4934	7,209.96	78.5829	7,209.96	75.238	7,209.96	74.9958	7,209.96	72.7881	7,209.96	71.8859	7,209.96	68.1465	7,209.96	68.6521	7,209.96	66.1827	7,209.96	64.0267	7,209.96	62.6285	7,209.96	55.2558	7,209.96	65.4179	7,209.96	65.6797	7,209.96	68.0958	7,209.96	65.2889	7,209.96	59.7797	7,209.96	63.8274	7,209.96	61.2397	7,209.96	58.1093	7,209.96	67.8971
7,464.84	88.6162	7,464.84	89.0606	7,464.84	89.2356	7,464.84	88.6248	7,464.84	88.9518	7,464.84	88.176	7,464.84	88.3728	7,464.84	86.7994	7,464.84	86.1359	7,464.84	84.9626	7,464.84	84.2532	7,464.84	83.0015	7,464.84	82.7266	7,464.84	81.67	7,464.84	81.3512	7,464.84	78.287	7,464.84	78.0766	7,464.84	75.6458	7,464.84	74.39	7,464.84	71.1852	7,464.84	70.1049	7,464.84	69.468	7,464.84	67.6934	7,464.84	64.4582	7,464.84	62.9355	7,464.84	65.1324	7,464.84	62.8267	7,464.84	66.0513	7,464.84	63.6457	7,464.84	65.6962	7,464.84	67.0686	7,464.84	61.9154	7,464.84	59.9249	7,464.84	59.7708	7,464.84	61.1979	7,464.84	66.2401
7,727.05	88.3105	7,727.05	88.3167	7,727.05	88.2929	7,727.05	87.9136	7,727.05	88.3476	7,727.05	87.9598	7,727.05	87.5997	7,727.05	86.5147	7,727.05	86.4502	7,727.05	84.9043	7,727.05	84.9559	7,727.05	83.4695	7,727.05	83.0983	7,727.05	81.1349	7,727.05	81.0439	7,727.05	77.9326	7,727.05	76.7511	7,727.05	74.2902	7,727.05	74.1569	7,727.05	70.1972	7,727.05	70.5917	7,727.05	68.0257	7,727.05	66.5461	7,727.05	65.3158	7,727.05	63.9825	7,727.05	59.476	7,727.05	63.8396	7,727.05	62.0697	7,727.05	64.2295	7,727.05	63.6404	7,727.05	64.9253	7,727.05	59.1361	7,727.05	63.2747	7,727.05	60.4493	7,727.05	58.525	7,727.05	64.1583
7,999.51	88.6546	7,999.51	88.2681	7,999.51	88.2509	7,999.51	88.8003	7,999.51	88.5147	7,999.51	87.796	7,999.51	87.4695	7,999.51	86.5957	7,999.51	86.3738	7,999.51	85.0535	7,999.51	84.2844	7,999.51	83.1082	7,999.51	83.1908	7,999.51	80.6165	7,999.51	81.2236	7,999.51	78.6581	7,999.51	77.3054	7,999.51	73.3594	7,999.51	74.4642	7,999.51	70.3529	7,999.51	69.5039	7,999.51	65.9378	7,999.51	66.1378	7,999.51	63.5551	7,999.51	65.4131	7,999.51	61.521	7,999.51	64.4214	7,999.51	61.0249	7,999.51	63.6278	7,999.51	62.4528	7,999.51	66.704	7,999.51	61.4764	7,999.51	63.9755	7,999.51	61.7418	7,999.51	56.7533	7,999.51	60.6612
8,282.23	87.997	8,282.23	88.0006	8,282.23	88.0941	8,282.23	87.9118	8,282.23	88.1414	8,282.23	87.28	8,282.23	87.3476	8,282.23	86.5806	8,282.23	86.2078	8,282.23	83.9185	8,282.23	84.1152	8,282.23	82.3847	8,282.23	82.6168	8,282.23	79.9021	8,282.23	80.4613	8,282.23	77.2326	8,282.23	77.3777	8,282.23	73.8099	8,282.23	73.7643	8,282.23	70.9952	8,282.23	69.2069	8,282.23	66.8904	8,282.23	64.4434	8,282.23	65.0241	8,282.23	62.5034	8,282.23	61.6272	8,282.23	64.3799	8,282.23	60.2018	8,282.23	61.2413	8,282.23	63.7011	8,282.23	65.9692	8,282.23	57.6467	8,282.23	62.8203	8,282.23	62.2443	8,282.23	61.6371	8,282.23	57.8917
8,573.73	88.1179	8,573.73	87.8571	8,573.73	88.218	8,573.73	87.6726	8,573.73	88.1831	8,573.73	87.114	8,573.73	87.5599	8,573.73	86.2473	8,573.73	86.4193	8,573.73	83.7657	8,573.73	84.0137	8,573.73	82.063	8,573.73	82.4731	8,573.73	80.6401	8,573.73	79.4922	8,573.73	76.9227	8,573.73	77.5957	8,573.73	72.6991	8,573.73	73.4422	8,573.73	68.7252	8,573.73	68.5345	8,573.73	67.5241	8,573.73	65.7903	8,573.73	64.7303	8,573.73	64.2409	8,573.73	56.806	8,573.73	61.614	8,573.73	61.1131	8,573.73	60.0118	8,573.73	62.044	8,573.73	65.7954	8,573.73	56.2817	8,573.73	63.7217	8,573.73	57.9066	8,573.73	57.451	8,573.73	56.7138
8,876.95	87.3824	8,876.95	87.6485	8,876.95	87.7052	8,876.95	87.697	8,876.95	87.7304	8,876.95	87.0169	8,876.95	86.9988	8,876.95	85.6999	8,876.95	85.4257	8,876.95	83.3905	8,876.95	83.8638	8,876.95	80.9903	8,876.95	81.0875	8,876.95	78.6718	8,876.95	79.0034	8,876.95	76.2902	8,876.95	75.6856	8,876.95	73.8448	8,876.95	72.997	8,876.95	69.2337	8,876.95	69.6469	8,876.95	66.647	8,876.95	67.3646	8,876.95	60.8093	8,876.95	64.1197	8,876.95	60.2294	8,876.95	60.7666	8,876.95	54.5554	8,876.95	61.6339	8,876.95	60.2467	8,876.95	63.5718	8,876.95	54.9066	8,876.95	63.9285	8,876.95	55.4104	8,876.95	57.6222	8,876.95	50.7096
9,188.96	87.9517	9,188.96	87.9782	9,188.96	88.3315	9,188.96	87.603	9,188.96	87.6813	9,188.96	86.8741	9,188.96	87.0325	9,188.96	85.6423	9,188.96	85.5188	9,188.96	83.5923	9,188.96	83.2723	9,188.96	80.2169	9,188.96	81.3425	9,188.96	78.4519	9,188.96	79.9756	9,188.96	75.7953	9,188.96	76.8393	9,188.96	72.3138	9,188.96	73.0157	9,188.96	68.5933	9,188.96	69.3645	9,188.96	67.2709	9,188.96	66.1918	9,188.96	62.7756	9,188.96	61.6564	9,188.96	56.3151	9,188.96	61.7378	9,188.96	54.6313	9,188.96	60.1823	9,188.96	60.2007	9,188.96	64.5716	9,188.96	48.6282	9,188.96	63.702	9,188.96	60.1332	9,188.96	57.0403	9,188.96	53.6839
9,514.16	88.3645	9,514.16	87.8615	9,514.16	87.9964	9,514.16	87.3606	9,514.16	87.8403	9,514.16	86.179	9,514.16	87.0914	9,514.16	85.3351	9,514.16	85.2909	9,514.16	82.1517	9,514.16	82.7034	9,514.16	80.98	9,514.16	81.5699	9,514.16	77.5502	9,514.16	78.4827	9,514.16	74.0259	9,514.16	73.6662	9,514.16	70.8449	9,514.16	70.3403	9,514.16	65.6455	9,514.16	66.7311	9,514.16	63.959	9,514.16	64.2858	9,514.16	59.8484	9,514.16	62.1532	9,514.16	55.9742	9,514.16	60.3165	9,514.16	55.7116	9,514.16	56.96	9,514.16	56.6167	9,514.16	62.6482	9,514.16	51.7377	9,514.16	59.2994	9,514.16	59.2031	9,514.16	53.0831	9,514.16	54.0395
9,849.61	88.2984	9,849.61	87.6983	9,849.61	87.9902	9,849.61	87.6074	9,849.61	87.7157	9,849.61	86.4531	9,849.61	86.765	9,849.61	85.1114	9,849.61	85.74	9,849.61	82.1469	9,849.61	83.0317	9,849.61	80.5104	9,849.61	81.1624	9,849.61	76.8356	9,849.61	77.824	9,849.61	73.8519	9,849.61	73.6852	9,849.61	68.2553	9,849.61	70.2383	9,849.61	64.8236	9,849.61	66.5827	9,849.61	63.8142	9,849.61	62.2472	9,849.61	59.4129	9,849.61	60.9201	9,849.61	49.8605	9,849.61	55.6145	9,849.61	52.8082	9,849.61	52.5376	9,849.61	56.393	9,849.61	60.6674	9,849.61	49.8382	9,849.61	51.8348	9,849.61	60	9,849.61	53.0094	9,849.61	53.0809
10,196.8	88.5872	10,196.8	88.0315	10,196.8	88.4163	10,196.8	87.8765	10,196.8	88.1831	10,196.8	86.4866	10,196.8	87.0135	10,196.8	85.0784	10,196.8	85.9344	10,196.8	82.3566	10,196.8	82.6041	10,196.8	78.3432	10,196.8	80.9226	10,196.8	77.1949	10,196.8	79.4725	10,196.8	73.9315	10,196.8	75.6711	10,196.8	67.8091	10,196.8	70.8273	10,196.8	66.643	10,196.8	65.0828	10,196.8	64.5545	10,196.8	62.7948	10,196.8	61.2656	10,196.8	59.5813	10,196.8	48.7667	10,196.8	51.8181	10,196.8	52.9925	10,196.8	48.7396	10,196.8	55.5117	10,196.8	56.6527	10,196.8	56.063	10,196.8	53.5407	10,196.8	57.9884	10,196.8	55.2282	10,196.8	52.1449
10,555.7	88.5833	10,555.7	88.2565	10,555.7	88.1826	10,555.7	87.8139	10,555.7	88.1566	10,555.7	86.8379	10,555.7	87.3029	10,555.7	85.7368	10,555.7	85.9716	10,555.7	81.745	10,555.7	82.1293	10,555.7	79.2155	10,555.7	80.9569	10,555.7	77.3068	10,555.7	78.6444	10,555.7	73.8285	10,555.7	74.8145	10,555.7	69.5354	10,555.7	70.7315	10,555.7	66.4393	10,555.7	66.2227	10,555.7	64.675	10,555.7	64.4548	10,555.7	58.6779	10,555.7	61.1598	10,555.7	52.2513	10,555.7	52.5667	10,555.7	47.4895	10,555.7	53.8174	10,555.7	54.6791	10,555.7	55.775	10,555.7	52.2158	10,555.7	54.3314	10,555.7	56.3599	10,555.7	52.5176	10,555.7	53.5552
10,927.7	88.5705	10,927.7	88.1588	10,927.7	88.2437	10,927.7	87.6332	10,927.7	88.0015	10,927.7	86.3913	10,927.7	86.96	10,927.7	85.1605	10,927.7	85.8621	10,927.7	81.616	10,927.7	83.0162	10,927.7	79.2916	10,927.7	81.1535	10,927.7	77.4523	10,927.7	78.6106	10,927.7	73.8588	10,927.7	76.0775	10,927.7	70.5073	10,927.7	71.5201	10,927.7	66.0183	10,927.7	68.1028	10,927.7	64.4527	10,927.7	65.5376	10,927.7	60.4966	10,927.7	59.9132	10,927.7	56.6358	10,927.7	54.0201	10,927.7	48.2256	10,927.7	57.7073	10,927.7	48.8822	10,927.7	59.4167	10,927.7	49.9687	10,927.7	57.6613	10,927.7	55.1738	10,927.7	53.773	10,927.7	58.7037
11,313	88.5472	11,313	87.5962	11,313	88.1602	11,313	87.3103	11,313	87.7278	11,313	85.5754	11,313	86.6537	11,313	84.2773	11,313	85.3938	11,313	81.6948	11,313	82.7062	11,313	78.6523	11,313	81.0023	11,313	77.6698	11,313	79.9893	11,313	74.0191	11,313	76.2087	11,313	70.7805	11,313	71.9039	11,313	66.1583	11,313	67.9239	11,313	65.3076	11,313	65.4132	11,313	58.5378	11,313	59.0506	11,313	42.3485	11,313	43.8965	11,313	42.1732	11,313	56.9689	11,313	48.519	11,313	58.3635	11,313	54.951	11,313	57.5506	11,313	54.0264	11,313	51.9618	11,313	59.661
11,712.9	88.2971	11,712.9	87.9297	11,712.9	87.6702	11,712.9	86.7078	11,712.9	87.4607	11,712.9	85.5771	11,712.9	86.389	11,712.9	84.1307	11,712.9	85.5184	11,712.9	80.852	11,712.9	83.0062	11,712.9	79.2802	11,712.9	81.2509	11,712.9	77.9165	11,712.9	79.8022	11,712.9	75.1375	11,712.9	75.3637	11,712.9	68.7019	11,712.9	71.6335	11,712.9	67.319	11,712.9	68.5105	11,712.9	62.9226	11,712.9	65.3753	11,712.9	56.6052	11,712.9	59.6639	11,712.9	57.9801	11,712.9	43.8803	11,712.9	32.4698	11,712.9	56.2979	11,712.9	52.3064	11,712.9	58.6359	11,712.9	54.7468	11,712.9	54.4185	11,712.9	57.2919	11,712.9	48.9629	11,712.9	59.1631
12,126	87.9859	12,126	87.2583	12,126	87.5752	12,126	86.1911	12,126	87.1681	12,126	84.9569	12,126	85.9449	12,126	83.3336	12,126	85.1482	12,126	80.91	12,126	83.0473	12,126	79.058	12,126	81.4484	12,126	77.3073	12,126	79.4406	12,126	75.1342	12,126	77.2978	12,126	71.0532	12,126	72.4801	12,126	67.7997	12,126	68.0762	12,126	63.6611	12,126	65.1588	12,126	58.9489	12,126	60.1039	12,126	58.9976	12,126	54.4822	12,126	30.147	12,126	56.9667	12,126	46.7465	12,126	57.8066	12,126	54.5005	12,126	53.9363	12,126	57.6584	12,126	52.8992	12,126	55.637
12,553.7	87.7116	12,553.7	86.8579	12,553.7	87.3151	12,553.7	85.7812	12,553.7	86.7934	12,553.7	84.5115	12,553.7	85.8199	12,553.7	83.3275	12,553.7	84.9095	12,553.7	81.2614	12,553.7	83.1328	12,553.7	79.8092	12,553.7	81.3472	12,553.7	77.6621	12,553.7	79.6352	12,553.7	76.4732	12,553.7	76.7603	12,553.7	71.0606	12,553.7	72.3928	12,553.7	68.1954	12,553.7	68.8221	12,553.7	64.9965	12,553.7	65.4734	12,553.7	60.8817	12,553.7	60.0016	12,553.7	59.3216	12,553.7	58.06	12,553.7	47.7898	12,553.7	52.7833	12,553.7	44.8836	12,553.7	56.7613	12,553.7	53.7627	12,553.7	57.075	12,553.7	57.5617	12,553.7	46.7783	12,553.7	54.1693
12,996.1	87.2561	12,996.1	86.2966	12,996.1	87.1314	12,996.1	84.9973	12,996.1	86.5219	12,996.1	83.7328	12,996.1	85.4447	12,996.1	83.0242	12,996.1	85.1749	12,996.1	81.8765	12,996.1	83.1508	12,996.1	80.416	12,996.1	81.7634	12,996.1	79.3862	12,996.1	80.341	12,996.1	77.0597	12,996.1	77.4808	12,996.1	72.2482	12,996.1	72.4736	12,996.1	69.3116	12,996.1	69.7575	12,996.1	65.5797	12,996.1	65.8518	12,996.1	59.9501	12,996.1	59.2984	12,996.1	58.8821	12,996.1	58.9844	12,996.1	51.2181	12,996.1	55.2295	12,996.1	49.3201	12,996.1	58.5357	12,996.1	53.6791	12,996.1	59.6528	12,996.1	56.1663	12,996.1	50.0145	12,996.1	54.3754
13,454.6	86.6541	13,454.6	85.4805	13,454.6	86.3585	13,454.6	84.1859	13,454.6	86.0047	13,454.6	83.0489	13,454.6	85.4036	13,454.6	83.304	13,454.6	85.1576	13,454.6	82.7924	13,454.6	83.3535	13,454.6	81.6623	13,454.6	82.3345	13,454.6	80.5373	13,454.6	81.1345	13,454.6	77.8628	13,454.6	77.3356	13,454.6	72.7767	13,454.6	72.6406	13,454.6	69.6089	13,454.6	69.7089	13,454.6	64.2064	13,454.6	64.6366	13,454.6	60.0539	13,454.6	56.941	13,454.6	59.7153	13,454.6	60.6022	13,454.6	53.7274	13,454.6	51.5586	13,454.6	51.7137	13,454.6	56.8064	13,454.6	53.1947	13,454.6	60.2522	13,454.6	53.0775	13,454.6	51.465	13,454.6	52.969
13,929.2	85.5639	13,929.2	84.4618	13,929.2	85.6662	13,929.2	82.9441	13,929.2	85.1623	13,929.2	82.5073	13,929.2	84.7175	13,929.2	83.4614	13,929.2	84.9548	13,929.2	83.3187	13,929.2	83.6485	13,929.2	82.1801	13,929.2	82.4711	13,929.2	80.9787	13,929.2	80.8264	13,929.2	77.5182	13,929.2	77.4425	13,929.2	73.8898	13,929.2	72.8031	13,929.2	69.9666	13,929.2	69.0668	13,929.2	64.7041	13,929.2	64.3848	13,929.2	60.4187	13,929.2	60.1922	13,929.2	59.8673	13,929.2	62.5266	13,929.2	52.8748	13,929.2	53.2755	13,929.2	46.7381	13,929.2	57.5494	13,929.2	50.414	13,929.2	58.5145	13,929.2	50.0134	13,929.2	46.0804	13,929.2	48.9053
14,419.9	84.8625	14,419.9	83.7979	14,419.9	85.0864	14,419.9	83.1286	14,419.9	84.6019	14,419.9	82.8325	14,419.9	84.5123	14,419.9	84.2042	14,419.9	84.577	14,419.9	83.9037	14,419.9	83.7641	14,419.9	82.4551	14,419.9	82.3367	14,419.9	81.1841	14,419.9	80.5432	14,419.9	77.5893	14,419.9	77.5509	14,419.9	73.6526	14,419.9	72.9706	14,419.9	68.3593	14,419.9	69.0451	14,419.9	64.6752	14,419.9	64.075	14,419.9	59.4608	14,419.9	56.474	14,419.9	59.8439	14,419.9	62.5047	14,419.9	53.4897	14,419.9	51.2739	14,419.9	47.2433	14,419.9	55.3884	14,419.9	48.1167	14,419.9	57.1685	14,419.9	38.1768	14,419.9	42.7718	14,419.9	44.8643
14,928.2	84.1601	14,928.2	83.7967	14,928.2	84.633	14,928.2	82.6347	14,928.2	84.0465	14,928.2	82.7754	14,928.2	84.1232	14,928.2	84.0382	14,928.2	84.5763	14,928.2	83.9095	14,928.2	84.1965	14,928.2	82.267	14,928.2	82.142	14,928.2	81.0981	14,928.2	80.3936	14,928.2	77.3958	14,928.2	76.6558	14,928.2	73.4987	14,928.2	72.4147	14,928.2	67.7093	14,928.2	68.0376	14,928.2	64.2106	14,928.2	63.1252	14,928.2	57.0578	14,928.2	55.0332	14,928.2	59.3471	14,928.2	62.8339	14,928.2	52.3149	14,928.2	50.0505	14,928.2	42.6586	14,928.2	53.1544	14,928.2	55.3015	14,928.2	54.2032	14,928.2	47.576	14,928.2	47.905	14,928.2	45.6382
15,455.6	83.7866	15,455.6	83.4371	15,455.6	84.3119	15,455.6	83.112	15,455.6	84.2783	15,455.6	83.3406	15,455.6	84.0698	15,455.6	84.6344	15,455.6	84.7445	15,455.6	84.2346	15,455.6	84.0577	15,455.6	82.6088	15,455.6	82.119	15,455.6	80.3814	15,455.6	79.5606	15,455.6	76.7522	15,455.6	75.5922	15,455.6	72.1907	15,455.6	71.8999	15,455.6	67.464	15,455.6	67.7593	15,455.6	62.5933	15,455.6	62.7774	15,455.6	57.9175	15,455.6	57.5433	15,455.6	58.7635	15,455.6	64.621	15,455.6	52.7137	15,455.6	45.5946	15,455.6	41.129	15,455.6	52.8178	15,455.6	57.4263	15,455.6	45.3012	15,455.6	46.2484	15,455.6	48.92	15,455.6	51.2145
16,000.5	84.4525	16,000.5	84.3743	16,000.5	84.5278	16,000.5	84.5706	16,000.5	84.6808	16,000.5	84.3002	16,000.5	84.475	16,000.5	84.8671	16,000.5	84.5977	16,000.5	84.3116	16,000.5	83.865	16,000.5	81.8986	16,000.5	81.7052	16,000.5	79.9486	16,000.5	79.4962	16,000.5	75.957	16,000.5	74.5683	16,000.5	70.4655	16,000.5	70.1252	16,000.5	65.9514	16,000.5	66.3983	16,000.5	61.3827	16,000.5	60.4084	16,000.5	56.4728	16,000.5	55.0216	16,000.5	57.918	16,000.5	62.744	16,000.5	52.8474	16,000.5	35.437	16,000.5	44.3933	16,000.5	54.742	16,000.5	52.3403	16,000.5	40.1548	16,000.5	38.1608	16,000.5	48.4414	16,000.5	50.2599
16,564.5	84.7306	16,564.5	84.189	16,564.5	85.1716	16,564.5	83.8778	16,564.5	85.3733	16,564.5	83.1363	16,564.5	84.9028	16,564.5	83.5192	16,564.5	84.9429	16,564.5	82.7494	16,564.5	83.9474	16,564.5	79.9432	16,564.5	81.5682	16,564.5	77.4744	16,564.5	79.4293	16,564.5	73.5469	16,564.5	74.4589	16,564.5	68.6656	16,564.5	70.4881	16,564.5	63.1057	16,564.5	64.9701	16,564.5	57.0186	16,564.5	59.1466	16,564.5	54.1561	16,564.5	54.5201	16,564.5	57.5135	16,564.5	62.2442	16,564.5	44.1793	16,564.5	46.121	16,564.5	40.8215	16,564.5	53.6555	16,564.5	48.7605	16,564.5	40.6012	16,564.5	39.3992	16,564.5	44.1228	16,564.5	43.5777
17,148.9	84.8252	17,148.9	84.7114	17,148.9	85.0129	17,148.9	84.6691	17,148.9	85.174	17,148.9	83.9619	17,148.9	84.5044	17,148.9	84.1139	17,148.9	84.7269	17,148.9	82.9716	17,148.9	83.5137	17,148.9	79.906	17,148.9	80.6791	17,148.9	76.8962	17,148.9	78.2775	17,148.9	73.2669	17,148.9	73.7776	17,148.9	67.6034	17,148.9	69.3254	17,148.9	62.6631	17,148.9	63.602	17,148.9	57.4842	17,148.9	57.2842	17,148.9	54.3273	17,148.9	54.1919	17,148.9	55.985	17,148.9	61.5236	17,148.9	40.6994	17,148.9	50.1919	17,148.9	37.5264	17,148.9	54.3601	17,148.9	45.4056	17,148.9	38.8646	17,148.9	34.6519	17,148.9	46.1008	17,148.9	49.9544
17,752.4	85.6328	17,752.4	85.3484	17,752.4	85.6428	17,752.4	85.4381	17,752.4	85.7826	17,752.4	84.6915	17,752.4	85.1491	17,752.4	84.511	17,752.4	84.9969	17,752.4	82.8422	17,752.4	83.4283	17,752.4	79.5628	17,752.4	80.3161	17,752.4	75.9061	17,752.4	77.5849	17,752.4	72.064	17,752.4	73.1106	17,752.4	67.1299	17,752.4	68.8712	17,752.4	61.7734	17,752.4	63.2178	17,752.4	56.5199	17,752.4	56.8564	17,752.4	52.8335	17,752.4	54.3563	17,752.4	55.4399	17,752.4	60.4831	17,752.4	40.0006	17,752.4	52.9767	17,752.4	44.6111	17,752.4	52.8605	17,752.4	48.0782	17,752.4	36.156	17,752.4	40.1259	17,752.4	43.7422	17,752.4	44.7088
18,379.4	86.7569	18,379.4	86.4486	18,379.4	86.5769	18,379.4	86.2004	18,379.4	86.3904	18,379.4	85.0814	18,379.4	85.4579	18,379.4	84.473	18,379.4	85.0534	18,379.4	82.4437	18,379.4	83.1064	18,379.4	78.6217	18,379.4	79.5961	18,379.4	75.0283	18,379.4	76.2619	18,379.4	70.7948	18,379.4	72.4413	18,379.4	66.5019	18,379.4	67.823	18,379.4	60.6218	18,379.4	61.6911	18,379.4	56.2051	18,379.4	55.6087	18,379.4	50.9459	18,379.4	53.3475	18,379.4	54.9212	18,379.4	60.2307	18,379.4	41.3215	18,379.4	52.6738	18,379.4	41.8046	18,379.4	51.2857	18,379.4	46.9297	18,379.4	42.5054	18,379.4	46.5259	18,379.4	46.1045	18,379.4	39.2798
19,026.9	87.9591	19,026.9	87.383	19,026.9	87.6229	19,026.9	86.8607	19,026.9	87.2561	19,026.9	85.4997	19,026.9	85.8394	19,026.9	84.5206	19,026.9	85.033	19,026.9	82.0316	19,026.9	82.5702	19,026.9	77.7383	19,026.9	78.4099	19,026.9	73.5998	19,026.9	74.7853	19,026.9	69.7751	19,026.9	70.6986	19,026.9	66.0222	19,026.9	66.5249	19,026.9	60.0394	19,026.9	60.2833	19,026.9	56.5058	19,026.9	54.6681	19,026.9	49.4203	19,026.9	52.2318	19,026.9	52.7627	19,026.9	59.5951	19,026.9	43.9915	19,026.9	52.6796	19,026.9	30.3781	19,026.9	45.9614	19,026.9	45.2479	19,026.9	47.1198	19,026.9	45.9213	19,026.9	47.0056	19,026.9	17.8344
19,697.8	89.3959	19,697.8	88.6969	19,697.8	88.8033	19,697.8	87.6044	19,697.8	87.8742	19,697.8	85.7015	19,697.8	86.017	19,697.8	84.2237	19,697.8	84.6169	19,697.8	81.3302	19,697.8	81.5457	19,697.8	76.613	19,697.8	76.7407	19,697.8	72.8435	19,697.8	72.0849	19,697.8	70.0077	19,697.8	68.1487	19,697.8	66.1476	19,697.8	64.2091	19,697.8	59.5739	19,697.8	58.039	19,697.8	54.7947	19,697.8	52.4121	19,697.8	47.4561	19,697.8	49.4901	19,697.8	50.0759	19,697.8	56.6421	19,697.8	45.5541	19,697.8	50.8587	19,697.8	33.0613	19,697.8	43.2453	19,697.8	43.5991	19,697.8	42.6944	19,697.8	39.7304	19,697.8	37.4436	19,697.8	34.6374
19,999.5	90.026	19,999.5	89.0574	19,999.5	89.4093	19,999.5	87.7459	19,999.5	88.1284	19,999.5	86.1831	19,999.5	86.073	19,999.5	84.1434	19,999.5	84.338	19,999.5	81.0526	19,999.5	81.076	19,999.5	75.4944	19,999.5	74.2053	19,999.5	72.4282	19,999.5	69.6565	19,999.5	71.035	19,999.5	63.9843	19,999.5	66.4516	19,999.5	62.4734	19,999.5	61.6474	19,999.5	57.5264	19,999.5	45.2492	19,999.5	56.9085	19,999.5	46.5467	19,999.5	56.5076	19,999.5	37.7183	19,999.5	52.1829	19,999.5	56.1193	19,999.5	49.9021	19,999.5	55.5585	19,999.5	51.6127	19,999.5	46.2643	19,999.5	45.8605	19,999.5	30.3836	19,999.5	51.7675	19,999.5	43.984
