"SPL Vertical"
"On-Axis"		"10°"		"-10°"		"20°"		"-20°"		"30°"		"-30°"		"40°"		"-40°"		"50°"		"-50°"		"60°"		"-60°"		"70°"		"-70°"		"80°"		"-80°"		"90°"		"-90°"		"100°"		"-100°"		"110°"		"-110°"		"120°"		"-120°"		"130°"		"-130°"		"140°"		"-140°"		"150°"		"-150°"		"160°"		"-160°"		"170°"		"-170°"		"180°"
"Frequency / Hz"	"Sound Pressure Level / dB (re 20 µPa/V)  [2.83  V @ 1. m]"	"Frequency / Hz"	"Sound Pressure Level / dB (re 20 µPa/V)  [2.83  V @ 1. m]"	"Frequency / Hz"	"Sound Pressure Level / dB (re 20 µPa/V)  [2.83  V @ 1. m]"	"Frequency / Hz"	"Sound Pressure Level / dB (re 20 µPa/V)  [2.83  V @ 1. m]"	"Frequency / Hz"	"Sound Pressure Level / dB (re 20 µPa/V)  [2.83  V @ 1. m]"	"Frequency / Hz"	"Sound Pressure Level / dB (re 20 µPa/V)  [2.83  V @ 1. m]"	"Frequency / Hz"	"Sound Pressure Level / dB (re 20 µPa/V)  [2.83  V @ 1. m]"	"Frequency / Hz"	"Sound Pressure Level / dB (re 20 µPa/V)  [2.83  V @ 1. m]"	"Frequency / Hz"	"Sound Pressure Level / dB (re 20 µPa/V)  [2.83  V @ 1. m]"	"Frequency / Hz"	"Sound Pressure Level / dB (re 20 µPa/V)  [2.83  V @ 1. m]"	"Frequency / Hz"	"Sound Pressure Level / dB (re 20 µPa/V)  [2.83  V @ 1. m]"	"Frequency / Hz"	"Sound Pressure Level / dB (re 20 µPa/V)  [2.83  V @ 1. m]"	"Frequency / Hz"	"Sound Pressure Level / dB (re 20 µPa/V)  [2.83  V @ 1. m]"	"Frequency / Hz"	"Sound Pressure Level / dB (re 20 µPa/V)  [2.83  V @ 1. m]"	"Frequency / Hz"	"Sound Pressure Level / dB (re 20 µPa/V)  [2.83  V @ 1. m]"	"Frequency / Hz"	"Sound Pressure Level / dB (re 20 µPa/V)  [2.83  V @ 1. m]"	"Frequency / Hz"	"Sound Pressure Level / dB (re 20 µPa/V)  [2.83  V @ 1. m]"	"Frequency / Hz"	"Sound Pressure Level / dB (re 20 µPa/V)  [2.83  V @ 1. m]"	"Frequency / Hz"	"Sound Pressure Level / dB (re 20 µPa/V)  [2.83  V @ 1. m]"	"Frequency / Hz"	"Sound Pressure Level / dB (re 20 µPa/V)  [2.83  V @ 1. m]"	"Frequency / Hz"	"Sound Pressure Level / dB (re 20 µPa/V)  [2.83  V @ 1. m]"	"Frequency / Hz"	"Sound Pressure Level / dB (re 20 µPa/V)  [2.83  V @ 1. m]"	"Frequency / Hz"	"Sound Pressure Level / dB (re 20 µPa/V)  [2.83  V @ 1. m]"	"Frequency / Hz"	"Sound Pressure Level / dB (re 20 µPa/V)  [2.83  V @ 1. m]"	"Frequency / Hz"	"Sound Pressure Level / dB (re 20 µPa/V)  [2.83  V @ 1. m]"	"Frequency / Hz"	"Sound Pressure Level / dB (re 20 µPa/V)  [2.83  V @ 1. m]"	"Frequency / Hz"	"Sound Pressure Level / dB (re 20 µPa/V)  [2.83  V @ 1. m]"	"Frequency / Hz"	"Sound Pressure Level / dB (re 20 µPa/V)  [2.83  V @ 1. m]"	"Frequency / Hz"	"Sound Pressure Level / dB (re 20 µPa/V)  [2.83  V @ 1. m]"	"Frequency / Hz"	"Sound Pressure Level / dB (re 20 µPa/V)  [2.83  V @ 1. m]"	"Frequency / Hz"	"Sound Pressure Level / dB (re 20 µPa/V)  [2.83  V @ 1. m]"	"Frequency / Hz"	"Sound Pressure Level / dB (re 20 µPa/V)  [2.83  V @ 1. m]"	"Frequency / Hz"	"Sound Pressure Level / dB (re 20 µPa/V)  [2.83  V @ 1. m]"	"Frequency / Hz"	"Sound Pressure Level / dB (re 20 µPa/V)  [2.83  V @ 1. m]"	"Frequency / Hz"	"Sound Pressure Level / dB (re 20 µPa/V)  [2.83  V @ 1. m]"	"Frequency / Hz"	"Sound Pressure Level / dB (re 20 µPa/V)  [2.83  V @ 1. m]"
20.5078	64.1522	20.5078	63.968	20.5078	64.3281	20.5078	63.7804	20.5078	64.4903	20.5078	63.5939	20.5078	64.6331	20.5078	63.4124	20.5078	64.7505	20.5078	63.24	20.5078	64.8364	20.5078	63.0803	20.5078	64.8859	20.5078	62.9367	20.5078	64.8951	20.5078	62.8126	20.5078	64.8621	20.5078	62.7112	20.5078	64.7874	20.5078	62.6351	20.5078	64.6735	20.5078	62.5869	20.5078	64.5253	20.5078	62.5687	20.5078	64.3489	20.5078	62.582	20.5078	64.1517	20.5078	62.6278	20.5078	63.9415	20.5078	62.7063	20.5078	63.726	20.5078	62.8163	20.5078	63.513	20.5078	62.956	20.5078	63.3094	20.5078	63.1219
21.9727	65.4086	21.9727	65.236	21.9727	65.5746	21.9727	65.0617	21.9727	65.7288	21.9727	64.8902	21.9727	65.8655	21.9727	64.7256	21.9727	65.9792	21.9727	64.5717	21.9727	66.0644	21.9727	64.4321	21.9727	66.1165	21.9727	64.3103	21.9727	66.1322	21.9727	64.2092	21.9727	66.1098	21.9727	64.1316	21.9727	66.05	21.9727	64.08	21.9727	65.9554	21.9727	64.0559	21.9727	65.8308	21.9727	64.0605	21.9727	65.682	21.9727	64.0939	21.9727	65.5158	21.9727	64.1553	21.9727	65.3389	21.9727	64.2432	21.9727	65.1576	21.9727	64.3551	21.9727	64.9774	21.9727	64.488	21.9727	64.8029	21.9727	64.6385
23.4375	65.8322	23.4375	65.63	23.4375	66.0263	23.4375	65.4264	23.4375	66.2055	23.4375	65.2272	23.4375	66.3629	23.4375	65.0381	23.4375	66.4923	23.4375	64.8641	23.4375	66.5881	23.4375	64.7094	23.4375	66.646	23.4375	64.5782	23.4375	66.6635	23.4375	64.4737	23.4375	66.6402	23.4375	64.3988	23.4375	66.5774	23.4375	64.3557	23.4375	66.4789	23.4375	64.3454	23.4375	66.35	23.4375	64.3684	23.4375	66.1968	23.4375	64.4239	23.4375	66.0257	23.4375	64.5099	23.4375	65.8429	23.4375	64.6236	23.4375	65.6536	23.4375	64.7612	23.4375	65.4624	23.4375	64.9183	23.4375	65.2733	23.4375	65.0906
24.9023	66.7335	24.9023	66.554	24.9023	66.9027	24.9023	66.3693	24.9023	67.0561	24.9023	66.1847	24.9023	67.1885	24.9023	66.005	24.9023	67.2948	24.9023	65.8349	24.9023	67.3703	24.9023	65.6785	24.9023	67.4112	24.9023	65.5396	24.9023	67.4147	24.9023	65.4216	24.9023	67.3795	24.9023	65.3273	24.9023	67.3063	24.9023	65.2591	24.9023	67.1976	24.9023	65.219	24.9023	67.0579	24.9023	65.2081	24.9023	66.8929	24.9023	65.2271	24.9023	66.709	24.9023	65.2762	24.9023	66.5134	24.9023	65.3548	24.9023	66.3131	24.9023	65.4615	24.9023	66.115	24.9023	65.5944	24.9023	65.9255	24.9023	65.7504
26.3672	66.9161	26.3672	66.7445	26.3672	67.0805	26.3672	66.5708	26.3672	67.232	26.3672	66.3996	26.3672	67.3645	26.3672	66.2348	26.3672	67.4716	26.3672	66.0797	26.3672	67.5474	26.3672	65.9375	26.3672	67.5869	26.3672	65.8108	26.3672	67.5867	26.3672	65.702	26.3672	67.5455	26.3672	65.6134	26.3672	67.4646	26.3672	65.547	26.3672	67.3476	26.3672	65.5044	26.3672	67.2005	26.3672	65.4871	26.3672	67.0302	26.3672	65.496	26.3672	66.8446	26.3672	65.5318	26.3672	66.6516	26.3672	65.5947	26.3672	66.4582	26.3672	65.6842	26.3672	66.2711	26.3672	65.799	26.3672	66.0959	26.3672	65.9372
27.832	68.632	27.832	68.4743	27.832	68.7808	27.832	68.3124	27.832	68.9156	27.832	68.1507	27.832	69.0309	27.832	67.9933	27.832	69.1214	27.832	67.8435	27.832	69.1819	27.832	67.7046	27.832	69.2083	27.832	67.5795	27.832	69.1978	27.832	67.4707	27.832	69.1496	27.832	67.3805	27.832	69.065	27.832	67.3109	27.832	68.9479	27.832	67.2635	27.832	68.8037	27.832	67.2396	27.832	68.6395	27.832	67.2403	27.832	68.4624	27.832	67.2662	27.832	68.2799	27.832	67.3177	27.832	68.0988	27.832	67.3945	27.832	67.9251	27.832	67.4957	27.832	67.7639	27.832	67.6197
29.2969	69.5423	29.2969	69.3831	29.2969	69.6935	29.2969	69.221	29.2969	69.8309	29.2969	69.0608	29.2969	69.9488	29.2969	68.9067	29.2969	70.0415	29.2969	68.7622	29.2969	70.104	29.2969	68.6305	29.2969	70.132	29.2969	68.514	29.2969	70.1232	29.2969	68.4149	29.2969	70.0769	29.2969	68.335	29.2969	69.9948	29.2969	68.2757	29.2969	69.8809	29.2969	68.2381	29.2969	69.7412	29.2969	68.223	29.2969	69.5826	29.2969	68.231	29.2969	69.4125	29.2969	68.2622	29.2969	69.2382	29.2969	68.3166	29.2969	69.066	29.2969	68.3937	29.2969	68.9014	29.2969	68.4925	29.2969	68.7487	29.2969	68.6115
30.7617	70.4031	30.7617	70.2377	30.7617	70.5625	30.7617	70.0714	30.7617	70.7103	30.7617	69.9088	30.7617	70.8406	30.7617	69.7541	30.7617	70.9479	30.7617	69.6109	30.7617	71.0266	30.7617	69.4822	30.7617	71.0724	30.7617	69.3706	30.7617	71.0823	30.7617	69.2785	30.7617	71.0554	30.7617	69.2075	30.7617	70.9927	30.7617	69.1591	30.7617	70.8975	30.7617	69.1343	30.7617	70.7743	30.7617	69.134	30.7617	70.6292	30.7617	69.1584	30.7617	70.4684	30.7617	69.2077	30.7617	70.2981	30.7617	69.2814	30.7617	70.1243	30.7617	69.3784	30.7617	69.9524	30.7617	69.4969	30.7617	69.7876	30.7617	69.6344
32.2266	70.8265	32.2266	70.6743	32.2266	70.9665	32.2266	70.5152	32.2266	71.0888	32.2266	70.3542	32.2266	71.188	32.2266	70.1959	32.2266	71.2593	32.2266	70.0444	32.2266	71.2985	32.2266	69.9032	32.2266	71.3027	32.2266	69.7753	32.2266	71.2705	32.2266	69.6633	32.2266	71.2024	32.2266	69.5692	32.2266	71.101	32.2266	69.4948	32.2266	70.9708	32.2266	69.4413	32.2266	70.8181	32.2266	69.4098	32.2266	70.6501	32.2266	69.4008	32.2266	70.4745	32.2266	69.4147	32.2266	70.2984	32.2266	69.4517	32.2266	70.1281	32.2266	69.5119	32.2266	69.9689	32.2266	69.5948	32.2266	69.8251	32.2266	69.6997
33.6914	71.7507	33.6914	71.5987	33.6914	71.8921	33.6914	71.441	33.6914	72.0177	33.6914	71.2825	33.6914	72.1223	33.6914	71.1277	33.6914	72.2013	33.6914	70.9806	33.6914	72.2503	33.6914	70.8448	33.6914	72.2662	33.6914	70.7235	33.6914	72.247	33.6914	70.6191	33.6914	72.1929	33.6914	70.5339	33.6914	72.1059	33.6914	70.4694	33.6914	71.9903	33.6914	70.4269	33.6914	71.8516	33.6914	70.4071	33.6914	71.6965	33.6914	70.4104	33.6914	71.5318	33.6914	70.4369	33.6914	71.364	33.6914	70.4864	33.6914	71.1987	33.6914	70.5582	33.6914	71.0411	33.6914	70.6513	33.6914	70.8951	33.6914	70.7643
35.1562	72.4282	35.1562	72.2596	35.1562	72.5865	35.1562	72.0866	35.1562	72.7287	35.1562	71.9143	35.1562	72.8487	35.1562	71.7474	35.1562	72.9409	35.1562	71.5902	35.1562	73.0002	35.1562	71.4463	35.1562	73.023	35.1562	71.3189	35.1562	73.0072	35.1562	71.2105	35.1562	72.953	35.1562	71.1231	35.1562	72.8627	35.1562	71.0584	35.1562	72.7407	35.1562	71.0174	35.1562	72.5931	35.1562	71.0007	35.1562	72.4268	35.1562	71.0087	35.1562	72.2491	35.1562	71.0414	35.1562	72.0669	35.1562	71.0986	35.1562	71.8867	35.1562	71.1796	35.1562	71.7139	35.1562	71.2836	35.1562	71.5533	35.1562	71.4089
36.6211	72.9447	36.6211	72.7781	36.6211	73.1011	36.6211	72.6069	36.6211	73.2412	36.6211	72.4363	36.6211	73.3592	36.6211	72.271	36.6211	73.4495	36.6211	72.1155	36.6211	73.5073	36.6211	71.9733	36.6211	73.529	36.6211	71.8476	36.6211	73.5125	36.6211	71.741	36.6211	73.458	36.6211	71.6556	36.6211	73.3678	36.6211	71.5929	36.6211	73.2465	36.6211	71.5538	36.6211	73.1002	36.6211	71.539	36.6211	72.936	36.6211	71.5485	36.6211	72.7614	36.6211	71.5822	36.6211	72.5832	36.6211	71.6396	36.6211	72.4076	36.6211	71.7198	36.6211	72.2398	36.6211	71.8217	36.6211	72.084	36.6211	71.9438
38.0859	73.6153	38.0859	73.4503	38.0859	73.7696	38.0859	73.2802	38.0859	73.9074	38.0859	73.1103	38.0859	74.0228	38.0859	72.9452	38.0859	74.1105	38.0859	72.7892	38.0859	74.1655	38.0859	72.6461	38.0859	74.1842	38.0859	72.5189	38.0859	74.1649	38.0859	72.4104	38.0859	74.1075	38.0859	72.3226	38.0859	74.0146	38.0859	72.257	38.0859	73.8906	38.0859	72.2147	38.0859	73.7419	38.0859	72.1965	38.0859	73.5755	38.0859	72.2024	38.0859	73.3991	38.0859	72.2324	38.0859	73.2195	38.0859	72.2861	38.0859	73.0432	38.0859	72.363	38.0859	72.8753	38.0859	72.4619	38.0859	72.7204	38.0859	72.5817
39.5508	74.2626	39.5508	74.0946	39.5508	74.4192	39.5508	73.9211	39.5508	74.5584	39.5508	73.7474	39.5508	74.6741	39.5508	73.5785	39.5508	74.7608	39.5508	73.4187	39.5508	74.8135	39.5508	73.2718	39.5508	74.8287	39.5508	73.1411	39.5508	74.8046	39.5508	73.029	39.5508	74.7414	39.5508	72.9378	39.5508	74.6418	39.5508	72.8689	39.5508	74.5106	39.5508	72.8234	39.5508	74.3545	39.5508	72.8019	39.5508	74.181	39.5508	72.8046	39.5508	73.998	39.5508	72.8313	39.5508	73.8131	39.5508	72.8818	39.5508	73.6329	39.5508	72.9555	39.5508	73.4628	39.5508	73.0517	39.5508	73.3073	39.5508	73.1695
41.0156	75.0093	41.0156	74.8417	41.0156	75.1656	41.0156	74.6686	41.0156	75.3047	41.0156	74.4957	41.0156	75.4204	41.0156	74.3277	41.0156	75.5073	41.0156	74.1689	41.0156	75.5604	41.0156	74.0232	41.0156	75.5764	41.0156	73.8937	41.0156	75.5535	41.0156	73.7829	41.0156	75.4919	41.0156	73.6928	41.0156	75.3943	41.0156	73.6248	41.0156	75.2653	41.0156	73.58	41.0156	75.1113	41.0156	73.5587	41.0156	74.9395	41.0156	73.5614	41.0156	74.7578	41.0156	73.588	41.0156	74.5734	41.0156	73.6383	41.0156	74.393	41.0156	73.7121	41.0156	74.2222	41.0156	73.8087	41.0156	74.0658	41.0156	73.9271
42.4805	75.6514	42.4805	75.4856	42.4805	75.8058	42.4805	75.314	42.4805	75.943	42.4805	75.142	42.4805	76.0572	42.4805	74.9745	42.4805	76.1428	42.4805	74.8158	42.4805	76.1953	42.4805	74.6698	42.4805	76.211	42.4805	74.5397	42.4805	76.1884	42.4805	74.4283	42.4805	76.1275	42.4805	74.3377	42.4805	76.0311	42.4805	74.2694	42.4805	75.9037	42.4805	74.2246	42.4805	75.7517	42.4805	74.2038	42.4805	75.5823	42.4805	74.2073	42.4805	75.403	42.4805	74.2351	42.4805	75.221	42.4805	74.2869	42.4805	75.0427	42.4805	74.3621	42.4805	74.8735	42.4805	74.4599	42.4805	74.7178	42.4805	74.5791
43.9453	76.2009	43.9453	76.0386	43.9453	76.3525	43.9453	75.8713	43.9453	76.4876	43.9453	75.7042	43.9453	76.6006	43.9453	75.5423	43.9453	76.6862	43.9453	75.3899	43.9453	76.7398	43.9453	75.2508	43.9453	76.7583	43.9453	75.1283	43.9453	76.74	43.9453	75.0249	43.9453	76.6853	43.9453	74.9428	43.9453	76.5968	43.9453	74.8833	43.9453	76.4793	43.9453	74.8473	43.9453	76.3387	43.9453	74.8353	43.9453	76.1819	43.9453	74.8472	43.9453	76.016	43.9453	74.8826	43.9453	75.8471	43.9453	74.9406	43.9453	75.6808	43.9453	75.0203	43.9453	75.5216	43.9453	75.1202	43.9453	75.3731	43.9453	75.2385
45.4102	76.6286	45.4102	76.4613	45.4102	76.785	45.4102	76.2888	45.4102	76.9243	45.4102	76.1164	45.4102	77.0407	45.4102	75.9491	45.4102	77.1285	45.4102	75.7911	45.4102	77.1826	45.4102	75.6463	45.4102	77.1994	45.4102	75.518	45.4102	77.177	45.4102	75.4089	45.4102	77.1155	45.4102	75.3208	45.4102	77.0176	45.4102	75.2553	45.4102	76.8881	45.4102	75.2133	45.4102	76.7338	45.4102	75.195	45.4102	76.5622	45.4102	75.2005	45.4102	76.3814	45.4102	75.2293	45.4102	76.199	45.4102	75.281	45.4102	76.0215	45.4102	75.3549	45.4102	75.8543	45.4102	75.4503	45.4102	75.7016	45.4102	75.5663
46.875	77.3219	46.875	77.1557	46.875	77.4768	46.875	76.984	46.875	77.6147	46.875	76.812	46.875	77.7295	46.875	76.6444	46.875	77.8156	46.875	76.4855	46.875	77.8682	46.875	76.3391	46.875	77.8835	46.875	76.2084	46.875	77.8597	46.875	76.0959	46.875	77.7971	46.875	76.0037	46.875	77.6981	46.875	75.9334	46.875	77.5672	46.875	75.8857	46.875	77.4108	46.875	75.8614	46.875	77.2362	46.875	75.8607	46.875	77.0511	46.875	75.8837	46.875	76.8633	46.875	75.9303	46.875	76.6798	46.875	76.0007	46.875	76.5069	46.875	76.0945	46.875	76.3494	46.875	76.2112
48.3398	77.8551	48.3398	77.6909	48.3398	78.0079	48.3398	77.5211	48.3398	78.1437	48.3398	77.3509	48.3398	78.2567	48.3398	77.1852	48.3398	78.3413	48.3398	77.0284	48.3398	78.3932	48.3398	76.8844	48.3398	78.4088	48.3398	76.7564	48.3398	78.3867	48.3398	76.6471	48.3398	78.3273	48.3398	76.5584	48.3398	78.2329	48.3398	76.4918	48.3398	78.1082	48.3398	76.4481	48.3398	77.9589	48.3398	76.4277	48.3398	77.7918	48.3398	76.4308	48.3398	77.6143	48.3398	76.4573	48.3398	77.4331	48.3398	76.507	48.3398	77.2551	48.3398	76.5799	48.3398	77.0859	48.3398	76.6755	48.3398	76.9306	48.3398	76.7929
51.2695	78.8007	51.2695	78.6332	51.2695	78.9551	51.2695	78.4586	51.2695	79.0903	51.2695	78.2829	51.2695	79.2008	51.2695	78.1117	51.2695	79.2817	51.2695	77.9504	51.2695	79.329	51.2695	77.8034	51.2695	79.3401	51.2695	77.6747	51.2695	79.3142	51.2695	77.5672	51.2695	79.2525	51.2695	77.4832	51.2695	79.1581	51.2695	77.4238	51.2695	79.036	51.2695	77.3896	51.2695	78.8926	51.2695	77.3806	51.2695	78.7347	51.2695	77.396	51.2695	78.5686	51.2695	77.4348	51.2695	78.4005	51.2695	77.4957	51.2695	78.2353	51.2695	77.5772	51.2695	78.0774	51.2695	77.6779	51.2695	77.9301	51.2695	77.7962
52.7344	79.3434	52.7344	79.1788	52.7344	79.4916	52.7344	79.0036	52.7344	79.618	52.7344	78.8239	52.7344	79.7175	52.7344	78.6456	52.7344	79.7858	52.7344	78.4742	52.7344	79.8196	52.7344	78.315	52.7344	79.8169	52.7344	78.1724	52.7344	79.7772	52.7344	78.05	52.7344	79.702	52.7344	77.9507	52.7344	79.5949	52.7344	77.8765	52.7344	79.4613	52.7344	77.8284	52.7344	79.3077	52.7344	77.8069	52.7344	79.1412	52.7344	77.8114	52.7344	78.9685	52.7344	77.8413	52.7344	78.7955	52.7344	77.8952	52.7344	78.627	52.7344	77.9717	52.7344	78.4671	52.7344	78.0691	52.7344	78.319	52.7344	78.1855
54.1992	79.8095	54.1992	79.6481	54.1992	79.9547	54.1992	79.4764	54.1992	80.0784	54.1992	79.3001	54.1992	80.1755	54.1992	79.1246	54.1992	80.2412	54.1992	78.9554	54.1992	80.2721	54.1992	78.7973	54.1992	80.2656	54.1992	78.6547	54.1992	80.2213	54.1992	78.5311	54.1992	80.1407	54.1992	78.4294	54.1992	80.0275	54.1992	78.3517	54.1992	79.8879	54.1992	78.2993	54.1992	79.7289	54.1992	78.2726	54.1992	79.5584	54.1992	78.2716	54.1992	79.3837	54.1992	78.2957	54.1992	79.2107	54.1992	78.3437	54.1992	79.0444	54.1992	78.4143	54.1992	78.8882	54.1992	78.5059	54.1992	78.7449	54.1992	78.6168
55.6641	80.235	55.6641	80.0691	55.6641	80.3858	55.6641	79.8939	55.6641	80.5155	55.6641	79.7148	55.6641	80.6183	55.6641	79.5369	55.6641	80.6886	55.6641	79.365	55.6641	80.7216	55.6641	79.2037	55.6641	80.7143	55.6641	79.057	55.6641	80.6656	55.6641	78.9286	55.6641	80.5771	55.6641	78.8215	55.6641	80.453	55.6641	78.738	55.6641	80.3001	55.6641	78.6797	55.6641	80.1269	55.6641	78.6476	55.6641	79.9424	55.6641	78.6417	55.6641	79.7555	55.6641	78.6617	55.6641	79.5732	55.6641	78.7062	55.6641	79.4008	55.6641	78.7739	55.6641	79.2418	55.6641	78.8628	55.6641	79.0982	55.6641	78.9715
58.5938	81.0681	58.5938	80.8975	58.5938	81.2249	58.5938	80.7192	58.5938	81.3618	58.5938	80.539	58.5938	81.4728	58.5938	80.3623	58.5938	81.5525	58.5938	80.1937	58.5938	81.5961	58.5938	80.0377	58.5938	81.6005	58.5938	79.8976	58.5938	81.5642	58.5938	79.7764	58.5938	81.488	58.5938	79.6763	58.5938	81.3751	58.5938	79.5988	58.5938	81.2308	58.5938	79.545	58.5938	81.0621	58.5938	79.5155	58.5938	80.8772	58.5938	79.5104	58.5938	80.6844	58.5938	79.5296	58.5938	80.4918	58.5938	79.573	58.5938	80.3065	58.5938	79.6402	58.5938	80.1342	58.5938	79.7308	58.5938	79.9791	58.5938	79.8441
60.0586	81.4246	60.0586	81.2581	60.0586	81.5793	60.0586	81.0859	60.0586	81.716	60.0586	80.9136	60.0586	81.8288	60.0586	80.7467	60.0586	81.9121	60.0586	80.5901	60.0586	81.9615	60.0586	80.4478	60.0586	81.9738	60.0586	80.3233	60.0586	81.9479	60.0586	80.2193	60.0586	81.8849	60.0586	80.1376	60.0586	81.7879	60.0586	80.0791	60.0586	81.6622	60.0586	80.0443	60.0586	81.5145	60.0586	80.0331	60.0586	81.3519	60.0586	80.0447	60.0586	81.1818	60.0586	80.0784	60.0586	81.0107	60.0586	80.1332	60.0586	80.8444	60.0586	80.2081	60.0586	80.6875	60.0586	80.3021	60.0586	80.5433	60.0586	80.4143
62.9883	82.2442	62.9883	82.0685	62.9883	82.4058	62.9883	81.8854	62.9883	82.5468	62.9883	81.7015	62.9883	82.661	62.9883	81.5228	62.9883	82.7429	62.9883	81.355	62.9883	82.7885	62.9883	81.2029	62.9883	82.7951	62.9883	81.0706	62.9883	82.7622	62.9883	80.9611	62.9883	82.6916	62.9883	80.8764	62.9883	82.5872	62.9883	80.8178	62.9883	82.4549	62.9883	80.7852	62.9883	82.3015	62.9883	80.7781	62.9883	82.1348	62.9883	80.7954	62.9883	81.962	62.9883	80.8354	62.9883	81.7895	62.9883	80.8964	62.9883	81.6227	62.9883	80.9769	62.9883	81.4655	62.9883	81.0752	62.9883	81.3207	62.9883	81.1902
64.4531	82.5647	64.4531	82.3896	64.4531	82.7246	64.4531	82.2059	64.4531	82.8627	64.4531	82.0204	64.4531	82.9732	64.4531	81.8393	64.4531	83.0509	64.4531	81.6686	64.4531	83.0921	64.4531	81.5133	64.4531	83.0946	64.4531	81.3777	64.4531	83.0584	64.4531	81.2652	64.4531	82.9855	64.4531	81.1779	64.4531	82.88	64.4531	81.117	64.4531	82.7477	64.4531	81.0828	64.4531	82.5955	64.4531	81.0747	64.4531	82.4307	64.4531	81.0917	64.4531	82.2602	64.4531	81.132	64.4531	82.0898	64.4531	81.1939	64.4531	81.9246	64.4531	81.2756	64.4531	81.7682	64.4531	81.3754	64.4531	81.6232	64.4531	81.4918
67.3828	83.1962	67.3828	83.02	67.3828	83.3578	67.3828	82.8359	67.3828	83.4983	67.3828	82.6506	67.3828	83.6118	67.3828	82.4705	67.3828	83.6932	67.3828	82.3018	67.3828	83.7388	67.3828	82.1495	67.3828	83.7464	67.3828	82.0179	67.3828	83.7157	67.3828	81.9103	67.3828	83.6486	67.3828	81.8288	67.3828	83.549	67.3828	81.7742	67.3828	83.4225	67.3828	81.7468	67.3828	83.2758	67.3828	81.7454	67.3828	83.116	67.3828	81.7688	67.3828	82.9496	67.3828	81.815	67.3828	82.7826	67.3828	81.8819	67.3828	82.6198	67.3828	81.9676	67.3828	82.4649	67.3828	82.0703	67.3828	82.3204	67.3828	82.1884
68.8477	83.5074	68.8477	83.33	68.8477	83.6703	68.8477	83.1451	68.8477	83.8124	68.8477	82.9593	68.8477	83.9276	68.8477	82.7795	68.8477	84.0111	68.8477	82.6116	68.8477	84.0591	68.8477	82.4611	68.8477	84.0696	68.8477	82.3322	68.8477	84.0424	68.8477	82.2283	68.8477	83.9795	68.8477	82.1514	68.8477	83.8849	68.8477	82.1023	68.8477	83.764	68.8477	82.0809	68.8477	83.6234	68.8477	82.0859	68.8477	83.4696	68.8477	82.1158	68.8477	83.309	68.8477	82.1682	68.8477	83.1469	68.8477	82.2408	68.8477	82.9878	68.8477	82.3314	68.8477	82.8351	68.8477	82.4379	68.8477	82.6914	68.8477	82.5584
71.7773	84.1689	71.7773	83.9878	71.7773	84.3334	71.7773	83.7974	71.7773	84.4747	71.7773	83.6049	71.7773	84.5867	71.7773	83.4174	71.7773	84.6645	71.7773	83.2415	71.7773	84.7048	71.7773	83.0832	71.7773	84.706	71.7773	82.9472	71.7773	84.6685	71.7773	82.8374	71.7773	84.5952	71.7773	82.7559	71.7773	84.4908	71.7773	82.7038	71.7773	84.3617	71.7773	82.6808	71.7773	84.2149	71.7773	82.6857	71.7773	84.0573	71.7773	82.7162	71.7773	83.8953	71.7773	82.7698	71.7773	83.7341	71.7773	82.8433	71.7773	83.5776	71.7773	82.9342	71.7773	83.4283	71.7773	83.0398	71.7773	83.2881	71.7773	83.1583
74.707	84.7589	74.707	84.5778	74.707	84.9227	74.707	84.3866	74.707	85.0624	74.707	84.1926	74.707	85.172	74.707	84.0031	74.707	85.2466	74.707	83.8246	74.707	85.2829	74.707	83.663	74.707	85.2794	74.707	83.5232	74.707	85.2368	74.707	83.4088	74.707	85.1579	74.707	83.3221	74.707	85.0477	74.707	83.2642	74.707	84.9125	74.707	83.2348	74.707	84.7595	74.707	83.2329	74.707	84.5959	74.707	83.2566	74.707	84.4282	74.707	83.3035	74.707	84.2617	74.707	83.3711	74.707	84.1007	74.707	83.457	74.707	83.9481	74.707	83.5592	74.707	83.8061	74.707	83.676
77.6367	85.2495	77.6367	85.0682	77.6367	85.4131	77.6367	84.8764	77.6367	85.5521	77.6367	84.6816	77.6367	85.6609	77.6367	84.4912	77.6367	85.7347	77.6367	84.3121	77.6367	85.7705	77.6367	84.1505	77.6367	85.7671	77.6367	84.0113	77.6367	85.7253	77.6367	83.8984	77.6367	85.6483	77.6367	83.814	77.6367	85.541	77.6367	83.759	77.6367	85.4099	77.6367	83.7332	77.6367	85.2619	77.6367	83.7351	77.6367	85.1036	77.6367	83.7628	77.6367	84.9412	77.6367	83.8137	77.6367	84.7793	77.6367	83.8851	77.6367	84.6217	77.6367	83.9745	77.6367	84.471	77.6367	84.0796	77.6367	84.3294	77.6367	84.1984
79.1016	85.4439	79.1016	85.2604	79.1016	85.609	79.1016	85.0659	79.1016	85.7489	79.1016	84.8681	79.1016	85.8578	79.1016	84.6746	79.1016	85.9311	79.1016	84.4925	79.1016	85.9656	79.1016	84.3283	79.1016	85.9605	79.1016	84.1872	79.1016	85.9167	79.1016	84.0733	79.1016	85.8377	79.1016	83.9889	79.1016	85.7287	79.1016	83.935	79.1016	85.5966	79.1016	83.9111	79.1016	85.4482	79.1016	83.9157	79.1016	85.2905	79.1016	83.9464	79.1016	85.1293	79.1016	84.0004	79.1016	84.969	79.1016	84.0747	79.1016	84.8131	79.1016	84.1664	79.1016	84.664	79.1016	84.2731	79.1016	84.5234	79.1016	84.3927
82.0312	85.8183	82.0312	85.6361	82.0312	85.9808	82.0312	85.4417	82.0312	86.1169	82.0312	85.2431	82.0312	86.221	82.0312	85.0482	82.0312	86.2889	82.0312	84.8647	82.0312	86.3183	82.0312	84.6995	82.0312	86.3087	82.0312	84.5584	82.0312	86.2619	82.0312	84.4457	82.0312	86.1817	82.0312	84.3639	82.0312	86.0738	82.0312	84.3141	82.0312	85.9448	82.0312	84.2955	82.0312	85.8015	82.0312	84.3061	82.0312	85.6502	82.0312	84.3426	82.0312	85.4963	82.0312	84.4016	82.0312	85.3438	82.0312	84.4794	82.0312	85.1958	82.0312	84.5725	82.0312	85.0542	82.0312	84.6782	82.0312	84.9201	82.0312	84.7945
84.9609	86.1381	84.9609	85.9612	84.9609	86.2955	84.9609	85.7719	84.9609	86.4272	84.9609	85.578	84.9609	86.5281	84.9609	85.3873	84.9609	86.5944	84.9609	85.2076	84.9609	86.6241	84.9609	85.0462	84.9609	86.6169	84.9609	84.909	84.9609	86.5749	84.9609	84.8008	84.9609	86.5021	84.9609	84.7244	84.9609	86.4044	84.9609	84.6811	84.9609	86.2886	84.9609	84.6702	84.9609	86.1612	84.9609	84.6897	84.9609	86.0278	84.9609	84.7361	84.9609	85.8922	84.9609	84.8056	84.9609	85.7564	84.9609	84.8937	84.9609	85.6218	84.9609	84.9964	84.9609	85.4888	84.9609	85.1101	84.9609	85.3583	84.9609	85.2315
87.8906	86.6755	87.8906	86.4878	87.8906	86.8429	87.8906	86.2873	87.8906	86.9829	87.8906	86.0821	87.8906	87.0893	87.8906	85.8798	87.8906	87.1571	87.8906	85.6882	87.8906	87.1831	87.8906	85.5142	87.8906	87.1662	87.8906	85.3639	87.8906	87.1082	87.8906	85.2421	87.8906	87.0135	87.8906	85.1519	87.8906	86.8892	87.8906	85.0949	87.8906	86.7438	87.8906	85.0709	87.8906	86.5861	87.8906	85.0779	87.8906	86.4243	87.8906	85.113	87.8906	86.2645	87.8906	85.1723	87.8906	86.1105	87.8906	85.2515	87.8906	85.9642	87.8906	85.3465	87.8906	85.8256	87.8906	85.4536	87.8906	85.6943	87.8906	85.5701
90.8203	87.0078	90.8203	86.8216	90.8203	87.1677	90.8203	86.6172	90.8203	87.2946	90.8203	86.4029	90.8203	87.3829	90.8203	86.1872	90.8203	87.4288	90.8203	85.9783	90.8203	87.4307	90.8203	85.7839	90.8203	87.3893	90.8203	85.6105	90.8203	87.3078	90.8203	85.4633	90.8203	87.1918	90.8203	85.3463	90.8203	87.0486	90.8203	85.2617	90.8203	86.8865	90.8203	85.2103	90.8203	86.7137	90.8203	85.1915	90.8203	86.5372	90.8203	85.2032	90.8203	86.3626	90.8203	85.2428	90.8203	86.1938	90.8203	85.3068	90.8203	86.0331	90.8203	85.3916	90.8203	85.8818	90.8203	85.494	90.8203	85.7408	90.8203	85.6111
95.2148	87.0189	95.2148	86.8249	95.2148	87.1924	95.2148	86.6192	95.2148	87.3375	95.2148	86.4109	95.2148	87.4477	95.2148	86.2092	95.2148	87.5183	95.2148	86.0226	95.2148	87.5463	95.2148	85.8582	95.2148	87.5314	95.2148	85.7217	95.2148	87.476	95.2148	85.6167	95.2148	87.3845	95.2148	85.5448	95.2148	87.264	95.2148	85.5056	95.2148	87.1226	95.2148	85.4968	95.2148	86.9686	95.2148	85.5151	95.2148	86.8099	95.2148	85.5566	95.2148	86.6527	95.2148	85.6171	95.2148	86.5014	95.2148	85.6929	95.2148	86.3585	95.2148	85.7809	95.2148	86.2251	95.2148	85.8789	95.2148	86.101	95.2148	85.9857
98.1445	87.1994	98.1445	87.0068	98.1445	87.3709	98.1445	86.8012	98.1445	87.5143	98.1445	86.5915	98.1445	87.6235	98.1445	86.3865	98.1445	87.6942	98.1445	86.1949	98.1445	87.724	98.1445	86.0245	98.1445	87.7126	98.1445	85.8817	98.1445	87.6621	98.1445	85.771	98.1445	87.5769	98.1445	85.6949	98.1445	87.4633	98.1445	85.6535	98.1445	87.3285	98.1445	85.6451	98.1445	87.1802	98.1445	85.6665	98.1445	87.0253	98.1445	85.7133	98.1445	86.8696	98.1445	85.7808	98.1445	86.7173	98.1445	85.8646	98.1445	86.5714	98.1445	85.9609	98.1445	86.4333	98.1445	86.067	98.1445	86.3034	98.1445	86.1813
101.074	87.2218	101.074	87.0276	101.074	87.3956	101.074	86.822	101.074	87.5412	101.074	86.6145	101.074	87.6522	101.074	86.415	101.074	87.7248	101.074	86.2327	101.074	87.7573	101.074	86.0757	101.074	87.7509	101.074	85.9502	101.074	87.7096	101.074	85.8606	101.074	87.6395	101.074	85.8084	101.074	87.5479	101.074	85.793	101.074	87.4419	101.074	85.8114	101.074	87.3273	101.074	85.8594	101.074	87.2081	101.074	85.9314	101.074	87.0868	101.074	86.0219	101.074	86.9645	101.074	86.1255	101.074	86.8419	101.074	86.2377	101.074	86.7193	101.074	86.3551	101.074	86.597	101.074	86.4753
105.469	87.578	105.469	87.3787	105.469	87.7453	105.469	87.1569	105.469	87.8724	105.469	86.9234	105.469	87.9534	105.469	86.6897	105.469	87.9849	105.469	86.4671	105.469	87.9663	105.469	86.2663	105.469	87.9007	105.469	86.0967	105.469	87.7948	105.469	85.9651	105.469	87.6587	105.469	85.8756	105.469	87.5049	105.469	85.8291	105.469	87.3463	105.469	85.8234	105.469	87.1938	105.469	85.854	105.469	87.0544	105.469	85.9143	105.469	86.9304	105.469	85.9969	105.469	86.8196	105.469	86.0945	105.469	86.7176	105.469	86.2003	105.469	86.6188	105.469	86.3087	105.469	86.5189	105.469	86.4156
108.398	87.7521	108.398	87.559	108.398	87.9133	108.398	87.3429	108.398	88.0351	108.398	87.1139	108.398	88.1117	108.398	86.8822	108.398	88.1394	108.398	86.6582	108.398	88.117	108.398	86.4518	108.398	88.0464	108.398	86.2716	108.398	87.9326	108.398	86.1246	108.398	87.7842	108.398	86.0155	108.398	87.6123	108.398	85.9465	108.398	87.4295	108.398	85.9171	108.398	87.2482	108.398	85.9241	108.398	87.0786	108.398	85.9624	108.398	86.9269	108.398	86.0253	108.398	86.7948	108.398	86.1053	108.398	86.6798	108.398	86.1954	108.398	86.5767	108.398	86.2899	108.398	86.48	108.398	86.385
112.793	87.7837	112.793	87.582	112.793	87.9555	112.793	87.3598	112.793	88.0896	112.793	87.1273	112.793	88.1798	112.793	86.8953	112.793	88.2222	112.793	86.6746	112.793	88.2152	112.793	86.475	112.793	88.1605	112.793	86.305	112.793	88.0629	112.793	86.1706	112.793	87.9305	112.793	86.0757	112.793	87.7736	112.793	86.021	112.793	87.6038	112.793	86.0046	112.793	87.4319	112.793	86.0227	112.793	87.2668	112.793	86.0695	112.793	87.114	112.793	86.1387	112.793	86.9756	112.793	86.2237	112.793	86.8505	112.793	86.3187	112.793	86.7356	112.793	86.4191	112.793	86.6272	112.793	86.5221
117.188	87.7999	117.188	87.5893	117.188	87.9789	117.188	87.357	117.188	88.1174	117.188	87.1139	117.188	88.2084	117.188	86.8713	117.188	88.2475	117.188	86.64	117.188	88.2327	117.188	86.4299	117.188	88.1659	117.188	86.2496	117.188	88.0519	117.188	86.1053	117.188	87.8995	117.188	86.0008	117.188	87.7196	117.188	85.9371	117.188	87.525	117.188	85.9125	117.188	87.3286	117.188	85.923	117.188	87.1412	117.188	85.963	117.188	86.971	117.188	86.0257	117.188	86.8214	117.188	86.1042	117.188	86.692	117.188	86.192	117.188	86.5787	117.188	86.2845	117.188	86.4761	117.188	86.3791
120.117	87.9134	120.117	87.7087	120.117	88.0837	120.117	87.4794	120.117	88.2116	120.117	87.2362	120.117	88.291	120.117	86.9904	120.117	88.3185	120.117	86.753	120.117	88.2934	120.117	86.5343	120.117	88.2182	120.117	86.3427	120.117	88.0981	120.117	86.1849	120.117	87.941	120.117	86.0651	120.117	87.7568	120.117	85.9846	120.117	87.5565	120.117	85.9427	120.117	87.3515	120.117	85.9359	120.117	87.152	120.117	85.9593	120.117	86.9665	120.117	86.0066	120.117	86.8006	120.117	86.0715	120.117	86.656	120.117	86.1483	120.117	86.5312	120.117	86.2329	120.117	86.422	120.117	86.3238
124.512	87.7372	124.512	87.5273	124.512	87.9173	124.512	87.2979	124.512	88.0594	124.512	87.0604	124.512	88.1576	124.512	86.8269	124.512	88.2086	124.512	86.6086	124.512	88.2117	124.512	86.4154	124.512	88.1689	124.512	86.2545	124.512	88.0847	124.512	86.1304	124.512	87.9659	124.512	86.0446	124.512	87.8203	124.512	85.9957	124.512	87.6563	124.512	85.9809	124.512	87.482	124.512	85.9956	124.512	87.3048	124.512	86.0349	124.512	87.1315	124.512	86.0935	124.512	86.9674	124.512	86.167	124.512	86.8163	124.512	86.2514	124.512	86.6797	124.512	86.3446	124.512	86.557	124.512	86.4461
128.906	87.575	128.906	87.3536	128.906	87.7696	128.906	87.1171	128.906	87.9277	128.906	86.8783	128.906	88.042	128.906	86.6503	128.906	88.1077	128.906	86.4455	128.906	88.124	128.906	86.2744	128.906	88.0932	128.906	86.1442	128.906	88.0217	128.906	86.0585	128.906	87.9185	128.906	86.0165	128.906	87.7939	128.906	86.0144	128.906	87.6578	128.906	86.0455	128.906	87.5179	128.906	86.1024	128.906	87.3793	128.906	86.1775	128.906	87.2447	128.906	86.2642	128.906	87.1153	128.906	86.3576	128.906	86.9917	128.906	86.4547	128.906	86.8743	128.906	86.5542	128.906	86.7628	128.906	86.6566
133.301	87.5625	133.301	87.3231	133.301	87.7682	133.301	87.0633	133.301	87.9295	133.301	86.7977	133.301	88.0384	133.301	86.5412	133.301	88.0909	133.301	86.308	133.301	88.0872	133.301	86.1103	133.301	88.0316	133.301	85.9572	133.301	87.9327	133.301	85.8532	133.301	87.8019	133.301	85.7989	133.301	87.6519	133.301	85.7905	133.301	87.4951	133.301	85.8213	133.301	87.3414	133.301	85.883	133.301	87.1969	133.301	85.967	133.301	87.0641	133.301	86.0653	133.301	86.9421	133.301	86.1717	133.301	86.8279	133.301	86.2815	133.301	86.7182	133.301	86.3919	133.301	86.61	133.301	86.5015
139.16	87.4953	139.16	87.2552	139.16	87.6934	139.16	86.9859	139.16	87.8403	139.16	86.7029	139.16	87.9308	139.16	86.4232	139.16	87.9644	139.16	86.1639	139.16	87.9445	139.16	85.9401	139.16	87.8785	139.16	85.7637	139.16	87.777	139.16	85.6417	139.16	87.6519	139.16	85.576	139.16	87.515	139.16	85.5641	139.16	87.3764	139.16	85.5998	139.16	87.2429	139.16	85.6749	139.16	87.1182	139.16	85.7799	139.16	87.0028	139.16	85.9054	139.16	86.8946	139.16	86.0426	139.16	86.7898	139.16	86.1833	139.16	86.6838	139.16	86.321	139.16	86.572	139.16	86.4512
143.555	87.1043	143.555	86.8536	143.555	87.3092	143.555	86.5694	143.555	87.4602	143.555	86.2679	143.555	87.5539	143.555	85.9686	143.555	87.5914	143.555	85.6921	143.555	87.5778	143.555	85.4581	143.555	87.5218	143.555	85.283	143.555	87.4352	143.555	85.1765	143.555	87.3311	143.555	85.1412	143.555	87.2217	143.555	85.1724	143.555	87.1166	143.555	85.2596	143.555	87.0209	143.555	85.3895	143.555	86.9352	143.555	85.5478	143.555	86.8562	143.555	85.7213	143.555	86.779	143.555	85.8986	143.555	86.6973	143.555	86.0706	143.555	86.6054	143.555	86.2304	143.555	86.4985	143.555	86.3737
147.949	87.0515	147.949	86.8092	147.949	87.244	147.949	86.5284	147.949	87.3791	147.949	86.2235	147.949	87.453	147.949	85.9122	147.949	87.4663	147.949	85.6137	147.949	87.424	147.949	85.3475	147.949	87.3356	147.949	85.1315	147.949	87.2145	147.949	84.9789	147.949	87.0769	147.949	84.8973	147.949	86.9383	147.949	84.8867	147.949	86.811	147.949	84.9408	147.949	86.7015	147.949	85.0483	147.949	86.6097	147.949	85.1951	147.949	86.5307	147.949	85.3663	147.949	86.4563	147.949	85.548	147.949	86.3777	147.949	85.7281	147.949	86.2869	147.949	85.8969	147.949	86.1781	147.949	86.0481
153.809	87.052	153.809	86.8145	153.809	87.2349	153.809	86.534	153.809	87.3552	153.809	86.2252	153.809	87.4088	153.809	85.9053	153.809	87.3959	153.809	85.5938	153.809	87.3218	153.809	85.3105	153.809	87.1969	153.809	85.0742	153.809	87.0365	153.809	84.9001	153.809	86.8595	153.809	84.7974	153.809	86.685	153.809	84.7677	153.809	86.5296	153.809	84.8056	153.809	86.4028	153.809	84.8997	153.809	86.3059	153.809	85.0353	153.809	86.233	153.809	85.1966	153.809	86.1728	153.809	85.3689	153.809	86.1128	153.809	85.5392	153.809	86.0414	153.809	85.6973	153.809	85.9505	153.809	85.8357
159.668	86.9837	159.668	86.7573	159.668	87.157	159.668	86.4892	159.668	87.2692	159.668	86.1934	159.668	87.316	159.668	85.8862	159.668	87.2978	159.668	85.5852	159.668	87.2195	159.668	85.3083	159.668	87.0917	159.668	85.0725	159.668	86.9296	159.668	84.8922	159.668	86.7521	159.668	84.7773	159.668	86.5789	159.668	84.7321	159.668	86.4267	159.668	84.7543	159.668	86.3054	159.668	84.8356	159.668	86.2164	159.668	84.9635	159.668	86.1528	159.668	85.1227	159.668	86.1024	159.668	85.2974	159.668	86.0509	159.668	85.473	159.668	85.9853	159.668	85.637	159.668	85.8964	159.668	85.78
165.527	86.9662	165.527	86.7662	165.527	87.1169	165.527	86.5294	165.527	87.209	165.527	86.27	165.527	87.2368	165.527	86.0036	165.527	87.1997	165.527	85.746	165.527	87.1028	165.527	85.5126	165.527	86.9579	165.527	85.317	165.527	86.7832	165.527	85.1704	165.527	86.6012	165.527	85.0806	165.527	86.4351	165.527	85.0506	165.527	86.3034	165.527	85.079	165.527	86.2157	165.527	85.1595	165.527	86.1712	165.527	85.2817	165.527	86.1593	165.527	85.4319	165.527	86.1636	165.527	85.5952	165.527	86.1655	165.527	85.7562	165.527	86.1486	165.527	85.901	165.527	86.1013	165.527	86.0183
171.387	86.7514	171.387	86.5724	171.387	86.8767	171.387	86.356	171.387	86.9349	171.387	86.1195	171.387	86.9167	171.387	85.8797	171.387	86.8189	171.387	85.6522	171.387	86.6458	171.387	85.4499	171.387	86.4108	171.387	85.2834	171.387	86.1369	171.387	85.1602	171.387	85.8554	171.387	85.0855	171.387	85.6021	171.387	85.0611	171.387	85.4102	171.387	85.0856	171.387	85.3024	171.387	85.1533	171.387	85.284	171.387	85.2546	171.387	85.3411	171.387	85.3759	171.387	85.4456	171.387	85.5012	171.387	85.5636	171.387	85.6133	171.387	85.664	171.387	85.6959	171.387	85.725	171.387	85.7358
177.246	86.4472	177.246	86.1416	177.246	86.6954	177.246	85.8042	177.246	86.8669	177.246	85.4654	177.246	86.9491	177.246	85.1572	177.246	86.9369	177.246	84.9087	177.246	86.8333	177.246	84.7409	177.246	86.6498	177.246	84.6622	177.246	86.4072	177.246	84.6686	177.246	86.1351	177.246	84.7457	177.246	85.8681	177.246	84.8744	177.246	85.6406	177.246	85.0347	177.246	85.4788	177.246	85.2083	177.246	85.3956	177.246	85.3796	177.246	85.3895	177.246	85.5352	177.246	85.4459	177.246	85.663	177.246	85.541	177.246	85.7528	177.246	85.6466	177.246	85.7964	177.246	85.7363	177.246	85.79
183.105	86.7916	183.105	86.4488	183.105	87.0605	183.105	86.0522	183.105	87.2408	183.105	85.6283	183.105	87.3233	183.105	85.2084	183.105	87.3044	183.105	84.8277	183.105	87.1859	183.105	84.5204	183.105	86.9768	183.105	84.314	183.105	86.6943	183.105	84.2225	183.105	86.3657	183.105	84.2439	183.105	86.027	183.105	84.3604	183.105	85.7199	183.105	84.545	183.105	85.4833	183.105	84.7675	183.105	85.3429	183.105	84.9995	183.105	85.3024	183.105	85.2171	183.105	85.3434	183.105	85.4016	183.105	85.4322	183.105	85.5392	183.105	85.5317	183.105	85.621	183.105	85.6095	183.105	85.6433
188.965	86.7554	188.965	86.4248	188.965	87.0068	188.965	86.0332	188.965	87.1664	188.965	85.6046	188.965	87.2272	188.965	85.1681	188.965	87.1882	188.965	84.7567	188.965	87.0545	188.965	84.4044	188.965	86.8382	188.965	84.1403	188.965	86.5583	188.965	83.9834	188.965	86.2406	188.965	83.9384	188.965	85.9156	188.965	83.9949	188.965	85.6155	188.965	84.1316	188.965	85.3694	188.965	84.3212	188.965	85.1981	188.965	84.5357	188.965	85.1093	188.965	84.7495	188.965	85.0945	188.965	84.9407	188.965	85.1306	188.965	85.0921	188.965	85.1862	188.965	85.1924	188.965	85.2299	188.965	85.2369
196.289	86.8608	196.289	86.5311	196.289	87.1055	196.289	86.1337	196.289	87.2531	196.289	85.6917	196.289	87.2973	196.289	85.2338	196.289	87.2372	196.289	84.7934	196.289	87.0785	196.289	84.4062	196.289	86.8336	196.289	84.1056	196.289	86.5228	196.289	83.9158	196.289	86.1737	196.289	83.8465	196.289	85.8201	196.289	83.8903	196.289	85.4988	196.289	84.0258	196.289	85.2435	196.289	84.2233	196.289	85.0777	196.289	84.4517	196.289	85.0077	196.289	84.6819	196.289	85.0193	196.289	84.8899	196.289	85.0819	196.289	85.0567	196.289	85.1577	196.289	85.1689	196.289	85.212	196.289	85.22
203.613	86.8214	203.613	86.4977	203.613	87.0534	203.613	86.0979	203.613	87.1829	203.613	85.6429	203.613	87.2044	203.613	85.1591	203.613	87.1177	203.613	84.6783	203.613	86.9283	203.613	84.2371	203.613	86.6481	203.613	83.8734	203.613	86.2964	203.613	83.6202	203.613	85.9004	203.613	83.498	203.613	85.495	203.613	83.5078	203.613	85.1204	203.613	83.6311	203.613	84.8163	203.613	83.8351	203.613	84.614	203.613	84.0812	203.613	84.5262	203.613	84.3321	203.613	84.5414	203.613	84.556	203.613	84.6261	203.613	84.7286	203.613	84.7354	203.613	84.8337	203.613	84.8257	203.613	84.8646
210.938	86.6687	210.938	86.3493	210.938	86.901	210.938	85.959	210.938	87.0354	210.938	85.5186	210.938	87.0659	210.938	85.053	210.938	86.9922	210.938	84.5907	210.938	86.8196	210.938	84.1616	210.938	86.5596	210.938	83.7949	210.938	86.2306	210.938	83.5163	210.938	85.8572	210.938	83.3436	210.938	85.4689	210.938	83.2834	210.938	85.0972	210.938	83.3291	210.938	84.7731	210.938	83.4607	210.938	84.5224	210.938	83.649	210.938	84.3615	210.938	83.8602	210.938	84.2909	210.938	84.0616	210.938	84.2925	210.938	84.2259	210.938	84.3331	210.938	84.3349	210.938	84.3741	210.938	84.3819
218.262	86.3829	218.262	86.0534	218.262	86.6278	218.262	85.6588	218.262	86.7742	218.262	85.2235	218.262	86.8144	218.262	84.7762	218.262	86.7471	218.262	84.3484	218.262	86.5781	218.262	83.9712	218.262	86.3217	218.262	83.6722	218.262	85.9998	218.262	83.4708	218.262	85.6426	218.262	83.3758	218.262	85.2848	218.262	83.3838	218.262	84.9617	218.262	83.4803	218.262	84.7032	218.262	83.643	218.262	84.5284	218.262	83.8448	218.262	84.4416	218.262	84.0579	218.262	84.4313	218.262	84.2563	218.262	84.4721	218.262	84.4183	218.262	84.5311	218.262	84.5283	218.262	84.5755	218.262	84.5796
225.586	86.3944	225.586	86.0287	225.586	86.6592	225.586	85.5831	225.586	86.8091	225.586	85.0866	225.586	86.8374	225.586	84.5752	225.586	86.7444	225.586	84.09	225.586	86.5382	225.586	83.6732	225.586	86.2357	225.586	83.3607	225.586	85.8633	225.586	83.1757	225.586	85.457	225.586	83.1244	225.586	85.0612	225.586	83.1963	225.586	84.7227	225.586	83.3682	225.586	84.4825	225.586	83.6101	225.586	84.3642	225.586	83.8892	225.586	84.3653	225.586	84.1733	225.586	84.4571	225.586	84.4326	225.586	84.5941	225.586	84.6417	225.586	84.7279	225.586	84.7814	225.586	84.8189	225.586	84.8407
232.91	86.5934	232.91	86.227	232.91	86.8474	232.91	85.7665	232.91	86.9772	232.91	85.2385	232.91	86.9776	232.91	84.6778	232.91	86.8494	232.91	84.127	232.91	86.5995	232.91	83.6329	232.91	86.242	232.91	83.2402	232.91	85.7993	232.91	82.9826	232.91	85.3036	232.91	82.8744	232.91	84.7986	232.91	82.9088	232.91	84.3389	232.91	83.0618	232.91	83.9842	232.91	83.2989	232.91	83.784	232.91	83.582	232.91	83.7557	232.91	83.8733	232.91	83.8711	232.91	84.1379	232.91	84.0675	232.91	84.3451	232.91	84.2728	232.91	84.4707	232.91	84.4288	232.91	84.4995
241.699	86.3603	241.699	85.9844	241.699	86.6287	241.699	85.5195	241.699	86.7771	241.699	84.9903	241.699	86.799	241.699	84.4287	241.699	86.6932	241.699	83.8732	241.699	86.4648	241.699	83.3678	241.699	86.1249	241.699	82.9572	241.699	85.6917	241.699	82.6793	241.699	85.1908	241.699	82.5553	241.699	84.656	241.699	82.5837	241.699	84.1318	241.699	82.7405	241.699	83.6741	241.699	82.9859	241.699	83.3464	241.699	83.2744	241.699	83.1993	241.699	83.5615	241.699	83.2407	241.699	83.808	241.699	83.4232	241.699	83.9814	241.699	83.6643	241.699	84.0575	241.699	83.8832	241.699	84.0234
250.488	86.307	250.488	85.8505	250.488	86.6414	250.488	85.2946	250.488	86.8397	250.488	84.6719	250.488	86.8949	250.488	84.0261	250.488	86.8061	250.488	83.4102	250.488	86.5794	250.488	82.8797	250.488	86.228	250.488	82.4818	250.488	85.7742	250.488	82.2433	250.488	85.2488	250.488	82.1652	250.488	84.6916	250.488	82.2263	250.488	84.1494	250.488	82.3927	250.488	83.674	250.488	82.6265	250.488	83.3149	250.488	82.8901	250.488	83.1073	250.488	83.1476	250.488	83.0567	250.488	83.3655	250.488	83.1332	250.488	83.5152	250.488	83.2808	250.488	83.5774	250.488	83.4363	250.488	83.5466
259.277	86.604	259.277	86.1858	259.277	86.8982	259.277	85.6599	259.277	87.0589	259.277	85.0516	259.277	87.0833	259.277	84.3972	259.277	86.9748	259.277	83.746	259.277	86.7432	259.277	83.1578	259.277	86.4038	259.277	82.6943	259.277	85.9759	259.277	82.4019	259.277	85.4808	259.277	82.2956	259.277	84.9417	259.277	82.3539	259.277	84.3876	259.277	82.5309	259.277	83.8611	259.277	82.7746	259.277	83.425	259.277	83.0395	259.277	83.1489	259.277	83.2901	259.277	83.0716	259.277	83.4986	259.277	83.166	259.277	83.6417	259.277	83.3513	259.277	83.7008	259.277	83.5387	259.277	83.665
268.066	86.2937	268.066	85.8502	268.066	86.6116	268.066	85.2979	268.066	86.7937	268.066	84.6615	268.066	86.8369	268.066	83.9755	268.066	86.745	268.066	83.2871	268.066	86.5282	268.066	82.6583	268.066	86.2024	268.066	82.161	268.066	85.7879	268.066	81.8601	268.066	85.308	268.066	81.7875	268.066	84.7878	268.066	81.9247	268.066	84.2555	268.066	82.2112	268.066	83.7474	268.066	82.5713	268.066	83.3141	268.066	82.937	268.066	83.016	268.066	83.2572	268.066	82.8997	268.066	83.4969	268.066	82.9646	268.066	83.6333	268.066	83.1529	268.066	83.6545	268.066	83.3781	268.066	83.562
276.855	86.1787	276.855	85.7162	276.855	86.5046	276.855	85.1435	276.855	86.6788	276.855	84.4973	276.855	86.6977	276.855	83.822	276.855	86.5686	276.855	83.1642	276.855	86.3092	276.855	82.5676	276.855	85.9462	276.855	82.068	276.855	85.5128	276.855	81.6943	276.855	85.0438	276.855	81.4694	276.855	84.5684	276.855	81.4072	276.855	84.1038	276.855	81.5037	276.855	83.6577	276.855	81.7301	276.855	83.2421	276.855	82.0353	276.855	82.888	276.855	82.3571	276.855	82.6452	276.855	82.6359	276.855	82.5536	276.855	82.825	276.855	82.6046	276.855	82.8977	276.855	82.7343	276.855	82.8555
287.109	85.9947	287.109	85.5674	287.109	86.2668	287.109	84.9911	287.109	86.3849	287.109	84.2852	287.109	86.3554	287.109	83.488	287.109	86.1886	287.109	82.6639	287.109	85.8995	287.109	81.9049	287.109	85.5102	287.109	81.3159	287.109	85.0516	287.109	80.9779	287.109	84.5638	287.109	80.9088	287.109	84.0931	287.109	81.0582	287.109	83.6859	287.109	81.342	287.109	83.3789	287.109	81.6817	287.109	83.1882	287.109	82.0215	287.109	83.1012	287.109	82.3285	287.109	83.0824	287.109	82.5854	287.109	83.0902	287.109	82.7854	287.109	83.0933	287.109	82.929	287.109	83.074	287.109	83.0222
297.363	85.983	297.363	85.5105	297.363	86.2977	297.363	84.8984	297.363	86.4441	297.363	84.1738	297.363	86.4187	297.363	83.377	297.363	86.227	297.363	82.5665	297.363	85.8846	297.363	81.8206	297.363	85.4188	297.363	81.2306	297.363	84.8676	297.363	80.8754	297.363	84.2782	297.363	80.7896	297.363	83.7021	297.363	80.9472	297.363	83.1928	297.363	81.2786	297.363	82.8024	297.363	81.7034	297.363	82.5754	297.363	82.153	297.363	82.5321	297.363	82.576	297.363	82.6505	297.363	82.9347	297.363	82.8679	297.363	83.2009	297.363	83.1052	297.363	83.3541	297.363	83.2928	297.363	83.3835
307.617	85.9054	307.617	85.3626	307.617	86.2905	307.617	84.6857	307.617	86.506	307.617	83.9117	307.617	86.5504	307.617	83.0949	307.617	86.4317	307.617	82.3075	307.617	86.1666	307.617	81.6322	307.617	85.7779	307.617	81.141	307.617	85.2918	307.617	80.8679	307.617	84.7341	307.617	80.7981	307.617	84.1292	307.617	80.8853	307.617	83.5049	307.617	81.0807	307.617	82.9068	307.617	81.3484	307.617	82.4094	307.617	81.6615	307.617	82.099	307.617	81.9902	307.617	82.0188	307.617	82.2946	307.617	82.1295	307.617	82.529	307.617	82.3343	307.617	82.6549	307.617	82.5332	307.617	82.6534
319.336	85.194	319.336	84.4203	319.336	85.7215	319.336	83.3992	319.336	86.0105	319.336	82.1426	319.336	86.0745	319.336	80.6979	319.336	85.9352	319.336	79.1996	319.336	85.6261	319.336	77.9497	319.336	85.1963	319.336	77.3771	319.336	84.7124	319.336	77.6633	319.336	84.2523	319.336	78.512	319.336	83.8848	319.336	79.5162	319.336	83.6427	319.336	80.445	319.336	83.5142	319.336	81.2212	319.336	83.4642	319.336	81.8406	319.336	83.4616	319.336	82.3254	319.336	83.4847	319.336	82.7025	319.336	83.5112	319.336	82.9945	319.336	83.515	319.336	83.2162	319.336	83.4734	319.336	83.375
329.59	86.2721	329.59	85.6916	329.59	86.6198	329.59	84.8685	329.59	86.7439	329.59	83.7884	329.59	86.656	329.59	82.4305	329.59	86.3726	329.59	80.7702	329.59	85.9142	329.59	78.8076	329.59	85.3048	329.59	76.6914	329.59	84.574	329.59	75.0637	329.59	83.765	329.59	75.0241	329.59	82.9451	329.59	76.4811	329.59	82.2125	329.59	78.3193	329.59	81.6865	329.59	79.9606	329.59	81.4742	329.59	81.2851	329.59	81.6178	329.59	82.3045	329.59	82.053	329.59	83.0496	329.59	82.6304	329.59	83.5433	329.59	83.1868	329.59	83.7971	329.59	83.603	329.59	83.8148
341.309	87.3383	341.309	86.9374	341.309	87.5036	341.309	86.2915	341.309	87.4491	341.309	85.3946	341.309	87.1981	341.309	84.2407	341.309	86.7806	341.309	82.8184	341.309	86.2299	341.309	81.1053	341.309	85.5775	341.309	79.0678	341.309	84.8517	341.309	76.7056	341.309	84.0795	341.309	74.2961	341.309	83.2945	341.309	73.0014	341.309	82.5471	341.309	73.9597	341.309	81.9082	341.309	76.0294	341.309	81.4587	341.309	78.0133	341.309	81.2603	341.309	79.611	341.309	81.324	341.309	80.8118	341.309	81.5906	341.309	81.6454	341.309	81.938	341.309	82.1373	341.309	82.2204	341.309	82.3139
353.027	88.2104	353.027	87.9276	353.027	88.2789	353.027	87.4286	353.027	88.1417	353.027	86.7181	353.027	87.8144	353.027	85.806	353.027	87.3184	353.027	84.7051	353.027	86.6821	353.027	83.428	353.027	85.9434	353.027	81.9857	353.027	85.1508	353.027	80.393	353.027	84.358	353.027	78.6933	353.027	83.6132	353.027	77.0277	353.027	82.9497	353.027	75.7451	353.027	82.3886	353.027	75.3417	353.027	81.944	353.027	75.941	353.027	81.6168	353.027	77.0882	353.027	81.3852	353.027	78.2924	353.027	81.2107	353.027	79.3051	353.027	81.0501	353.027	80.0512	353.027	80.8519	353.027	80.5458
366.211	88.5111	366.211	88.2965	366.211	88.531	366.211	87.8848	366.211	88.3628	366.211	87.2773	366.211	88.0191	366.211	86.4803	366.211	87.5182	366.211	85.509	366.211	86.8835	366.211	84.3939	366.211	86.1452	366.211	83.1899	366.211	85.3442	366.211	81.9858	366.211	84.5343	366.211	80.9045	366.211	83.7738	366.211	80.0743	366.211	83.1116	366.211	79.5718	366.211	82.5834	366.211	79.3932	366.211	82.2202	366.211	79.4886	366.211	82.0411	366.211	79.8042	366.211	82.0214	366.211	80.2788	366.211	82.0778	366.211	80.8263	366.211	82.1027	366.211	81.3469	366.211	82.01	366.211	81.7571
379.395	88.6259	379.395	88.3875	379.395	88.6756	379.395	87.9591	379.395	88.5416	379.395	87.3443	379.395	88.2312	379.395	86.5498	379.395	87.7504	379.395	85.5861	379.395	87.1054	379.395	84.4721	379.395	86.3082	379.395	83.2484	379.395	85.3858	379.395	82.0009	379.395	84.3869	379.395	80.8836	379.395	83.3884	379.395	80.0947	379.395	82.5034	379.395	79.7704	379.395	81.879	379.395	79.8865	379.395	81.643	379.395	80.303	379.395	81.7959	379.395	80.873	379.395	82.1801	379.395	81.4868	379.395	82.5889	379.395	82.0622	379.395	82.8734	379.395	82.5323	379.395	82.9637	379.395	82.8448
392.578	87.8621	392.578	87.6319	392.578	87.9242	392.578	87.2367	392.578	87.8176	392.578	86.6849	392.578	87.5425	392.578	85.9881	392.578	87.0993	392.578	85.1597	392.578	86.4932	392.578	84.2142	392.578	85.7408	392.578	83.1741	392.578	84.875	392.578	82.0897	392.578	83.9424	392.578	81.0702	392.578	82.9941	392.578	80.2948	392.578	82.0788	392.578	79.9423	392.578	81.2593	392.578	80.0505	392.578	80.6581	392.578	80.4845	392.578	80.4573	392.578	81.0587	392.578	80.7372	392.578	81.6321	392.578	81.327	392.578	82.1129	392.578	81.9384	392.578	82.4318	392.578	82.3662	392.578	82.5302
405.762	87.4686	405.762	87.2155	405.762	87.5231	405.762	86.7733	405.762	87.3724	405.762	86.1538	405.762	87.0169	405.762	85.3726	405.762	86.4717	405.762	84.4517	405.762	85.7714	405.762	83.4253	405.762	84.9676	405.762	82.3523	405.762	84.1141	405.762	81.3344	405.762	83.2505	405.762	80.5239	405.762	82.3972	405.762	80.0814	405.762	81.5787	405.762	80.0772	405.762	80.8659	405.762	80.4389	405.762	80.4023	405.762	81.013	405.762	80.3446	405.762	81.6521	405.762	80.7208	405.762	82.2422	405.762	81.3735	405.762	82.6944	405.762	82.0686	405.762	82.937	405.762	82.6181	405.762	82.918
420.41	87.8755	420.41	87.7163	420.41	87.8228	420.41	87.3442	420.41	87.5666	420.41	86.7617	420.41	87.1252	420.41	85.9733	420.41	86.5253	420.41	84.9865	420.41	85.7996	420.41	83.8177	420.41	84.9886	420.41	82.5069	420.41	84.1444	420.41	81.1485	420.41	83.3249	420.41	79.934	420.41	82.5691	420.41	79.1484	420.41	81.8767	420.41	79.0092	420.41	81.2332	420.41	79.4612	420.41	80.6789	420.41	80.2466	420.41	80.3554	420.41	81.1153	420.41	80.4314	420.41	81.8947	420.41	80.9196	420.41	82.4643	420.41	81.6191	420.41	82.7383	420.41	82.266	420.41	82.6691
435.059	87.6665	435.059	87.5666	435.059	87.5748	435.059	87.2704	435.059	87.294	435.059	86.77	435.059	86.8255	435.059	86.0566	435.059	86.1743	435.059	85.1248	435.059	85.3605	435.059	83.9837	435.059	84.4338	435.059	82.6771	435.059	83.477	435.059	81.3141	435.059	82.5812	435.059	80.0959	435.059	81.7961	435.059	79.2756	435.059	81.1097	435.059	79.003	435.059	80.514	435.059	79.2166	435.059	80.1056	435.059	79.7425	435.059	80.0586	435.059	80.4196	435.059	80.4135	435.059	81.113	435.059	80.9878	435.059	81.6954	435.059	81.5546	435.059	82.0611	435.059	81.9694	435.059	82.1527
451.172	88.6576	451.172	88.3978	451.172	88.7339	451.172	87.9734	451.172	88.6002	451.172	87.3918	451.172	88.2289	451.172	86.6439	451.172	87.6015	451.172	85.7005	451.172	86.7219	451.172	84.5167	451.172	85.6245	451.172	83.0485	451.172	84.381	451.172	81.2963	451.172	83.1037	451.172	79.4207	451.172	81.9238	451.172	77.963	451.172	80.9084	451.172	77.6977	451.172	80.0064	451.172	78.5835	451.172	79.1943	451.172	79.8503	451.172	78.7569	451.172	81.0154	451.172	79.1718	451.172	81.9404	451.172	80.3257	451.172	82.5937	451.172	81.5711	451.172	82.941	451.172	82.476	451.172	82.9237
465.82	88.5496	465.82	88.2655	465.82	88.6134	465.82	87.787	465.82	88.4364	465.82	87.1401	465.82	88.0118	465.82	86.3479	465.82	87.3558	465.82	85.426	465.82	86.5037	465.82	84.3779	465.82	85.4972	465.82	83.1957	465.82	84.3784	465.82	81.8718	465.82	83.213	465.82	80.437	465.82	82.115	465.82	79.0452	465.82	81.2098	465.82	78.067	465.82	80.5327	465.82	77.9147	465.82	79.9945	465.82	78.5449	465.82	79.4955	465.82	79.4971	465.82	79.0887	465.82	80.3692	465.82	79.0232	465.82	80.944	465.82	79.4719	465.82	81.1142	465.82	80.2135	465.82	80.8459
483.398	88.3689	483.398	88.1695	483.398	88.3481	483.398	87.7609	483.398	88.1011	483.398	87.1547	483.398	87.6359	483.398	86.3637	483.398	86.9783	483.398	85.4031	483.398	86.1611	483.398	84.2908	483.398	85.2088	483.398	83.05	483.398	84.1431	483.398	81.7203	483.398	83.0117	483.398	80.3882	483.398	81.8987	483.398	79.2329	483.398	80.8907	483.398	78.525	483.398	80.0532	483.398	78.4708	483.398	79.4746	483.398	79.0246	483.398	79.2809	483.398	79.9279	483.398	79.5223	483.398	80.8778	483.398	80.0998	483.398	81.6259	483.398	80.8363	483.398	82.0101	483.398	81.5258	483.398	81.9641
499.512	88.2242	499.512	87.8864	499.512	88.35	499.512	87.362	499.512	88.2502	499.512	86.6831	499.512	87.9278	499.512	85.8853	499.512	87.396	499.512	84.9999	499.512	86.662	499.512	84.0379	499.512	85.7222	499.512	82.9792	499.512	84.5885	499.512	81.7846	499.512	83.3299	499.512	80.4509	499.512	82.0884	499.512	79.1141	499.512	81.0333	499.512	78.1409	499.512	80.2803	499.512	77.944	499.512	79.8753	499.512	78.5154	499.512	79.8471	499.512	79.4651	499.512	80.1738	499.512	80.4343	499.512	80.7078	499.512	81.2106	499.512	81.2488	499.512	81.683	499.512	81.6506	499.512	81.8189
517.09	89.0313	517.09	88.6674	517.09	89.112	517.09	88.047	517.09	88.9068	517.09	87.2148	517.09	88.4443	517.09	86.2279	517.09	87.7774	517.09	85.1483	517.09	86.9551	517.09	84.0256	517.09	85.9987	517.09	82.8723	517.09	84.9142	517.09	81.6458	517.09	83.727	517.09	80.2784	517.09	82.4817	517.09	78.8	517.09	81.2099	517.09	77.5874	517.09	79.9506	517.09	77.4146	517.09	78.9079	517.09	78.5037	517.09	78.5942	517.09	80.1237	517.09	79.3611	517.09	81.6348	517.09	80.7674	517.09	82.7704	517.09	82.1404	517.09	83.426	517.09	83.111	517.09	83.5476
536.133	87.9298	536.133	87.6655	536.133	87.8988	536.133	87.1349	536.133	87.5757	536.133	86.3968	536.133	86.9942	536.133	85.5418	536.133	86.2009	536.133	84.6807	536.133	85.2289	536.133	83.901	536.133	84.1062	536.133	83.206	536.133	82.9132	536.133	82.499	536.133	81.8252	536.133	81.6458	536.133	81.04	536.133	80.5785	536.133	80.5887	536.133	79.3951	536.133	80.2733	536.133	78.4322	536.133	79.8622	536.133	78.1779	536.133	79.3234	536.133	78.8273	536.133	78.9624	536.133	79.9963	536.133	79.2667	536.133	81.1193	536.133	80.2361	536.133	81.8056	536.133	81.2742	536.133	81.8642
555.176	88.2876	555.176	87.8706	555.176	88.3998	555.176	87.1568	555.176	88.2218	555.176	86.1929	555.176	87.7812	555.176	85.0781	555.176	87.1096	555.176	83.9543	555.176	86.23	555.176	82.9509	555.176	85.1446	555.176	82.1068	555.176	83.8507	555.176	81.3506	555.176	82.3963	555.176	80.5765	555.176	80.9423	555.176	79.7521	555.176	79.7641	555.176	78.9818	555.176	79.0967	555.176	78.5075	555.176	78.8474	555.176	78.6075	555.176	78.6157	555.176	79.3422	555.176	78.1979	555.176	80.4011	555.176	78.0907	555.176	81.3196	555.176	78.9955	555.176	81.734	555.176	80.4126	555.176	81.4395
574.219	88.8009	574.219	88.3874	574.219	88.9258	574.219	87.685	574.219	88.7825	574.219	86.7181	574.219	88.3964	574.219	85.5329	574.219	87.7781	574.219	84.2035	574.219	86.917	574.219	82.8479	574.219	85.7907	574.219	81.6177	574.219	84.3891	574.219	80.5977	574.219	82.7471	574.219	79.7141	574.219	80.9654	574.219	78.8523	574.219	79.2513	574.219	78.0915	574.219	78.07	574.219	77.8185	574.219	77.9515	574.219	78.4091	574.219	78.6046	574.219	79.6533	574.219	79.3122	574.219	80.9741	574.219	79.9108	574.219	81.9459	574.219	80.6333	574.219	82.3626	574.219	81.4963	574.219	82.1746
594.727	88.26	594.727	87.9853	594.727	88.2272	594.727	87.3975	594.727	87.9094	594.727	86.5067	594.727	87.3458	594.727	85.3429	594.727	86.588	594.727	83.9744	594.727	85.6798	594.727	82.5177	594.727	84.6266	594.727	81.1065	594.727	83.4106	594.727	79.8329	594.727	82.0512	594.727	78.7427	594.727	80.5906	594.727	77.905	594.727	79.0555	594.727	77.4486	594.727	77.6681	594.727	77.5145	594.727	77.0701	594.727	78.1819	594.727	77.4316	594.727	79.3462	594.727	78.1618	594.727	80.6684	594.727	79.1354	594.727	81.7548	594.727	80.4004	594.727	82.3326	594.727	81.579	594.727	82.2755
615.234	88.2261	615.234	87.9678	615.234	88.1586	615.234	87.3989	615.234	87.7689	615.234	86.5519	615.234	87.0904	615.234	85.4831	615.234	86.1932	615.234	84.2826	615.234	85.1536	615.234	83.0672	615.234	83.9964	615.234	81.9405	615.234	82.6919	615.234	80.9413	615.234	81.2426	615.234	80.0177	615.234	79.8287	615.234	79.0542	615.234	78.8619	615.234	77.9718	615.234	78.5022	615.234	76.9216	615.234	78.236	615.234	76.5668	615.234	77.4866	615.234	77.566	615.234	76.172	615.234	79.2667	615.234	75.2591	615.234	80.6209	615.234	76.5216	615.234	81.1204	615.234	78.8883	615.234	80.5619
637.207	88.4018	637.207	87.996	637.207	88.4873	637.207	87.3063	637.207	88.2482	637.207	86.3738	637.207	87.7505	637.207	85.2327	637.207	87.1016	637.207	83.9096	637.207	86.3086	637.207	82.4465	637.207	85.2308	637.207	80.9754	637.207	83.744	637.207	79.7762	637.207	81.8734	637.207	79.0369	637.207	79.7907	637.207	78.5434	637.207	77.9231	637.207	78.0186	637.207	77.0646	637.207	77.5493	637.207	77.3743	637.207	77.5568	637.207	78.01	637.207	78.3505	637.207	78.5898	637.207	79.6588	637.207	79.3116	637.207	80.8913	637.207	80.2401	637.207	81.6154	637.207	81.1327	637.207	81.6717
659.18	88.3283	659.18	88.127	659.18	88.0936	659.18	87.4565	659.18	87.5432	659.18	86.3644	659.18	86.8291	659.18	84.9675	659.18	86.0051	659.18	83.4198	659.18	85.0141	659.18	81.84	659.18	83.851	659.18	80.257	659.18	82.6162	659.18	78.6951	659.18	81.363	659.18	77.3544	659.18	80.0206	659.18	76.5377	659.18	78.5144	659.18	76.2748	659.18	76.8648	659.18	76.4368	659.18	75.3508	659.18	77.1406	659.18	74.7458	659.18	78.4128	659.18	75.1445	659.18	79.8261	659.18	75.6737	659.18	80.84	659.18	76.6578	659.18	81.0654	659.18	78.5502	659.18	80.2802
682.617	87.8983	682.617	87.6795	682.617	87.7567	682.617	87.1017	682.617	87.3031	682.617	86.206	682.617	86.6294	682.617	85.0767	682.617	85.8163	682.617	83.8323	682.617	84.8828	682.617	82.5568	682.617	83.808	682.617	81.2153	682.617	82.5705	682.617	79.7142	682.617	81.1728	682.617	78.1147	682.617	79.7051	682.617	76.7085	682.617	78.4124	682.617	75.7173	682.617	77.5118	682.617	75.2702	682.617	76.9404	682.617	75.8891	682.617	76.6284	682.617	77.7092	682.617	76.3997	682.617	79.748	682.617	76.0386	682.617	81.1466	682.617	76.6566	682.617	81.5363	682.617	78.8258	682.617	80.7502
707.52	87.9529	707.52	87.9593	707.52	87.795	707.52	87.5876	707.52	87.6499	707.52	86.7334	707.52	87.4103	707.52	85.4172	707.52	86.8531	707.52	83.7772	707.52	85.9229	707.52	82.1594	707.52	84.7183	707.52	81.0199	707.52	83.2743	707.52	80.2591	707.52	81.5778	707.52	79.1777	707.52	79.7711	707.52	77.5824	707.52	78.0717	707.52	76.2811	707.52	76.6501	707.52	75.5503	707.52	75.7843	707.52	74.7079	707.52	75.4567	707.52	74.8086	707.52	75.7787	707.52	76.969	707.52	77.532	707.52	79.2171	707.52	79.6127	707.52	80.573	707.52	80.8219	707.52	81.0901
732.422	87.7255	732.422	87.5267	732.422	87.5772	732.422	87.0818	732.422	86.9739	732.422	86.4129	732.422	85.9979	732.422	85.5183	732.422	84.9941	732.422	84.4112	732.422	84.1744	732.422	83.1176	732.422	83.3032	732.422	81.7803	732.422	82.1217	732.422	80.6711	732.422	80.6127	732.422	79.6552	732.422	78.8927	732.422	78.2739	732.422	77.396	732.422	76.7642	732.422	76.5299	732.422	76.0567	732.422	75.6276	732.422	76.169	732.422	75.0076	732.422	76.5613	732.422	75.5622	732.422	77.5495	732.422	75.394	732.422	78.8733	732.422	74.2906	732.422	79.4012	732.422	75.8024	732.422	78.3753
757.324	87.6803	757.324	87.2766	757.324	87.8621	757.324	87.0049	757.324	87.4712	757.324	86.7614	757.324	86.4592	757.324	86.1591	757.324	85.068	757.324	84.9456	757.324	83.715	757.324	83.1169	757.324	82.6573	757.324	80.9156	757.324	81.6924	757.324	78.6896	757.324	80.5067	757.324	76.988	757.324	79.091	757.324	76.4972	757.324	77.6086	757.324	76.5756	757.324	76.6364	757.324	76.1158	757.324	77.4773	757.324	75.3821	757.324	78.6876	757.324	76.0441	757.324	78.2054	757.324	78.055	757.324	75.8708	757.324	79.779	757.324	74.6504	757.324	80.4425	757.324	77.3166	757.324	79.6844
785.156	88.2686	785.156	87.6601	785.156	87.7416	785.156	86.3637	785.156	86.2831	785.156	85.1931	785.156	85.2907	785.156	84.7162	785.156	85.5829	785.156	84.5625	785.156	85.7053	785.156	84.0857	785.156	84.8639	785.156	83.1946	785.156	83.0951	785.156	82.1407	785.156	80.558	785.156	80.6907	785.156	77.705	785.156	78.2281	785.156	75.6743	785.156	75.1957	785.156	74.65	785.156	73.1103	785.156	74.4095	785.156	71.4203	785.156	76.2486	785.156	71.347	785.156	77.395	785.156	73.9254	785.156	75.4105	785.156	77.7768	785.156	73.4919	785.156	80.514	785.156	78.4155	785.156	80.9326
811.523	87.1628	811.523	87.3261	811.523	86.6941	811.523	86.9231	811.523	86.2086	811.523	86.0973	811.523	85.5269	811.523	85.2163	811.523	84.4474	811.523	84.3062	811.523	83.301	811.523	82.9191	811.523	82.4569	811.523	80.7328	811.523	81.7065	811.523	78.0739	811.523	80.7631	811.523	75.9759	811.523	79.6453	811.523	74.9621	811.523	78.415	811.523	74.7427	811.523	76.6652	811.523	75.1101	811.523	74.1581	811.523	75.7188	811.523	71.6725	811.523	76.5671	811.523	70.7419	811.523	77.7065	811.523	74.045	811.523	78.0923	811.523	76.2029	811.523	76.9516	811.523	75.7017	811.523	75.1999
840.82	87.6062	840.82	87.5092	840.82	87.4159	840.82	87.4299	840.82	86.6544	840.82	86.94	840.82	85.7306	840.82	85.6284	840.82	85.0604	840.82	83.9827	840.82	84.4111	840.82	83.0925	840.82	83.5538	840.82	82.7044	840.82	82.4018	840.82	82.0941	840.82	80.863	840.82	81.3914	840.82	79.2132	840.82	80.4953	840.82	77.5836	840.82	79.152	840.82	75.5765	840.82	78.1336	840.82	74.9439	840.82	77.924	840.82	75.6853	840.82	77.6195	840.82	75.8049	840.82	78.2705	840.82	75.5869	840.82	79.5368	840.82	73.8364	840.82	79.604	840.82	74.5994	840.82	77.9387
870.117	88.9811	870.117	89.3863	870.117	87.5789	870.117	88.4542	870.117	86.5959	870.117	86.6161	870.117	86.4896	870.117	84.81	870.117	86.0305	870.117	83.8546	870.117	84.9044	870.117	83.6159	870.117	83.4667	870.117	83.3397	870.117	81.8952	870.117	82.6101	870.117	80.1964	870.117	81.611	870.117	78.9306	870.117	80.7174	870.117	79.1245	870.117	80.0279	870.117	79.1363	870.117	79.6813	870.117	77.7412	870.117	79.3677	870.117	75.66	870.117	78.7651	870.117	72.7543	870.117	78.6861	870.117	74.0749	870.117	78.5688	870.117	76.1244	870.117	77.66	870.117	75.8312	870.117	76.3635
900.879	89.4807	900.879	88.4573	900.879	89.8485	900.879	88.4433	900.879	88.5573	900.879	88.7486	900.879	86.4487	900.879	88.1573	900.879	86.2213	900.879	86.7458	900.879	87.0217	900.879	85.1349	900.879	86.7473	900.879	83.3413	900.879	85.334	900.879	81.0974	900.879	83.5814	900.879	79.7328	900.879	82.333	900.879	80.1593	900.879	81.5231	900.879	80.1153	900.879	80.9263	900.879	79.8509	900.879	80.8282	900.879	80.4103	900.879	79.9294	900.879	79.3472	900.879	76.4932	900.879	78.6463	900.879	74.6123	900.879	78.9003	900.879	78.1071	900.879	78.1747	900.879	80.1896	900.879	79.4077
933.105	89.6943	933.105	89.8879	933.105	88.1964	933.105	88.4974	933.105	87.2024	933.105	86.2645	933.105	87.5948	933.105	84.9988	933.105	87.3963	933.105	85.2426	933.105	85.6631	933.105	85.6279	933.105	82.4716	933.105	85.6355	933.105	77.9793	933.105	85.4098	933.105	71.68	933.105	85.3302	933.105	61.3707	933.105	85.402	933.105	65.8662	933.105	84.3221	933.105	73.9258	933.105	81.8496	933.105	77.6012	933.105	79.9127	933.105	79.2493	933.105	77.6425	933.105	78.222	933.105	75.3666	933.105	77.0244	933.105	76.6586	933.105	75.806	933.105	79.8477	933.105	77.2356	933.105	80.4469
965.332	90.6338	965.332	90.1188	965.332	89.0011	965.332	87.9616	965.332	86.9627	965.332	86.5371	965.332	87.6581	965.332	86.953	965.332	88.165	965.332	86.8594	965.332	86.8162	965.332	85.565	965.332	84.0511	965.332	83.7271	965.332	81.0224	965.332	81.7333	965.332	78.5143	965.332	80.0296	965.332	75.7367	965.332	79.2943	965.332	73.6344	965.332	77.9164	965.332	74.964	965.332	76.7827	965.332	77.3006	965.332	77.2527	965.332	78.6584	965.332	76.4798	965.332	75.9942	965.332	75.1158	965.332	75.4575	965.332	75.6093	965.332	77.9707	965.332	76.6456	965.332	77.8188	965.332	77.3981
1,000.49	88.3166	1,000.49	88.5481	1,000.49	89.0138	1,000.49	89.0983	1,000.49	89.0644	1,000.49	88.6123	1,000.49	87.5932	1,000.49	86.2809	1,000.49	85.3363	1,000.49	82.1769	1,000.49	83.9103	1,000.49	80.973	1,000.49	83.0873	1,000.49	82.7976	1,000.49	82.5892	1,000.49	83.7239	1,000.49	82.9241	1,000.49	83.95	1,000.49	83.0807	1,000.49	84.4739	1,000.49	81.565	1,000.49	84.7273	1,000.49	76.9187	1,000.49	83.258	1,000.49	67.8553	1,000.49	81.0897	1,000.49	76.397	1,000.49	79.5595	1,000.49	79.6593	1,000.49	76.2832	1,000.49	77.2248	1,000.49	73.5584	1,000.49	70.5525	1,000.49	76.6024	1,000.49	78.3501	1,000.49	79.5035
1,035.64	88.7182	1,035.64	89.3174	1,035.64	87.3854	1,035.64	88.5682	1,035.64	87.4928	1,035.64	87.2676	1,035.64	88.4327	1,035.64	86.4969	1,035.64	88.0383	1,035.64	85.6625	1,035.64	85.7194	1,035.64	84.2041	1,035.64	81.9702	1,035.64	82.4115	1,035.64	79.107	1,035.64	79.7396	1,035.64	77.0626	1,035.64	74.5778	1,035.64	74.5709	1,035.64	71.6198	1,035.64	74.6242	1,035.64	75.5951	1,035.64	75.3188	1,035.64	75.2575	1,035.64	77.3991	1,035.64	70.8161	1,035.64	77.1538	1,035.64	69.8375	1,035.64	68.5471	1,035.64	75.5461	1,035.64	76.433	1,035.64	78.484	1,035.64	77.0282	1,035.64	78.19	1,035.64	72.8453	1,035.64	75.5137
1,072.27	88.4609	1,072.27	87.5729	1,072.27	88.4148	1,072.27	87.0065	1,072.27	87.7422	1,072.27	86.9672	1,072.27	87.539	1,072.27	86.0748	1,072.27	86.9745	1,072.27	83.9929	1,072.27	85.331	1,072.27	81.881	1,072.27	83.3033	1,072.27	80.4806	1,072.27	82.261	1,072.27	79.5411	1,072.27	82.0973	1,072.27	80.4574	1,072.27	80.7164	1,072.27	80.5639	1,072.27	78.5648	1,072.27	76.9035	1,072.27	76.9195	1,072.27	76.4327	1,072.27	72.7245	1,072.27	75.6313	1,072.27	65.9556	1,072.27	71.5345	1,072.27	69.926	1,072.27	72.5607	1,072.27	77.3616	1,072.27	75.2133	1,072.27	75.0461	1,072.27	77.3108	1,072.27	72.6151	1,072.27	77.499
1,108.89	88.1835	1,108.89	87.4804	1,108.89	87.6468	1,108.89	86.221	1,108.89	87.5875	1,108.89	85.625	1,108.89	87.7615	1,108.89	84.9642	1,108.89	85.8318	1,108.89	83.8551	1,108.89	83.1382	1,108.89	83.356	1,108.89	83.5799	1,108.89	83.5489	1,108.89	84.4723	1,108.89	83.1397	1,108.89	84.0008	1,108.89	81.6574	1,108.89	81.9785	1,108.89	79.9518	1,108.89	79.0984	1,108.89	77.8567	1,108.89	75.9264	1,108.89	76.5827	1,108.89	67.4922	1,108.89	76.3382	1,108.89	72.6675	1,108.89	73.4387	1,108.89	73.454	1,108.89	71.993	1,108.89	72.7343	1,108.89	71.6151	1,108.89	72.7085	1,108.89	71.5388	1,108.89	75.4558	1,108.89	75.8275
1,148.44	86.6846	1,148.44	87.3812	1,148.44	86.7664	1,148.44	86.5864	1,148.44	87.9548	1,148.44	84.8878	1,148.44	87.8483	1,148.44	84.5222	1,148.44	86.5934	1,148.44	83.7294	1,148.44	84.7714	1,148.44	80.8878	1,148.44	81.7063	1,148.44	77.605	1,148.44	77.169	1,148.44	76.5101	1,148.44	73.2733	1,148.44	76.4365	1,148.44	70.4796	1,148.44	77.5081	1,148.44	67.6756	1,148.44	75.6277	1,148.44	71.9162	1,148.44	72.9584	1,148.44	75.0626	1,148.44	71.3599	1,148.44	74.8996	1,148.44	68.6523	1,148.44	65.7265	1,148.44	71.5729	1,148.44	74.2835	1,148.44	75.9447	1,148.44	76.4918	1,148.44	77.128	1,148.44	71.0766	1,148.44	74.1371
1,189.45	86.8	1,189.45	86.2734	1,189.45	87.1881	1,189.45	85.755	1,189.45	87.2361	1,189.45	84.8096	1,189.45	86.8885	1,189.45	83.7821	1,189.45	85.1739	1,189.45	83.1236	1,189.45	81.3282	1,189.45	81.4355	1,189.45	78.7872	1,189.45	76.445	1,189.45	80.6288	1,189.45	63.368	1,189.45	80.9006	1,189.45	67.5536	1,189.45	78.8939	1,189.45	73.4899	1,189.45	75.5017	1,189.45	73.1065	1,189.45	70.1448	1,189.45	64.9423	1,189.45	71.931	1,189.45	63.7035	1,189.45	72.3704	1,189.45	64.7727	1,189.45	67.9565	1,189.45	73.6537	1,189.45	65.22	1,189.45	76.4871	1,189.45	75.1035	1,189.45	73.9012	1,189.45	76.6079	1,189.45	72.4324
1,230.47	86.3098	1,230.47	86.1395	1,230.47	87.6846	1,230.47	85.3881	1,230.47	88.264	1,230.47	82.6704	1,230.47	86.3098	1,230.47	81.5733	1,230.47	82.4268	1,230.47	83.5492	1,230.47	81.803	1,230.47	83.5875	1,230.47	82.5309	1,230.47	81.0294	1,230.47	81.9207	1,230.47	76.3905	1,230.47	80.0759	1,230.47	65.9128	1,230.47	77.5217	1,230.47	67.8559	1,230.47	76.1318	1,230.47	71.0007	1,230.47	73.6327	1,230.47	69.6943	1,230.47	59.7474	1,230.47	72.0482	1,230.47	68.7007	1,230.47	71.3346	1,230.47	70.9674	1,230.47	70.5195	1,230.47	67.327	1,230.47	73.3327	1,230.47	73.1333	1,230.47	70.949	1,230.47	75.7117	1,230.47	72.9941
1,274.41	87.8257	1,274.41	86.4185	1,274.41	87.779	1,274.41	83.7697	1,274.41	87.3396	1,274.41	82.4419	1,274.41	86.3494	1,274.41	82.2817	1,274.41	83.4713	1,274.41	81.0772	1,274.41	80.0319	1,274.41	79.4138	1,274.41	79.8835	1,274.41	76.8792	1,274.41	79.4196	1,274.41	69.7402	1,274.41	78.3451	1,274.41	55.9639	1,274.41	77.371	1,274.41	65.5825	1,274.41	76.1089	1,274.41	71.5818	1,274.41	74.9054	1,274.41	72.1113	1,274.41	70.7977	1,274.41	72.6025	1,274.41	56.8804	1,274.41	70.9569	1,274.41	62.3145	1,274.41	70.3699	1,274.41	67.0786	1,274.41	73.1047	1,274.41	72.3167	1,274.41	71.3713	1,274.41	76.0705	1,274.41	72.65
1,319.82	87.802	1,319.82	86.347	1,319.82	88.7114	1,319.82	84.6066	1,319.82	87.9975	1,319.82	81.9908	1,319.82	85.5435	1,319.82	80.2454	1,319.82	82.2367	1,319.82	80.852	1,319.82	79.8006	1,319.82	80.8727	1,319.82	77.2646	1,319.82	78.0167	1,319.82	74.1733	1,319.82	71.8901	1,319.82	72.9553	1,319.82	67.9715	1,319.82	73.9188	1,319.82	66.837	1,319.82	73.6841	1,319.82	67.6842	1,319.82	71.1764	1,319.82	70.8549	1,319.82	67.9782	1,319.82	72.8337	1,319.82	67.0946	1,319.82	70.1779	1,319.82	66.7735	1,319.82	68.4097	1,319.82	62.7583	1,319.82	70.7453	1,319.82	71.8942	1,319.82	70.3969	1,319.82	75.4735	1,319.82	74.276
1,366.7	88.5267	1,366.7	86.6741	1,366.7	89.18	1,366.7	84.2487	1,366.7	88.2856	1,366.7	81.6363	1,366.7	85.4212	1,366.7	80.2386	1,366.7	82.0991	1,366.7	81.4433	1,366.7	79.4606	1,366.7	81.8469	1,366.7	72.3505	1,366.7	79.421	1,366.7	56.457	1,366.7	76.0806	1,366.7	69.7238	1,366.7	71.9081	1,366.7	69.0215	1,366.7	61.0001	1,366.7	66.594	1,366.7	60.689	1,366.7	69.7105	1,366.7	67.6059	1,366.7	71.6003	1,366.7	72.2766	1,366.7	70.6574	1,366.7	73.7108	1,366.7	58.1524	1,366.7	71.5155	1,366.7	68.5144	1,366.7	72.3952	1,366.7	71.5572	1,366.7	69.4263	1,366.7	76.7528	1,366.7	74.2713
1,413.57	88.422	1,413.57	86.3814	1,413.57	89.2256	1,413.57	83.515	1,413.57	88.0796	1,413.57	80.5059	1,413.57	85.6192	1,413.57	79.9107	1,413.57	81.5866	1,413.57	80.3198	1,413.57	72.9687	1,413.57	80.0116	1,413.57	73.1328	1,413.57	77.1776	1,413.57	74.5508	1,413.57	68.896	1,413.57	73.3164	1,413.57	60.252	1,413.57	67.2543	1,413.57	68.4449	1,413.57	58.8736	1,413.57	69.8137	1,413.57	70.2651	1,413.57	65.7989	1,413.57	74.5788	1,413.57	70.4424	1,413.57	75.0145	1,413.57	74.4665	1,413.57	63.4817	1,413.57	70.0511	1,413.57	65.8263	1,413.57	69.6601	1,413.57	68.1523	1,413.57	66.8635	1,413.57	75.9007	1,413.57	74.4941
1,463.38	88.3384	1,463.38	85.8826	1,463.38	89.1777	1,463.38	82.1588	1,463.38	88.0957	1,463.38	78.2344	1,463.38	84.3118	1,463.38	79.0453	1,463.38	76.9602	1,463.38	80.2764	1,463.38	75.7473	1,463.38	77.9902	1,463.38	77.7384	1,463.38	75.1252	1,463.38	79.3382	1,463.38	74.6032	1,463.38	78.9927	1,463.38	74.6655	1,463.38	78.4326	1,463.38	74.9109	1,463.38	78.4201	1,463.38	74.4102	1,463.38	77.1582	1,463.38	74.2975	1,463.38	71.3388	1,463.38	75.8396	1,463.38	65.3759	1,463.38	75.8258	1,463.38	74.0319	1,463.38	68.511	1,463.38	64.6636	1,463.38	69.796	1,463.38	69.6634	1,463.38	66.3217	1,463.38	74.5978	1,463.38	74.133
1,516.11	88.4884	1,516.11	85.1869	1,516.11	88.8538	1,516.11	81.3998	1,516.11	86.6172	1,516.11	77.8089	1,516.11	82.0929	1,516.11	76.5367	1,516.11	74.4614	1,516.11	81.2168	1,516.11	73.8447	1,516.11	78.8978	1,516.11	76.8702	1,516.11	73.7996	1,516.11	79.6491	1,516.11	73.6529	1,516.11	79.1265	1,516.11	72.4163	1,516.11	78.1191	1,516.11	76.1598	1,516.11	77.407	1,516.11	77.3097	1,516.11	77.6258	1,516.11	73.3951	1,516.11	75.05	1,516.11	75.5702	1,516.11	68.9568	1,516.11	74.9051	1,516.11	70.1349	1,516.11	68.1746	1,516.11	71.0335	1,516.11	67.4594	1,516.11	70.4989	1,516.11	68.4071	1,516.11	76.7693	1,516.11	73.4376
1,568.85	88.0753	1,568.85	85.4362	1,568.85	87.6935	1,568.85	79.4853	1,568.85	85.9074	1,568.85	77.0382	1,568.85	80.7917	1,568.85	74.4083	1,568.85	66.2605	1,568.85	78.3141	1,568.85	78.1098	1,568.85	80.1053	1,568.85	80.5996	1,568.85	76.8544	1,568.85	80.4968	1,568.85	78.0768	1,568.85	77.7901	1,568.85	78.6891	1,568.85	73.914	1,568.85	79.7797	1,568.85	72.7239	1,568.85	81.0835	1,568.85	75.4775	1,568.85	73.2696	1,568.85	75.9707	1,568.85	70.6579	1,568.85	75.7631	1,568.85	73.1171	1,568.85	69.1382	1,568.85	71.0791	1,568.85	69.808	1,568.85	67.5842	1,568.85	61.5474	1,568.85	52.5726	1,568.85	74.604	1,568.85	74.3973
1,624.51	88.9415	1,624.51	86.8722	1,624.51	88.6528	1,624.51	80.6321	1,624.51	85.7182	1,624.51	78.7575	1,624.51	75.2572	1,624.51	78.9368	1,624.51	77.1045	1,624.51	79.2253	1,624.51	84.0557	1,624.51	83.155	1,624.51	82.4913	1,624.51	83.0344	1,624.51	79.3762	1,624.51	82.5626	1,624.51	77.2843	1,624.51	82.124	1,624.51	76.5505	1,624.51	80.673	1,624.51	76.3986	1,624.51	81.1409	1,624.51	71.1469	1,624.51	78.6709	1,624.51	77.02	1,624.51	71.5227	1,624.51	75.7945	1,624.51	75.2078	1,624.51	73.1162	1,624.51	68.7978	1,624.51	76.6326	1,624.51	69.6995	1,624.51	70.1248	1,624.51	64.1294	1,624.51	76.1891	1,624.51	71.0522
1,681.64	90.7594	1,681.64	87.7877	1,681.64	90.7006	1,681.64	80.032	1,681.64	86.4538	1,681.64	73.406	1,681.64	70.974	1,681.64	81.2541	1,681.64	80.1601	1,681.64	78.2385	1,681.64	81.8157	1,681.64	75.3361	1,681.64	84.3579	1,681.64	78.3282	1,681.64	84.9886	1,681.64	80.3387	1,681.64	83.3728	1,681.64	77.0363	1,681.64	82.1439	1,681.64	79.1999	1,681.64	79.336	1,681.64	81.8616	1,681.64	77.2021	1,681.64	78.589	1,681.64	75.5191	1,681.64	68.7772	1,681.64	75.9825	1,681.64	66.8813	1,681.64	78.1118	1,681.64	75.7565	1,681.64	75.2711	1,681.64	59.5871	1,681.64	49.9344	1,681.64	69.8207	1,681.64	74.8381	1,681.64	75.9579
1,741.7	91.3781	1,741.7	88.2271	1,741.7	91.3707	1,741.7	78.6342	1,741.7	87.551	1,741.7	77.614	1,741.7	74.283	1,741.7	80.3351	1,741.7	82.7387	1,741.7	75.7575	1,741.7	84.446	1,741.7	80.2848	1,741.7	85.9965	1,741.7	82.4066	1,741.7	84.0835	1,741.7	76.2995	1,741.7	81.2455	1,741.7	76.4393	1,741.7	82.1857	1,741.7	76.7357	1,741.7	81.5053	1,741.7	74.1591	1,741.7	78.6373	1,741.7	77.1109	1,741.7	76.9308	1,741.7	79.1098	1,741.7	74.8352	1,741.7	72.1733	1,741.7	74.865	1,741.7	69.4054	1,741.7	78.0827	1,741.7	63.6796	1,741.7	68.5187	1,741.7	63.9437	1,741.7	79.1459	1,741.7	75.8469
1,803.22	91.6858	1,803.22	88.8194	1,803.22	91.1329	1,803.22	81.0064	1,803.22	85.9535	1,803.22	74.483	1,803.22	74.9665	1,803.22	78.8988	1,803.22	81.6373	1,803.22	79.6965	1,803.22	86.4293	1,803.22	77.3613	1,803.22	87.6862	1,803.22	76.3604	1,803.22	83.8721	1,803.22	77.2247	1,803.22	80.5817	1,803.22	77.9167	1,803.22	80.8409	1,803.22	77.1159	1,803.22	78.4503	1,803.22	65.1223	1,803.22	74.9786	1,803.22	71.8028	1,803.22	67.5676	1,803.22	72.2236	1,803.22	68.006	1,803.22	72.2996	1,803.22	75.1871	1,803.22	72.6315	1,803.22	77.1547	1,803.22	65.1325	1,803.22	65.7934	1,803.22	69.0669	1,803.22	74.9047	1,803.22	75.0703
1,866.21	90.8785	1,866.21	89.1707	1,866.21	89.8522	1,866.21	83.2555	1,866.21	84.5039	1,866.21	73.514	1,866.21	75.4651	1,866.21	78.2577	1,866.21	83.5363	1,866.21	78.4124	1,866.21	86.4134	1,866.21	78.4548	1,866.21	87.1951	1,866.21	78.407	1,866.21	81.3851	1,866.21	71.9338	1,866.21	73.9874	1,866.21	72.1569	1,866.21	71.6031	1,866.21	73.8339	1,866.21	69.5043	1,866.21	74.1226	1,866.21	72.8349	1,866.21	61.4867	1,866.21	75.6098	1,866.21	74.3727	1,866.21	73.1305	1,866.21	73.8367	1,866.21	63.8042	1,866.21	67.4487	1,866.21	73.5019	1,866.21	66.2026	1,866.21	62.7015	1,866.21	70.0557	1,866.21	74.2521	1,866.21	69.0526
1,932.13	90.8593	1,932.13	87.8842	1,932.13	89.5175	1,932.13	82.7545	1,932.13	82.2132	1,932.13	70.9276	1,932.13	74.4739	1,932.13	79.9965	1,932.13	84.3301	1,932.13	79.3698	1,932.13	86.2561	1,932.13	78.7855	1,932.13	85.6868	1,932.13	78.0545	1,932.13	81.8753	1,932.13	74.2005	1,932.13	76.4047	1,932.13	74.3366	1,932.13	75.4569	1,932.13	74.9698	1,932.13	68.3747	1,932.13	72.6652	1,932.13	67.1105	1,932.13	72.1341	1,932.13	71.8571	1,932.13	68.5389	1,932.13	66.8256	1,932.13	72.5311	1,932.13	70.8377	1,932.13	66.4556	1,932.13	75.3764	1,932.13	62.3166	1,932.13	70.8005	1,932.13	68.2332	1,932.13	71.3999	1,932.13	72.9229
1,999.51	90.4401	1,999.51	87.6612	1,999.51	89.863	1,999.51	82.1201	1,999.51	82.9002	1,999.51	66.7926	1,999.51	76.8799	1,999.51	79.2958	1,999.51	84.4481	1,999.51	80.9627	1,999.51	86.4129	1,999.51	80.708	1,999.51	84.8571	1,999.51	78.0659	1,999.51	80.7411	1,999.51	76.8581	1,999.51	75.9263	1,999.51	74.5336	1,999.51	76.1027	1,999.51	71.6175	1,999.51	72.6316	1,999.51	72.772	1,999.51	65.3659	1,999.51	75.7325	1,999.51	72.574	1,999.51	74.0993	1,999.51	72.0635	1,999.51	71.0746	1,999.51	66.3643	1,999.51	71.3087	1,999.51	75.9564	1,999.51	59.487	1,999.51	74.1092	1,999.51	69.2462	1,999.51	69.8499	1,999.51	72.2428
2,069.82	91.4639	2,069.82	88.2324	2,069.82	90.709	2,069.82	78.2479	2,069.82	83.8653	2,069.82	72.4531	2,069.82	78.4849	2,069.82	79.2055	2,069.82	86.1721	2,069.82	81.6156	2,069.82	87.7368	2,069.82	81.5704	2,069.82	85.8844	2,069.82	80.848	2,069.82	80.768	2,069.82	79.9727	2,069.82	74.0939	2,069.82	78.409	2,069.82	72.531	2,069.82	76.729	2,069.82	72.936	2,069.82	72.7675	2,069.82	71.275	2,069.82	74.5896	2,069.82	72.3	2,069.82	76.7141	2,069.82	73.8262	2,069.82	72.5303	2,069.82	68.9369	2,069.82	71.1796	2,069.82	75.9728	2,069.82	62.6056	2,069.82	72.9544	2,069.82	69.5273	2,069.82	69.7509	2,069.82	72.3111
2,143.07	91.7303	2,143.07	88.4711	2,143.07	91.1092	2,143.07	77.1334	2,143.07	84.9999	2,143.07	77.9115	2,143.07	78.7005	2,143.07	81.8845	2,143.07	85.5971	2,143.07	82.8763	2,143.07	87.4075	2,143.07	82.538	2,143.07	85.9248	2,143.07	81.0309	2,143.07	81.3517	2,143.07	78.3759	2,143.07	75.6314	2,143.07	77.0763	2,143.07	75.8573	2,143.07	75.7514	2,143.07	74.6142	2,143.07	75.0868	2,143.07	67.5795	2,143.07	73.9044	2,143.07	71.5772	2,143.07	77.782	2,143.07	74.1718	2,143.07	76.2092	2,143.07	68.8242	2,143.07	71.6035	2,143.07	76.7141	2,143.07	65.8884	2,143.07	73.8654	2,143.07	70.292	2,143.07	73.7802	2,143.07	76.1108
2,219.24	90.7614	2,219.24	87.6551	2,219.24	90.2156	2,219.24	78.5294	2,219.24	85.5705	2,219.24	79.3281	2,219.24	71.6214	2,219.24	83.3424	2,219.24	84.5937	2,219.24	84.1387	2,219.24	86.5198	2,219.24	83.3134	2,219.24	85.5091	2,219.24	82.2389	2,219.24	81.4248	2,219.24	81.1758	2,219.24	75.0782	2,219.24	78.4869	2,219.24	74.7966	2,219.24	77.7737	2,219.24	76.2616	2,219.24	74.5063	2,219.24	69.9224	2,219.24	74.2064	2,219.24	63.562	2,219.24	76.493	2,219.24	74.5743	2,219.24	78.3646	2,219.24	68.7576	2,219.24	74.3103	2,219.24	73.8689	2,219.24	67.8113	2,219.24	72.1076	2,219.24	60.5995	2,219.24	72.8239	2,219.24	71.8792
2,296.88	89.5765	2,296.88	86.6481	2,296.88	88.993	2,296.88	76.4994	2,296.88	84.6838	2,296.88	81.8593	2,296.88	70.5155	2,296.88	85.7955	2,296.88	82.7087	2,296.88	85.5748	2,296.88	85.107	2,296.88	84.8015	2,296.88	84.1259	2,296.88	82.3295	2,296.88	79.1864	2,296.88	80.5445	2,296.88	74.2565	2,296.88	79.8465	2,296.88	74.982	2,296.88	76.6293	2,296.88	71.9566	2,296.88	74.9108	2,296.88	70.1019	2,296.88	76.1125	2,296.88	61.5066	2,296.88	74.704	2,296.88	73.3874	2,296.88	77.7266	2,296.88	70.4006	2,296.88	75.2228	2,296.88	74.9908	2,296.88	69.0651	2,296.88	73.1561	2,296.88	66.5593	2,296.88	71.8447	2,296.88	73.2031
2,378.91	88.5788	2,378.91	84.8822	2,378.91	87.2502	2,378.91	69.6683	2,378.91	81.599	2,378.91	83.3005	2,378.91	78.3206	2,378.91	85.5082	2,378.91	83.2632	2,378.91	85.6645	2,378.91	84.9115	2,378.91	84.3092	2,378.91	83.8301	2,378.91	83.059	2,378.91	79.2447	2,378.91	79.1702	2,378.91	75.687	2,378.91	74.8043	2,378.91	77.7227	2,378.91	75.3474	2,378.91	73.708	2,378.91	74.0964	2,378.91	61.9482	2,378.91	73.7937	2,378.91	65.5701	2,378.91	75.708	2,378.91	72.5084	2,378.91	75.7871	2,378.91	71.321	2,378.91	75.2358	2,378.91	74.7368	2,378.91	68.8496	2,378.91	72.595	2,378.91	62.9966	2,378.91	72.0508	2,378.91	71.2582
2,462.4	90.155	2,462.4	84.75	2,462.4	88.2779	2,462.4	78.9842	2,462.4	80.1934	2,462.4	84.5058	2,462.4	81.3545	2,462.4	86.0347	2,462.4	83.63	2,462.4	84.9962	2,462.4	84.0247	2,462.4	82.8165	2,462.4	84.0714	2,462.4	80.1493	2,462.4	79.4688	2,462.4	78.437	2,462.4	77.0754	2,462.4	76.7275	2,462.4	77.3593	2,462.4	71.9597	2,462.4	72.6247	2,462.4	70.7187	2,462.4	68.93	2,462.4	70.8683	2,462.4	67.5702	2,462.4	73.6408	2,462.4	71.0037	2,462.4	74.9378	2,462.4	69.8212	2,462.4	72.8934	2,462.4	73.3227	2,462.4	66.2222	2,462.4	70.8499	2,462.4	62.5375	2,462.4	71.7016	2,462.4	71.0415
2,548.83	90.36	2,548.83	84.9191	2,548.83	89.2198	2,548.83	81.4994	2,548.83	81.481	2,548.83	85.3989	2,548.83	79.9039	2,548.83	86.6225	2,548.83	83.5376	2,548.83	84.4538	2,548.83	82.4161	2,548.83	82.2361	2,548.83	82.1106	2,548.83	79.3693	2,548.83	76.2649	2,548.83	77.4306	2,548.83	74.9641	2,548.83	75.8596	2,548.83	79.6275	2,548.83	73.6385	2,548.83	75.6521	2,548.83	71.2052	2,548.83	65.7644	2,548.83	70.6566	2,548.83	64.0279	2,548.83	71.7509	2,548.83	70.1446	2,548.83	73.2934	2,548.83	67.4434	2,548.83	72.0099	2,548.83	71.0065	2,548.83	69.2528	2,548.83	70.0005	2,548.83	61.9905	2,548.83	72.8631	2,548.83	72.2232
2,639.65	89.198	2,639.65	83.6659	2,639.65	89.0321	2,639.65	82.1397	2,639.65	83.9418	2,639.65	86.7974	2,639.65	82.4999	2,639.65	86.1513	2,639.65	83.7342	2,639.65	84.7472	2,639.65	82.3968	2,639.65	81.9503	2,639.65	82.73	2,639.65	80.1008	2,639.65	78.2525	2,639.65	77.7153	2,639.65	76.669	2,639.65	75.8365	2,639.65	78.2762	2,639.65	73.4004	2,639.65	73.9977	2,639.65	69.4758	2,639.65	57.7658	2,639.65	71.391	2,639.65	68.2751	2,639.65	70.1612	2,639.65	70.4905	2,639.65	72.7958	2,639.65	69.5492	2,639.65	70.9841	2,639.65	65.9857	2,639.65	67.9866	2,639.65	72.7046	2,639.65	59.1473	2,639.65	74.207	2,639.65	71.308
2,731.93	87.9185	2,731.93	81.6792	2,731.93	87.3488	2,731.93	83.8755	2,731.93	82.2272	2,731.93	86.6261	2,731.93	84.2347	2,731.93	85.451	2,731.93	83.7356	2,731.93	83.666	2,731.93	82.6558	2,731.93	80.3541	2,731.93	82.1632	2,731.93	76.932	2,731.93	78.4524	2,731.93	72.8943	2,731.93	77.5391	2,731.93	73.4084	2,731.93	75.6015	2,731.93	65.545	2,731.93	69.1164	2,731.93	70.7065	2,731.93	63.3582	2,731.93	67.7995	2,731.93	63.7829	2,731.93	69.2693	2,731.93	70.2495	2,731.93	70.3168	2,731.93	68.6583	2,731.93	69.1109	2,731.93	68.9945	2,731.93	61.2149	2,731.93	73.8929	2,731.93	60.725	2,731.93	73.2296	2,731.93	70.8873
2,828.61	88.4926	2,828.61	82.8138	2,828.61	87.6826	2,828.61	85.2904	2,828.61	80.8842	2,828.61	86.3405	2,828.61	85.6259	2,828.61	85.0501	2,828.61	83.7227	2,828.61	82.6612	2,828.61	81.1809	2,828.61	80.3209	2,828.61	81.5079	2,828.61	77.1548	2,828.61	79.755	2,828.61	74.4889	2,828.61	79.6812	2,828.61	71.8218	2,828.61	74.1017	2,828.61	71.412	2,828.61	62.6085	2,828.61	69.5143	2,828.61	57.5729	2,828.61	69.0009	2,828.61	68.0331	2,828.61	70.1705	2,828.61	71.3286	2,828.61	70.0335	2,828.61	67.6773	2,828.61	69.304	2,828.61	69.8679	2,828.61	55.7554	2,828.61	73.332	2,828.61	59.4746	2,828.61	71.8418	2,828.61	67.8864
2,928.22	88.718	2,928.22	84.9088	2,928.22	88.2416	2,928.22	86.7193	2,928.22	80.1304	2,928.22	86.5557	2,928.22	85.874	2,928.22	85.1282	2,928.22	84.3978	2,928.22	82.3286	2,928.22	78.817	2,928.22	78.1995	2,928.22	81.3188	2,928.22	77.7894	2,928.22	79.1454	2,928.22	76.8519	2,928.22	78.6192	2,928.22	70.9655	2,928.22	73.4516	2,928.22	70.7575	2,928.22	73.2914	2,928.22	65.1508	2,928.22	69.275	2,928.22	67.738	2,928.22	71.9509	2,928.22	69.4044	2,928.22	69.1348	2,928.22	69.2401	2,928.22	67.0577	2,928.22	71.5763	2,928.22	70.1968	2,928.22	63.025	2,928.22	72.6779	2,928.22	62.9715	2,928.22	71.0868	2,928.22	69.4495
3,030.76	88.254	3,030.76	85.4528	3,030.76	88.3815	3,030.76	86.599	3,030.76	80.3924	3,030.76	86.2822	3,030.76	86.0563	3,030.76	85.1161	3,030.76	85.5137	3,030.76	82.5153	3,030.76	79.5274	3,030.76	79.6315	3,030.76	81.7296	3,030.76	78.8847	3,030.76	81.2501	3,030.76	75.0596	3,030.76	78.4009	3,030.76	74.6637	3,030.76	77.8607	3,030.76	70.7212	3,030.76	75.563	3,030.76	72.0409	3,030.76	67.4264	3,030.76	65.8714	3,030.76	68.1303	3,030.76	69.3539	3,030.76	72.1506	3,030.76	71.7297	3,030.76	65.0487	3,030.76	72.508	3,030.76	69.1724	3,030.76	66.7236	3,030.76	71.8639	3,030.76	56.7108	3,030.76	70.4866	3,030.76	67.0882
3,137.7	87.7963	3,137.7	86.8871	3,137.7	88.5979	3,137.7	86.8148	3,137.7	80.9889	3,137.7	87.3724	3,137.7	84.9438	3,137.7	85.3056	3,137.7	85.7106	3,137.7	82.8438	3,137.7	80.5727	3,137.7	80.8863	3,137.7	80.0062	3,137.7	78.4527	3,137.7	81.9953	3,137.7	79.2479	3,137.7	78.2219	3,137.7	76.2146	3,137.7	81.095	3,137.7	71.7799	3,137.7	73.2603	3,137.7	71.0121	3,137.7	62.4689	3,137.7	68.1523	3,137.7	64.9358	3,137.7	69.0044	3,137.7	71.205	3,137.7	69.9424	3,137.7	62.8494	3,137.7	71.7351	3,137.7	62.5422	3,137.7	68.0339	3,137.7	73.9221	3,137.7	62.1693	3,137.7	70.767	3,137.7	70.4479
3,249.02	87.5173	3,249.02	86.4354	3,249.02	88.2458	3,249.02	86.4423	3,249.02	83.4314	3,249.02	88.1554	3,249.02	85.6405	3,249.02	85.4981	3,249.02	86.7806	3,249.02	83.3387	3,249.02	79.3621	3,249.02	82.4881	3,249.02	80.6088	3,249.02	80.912	3,249.02	82.9841	3,249.02	77.5158	3,249.02	81.832	3,249.02	70.7645	3,249.02	82.2332	3,249.02	70.7349	3,249.02	69.3987	3,249.02	69.3772	3,249.02	68.8334	3,249.02	69.8115	3,249.02	62.7496	3,249.02	67.3267	3,249.02	73.4704	3,249.02	72.317	3,249.02	64.818	3,249.02	71.1796	3,249.02	61.7828	3,249.02	72.1107	3,249.02	73.768	3,249.02	62.8941	3,249.02	71.6329	3,249.02	65.8054
3,363.28	88.2476	3,363.28	86.8242	3,363.28	88.2842	3,363.28	87.2847	3,363.28	84.8921	3,363.28	87.3619	3,363.28	86.4912	3,363.28	85.2317	3,363.28	86.5885	3,363.28	83.8358	3,363.28	78.6201	3,363.28	82.0316	3,363.28	82.6075	3,363.28	78.09	3,363.28	84.0932	3,363.28	76.3651	3,363.28	81.8872	3,363.28	75.9873	3,363.28	82.274	3,363.28	72.2725	3,363.28	70.5807	3,363.28	69.1638	3,363.28	64.8824	3,363.28	70.6761	3,363.28	66.7084	3,363.28	69.7977	3,363.28	74.5838	3,363.28	73.0653	3,363.28	67.594	3,363.28	70.6379	3,363.28	60.1792	3,363.28	69.2005	3,363.28	73.4922	3,363.28	67.1564	3,363.28	71.1301	3,363.28	66.1944
3,481.93	88.7857	3,481.93	87.1472	3,481.93	88.6735	3,481.93	88.1015	3,481.93	86.0224	3,481.93	86.3869	3,481.93	86.3047	3,481.93	85.6997	3,481.93	86.7622	3,481.93	83.2137	3,481.93	76.2574	3,481.93	81.2102	3,481.93	83.6713	3,481.93	79.0747	3,481.93	83.3132	3,481.93	79.0627	3,481.93	82.532	3,481.93	71.741	3,481.93	78.5998	3,481.93	70.1506	3,481.93	62.1305	3,481.93	69.5257	3,481.93	58.6796	3,481.93	66.7706	3,481.93	66.9513	3,481.93	69.0758	3,481.93	73.3813	3,481.93	72.4524	3,481.93	65.8349	3,481.93	72.837	3,481.93	60.9582	3,481.93	70.7829	3,481.93	73.596	3,481.93	66.9582	3,481.93	66.8281	3,481.93	61.4399
3,604.98	89.2431	3,604.98	87.1569	3,604.98	87.9958	3,604.98	88.593	3,604.98	86.9806	3,604.98	87.5133	3,604.98	86.6478	3,604.98	85.1942	3,604.98	87.4207	3,604.98	83.6073	3,604.98	80.3906	3,604.98	81.4074	3,604.98	84.0272	3,604.98	79.6837	3,604.98	82.2869	3,604.98	75.8591	3,604.98	81.9846	3,604.98	75.6362	3,604.98	71.7663	3,604.98	71.9825	3,604.98	62.1743	3,604.98	69.9449	3,604.98	56.4444	3,604.98	68.7874	3,604.98	67.3977	3,604.98	69.6189	3,604.98	73.6245	3,604.98	71.2097	3,604.98	66.8476	3,604.98	73.1579	3,604.98	54.2657	3,604.98	72.7466	3,604.98	71.7907	3,604.98	67.291	3,604.98	64.3707	3,604.98	62.4678
3,732.42	89.9148	3,732.42	88.0292	3,732.42	88.4843	3,732.42	88.6385	3,732.42	86.3461	3,732.42	87.4692	3,732.42	86.4902	3,732.42	85.6142	3,732.42	87.0329	3,732.42	83.5532	3,732.42	81.2709	3,732.42	82.4587	3,732.42	83.2792	3,732.42	78.8646	3,732.42	81.4351	3,732.42	78.649	3,732.42	79.3931	3,732.42	74.3325	3,732.42	73.4604	3,732.42	69.1333	3,732.42	69.6283	3,732.42	67.7377	3,732.42	65.2274	3,732.42	65.1974	3,732.42	68.6921	3,732.42	69.2552	3,732.42	69.6985	3,732.42	70.8225	3,732.42	68.7754	3,732.42	72.1234	3,732.42	57.7753	3,732.42	71.5075	3,732.42	71.1831	3,732.42	65.0233	3,732.42	64.7364	3,732.42	61.2381
3,864.26	89.5306	3,864.26	87.8424	3,864.26	89.1396	3,864.26	88.3845	3,864.26	88.0773	3,864.26	87.0209	3,864.26	86.4433	3,864.26	85.1202	3,864.26	86.9218	3,864.26	84.7253	3,864.26	82.5402	3,864.26	81.3638	3,864.26	80.7766	3,864.26	80.2035	3,864.26	81.0552	3,864.26	75.4848	3,864.26	76.962	3,864.26	73.6163	3,864.26	73.6291	3,864.26	71.0262	3,864.26	69.6648	3,864.26	66.1626	3,864.26	63.5323	3,864.26	69.8244	3,864.26	69.0829	3,864.26	69.0166	3,864.26	65.8684	3,864.26	71.0882	3,864.26	70.0725	3,864.26	73.6677	3,864.26	58.8165	3,864.26	73.3971	3,864.26	72.1741	3,864.26	70.0579	3,864.26	62.619	3,864.26	61.149
4,000.49	89.0562	4,000.49	87.1642	4,000.49	87.5251	4,000.49	88.5278	4,000.49	88.5953	4,000.49	87.478	4,000.49	86.5179	4,000.49	85.5293	4,000.49	87.1288	4,000.49	84.0307	4,000.49	83.2098	4,000.49	81.5786	4,000.49	80.5586	4,000.49	78.3398	4,000.49	79.6591	4,000.49	77.7269	4,000.49	78.0531	4,000.49	75.5218	4,000.49	73.0352	4,000.49	73.5829	4,000.49	74.8768	4,000.49	70.6763	4,000.49	62.9094	4,000.49	66.3313	4,000.49	71.2414	4,000.49	68.9702	4,000.49	61.1864	4,000.49	69.937	4,000.49	70.7518	4,000.49	71.5907	4,000.49	61.4084	4,000.49	72.3199	4,000.49	71.1312	4,000.49	69.2434	4,000.49	58.736	4,000.49	65.1531
4,141.11	89.8542	4,141.11	87.481	4,141.11	87.477	4,141.11	89.2081	4,141.11	87.9069	4,141.11	87.3579	4,141.11	87.3086	4,141.11	85.1623	4,141.11	86.016	4,141.11	84.5329	4,141.11	83.951	4,141.11	80.821	4,141.11	80.7087	4,141.11	79.2924	4,141.11	76.6412	4,141.11	77.1535	4,141.11	71.2217	4,141.11	69.469	4,141.11	78.1258	4,141.11	69.9915	4,141.11	75.9228	4,141.11	66.8368	4,141.11	65.218	4,141.11	69.1736	4,141.11	71.1843	4,141.11	68.2504	4,141.11	59.2042	4,141.11	69.8937	4,141.11	68.2559	4,141.11	73.1101	4,141.11	59.0574	4,141.11	71.5533	4,141.11	69.5238	4,141.11	68.8278	4,141.11	60.1982	4,141.11	66.6566
4,287.6	89.4407	4,287.6	88.4882	4,287.6	88.0381	4,287.6	88.8579	4,287.6	87.0053	4,287.6	85.9578	4,287.6	87.5158	4,287.6	86.5545	4,287.6	87.2387	4,287.6	83.3081	4,287.6	84.6679	4,287.6	81.828	4,287.6	74.8386	4,287.6	77.7921	4,287.6	78.2101	4,287.6	78.2156	4,287.6	79.2693	4,287.6	74.8235	4,287.6	81.3819	4,287.6	70.8204	4,287.6	74.099	4,287.6	67.693	4,287.6	66.9339	4,287.6	67.3293	4,287.6	72.054	4,287.6	67.3103	4,287.6	61.8034	4,287.6	69.7758	4,287.6	67.7484	4,287.6	73.1409	4,287.6	57.9023	4,287.6	72.1042	4,287.6	68.6506	4,287.6	69.9693	4,287.6	59.1693	4,287.6	64.437
4,438.48	88.6276	4,438.48	87.538	4,438.48	87.9786	4,438.48	88.48	4,438.48	87.3861	4,438.48	87.9331	4,438.48	86.8421	4,438.48	85.1129	4,438.48	87.1086	4,438.48	83.8247	4,438.48	84.8668	4,438.48	79.425	4,438.48	59.1057	4,438.48	79.2922	4,438.48	81.5992	4,438.48	75.0489	4,438.48	81.9489	4,438.48	73.4126	4,438.48	78.3088	4,438.48	73.0952	4,438.48	71.7279	4,438.48	65.1274	4,438.48	69.4088	4,438.48	69.1262	4,438.48	71.8504	4,438.48	67.7292	4,438.48	70.4138	4,438.48	68.1561	4,438.48	70.1986	4,438.48	72.6823	4,438.48	52.2219	4,438.48	72.7507	4,438.48	69.2097	4,438.48	69.1192	4,438.48	62.8021	4,438.48	66.2449
4,595.21	88.0637	4,595.21	87.9823	4,595.21	88.2212	4,595.21	87.365	4,595.21	87.4636	4,595.21	86.266	4,595.21	87.8891	4,595.21	85.945	4,595.21	87.3972	4,595.21	82.9538	4,595.21	86.1963	4,595.21	81.5007	4,595.21	75.2524	4,595.21	76.6584	4,595.21	84.6779	4,595.21	78.3055	4,595.21	80.9939	4,595.21	72.5976	4,595.21	78.2424	4,595.21	69.774	4,595.21	71.6204	4,595.21	67.8877	4,595.21	64.4893	4,595.21	68.3157	4,595.21	69.7099	4,595.21	63.7662	4,595.21	72.2876	4,595.21	69.0403	4,595.21	69.4078	4,595.21	73.5462	4,595.21	60.8447	4,595.21	72.411	4,595.21	67.7127	4,595.21	72.2736	4,595.21	59.4672	4,595.21	68.3311
4,756.35	87.7698	4,756.35	88.5466	4,756.35	87.1387	4,756.35	88.7646	4,756.35	87.3004	4,756.35	87.3066	4,756.35	88.1353	4,756.35	85.51	4,756.35	85.8535	4,756.35	82.6552	4,756.35	85.2201	4,756.35	80.7647	4,756.35	78.2133	4,756.35	79.4524	4,756.35	85.0166	4,756.35	76.0866	4,756.35	75.9934	4,756.35	74.8057	4,756.35	79.0199	4,756.35	69.9304	4,756.35	70.8394	4,756.35	63.2842	4,756.35	59.261	4,756.35	67.5242	4,756.35	62.6535	4,756.35	66.4212	4,756.35	70.7885	4,756.35	69.429	4,756.35	67.102	4,756.35	72.7279	4,756.35	57.9512	4,756.35	72.5525	4,756.35	66.732	4,756.35	72.8165	4,756.35	49.4802	4,756.35	66.857
4,924.8	88.6752	4,924.8	87.6104	4,924.8	88.4426	4,924.8	87.996	4,924.8	86.0957	4,924.8	87.3498	4,924.8	86.6846	4,924.8	85.5272	4,924.8	85.022	4,924.8	83.4355	4,924.8	85.0386	4,924.8	81.347	4,924.8	78.966	4,924.8	79.0996	4,924.8	83.5044	4,924.8	77.0594	4,924.8	74.3401	4,924.8	75.303	4,924.8	76.4457	4,924.8	70.7212	4,924.8	73.9467	4,924.8	69.8455	4,924.8	67.1087	4,924.8	67.7842	4,924.8	58.2801	4,924.8	66.8509	4,924.8	69.1146	4,924.8	66.2607	4,924.8	67.7328	4,924.8	72.3133	4,924.8	60.7519	4,924.8	71.469	4,924.8	62.4009	4,924.8	72.4159	4,924.8	61.9292	4,924.8	69.3452
5,097.66	88.1931	5,097.66	87.8413	5,097.66	88.6389	5,097.66	88.6232	5,097.66	87.4964	5,097.66	86.3374	5,097.66	85.3199	5,097.66	84.9758	5,097.66	82.931	5,097.66	83.4685	5,097.66	83.2186	5,097.66	82.268	5,097.66	76.7528	5,097.66	79.7413	5,097.66	81.2071	5,097.66	74.9594	5,097.66	77.1722	5,097.66	73.2864	5,097.66	75.1112	5,097.66	68.4805	5,097.66	73.3956	5,097.66	68.7872	5,097.66	62.6536	5,097.66	65.1311	5,097.66	55.9495	5,097.66	65.5153	5,097.66	67.5316	5,097.66	67.1114	5,097.66	69.3854	5,097.66	71.9933	5,097.66	63.5178	5,097.66	70.2878	5,097.66	66.1006	5,097.66	71.7732	5,097.66	61.7476	5,097.66	69.8297
5,277.83	88.5925	5,277.83	87.8663	5,277.83	88.4476	5,277.83	88.448	5,277.83	87.5354	5,277.83	86.0115	5,277.83	87.0283	5,277.83	85.625	5,277.83	79.9493	5,277.83	84.2778	5,277.83	84.2197	5,277.83	80.8295	5,277.83	77.3968	5,277.83	78.7313	5,277.83	78.347	5,277.83	76.3075	5,277.83	80.4148	5,277.83	73.3688	5,277.83	75.8086	5,277.83	68.009	5,277.83	73.6343	5,277.83	65.7258	5,277.83	63.7876	5,277.83	65.9865	5,277.83	50.4923	5,277.83	67.1559	5,277.83	64.9143	5,277.83	65.4183	5,277.83	69.0377	5,277.83	71.6142	5,277.83	61.486	5,277.83	69.7716	5,277.83	68.7186	5,277.83	68.7357	5,277.83	61.2898	5,277.83	67.6403
5,463.87	88.5374	5,463.87	88.4405	5,463.87	88.6042	5,463.87	87.8128	5,463.87	88.4784	5,463.87	86.4968	5,463.87	88.9658	5,463.87	85.4103	5,463.87	82.4529	5,463.87	84.0523	5,463.87	86.3792	5,463.87	80.564	5,463.87	81.2401	5,463.87	79.6895	5,463.87	71.2107	5,463.87	75.9212	5,463.87	78.4604	5,463.87	76.3835	5,463.87	77.5593	5,463.87	67.346	5,463.87	76.0223	5,463.87	69.8122	5,463.87	66.7764	5,463.87	65.5965	5,463.87	56.5017	5,463.87	65.8159	5,463.87	51.1833	5,463.87	63.8092	5,463.87	70.3759	5,463.87	70.8188	5,463.87	63.6239	5,463.87	70.6796	5,463.87	71.4745	5,463.87	68.8163	5,463.87	65.0992	5,463.87	69.3344
5,657.23	88.5649	5,657.23	88.8283	5,657.23	89.7673	5,657.23	87.7815	5,657.23	87.5637	5,657.23	86.5495	5,657.23	87.1558	5,657.23	85.0093	5,657.23	84.88	5,657.23	84.2056	5,657.23	86.255	5,657.23	81.2326	5,657.23	81.3699	5,657.23	80.0774	5,657.23	72.8818	5,657.23	75.1257	5,657.23	79.8772	5,657.23	70.5052	5,657.23	73.8098	5,657.23	67.8491	5,657.23	74.5473	5,657.23	65.1525	5,657.23	66.9456	5,657.23	62.5204	5,657.23	61.1187	5,657.23	68.1662	5,657.23	67.0773	5,657.23	64.6431	5,657.23	65.9123	5,657.23	70.3623	5,657.23	65.1291	5,657.23	67.0539	5,657.23	70.1281	5,657.23	69.1181	5,657.23	65.6194	5,657.23	67.806
5,856.45	87.1431	5,856.45	89.0427	5,856.45	89.2587	5,856.45	86.6221	5,856.45	85.6963	5,856.45	86.2446	5,856.45	86.2975	5,856.45	85.002	5,856.45	85.5029	5,856.45	84.1129	5,856.45	86.1384	5,856.45	81.6242	5,856.45	81.7969	5,856.45	77.4717	5,856.45	74.3161	5,856.45	76.261	5,856.45	80.8168	5,856.45	72.1168	5,856.45	76.7763	5,856.45	69.1868	5,856.45	73.525	5,856.45	65.3576	5,856.45	59.7857	5,856.45	64.4625	5,856.45	63.6977	5,856.45	66.9133	5,856.45	68.4792	5,856.45	63.0427	5,856.45	60.8827	5,856.45	68.1349	5,856.45	67.8613	5,856.45	64.0278	5,856.45	64.0545	5,856.45	65.0392	5,856.45	65.1438	5,856.45	69.4331
6,062.99	88.7643	6,062.99	88.8157	6,062.99	89.4407	6,062.99	87.0524	6,062.99	87.9307	6,062.99	86.8474	6,062.99	87.4365	6,062.99	85.2948	6,062.99	84.3919	6,062.99	83.999	6,062.99	84.4865	6,062.99	80.9858	6,062.99	82.2686	6,062.99	77.5159	6,062.99	77.9568	6,062.99	73.2951	6,062.99	82.0055	6,062.99	72.7435	6,062.99	76.0322	6,062.99	66.3368	6,062.99	75.4031	6,062.99	64.9858	6,062.99	68.0522	6,062.99	63.4463	6,062.99	66.1056	6,062.99	67.3258	6,062.99	63.5437	6,062.99	65.5197	6,062.99	60.7259	6,062.99	67.2486	6,062.99	65.7941	6,062.99	63.2579	6,062.99	61.0866	6,062.99	66.9737	6,062.99	65.2945	6,062.99	71.6728
6,276.86	88.8678	6,276.86	88.1118	6,276.86	88.9738	6,276.86	87.836	6,276.86	86.8101	6,276.86	86.4178	6,276.86	88.1696	6,276.86	86.4897	6,276.86	82.2092	6,276.86	83.7999	6,276.86	82.2242	6,276.86	79.9526	6,276.86	82.1988	6,276.86	78.3062	6,276.86	78.4949	6,276.86	73.0588	6,276.86	82.8419	6,276.86	73.0482	6,276.86	76.5735	6,276.86	66.3678	6,276.86	72.9547	6,276.86	65.1084	6,276.86	67.3969	6,276.86	60.7794	6,276.86	65.189	6,276.86	67.1792	6,276.86	64.9027	6,276.86	66.78	6,276.86	60.1269	6,276.86	64.798	6,276.86	64.6592	6,276.86	63.3355	6,276.86	63.83	6,276.86	66.8698	6,276.86	65.3961	6,276.86	69.9481
6,498.05	89.0322	6,498.05	88.2898	6,498.05	87.7838	6,498.05	87.5923	6,498.05	84.099	6,498.05	86.6048	6,498.05	87.7967	6,498.05	86.2287	6,498.05	80.8432	6,498.05	83.9964	6,498.05	82.3945	6,498.05	80.2924	6,498.05	81.3743	6,498.05	78.826	6,498.05	74.251	6,498.05	74.143	6,498.05	81.4013	6,498.05	72.7217	6,498.05	76.7516	6,498.05	67.7912	6,498.05	74.8525	6,498.05	65.467	6,498.05	60.3689	6,498.05	61.4416	6,498.05	63.5365	6,498.05	68.2731	6,498.05	60.5858	6,498.05	66.7617	6,498.05	45.5067	6,498.05	60.2641	6,498.05	62.2701	6,498.05	59.352	6,498.05	66.3176	6,498.05	61.9766	6,498.05	68.2813	6,498.05	68.1997
6,726.56	88.93	6,726.56	88.3067	6,726.56	89.4864	6,726.56	87.6934	6,726.56	86.8992	6,726.56	86.998	6,726.56	85.7517	6,726.56	85.6816	6,726.56	85.3778	6,726.56	84.2781	6,726.56	82.8815	6,726.56	80.8544	6,726.56	81.8566	6,726.56	78.4837	6,726.56	72.2792	6,726.56	74.4829	6,726.56	77.3756	6,726.56	72.787	6,726.56	73.8989	6,726.56	67.368	6,726.56	73.5797	6,726.56	61.5785	6,726.56	57.5865	6,726.56	59.4617	6,726.56	57.4793	6,726.56	67.0936	6,726.56	51.6619	6,726.56	67.382	6,726.56	60.093	6,726.56	64.4706	6,726.56	63.9789	6,726.56	60.1565	6,726.56	62.369	6,726.56	57.4085	6,726.56	67.2532	6,726.56	70.3089
6,963.87	88.1848	6,963.87	87.8802	6,963.87	88.5665	6,963.87	87.5304	6,963.87	87.4902	6,963.87	87.0186	6,963.87	85.6479	6,963.87	85.674	6,963.87	87.7905	6,963.87	83.7246	6,963.87	83.3995	6,963.87	81.3958	6,963.87	82.5624	6,963.87	78.6594	6,963.87	70.785	6,963.87	75.0079	6,963.87	71.9293	6,963.87	71.3247	6,963.87	70.6293	6,963.87	67.7877	6,963.87	68.1577	6,963.87	61.1448	6,963.87	63.2764	6,963.87	58.0164	6,963.87	57.0514	6,963.87	64.8847	6,963.87	55.2149	6,963.87	67.7595	6,963.87	62.5927	6,963.87	61.8198	6,963.87	65.4675	6,963.87	59.5952	6,963.87	64.4749	6,963.87	55.2175	6,963.87	63.9862	6,963.87	69.6216
7,209.96	89.1186	7,209.96	87.4509	7,209.96	87.9266	7,209.96	87.7244	7,209.96	87.1951	7,209.96	86.4973	7,209.96	87.3516	7,209.96	85.4249	7,209.96	87.5201	7,209.96	84.068	7,209.96	83.9797	7,209.96	81.0113	7,209.96	82.2093	7,209.96	78.0548	7,209.96	76.7346	7,209.96	72.8744	7,209.96	79.1065	7,209.96	71.0778	7,209.96	71.0052	7,209.96	66.3592	7,209.96	70.8873	7,209.96	54.4402	7,209.96	62.1334	7,209.96	60.1736	7,209.96	52.3171	7,209.96	66.5374	7,209.96	58.3299	7,209.96	68.0982	7,209.96	64.4376	7,209.96	60.0448	7,209.96	64.3805	7,209.96	55.8166	7,209.96	64.7465	7,209.96	63.3249	7,209.96	61.6683	7,209.96	67.8971
7,464.84	88.6162	7,464.84	87.8443	7,464.84	88.6938	7,464.84	87.3132	7,464.84	87.6588	7,464.84	86.8083	7,464.84	86.9507	7,464.84	84.8798	7,464.84	85.9235	7,464.84	83.2719	7,464.84	84.5988	7,464.84	81.4651	7,464.84	78.3158	7,464.84	76.6974	7,464.84	80.9435	7,464.84	73.3533	7,464.84	78.5531	7,464.84	69.1709	7,464.84	71.6893	7,464.84	65.5761	7,464.84	72.6645	7,464.84	58.0853	7,464.84	62.1929	7,464.84	56.776	7,464.84	53.3822	7,464.84	62.4417	7,464.84	57.118	7,464.84	67.5939	7,464.84	63.2035	7,464.84	59.4932	7,464.84	58.3622	7,464.84	58.1469	7,464.84	60.5676	7,464.84	58.1696	7,464.84	62.0539	7,464.84	66.2401
7,727.05	88.3105	7,727.05	87.6144	7,727.05	87.5635	7,727.05	87.41	7,727.05	87.1349	7,727.05	86.1443	7,727.05	86.6184	7,727.05	84.0453	7,727.05	85.0296	7,727.05	83.8603	7,727.05	83.8221	7,727.05	78.9059	7,727.05	77.6147	7,727.05	74.6715	7,727.05	81.2781	7,727.05	70.4912	7,727.05	73.9975	7,727.05	67.6773	7,727.05	68.6551	7,727.05	63.3659	7,727.05	71.7277	7,727.05	55.7852	7,727.05	61.1552	7,727.05	58.3419	7,727.05	50.144	7,727.05	58.6649	7,727.05	55.8305	7,727.05	66.043	7,727.05	59.6198	7,727.05	58.154	7,727.05	53.6248	7,727.05	57.3596	7,727.05	64.5387	7,727.05	58.7132	7,727.05	59.6957	7,727.05	64.1583
7,999.51	88.6546	7,999.51	88.2503	7,999.51	88.7033	7,999.51	87.4937	7,999.51	86.4145	7,999.51	85.903	7,999.51	86.4834	7,999.51	85.9009	7,999.51	85.7447	7,999.51	82.4091	7,999.51	82.8181	7,999.51	79.0324	7,999.51	83.2782	7,999.51	74.2678	7,999.51	82.1991	7,999.51	72.3584	7,999.51	56.9534	7,999.51	67.3655	7,999.51	70.7691	7,999.51	66.7402	7,999.51	68.2064	7,999.51	53.8829	7,999.51	57.7684	7,999.51	56.2311	7,999.51	52.1201	7,999.51	59.8197	7,999.51	44.8582	7,999.51	65.7672	7,999.51	62.4225	7,999.51	62.3323	7,999.51	51.02	7,999.51	59.9502	7,999.51	60.0944	7,999.51	54.8435	7,999.51	62.0165	7,999.51	60.6612
8,282.23	87.997	8,282.23	88.4216	8,282.23	88.1443	8,282.23	87.447	8,282.23	87.9546	8,282.23	86.472	8,282.23	87.6506	8,282.23	85.2603	8,282.23	87.3013	8,282.23	82.61	8,282.23	81.0139	8,282.23	78.5548	8,282.23	84.5411	8,282.23	76.7465	8,282.23	76.9677	8,282.23	73.0548	8,282.23	65.6054	8,282.23	70.2901	8,282.23	70.2921	8,282.23	63.8157	8,282.23	64.6752	8,282.23	49.9013	8,282.23	59.6205	8,282.23	57.4898	8,282.23	50.8122	8,282.23	63.1185	8,282.23	54.9793	8,282.23	64.1369	8,282.23	59.3029	8,282.23	62.538	8,282.23	53.492	8,282.23	63.8257	8,282.23	55.1699	8,282.23	56.9461	8,282.23	61.0163	8,282.23	57.8917
8,573.73	88.1179	8,573.73	88.5072	8,573.73	88.3232	8,573.73	87.4035	8,573.73	87.827	8,573.73	86.1934	8,573.73	88.0782	8,573.73	85.3416	8,573.73	86.373	8,573.73	81.316	8,573.73	82.4073	8,573.73	79.6684	8,573.73	82.9367	8,573.73	76.1613	8,573.73	70.349	8,573.73	72.3803	8,573.73	68.414	8,573.73	69.3707	8,573.73	70.5524	8,573.73	66.7607	8,573.73	70.0219	8,573.73	58.7138	8,573.73	64.3851	8,573.73	48.7144	8,573.73	57.981	8,573.73	60.6018	8,573.73	58.1562	8,573.73	65.176	8,573.73	38.4321	8,573.73	60.6368	8,573.73	51.9256	8,573.73	65.113	8,573.73	50.3555	8,573.73	62.3695	8,573.73	55.708	8,573.73	56.7138
8,876.95	87.3824	8,876.95	88.4661	8,876.95	87.9529	8,876.95	87.3647	8,876.95	88.5174	8,876.95	86.6965	8,876.95	85.0486	8,876.95	84.1884	8,876.95	84.3685	8,876.95	81.8049	8,876.95	82.5883	8,876.95	79.6097	8,876.95	80.6735	8,876.95	75.0732	8,876.95	76.7671	8,876.95	71.8756	8,876.95	63.1016	8,876.95	66.8359	8,876.95	71.3903	8,876.95	63.477	8,876.95	66.8717	8,876.95	55.4634	8,876.95	66.622	8,876.95	57.3772	8,876.95	54.8838	8,876.95	61.549	8,876.95	49.0457	8,876.95	64.8484	8,876.95	54.8727	8,876.95	56.9493	8,876.95	48.282	8,876.95	66.338	8,876.95	57.2871	8,876.95	62.0909	8,876.95	54.8066	8,876.95	50.7096
9,188.96	87.9517	9,188.96	88.4087	9,188.96	87.8214	9,188.96	87.5159	9,188.96	89.0061	9,188.96	86.4814	9,188.96	86.1146	9,188.96	84.1669	9,188.96	83.5181	9,188.96	81.6131	9,188.96	83.5811	9,188.96	78.7981	9,188.96	79.0509	9,188.96	73.6532	9,188.96	74.8176	9,188.96	70.8332	9,188.96	67.2056	9,188.96	65.8499	9,188.96	63.7637	9,188.96	66.1199	9,188.96	60.4536	9,188.96	51.6193	9,188.96	60.4324	9,188.96	51.4185	9,188.96	50.7269	9,188.96	56.6019	9,188.96	51.2942	9,188.96	62.7598	9,188.96	55.4561	9,188.96	53.638	9,188.96	43.2266	9,188.96	62.6734	9,188.96	50.0789	9,188.96	60.6939	9,188.96	48.7527	9,188.96	53.6839
9,514.16	88.3645	9,514.16	88.0921	9,514.16	87.834	9,514.16	87.6758	9,514.16	88.6235	9,514.16	86.239	9,514.16	87.0121	9,514.16	84.3388	9,514.16	85.5332	9,514.16	81.9922	9,514.16	84.4603	9,514.16	78.7965	9,514.16	80.2699	9,514.16	75.0915	9,514.16	73.097	9,514.16	70.4997	9,514.16	70.7345	9,514.16	67.4856	9,514.16	66.8267	9,514.16	66.8572	9,514.16	65.1781	9,514.16	39.7629	9,514.16	65.8028	9,514.16	55.7552	9,514.16	33.076	9,514.16	57.9973	9,514.16	48.6128	9,514.16	62.4737	9,514.16	41.4635	9,514.16	60.8625	9,514.16	43.5742	9,514.16	61.1906	9,514.16	34.2381	9,514.16	60.2815	9,514.16	45.9315	9,514.16	54.0395
9,849.61	88.2984	9,849.61	88.125	9,849.61	87.9885	9,849.61	88.1514	9,849.61	88.7898	9,849.61	86.0141	9,849.61	86.2465	9,849.61	84.1066	9,849.61	85.385	9,849.61	81.7324	9,849.61	82.1342	9,849.61	78.4344	9,849.61	80.771	9,849.61	74.1119	9,849.61	71.0622	9,849.61	72.1432	9,849.61	70.9069	9,849.61	68.2644	9,849.61	67.0332	9,849.61	64.6657	9,849.61	65.0085	9,849.61	58.159	9,849.61	66.5002	9,849.61	43.0624	9,849.61	56.5414	9,849.61	59.7831	9,849.61	50.9212	9,849.61	61.1153	9,849.61	49.8321	9,849.61	61.7309	9,849.61	50.2541	9,849.61	63.5695	9,849.61	53.2116	9,849.61	62.8703	9,849.61	37.9097	9,849.61	53.0809
10,196.8	88.5872	10,196.8	88.4555	10,196.8	88.1418	10,196.8	88.3049	10,196.8	88.8344	10,196.8	85.7636	10,196.8	86.0964	10,196.8	83.8506	10,196.8	84.7107	10,196.8	81.2016	10,196.8	80.2913	10,196.8	78.0701	10,196.8	81.266	10,196.8	73.8244	10,196.8	72.4861	10,196.8	70.5612	10,196.8	68.5807	10,196.8	65.2668	10,196.8	56.7817	10,196.8	64.0677	10,196.8	61.841	10,196.8	44.1034	10,196.8	65.9501	10,196.8	50.663	10,196.8	52.8202	10,196.8	59.3882	10,196.8	37.0747	10,196.8	59.8991	10,196.8	43.5073	10,196.8	58.8117	10,196.8	41.851	10,196.8	61.7656	10,196.8	55.2486	10,196.8	61.1003	10,196.8	51.8175	10,196.8	52.1449
10,555.7	88.5833	10,555.7	88.5225	10,555.7	88.2501	10,555.7	88.0705	10,555.7	88.4111	10,555.7	85.7922	10,555.7	87.5582	10,555.7	83.5018	10,555.7	82.885	10,555.7	80.4167	10,555.7	83.2116	10,555.7	78.6762	10,555.7	79.5916	10,555.7	73.2446	10,555.7	76.1398	10,555.7	69.6768	10,555.7	69.1632	10,555.7	65.563	10,555.7	61.0021	10,555.7	64.4301	10,555.7	63.354	10,555.7	54.231	10,555.7	64.9539	10,555.7	53.3599	10,555.7	44.0419	10,555.7	55.5214	10,555.7	37.1834	10,555.7	54.4245	10,555.7	38.7909	10,555.7	58.9832	10,555.7	49.4428	10,555.7	58.4328	10,555.7	46.6351	10,555.7	58.1464	10,555.7	50.6612	10,555.7	53.5552
10,927.7	88.5705	10,927.7	88.8427	10,927.7	88.9023	10,927.7	87.7647	10,927.7	88.2418	10,927.7	85.5146	10,927.7	86.4143	10,927.7	83.3708	10,927.7	84.5634	10,927.7	80.1551	10,927.7	82.6649	10,927.7	78.1746	10,927.7	79.0046	10,927.7	72.6183	10,927.7	75.1551	10,927.7	69.7214	10,927.7	66.117	10,927.7	63.9407	10,927.7	62.9038	10,927.7	62.9003	10,927.7	61.5111	10,927.7	58.2255	10,927.7	65.7888	10,927.7	44.2992	10,927.7	47.2288	10,927.7	53.7588	10,927.7	50.4092	10,927.7	50.6211	10,927.7	41.0858	10,927.7	61.3174	10,927.7	53.7993	10,927.7	61.1524	10,927.7	49.9475	10,927.7	58.8949	10,927.7	44.3328	10,927.7	58.7037
11,313	88.5472	11,313	88.8205	11,313	88.8364	11,313	87.5666	11,313	88.0339	11,313	85.5779	11,313	86.0139	11,313	83.1531	11,313	84.611	11,313	80.502	11,313	81.1911	11,313	77.4796	11,313	80.2309	11,313	72.0765	11,313	75.2748	11,313	68.938	11,313	71.0882	11,313	65.1465	11,313	59.0003	11,313	64.3316	11,313	62.8416	11,313	53.9382	11,313	64.9866	11,313	51.8944	11,313	39.5384	11,313	53.2778	11,313	50.5188	11,313	55.2863	11,313	47.3077	11,313	59.8627	11,313	56.0385	11,313	61.2847	11,313	57.1453	11,313	60.6439	11,313	56.3799	11,313	59.661
11,712.9	88.2971	11,712.9	88.4097	11,712.9	88.7233	11,712.9	87.2886	11,712.9	87.7645	11,712.9	85.2452	11,712.9	86.7663	11,712.9	83.1676	11,712.9	80.7783	11,712.9	79.6279	11,712.9	81.7038	11,712.9	76.9192	11,712.9	79.7849	11,712.9	72.7853	11,712.9	75.5582	11,712.9	67.7686	11,712.9	70.2236	11,712.9	65.8071	11,712.9	52.2581	11,712.9	62.8094	11,712.9	64.5888	11,712.9	56.2408	11,712.9	65.3575	11,712.9	48.8817	11,712.9	45.1121	11,712.9	48.9925	11,712.9	48.094	11,712.9	53.8237	11,712.9	53.8454	11,712.9	58.6852	11,712.9	52.2984	11,712.9	59.7231	11,712.9	57.1822	11,712.9	56.7252	11,712.9	52.9875	11,712.9	59.1631
12,126	87.9859	12,126	88.148	12,126	88.6422	12,126	87.0187	12,126	87.6322	12,126	84.6141	12,126	86.0555	12,126	82.9059	12,126	83.5211	12,126	79.0434	12,126	81.4352	12,126	76.1077	12,126	80.3937	12,126	72.6169	12,126	78.0507	12,126	68.1784	12,126	70.2708	12,126	64.8117	12,126	54.176	12,126	63.0538	12,126	62.852	12,126	60.8109	12,126	64.8001	12,126	47.6022	12,126	56.6342	12,126	42.5119	12,126	52.5464	12,126	44.5648	12,126	57.157	12,126	58.0698	12,126	58.7521	12,126	58.6336	12,126	55.2953	12,126	55.7579	12,126	50.4119	12,126	55.637
12,553.7	87.7116	12,553.7	87.65	12,553.7	88.0097	12,553.7	86.4381	12,553.7	87.3442	12,553.7	83.9886	12,553.7	87.1884	12,553.7	82.7671	12,553.7	84.6979	12,553.7	78.2477	12,553.7	81.7057	12,553.7	75.3748	12,553.7	77.4954	12,553.7	71.0476	12,553.7	77.3866	12,553.7	67.6446	12,553.7	71.1037	12,553.7	63.2226	12,553.7	55.7913	12,553.7	63.1227	12,553.7	61.7625	12,553.7	57.612	12,553.7	66.9091	12,553.7	53.3217	12,553.7	54.3089	12,553.7	51.946	12,553.7	53.9746	12,553.7	48.6943	12,553.7	57.3971	12,553.7	57.05	12,553.7	56.488	12,553.7	59.6107	12,553.7	55.4009	12,553.7	56.4217	12,553.7	56.2053	12,553.7	54.1693
12,996.1	87.2561	12,996.1	87.0309	12,996.1	87.2966	12,996.1	85.9783	12,996.1	85.9093	12,996.1	83.4175	12,996.1	85.4923	12,996.1	81.8306	12,996.1	83.3172	12,996.1	77.8274	12,996.1	81.412	12,996.1	75.0686	12,996.1	79.951	12,996.1	70.5292	12,996.1	76.9347	12,996.1	67.6392	12,996.1	72.1553	12,996.1	63.917	12,996.1	56.0123	12,996.1	61.7481	12,996.1	64.6685	12,996.1	59.6418	12,996.1	65.6213	12,996.1	49.7936	12,996.1	34.0612	12,996.1	51.0312	12,996.1	47.7256	12,996.1	44.5945	12,996.1	49.4679	12,996.1	57.4831	12,996.1	50.4797	12,996.1	59.9596	12,996.1	58.1241	12,996.1	57.6581	12,996.1	57.7409	12,996.1	54.3754
13,454.6	86.6541	13,454.6	85.9644	13,454.6	86.347	13,454.6	85.0153	13,454.6	85.9017	13,454.6	82.8689	13,454.6	84.9762	13,454.6	81.0386	13,454.6	83.139	13,454.6	77.9224	13,454.6	79.8847	13,454.6	75.5015	13,454.6	80.0651	13,454.6	70.9192	13,454.6	75.7741	13,454.6	67.9759	13,454.6	71.9936	13,454.6	63.8712	13,454.6	58.7463	13,454.6	59.7199	13,454.6	61.2798	13,454.6	61.0135	13,454.6	64.383	13,454.6	51.1636	13,454.6	47.789	13,454.6	49.0053	13,454.6	53.2416	13,454.6	21.9175	13,454.6	51.5427	13,454.6	56.8103	13,454.6	53.8131	13,454.6	58.6688	13,454.6	55.9368	13,454.6	54.2464	13,454.6	57.0174	13,454.6	52.969
13,929.2	85.5639	13,929.2	84.6144	13,929.2	85.1876	13,929.2	83.928	13,929.2	84.7253	13,929.2	82.2525	13,929.2	84.6809	13,929.2	80.4333	13,929.2	83.5741	13,929.2	77.5202	13,929.2	78.0662	13,929.2	75.9241	13,929.2	79.3768	13,929.2	70.7845	13,929.2	76.6216	13,929.2	66.8181	13,929.2	70.5058	13,929.2	63.4614	13,929.2	58.5723	13,929.2	58.1747	13,929.2	63.1037	13,929.2	61.9674	13,929.2	66.1376	13,929.2	45.9072	13,929.2	48.3639	13,929.2	44.5607	13,929.2	57.0559	13,929.2	34.3278	13,929.2	53.5487	13,929.2	51.4766	13,929.2	55.4955	13,929.2	54.2343	13,929.2	55.8113	13,929.2	51.4949	13,929.2	55.4812	13,929.2	48.9053
14,419.9	84.8625	14,419.9	83.5148	14,419.9	84.0706	14,419.9	83.28	14,419.9	84.0205	14,419.9	82.2486	14,419.9	83.8963	14,419.9	80.9036	14,419.9	81.5605	14,419.9	78.228	14,419.9	79.0785	14,419.9	76.3402	14,419.9	77.031	14,419.9	71.1505	14,419.9	76.1115	14,419.9	67.0997	14,419.9	69.5413	14,419.9	64.9631	14,419.9	59.2515	14,419.9	56.6233	14,419.9	61.6299	14,419.9	62.8188	14,419.9	65.0553	14,419.9	49.3538	14,419.9	47.9288	14,419.9	42.8053	14,419.9	53.6114	14,419.9	39.4572	14,419.9	56.7302	14,419.9	47.7741	14,419.9	54.7188	14,419.9	53.5719	14,419.9	51.8344	14,419.9	53.3627	14,419.9	49.2463	14,419.9	44.8643
14,928.2	84.1601	14,928.2	82.6325	14,928.2	83.8901	14,928.2	82.7525	14,928.2	84.0834	14,928.2	82.3587	14,928.2	84.1299	14,928.2	81.1857	14,928.2	83.5346	14,928.2	78.9282	14,928.2	80.6705	14,928.2	76.518	14,928.2	77.814	14,928.2	70.7366	14,928.2	73.5217	14,928.2	67.2507	14,928.2	71.8171	14,928.2	63.9677	14,928.2	60.7644	14,928.2	51.5756	14,928.2	63.2554	14,928.2	62.833	14,928.2	66.1064	14,928.2	46.8307	14,928.2	50.1209	14,928.2	44.4559	14,928.2	46.4559	14,928.2	42.4862	14,928.2	55.1915	14,928.2	50.475	14,928.2	46.2165	14,928.2	51.5452	14,928.2	41.3474	14,928.2	54.3736	14,928.2	25.1612	14,928.2	45.6382
15,455.6	83.7866	15,455.6	82.3705	15,455.6	83.8668	15,455.6	83.0804	15,455.6	84.4095	15,455.6	82.6651	15,455.6	84.1361	15,455.6	81.4987	15,455.6	82.3776	15,455.6	79.0464	15,455.6	80.1514	15,455.6	76.5928	15,455.6	73.1145	15,455.6	70.6474	15,455.6	75.1878	15,455.6	66.1215	15,455.6	66.3234	15,455.6	63.5713	15,455.6	56.9519	15,455.6	47.0242	15,455.6	63.2124	15,455.6	63.0394	15,455.6	67.0021	15,455.6	43.6784	15,455.6	40.5161	15,455.6	33.6273	15,455.6	41.0542	15,455.6	44.8394	15,455.6	42.5709	15,455.6	51.0718	15,455.6	47.2899	15,455.6	47.0147	15,455.6	50.8993	15,455.6	54.8047	15,455.6	48.2459	15,455.6	51.2145
16,000.5	84.4525	16,000.5	83.8799	16,000.5	84.1548	16,000.5	83.7718	16,000.5	84.4762	16,000.5	83.5262	16,000.5	83.4919	16,000.5	82.3221	16,000.5	81.5666	16,000.5	79.061	16,000.5	79.9204	16,000.5	76.2611	16,000.5	74.985	16,000.5	69.9192	16,000.5	71.4201	16,000.5	65.4597	16,000.5	66.4542	16,000.5	61.3216	16,000.5	59.6607	16,000.5	46.6855	16,000.5	64.0733	16,000.5	62.5948	16,000.5	67.3123	16,000.5	33.0458	16,000.5	51.3003	16,000.5	46.5364	16,000.5	29.7982	16,000.5	44.7691	16,000.5	47.0532	16,000.5	52.8613	16,000.5	43.3034	16,000.5	46.3615	16,000.5	45.8592	16,000.5	55.6249	16,000.5	47.5321	16,000.5	50.2599
16,564.5	84.7306	16,564.5	84.3288	16,564.5	84.3975	16,564.5	83.925	16,564.5	84.0124	16,564.5	82.9695	16,564.5	83.8678	16,564.5	81.5525	16,564.5	81.7172	16,564.5	77.951	16,564.5	78.0066	16,564.5	74.8845	16,564.5	73.3578	16,564.5	68.3983	16,564.5	70.5461	16,564.5	63.8434	16,564.5	64.5314	16,564.5	58.6504	16,564.5	58.7818	16,564.5	49.9463	16,564.5	62.8289	16,564.5	60.4529	16,564.5	67.8373	16,564.5	37.2968	16,564.5	43.5144	16,564.5	43.673	16,564.5	43.1808	16,564.5	43.7831	16,564.5	42.7584	16,564.5	48.7568	16,564.5	50.2279	16,564.5	43.3842	16,564.5	45.7208	16,564.5	52.2682	16,564.5	45.1676	16,564.5	43.5777
17,148.9	84.8252	17,148.9	84.8617	17,148.9	84.3434	17,148.9	84.6791	17,148.9	84.056	17,148.9	83.7774	17,148.9	82.9248	17,148.9	82.0356	17,148.9	81.5933	17,148.9	77.9617	17,148.9	77.428	17,148.9	74.7088	17,148.9	74.3507	17,148.9	67.9481	17,148.9	67.3972	17,148.9	62.8831	17,148.9	63.9863	17,148.9	56.7703	17,148.9	60.3934	17,148.9	52.2127	17,148.9	63.5291	17,148.9	60.5154	17,148.9	68.7879	17,148.9	43.5533	17,148.9	48.0504	17,148.9	48.7172	17,148.9	44.0736	17,148.9	48.1286	17,148.9	44.688	17,148.9	46.1076	17,148.9	46.6814	17,148.9	48.6913	17,148.9	41.8909	17,148.9	54.8491	17,148.9	41.427	17,148.9	49.9544
17,752.4	85.6328	17,752.4	85.7804	17,752.4	84.9434	17,752.4	85.1506	17,752.4	84.1992	17,752.4	84.365	17,752.4	83.2603	17,752.4	82.4841	17,752.4	81.5857	17,752.4	77.6793	17,752.4	77.5432	17,752.4	74.3506	17,752.4	73.7154	17,752.4	67.7556	17,752.4	66.6547	17,752.4	62.3746	17,752.4	66.1714	17,752.4	56.4376	17,752.4	60.0869	17,752.4	53.5976	17,752.4	65.3289	17,752.4	58.7614	17,752.4	69.5272	17,752.4	44.5885	17,752.4	47.2264	17,752.4	47.3507	17,752.4	40.2888	17,752.4	51.0711	17,752.4	41.6278	17,752.4	50.7518	17,752.4	38.6615	17,752.4	49.7432	17,752.4	36.1164	17,752.4	54.3646	17,752.4	39.9172	17,752.4	44.7088
18,379.4	86.7569	18,379.4	86.7047	18,379.4	86.0443	18,379.4	85.6901	18,379.4	84.8746	18,379.4	84.7509	18,379.4	83.422	18,379.4	82.5986	18,379.4	81.6233	18,379.4	77.5597	18,379.4	77.0138	18,379.4	73.5857	18,379.4	71.7837	18,379.4	67.4922	18,379.4	66.0986	18,379.4	62.028	18,379.4	64.1555	18,379.4	55.9973	18,379.4	56.3429	18,379.4	53.7044	18,379.4	64.546	18,379.4	56.9416	18,379.4	69.4614	18,379.4	48.6281	18,379.4	50.5684	18,379.4	49.5708	18,379.4	45.1887	18,379.4	51.039	18,379.4	39.8362	18,379.4	48.795	18,379.4	36.61	18,379.4	50.514	18,379.4	42.0395	18,379.4	49.8398	18,379.4	39.437	18,379.4	39.2798
19,026.9	87.9591	19,026.9	87.6756	19,026.9	87.2773	19,026.9	86.1382	19,026.9	85.2754	19,026.9	84.7609	19,026.9	83.7853	19,026.9	82.2889	19,026.9	81.7873	19,026.9	77.0687	19,026.9	77.8204	19,026.9	72.6232	19,026.9	70.0634	19,026.9	65.8663	19,026.9	64.68	19,026.9	60.1785	19,026.9	63.7996	19,026.9	54.8199	19,026.9	58.5357	19,026.9	53.0933	19,026.9	63.2726	19,026.9	54.6826	19,026.9	69.1748	19,026.9	47.5362	19,026.9	49.5005	19,026.9	51.5698	19,026.9	44.5438	19,026.9	51.2765	19,026.9	37.0705	19,026.9	45.9859	19,026.9	37.6779	19,026.9	51.5074	19,026.9	42.2341	19,026.9	43.5298	19,026.9	44.6678	19,026.9	17.8344
19,697.8	89.3959	19,697.8	88.7209	19,697.8	88.6328	19,697.8	86.6005	19,697.8	86.2548	19,697.8	84.5912	19,697.8	83.8257	19,697.8	81.7256	19,697.8	79.9125	19,697.8	75.9185	19,697.8	76.8479	19,697.8	71.0757	19,697.8	69.5844	19,697.8	65.2382	19,697.8	63.7698	19,697.8	59.6568	19,697.8	61.4761	19,697.8	53.7807	19,697.8	57.2807	19,697.8	52.199	19,697.8	63.3448	19,697.8	52.0137	19,697.8	68.9055	19,697.8	49.3208	19,697.8	47.9768	19,697.8	51.2765	19,697.8	39.2709	19,697.8	51.9724	19,697.8	35.7483	19,697.8	43.7674	19,697.8	19.572	19,697.8	49.4237	19,697.8	43.4269	19,697.8	35.7736	19,697.8	44.3313	19,697.8	34.6374
19,999.5	90.026	19,999.5	89.1629	19,999.5	89.0647	19,999.5	86.8658	19,999.5	86.1208	19,999.5	84.3033	19,999.5	83.5027	19,999.5	80.7452	19,999.5	80.1382	19,999.5	75.5927	19,999.5	76.5461	19,999.5	69.3118	19,999.5	71.2733	19,999.5	65.8543	19,999.5	59.1234	19,999.5	61.167	19,999.5	69.4188	19,999.5	56.6349	19,999.5	52.7476	19,999.5	50.0919	19,999.5	63.5576	19,999.5	44.1551	19,999.5	68.3765	19,999.5	54.2265	19,999.5	49.6687	19,999.5	49.0391	19,999.5	54.0445	19,999.5	53.7681	19,999.5	50.181	19,999.5	54.26	19,999.5	53.3054	19,999.5	53.7879	19,999.5	44.6405	19,999.5	49.6442	19,999.5	45.9312	19,999.5	43.984
