"SPL Horizontal"
"On-Axis"		"10°"		"-10°"		"20°"		"-20°"		"30°"		"-30°"		"40°"		"-40°"		"50°"		"-50°"		"60°"		"-60°"		"70°"		"-70°"		"80°"		"-80°"		"90°"		"-90°"		"100°"		"-100°"		"110°"		"-110°"		"120°"		"-120°"		"130°"		"-130°"		"140°"		"-140°"		"150°"		"-150°"		"160°"		"-160°"		"170°"		"-170°"		"180°"
"Frequency / Hz"	"Sound Pressure Level / dB (re 20 µPa/V)  [2.83  V @ 1. m]"	"Frequency / Hz"	"Sound Pressure Level / dB (re 20 µPa/V)  [2.83  V @ 1. m]"	"Frequency / Hz"	"Sound Pressure Level / dB (re 20 µPa/V)  [2.83  V @ 1. m]"	"Frequency / Hz"	"Sound Pressure Level / dB (re 20 µPa/V)  [2.83  V @ 1. m]"	"Frequency / Hz"	"Sound Pressure Level / dB (re 20 µPa/V)  [2.83  V @ 1. m]"	"Frequency / Hz"	"Sound Pressure Level / dB (re 20 µPa/V)  [2.83  V @ 1. m]"	"Frequency / Hz"	"Sound Pressure Level / dB (re 20 µPa/V)  [2.83  V @ 1. m]"	"Frequency / Hz"	"Sound Pressure Level / dB (re 20 µPa/V)  [2.83  V @ 1. m]"	"Frequency / Hz"	"Sound Pressure Level / dB (re 20 µPa/V)  [2.83  V @ 1. m]"	"Frequency / Hz"	"Sound Pressure Level / dB (re 20 µPa/V)  [2.83  V @ 1. m]"	"Frequency / Hz"	"Sound Pressure Level / dB (re 20 µPa/V)  [2.83  V @ 1. m]"	"Frequency / Hz"	"Sound Pressure Level / dB (re 20 µPa/V)  [2.83  V @ 1. m]"	"Frequency / Hz"	"Sound Pressure Level / dB (re 20 µPa/V)  [2.83  V @ 1. m]"	"Frequency / Hz"	"Sound Pressure Level / dB (re 20 µPa/V)  [2.83  V @ 1. m]"	"Frequency / Hz"	"Sound Pressure Level / dB (re 20 µPa/V)  [2.83  V @ 1. m]"	"Frequency / Hz"	"Sound Pressure Level / dB (re 20 µPa/V)  [2.83  V @ 1. m]"	"Frequency / Hz"	"Sound Pressure Level / dB (re 20 µPa/V)  [2.83  V @ 1. m]"	"Frequency / Hz"	"Sound Pressure Level / dB (re 20 µPa/V)  [2.83  V @ 1. m]"	"Frequency / Hz"	"Sound Pressure Level / dB (re 20 µPa/V)  [2.83  V @ 1. m]"	"Frequency / Hz"	"Sound Pressure Level / dB (re 20 µPa/V)  [2.83  V @ 1. m]"	"Frequency / Hz"	"Sound Pressure Level / dB (re 20 µPa/V)  [2.83  V @ 1. m]"	"Frequency / Hz"	"Sound Pressure Level / dB (re 20 µPa/V)  [2.83  V @ 1. m]"	"Frequency / Hz"	"Sound Pressure Level / dB (re 20 µPa/V)  [2.83  V @ 1. m]"	"Frequency / Hz"	"Sound Pressure Level / dB (re 20 µPa/V)  [2.83  V @ 1. m]"	"Frequency / Hz"	"Sound Pressure Level / dB (re 20 µPa/V)  [2.83  V @ 1. m]"	"Frequency / Hz"	"Sound Pressure Level / dB (re 20 µPa/V)  [2.83  V @ 1. m]"	"Frequency / Hz"	"Sound Pressure Level / dB (re 20 µPa/V)  [2.83  V @ 1. m]"	"Frequency / Hz"	"Sound Pressure Level / dB (re 20 µPa/V)  [2.83  V @ 1. m]"	"Frequency / Hz"	"Sound Pressure Level / dB (re 20 µPa/V)  [2.83  V @ 1. m]"	"Frequency / Hz"	"Sound Pressure Level / dB (re 20 µPa/V)  [2.83  V @ 1. m]"	"Frequency / Hz"	"Sound Pressure Level / dB (re 20 µPa/V)  [2.83  V @ 1. m]"	"Frequency / Hz"	"Sound Pressure Level / dB (re 20 µPa/V)  [2.83  V @ 1. m]"	"Frequency / Hz"	"Sound Pressure Level / dB (re 20 µPa/V)  [2.83  V @ 1. m]"	"Frequency / Hz"	"Sound Pressure Level / dB (re 20 µPa/V)  [2.83  V @ 1. m]"	"Frequency / Hz"	"Sound Pressure Level / dB (re 20 µPa/V)  [2.83  V @ 1. m]"	"Frequency / Hz"	"Sound Pressure Level / dB (re 20 µPa/V)  [2.83  V @ 1. m]"
20.5078	57.5007	20.5078	57.528	20.5078	57.4679	20.5078	57.5479	20.5078	57.4314	20.5078	57.5578	20.5078	57.3919	20.5078	57.5554	20.5078	57.3497	20.5078	57.5389	20.5078	57.3045	20.5078	57.5068	20.5078	57.2558	20.5078	57.4591	20.5078	57.2033	20.5078	57.3967	20.5078	57.1469	20.5078	57.3217	20.5078	57.0872	20.5078	57.2373	20.5078	57.0253	20.5078	57.1475	20.5078	56.963	20.5078	57.0568	20.5078	56.9024	20.5078	56.9698	20.5078	56.846	20.5078	56.8908	20.5078	56.7963	20.5078	56.8236	20.5078	56.7561	20.5078	56.7709	20.5078	56.7279	20.5078	56.7347	20.5078	56.7138	20.5078	56.7158
21.9727	58.9578	21.9727	58.9575	21.9727	58.9576	21.9727	58.9559	21.9727	58.9566	21.9727	58.9517	21.9727	58.954	21.9727	58.9431	21.9727	58.9483	21.9727	58.9284	21.9727	58.9377	21.9727	58.9063	21.9727	58.9206	21.9727	58.8761	21.9727	58.8957	21.9727	58.8378	21.9727	58.8627	21.9727	58.7926	21.9727	58.822	21.9727	58.7421	21.9727	58.7749	21.9727	58.6889	21.9727	58.7233	21.9727	58.6357	21.9727	58.6696	21.9727	58.5854	21.9727	58.6168	21.9727	58.5405	21.9727	58.5678	21.9727	58.5037	21.9727	58.5252	21.9727	58.4769	21.9727	58.4918	21.9727	58.4617	21.9727	58.4693	21.9727	58.4591
23.4375	60.2863	23.4375	60.2929	23.4375	60.2763	23.4375	60.2952	23.4375	60.2631	23.4375	60.292	23.4375	60.2465	23.4375	60.2819	23.4375	60.2259	23.4375	60.2635	23.4375	60.2002	23.4375	60.2359	23.4375	60.1685	23.4375	60.1987	23.4375	60.1303	23.4375	60.1524	23.4375	60.0856	23.4375	60.098	23.4375	60.0353	23.4375	60.0375	23.4375	59.9807	23.4375	59.9736	23.4375	59.924	23.4375	59.9093	23.4375	59.8677	23.4375	59.8479	23.4375	59.8144	23.4375	59.7925	23.4375	59.7669	23.4375	59.7458	23.4375	59.7276	23.4375	59.7102	23.4375	59.6985	23.4375	59.6871	23.4375	59.6815	23.4375	59.6775
24.9023	62.0802	24.9023	62.0841	24.9023	62.0726	24.9023	62.0837	24.9023	62.0614	24.9023	62.078	24.9023	62.0463	24.9023	62.0658	24.9023	62.0268	24.9023	62.0461	24.9023	62.0019	24.9023	62.0177	24.9023	61.971	24.9023	61.9804	24.9023	61.9336	24.9023	61.9343	24.9023	61.8898	24.9023	61.8807	24.9023	61.8404	24.9023	61.8214	24.9023	61.7868	24.9023	61.7591	24.9023	61.731	24.9023	61.697	24.9023	61.6754	24.9023	61.6381	24.9023	61.6225	24.9023	61.5855	24.9023	61.575	24.9023	61.5418	24.9023	61.5353	24.9023	61.509	24.9023	61.5055	24.9023	61.4886	24.9023	61.4871	24.9023	61.4813
26.3672	63.2913	26.3672	63.2902	26.3672	63.288	26.3672	63.2843	26.3672	63.2802	26.3672	63.2727	26.3672	63.2674	26.3672	63.2544	26.3672	63.2485	26.3672	63.2281	26.3672	63.2226	26.3672	63.1928	26.3672	63.1886	26.3672	63.1481	26.3672	63.1461	26.3672	63.0944	26.3672	63.0952	26.3672	63.0329	26.3672	63.0368	26.3672	62.9658	26.3672	62.9728	26.3672	62.8959	26.3672	62.9057	26.3672	62.8266	26.3672	62.8383	26.3672	62.7614	26.3672	62.774	26.3672	62.7037	26.3672	62.7159	26.3672	62.6563	26.3672	62.6669	26.3672	62.6215	26.3672	62.6293	26.3672	62.6009	26.3672	62.605	26.3672	62.5954
27.832	64.931	27.832	64.9338	27.832	64.9225	27.832	64.9303	27.832	64.9084	27.832	64.9196	27.832	64.8885	27.832	64.9009	27.832	64.8624	27.832	64.8732	27.832	64.8295	27.832	64.8359	27.832	64.7893	27.832	64.789	27.832	64.7419	27.832	64.7332	27.832	64.6877	27.832	64.67	27.832	64.6281	27.832	64.6015	27.832	64.5647	27.832	64.5309	27.832	64.5001	27.832	64.4612	27.832	64.4368	27.832	64.3959	27.832	64.3777	27.832	64.338	27.832	64.3254	27.832	64.2902	27.832	64.2822	27.832	64.2545	27.832	64.25	27.832	64.2323	27.832	64.2303	27.832	64.2242
29.2969	66.1244	29.2969	66.1289	29.2969	66.1142	29.2969	66.1273	29.2969	66.0986	29.2969	66.1186	29.2969	66.0773	29.2969	66.1017	29.2969	66.0497	29.2969	66.0757	29.2969	66.0154	29.2969	66.0396	29.2969	65.9738	29.2969	65.9934	29.2969	65.9249	29.2969	65.9375	29.2969	65.8692	29.2969	65.8734	29.2969	65.8078	29.2969	65.8033	29.2969	65.7426	29.2969	65.7302	29.2969	65.6762	29.2969	65.6575	29.2969	65.6112	29.2969	65.5888	29.2969	65.5506	29.2969	65.5272	29.2969	65.4972	29.2969	65.4757	29.2969	65.4537	29.2969	65.4364	29.2969	65.422	29.2969	65.4108	29.2969	65.4037	29.2969	65.3999
30.7617	67.3028	30.7617	67.3095	30.7617	67.2894	30.7617	67.3089	30.7617	67.2696	30.7617	67.3003	30.7617	67.2437	30.7617	67.2828	30.7617	67.2114	30.7617	67.2558	30.7617	67.1728	30.7617	67.219	30.7617	67.1277	30.7617	67.1726	30.7617	67.0764	30.7617	67.1174	30.7617	67.0196	30.7617	67.0551	30.7617	66.9587	30.7617	66.9877	30.7617	66.8954	30.7617	66.918	30.7617	66.8321	30.7617	66.8487	30.7617	66.7713	30.7617	66.783	30.7617	66.7158	30.7617	66.7236	30.7617	66.668	30.7617	66.673	30.7617	66.6302	30.7617	66.6331	30.7617	66.604	30.7617	66.6056	30.7617	66.5909	30.7617	66.5913
32.2266	68.2767	32.2266	68.2794	32.2266	68.2671	32.2266	68.2749	32.2266	68.2506	32.2266	68.2626	32.2266	68.2273	32.2266	68.2419	32.2266	68.1968	32.2266	68.2125	32.2266	68.1591	32.2266	68.174	32.2266	68.1139	32.2266	68.1266	32.2266	68.0617	32.2266	68.0712	32.2266	68.0033	32.2266	68.0091	32.2266	67.9402	32.2266	67.9424	32.2266	67.8746	32.2266	67.8736	32.2266	67.8088	32.2266	67.8054	32.2266	67.7458	32.2266	67.7409	32.2266	67.6883	32.2266	67.6828	32.2266	67.6387	32.2266	67.6335	32.2266	67.5993	32.2266	67.5951	32.2266	67.5718	32.2266	67.569	32.2266	67.5572	32.2266	67.5562
33.6914	69.3299	33.6914	69.3349	33.6914	69.3186	33.6914	69.3331	33.6914	69.3011	33.6914	69.324	33.6914	69.2776	33.6914	69.307	33.6914	69.2478	33.6914	69.2816	33.6914	69.2118	33.6914	69.2476	33.6914	69.1694	33.6914	69.2053	33.6914	69.1212	33.6914	69.1553	33.6914	69.0678	33.6914	69.0992	33.6914	69.0107	33.6914	69.0388	33.6914	68.9518	33.6914	68.9764	33.6914	68.8933	33.6914	68.9146	33.6914	68.8378	33.6914	68.856	33.6914	68.7877	33.6914	68.8029	33.6914	68.7452	33.6914	68.7573	33.6914	68.7122	33.6914	68.7212	33.6914	68.6901	33.6914	68.6956	33.6914	68.6798	33.6914	68.6817
35.1562	70.3982	35.1562	70.3989	35.1562	70.3899	35.1562	70.3918	35.1562	70.3741	35.1562	70.3763	35.1562	70.3508	35.1562	70.3519	35.1562	70.3199	35.1562	70.3184	35.1562	70.2812	35.1562	70.2756	35.1562	70.2349	35.1562	70.2238	35.1562	70.1813	35.1562	70.1642	35.1562	70.1214	35.1562	70.0983	35.1562	70.0568	35.1562	70.0285	35.1562	69.9895	35.1562	69.9575	35.1562	69.922	35.1562	69.8882	35.1562	69.8571	35.1562	69.8238	35.1562	69.7974	35.1562	69.7667	35.1562	69.7456	35.1562	69.7195	35.1562	69.7036	35.1562	69.6837	35.1562	69.6732	35.1562	69.6608	35.1562	69.6555	35.1562	69.6513
36.6211	71.2391	36.6211	71.2413	36.6211	71.229	36.6211	71.2352	36.6211	71.211	36.6211	71.2205	36.6211	71.1853	36.6211	71.1968	36.6211	71.1519	36.6211	71.1639	36.6211	71.1109	36.6211	71.1217	36.6211	71.0627	36.6211	71.0709	36.6211	71.008	36.6211	71.0126	36.6211	70.9482	36.6211	70.9484	36.6211	70.8847	36.6211	70.8808	36.6211	70.8199	36.6211	70.8123	36.6211	70.7561	36.6211	70.7459	36.6211	70.6959	36.6211	70.6843	36.6211	70.6415	36.6211	70.63	36.6211	70.5951	36.6211	70.5848	36.6211	70.5584	36.6211	70.5502	36.6211	70.5326	36.6211	70.5274	36.6211	70.5185	36.6211	70.5167
38.0859	72.0777	38.0859	72.0812	38.0859	72.0663	38.0859	72.0764	38.0859	72.047	38.0859	72.063	38.0859	72.0201	38.0859	72.0409	38.0859	71.9855	38.0859	72.0098	38.0859	71.9437	38.0859	71.9698	38.0859	71.8951	38.0859	71.9215	38.0859	71.8404	38.0859	71.8659	38.0859	71.781	38.0859	71.8046	38.0859	71.7187	38.0859	71.7398	38.0859	71.6555	38.0859	71.674	38.0859	71.5939	38.0859	71.6097	38.0859	71.5363	38.0859	71.5495	38.0859	71.4849	38.0859	71.4958	38.0859	71.4419	38.0859	71.4504	38.0859	71.4087	38.0859	71.4148	38.0859	71.3864	38.0859	71.39	38.0859	71.3757	38.0859	71.3769
39.5508	72.9245	39.5508	72.9264	39.5508	72.9142	39.5508	72.9195	39.5508	72.8955	39.5508	72.9035	39.5508	72.8686	39.5508	72.8784	39.5508	72.8339	39.5508	72.8439	39.5508	72.7915	39.5508	72.8005	39.5508	72.7422	39.5508	72.7488	39.5508	72.6868	39.5508	72.6899	39.5508	72.6267	39.5508	72.6258	39.5508	72.5636	39.5508	72.5588	39.5508	72.4996	39.5508	72.4914	39.5508	72.4372	39.5508	72.4264	39.5508	72.3785	39.5508	72.3665	39.5508	72.3259	39.5508	72.3138	39.5508	72.2812	39.5508	72.2703	39.5508	72.2458	39.5508	72.2373	39.5508	72.221	39.5508	72.2155	39.5508	72.2074	39.5508	72.2056
41.0156	73.761	41.0156	73.7626	41.0156	73.7497	41.0156	73.7544	41.0156	73.729	41.0156	73.7361	41.0156	73.6991	41.0156	73.7078	41.0156	73.6605	41.0156	73.6696	41.0156	73.6137	41.0156	73.622	41.0156	73.5595	41.0156	73.5659	41.0156	73.4992	41.0156	73.5027	41.0156	73.4342	41.0156	73.4346	41.0156	73.3665	41.0156	73.3638	41.0156	73.2985	41.0156	73.2932	41.0156	73.2325	41.0156	73.2254	41.0156	73.1711	41.0156	73.1631	41.0156	73.1163	41.0156	73.1085	41.0156	73.0702	41.0156	73.0633	41.0156	73.0341	41.0156	73.0288	41.0156	73.0091	41.0156	73.0058	41.0156	72.9959	41.0156	72.9948
42.4805	74.4614	42.4805	74.4633	42.4805	74.4497	42.4805	74.4551	42.4805	74.4284	42.4805	74.4369	42.4805	74.3977	42.4805	74.4086	42.4805	74.3582	42.4805	74.3705	42.4805	74.3104	42.4805	74.3231	42.4805	74.2553	42.4805	74.2674	42.4805	74.1941	42.4805	74.2047	42.4805	74.1284	42.4805	74.137	42.4805	74.0603	42.4805	74.0667	42.4805	73.9919	42.4805	73.9964	42.4805	73.9258	42.4805	73.9287	42.4805	73.8643	42.4805	73.8662	42.4805	73.8097	42.4805	73.8109	42.4805	73.764	42.4805	73.7647	42.4805	73.7285	42.4805	73.729	42.4805	73.7043	42.4805	73.7046	42.4805	73.6921	42.4805	73.6922
43.9453	75.1886	43.9453	75.1946	43.9453	75.1731	43.9453	75.1909	43.9453	75.1482	43.9453	75.1773	43.9453	75.1144	43.9453	75.1539	43.9453	75.0722	43.9453	75.1208	43.9453	75.0223	43.9453	75.0784	43.9453	74.9658	43.9453	75.0275	43.9453	74.9041	43.9453	74.9693	43.9453	74.8389	43.9453	74.9055	43.9453	74.7723	43.9453	74.8385	43.9453	74.7067	43.9453	74.7706	43.9453	74.6445	43.9453	74.7044	43.9453	74.5879	43.9453	74.6423	43.9453	74.539	43.9453	74.5864	43.9453	74.4995	43.9453	74.5384	43.9453	74.4707	43.9453	74.4996	43.9453	74.4532	43.9453	74.4711	43.9453	74.4475	43.9453	74.4535
45.4102	75.8173	45.4102	75.8246	45.4102	75.8001	45.4102	75.822	45.4102	75.7735	45.4102	75.8093	45.4102	75.7379	45.4102	75.7865	45.4102	75.6939	45.4102	75.7537	45.4102	75.6424	45.4102	75.7114	45.4102	75.5848	45.4102	75.6605	45.4102	75.5224	45.4102	75.6021	45.4102	75.4573	45.4102	75.5383	45.4102	75.3916	45.4102	75.4712	45.4102	75.3275	45.4102	75.4033	45.4102	75.2673	45.4102	75.3372	45.4102	75.2131	45.4102	75.2754	45.4102	75.1666	45.4102	75.2197	45.4102	75.1293	45.4102	75.1721	45.4102	75.1022	45.4102	75.1336	45.4102	75.0861	45.4102	75.1052	45.4102	75.0812	45.4102	75.0876
46.875	76.5235	46.875	76.5297	46.875	76.5062	46.875	76.5248	46.875	76.4785	46.875	76.5086	46.875	76.4409	46.875	76.4816	46.875	76.3944	46.875	76.4441	46.875	76.3403	46.875	76.3973	46.875	76.2802	46.875	76.3423	46.875	76.2159	46.875	76.2811	46.875	76.1496	46.875	76.2157	46.875	76.0835	46.875	76.1486	46.875	76.0202	46.875	76.0822	46.875	75.9616	46.875	76.019	46.875	75.9098	46.875	75.961	46.875	75.8661	46.875	75.9098	46.875	75.8315	46.875	75.8667	46.875	75.8067	46.875	75.8324	46.875	75.7918	46.875	75.8076	46.875	75.7871	46.875	75.7924
48.3398	76.978	48.3398	76.9826	48.3398	76.9614	48.3398	76.9752	48.3398	76.9333	48.3398	76.956	48.3398	76.8947	48.3398	76.9254	48.3398	76.8466	48.3398	76.8845	48.3398	76.7906	48.3398	76.8345	48.3398	76.7285	48.3398	76.7771	48.3398	76.6625	48.3398	76.7143	48.3398	76.5948	48.3398	76.6483	48.3398	76.5279	48.3398	76.5816	48.3398	76.4642	48.3398	76.5165	48.3398	76.406	48.3398	76.4552	48.3398	76.3549	48.3398	76.3996	48.3398	76.3123	48.3398	76.351	48.3398	76.2789	48.3398	76.3104	48.3398	76.2551	48.3398	76.2784	48.3398	76.2409	48.3398	76.2552	48.3398	76.2364	48.3398	76.2412
51.2695	78.0039	51.2695	78.0077	51.2695	77.9885	51.2695	77.9996	51.2695	77.9617	51.2695	77.9801	51.2695	77.9244	51.2695	77.95	51.2695	77.8777	51.2695	77.9101	51.2695	77.8233	51.2695	77.8619	51.2695	77.7631	51.2695	77.8071	51.2695	77.6992	51.2695	77.7476	51.2695	77.6339	51.2695	77.6855	51.2695	77.5698	51.2695	77.6231	51.2695	77.5092	51.2695	77.5625	51.2695	77.454	51.2695	77.5056	51.2695	77.406	51.2695	77.454	51.2695	77.3663	51.2695	77.4088	51.2695	77.3356	51.2695	77.3708	51.2695	77.3141	51.2695	77.3405	51.2695	77.3019	51.2695	77.3183	51.2695	77.2986	51.2695	77.3042
52.7344	78.5364	52.7344	78.5398	52.7344	78.5206	52.7344	78.5309	52.7344	78.4931	52.7344	78.51	52.7344	78.4547	52.7344	78.478	52.7344	78.4067	52.7344	78.4361	52.7344	78.3509	52.7344	78.3859	52.7344	78.2895	52.7344	78.3294	52.7344	78.2247	52.7344	78.2686	52.7344	78.1592	52.7344	78.206	52.7344	78.0955	52.7344	78.144	52.7344	78.0358	52.7344	78.0846	52.7344	77.9823	52.7344	78.0297	52.7344	77.9363	52.7344	77.9807	52.7344	77.8988	52.7344	77.9384	52.7344	77.8703	52.7344	77.9033	52.7344	77.8507	52.7344	77.8755	52.7344	77.8397	52.7344	77.8551	52.7344	77.837	52.7344	77.8422
54.1992	79.073	54.1992	79.077	54.1992	79.0551	54.1992	79.0671	54.1992	79.0239	54.1992	79.0439	54.1992	78.9805	54.1992	79.0082	54.1992	78.9266	54.1992	78.9618	54.1992	78.8642	54.1992	78.9066	54.1992	78.796	54.1992	78.8448	54.1992	78.7245	54.1992	78.7792	54.1992	78.653	54.1992	78.7124	54.1992	78.5841	54.1992	78.6469	54.1992	78.5205	54.1992	78.585	54.1992	78.4644	54.1992	78.5285	54.1992	78.4173	54.1992	78.4784	54.1992	78.38	54.1992	78.4353	54.1992	78.3528	54.1992	78.3994	54.1992	78.3352	54.1992	78.3706	54.1992	78.3267	54.1992	78.3488	54.1992	78.3265	54.1992	78.334
55.6641	79.5478	55.6641	79.5474	55.6641	79.5326	55.6641	79.5313	55.6641	79.5024	55.6641	79.5003	55.6641	79.4582	55.6641	79.4554	55.6641	79.4019	55.6641	79.3986	55.6641	79.3356	55.6641	79.3321	55.6641	79.2622	55.6641	79.259	55.6641	79.1846	55.6641	79.1822	55.6641	79.1061	55.6641	79.1053	55.6641	79.03	55.6641	79.0314	55.6641	78.9592	55.6641	78.9632	55.6641	78.8962	55.6641	78.9029	55.6641	78.8427	55.6641	78.8515	55.6641	78.7996	55.6641	78.8096	55.6641	78.7669	55.6641	78.7767	55.6641	78.7442	55.6641	78.7524	55.6641	78.7305	55.6641	78.736	55.6641	78.7249	55.6641	78.7269
58.5938	80.2748	58.5938	80.275	58.5938	80.2576	58.5938	80.2586	58.5938	80.2238	58.5938	80.2265	58.5938	80.1745	58.5938	80.1804	58.5938	80.1115	58.5938	80.1223	58.5938	80.0372	58.5938	80.0549	58.5938	79.9546	58.5938	79.9808	58.5938	79.8672	58.5938	79.9033	58.5938	79.7786	58.5938	79.8251	58.5938	79.6924	58.5938	79.749	58.5938	79.612	58.5938	79.6772	58.5938	79.5403	58.5938	79.6113	58.5938	79.4796	58.5938	79.5525	58.5938	79.4312	58.5938	79.5011	58.5938	79.3958	58.5938	79.4575	58.5938	79.3731	58.5938	79.4215	58.5938	79.3625	58.5938	79.3935	58.5938	79.3632	58.5938	79.3738
60.0586	80.6795	60.0586	80.6791	60.0586	80.6629	60.0586	80.6619	60.0586	80.6299	60.0586	80.629	60.0586	80.5817	60.0586	80.5821	60.0586	80.5203	60.0586	80.5236	60.0586	80.4486	60.0586	80.4562	60.0586	80.3696	60.0586	80.383	60.0586	80.2869	60.0586	80.3074	60.0586	80.2041	60.0586	80.2322	60.0586	80.1247	60.0586	80.1602	60.0586	80.0516	60.0586	80.0935	60.0586	79.9873	60.0586	80.0335	60.0586	79.9331	60.0586	79.981	60.0586	79.8901	60.0586	79.9362	60.0586	79.8583	60.0586	79.8991	60.0586	79.8373	60.0586	79.8694	60.0586	79.8265	60.0586	79.847	60.0586	79.825	60.0586	79.832
62.9883	81.2836	62.9883	81.2869	62.9883	81.2625	62.9883	81.2724	62.9883	81.2244	62.9883	81.241	62.9883	81.171	62.9883	81.1945	62.9883	81.1047	62.9883	81.1354	62.9883	81.0288	62.9883	81.0668	62.9883	80.9466	62.9883	80.9921	62.9883	80.8622	62.9883	80.915	62.9883	80.779	62.9883	80.8389	62.9883	80.7007	62.9883	80.7666	62.9883	80.63	62.9883	80.7004	62.9883	80.569	62.9883	80.6415	62.9883	80.5189	62.9883	80.5904	62.9883	80.4802	62.9883	80.5469	62.9883	80.4529	62.9883	80.5105	62.9883	80.4361	62.9883	80.4808	62.9883	80.4292	62.9883	80.4575	62.9883	80.4311	62.9883	80.4408
64.4531	81.5412	64.4531	81.5386	64.4531	81.5245	64.4531	81.517	64.4531	81.4893	64.4531	81.4775	64.4531	81.4375	64.4531	81.4224	64.4531	81.3716	64.4531	81.3547	64.4531	81.2951	64.4531	81.2779	64.4531	81.2118	64.4531	81.1961	64.4531	81.126	64.4531	81.1132	64.4531	81.0418	64.4531	81.0331	64.4531	80.9628	64.4531	80.9589	64.4531	80.8919	64.4531	80.893	64.4531	80.8311	64.4531	80.8365	64.4531	80.7814	64.4531	80.79	64.4531	80.7428	64.4531	80.753	64.4531	80.7144	64.4531	80.7247	64.4531	80.6953	64.4531	80.7039	64.4531	80.6842	64.4531	80.6899	64.4531	80.68	64.4531	80.682
67.3828	81.9841	67.3828	81.9766	67.3828	81.9719	67.3828	81.95	67.3828	81.941	67.3828	81.9058	67.3828	81.8932	67.3828	81.8466	67.3828	81.8316	67.3828	81.776	67.3828	81.7602	67.3828	81.6983	67.3828	81.6834	67.3828	81.6178	67.3828	81.6058	67.3828	81.5389	67.3828	81.5317	67.3828	81.4655	67.3828	81.4646	67.3828	81.4006	67.3828	81.407	67.3828	81.3463	67.3828	81.36	67.3828	81.3035	67.3828	81.3234	67.3828	81.272	67.3828	81.2961	67.3828	81.2509	67.3828	81.2763	67.3828	81.2386	67.3828	81.2619	67.3828	81.2334	67.3828	81.2511	67.3828	81.2333	67.3828	81.2429	67.3828	81.2368
68.8477	82.147	68.8477	82.1418	68.8477	82.1332	68.8477	82.1179	68.8477	82.1012	68.8477	82.0772	68.8477	82.0531	68.8477	82.0223	68.8477	81.9921	68.8477	81.9571	68.8477	81.9223	68.8477	81.8858	68.8477	81.8484	68.8477	81.8129	68.8477	81.7752	68.8477	81.7426	68.8477	81.7069	68.8477	81.6787	68.8477	81.6471	68.8477	81.6239	68.8477	81.5983	68.8477	81.5798	68.8477	81.5612	68.8477	81.5466	68.8477	81.5354	68.8477	81.5237	68.8477	81.5191	68.8477	81.5095	68.8477	81.5101	68.8477	81.5022	68.8477	81.5057	68.8477	81.4996	68.8477	81.5036	68.8477	81.4996	68.8477	81.5022	68.8477	81.5009
71.7773	82.6739	71.7773	82.6692	71.7773	82.6577	71.7773	82.6441	71.7773	82.6217	71.7773	82.6006	71.7773	82.5683	71.7773	82.5417	71.7773	82.5011	71.7773	82.4719	71.7773	82.4246	71.7773	82.3961	71.7773	82.3441	71.7773	82.3194	71.7773	82.2648	71.7773	82.2469	71.7773	82.1914	71.7773	82.1825	71.7773	82.1279	71.7773	82.1289	71.7773	82.0768	71.7773	82.0875	71.7773	82.0393	71.7773	82.058	71.7773	82.0148	71.7773	82.0388	71.7773	82.0017	71.7773	82.0276	71.7773	81.9972	71.7773	82.0217	71.7773	81.9985	71.7773	82.0184	71.7773	82.0029	71.7773	82.0158	71.7773	82.008	71.7773	82.0125
74.707	83.1178	74.707	83.1103	74.707	83.1019	74.707	83.0798	74.707	83.0635	74.707	83.0286	74.707	83.0056	74.707	82.9605	74.707	82.9322	74.707	82.8803	74.707	82.8485	74.707	82.794	74.707	82.7604	74.707	82.7075	74.707	82.6739	74.707	82.6263	74.707	82.5944	74.707	82.5552	74.707	82.5261	74.707	82.4973	74.707	82.4717	74.707	82.4538	74.707	82.4322	74.707	82.4243	74.707	82.4066	74.707	82.407	74.707	82.393	74.707	82.3989	74.707	82.3882	74.707	82.3968	74.707	82.3891	74.707	82.3976	74.707	82.3925	74.707	82.3986	74.707	82.3961	74.707	82.3983
77.6367	83.5102	77.6367	83.5016	77.6367	83.4931	77.6367	83.4679	77.6367	83.4516	77.6367	83.4117	77.6367	83.3887	77.6367	83.3369	77.6367	83.309	77.6367	83.249	77.6367	83.2183	77.6367	83.1545	77.6367	83.1232	77.6367	83.0599	77.6367	83.0303	77.6367	82.9715	77.6367	82.9457	77.6367	82.8944	77.6367	82.8741	77.6367	82.8322	77.6367	82.8184	77.6367	82.7864	77.6367	82.7792	77.6367	82.7565	77.6367	82.7554	77.6367	82.7405	77.6367	82.744	77.6367	82.7352	77.6367	82.7416	77.6367	82.7368	77.6367	82.744	77.6367	82.7418	77.6367	82.7478	77.6367	82.7469	77.6367	82.7504	77.6367	82.7501
79.1016	83.6753	79.1016	83.6694	79.1016	83.6546	79.1016	83.6374	79.1016	83.6085	79.1016	83.5817	79.1016	83.5403	79.1016	83.5065	79.1016	83.4548	79.1016	83.4175	79.1016	83.3583	79.1016	83.3212	79.1016	83.2575	79.1016	83.2245	79.1016	83.1595	79.1016	83.1338	79.1016	83.0707	79.1016	83.0544	79.1016	82.996	79.1016	82.9901	79.1016	82.9384	79.1016	82.9422	79.1016	82.8988	79.1016	82.9103	79.1016	82.8757	79.1016	82.8923	79.1016	82.8661	79.1016	82.8847	79.1016	82.8662	79.1016	82.8839	79.1016	82.8718	79.1016	82.8861	79.1016	82.879	79.1016	82.8882	79.1016	82.885	79.1016	82.8882
82.0312	83.8657	82.0312	83.8453	82.0312	83.858	82.0312	83.7978	82.0312	83.8234	82.0312	83.7261	82.0312	83.7649	82.0312	83.6352	82.0312	83.6873	82.0312	83.5315	82.0312	83.5968	82.0312	83.4222	82.0312	83.5002	82.0312	83.3151	82.0312	83.4046	82.0312	83.2174	82.0312	83.3166	82.0312	83.1349	82.0312	83.241	82.0312	83.0713	82.0312	83.181	82.0312	83.0282	82.0312	83.1375	82.0312	83.0045	82.0312	83.1091	82.0312	82.9974	82.0312	83.093	82.0312	83.0028	82.0312	83.0851	82.0312	83.0161	82.0312	83.0813	82.0312	83.0327	82.0312	83.078	82.0312	83.0491	82.0312	83.0723	82.0312	83.0628
84.9609	84.0684	84.9609	84.0573	84.9609	84.0515	84.9609	84.0191	84.9609	84.0078	84.9609	83.9569	84.9609	83.9408	84.9609	83.8758	84.9609	83.8558	84.9609	83.7823	84.9609	83.7596	84.9609	83.684	84.9609	83.6602	84.9609	83.5886	84.9609	83.5654	84.9609	83.5033	84.9609	83.4823	84.9609	83.4338	84.9609	83.4163	84.9609	83.3838	84.9609	83.3705	84.9609	83.3544	84.9609	83.3452	84.9609	83.3439	84.9609	83.3384	84.9609	83.3487	84.9609	83.3458	84.9609	83.3636	84.9609	83.3624	84.9609	83.3828	84.9609	83.3825	84.9609	83.4009	84.9609	83.4009	84.9609	83.4137	84.9609	83.4137	84.9609	83.4183
87.8906	84.4876	87.8906	84.4901	87.8906	84.4553	87.8906	84.4636	87.8906	84.3949	87.8906	84.4113	87.8906	84.3105	87.8906	84.3386	87.8906	84.2086	87.8906	84.2524	87.8906	84.0974	87.8906	84.1606	87.8906	83.9861	87.8906	84.0713	87.8906	83.8839	87.8906	83.992	87.8906	83.7989	87.8906	83.9283	87.8906	83.737	87.8906	83.8839	87.8906	83.7013	87.8906	83.8594	87.8906	83.6914	87.8906	83.8528	87.8906	83.7041	87.8906	83.8601	87.8906	83.7336	87.8906	83.8755	87.8906	83.7732	87.8906	83.8929	87.8906	83.8157	87.8906	83.9063	87.8906	83.8548	87.8906	83.9113	87.8906	83.8855	87.8906	83.9047
90.8203	84.8723	90.8203	84.8684	90.8203	84.8406	90.8203	84.8297	90.8203	84.775	90.8203	84.7598	90.8203	84.6799	90.8203	84.6643	90.8203	84.562	90.8203	84.551	90.8203	84.4303	90.8203	84.4288	90.8203	84.2946	90.8203	84.3071	90.8203	84.1654	90.8203	84.195	90.8203	84.0522	90.8203	84.0999	90.8203	83.9623	90.8203	84.0268	90.8203	83.9001	90.8203	83.9776	90.8203	83.8662	90.8203	83.9513	90.8203	83.8579	90.8203	83.944	90.8203	83.8696	90.8203	83.9501	90.8203	83.8941	90.8203	83.9631	90.8203	83.9238	90.8203	83.9765	90.8203	83.9518	90.8203	83.9848	90.8203	83.9729	90.8203	83.9842
95.2148	84.9392	95.2148	84.9329	95.2148	84.9081	95.2148	84.8904	95.2148	84.8414	95.2148	84.8159	95.2148	84.7442	95.2148	84.7163	95.2148	84.6242	95.2148	84.6007	95.2148	84.4911	95.2148	84.4792	95.2148	84.3561	95.2148	84.3622	95.2148	84.2302	95.2148	84.2587	95.2148	84.1229	95.2148	84.1757	95.2148	84.0415	95.2148	84.1173	95.2148	83.9897	95.2148	84.0839	95.2148	83.9674	95.2148	84.073	95.2148	83.9712	95.2148	84.0798	95.2148	83.9946	95.2148	84.0975	95.2148	84.0301	95.2148	84.1191	95.2148	84.0694	95.2148	84.138	95.2148	84.1054	95.2148	84.1485	95.2148	84.1324	95.2148	84.1472
98.1445	85.1744	98.1445	85.169	98.1445	85.1412	98.1445	85.1264	98.1445	85.0714	98.1445	85.0511	98.1445	84.9703	98.1445	84.9504	98.1445	84.8459	98.1445	84.8338	98.1445	84.7084	98.1445	84.7119	98.1445	84.5693	98.1445	84.5955	98.1445	84.44	98.1445	84.4937	98.1445	84.3308	98.1445	84.4136	98.1445	84.249	98.1445	84.3586	98.1445	84.1984	98.1445	84.3286	98.1445	84.179	98.1445	84.3207	98.1445	84.1869	98.1445	84.3294	98.1445	84.2153	98.1445	84.348	98.1445	84.2561	98.1445	84.3693	98.1445	84.3007	98.1445	84.3868	98.1445	84.3415	98.1445	84.3953	98.1445	84.3728	98.1445	84.3911
101.074	85.1889	101.074	85.1761	101.074	85.1632	101.074	85.1264	101.074	85.1011	101.074	85.0447	101.074	85.008	101.074	84.9392	101.074	84.8922	101.074	84.8202	101.074	84.7645	101.074	84.6995	101.074	84.6365	101.074	84.589	101.074	84.5199	101.074	84.4989	101.074	84.4248	101.074	84.4363	101.074	84.3586	101.074	84.4043	101.074	84.3246	101.074	84.4017	101.074	84.3223	101.074	84.4233	101.074	84.347	101.074	84.4614	101.074	84.3916	101.074	84.507	101.074	84.4469	101.074	84.5512	101.074	84.5036	101.074	84.5863	101.074	84.5534	101.074	84.6063	101.074	84.5895	101.074	84.6077
105.469	85.5619	105.469	85.55	105.469	85.5285	105.469	85.4938	105.469	85.4524	105.469	85.3985	105.469	85.34	105.469	85.2726	105.469	85.2012	105.469	85.1275	105.469	85.0483	105.469	84.9767	105.469	84.8951	105.469	84.8339	105.469	84.7553	105.469	84.7118	105.469	84.6408	105.469	84.62	105.469	84.56	105.469	84.564	105.469	84.5163	105.469	84.5438	105.469	84.5085	105.469	84.5551	105.469	84.5307	105.469	84.5897	105.469	84.5739	105.469	84.6373	105.469	84.6278	105.469	84.6875	105.469	84.6821	105.469	84.7308	105.469	84.728	105.469	84.7597	105.469	84.7586	105.469	84.7695
108.398	85.7703	108.398	85.7554	108.398	85.7372	108.398	85.6942	108.398	85.6585	108.398	85.5925	108.398	85.5406	108.398	85.4596	108.398	85.3934	108.398	85.3077	108.398	85.2301	108.398	85.1511	108.398	85.0652	108.398	85.0043	108.398	84.9137	108.398	84.8804	108.398	84.7887	108.398	84.7893	108.398	84.6998	108.398	84.7362	108.398	84.6516	108.398	84.721	108.398	84.6433	108.398	84.7382	108.398	84.669	108.398	84.7788	108.398	84.7191	108.398	84.8315	108.398	84.7823	108.398	84.8849	108.398	84.8471	108.398	84.929	108.398	84.9033	108.398	84.956	108.398	84.943	108.398	84.9611
112.793	85.9777	112.793	85.9593	112.793	85.9431	112.793	85.8893	112.793	85.8585	112.793	85.774	112.793	85.7316	112.793	85.6236	112.793	85.574	112.793	85.4519	112.793	85.4006	112.793	85.275	112.793	85.228	112.793	85.1096	112.793	85.0729	112.793	84.9713	112.793	84.9494	112.793	84.8717	112.793	84.8673	112.793	84.8173	112.793	84.8306	112.793	84.8084	112.793	84.8367	112.793	84.839	112.793	84.8777	112.793	84.8986	112.793	84.9419	112.793	84.974	112.793	85.0161	112.793	85.0515	112.793	85.0874	112.793	85.1188	112.793	85.1447	112.793	85.1661	112.793	85.1796	112.793	85.1872
117.188	86.2093	117.188	86.1963	117.188	86.1639	117.188	86.127	117.188	86.0629	117.188	86.0081	117.188	85.9137	117.188	85.8505	117.188	85.7283	117.188	85.6688	117.188	85.5222	117.188	85.4794	117.188	85.313	117.188	85.2993	117.188	85.1193	117.188	85.144	117.188	84.9573	117.188	85.0255	117.188	84.8398	117.188	84.9504	117.188	84.773	117.188	84.9192	117.188	84.7567	117.188	84.9267	117.188	84.7841	117.188	84.9631	117.188	84.8435	117.188	85.0157	117.188	84.9207	117.188	85.0714	117.188	85.001	117.188	85.118	117.188	85.0717	117.188	85.1456	117.188	85.1227	117.188	85.1479
120.117	86.2575	120.117	86.2406	120.117	86.214	120.117	86.1652	120.117	86.113	120.117	86.0386	120.117	85.9626	120.117	85.8723	120.117	85.7754	120.117	85.6816	120.117	85.5677	120.117	85.4841	120.117	85.3581	120.117	85.2981	120.117	85.1654	120.117	85.14	120.117	85.0062	120.117	85.0223	120.117	84.8926	120.117	84.9516	120.117	84.8306	120.117	84.9279	120.117	84.8189	120.117	84.945	120.117	84.8503	120.117	84.9919	120.117	84.9127	120.117	85.055	120.117	84.9917	120.117	85.1201	120.117	85.0729	120.117	85.1746	120.117	85.1433	120.117	85.2084	120.117	85.1928	120.117	85.2152
124.512	86.2886	124.512	86.271	124.512	86.2421	124.512	86.1917	124.512	86.1349	124.512	86.0583	124.512	85.9759	124.512	85.8833	124.512	85.7789	124.512	85.6835	124.512	85.5617	124.512	85.4782	124.512	85.3447	124.512	85.2874	124.512	85.1485	124.512	85.1288	124.512	84.9908	124.512	85.0158	124.512	84.8845	124.512	84.955	124.512	84.8352	124.512	84.9458	124.512	84.8407	124.512	84.9804	124.512	84.8917	124.512	85.0463	124.512	84.9743	124.512	85.128	124.512	85.0722	124.512	85.2098	124.512	85.1693	124.512	85.2776	124.512	85.2513	124.512	85.3204	124.512	85.3075	124.512	85.3312
128.906	86.3108	128.906	86.2915	128.906	86.263	128.906	86.2076	128.906	86.1516	128.906	86.0673	128.906	85.9863	128.906	85.8845	128.906	85.7818	128.906	85.6773	128.906	85.5573	128.906	85.4667	128.906	85.3344	128.906	85.274	128.906	85.1352	128.906	85.1183	128.906	84.9789	128.906	85.0135	128.906	84.8789	128.906	84.966	128.906	84.8411	128.906	84.9741	128.906	84.8626	128.906	85.0287	128.906	84.9332	128.906	85.1153	128.906	85.0369	128.906	85.2168	128.906	85.1557	128.906	85.3158	128.906	85.2713	128.906	85.3969	128.906	85.368	128.906	85.4479	128.906	85.4337	128.906	85.4611
133.301	86.3981	133.301	86.3786	133.301	86.3479	133.301	86.2918	133.301	86.2315	133.301	86.1466	133.301	86.0587	133.301	85.9572	133.301	85.845	133.301	85.7426	133.301	85.6102	133.301	85.5247	133.301	85.3772	133.301	85.3261	133.301	85.169	133.301	85.1668	133.301	85.0059	133.301	85.0612	133.301	84.9025	133.301	85.0156	133.301	84.8648	133.301	85.0279	133.301	84.8898	133.301	85.088	133.301	84.9665	133.301	85.1803	133.301	85.0782	133.301	85.2868	133.301	85.2054	133.301	85.3895	133.301	85.3291	133.301	85.4725	133.301	85.4328	133.301	85.5237	133.301	85.504	133.301	85.5351
139.16	86.4789	139.16	86.4539	139.16	86.4281	139.16	86.3557	139.16	86.3054	139.16	86.1941	139.16	86.1216	139.16	85.9849	139.16	85.8933	139.16	85.7493	139.16	85.6423	139.16	85.5121	139.16	85.3933	139.16	85.299	139.16	85.1715	139.16	85.1327	139.16	84.9989	139.16	85.0291	139.16	84.8913	139.16	84.9948	139.16	84.8554	139.16	85.026	139.16	84.8881	139.16	85.1095	139.16	84.9773	139.16	85.2263	139.16	85.105	139.16	85.3551	139.16	85.25	139.16	85.4752	139.16	85.3916	139.16	85.5696	139.16	85.5115	139.16	85.6252	139.16	85.5955	139.16	85.6345
143.555	86.5702	143.555	86.5398	143.555	86.5185	143.555	86.4303	143.555	86.3892	143.555	86.2516	143.555	86.1937	143.555	86.0203	143.555	85.95	143.555	85.7589	143.555	85.6814	143.555	85.4938	143.555	85.4147	143.555	85.2523	143.555	85.1769	143.555	85.0596	143.555	84.992	143.555	84.9341	143.555	84.8766	143.555	84.8848	143.555	84.8376	143.555	84.9089	143.555	84.871	143.555	84.9936	143.555	84.9632	143.555	85.1189	143.555	85.0943	143.555	85.2614	143.555	85.2415	143.555	85.3983	143.555	85.3829	143.555	85.51	143.555	85.4994	143.555	85.5818	143.555	85.5764	143.555	85.6049
147.949	86.6068	147.949	86.5704	147.949	86.556	147.949	86.4499	147.949	86.4229	147.949	86.256	147.949	86.2197	147.949	86.0064	147.949	85.9657	147.949	85.7253	147.949	85.6858	147.949	85.4407	147.949	85.4082	147.949	85.1823	147.949	85.1616	147.949	84.9768	147.949	84.971	147.949	84.8442	147.949	84.8537	147.949	84.7938	147.949	84.8167	147.949	84.8229	147.949	84.8554	147.949	84.9178	147.949	84.9553	147.949	85.0571	147.949	85.0951	147.949	85.2157	147.949	85.2505	147.949	85.3694	147.949	85.3979	147.949	85.4969	147.949	85.5171	147.949	85.5822	147.949	85.5926	147.949	85.6153
153.809	86.6321	153.809	86.5994	153.809	86.5706	153.809	86.4758	153.809	86.4198	153.809	86.2729	153.809	86.1928	153.809	86.0099	153.809	85.9107	153.809	85.7124	153.809	85.6006	153.809	85.4106	153.809	85.2942	153.809	85.1362	153.809	85.0238	153.809	84.918	153.809	84.8178	153.809	84.7775	153.809	84.6959	153.809	84.7252	153.809	84.6653	153.809	84.7584	153.809	84.7199	153.809	84.8625	153.809	84.8423	153.809	85.0144	153.809	85.0075	153.809	85.1868	153.809	85.1879	153.809	85.3529	153.809	85.3576	153.809	85.4897	153.809	85.4945	153.809	85.5797	153.809	85.5826	153.809	85.612
159.668	86.6459	159.668	86.6104	159.668	86.5818	159.668	86.4791	159.668	86.4235	159.668	86.2643	159.668	86.1849	159.668	85.9865	159.668	85.888	159.668	85.6736	159.668	85.5621	159.668	85.3585	159.668	85.2409	159.668	85.0758	159.668	84.9592	159.668	84.8569	159.668	84.7478	159.668	84.7246	159.668	84.6282	159.668	84.689	159.668	84.6086	159.668	84.7457	159.668	84.6827	159.668	84.8774	159.668	84.8313	159.668	85.0579	159.668	85.0269	159.668	85.2574	159.668	85.2385	159.668	85.447	159.668	85.4369	159.668	85.6015	159.668	85.597	159.668	85.7021	159.668	85.7005	159.668	85.7366
165.527	86.8241	165.527	86.7819	165.527	86.76	165.527	86.6371	165.527	86.5951	165.527	86.4029	165.527	86.3444	165.527	86.1017	165.527	86.0319	165.527	85.7637	165.527	85.6887	165.527	85.4246	165.527	85.3512	165.527	85.1222	165.527	85.0565	165.527	84.8909	165.527	84.8376	165.527	84.7559	165.527	84.7171	165.527	84.728	165.527	84.7036	165.527	84.802	165.527	84.7897	165.527	84.9579	165.527	84.9546	165.527	85.1664	165.527	85.1688	165.527	85.394	165.527	85.3993	165.527	85.6086	165.527	85.6145	165.527	85.783	165.527	85.7878	165.527	85.8966	165.527	85.8993	165.527	85.9369
171.387	86.8432	171.387	86.7965	171.387	86.7755	171.387	86.6395	171.387	86.5992	171.387	86.3859	171.387	86.3302	171.387	86.0589	171.387	85.9933	171.387	85.6903	171.387	85.6219	171.387	85.3181	171.387	85.2548	171.387	84.983	171.387	84.9323	171.387	84.7228	171.387	84.6904	171.387	84.5659	171.387	84.5546	171.387	84.5255	171.387	84.5345	171.387	84.5972	171.387	84.6226	171.387	84.7601	171.387	84.7963	171.387	84.9826	171.387	85.0233	171.387	85.2281	171.387	85.2678	171.387	85.4616	171.387	85.4956	171.387	85.653	171.387	85.6778	171.387	85.78	171.387	85.793	171.387	85.8284
177.246	86.8607	177.246	86.8241	177.246	86.7737	177.246	86.6673	177.246	86.5696	177.246	86.4045	177.246	86.2654	177.246	86.0593	177.246	85.8883	177.246	85.6644	177.246	85.4743	177.246	85.2597	177.246	85.0657	177.246	84.8883	177.246	84.7067	177.246	84.5913	177.246	84.437	177.246	84.4011	177.246	84.2842	177.246	84.3348	177.246	84.2588	177.246	84.3904	177.246	84.3521	177.246	84.5478	177.246	84.539	177.246	84.7736	177.246	84.7839	177.246	85.0284	177.246	85.0481	177.246	85.2733	177.246	85.2946	177.246	85.4752	177.246	85.4922	177.246	85.6087	177.246	85.6181	177.246	85.6583
183.105	86.7739	183.105	86.7362	183.105	86.6821	183.105	86.5736	183.105	86.4671	183.105	86.3015	183.105	86.1466	183.105	85.9457	183.105	85.7486	183.105	85.5412	183.105	85.311	183.105	85.1301	183.105	84.8787	183.105	84.7573	183.105	84.4991	183.105	84.4644	183.105	84.2149	183.105	84.2828	183.105	84.0562	183.105	84.2279	183.105	84.0347	183.105	84.2953	183.105	84.1408	183.105	84.4634	183.105	84.3475	183.105	84.6979	183.105	84.6164	183.105	84.959	183.105	84.9055	183.105	85.2079	183.105	85.1754	183.105	85.4109	183.105	85.3932	183.105	85.5423	183.105	85.5347	183.105	85.5857
188.965	86.8054	188.965	86.7549	188.965	86.7168	188.965	86.5708	188.965	86.4953	188.965	86.2699	188.965	86.1588	188.965	85.8805	188.965	85.7367	188.965	85.4409	188.965	85.2694	188.965	84.9971	188.965	84.8052	188.965	84.5983	188.965	84.3953	188.965	84.29	188.965	84.0868	188.965	84.1061	188.965	83.9129	188.965	84.0617	188.965	83.8865	188.965	84.1503	188.965	83.9975	188.965	84.3459	188.965	84.2165	188.965	84.6096	188.965	84.5026	188.965	84.8972	188.965	84.8116	188.965	85.1667	188.965	85.1019	188.965	85.3825	188.965	85.3387	188.965	85.5181	188.965	85.496	188.965	85.5577
196.289	86.8584	196.289	86.8048	196.289	86.7612	196.289	86.6056	196.289	86.52	196.289	86.278	196.289	86.1541	196.289	85.8514	196.289	85.695	196.289	85.3663	196.289	85.1857	196.289	84.8724	196.289	84.6786	196.289	84.4243	196.289	84.2302	196.289	84.0738	196.289	83.8928	196.289	83.8613	196.289	83.705	196.289	83.8063	196.289	83.6822	196.289	83.9032	196.289	83.8131	196.289	84.1231	196.289	84.0638	196.289	84.4215	196.289	84.3863	196.289	84.7483	196.289	84.7296	196.289	85.0558	196.289	85.0472	196.289	85.3045	196.289	85.3012	196.289	85.4655	196.289	85.4645	196.289	85.5209
203.613	86.9242	203.613	86.8573	203.613	86.829	203.613	86.6339	203.613	86.5786	203.613	86.2729	203.613	86.1934	203.613	85.8059	203.613	85.7066	203.613	85.2768	203.613	85.1637	203.613	84.7392	203.613	84.6197	203.613	84.2514	203.613	84.1338	203.613	83.8687	203.613	83.7614	203.613	83.6329	203.613	83.544	203.613	83.5643	203.613	83.5002	203.613	83.6571	203.613	83.6211	203.613	83.882	203.613	83.8732	203.613	84.1937	203.613	84.2067	203.613	84.5402	203.613	84.5664	203.613	84.871	203.613	84.9008	203.613	85.1427	203.613	85.1676	203.613	85.3225	203.613	85.3365	203.613	85.3897
210.938	86.8499	210.938	86.7783	210.938	86.7499	210.938	86.5406	210.938	86.4868	210.938	86.1562	210.938	86.0831	210.938	85.6583	210.938	85.5752	210.938	85.093	210.938	85.0124	210.938	84.5167	210.938	84.4537	210.938	83.9915	210.938	83.9613	210.938	83.577	210.938	83.5917	210.938	83.3199	210.938	83.3842	210.938	83.2434	210.938	83.3527	210.938	83.3419	210.938	83.4829	210.938	83.5826	210.938	83.7377	210.938	83.9151	210.938	84.0669	210.938	84.2828	210.938	84.4172	210.938	84.6324	210.938	84.7395	210.938	84.9199	210.938	84.9939	210.938	85.1131	210.938	85.1507	210.938	85.1923
218.262	86.6043	218.262	86.5372	218.262	86.4888	218.262	86.2937	218.262	86.1993	218.262	85.8953	218.262	85.7597	218.262	85.3786	218.262	85.2088	218.262	84.7947	218.262	84.6002	218.262	84.2065	218.262	83.9993	218.262	83.6826	218.262	83.4775	218.262	83.2882	218.262	83.1013	218.262	83.0721	218.262	82.9189	218.262	83.056	218.262	82.9467	218.262	83.2293	218.262	83.166	218.262	83.552	218.262	83.5287	218.262	83.9661	218.262	83.9709	218.262	84.4075	218.262	84.4271	218.262	84.8168	218.262	84.8401	218.262	85.1456	218.262	85.1647	218.262	85.359	218.262	85.3695	218.262	85.4361
225.586	86.7291	225.586	86.6606	225.586	86.5994	225.586	86.4	225.586	86.2802	225.586	85.9693	225.586	85.7961	225.586	85.4065	225.586	85.1875	225.586	84.7656	225.586	84.5109	225.586	84.1148	225.586	83.8373	225.586	83.5308	225.586	83.2466	225.586	83.0876	225.586	82.8163	225.586	82.8424	225.586	82.6049	225.586	82.8215	225.586	82.6351	225.586	83.0136	225.586	82.8872	225.586	83.374	225.586	83.3054	225.586	83.8377	225.586	83.815	225.586	84.3332	225.586	84.3399	225.586	84.7939	225.586	84.8137	225.586	85.165	225.586	85.1851	225.586	85.4066	225.586	85.4186	225.586	85.4942
232.91	86.9017	232.91	86.8135	232.91	86.781	232.91	86.5227	232.91	86.46	232.91	86.0514	232.91	85.9624	232.91	85.4382	232.91	85.3273	232.91	84.7391	232.91	84.6099	232.91	84.0264	232.91	83.8798	232.91	83.3829	232.91	83.2166	232.91	82.8902	232.91	82.7001	232.91	82.6107	232.91	82.3962	232.91	82.5713	232.91	82.3405	232.91	82.756	232.91	82.5268	232.91	83.1138	232.91	82.9083	232.91	83.5752	232.91	83.4102	232.91	84.0674	232.91	83.9493	232.91	84.5241	232.91	84.449	232.91	84.8905	232.91	84.8489	232.91	85.125	232.91	85.1071	232.91	85.2009
241.699	86.7848	241.699	86.6996	241.699	86.6463	241.699	86.3969	241.699	86.2937	241.699	85.8988	241.699	85.7525	241.699	85.2445	241.699	85.0657	241.699	84.4909	241.699	84.2937	241.699	83.712	241.699	83.513	241.699	82.9947	241.699	82.8106	241.699	82.4281	241.699	82.2715	241.699	82.0861	241.699	81.9616	241.699	82.0069	241.699	81.9114	241.699	82.181	241.699	82.1074	241.699	82.5551	241.699	82.4979	241.699	83.0509	241.699	83.008	241.699	83.5848	241.699	83.5555	241.699	84.0818	241.699	84.0646	241.699	84.4811	241.699	84.4728	241.699	84.7385	241.699	84.7356	241.699	84.8267
250.488	86.8282	250.488	86.7305	250.488	86.6853	250.488	86.3976	250.488	86.3115	250.488	85.8511	250.488	85.7324	250.488	85.1302	250.488	84.9912	250.488	84.294	250.488	84.15	250.488	83.4223	250.488	83.2905	250.488	82.613	250.488	82.5095	250.488	81.9702	250.488	81.9062	250.488	81.5828	250.488	81.5608	250.488	81.4967	250.488	81.5108	250.488	81.6977	250.488	81.738	250.488	82.1193	250.488	82.1769	250.488	82.6696	250.488	82.7377	250.488	83.256	250.488	83.3279	250.488	83.7997	250.488	83.8666	250.488	84.2385	250.488	84.2906	250.488	84.527	250.488	84.5556	250.488	84.6365
259.277	87.0179	259.277	86.9198	259.277	86.8665	259.277	86.5788	259.277	86.4744	259.277	86.0178	259.277	85.8671	259.277	85.2776	259.277	85.0889	259.277	84.4185	259.277	84.205	259.277	83.5212	259.277	83.3012	259.277	82.6831	259.277	82.4788	259.277	82.0079	259.277	81.8412	259.277	81.5874	259.277	81.4715	259.277	81.4766	259.277	81.4091	259.277	81.6724	259.277	81.6355	259.277	82.1114	259.277	82.0838	259.277	82.6931	259.277	82.662	259.277	83.3114	259.277	83.2763	259.277	83.8769	259.277	83.8441	259.277	84.3233	259.277	84.2991	259.277	84.606	259.277	84.5935	259.277	84.6989
268.066	86.8799	268.066	86.744	268.066	86.7435	268.066	86.3479	268.066	86.3405	268.066	85.7212	268.066	85.6962	268.066	84.9115	268.066	84.8573	268.066	83.9864	268.066	83.8943	268.066	83.0317	268.066	82.8996	268.066	82.1477	268.066	81.9827	268.066	81.4376	268.066	81.2581	268.066	80.9906	268.066	80.825	268.066	80.861	268.066	80.7394	268.066	81.0514	268.066	80.9903	268.066	81.508	268.066	81.5013	268.066	82.1345	268.066	82.1607	268.066	82.8183	268.066	82.8555	268.066	83.4561	268.066	83.4898	268.066	83.9672	268.066	83.9911	268.066	84.297	268.066	84.3091	268.066	84.4143
276.855	87.0659	276.855	86.9568	276.855	86.9052	276.855	86.581	276.855	86.4871	276.855	85.9589	276.855	85.84	276.855	85.1309	276.855	85.0084	276.855	84.1615	276.855	84.0523	276.855	83.143	276.855	83.0474	276.855	82.1916	276.855	82.0847	276.855	81.4308	276.855	81.2684	276.855	80.9611	276.855	80.7057	276.855	80.8292	276.855	80.4812	276.855	81.0169	276.855	80.6194	276.855	81.4545	276.855	81.0632	276.855	82.0445	276.855	81.6984	276.855	82.6837	276.855	82.3986	276.855	83.2765	276.855	83.057	276.855	83.7445	276.855	83.5942	276.855	84.0315	276.855	83.9547	276.855	84.1047
287.109	86.9006	287.109	86.7665	287.109	86.729	287.109	86.3367	287.109	86.2623	287.109	85.642	287.109	85.5338	287.109	84.735	287.109	84.6026	287.109	83.6919	287.109	83.5556	287.109	82.6124	287.109	82.5036	287.109	81.6154	287.109	81.57	287.109	80.8283	287.109	80.8698	287.109	80.3643	287.109	80.4891	287.109	80.2878	287.109	80.4688	287.109	80.5859	287.109	80.7941	287.109	81.1745	287.109	81.3921	287.109	81.9318	287.109	82.1469	287.109	82.734	287.109	82.9312	287.109	83.4734	287.109	83.6352	287.109	84.0665	287.109	84.1795	287.109	84.4557	287.109	84.5131	287.109	84.608
297.363	87.1359	297.363	87.0087	297.363	86.936	297.363	86.5646	297.363	86.4186	297.363	85.8343	297.363	85.6135	297.363	84.8716	297.363	84.5749	297.363	83.756	297.363	83.3872	297.363	82.5941	297.363	82.1704	297.363	81.5156	297.363	81.0765	297.363	80.6601	297.363	80.2662	297.363	80.1514	297.363	79.8631	297.363	80.0646	297.363	79.9086	297.363	80.3959	297.363	80.3526	297.363	81.0574	297.363	81.082	297.363	81.9072	297.363	81.9593	297.363	82.7953	297.363	82.8511	297.363	83.5976	297.363	83.6461	297.363	84.2267	297.363	84.2623	297.363	84.6279	297.363	84.6468	297.363	84.7713
307.617	87.4656	307.617	87.3133	307.617	87.2702	307.617	86.8184	307.617	86.7398	307.617	86.0045	307.617	85.9063	307.617	84.9189	307.617	84.8249	307.617	83.6399	307.617	83.5788	307.617	82.2852	307.617	82.2824	307.617	81.0133	307.617	81.079	307.617	80.0044	307.617	80.127	307.617	79.411	307.617	79.5715	307.617	79.298	307.617	79.4985	307.617	79.6239	307.617	79.8916	307.617	80.281	307.617	80.6342	307.617	81.1433	307.617	81.5611	307.617	82.0852	307.617	82.5123	307.617	82.9843	307.617	83.3582	307.617	83.7312	307.617	84.0035	307.617	84.2425	307.617	84.3847	307.617	84.4671
319.336	86.9528	319.336	86.7759	319.336	86.7634	319.336	86.237	319.336	86.2206	319.336	85.36	319.336	85.3548	319.336	84.193	319.336	84.2172	319.336	82.8137	319.336	82.8859	319.336	81.3377	319.336	81.4736	319.336	79.9255	319.336	80.1321	319.336	78.7843	319.336	79.0459	319.336	78.1397	319.336	78.4017	319.336	78.1417	319.336	78.3235	319.336	78.7485	319.336	78.7978	319.336	79.7418	319.336	79.6735	319.336	80.8714	319.336	80.7449	319.336	81.9546	319.336	81.8284	319.336	82.8816	319.336	82.7877	319.336	83.5861	319.336	83.5307	319.336	84.0241	319.336	84	319.336	84.1665
329.59	86.8885	329.59	86.7202	329.59	86.6881	329.59	86.192	329.59	86.1271	329.59	85.3308	329.59	85.2336	329.59	84.1842	329.59	84.0601	329.59	82.8268	329.59	82.689	329.59	81.3652	329.59	81.2345	329.59	79.9401	329.59	79.8384	329.59	78.7231	329.59	78.6601	329.59	77.9086	329.59	77.8673	329.59	77.6814	329.59	77.6096	329.59	78.1107	329.59	77.9434	329.59	79.0538	329.59	78.7666	329.59	80.2347	329.59	79.8666	329.59	81.4052	329.59	81.0283	329.59	82.4078	329.59	82.0872	329.59	83.1556	329.59	82.9304	329.59	83.5998	329.59	83.4857	329.59	83.713
341.309	86.8251	341.309	86.6662	341.309	86.5867	341.309	86.1196	341.309	85.9604	341.309	85.2155	341.309	84.9762	341.309	84.0091	341.309	83.689	341.309	82.5859	341.309	82.1856	341.309	81.0649	341.309	80.5926	341.309	79.5959	341.309	79.0795	341.309	78.3461	341.309	77.8516	341.309	77.4846	341.309	77.1266	341.309	77.1634	341.309	77.0692	341.309	77.4716	341.309	77.6817	341.309	78.3554	341.309	78.7693	341.309	79.602	341.309	80.0593	341.309	80.941	341.309	81.3259	341.309	82.1512	341.309	82.421	341.309	83.0924	341.309	83.2527	341.309	83.6905	341.309	83.7628	341.309	83.9148
353.027	87.1903	353.027	87.0164	353.027	86.9642	353.027	86.4496	353.027	86.351	353.027	85.5164	353.027	85.3859	353.027	84.2637	353.027	84.129	353.027	82.7626	353.027	82.6657	353.027	81.1141	353.027	81.1016	353.027	79.453	353.027	79.5494	353.027	77.9442	353.027	78.1189	353.027	76.7763	353.027	76.9344	353.027	76.1617	353.027	76.1951	353.027	76.2914	353.027	76.1765	353.027	77.166	353.027	76.9923	353.027	78.5077	353.027	78.3739	353.027	79.9534	353.027	79.8943	353.027	81.2438	353.027	81.2452	353.027	82.2382	353.027	82.267	353.027	82.8656	353.027	82.8897	353.027	83.0889
366.211	87.265	366.211	87.0356	366.211	87.0314	366.211	86.3463	366.211	86.3511	366.211	85.2225	366.211	85.26	366.211	83.7215	366.211	83.8193	366.211	81.9458	366.211	82.126	366.211	80.0592	366.211	80.3282	366.211	78.2878	366.211	78.6295	366.211	76.8841	366.211	77.2591	366.211	76.0555	366.211	76.4062	366.211	75.9007	366.211	76.1708	366.211	76.3883	366.211	76.5614	366.211	77.3783	366.211	77.4869	366.211	78.6691	366.211	78.7534	366.211	80.0428	366.211	80.1192	366.211	81.3033	366.211	81.3694	366.211	82.3016	366.211	82.3502	366.211	82.9406	366.211	82.9663	366.211	83.1679
379.395	87.5704	379.395	87.3651	379.395	87.2794	379.395	86.6729	379.395	86.5033	379.395	85.5238	379.395	85.2794	379.395	83.9723	379.395	83.6808	379.395	82.1087	379.395	81.8287	379.395	80.0736	379.395	79.8988	379.395	78.0671	379.395	78.1041	379.395	76.3354	379.395	76.6429	379.395	75.1362	379.395	75.6568	379.395	74.7014	379.395	75.2576	379.395	75.1497	379.395	75.5571	379.395	76.3575	379.395	76.5646	379.395	77.9952	379.395	78.0664	379.395	79.7124	379.395	79.7216	379.395	81.2476	379.395	81.2361	379.395	82.4344	379.395	82.4204	379.395	83.1764	379.395	83.1679	379.395	83.4255
392.578	87.0337	392.578	86.8503	392.578	86.7138	392.578	86.1672	392.578	85.9067	392.578	85.0093	392.578	84.6505	392.578	83.4312	392.578	83.0131	392.578	81.5324	392.578	81.1064	392.578	79.4769	392.578	79.1028	392.578	77.4966	392.578	77.2365	392.578	75.8458	392.578	75.7598	392.578	74.7266	392.578	74.8693	392.578	74.2752	392.578	74.6693	392.578	74.5839	392.578	75.1718	392.578	75.6269	392.578	76.2712	392.578	77.1822	392.578	77.7453	392.578	78.9169	392.578	79.3295	392.578	80.5281	392.578	80.7903	392.578	81.8047	392.578	81.9498	392.578	82.6218	392.578	82.6844	392.578	82.9189
405.762	86.8977	405.762	86.6023	405.762	86.6639	405.762	85.7872	405.762	85.9107	405.762	84.4849	405.762	84.6678	405.762	82.7604	405.762	82.9927	405.762	80.7274	405.762	80.9886	405.762	78.5685	405.762	78.8298	405.762	76.5409	405.762	76.7686	405.762	74.9262	405.762	75.0798	405.762	73.9386	405.762	73.9837	405.762	73.706	405.762	73.6696	405.762	74.2923	405.762	74.2749	405.762	75.6004	405.762	75.6767	405.762	77.332	405.762	77.4942	405.762	79.1476	405.762	79.3456	405.762	80.7873	405.762	80.9711	405.762	82.0773	405.762	82.2127	405.762	82.9065	405.762	82.9769	405.762	83.2133
420.41	87.5965	420.41	87.3685	420.41	87.2367	420.41	86.5588	420.41	86.3052	420.41	85.1976	420.41	84.8451	420.41	83.3495	420.41	82.9381	420.41	81.1351	420.41	80.7241	420.41	78.7588	420.41	78.4232	420.41	76.5032	420.41	76.3196	420.41	74.6325	420.41	74.6582	420.41	73.2882	420.41	73.5415	420.41	72.6149	420.41	73.0253	420.41	72.9557	420.41	73.2793	420.41	74.4623	420.41	74.4261	420.41	76.6171	420.41	76.2364	420.41	78.7682	420.41	78.2563	420.41	80.5665	420.41	80.1054	420.41	81.8777	420.41	81.555	420.41	82.6498	420.41	82.4885	420.41	82.857
435.059	86.8323	435.059	86.5423	435.059	86.5372	435.059	85.6748	435.059	85.6685	435.059	84.2556	435.059	84.2625	435.059	82.3333	435.059	82.3904	435.059	79.9974	435.059	80.1779	435.059	77.4223	435.059	77.8322	435.059	74.9255	435.059	75.646	435.059	72.9484	435.059	73.9097	435.059	71.8413	435.059	72.7529	435.059	71.6463	435.059	72.191	435.059	72.2043	435.059	72.4355	435.059	73.4289	435.059	73.7878	435.059	75.2966	435.059	75.9603	435.059	77.5401	435.059	78.2745	435.059	79.6962	435.059	80.2813	435.059	81.411	435.059	81.7829	435.059	82.5121	435.059	82.6866	435.059	82.9389
451.172	87.2994	451.172	87.0286	451.172	86.9162	451.172	86.1039	451.172	85.8845	451.172	84.5353	451.172	84.2194	451.172	82.3592	451.172	81.9608	451.172	79.6857	451.172	79.2191	451.172	76.7968	451.172	76.2752	451.172	74.2094	451.172	73.6719	451.172	72.3485	451.172	71.9662	451.172	71.0987	451.172	71.2601	451.172	70.3299	451.172	71.4002	451.172	70.5608	451.172	72.2708	451.172	72.1366	451.172	73.6936	451.172	74.3843	451.172	75.4484	451.172	76.626	451.172	77.3186	451.172	78.581	451.172	79.0621	451.172	80.1142	451.172	80.4434	451.172	81.1209	451.172	81.2934	451.172	81.5253
465.82	87.0773	465.82	86.7408	465.82	86.7273	465.82	85.7246	465.82	85.6979	465.82	84.0562	465.82	84.0143	465.82	81.8021	465.82	81.7388	465.82	79.1038	465.82	79.0185	465.82	76.2272	465.82	76.1592	465.82	73.5631	465.82	73.6166	465.82	71.4589	465.82	71.7008	465.82	70.0546	465.82	70.3263	465.82	69.5284	465.82	69.4093	465.82	70.2734	465.82	69.4482	465.82	72.2256	465.82	71.0679	465.82	74.6813	465.82	73.6899	465.82	77.0483	465.82	76.3386	465.82	79.0404	465.82	78.5639	465.82	80.5206	465.82	80.2251	465.82	81.4108	465.82	81.2684	465.82	81.666
483.398	87.5142	483.398	87.2194	483.398	87.0774	483.398	86.1909	483.398	85.9198	483.398	84.4386	483.398	84.0626	483.398	82.0005	483.398	81.5477	483.398	78.9948	483.398	78.4823	483.398	75.7534	483.398	75.1749	483.398	72.9488	483.398	72.3153	483.398	71.1357	483.398	70.5244	483.398	69.9664	483.398	69.4702	483.398	68.7177	483.398	68.6872	483.398	67.3825	483.398	68.7694	483.398	68.1961	483.398	70.6682	483.398	71.9942	483.398	73.6616	483.398	75.8597	483.398	76.6161	483.398	78.8211	483.398	79.0801	483.398	80.8622	483.398	80.9112	483.398	82.0513	483.398	82.0435	483.398	82.4344
499.512	87.1221	499.512	86.783	499.512	86.7132	499.512	85.7098	499.512	85.5479	499.512	83.9236	499.512	83.6241	499.512	81.4625	499.512	80.9615	499.512	78.4274	499.512	77.6837	499.512	75.138	499.512	74.3021	499.512	72.3404	499.512	71.9609	499.512	70.6584	499.512	71.0814	499.512	69.6571	499.512	70.6202	499.512	68.8158	499.512	69.9101	499.512	68.5236	499.512	69.2933	499.512	69.667	499.512	70.1908	499.512	72.1839	499.512	73.0141	499.512	75.1485	499.512	76.1914	499.512	77.8571	499.512	78.7963	499.512	79.9648	499.512	80.6254	499.512	81.3263	499.512	81.6578	499.512	81.8929
517.09	86.8021	517.09	86.4548	517.09	86.3426	517.09	85.3121	517.09	85.0651	517.09	83.3887	517.09	82.9656	517.09	80.719	517.09	80.0837	517.09	77.4228	517.09	76.6371	517.09	73.9557	517.09	73.3626	517.09	71.4441	517.09	71.4236	517.09	70.4687	517.09	70.7324	517.09	69.8777	517.09	70.1274	517.09	68.661	517.09	68.8979	517.09	66.7497	517.09	67.1399	517.09	66.2998	517.09	67.2311	517.09	69.6998	517.09	70.6805	517.09	73.8044	517.09	74.4781	517.09	77.0956	517.09	77.5192	517.09	79.4554	517.09	79.7086	517.09	80.8955	517.09	81.0167	517.09	81.4162
536.133	86.4657	536.133	86.0944	536.133	85.9776	536.133	84.8683	536.133	84.6349	536.133	82.8026	536.133	82.4614	536.133	79.947	536.133	79.5343	536.133	76.5018	536.133	76.127	536.133	73.201	536.133	73.0902	536.133	71.449	536.133	71.6482	536.133	71.3105	536.133	71.508	536.133	71.3536	536.133	71.4156	536.133	70.6585	536.133	70.622	536.133	68.8041	536.133	68.71	536.133	66.6162	536.133	66.5967	536.133	68.7959	536.133	69.1757	536.133	73.2737	536.133	73.7122	536.133	76.7654	536.133	77.1117	536.133	79.1539	536.133	79.3783	536.133	80.5722	536.133	80.6796	536.133	81.0754
555.176	86.4622	555.176	86.1015	555.176	85.9145	555.176	84.8398	555.176	84.4597	555.176	82.682	555.176	82.1102	555.176	79.6194	555.176	78.9008	555.176	75.6943	555.176	75.0365	555.176	71.556	555.176	71.6326	555.176	69.5764	555.176	70.7538	555.176	70.0988	555.176	71.4868	555.176	70.7397	555.176	72.002	555.176	70.5865	555.176	71.7103	555.176	69.1659	555.176	70.216	555.176	65.9141	555.176	67.3045	555.176	65.2332	555.176	67.3445	555.176	71.0764	555.176	72.2042	555.176	75.4638	555.176	75.9825	555.176	78.1908	555.176	78.3807	555.176	79.698	555.176	79.7415	555.176	80.1857
574.219	86.1726	574.219	85.6518	574.219	85.6214	574.219	84.0683	574.219	83.9955	574.219	81.4501	574.219	81.2966	574.219	77.8609	574.219	77.5523	574.219	73.5119	574.219	73.0464	574.219	69.6944	574.219	69.6321	574.219	69.3614	574.219	69.8305	574.219	70.8663	574.219	71.1543	574.219	71.7797	574.219	71.8606	574.219	71.6717	574.219	71.7171	574.219	70.3388	574.219	70.4973	574.219	67.0255	574.219	67.5311	574.219	61.6498	574.219	65.0055	574.219	68.4151	574.219	71.2054	574.219	74.4749	574.219	76.3099	574.219	78.0777	574.219	79.3	574.219	80.1538	574.219	80.7773	574.219	81.0301
594.727	87.0047	594.727	86.4874	594.727	86.1755	594.727	84.6315	594.727	83.9449	594.727	81.3838	594.727	80.2059	594.727	76.5869	594.727	74.7722	594.727	69.9756	594.727	67.6232	594.727	63.7015	594.727	63.5505	594.727	65.5321	594.727	66.5726	594.727	68.688	594.727	69.6114	594.727	71.0221	594.727	71.7379	594.727	72.4928	594.727	72.9642	594.727	72.9985	594.727	73.2655	594.727	72.248	594.727	72.3092	594.727	69.2004	594.727	68.7492	594.727	59.4726	594.727	48.5849	594.727	68.7278	594.727	69.7402	594.727	75.6118	594.727	76.2929	594.727	78.8064	594.727	79.1512	594.727	79.8903
615.234	87.0488	615.234	86.4692	615.234	86.1991	615.234	84.4085	615.234	83.8902	615.234	80.6843	615.234	79.9719	615.234	74.7509	615.234	74.1266	615.234	65.8003	615.234	67.6239	615.234	65.8259	615.234	67.5854	615.234	68.5128	615.234	68.6987	615.234	68.8339	615.234	68.9325	615.234	68.9326	615.234	69.7607	615.234	70.147	615.234	71.2567	615.234	71.7824	615.234	72.4934	615.234	72.8992	615.234	73.1792	615.234	73.0739	615.234	73.2287	615.234	72.038	615.234	72.098	615.234	70.4076	615.234	69.6688	615.234	71.5885	615.234	70.6892	615.234	74.3794	615.234	74.1677	615.234	75.4693
637.207	86.8773	637.207	86.2417	637.207	86.0748	637.207	84.1045	637.207	83.7942	637.207	80.2968	637.207	79.8952	637.207	74.8658	637.207	74.472	637.207	71.2865	637.207	70.8359	637.207	72.3138	637.207	71.7476	637.207	72.9518	637.207	72.4995	637.207	72.5915	637.207	72.2666	637.207	71.7427	637.207	71.3471	637.207	70.7587	637.207	70.2966	637.207	70.0836	637.207	70.2001	637.207	70.6805	637.207	71.3423	637.207	72.4639	637.207	72.9491	637.207	74.0398	637.207	74.5201	637.207	74.7493	637.207	75.5625	637.207	74.7811	637.207	75.7485	637.207	74.7114	637.207	75.3348	637.207	74.8955
659.18	88.1889	659.18	87.5336	659.18	87.4511	659.18	85.4599	659.18	85.2614	659.18	81.8901	659.18	81.4865	659.18	76.8934	659.18	76.2528	659.18	72.2795	659.18	72.3436	659.18	71.9311	659.18	72.6487	659.18	72.9347	659.18	73.312	659.18	73.2886	659.18	73.3277	659.18	73.0374	659.18	72.8824	659.18	72.1513	659.18	71.8912	659.18	70.219	659.18	69.9814	659.18	67.5031	659.18	68.196	659.18	69.0491	659.18	70.5063	659.18	73.8841	659.18	74.2701	659.18	77.7	659.18	77.2899	659.18	80.1747	659.18	79.5446	659.18	81.4471	659.18	81.0263	659.18	81.6853
682.617	87.4894	682.617	86.9718	682.617	86.4283	682.617	84.8246	682.617	83.7597	682.617	80.8554	682.617	79.3239	682.617	74.6811	682.617	72.9638	682.617	69.7023	682.617	69.6528	682.617	72.5287	682.617	72.4767	682.617	74.5506	682.617	74.097	682.617	75.038	682.617	74.3666	682.617	74.4042	682.617	73.8884	682.617	73.0134	682.617	73.1463	682.617	71.1077	682.617	71.8297	682.617	67.9272	682.617	68.3581	682.617	63.385	682.617	62.7083	682.617	69.8028	682.617	70.3664	682.617	75.7173	682.617	75.8813	682.617	79.3751	682.617	79.3016	682.617	81.4895	682.617	81.405	682.617	82.1648
707.52	87.2433	707.52	86.4447	707.52	86.3849	707.52	83.9239	707.52	83.7701	707.52	79.4407	707.52	79.0925	707.52	72.891	707.52	72.5181	707.52	69.6843	707.52	70.8499	707.52	72.0872	707.52	72.929	707.52	73.6879	707.52	74.0744	707.52	74.586	707.52	74.7005	707.52	74.936	707.52	74.7392	707.52	74.501	707.52	74.1256	707.52	73.1507	707.52	73.2519	707.52	70.5846	707.52	71.7473	707.52	65.7717	707.52	67.2426	707.52	67.2936	707.52	66.1616	707.52	73.6725	707.52	73.8364	707.52	77.1634	707.52	77.4567	707.52	78.9123	707.52	79.055	707.52	79.491
732.422	86.7038	732.422	86.0218	732.422	85.7331	732.422	83.6182	732.422	83.031	732.422	79.2015	732.422	78.3771	732.422	72.6407	732.422	72.8592	732.422	71.1454	732.422	73.2417	732.422	74.0054	732.422	75.2318	732.422	75.1696	732.422	75.9071	732.422	75.268	732.422	76.0042	732.422	75.0072	732.422	75.9897	732.422	74.8201	732.422	75.5904	732.422	74.4203	732.422	74.3899	732.422	72.6428	732.422	72.3116	732.422	67.281	732.422	68.7732	732.422	56.3339	732.422	62.3011	732.422	71.1074	732.422	70.0313	732.422	76.6999	732.422	76.1856	732.422	79.5389	732.422	79.3074	732.422	80.3669
757.324	87.1096	757.324	86.2803	757.324	86.1014	757.324	83.4481	757.324	83.1728	757.324	78.1509	757.324	77.9293	757.324	70.9419	757.324	71.4349	757.324	71.0634	757.324	72.2606	757.324	72.8562	757.324	73.8107	757.324	73.7583	757.324	74.2226	757.324	74.7683	757.324	74.8955	757.324	75.5323	757.324	75.7142	757.324	75.7372	757.324	75.9991	757.324	75.5879	757.324	75.699	757.324	74.9003	757.324	74.8275	757.324	72.5272	757.324	72.3332	757.324	66.7315	757.324	65.4725	757.324	69.1917	757.324	68.6351	757.324	75.3688	757.324	75.3916	757.324	78.4585	757.324	78.4857	757.324	79.4374
785.156	86.6991	785.156	85.7648	785.156	85.5954	785.156	82.6775	785.156	82.3129	785.156	77.0945	785.156	76.3836	785.156	70.7102	785.156	69.8752	785.156	72.2504	785.156	71.4682	785.156	74.1113	785.156	73.0023	785.156	74.1798	785.156	73.579	785.156	73.4426	785.156	73.8761	785.156	73.4269	785.156	74.1792	785.156	74.0175	785.156	74.7631	785.156	73.6308	785.156	75.1507	785.156	71.7645	785.156	74.2904	785.156	68.8633	785.156	71.204	785.156	65.542	785.156	66.152	785.156	68.1016	785.156	68.3115	785.156	72.1989	785.156	72.3773	785.156	74.1297	785.156	74.363	785.156	74.7906
811.523	86.7072	811.523	85.945	811.523	85.343	811.523	82.9282	811.523	81.6039	811.523	77.2362	811.523	74.6699	811.523	71.5902	811.523	70.1235	811.523	73.3955	811.523	74.6112	811.523	74.6321	811.523	76.2617	811.523	74.5596	811.523	75.9832	811.523	73.8905	811.523	74.9794	811.523	73.4286	811.523	74.3867	811.523	73.9436	811.523	74.651	811.523	74.725	811.523	75.3597	811.523	74.5795	811.523	75.5511	811.523	72.8534	811.523	74.1229	811.523	68.5748	811.523	70.2678	811.523	63.9866	811.523	67.7099	811.523	71.1378	811.523	72.0571	811.523	74.8927	811.523	75.104	811.523	75.9926
840.82	84.9687	840.82	83.9167	840.82	83.8605	840.82	80.6305	840.82	80.3548	840.82	74.247	840.82	74.154	840.82	68.1734	840.82	70.7382	840.82	72.9915	840.82	73.401	840.82	74.7533	840.82	74.1995	840.82	74.5817	840.82	73.4785	840.82	73.764	840.82	72.3287	840.82	73.2818	840.82	72.2424	840.82	73.7576	840.82	73.4833	840.82	74.6689	840.82	74.5446	840.82	74.8273	840.82	74.8368	840.82	73.3641	840.82	73.8038	840.82	68.9628	840.82	70.454	840.82	68.7155	840.82	71.6375	840.82	75.3483	840.82	76.6546	840.82	78.2704	840.82	78.8769	840.82	79.2147
870.117	86.3554	870.117	85.3204	870.117	85.0387	870.117	81.8037	870.117	80.8914	870.117	75.4551	870.117	72.2411	870.117	72.0503	870.117	71.8758	870.117	74.2955	870.117	75.556	870.117	74.8451	870.117	76.1371	870.117	74.5733	870.117	75.7353	870.117	74.2868	870.117	74.9994	870.117	74.0177	870.117	73.8927	870.117	73.7862	870.117	73.1239	870.117	74.1949	870.117	74.1558	870.117	74.7917	870.117	75.4019	870.117	73.8948	870.117	74.9022	870.117	70.8955	870.117	72.459	870.117	68.9326	870.117	70.0136	870.117	74.955	870.117	73.0708	870.117	79.366	870.117	78.0801	870.117	80.3145
900.879	86.6363	900.879	85.5522	900.879	85.0827	900.879	82.0553	900.879	80.4989	900.879	76.7761	900.879	73.7616	900.879	73.5062	900.879	74.4314	900.879	73.8815	900.879	76.2545	900.879	73.9784	900.879	76.3732	900.879	72.9681	900.879	75.9497	900.879	70.8931	900.879	75.2554	900.879	68.2549	900.879	73.6812	900.879	69.3237	900.879	72.0665	900.879	72.8332	900.879	72.3561	900.879	75.1702	900.879	73.0075	900.879	76.1066	900.879	72.6757	900.879	74.5427	900.879	70.5118	900.879	69.8104	900.879	71.0793	900.879	72.0842	900.879	75.4058	900.879	75.8233	900.879	77.3327	900.879	77.3347
933.105	88.2556	933.105	87.2694	933.105	86.6189	933.105	83.5459	933.105	81.8518	933.105	76.3504	933.105	73.6352	933.105	67.3237	933.105	75.6682	933.105	70.0881	933.105	77.5781	933.105	70.5392	933.105	78.0107	933.105	70.0593	933.105	78.3477	933.105	70.0881	933.105	77.9508	933.105	69.2121	933.105	76.9869	933.105	66.8349	933.105	76.504	933.105	70.0488	933.105	75.8419	933.105	73.693	933.105	74.9108	933.105	73.9812	933.105	75.012	933.105	72.3442	933.105	73.6505	933.105	69.3607	933.105	68.013	933.105	72.8223	933.105	72.7799	933.105	78.0611	933.105	78.1681	933.105	79.6554
965.332	87.7032	965.332	86.408	965.332	86.1144	965.332	82.0857	965.332	80.9567	965.332	73.1037	965.332	73.2406	965.332	73.756	965.332	75.063	965.332	77.8789	965.332	76.8327	965.332	78.6669	965.332	76.8811	965.332	78.0916	965.332	75.749	965.332	76.6683	965.332	74.6493	965.332	74.256	965.332	73.8735	965.332	71.0997	965.332	72.697	965.332	68.921	965.332	72.2045	965.332	70.2365	965.332	73.5052	965.332	72.328	965.332	73.2734	965.332	70.4754	965.332	70.2228	965.332	62.6358	965.332	70.8846	965.332	68.1925	965.332	70.9036	965.332	73.1152	965.332	73.0617	965.332	74.9909
1,000.49	86.5395	1,000.49	85.2992	1,000.49	84.5586	1,000.49	80.1796	1,000.49	79.1666	1,000.49	70.8172	1,000.49	72.8328	1,000.49	75.0293	1,000.49	75.5732	1,000.49	77.2245	1,000.49	76.8582	1,000.49	77.2365	1,000.49	76.101	1,000.49	76.4728	1,000.49	74.5595	1,000.49	75.6205	1,000.49	73.0961	1,000.49	74.7216	1,000.49	72.4871	1,000.49	72.5144	1,000.49	73.0981	1,000.49	69.4245	1,000.49	74.006	1,000.49	71.2579	1,000.49	75.4923	1,000.49	72.0544	1,000.49	76.1326	1,000.49	70.4081	1,000.49	74.3427	1,000.49	66.4012	1,000.49	69.0566	1,000.49	69.7786	1,000.49	70.4579	1,000.49	73.8289	1,000.49	73.8426	1,000.49	74.5768
1,035.64	88.0978	1,035.64	87.0019	1,035.64	86.1359	1,035.64	82.5537	1,035.64	80.7786	1,035.64	74.2834	1,035.64	72.6153	1,035.64	73.5293	1,035.64	73.3383	1,035.64	75.0841	1,035.64	74.791	1,035.64	74.5053	1,035.64	74.8074	1,035.64	73.8763	1,035.64	75.2277	1,035.64	73.4225	1,035.64	75.5299	1,035.64	72.7036	1,035.64	74.8354	1,035.64	71.834	1,035.64	72.6556	1,035.64	69.3079	1,035.64	68.5559	1,035.64	65.3212	1,035.64	66.5026	1,035.64	69.8974	1,035.64	71.4517	1,035.64	71.7393	1,035.64	72.7902	1,035.64	70.7452	1,035.64	73.5353	1,035.64	71.5439	1,035.64	74.3648	1,035.64	74.1822	1,035.64	75.289	1,035.64	75.91
1,072.27	87.2719	1,072.27	85.8615	1,072.27	84.8783	1,072.27	80.0183	1,072.27	78.3404	1,072.27	68.9295	1,072.27	71.8753	1,072.27	75.6365	1,072.27	77.6771	1,072.27	78.3308	1,072.27	79.3181	1,072.27	78.8468	1,072.27	78.8758	1,072.27	78.7081	1,072.27	77.9779	1,072.27	78.1991	1,072.27	77.0983	1,072.27	77.415	1,072.27	75.3896	1,072.27	76.3369	1,072.27	74.2491	1,072.27	73.7303	1,072.27	74.8972	1,072.27	69.6792	1,072.27	74.4925	1,072.27	67.4688	1,072.27	73.3133	1,072.27	62.7447	1,072.27	68.2791	1,072.27	67.2299	1,072.27	65.6782	1,072.27	72.6453	1,072.27	72.1242	1,072.27	75.7339	1,072.27	75.1714	1,072.27	76.3622
1,108.89	86.7144	1,108.89	85.1534	1,108.89	84.7111	1,108.89	78.9107	1,108.89	78.1579	1,108.89	66.1295	1,108.89	71.1222	1,108.89	76.5124	1,108.89	77.2349	1,108.89	78.6951	1,108.89	78.5076	1,108.89	78.4532	1,108.89	78.7619	1,108.89	77.8732	1,108.89	77.7067	1,108.89	77.8675	1,108.89	75.9202	1,108.89	77.3245	1,108.89	75.4966	1,108.89	76.5946	1,108.89	74.9349	1,108.89	76.5027	1,108.89	73.1452	1,108.89	76.0028	1,108.89	71.9082	1,108.89	74.2025	1,108.89	71.6651	1,108.89	69.1085	1,108.89	68.4708	1,108.89	54.0383	1,108.89	58.3698	1,108.89	71.188	1,108.89	69.379	1,108.89	74.3321	1,108.89	73.4079	1,108.89	74.8838
1,148.44	84.6682	1,148.44	82.9668	1,148.44	82.6441	1,148.44	76.6583	1,148.44	75.0305	1,148.44	71.6273	1,148.44	75.3624	1,148.44	78.2582	1,148.44	79.0015	1,148.44	79.8156	1,148.44	79.9358	1,148.44	79.9463	1,148.44	79.4536	1,148.44	79.5071	1,148.44	77.8784	1,148.44	78.7575	1,148.44	76.481	1,148.44	77.7554	1,148.44	75.3898	1,148.44	76.7607	1,148.44	73.4751	1,148.44	76.2956	1,148.44	72.7089	1,148.44	75.7175	1,148.44	71.304	1,148.44	74.7961	1,148.44	71.4209	1,148.44	72.4404	1,148.44	69.7383	1,148.44	65.8438	1,148.44	53.568	1,148.44	68.7014	1,148.44	69.9657	1,148.44	72.4592	1,148.44	72.5232	1,148.44	73.2252
1,189.45	83.9962	1,189.45	82.0435	1,189.45	81.6222	1,189.45	73.5767	1,189.45	74.7386	1,189.45	74.4971	1,189.45	74.9467	1,189.45	78.4128	1,189.45	78.8842	1,189.45	79.2914	1,189.45	78.7245	1,189.45	78.3419	1,189.45	77.4276	1,189.45	76.2807	1,189.45	76.3403	1,189.45	74.2493	1,189.45	74.0411	1,189.45	72.978	1,189.45	73.723	1,189.45	72.7482	1,189.45	74.5822	1,189.45	72.9164	1,189.45	73.4336	1,189.45	73.7295	1,189.45	72.8153	1,189.45	75.4032	1,189.45	72.4362	1,189.45	75.6013	1,189.45	73.8142	1,189.45	71.3481	1,189.45	69.7861	1,189.45	57.6188	1,189.45	60.3424	1,189.45	61.7844	1,189.45	68.8155	1,189.45	66.3093
1,230.47	85.5981	1,230.47	83.7479	1,230.47	83.3475	1,230.47	78.0601	1,230.47	76.8335	1,230.47	75.9735	1,230.47	74.7391	1,230.47	77.6094	1,230.47	77.8278	1,230.47	77.2742	1,230.47	78.683	1,230.47	76.8383	1,230.47	78.133	1,230.47	76.6025	1,230.47	76.3296	1,230.47	75.2953	1,230.47	74.1254	1,230.47	74.7255	1,230.47	73.5881	1,230.47	75.6728	1,230.47	73.6839	1,230.47	75.9029	1,230.47	74.3503	1,230.47	75.1959	1,230.47	74.7054	1,230.47	75.5503	1,230.47	73.882	1,230.47	74.601	1,230.47	74.084	1,230.47	70.5039	1,230.47	71.0388	1,230.47	55.3388	1,230.47	59.3911	1,230.47	67.0467	1,230.47	68.4661	1,230.47	69.9557
1,274.41	87.2884	1,274.41	85.4168	1,274.41	85.0881	1,274.41	79.6987	1,274.41	77.7389	1,274.41	76.5425	1,274.41	75.8784	1,274.41	79.0282	1,274.41	79.2036	1,274.41	79.9615	1,274.41	80.5933	1,274.41	79.3773	1,274.41	79.9719	1,274.41	77.7884	1,274.41	78.5501	1,274.41	76.6633	1,274.41	76.9638	1,274.41	75.0375	1,274.41	75.1768	1,274.41	74.2787	1,274.41	75.404	1,274.41	74.943	1,274.41	74.6733	1,274.41	74.7836	1,274.41	74.8875	1,274.41	73.1942	1,274.41	73.5258	1,274.41	71.9691	1,274.41	72.1359	1,274.41	68.7026	1,274.41	70.7686	1,274.41	61.8863	1,274.41	65.4367	1,274.41	70.7658	1,274.41	72.682	1,274.41	73.5979
1,319.82	87.0158	1,319.82	85.4338	1,319.82	84.4889	1,319.82	79.5251	1,319.82	77.2399	1,319.82	74.6267	1,319.82	74.6517	1,319.82	78.8928	1,319.82	79.7294	1,319.82	81.1259	1,319.82	81.5796	1,319.82	80.6943	1,319.82	81.2782	1,319.82	79.7643	1,319.82	79.8548	1,319.82	77.9225	1,319.82	77.5198	1,319.82	74.877	1,319.82	74.9496	1,319.82	75.1754	1,319.82	73.1634	1,319.82	76.6555	1,319.82	74.1802	1,319.82	75.6503	1,319.82	75.8381	1,319.82	74.2118	1,319.82	75.9063	1,319.82	73.6239	1,319.82	72.6942	1,319.82	71.9971	1,319.82	67.7018	1,319.82	60.7254	1,319.82	63.8145	1,319.82	66.0757	1,319.82	70.7167	1,319.82	68.9331
1,366.7	86.8948	1,366.7	85.4848	1,366.7	83.9252	1,366.7	79.4169	1,366.7	74.3092	1,366.7	73.531	1,366.7	77.6908	1,366.7	79.9099	1,366.7	82.9368	1,366.7	82.7606	1,366.7	83.8952	1,366.7	82.951	1,366.7	82.8567	1,366.7	81.7173	1,366.7	80.9776	1,366.7	79.3266	1,366.7	79.1021	1,366.7	75.2589	1,366.7	76.1188	1,366.7	72.4218	1,366.7	73.9999	1,366.7	71.6369	1,366.7	73.7925	1,366.7	74.6691	1,366.7	74.6942	1,366.7	75.3614	1,366.7	76.836	1,366.7	75.5141	1,366.7	75.9985	1,366.7	73.944	1,366.7	71.6859	1,366.7	65.195	1,366.7	57.2173	1,366.7	64.302	1,366.7	67.3244	1,366.7	68.4923
1,413.57	86.4164	1,413.57	85.0481	1,413.57	83.554	1,413.57	79.1758	1,413.57	74.7069	1,413.57	73.6873	1,413.57	79.5065	1,413.57	81.223	1,413.57	83.7321	1,413.57	83.2061	1,413.57	84.2069	1,413.57	83.3649	1,413.57	82.7348	1,413.57	82.1546	1,413.57	81.5314	1,413.57	79.9477	1,413.57	79.7297	1,413.57	77.9494	1,413.57	77.8129	1,413.57	74.378	1,413.57	76.8069	1,413.57	69.3958	1,413.57	74.6603	1,413.57	71.8871	1,413.57	75.0298	1,413.57	74.4602	1,413.57	76.5376	1,413.57	74.6577	1,413.57	75.0247	1,413.57	75.2718	1,413.57	71.274	1,413.57	72.0338	1,413.57	63.7459	1,413.57	71.8526	1,413.57	71.2798	1,413.57	71.9038
1,463.38	85.9803	1,463.38	84.8291	1,463.38	83.4912	1,463.38	77.4352	1,463.38	76.623	1,463.38	74.3891	1,463.38	79.1958	1,463.38	82.5009	1,463.38	83.0773	1,463.38	84.4556	1,463.38	83.5856	1,463.38	83.9346	1,463.38	82.7025	1,463.38	82.5046	1,463.38	81.3669	1,463.38	81.2475	1,463.38	79.3878	1,463.38	79.7461	1,463.38	78.6701	1,463.38	78.1678	1,463.38	76.9859	1,463.38	74.3191	1,463.38	75.4266	1,463.38	71.6396	1,463.38	73.8745	1,463.38	73.3107	1,463.38	74.697	1,463.38	69.8833	1,463.38	73.3746	1,463.38	68.1327	1,463.38	70.9476	1,463.38	68.1023	1,463.38	64.5092	1,463.38	70.4461	1,463.38	68.773	1,463.38	70.775
1,516.11	86.4861	1,516.11	84.9955	1,516.11	83.848	1,516.11	76.677	1,516.11	75.5839	1,516.11	73.1265	1,516.11	77.2383	1,516.11	81.371	1,516.11	82.1449	1,516.11	83.2745	1,516.11	83.6271	1,516.11	82.4816	1,516.11	82.6407	1,516.11	80.1239	1,516.11	80.8031	1,516.11	79.0911	1,516.11	79.3401	1,516.11	78.7497	1,516.11	78.2898	1,516.11	78.7166	1,516.11	77.3262	1,516.11	78.4219	1,516.11	76.5869	1,516.11	76.7137	1,516.11	75.3237	1,516.11	75.7253	1,516.11	74.4013	1,516.11	71.0449	1,516.11	70.4858	1,516.11	66.2954	1,516.11	65.3536	1,516.11	59.8121	1,516.11	62.8614	1,516.11	67.5961	1,516.11	69.6303	1,516.11	70.7995
1,568.85	85.7566	1,568.85	83.2993	1,568.85	83.6821	1,568.85	72.6095	1,568.85	72.3163	1,568.85	76.2588	1,568.85	77.4381	1,568.85	82.3748	1,568.85	82.0828	1,568.85	83.3642	1,568.85	83.1238	1,568.85	81.9135	1,568.85	82.7268	1,568.85	78.8887	1,568.85	79.7261	1,568.85	75.7148	1,568.85	76.9884	1,568.85	75.6467	1,568.85	76.744	1,568.85	77.237	1,568.85	78.069	1,568.85	77.231	1,568.85	77.9902	1,568.85	76.3972	1,568.85	76.0834	1,568.85	75.5196	1,568.85	72.8913	1,568.85	70.8724	1,568.85	72.9615	1,568.85	55.1801	1,568.85	66.6378	1,568.85	63.7022	1,568.85	60.8625	1,568.85	69.4709	1,568.85	66.5345	1,568.85	71.9528
1,624.51	87.2044	1,624.51	84.3876	1,624.51	83.9785	1,624.51	72.5301	1,624.51	68.3753	1,624.51	76.8031	1,624.51	78.7446	1,624.51	82.7089	1,624.51	82.999	1,624.51	83.9277	1,624.51	83.3505	1,624.51	82.6346	1,624.51	83.1351	1,624.51	79.8506	1,624.51	81.1955	1,624.51	77.543	1,624.51	77.9896	1,624.51	75.6222	1,624.51	76.9866	1,624.51	75.9003	1,624.51	76.7362	1,624.51	76.4007	1,624.51	77.5569	1,624.51	74.2256	1,624.51	76.1659	1,624.51	72.1924	1,624.51	75.0706	1,624.51	72.0231	1,624.51	73.1552	1,624.51	65.0544	1,624.51	70.8795	1,624.51	60.5023	1,624.51	63.1609	1,624.51	69.5066	1,624.51	67.1634	1,624.51	73.28
1,681.64	88.3747	1,681.64	86.1829	1,681.64	84.3733	1,681.64	75.5808	1,681.64	62.2229	1,681.64	77.6018	1,681.64	79.0976	1,681.64	82.8777	1,681.64	83.8245	1,681.64	84.4412	1,681.64	85.1932	1,681.64	83.6288	1,681.64	83.784	1,681.64	80.7603	1,681.64	81.6996	1,681.64	77.4836	1,681.64	78.5061	1,681.64	75.2303	1,681.64	74.6729	1,681.64	74.9439	1,681.64	76.1222	1,681.64	74.5349	1,681.64	78.0587	1,681.64	76.2673	1,681.64	77.6633	1,681.64	73.7678	1,681.64	75.2718	1,681.64	71.8377	1,681.64	71.6461	1,681.64	67.6405	1,681.64	64.7908	1,681.64	64.8644	1,681.64	63.2297	1,681.64	68.6945	1,681.64	61.0565	1,681.64	72.5432
1,741.7	88.8625	1,741.7	86.6883	1,741.7	83.5258	1,741.7	75.1172	1,741.7	68.9094	1,741.7	76.9781	1,741.7	81.2059	1,741.7	83.6762	1,741.7	84.4849	1,741.7	85.0613	1,741.7	85.1414	1,741.7	84.3292	1,741.7	83.7499	1,741.7	80.9752	1,741.7	81.4563	1,741.7	78.0597	1,741.7	78.2834	1,741.7	76.151	1,741.7	74.1937	1,741.7	74.352	1,741.7	74.7373	1,741.7	72.4876	1,741.7	77.1981	1,741.7	74.0212	1,741.7	78.9888	1,741.7	74.6553	1,741.7	76.3564	1,741.7	71.7237	1,741.7	72.2714	1,741.7	70.9938	1,741.7	69.6193	1,741.7	69.606	1,741.7	61.4215	1,741.7	65.502	1,741.7	62.6876	1,741.7	71.2042
1,803.22	89.0203	1,803.22	86.5511	1,803.22	83.7298	1,803.22	74.1186	1,803.22	68.8876	1,803.22	77.8452	1,803.22	80.5252	1,803.22	83.2068	1,803.22	83.7982	1,803.22	84.2065	1,803.22	84.1512	1,803.22	82.5328	1,803.22	81.9725	1,803.22	78.7081	1,803.22	79.5866	1,803.22	77.7577	1,803.22	75.7153	1,803.22	75.2444	1,803.22	74.0091	1,803.22	72.3806	1,803.22	72.4131	1,803.22	75.9511	1,803.22	75.5463	1,803.22	73.8258	1,803.22	76.9246	1,803.22	74.3588	1,803.22	75.6212	1,803.22	70.9159	1,803.22	73.0532	1,803.22	72.0638	1,803.22	69.9215	1,803.22	66.8588	1,803.22	66.8316	1,803.22	65.2716	1,803.22	69.0377	1,803.22	68.2342
1,866.21	88.2924	1,866.21	85.5041	1,866.21	83.5904	1,866.21	71.7913	1,866.21	71.7763	1,866.21	79.9179	1,866.21	79.159	1,866.21	82.9292	1,866.21	80.9783	1,866.21	83.3123	1,866.21	82.3867	1,866.21	82.6374	1,866.21	79.9524	1,866.21	80.1166	1,866.21	76.4523	1,866.21	75.1439	1,866.21	73.1252	1,866.21	72.4818	1,866.21	73.0565	1,866.21	75.5551	1,866.21	70.386	1,866.21	77.1451	1,866.21	67.3361	1,866.21	76.5416	1,866.21	73.638	1,866.21	73.804	1,866.21	70.7794	1,866.21	71.1555	1,866.21	69.7333	1,866.21	69.1802	1,866.21	66.2102	1,866.21	66.4851	1,866.21	58.2709	1,866.21	50.9894	1,866.21	50.802	1,866.21	62.0081
1,932.13	87.9182	1,932.13	83.7419	1,932.13	82.0469	1,932.13	72.1786	1,932.13	74.338	1,932.13	81.1592	1,932.13	79.0796	1,932.13	82.1423	1,932.13	80.5523	1,932.13	81.6964	1,932.13	81.2729	1,932.13	80.295	1,932.13	80.9007	1,932.13	79.1309	1,932.13	78.1124	1,932.13	75.7575	1,932.13	74.9255	1,932.13	73.6153	1,932.13	74.5034	1,932.13	71.263	1,932.13	71.7775	1,932.13	72.372	1,932.13	69.2944	1,932.13	70.5083	1,932.13	67.0037	1,932.13	66.9772	1,932.13	70.0327	1,932.13	60.739	1,932.13	57.5862	1,932.13	66.4365	1,932.13	63.1855	1,932.13	66.1672	1,932.13	57.7152	1,932.13	66.9466	1,932.13	64.7097	1,932.13	67.367
1,999.51	87.6527	1,999.51	83.0253	1,999.51	82.5631	1,999.51	68.2946	1,999.51	71.0143	1,999.51	79.5115	1,999.51	77.6571	1,999.51	79.8915	1,999.51	79.6367	1,999.51	80.4365	1,999.51	81.4618	1,999.51	79.2194	1,999.51	80.5367	1,999.51	75.0188	1,999.51	78.0998	1,999.51	70.724	1,999.51	73.7717	1,999.51	66.9085	1,999.51	70.1947	1,999.51	70.3546	1,999.51	70.9159	1,999.51	71.8226	1,999.51	72.0861	1,999.51	72.2519	1,999.51	72.2534	1,999.51	71.324	1,999.51	71.2583	1,999.51	64.8486	1,999.51	64.037	1,999.51	65.1488	1,999.51	65.2874	1,999.51	62.8201	1,999.51	62.1051	1,999.51	65.138	1,999.51	62.3513	1,999.51	69.0765
2,069.82	87.0375	2,069.82	83.3875	2,069.82	81.8883	2,069.82	65.5066	2,069.82	69.3955	2,069.82	78.0466	2,069.82	75.4913	2,069.82	79.869	2,069.82	79.1618	2,069.82	78.9604	2,069.82	80.2826	2,069.82	77.2035	2,069.82	79.637	2,069.82	74.0166	2,069.82	76.2028	2,069.82	68.7665	2,069.82	71.3166	2,069.82	62.5032	2,069.82	67.4413	2,069.82	64.1434	2,069.82	68.066	2,069.82	68.8496	2,069.82	70.4266	2,069.82	68.9036	2,069.82	71.8176	2,069.82	68.8491	2,069.82	70.1915	2,069.82	64.4295	2,069.82	63.7712	2,069.82	63.8522	2,069.82	63.7036	2,069.82	62.843	2,069.82	60.6077	2,069.82	63.9409	2,069.82	62.707	2,069.82	66.599
2,143.07	86.4527	2,143.07	83.7818	2,143.07	81.6569	2,143.07	66.6242	2,143.07	66.186	2,143.07	76.887	2,143.07	74.4607	2,143.07	79.1071	2,143.07	78.1837	2,143.07	78.3553	2,143.07	78.1589	2,143.07	75.3719	2,143.07	77.4046	2,143.07	72.4261	2,143.07	73.8186	2,143.07	68.5487	2,143.07	69.901	2,143.07	66.0031	2,143.07	66.387	2,143.07	55.4832	2,143.07	62.9967	2,143.07	62.6682	2,143.07	67.2397	2,143.07	65.4539	2,143.07	69.0839	2,143.07	64.5137	2,143.07	68.2222	2,143.07	62.2985	2,143.07	64.3624	2,143.07	64.1012	2,143.07	62.8107	2,143.07	63.0171	2,143.07	59.5288	2,143.07	53.5057	2,143.07	63.1897	2,143.07	61.8416
2,219.24	85.604	2,219.24	82.4922	2,219.24	81.4049	2,219.24	68.2849	2,219.24	64.8521	2,219.24	75.741	2,219.24	73.7348	2,219.24	77.9982	2,219.24	75.4725	2,219.24	77.39	2,219.24	76.0896	2,219.24	74.9411	2,219.24	74.8813	2,219.24	70.4059	2,219.24	71.3308	2,219.24	69.6163	2,219.24	68.0463	2,219.24	66.3245	2,219.24	65.2966	2,219.24	63.0031	2,219.24	62.7942	2,219.24	57.6814	2,219.24	60.992	2,219.24	67.5147	2,219.24	66.2594	2,219.24	67.9137	2,219.24	65.108	2,219.24	60.5583	2,219.24	59.5614	2,219.24	61.5375	2,219.24	61.6331	2,219.24	61.8139	2,219.24	60.7394	2,219.24	56.6508	2,219.24	59.1487	2,219.24	64.9364
2,296.88	85.3042	2,296.88	81.1419	2,296.88	81.8037	2,296.88	67.1596	2,296.88	66.1023	2,296.88	75.9367	2,296.88	73.6125	2,296.88	76.9118	2,296.88	75.2395	2,296.88	76.0546	2,296.88	74.9488	2,296.88	72.1709	2,296.88	71.5281	2,296.88	69.773	2,296.88	68.6047	2,296.88	66.8446	2,296.88	68.6418	2,296.88	68.378	2,296.88	66.9112	2,296.88	65.9176	2,296.88	65.6666	2,296.88	63.1731	2,296.88	64.0271	2,296.88	65.7503	2,296.88	61.7509	2,296.88	69.9674	2,296.88	63.907	2,296.88	63.1428	2,296.88	57.3135	2,296.88	63.21	2,296.88	59.9054	2,296.88	56.4918	2,296.88	61.7357	2,296.88	53.1656	2,296.88	56.6856	2,296.88	64.0875
2,378.91	85.2597	2,378.91	80.7373	2,378.91	82.0055	2,378.91	54.6881	2,378.91	67.7295	2,378.91	75.3607	2,378.91	76.0509	2,378.91	75.7687	2,378.91	74.4707	2,378.91	74.6994	2,378.91	74.6604	2,378.91	71.4448	2,378.91	71.9368	2,378.91	72.0488	2,378.91	72.1092	2,378.91	72.472	2,378.91	71.284	2,378.91	69.3188	2,378.91	69.9667	2,378.91	69.7401	2,378.91	69.7541	2,378.91	67.3917	2,378.91	68.3456	2,378.91	65.3624	2,378.91	66.9626	2,378.91	67.1675	2,378.91	65.5256	2,378.91	64.1956	2,378.91	59.5619	2,378.91	63.0253	2,378.91	62.7066	2,378.91	63.6706	2,378.91	61.0561	2,378.91	62.0748	2,378.91	61.029	2,378.91	64.0272
2,462.4	86.2036	2,462.4	83.341	2,462.4	82.2953	2,462.4	65.8381	2,462.4	71.185	2,462.4	77.1374	2,462.4	78.2532	2,462.4	77.0516	2,462.4	76.3473	2,462.4	75.8136	2,462.4	75.0201	2,462.4	75.4443	2,462.4	73.6636	2,462.4	75.9099	2,462.4	75.4238	2,462.4	75.6958	2,462.4	75.3456	2,462.4	71.7516	2,462.4	72.3644	2,462.4	70.5192	2,462.4	70.7254	2,462.4	70.4092	2,462.4	70.1314	2,462.4	66.6745	2,462.4	69.3286	2,462.4	66.2805	2,462.4	67.8741	2,462.4	60.9616	2,462.4	56.985	2,462.4	62.2889	2,462.4	66.1032	2,462.4	60.2566	2,462.4	63.2472	2,462.4	63.5735	2,462.4	59.6859	2,462.4	65.3823
2,548.83	86.3668	2,548.83	84.1585	2,548.83	81.8104	2,548.83	71.1763	2,548.83	71.7406	2,548.83	78.1616	2,548.83	78.7329	2,548.83	76.8674	2,548.83	75.1712	2,548.83	75.3792	2,548.83	74.3063	2,548.83	76.6464	2,548.83	76.6129	2,548.83	78.1906	2,548.83	78.2743	2,548.83	78.2075	2,548.83	76.8908	2,548.83	75.8401	2,548.83	74.727	2,548.83	74.8532	2,548.83	70.9461	2,548.83	72.1306	2,548.83	68.9282	2,548.83	68.7038	2,548.83	71.0121	2,548.83	67.451	2,548.83	66.7052	2,548.83	60.6843	2,548.83	53.4298	2,548.83	66.2868	2,548.83	66.8668	2,548.83	57.2341	2,548.83	62.3801	2,548.83	63.5627	2,548.83	65.4707	2,548.83	67.9822
2,639.65	86.212	2,639.65	82.9898	2,639.65	82.7751	2,639.65	71.5198	2,639.65	67.96	2,639.65	77.3331	2,639.65	78.7296	2,639.65	74.8046	2,639.65	72.1038	2,639.65	71.3151	2,639.65	73.1301	2,639.65	78.6186	2,639.65	77.758	2,639.65	79.8663	2,639.65	78.134	2,639.65	78.9839	2,639.65	76.8645	2,639.65	76.9238	2,639.65	76.1582	2,639.65	76.6311	2,639.65	73.526	2,639.65	75.7055	2,639.65	70.4443	2,639.65	73.0338	2,639.65	71.1713	2,639.65	67.3721	2,639.65	66.6894	2,639.65	63.4857	2,639.65	59.9815	2,639.65	65.708	2,639.65	65.8162	2,639.65	65.849	2,639.65	62.0803	2,639.65	59.243	2,639.65	65.3216	2,639.65	58.6355
2,731.93	86.3599	2,731.93	82.9082	2,731.93	82.9508	2,731.93	71.7347	2,731.93	71.0633	2,731.93	77.5928	2,731.93	78.9492	2,731.93	71.7979	2,731.93	74.1615	2,731.93	71.3123	2,731.93	71.3274	2,731.93	80.1042	2,731.93	78.9942	2,731.93	79.9102	2,731.93	79.7701	2,731.93	77.5362	2,731.93	78.0745	2,731.93	76.4437	2,731.93	76.1462	2,731.93	75.3201	2,731.93	75.8299	2,731.93	75.5288	2,731.93	73.9235	2,731.93	74.1379	2,731.93	72.4643	2,731.93	67.48	2,731.93	67.4571	2,731.93	63.1454	2,731.93	59.9805	2,731.93	65.9837	2,731.93	66.6085	2,731.93	60.3606	2,731.93	58.8964	2,731.93	65.0448	2,731.93	62.5346	2,731.93	64.4672
2,828.61	87.5052	2,828.61	84.1276	2,828.61	83.6568	2,828.61	75.2893	2,828.61	75.5826	2,828.61	77.2551	2,828.61	79.7504	2,828.61	75.2452	2,828.61	76.8586	2,828.61	76.1138	2,828.61	76.3079	2,828.61	82.1256	2,828.61	82.7936	2,828.61	82.7604	2,828.61	82.6816	2,828.61	79.7106	2,828.61	80.3668	2,828.61	76.2572	2,828.61	77.1348	2,828.61	74.7312	2,828.61	77.141	2,828.61	76.0066	2,828.61	77.1082	2,828.61	74.5208	2,828.61	75.1729	2,828.61	62.635	2,828.61	64.3083	2,828.61	65.1286	2,828.61	65.6743	2,828.61	67.9606	2,828.61	66.197	2,828.61	51.6776	2,828.61	56.6446	2,828.61	59.0445	2,828.61	66.6298	2,828.61	62.6417
2,928.22	88.4715	2,928.22	85.6108	2,928.22	84.9087	2,928.22	79.5365	2,928.22	78.0513	2,928.22	77.7844	2,928.22	79.6108	2,928.22	79.6319	2,928.22	78.8412	2,928.22	78.8244	2,928.22	80.3257	2,928.22	83.7612	2,928.22	85.0188	2,928.22	84.7715	2,928.22	84.8417	2,928.22	81.191	2,928.22	81.8768	2,928.22	78.2799	2,928.22	78.5359	2,928.22	76.2041	2,928.22	76.2808	2,928.22	76.4325	2,928.22	77.7147	2,928.22	75.4413	2,928.22	74.8343	2,928.22	61.908	2,928.22	61.73	2,928.22	70.272	2,928.22	67.3485	2,928.22	64.4938	2,928.22	64.0224	2,928.22	58.0012	2,928.22	56.137	2,928.22	63.9605	2,928.22	60.7227	2,928.22	63.669
3,030.76	88.5151	3,030.76	86.5946	3,030.76	86.1342	3,030.76	81.9777	3,030.76	79.6798	3,030.76	78.5788	3,030.76	78.0363	3,030.76	80.5256	3,030.76	80.65	3,030.76	81.2564	3,030.76	82.9101	3,030.76	84.5095	3,030.76	85.6474	3,030.76	84.8893	3,030.76	85.502	3,030.76	81.5722	3,030.76	81.6509	3,030.76	77.7165	3,030.76	79.6876	3,030.76	76.1366	3,030.76	76.8183	3,030.76	76.4317	3,030.76	76.5464	3,030.76	74.471	3,030.76	73.4313	3,030.76	64.5721	3,030.76	68.3308	3,030.76	69.3351	3,030.76	68.2383	3,030.76	65.249	3,030.76	64.33	3,030.76	65.5677	3,030.76	60.6554	3,030.76	63.8922	3,030.76	64.4679	3,030.76	64.9049
3,137.7	88.404	3,137.7	86.7012	3,137.7	85.8338	3,137.7	82.8004	3,137.7	81.6271	3,137.7	79.9416	3,137.7	76.8912	3,137.7	82.0851	3,137.7	82.2679	3,137.7	84.0948	3,137.7	83.9827	3,137.7	85.5973	3,137.7	85.3656	3,137.7	84.7922	3,137.7	84.1931	3,137.7	81.2009	3,137.7	80.484	3,137.7	77.0097	3,137.7	77.449	3,137.7	75.4888	3,137.7	76.7902	3,137.7	76.9703	3,137.7	76.7761	3,137.7	73.788	3,137.7	73.3782	3,137.7	69.7231	3,137.7	67.6376	3,137.7	70.2617	3,137.7	71.3001	3,137.7	68.638	3,137.7	66.325	3,137.7	60.2542	3,137.7	63.3787	3,137.7	60.4679	3,137.7	63.6924	3,137.7	64.1166
3,249.02	87.7874	3,249.02	86.7467	3,249.02	86.5005	3,249.02	82.9505	3,249.02	82.9305	3,249.02	80.3277	3,249.02	79.3292	3,249.02	83.6859	3,249.02	82.6324	3,249.02	84.4299	3,249.02	83.5494	3,249.02	84.2078	3,249.02	84.3644	3,249.02	82.6345	3,249.02	83.0393	3,249.02	80.5517	3,249.02	80.0759	3,249.02	76.2519	3,249.02	75.5263	3,249.02	74.8921	3,249.02	76.2981	3,249.02	76.4319	3,249.02	77.0351	3,249.02	73.0283	3,249.02	72.0361	3,249.02	67.3023	3,249.02	65.4119	3,249.02	69.8672	3,249.02	72.9535	3,249.02	68.3755	3,249.02	65.9917	3,249.02	58.2335	3,249.02	60.2849	3,249.02	63.3513	3,249.02	61.6276	3,249.02	65.5957
3,363.28	87.9545	3,363.28	87.1073	3,363.28	86.9241	3,363.28	84.5612	3,363.28	84.5435	3,363.28	81.7095	3,363.28	82.7981	3,363.28	83.1314	3,363.28	83.5147	3,363.28	84.0634	3,363.28	84.1201	3,363.28	83.4394	3,363.28	84.1091	3,363.28	82.7755	3,363.28	82.5343	3,363.28	80.492	3,363.28	79.2525	3,363.28	76.4883	3,363.28	76.1036	3,363.28	74.9135	3,363.28	75.3963	3,363.28	75.5582	3,363.28	75.3872	3,363.28	73.4082	3,363.28	70.5761	3,363.28	61.5432	3,363.28	67.4573	3,363.28	69.0777	3,363.28	69.9406	3,363.28	65.1924	3,363.28	65.926	3,363.28	64.5489	3,363.28	51.0918	3,363.28	55.7384	3,363.28	50.6056	3,363.28	66.2211
3,481.93	87.8913	3,481.93	87.0084	3,481.93	86.474	3,481.93	86.474	3,481.93	85.4718	3,481.93	83.9513	3,481.93	83.6153	3,481.93	84.2336	3,481.93	83.9452	3,481.93	84.8963	3,481.93	84.4679	3,481.93	84.3744	3,481.93	84.4169	3,481.93	83.0627	3,481.93	82.8206	3,481.93	81.1077	3,481.93	79.5492	3,481.93	77.1555	3,481.93	74.3199	3,481.93	72.8664	3,481.93	73.4578	3,481.93	76.545	3,481.93	74.8122	3,481.93	73.2061	3,481.93	72.3044	3,481.93	66.7397	3,481.93	65.2463	3,481.93	68.4362	3,481.93	68.6296	3,481.93	65.5749	3,481.93	69.5807	3,481.93	64.5812	3,481.93	65.502	3,481.93	57.6669	3,481.93	60.0252	3,481.93	66.3325
3,604.98	88.0636	3,604.98	86.4046	3,604.98	86.9083	3,604.98	86.7061	3,604.98	86.2934	3,604.98	84.0918	3,604.98	83.4918	3,604.98	83.1077	3,604.98	83.9693	3,604.98	86.0612	3,604.98	85.5704	3,604.98	85.0702	3,604.98	85.1928	3,604.98	83.4727	3,604.98	83.8364	3,604.98	80.9428	3,604.98	80.7593	3,604.98	76.4922	3,604.98	77.0431	3,604.98	74.3605	3,604.98	76.2499	3,604.98	76.2243	3,604.98	76.265	3,604.98	69.9272	3,604.98	73.3176	3,604.98	66.7347	3,604.98	44.0751	3,604.98	69.8215	3,604.98	69.0466	3,604.98	70.1238	3,604.98	70.0585	3,604.98	67.9203	3,604.98	68.55	3,604.98	62.3832	3,604.98	58.3592	3,604.98	65.585
3,732.42	88.7107	3,732.42	86.6911	3,732.42	87.3684	3,732.42	87.115	3,732.42	87.177	3,732.42	84.4179	3,732.42	84.1878	3,732.42	84.8106	3,732.42	85.9992	3,732.42	87.3004	3,732.42	86.8022	3,732.42	85.2949	3,732.42	85.3584	3,732.42	85.1327	3,732.42	84.622	3,732.42	81.5272	3,732.42	81.3802	3,732.42	78.7235	3,732.42	77.9082	3,732.42	74.6152	3,732.42	76.9024	3,732.42	75.6438	3,732.42	77.5586	3,732.42	72.8099	3,732.42	73.4984	3,732.42	66.2685	3,732.42	67.6412	3,732.42	68.453	3,732.42	70.0534	3,732.42	72.1424	3,732.42	71.2005	3,732.42	66.3306	3,732.42	71.3172	3,732.42	63.4894	3,732.42	61.8967	3,732.42	62.1779
3,864.26	87.5565	3,864.26	85.633	3,864.26	85.9173	3,864.26	86.6687	3,864.26	86.3582	3,864.26	83.6907	3,864.26	84.0966	3,864.26	84.6494	3,864.26	85.7256	3,864.26	86.7746	3,864.26	86.2712	3,864.26	85.3177	3,864.26	84.6135	3,864.26	85.8744	3,864.26	83.8511	3,864.26	82.0447	3,864.26	79.2001	3,864.26	78.4669	3,864.26	74.7914	3,864.26	76.149	3,864.26	73.9098	3,864.26	74.1632	3,864.26	75.016	3,864.26	73.2111	3,864.26	73.2647	3,864.26	65.3676	3,864.26	65.4855	3,864.26	68.8499	3,864.26	70.439	3,864.26	69.6062	3,864.26	70.101	3,864.26	68.4254	3,864.26	70.5241	3,864.26	63.7506	3,864.26	64.3695	3,864.26	59.3465
4,000.49	87.0549	4,000.49	84.8839	4,000.49	84.0259	4,000.49	85.479	4,000.49	85.4737	4,000.49	84.4881	4,000.49	84.9867	4,000.49	85.6285	4,000.49	85.2715	4,000.49	86.131	4,000.49	85.7143	4,000.49	84.7021	4,000.49	84.3167	4,000.49	85.0088	4,000.49	83.8806	4,000.49	78.7975	4,000.49	78.856	4,000.49	76.3641	4,000.49	75.4763	4,000.49	72.6268	4,000.49	71.5279	4,000.49	74.4949	4,000.49	76.25	4,000.49	73.3892	4,000.49	71.1302	4,000.49	67.1799	4,000.49	68.0465	4,000.49	67.5814	4,000.49	69.4526	4,000.49	68.6586	4,000.49	68.2954	4,000.49	68.5761	4,000.49	70.9492	4,000.49	61.4859	4,000.49	61.8747	4,000.49	56.8633
4,141.11	87.4142	4,141.11	85.584	4,141.11	84.8693	4,141.11	85.5557	4,141.11	85.7343	4,141.11	86.3411	4,141.11	86.4926	4,141.11	86.2381	4,141.11	86.295	4,141.11	87.0102	4,141.11	85.9275	4,141.11	84.5598	4,141.11	84.0042	4,141.11	84.4167	4,141.11	83.6287	4,141.11	78.6676	4,141.11	79.0054	4,141.11	75.4275	4,141.11	75.2592	4,141.11	71.7575	4,141.11	73.3697	4,141.11	73.4502	4,141.11	74.27	4,141.11	72.6131	4,141.11	71.2284	4,141.11	66.0579	4,141.11	69.9733	4,141.11	69.1871	4,141.11	65.6685	4,141.11	68.2688	4,141.11	69.6793	4,141.11	70.4818	4,141.11	70.1953	4,141.11	58.1709	4,141.11	55.5628	4,141.11	51.8051
4,287.6	85.979	4,287.6	85.5858	4,287.6	83.53	4,287.6	84.4279	4,287.6	85.4115	4,287.6	86.3641	4,287.6	86.555	4,287.6	86.7141	4,287.6	86.2662	4,287.6	86.5446	4,287.6	85.4595	4,287.6	83.5851	4,287.6	83.0816	4,287.6	83.9136	4,287.6	82.8342	4,287.6	79.3039	4,287.6	80.1395	4,287.6	76.2229	4,287.6	75.1656	4,287.6	72.9502	4,287.6	74.1312	4,287.6	74.1306	4,287.6	72.4144	4,287.6	69.0503	4,287.6	70.0247	4,287.6	65.7768	4,287.6	67.9414	4,287.6	68.9634	4,287.6	68.4234	4,287.6	68.2255	4,287.6	68.521	4,287.6	69.2455	4,287.6	69.7192	4,287.6	50.6937	4,287.6	54.6638	4,287.6	50.1019
4,438.48	86.4593	4,438.48	85.4007	4,438.48	84.0859	4,438.48	83.4259	4,438.48	83.7726	4,438.48	87.1671	4,438.48	86.836	4,438.48	87.5583	4,438.48	85.8798	4,438.48	85.3287	4,438.48	84.4104	4,438.48	83.5193	4,438.48	83.5639	4,438.48	82.3758	4,438.48	83.3909	4,438.48	81.004	4,438.48	80.0623	4,438.48	73.6111	4,438.48	75.8944	4,438.48	74.4543	4,438.48	74.1874	4,438.48	75.083	4,438.48	74.9591	4,438.48	71.0102	4,438.48	69.056	4,438.48	60.7121	4,438.48	71.3966	4,438.48	68.7373	4,438.48	69.9179	4,438.48	69.4484	4,438.48	68.716	4,438.48	66.7469	4,438.48	69.55	4,438.48	51.4503	4,438.48	57.1796	4,438.48	45.3424
4,595.21	85.5473	4,595.21	82.9802	4,595.21	84.6923	4,595.21	82.0436	4,595.21	82.6396	4,595.21	87.057	4,595.21	86.9575	4,595.21	86.0885	4,595.21	84.2766	4,595.21	84.2393	4,595.21	83.5937	4,595.21	84.8741	4,595.21	83.2645	4,595.21	83.9448	4,595.21	83.1728	4,595.21	82.3554	4,595.21	79.2496	4,595.21	75.6707	4,595.21	74.0194	4,595.21	75.9655	4,595.21	74.4775	4,595.21	72.468	4,595.21	72.7	4,595.21	66.7902	4,595.21	69.5887	4,595.21	65.1961	4,595.21	72.7412	4,595.21	64.7108	4,595.21	68.437	4,595.21	65.2787	4,595.21	69.5861	4,595.21	63.6901	4,595.21	66.4349	4,595.21	52.6705	4,595.21	58.4377	4,595.21	56.5444
4,756.35	86.7101	4,756.35	83.2577	4,756.35	85.0414	4,756.35	83.939	4,756.35	82.958	4,756.35	86.7955	4,756.35	87.0026	4,756.35	83.0794	4,756.35	85.3962	4,756.35	83.225	4,756.35	84.9487	4,756.35	83.85	4,756.35	84.4178	4,756.35	82.9875	4,756.35	84.2035	4,756.35	80.9948	4,756.35	79.3692	4,756.35	74.5485	4,756.35	74.9645	4,756.35	74.8538	4,756.35	73.0809	4,756.35	72.6683	4,756.35	73.3797	4,756.35	70.3176	4,756.35	66.7491	4,756.35	65.6309	4,756.35	70.0914	4,756.35	68.106	4,756.35	68.8609	4,756.35	66.7524	4,756.35	67.1264	4,756.35	65.317	4,756.35	65.337	4,756.35	54.898	4,756.35	54.8975	4,756.35	55.7063
4,924.8	86.0326	4,924.8	84.8867	4,924.8	83.5366	4,924.8	83.8516	4,924.8	83.9056	4,924.8	86.6664	4,924.8	86.6847	4,924.8	83.6322	4,924.8	84.9857	4,924.8	84.2607	4,924.8	85.7569	4,924.8	83.794	4,924.8	83.5155	4,924.8	85.0885	4,924.8	83.6928	4,924.8	81.7488	4,924.8	79.6693	4,924.8	76.6055	4,924.8	74.5637	4,924.8	58.2683	4,924.8	73.0251	4,924.8	70.6196	4,924.8	74.0914	4,924.8	65.9978	4,924.8	70.5616	4,924.8	65.3576	4,924.8	70.1606	4,924.8	66.4027	4,924.8	71.3368	4,924.8	66.508	4,924.8	59.6381	4,924.8	66.6963	4,924.8	67.6608	4,924.8	54.7201	4,924.8	61.2955	4,924.8	53.1798
5,097.66	85.0641	5,097.66	84.2705	5,097.66	82.2309	5,097.66	80.1957	5,097.66	83.532	5,097.66	85.5837	5,097.66	86.1486	5,097.66	84.1667	5,097.66	84.9776	5,097.66	82.5009	5,097.66	84.9946	5,097.66	83.2354	5,097.66	83.3245	5,097.66	84.394	5,097.66	83.2628	5,097.66	78.9317	5,097.66	78.9713	5,097.66	74.9576	5,097.66	74.5629	5,097.66	71.0969	5,097.66	73.472	5,097.66	73.9508	5,097.66	73.4329	5,097.66	70.7136	5,097.66	67.0519	5,097.66	64.9188	5,097.66	71.1166	5,097.66	68.1317	5,097.66	69.6534	5,097.66	67.6623	5,097.66	56.9412	5,097.66	66.0916	5,097.66	69.5205	5,097.66	55.3238	5,097.66	61.1661	5,097.66	47.6413
5,277.83	86.7137	5,277.83	84.1891	5,277.83	84.6692	5,277.83	83.1719	5,277.83	83.5445	5,277.83	85.4546	5,277.83	86.2126	5,277.83	85.6762	5,277.83	83.8317	5,277.83	83.5605	5,277.83	81.9356	5,277.83	83.1368	5,277.83	82.5596	5,277.83	82.1486	5,277.83	83.4986	5,277.83	80.1161	5,277.83	79.0066	5,277.83	73.6515	5,277.83	73.0343	5,277.83	71.4461	5,277.83	71.3199	5,277.83	72.2869	5,277.83	70.4103	5,277.83	69.0142	5,277.83	65.6702	5,277.83	63.5537	5,277.83	70.7066	5,277.83	69.6751	5,277.83	67.864	5,277.83	63.9606	5,277.83	59.0755	5,277.83	66.3467	5,277.83	66.4691	5,277.83	49.7748	5,277.83	53.1664	5,277.83	58.0025
5,463.87	87.5034	5,463.87	84.9295	5,463.87	86.4219	5,463.87	84.7104	5,463.87	82.558	5,463.87	86.2768	5,463.87	86.6593	5,463.87	86.2442	5,463.87	83.503	5,463.87	83.9047	5,463.87	80.0023	5,463.87	82.8561	5,463.87	81.6403	5,463.87	82.6318	5,463.87	82.8251	5,463.87	82.3956	5,463.87	80.8284	5,463.87	74.1375	5,463.87	75.903	5,463.87	75.978	5,463.87	70.7833	5,463.87	71.1379	5,463.87	70.2346	5,463.87	65.3184	5,463.87	68.4643	5,463.87	70.0799	5,463.87	69.4107	5,463.87	66.9554	5,463.87	65.59	5,463.87	52.8261	5,463.87	60.1549	5,463.87	67.8746	5,463.87	64.8764	5,463.87	58.0698	5,463.87	49.9717	5,463.87	61.2875
5,657.23	87.5662	5,657.23	86.4022	5,657.23	86.038	5,657.23	85.9116	5,657.23	84.5998	5,657.23	86.6796	5,657.23	85.0558	5,657.23	86.2325	5,657.23	84.4207	5,657.23	81.5201	5,657.23	80.8303	5,657.23	81.8708	5,657.23	81.3416	5,657.23	83.1113	5,657.23	82.8898	5,657.23	81.3242	5,657.23	80.8167	5,657.23	71.6792	5,657.23	75.3727	5,657.23	72.8131	5,657.23	68.3328	5,657.23	70.7984	5,657.23	69.007	5,657.23	68.6914	5,657.23	68.1228	5,657.23	62.9028	5,657.23	67.1002	5,657.23	60.6395	5,657.23	59.0556	5,657.23	61.975	5,657.23	53.9712	5,657.23	66.0283	5,657.23	64.3829	5,657.23	53.3023	5,657.23	63.2336	5,657.23	53.1479
5,856.45	87.5161	5,856.45	86.98	5,856.45	84.9783	5,856.45	84.5325	5,856.45	84.8207	5,856.45	85.1403	5,856.45	84.3415	5,856.45	84.6676	5,856.45	84.7604	5,856.45	79.1485	5,856.45	80.7726	5,856.45	81.7341	5,856.45	82.2183	5,856.45	83.3561	5,856.45	82.5691	5,856.45	81.6341	5,856.45	79.2879	5,856.45	75.0178	5,856.45	71.3067	5,856.45	66.0512	5,856.45	66.7917	5,856.45	68.1092	5,856.45	70.3391	5,856.45	66.2077	5,856.45	63.6289	5,856.45	65.3517	5,856.45	62.236	5,856.45	58.9546	5,856.45	64.0541	5,856.45	62.9038	5,856.45	57.1319	5,856.45	64.0027	5,856.45	61.5075	5,856.45	54.6657	5,856.45	60.442	5,856.45	60.1735
6,062.99	88.1817	6,062.99	88.4775	6,062.99	86.9347	6,062.99	85.152	6,062.99	85.6963	6,062.99	84.772	6,062.99	85.0334	6,062.99	83.7861	6,062.99	84.5556	6,062.99	76.57	6,062.99	79.8577	6,062.99	81.2547	6,062.99	83.632	6,062.99	83.239	6,062.99	84.4823	6,062.99	80.6079	6,062.99	78.4309	6,062.99	74.2985	6,062.99	70.7648	6,062.99	64.4158	6,062.99	69.9234	6,062.99	70.1068	6,062.99	68.7875	6,062.99	68.3236	6,062.99	67.4898	6,062.99	63.8359	6,062.99	65.6555	6,062.99	59.7338	6,062.99	65.1981	6,062.99	59.0252	6,062.99	56.281	6,062.99	59.595	6,062.99	64.9261	6,062.99	62.9498	6,062.99	51.8708	6,062.99	63.2574
6,276.86	87.4885	6,276.86	87.4076	6,276.86	88.3403	6,276.86	85.497	6,276.86	84.931	6,276.86	84.6044	6,276.86	86.1871	6,276.86	82.7337	6,276.86	83.5842	6,276.86	79.7509	6,276.86	78.3613	6,276.86	80.3752	6,276.86	81.0714	6,276.86	83.5081	6,276.86	83.3572	6,276.86	79.7452	6,276.86	78.1775	6,276.86	73.5385	6,276.86	73.7469	6,276.86	70.9777	6,276.86	69.1065	6,276.86	68.3803	6,276.86	69.0588	6,276.86	67.8646	6,276.86	69.9308	6,276.86	67.3204	6,276.86	61.0622	6,276.86	63.4546	6,276.86	52.2151	6,276.86	59.9074	6,276.86	57.0054	6,276.86	54.9253	6,276.86	65.2851	6,276.86	58.5286	6,276.86	49.0881	6,276.86	62.3673
6,498.05	88.1053	6,498.05	87.0709	6,498.05	88.0572	6,498.05	87.7018	6,498.05	86.4266	6,498.05	85.6195	6,498.05	85.248	6,498.05	84.9043	6,498.05	83.8641	6,498.05	81.471	6,498.05	80.3166	6,498.05	78.922	6,498.05	79.7365	6,498.05	81.2178	6,498.05	80.7639	6,498.05	79.5529	6,498.05	80.8616	6,498.05	69.2631	6,498.05	72.8634	6,498.05	70.9955	6,498.05	65.6538	6,498.05	67.5545	6,498.05	66.3756	6,498.05	67.1495	6,498.05	62.8317	6,498.05	60.461	6,498.05	37.7843	6,498.05	67.8687	6,498.05	59.6989	6,498.05	61.6374	6,498.05	59.711	6,498.05	59.0861	6,498.05	64.3209	6,498.05	55.5525	6,498.05	44.1464	6,498.05	59.982
6,726.56	88.6573	6,726.56	86.8157	6,726.56	86.2197	6,726.56	88.2408	6,726.56	87.9776	6,726.56	84.8614	6,726.56	83.4167	6,726.56	85.2874	6,726.56	84.8173	6,726.56	81.0686	6,726.56	82.1877	6,726.56	81.3102	6,726.56	80.7752	6,726.56	78.8128	6,726.56	80.3677	6,726.56	80.3454	6,726.56	79.3903	6,726.56	71.5579	6,726.56	73.4452	6,726.56	71.6884	6,726.56	64.9306	6,726.56	66.6603	6,726.56	64.0541	6,726.56	62.4327	6,726.56	64.5414	6,726.56	51.1855	6,726.56	49.0265	6,726.56	66.2735	6,726.56	59.8199	6,726.56	60.5342	6,726.56	61.9604	6,726.56	55.9849	6,726.56	58.3772	6,726.56	53.7265	6,726.56	48.107	6,726.56	58.2128
6,963.87	88.5489	6,963.87	86.3541	6,963.87	85.4054	6,963.87	87.6409	6,963.87	88.0294	6,963.87	83.4391	6,963.87	83.6556	6,963.87	83.9574	6,963.87	83.9559	6,963.87	81.0768	6,963.87	81.7181	6,963.87	80.6006	6,963.87	79.5046	6,963.87	78.3551	6,963.87	80.4566	6,963.87	78.2498	6,963.87	78.3665	6,963.87	71.8611	6,963.87	71.2765	6,963.87	67.9478	6,963.87	55.5474	6,963.87	65.8082	6,963.87	64.1349	6,963.87	53.8537	6,963.87	63.3137	6,963.87	61.3155	6,963.87	55.6375	6,963.87	63.3149	6,963.87	57.6723	6,963.87	57.7843	6,963.87	59.515	6,963.87	60.5437	6,963.87	52.962	6,963.87	53.2103	6,963.87	56.5676	6,963.87	59.4789
7,209.96	87.807	7,209.96	86.8673	7,209.96	87.4352	7,209.96	86.5776	7,209.96	87.3358	7,209.96	85.2529	7,209.96	85.2559	7,209.96	83.8065	7,209.96	83.6219	7,209.96	83.0149	7,209.96	79.9178	7,209.96	79.9108	7,209.96	79.6448	7,209.96	80.7181	7,209.96	81.5574	7,209.96	78.9542	7,209.96	77.5928	7,209.96	72.9874	7,209.96	71.0295	7,209.96	65.3986	7,209.96	62.0092	7,209.96	64.5416	7,209.96	66.5961	7,209.96	63.7234	7,209.96	65.626	7,209.96	61.9004	7,209.96	42.4134	7,209.96	51.4927	7,209.96	54.9527	7,209.96	59.7969	7,209.96	62.5425	7,209.96	56.1095	7,209.96	50.6187	7,209.96	48.9927	7,209.96	57.4539	7,209.96	57.0647
7,464.84	87.3904	7,464.84	87.0795	7,464.84	87.8606	7,464.84	86.1532	7,464.84	86.2575	7,464.84	86.0533	7,464.84	85.2226	7,464.84	84.1771	7,464.84	83.9275	7,464.84	82.5431	7,464.84	78.9401	7,464.84	74.6103	7,464.84	77.1366	7,464.84	80.0669	7,464.84	79.0893	7,464.84	77.1839	7,464.84	76.9451	7,464.84	72.4735	7,464.84	68.6632	7,464.84	68.0311	7,464.84	62.5144	7,464.84	58.9843	7,464.84	62.9571	7,464.84	66.1242	7,464.84	60.6349	7,464.84	61.7381	7,464.84	61.1379	7,464.84	50.5877	7,464.84	58.6388	7,464.84	61.1923	7,464.84	61.256	7,464.84	57.666	7,464.84	51.1584	7,464.84	49.0071	7,464.84	53.571	7,464.84	58.629
7,727.05	87.5096	7,727.05	87.3189	7,727.05	87.0259	7,727.05	86.485	7,727.05	86.3922	7,727.05	85.6738	7,727.05	85.0557	7,727.05	83.7889	7,727.05	84.3528	7,727.05	80.6393	7,727.05	80.9388	7,727.05	73.2246	7,727.05	77.4075	7,727.05	79.1478	7,727.05	77.8267	7,727.05	76.2285	7,727.05	77.3835	7,727.05	71.9415	7,727.05	67.7188	7,727.05	69.0571	7,727.05	57.4619	7,727.05	56.6318	7,727.05	63.5892	7,727.05	63.7333	7,727.05	59.9862	7,727.05	54.5501	7,727.05	64.7196	7,727.05	46.7774	7,727.05	62.8789	7,727.05	58.1528	7,727.05	56.7664	7,727.05	56.0294	7,727.05	52.3171	7,727.05	50.8231	7,727.05	53.483	7,727.05	55.2738
7,999.51	87.6419	7,999.51	87.2476	7,999.51	86.111	7,999.51	86.6485	7,999.51	86.173	7,999.51	85.293	7,999.51	84.2364	7,999.51	83.6916	7,999.51	83.1393	7,999.51	79.7582	7,999.51	80.7023	7,999.51	76.408	7,999.51	76.3721	7,999.51	77.8876	7,999.51	77.0439	7,999.51	76.4881	7,999.51	75.17	7,999.51	70.5354	7,999.51	66.5422	7,999.51	65.3134	7,999.51	61.3894	7,999.51	59.5445	7,999.51	58.3727	7,999.51	59.7859	7,999.51	60.442	7,999.51	49.2385	7,999.51	65.2746	7,999.51	56.816	7,999.51	61.5604	7,999.51	56.6488	7,999.51	43.2274	7,999.51	49.836	7,999.51	51.9825	7,999.51	52.6814	7,999.51	44.4544	7,999.51	44.1271
8,282.23	86.9303	8,282.23	87.0689	8,282.23	86.9323	8,282.23	85.4252	8,282.23	85.531	8,282.23	85.3755	8,282.23	85.0583	8,282.23	82.6084	8,282.23	82.0509	8,282.23	79.7747	8,282.23	80.1232	8,282.23	76.0008	8,282.23	74.1075	8,282.23	73.9968	8,282.23	75.7854	8,282.23	74.8041	8,282.23	74.1893	8,282.23	67.17	8,282.23	65.828	8,282.23	63.891	8,282.23	62.5079	8,282.23	60.4482	8,282.23	59.7851	8,282.23	59.906	8,282.23	61.4925	8,282.23	52.8013	8,282.23	61.4154	8,282.23	58.5338	8,282.23	55.3683	8,282.23	59.3088	8,282.23	52.9654	8,282.23	50.4409	8,282.23	40.2063	8,282.23	55.4948	8,282.23	46.3716	8,282.23	53.8916
8,573.73	86.7102	8,573.73	86.8481	8,573.73	87.0095	8,573.73	85.7186	8,573.73	85.7482	8,573.73	84.9622	8,573.73	85.1363	8,573.73	81.8159	8,573.73	81.8143	8,573.73	81.668	8,573.73	79.0427	8,573.73	74.9126	8,573.73	72.8306	8,573.73	73.0159	8,573.73	74.7469	8,573.73	72.7909	8,573.73	71.5005	8,573.73	68.1225	8,573.73	64.3137	8,573.73	64.7019	8,573.73	60.836	8,573.73	59.3089	8,573.73	61.1058	8,573.73	60.4399	8,573.73	55.7675	8,573.73	55.2915	8,573.73	48.4472	8,573.73	53.8433	8,573.73	52.8562	8,573.73	54.479	8,573.73	45.3128	8,573.73	54.0934	8,573.73	38.5466	8,573.73	48.7735	8,573.73	52.4512	8,573.73	53.0602
8,876.95	86.6768	8,876.95	86.6413	8,876.95	86.2657	8,876.95	85.4011	8,876.95	85.4424	8,876.95	83.6941	8,876.95	83.9909	8,876.95	81.916	8,876.95	81.9926	8,876.95	81.1599	8,876.95	79.2312	8,876.95	72.1831	8,876.95	72.1223	8,876.95	72.5255	8,876.95	72.3774	8,876.95	69.9311	8,876.95	67.6508	8,876.95	67.4856	8,876.95	63.3837	8,876.95	63.013	8,876.95	59.6085	8,876.95	55.6394	8,876.95	55.9129	8,876.95	54.8745	8,876.95	43.0745	8,876.95	54.3745	8,876.95	43.6747	8,876.95	44.2461	8,876.95	53.8496	8,876.95	48.2019	8,876.95	53.0933	8,876.95	47.4525	8,876.95	42.7673	8,876.95	54.2327	8,876.95	44.4102	8,876.95	46.25
9,188.96	86.4878	9,188.96	87.0742	9,188.96	86.7118	9,188.96	84.4664	9,188.96	84.6504	9,188.96	85.1841	9,188.96	83.5469	9,188.96	82.5575	9,188.96	81.2465	9,188.96	79.8591	9,188.96	78.3901	9,188.96	73.3838	9,188.96	70.6667	9,188.96	72.5228	9,188.96	70.8841	9,188.96	67.6029	9,188.96	66.5453	9,188.96	67.0668	9,188.96	62.2938	9,188.96	60.0742	9,188.96	57.0668	9,188.96	57.016	9,188.96	54.9882	9,188.96	54.7319	9,188.96	41.2983	9,188.96	50.1835	9,188.96	55.9589	9,188.96	52.0409	9,188.96	48.6174	9,188.96	48.5732	9,188.96	52.219	9,188.96	43.2879	9,188.96	51.0837	9,188.96	50.3842	9,188.96	48.3287	9,188.96	36.6465
9,514.16	87.2262	9,514.16	87.0809	9,514.16	86.5811	9,514.16	86.0394	9,514.16	85.4902	9,514.16	84.3232	9,514.16	83.908	9,514.16	81.7489	9,514.16	80.4386	9,514.16	78.7322	9,514.16	77.0006	9,514.16	73.9404	9,514.16	68.7843	9,514.16	69.0488	9,514.16	68.8524	9,514.16	68.4576	9,514.16	65.451	9,514.16	64.3769	9,514.16	61.3687	9,514.16	56.7471	9,514.16	48.0994	9,514.16	53.9442	9,514.16	53.634	9,514.16	52.5942	9,514.16	50.2883	9,514.16	39.2797	9,514.16	55.8964	9,514.16	44.0124	9,514.16	35.5127	9,514.16	44.3924	9,514.16	36.635	9,514.16	39.0621	9,514.16	49.1349	9,514.16	43.7001	9,514.16	49.0807	9,514.16	34.4441
9,849.61	87.4382	9,849.61	86.8376	9,849.61	86.8826	9,849.61	85.4473	9,849.61	84.9195	9,849.61	83.7009	9,849.61	83.5234	9,849.61	80.6751	9,849.61	80.1962	9,849.61	77.8188	9,849.61	76.2346	9,849.61	71.0356	9,849.61	68.0282	9,849.61	67.5898	9,849.61	66.4165	9,849.61	66.5437	9,849.61	62.2707	9,849.61	59.794	9,849.61	57.7022	9,849.61	34.2818	9,849.61	47.9876	9,849.61	34.3323	9,849.61	45.8918	9,849.61	41.9927	9,849.61	51.2521	9,849.61	48.5555	9,849.61	51.8733	9,849.61	49.3562	9,849.61	49.6287	9,849.61	33.2365	9,849.61	39.9652	9,849.61	37.4907	9,849.61	46.3482	9,849.61	40.2163	9,849.61	40.9389	9,849.61	39.3853
10,196.8	86.978	10,196.8	87.2207	10,196.8	87.0784	10,196.8	85.2006	10,196.8	84.7026	10,196.8	84.2919	10,196.8	83.4206	10,196.8	80.5297	10,196.8	79.6959	10,196.8	76.8873	10,196.8	75.7578	10,196.8	69.9669	10,196.8	65.5086	10,196.8	65.0979	10,196.8	64.996	10,196.8	62.0884	10,196.8	59.2662	10,196.8	57.0913	10,196.8	56.1929	10,196.8	51.1568	10,196.8	51.7456	10,196.8	47.1599	10,196.8	36.3978	10,196.8	45.7915	10,196.8	52.396	10,196.8	38.2889	10,196.8	39.4318	10,196.8	39.114	10,196.8	49.7694	10,196.8	40.2644	10,196.8	42.5985	10,196.8	39.0292	10,196.8	43.2832	10,196.8	37.4177	10,196.8	41.5365	10,196.8	45.4389
10,555.7	87.6029	10,555.7	87.6262	10,555.7	87.1322	10,555.7	86.048	10,555.7	85.6069	10,555.7	84.0412	10,555.7	83.3419	10,555.7	80.278	10,555.7	78.8013	10,555.7	76.0312	10,555.7	74.7245	10,555.7	68.8605	10,555.7	59.5515	10,555.7	62.1363	10,555.7	62.8308	10,555.7	59.1097	10,555.7	62.7896	10,555.7	54.6428	10,555.7	58.1461	10,555.7	46.9665	10,555.7	51.3519	10,555.7	47.6366	10,555.7	45.5057	10,555.7	34.662	10,555.7	51.9719	10,555.7	45.302	10,555.7	44.5776	10,555.7	46.7747	10,555.7	49.5802	10,555.7	35.7749	10,555.7	36.4037	10,555.7	43.7505	10,555.7	36.542	10,555.7	32.382	10,555.7	39.9427	10,555.7	47.5405
10,927.7	88.3033	10,927.7	87.8796	10,927.7	87.4854	10,927.7	86.2685	10,927.7	85.9516	10,927.7	83.786	10,927.7	83.2586	10,927.7	79.6404	10,927.7	78.667	10,927.7	76.2887	10,927.7	73.7417	10,927.7	65.25	10,927.7	54.7786	10,927.7	58.6167	10,927.7	49.5529	10,927.7	60.2238	10,927.7	65.3199	10,927.7	51.7707	10,927.7	59.1476	10,927.7	48.3694	10,927.7	56.5628	10,927.7	41.3945	10,927.7	46.6209	10,927.7	45.068	10,927.7	51.9906	10,927.7	34.0132	10,927.7	32.8904	10,927.7	45.5074	10,927.7	44.0514	10,927.7	45.9495	10,927.7	40.8755	10,927.7	41.3529	10,927.7	43.1472	10,927.7	43.2062	10,927.7	29.2774	10,927.7	46.2948
11,313	88.2483	11,313	87.5453	11,313	87.4888	11,313	86.1782	11,313	85.4866	11,313	83.6988	11,313	82.9198	11,313	79.6576	11,313	78.2751	11,313	75.1781	11,313	72.9766	11,313	59.1461	11,313	53.8	11,313	50.3265	11,313	53.7026	11,313	63.0982	11,313	65.2044	11,313	57.2401	11,313	61.1706	11,313	51.5289	11,313	56.0809	11,313	43.6949	11,313	44.9395	11,313	47.9122	11,313	55.2845	11,313	53.1947	11,313	51.3713	11,313	42.0958	11,313	35.8594	11,313	38.8501	11,313	46.363	11,313	36.4689	11,313	39.919	11,313	47.1013	11,313	32.9149	11,313	47.8931
11,712.9	88.4257	11,712.9	87.7635	11,712.9	87.442	11,712.9	86.3462	11,712.9	85.7893	11,712.9	83.1464	11,712.9	81.8232	11,712.9	79.2626	11,712.9	77.0228	11,712.9	71.6915	11,712.9	71.1535	11,712.9	50.2336	11,712.9	63.4454	11,712.9	50.3726	11,712.9	50.4453	11,712.9	65.9061	11,712.9	68.7957	11,712.9	59.5772	11,712.9	61.9656	11,712.9	52.1931	11,712.9	56.8626	11,712.9	30.9695	11,712.9	43.415	11,712.9	30.2009	11,712.9	52.4179	11,712.9	50.5578	11,712.9	52.5776	11,712.9	53.0687	11,712.9	45.136	11,712.9	44.3027	11,712.9	46.8717	11,712.9	46.7404	11,712.9	47.6292	11,712.9	43.6684	11,712.9	46.3723	11,712.9	44.215
12,126	88.2309	12,126	87.9212	12,126	87.6034	12,126	85.9816	12,126	85.2838	12,126	82.4818	12,126	81.3948	12,126	78.5559	12,126	76.5333	12,126	70.0418	12,126	66.9458	12,126	60.6953	12,126	71.3305	12,126	62.0715	12,126	65.6556	12,126	68.1674	12,126	70.746	12,126	58.5987	12,126	62.3278	12,126	52.7113	12,126	61.8827	12,126	49.1375	12,126	40.4311	12,126	49.0858	12,126	45.8361	12,126	53.294	12,126	51.5971	12,126	56.254	12,126	51.61	12,126	46.3668	12,126	48.5306	12,126	48.9348	12,126	52.8167	12,126	37.0667	12,126	49.3174	12,126	54.8571
12,553.7	88.2513	12,553.7	88.0257	12,553.7	87.5923	12,553.7	85.6017	12,553.7	84.9598	12,553.7	82.3648	12,553.7	80.5455	12,553.7	77.5478	12,553.7	74.744	12,553.7	66.2116	12,553.7	68.5351	12,553.7	68.706	12,553.7	71.6163	12,553.7	65.1721	12,553.7	66.8693	12,553.7	67.3288	12,553.7	69.7104	12,553.7	62.7024	12,553.7	61.9456	12,553.7	58.4903	12,553.7	60.9121	12,553.7	57.31	12,553.7	42.8173	12,553.7	53.8055	12,553.7	40.4002	12,553.7	55.482	12,553.7	55.5376	12,553.7	53.3806	12,553.7	51.7339	12,553.7	46.9887	12,553.7	50.6109	12,553.7	46.7921	12,553.7	47.4068	12,553.7	47.098	12,553.7	49.8367	12,553.7	51.906
12,996.1	88.2416	12,996.1	88.0914	12,996.1	87.6629	12,996.1	85.4953	12,996.1	84.7252	12,996.1	81.4474	12,996.1	80.1454	12,996.1	76.1799	12,996.1	74.0832	12,996.1	67.3207	12,996.1	66.4803	12,996.1	68.8629	12,996.1	72.2509	12,996.1	62.8075	12,996.1	66.8264	12,996.1	67.2871	12,996.1	68.7495	12,996.1	61.6543	12,996.1	62.7326	12,996.1	50.6378	12,996.1	58.8732	12,996.1	52.995	12,996.1	38.7936	12,996.1	53.7911	12,996.1	45.4323	12,996.1	56.3366	12,996.1	49.7205	12,996.1	50.413	12,996.1	41.709	12,996.1	46.1379	12,996.1	47.8711	12,996.1	50.4799	12,996.1	45.8076	12,996.1	51.5338	12,996.1	51.996	12,996.1	46.6179
13,454.6	88.5542	13,454.6	88.1182	13,454.6	87.7972	13,454.6	85.3317	13,454.6	84.7342	13,454.6	82.3772	13,454.6	80.0063	13,454.6	76.1167	13,454.6	72.8812	13,454.6	65.2702	13,454.6	67.8699	13,454.6	71.3699	13,454.6	72.9602	13,454.6	64.0419	13,454.6	66.4068	13,454.6	68.1829	13,454.6	68.9733	13,454.6	62.867	13,454.6	63.6007	13,454.6	57.473	13,454.6	62.1034	13,454.6	52.9477	13,454.6	45.5789	13,454.6	52.8569	13,454.6	46.4934	13,454.6	55.4998	13,454.6	57.2217	13,454.6	54.5909	13,454.6	43.0977	13,454.6	44.2552	13,454.6	49.8231	13,454.6	50.0146	13,454.6	51.4143	13,454.6	48.5994	13,454.6	46.3954	13,454.6	46.9753
13,929.2	88.8515	13,929.2	88.1357	13,929.2	87.7544	13,929.2	86.2215	13,929.2	85.0107	13,929.2	81.2419	13,929.2	80.236	13,929.2	75.2251	13,929.2	73.0869	13,929.2	69.2724	13,929.2	69.488	13,929.2	70.0745	13,929.2	70.9544	13,929.2	64.4479	13,929.2	63.9729	13,929.2	64.2685	13,929.2	66.6361	13,929.2	61.8844	13,929.2	61.9795	13,929.2	53.9254	13,929.2	59.8081	13,929.2	57.7896	13,929.2	49.431	13,929.2	54.1259	13,929.2	52.0022	13,929.2	54.5556	13,929.2	56.3557	13,929.2	46.2628	13,929.2	51.2057	13,929.2	51.2049	13,929.2	53.0351	13,929.2	50.0257	13,929.2	40.5649	13,929.2	47.9207	13,929.2	48.6298	13,929.2	41.8369
14,419.9	88.999	14,419.9	88.3197	14,419.9	87.9087	14,419.9	86.2452	14,419.9	85.4283	14,419.9	81.7246	14,419.9	79.7354	14,419.9	76.1143	14,419.9	72.7536	14,419.9	67.0235	14,419.9	68.6196	14,419.9	65.1419	14,419.9	68.7401	14,419.9	65.3878	14,419.9	62.3529	14,419.9	61.0797	14,419.9	65.1416	14,419.9	59.7447	14,419.9	61.0441	14,419.9	53.9622	14,419.9	57.1561	14,419.9	42.4667	14,419.9	44.5604	14,419.9	47.3299	14,419.9	48.6585	14,419.9	47.1427	14,419.9	58.5529	14,419.9	44.8305	14,419.9	50.4231	14,419.9	45.9923	14,419.9	50.8235	14,419.9	52.6278	14,419.9	47.3403	14,419.9	46.719	14,419.9	43.4715	14,419.9	39.3047
14,928.2	88.9454	14,928.2	88.4235	14,928.2	87.7233	14,928.2	86.2267	14,928.2	85.1166	14,928.2	81.5569	14,928.2	79.4027	14,928.2	75.082	14,928.2	71.9864	14,928.2	66.4605	14,928.2	63.5555	14,928.2	63.6628	14,928.2	69.87	14,928.2	64.9904	14,928.2	66.6816	14,928.2	57.3564	14,928.2	64.0546	14,928.2	59.7597	14,928.2	60.5003	14,928.2	55.1639	14,928.2	58.5713	14,928.2	52.717	14,928.2	48.7516	14,928.2	48.8527	14,928.2	34.4189	14,928.2	54.5363	14,928.2	54.0458	14,928.2	44.8274	14,928.2	40.2906	14,928.2	49.0188	14,928.2	43.1968	14,928.2	52.177	14,928.2	50.3249	14,928.2	40.6015	14,928.2	51.6546	14,928.2	47.1914
15,455.6	88.7381	15,455.6	88.0611	15,455.6	87.6402	15,455.6	86.0071	15,455.6	84.9112	15,455.6	80.6694	15,455.6	78.0996	15,455.6	74.9123	15,455.6	69.8588	15,455.6	57.9526	15,455.6	64.6901	15,455.6	63.4986	15,455.6	69.1907	15,455.6	66.3047	15,455.6	67.4045	15,455.6	57.3635	15,455.6	62.4635	15,455.6	59.6713	15,455.6	61.583	15,455.6	52.9294	15,455.6	59.3446	15,455.6	49.7271	15,455.6	47.1895	15,455.6	51.2948	15,455.6	41.1028	15,455.6	52.1347	15,455.6	52.76	15,455.6	48.8563	15,455.6	46.5639	15,455.6	44.0946	15,455.6	42.9595	15,455.6	50.4344	15,455.6	52.4456	15,455.6	43.4119	15,455.6	52.7572	15,455.6	38.9746
16,000.5	88.6114	16,000.5	87.8256	16,000.5	87.1454	16,000.5	85.4999	16,000.5	84.0747	16,000.5	80.2238	16,000.5	77.0619	16,000.5	73.5883	16,000.5	67.3217	16,000.5	53.3019	16,000.5	61.3266	16,000.5	65.0768	16,000.5	69.7495	16,000.5	68.9816	16,000.5	68.9155	16,000.5	58.2279	16,000.5	63.4936	16,000.5	60.0297	16,000.5	60.2435	16,000.5	52.948	16,000.5	58.3903	16,000.5	43.8493	16,000.5	50.4728	16,000.5	44.7285	16,000.5	45.4697	16,000.5	50.1881	16,000.5	50.5248	16,000.5	48.7439	16,000.5	48.4162	16,000.5	50.534	16,000.5	45.4908	16,000.5	50.6714	16,000.5	51.4287	16,000.5	49.3419	16,000.5	52.0637	16,000.5	34.4784
16,564.5	88.2423	16,564.5	87.5876	16,564.5	86.8879	16,564.5	84.8078	16,564.5	83.3202	16,564.5	79.4099	16,564.5	75.8356	16,564.5	71.7759	16,564.5	63.0824	16,564.5	54.7977	16,564.5	64.4361	16,564.5	69.7039	16,564.5	70.7824	16,564.5	69.2674	16,564.5	69.3828	16,564.5	61.5998	16,564.5	63.5512	16,564.5	61.1833	16,564.5	60.3887	16,564.5	53.3503	16,564.5	59.0368	16,564.5	52.9322	16,564.5	48.4018	16,564.5	45.0443	16,564.5	47.5497	16,564.5	40.4321	16,564.5	48.021	16,564.5	46.3637	16,564.5	42.2306	16,564.5	52.1106	16,564.5	46.1604	16,564.5	50.9246	16,564.5	46.4923	16,564.5	43.6706	16,564.5	49.7014	16,564.5	44.0824
17,148.9	87.7634	17,148.9	86.9389	17,148.9	86.1986	17,148.9	83.807	17,148.9	82.0765	17,148.9	78.8481	17,148.9	75.0535	17,148.9	70.9561	17,148.9	63.91	17,148.9	63.0277	17,148.9	62.5022	17,148.9	69.963	17,148.9	71.2016	17,148.9	67.7787	17,148.9	69.5323	17,148.9	59.8222	17,148.9	63.1099	17,148.9	58.3306	17,148.9	58.3425	17,148.9	53.8892	17,148.9	57.249	17,148.9	52.9101	17,148.9	52.2673	17,148.9	44.4229	17,148.9	47.5038	17,148.9	47.2459	17,148.9	53.5104	17,148.9	46.5031	17,148.9	48.0872	17,148.9	48.2383	17,148.9	49.539	17,148.9	45.3013	17,148.9	48.4938	17,148.9	40.7678	17,148.9	48.6154	17,148.9	46.6437
17,752.4	87.273	17,752.4	85.9864	17,752.4	85.4536	17,752.4	82.5814	17,752.4	81.1985	17,752.4	77.1114	17,752.4	73.6529	17,752.4	70.4634	17,752.4	65.6859	17,752.4	69.0655	17,752.4	68.8263	17,752.4	71.3216	17,752.4	70.9701	17,752.4	70.2743	17,752.4	68.9181	17,752.4	64.4162	17,752.4	61.2297	17,752.4	60.1912	17,752.4	57.6973	17,752.4	48.6913	17,752.4	57.1787	17,752.4	57.0599	17,752.4	52.1546	17,752.4	39.8016	17,752.4	51.7553	17,752.4	47.6578	17,752.4	54.7973	17,752.4	43.2124	17,752.4	48.6872	17,752.4	50.408	17,752.4	47.9956	17,752.4	46.6063	17,752.4	52.999	17,752.4	42.786	17,752.4	46.5814	17,752.4	46.8275
18,379.4	86.2285	18,379.4	85.0907	18,379.4	84.7927	18,379.4	81.1424	18,379.4	80.3412	18,379.4	74.4959	18,379.4	72.9904	18,379.4	70.7913	18,379.4	68.6208	18,379.4	70.1491	18,379.4	69.1805	18,379.4	71.2169	18,379.4	70.7451	18,379.4	68.9163	18,379.4	69.0313	18,379.4	63.1047	18,379.4	61.9704	18,379.4	59.5061	18,379.4	58.7988	18,379.4	49.0432	18,379.4	56.9151	18,379.4	52.2535	18,379.4	49.369	18,379.4	26.7573	18,379.4	48.535	18,379.4	36.8321	18,379.4	55.353	18,379.4	46.9319	18,379.4	51.293	18,379.4	43.691	18,379.4	46.4505	18,379.4	45.9888	18,379.4	35.2178	18,379.4	50.06	18,379.4	47.1584	18,379.4	50.7942
19,026.9	85.7579	19,026.9	84.5197	19,026.9	83.9512	19,026.9	79.83	19,026.9	79.1635	19,026.9	73.1381	19,026.9	70.9842	19,026.9	70.8155	19,026.9	67.4193	19,026.9	70.2278	19,026.9	69.9034	19,026.9	69.9429	19,026.9	70.3667	19,026.9	66.5629	19,026.9	68.0505	19,026.9	61.0675	19,026.9	61.8625	19,026.9	53.6323	19,026.9	54.6004	19,026.9	39.8044	19,026.9	51.7514	19,026.9	49.4089	19,026.9	43.7545	19,026.9	43.4253	19,026.9	46.2214	19,026.9	44.7678	19,026.9	48.9302	19,026.9	47.0809	19,026.9	37.0666	19,026.9	47.5338	19,026.9	49.9992	19,026.9	39.5246	19,026.9	40.1951	19,026.9	50.6699	19,026.9	45.7437	19,026.9	49.1867
19,697.8	85.1733	19,697.8	84.4213	19,697.8	82.9045	19,697.8	79.6816	19,697.8	77.8741	19,697.8	72.7922	19,697.8	69.1111	19,697.8	69.6035	19,697.8	68.5704	19,697.8	71.8129	19,697.8	69.9709	19,697.8	70.0708	19,697.8	69.4757	19,697.8	66.5738	19,697.8	65.8634	19,697.8	60.6714	19,697.8	57.4906	19,697.8	50.56	19,697.8	44.3766	19,697.8	41.0407	19,697.8	45.9687	19,697.8	45.5508	19,697.8	45.7102	19,697.8	40.119	19,697.8	45.8622	19,697.8	38.0458	19,697.8	49.5882	19,697.8	41.6364	19,697.8	17.1273	19,697.8	41.1365	19,697.8	36.0876	19,697.8	44.334	19,697.8	31.2277	19,697.8	37.599	19,697.8	35.482	19,697.8	39.5965
19,999.5	85.1442	19,999.5	84.7174	19,999.5	82.8925	19,999.5	78.8499	19,999.5	77.1858	19,999.5	73.2057	19,999.5	68.813	19,999.5	71.2478	19,999.5	68.3672	19,999.5	72.5353	19,999.5	69.4234	19,999.5	69.7116	19,999.5	69.8882	19,999.5	65.9745	19,999.5	64.1405	19,999.5	55.6227	19,999.5	58.7695	19,999.5	51.9935	19,999.5	46.2933	19,999.5	44.9606	19,999.5	49.617	19,999.5	52.7986	19,999.5	36.0527	19,999.5	39.2931	19,999.5	47.9463	19,999.5	52.3878	19,999.5	51.6411	19,999.5	42.8997	19,999.5	39.5362	19,999.5	49.0166	19,999.5	49.5962	19,999.5	38.8271	19,999.5	31.961	19,999.5	37.3791	19,999.5	45.7626	19,999.5	40.5361
