"SPL Horizontal"
"On-Axis"		"10°"		"-10°"		"20°"		"-20°"		"30°"		"-30°"		"40°"		"-40°"		"50°"		"-50°"		"60°"		"-60°"		"70°"		"-70°"		"80°"		"-80°"		"90°"		"-90°"		"100°"		"-100°"		"110°"		"-110°"		"120°"		"-120°"		"130°"		"-130°"		"140°"		"-140°"		"150°"		"-150°"		"160°"		"-160°"		"170°"		"-170°"		"180°"
"Frequency [Hz]"	"Sound Pessure Level [dB]  / [2.83V 1m] "	"Frequency [Hz]"	"Sound Pessure Level [dB]  / [2.83V 1m] "	"Frequency [Hz]"	"Sound Pessure Level [dB]  / [2.83V 1m] "	"Frequency [Hz]"	"Sound Pessure Level [dB]  / [2.83V 1m] "	"Frequency [Hz]"	"Sound Pessure Level [dB]  / [2.83V 1m] "	"Frequency [Hz]"	"Sound Pessure Level [dB]  / [2.83V 1m] "	"Frequency [Hz]"	"Sound Pessure Level [dB]  / [2.83V 1m] "	"Frequency [Hz]"	"Sound Pessure Level [dB]  / [2.83V 1m] "	"Frequency [Hz]"	"Sound Pessure Level [dB]  / [2.83V 1m] "	"Frequency [Hz]"	"Sound Pessure Level [dB]  / [2.83V 1m] "	"Frequency [Hz]"	"Sound Pessure Level [dB]  / [2.83V 1m] "	"Frequency [Hz]"	"Sound Pessure Level [dB]  / [2.83V 1m] "	"Frequency [Hz]"	"Sound Pessure Level [dB]  / [2.83V 1m] "	"Frequency [Hz]"	"Sound Pessure Level [dB]  / [2.83V 1m] "	"Frequency [Hz]"	"Sound Pessure Level [dB]  / [2.83V 1m] "	"Frequency [Hz]"	"Sound Pessure Level [dB]  / [2.83V 1m] "	"Frequency [Hz]"	"Sound Pessure Level [dB]  / [2.83V 1m] "	"Frequency [Hz]"	"Sound Pessure Level [dB]  / [2.83V 1m] "	"Frequency [Hz]"	"Sound Pessure Level [dB]  / [2.83V 1m] "	"Frequency [Hz]"	"Sound Pessure Level [dB]  / [2.83V 1m] "	"Frequency [Hz]"	"Sound Pessure Level [dB]  / [2.83V 1m] "	"Frequency [Hz]"	"Sound Pessure Level [dB]  / [2.83V 1m] "	"Frequency [Hz]"	"Sound Pessure Level [dB]  / [2.83V 1m] "	"Frequency [Hz]"	"Sound Pessure Level [dB]  / [2.83V 1m] "	"Frequency [Hz]"	"Sound Pessure Level [dB]  / [2.83V 1m] "	"Frequency [Hz]"	"Sound Pessure Level [dB]  / [2.83V 1m] "	"Frequency [Hz]"	"Sound Pessure Level [dB]  / [2.83V 1m] "	"Frequency [Hz]"	"Sound Pessure Level [dB]  / [2.83V 1m] "	"Frequency [Hz]"	"Sound Pessure Level [dB]  / [2.83V 1m] "	"Frequency [Hz]"	"Sound Pessure Level [dB]  / [2.83V 1m] "	"Frequency [Hz]"	"Sound Pessure Level [dB]  / [2.83V 1m] "	"Frequency [Hz]"	"Sound Pessure Level [dB]  / [2.83V 1m] "	"Frequency [Hz]"	"Sound Pessure Level [dB]  / [2.83V 1m] "	"Frequency [Hz]"	"Sound Pessure Level [dB]  / [2.83V 1m] "	"Frequency [Hz]"	"Sound Pessure Level [dB]  / [2.83V 1m] "	"Frequency [Hz]"	"Sound Pessure Level [dB]  / [2.83V 1m] "
20.5078	57.3719	20.5078	57.3218	20.5078	57.4564	20.5078	57.3056	20.5078	57.5818	20.5078	57.3284	20.5078	57.7593	20.5078	57.4003	20.5078	58.0034	20.5078	57.5354	20.5078	58.3271	20.5078	57.7485	20.5078	58.7367	20.5078	58.0516	20.5078	59.2262	20.5078	58.4493	20.5078	59.7772	20.5078	58.9362	20.5078	60.3618	20.5078	59.4973	20.5078	60.9488	20.5078	60.1093	20.5078	61.5099	20.5078	60.7434	20.5078	62.0224	20.5078	61.3678	20.5078	62.4697	20.5078	61.9495	20.5078	62.8394	20.5078	62.4582	20.5078	63.1211	20.5078	62.8686	20.5078	63.3043	20.5078	63.1632	20.5078	63.3782	20.5078	63.3332
21.9727	53.5345	21.9727	53.5474	21.9727	53.6063	21.9727	53.6433	21.9727	53.7764	21.9727	53.8338	21.9727	54.0657	21.9727	54.1403	21.9727	54.4932	21.9727	54.5856	21.9727	55.0652	21.9727	55.1837	21.9727	55.7687	21.9727	55.9291	21.9727	56.5714	21.9727	56.7949	21.9727	57.4301	21.9727	57.7369	21.9727	58.3007	21.9727	58.7047	21.9727	59.147	21.9727	59.6495	21.9727	59.9438	21.9727	60.5298	21.9727	60.6757	21.9727	61.3123	21.9727	61.333	21.9727	61.9717	21.9727	61.907	21.9727	62.4896	21.9727	62.3865	21.9727	62.8543	21.9727	62.757	21.9727	63.0601	21.9727	63.0024	21.9727	63.1073
23.4375	57.1557	23.4375	57.042	23.4375	57.2728	23.4375	56.9406	23.4375	57.3975	23.4375	56.8748	23.4375	57.5452	23.4375	56.8822	23.4375	57.7389	23.4375	57.0083	23.4375	58.0046	23.4375	57.2943	23.4375	58.363	23.4375	57.7602	23.4375	58.8227	23.4375	58.3934	23.4375	59.3756	23.4375	59.1522	23.4375	59.9996	23.4375	59.98	23.4375	60.6645	23.4375	60.8207	23.4375	61.3379	23.4375	61.6264	23.4375	61.9901	23.4375	62.3598	23.4375	62.5949	23.4375	62.9927	23.4375	63.1292	23.4375	63.5038	23.4375	63.5726	23.4375	63.8779	23.4375	63.9064	23.4375	64.1057	23.4375	64.1144	23.4375	64.1836
24.9023	60.0597	24.9023	60.0277	24.9023	60.0909	24.9023	59.9991	24.9023	60.1261	24.9023	59.9865	24.9023	60.178	24.9023	60.0111	24.9023	60.2667	24.9023	60.1012	24.9023	60.4167	24.9023	60.2873	24.9023	60.6519	24.9023	60.5943	24.9023	60.9878	24.9023	61.0317	24.9023	61.4257	24.9023	61.5886	24.9023	61.9507	24.9023	62.2343	24.9023	62.5356	24.9023	62.9265	24.9023	63.1482	24.9023	63.6198	24.9023	63.7568	24.9023	64.2722	24.9023	64.333	24.9023	64.848	24.9023	64.8517	24.9023	65.3188	24.9023	65.2903	24.9023	65.6634	24.9023	65.6276	24.9023	65.8686	24.9023	65.8453	24.9023	65.9286
26.3672	59.6621	26.3672	59.6138	26.3672	59.6741	26.3672	59.5385	26.3672	59.6557	26.3672	59.461	26.3672	59.6281	26.3672	59.4229	26.3672	59.6282	26.3672	59.4795	26.3672	59.7061	26.3672	59.6892	26.3672	59.9156	26.3672	60.0935	26.3672	60.2967	26.3672	60.6975	26.3672	60.8572	26.3672	61.4652	26.3672	61.5675	26.3672	62.3342	26.3672	62.3727	26.3672	63.2362	26.3672	63.2121	26.3672	64.1113	26.3672	64.0324	26.3672	64.912	26.3672	64.7927	26.3672	65.6024	26.3672	65.4627	26.3672	66.1555	26.3672	66.0197	26.3672	66.5522	26.3672	66.4445	26.3672	66.7805	26.3672	66.721	26.3672	66.836
27.832	62.7263	27.832	62.7184	27.832	62.7236	27.832	62.7076	27.832	62.7136	27.832	62.7125	27.832	62.7108	27.832	62.7614	27.832	62.7403	27.832	62.8891	27.832	62.8358	27.832	63.1297	27.832	63.0331	27.832	63.5068	27.832	63.3604	27.832	64.0239	27.832	63.8268	27.832	64.6611	27.832	64.4179	27.832	65.3798	27.832	65.0991	27.832	66.1323	27.832	65.8262	27.832	66.8709	27.832	66.5549	27.832	67.5539	27.832	67.2465	27.832	68.1471	27.832	67.8684	27.832	68.6238	27.832	68.3939	27.832	68.9645	27.832	68.8005	27.832	69.1559	27.832	69.0705	27.832	69.1912
29.2969	64.0316	29.2969	64.0141	29.2969	64.0279	29.2969	63.9817	29.2969	64.0074	29.2969	63.9518	29.2969	63.9854	29.2969	63.953	29.2969	63.9883	29.2969	64.0226	29.2969	64.0524	29.2969	64.2011	29.2969	64.2179	29.2969	64.5211	29.2969	64.5184	29.2969	64.9945	29.2969	64.9682	29.2969	65.6061	29.2969	65.5545	29.2969	66.3169	29.2969	66.2407	29.2969	67.0756	29.2969	66.9783	29.2969	67.83	29.2969	67.7177	29.2969	68.5347	29.2969	68.4161	29.2969	69.1528	29.2969	69.0385	29.2969	69.656	29.2969	69.5574	29.2969	70.0236	29.2969	69.951	29.2969	70.2412	29.2969	70.2027	29.2969	70.3012
30.7617	66.3007	30.7617	66.277	30.7617	66.3302	30.7617	66.265	30.7617	66.3685	30.7617	66.2801	30.7617	66.4281	30.7617	66.3454	30.7617	66.5286	30.7617	66.4891	30.7617	66.6947	30.7617	66.7383	30.7617	66.9509	30.7617	67.111	30.7617	67.3142	30.7617	67.609	30.7617	67.7879	30.7617	68.2144	30.7617	68.3589	30.7617	68.8941	30.7617	68.9999	30.7617	69.6065	30.7617	69.6751	30.7617	70.3096	30.7617	70.3469	30.7617	70.9659	30.7617	70.9798	30.7617	71.544	30.7617	71.543	30.7617	72.0186	30.7617	72.0104	30.7617	72.3705	30.7617	72.3612	30.7617	72.5856	30.7617	72.5798	30.7617	72.6561
32.2266	68.2327	32.2266	68.2256	32.2266	68.2415	32.2266	68.2272	32.2266	68.253	32.2266	68.2523	32.2266	68.2762	32.2266	68.3219	32.2266	68.328	32.2266	68.4608	32.2266	68.4309	32.2266	68.692	32.2266	68.6105	32.2266	69.0304	32.2266	68.8887	32.2266	69.4774	32.2266	69.2771	32.2266	70.0191	32.2266	69.7715	32.2266	70.6286	32.2266	70.3509	32.2266	71.2721	32.2266	70.9823	32.2266	71.9135	32.2266	71.6273	32.2266	72.5175	32.2266	72.2485	32.2266	73.0521	32.2266	72.8129	32.2266	73.489	32.2266	73.2927	32.2266	73.8055	32.2266	73.6652	32.2266	73.9858	32.2266	73.9124	32.2266	74.0216
33.6914	70.6712	33.6914	70.676	33.6914	70.6774	33.6914	70.6968	33.6914	70.6955	33.6914	70.7443	33.6914	70.733	33.6914	70.8337	33.6914	70.8027	33.6914	70.9824	33.6914	70.9222	33.6914	71.2072	33.6914	71.1109	33.6914	71.5199	33.6914	71.3852	33.6914	71.9232	33.6914	71.7535	33.6914	72.409	33.6914	72.212	33.6914	72.9576	33.6914	72.7436	33.6914	73.5412	33.6914	73.3214	33.6914	74.1272	33.6914	73.9128	33.6914	74.6827	33.6914	74.4843	33.6914	75.1771	33.6914	75.0046	33.6914	75.5842	33.6914	75.4464	33.6914	75.8828	33.6914	75.7868	33.6914	76.0579	33.6914	76.0086	33.6914	76.1005
35.1562	73.0227	35.1562	73.0267	35.1562	73.0298	35.1562	73.0458	35.1562	73.0495	35.1562	73.0887	35.1562	73.0879	35.1562	73.168	35.1562	73.1562	35.1562	73.2986	35.1562	73.2687	35.1562	73.4954	35.1562	73.4411	35.1562	73.7694	35.1562	73.6868	35.1562	74.1245	35.1562	74.0131	35.1562	74.5549	35.1562	74.418	35.1562	75.0446	35.1562	74.8888	35.1562	75.5696	35.1562	75.4037	35.1562	76.101	35.1562	75.9346	35.1562	76.6087	35.1562	76.4514	35.1562	77.0638	35.1562	76.9248	35.1562	77.4409	35.1562	77.3285	35.1562	77.7194	35.1562	77.6403	35.1562	77.8841	35.1562	77.8432	35.1562	77.926
36.6211	75.2273	36.6211	75.233	36.6211	75.2342	36.6211	75.2545	36.6211	75.2547	36.6211	75.2991	36.6211	75.294	36.6211	75.3771	36.6211	75.3611	36.6211	75.5014	36.6211	75.4676	36.6211	75.6842	36.6211	75.6266	36.6211	75.9354	36.6211	75.8495	36.6211	76.2588	36.6211	76.1433	36.6211	76.65	36.6211	76.5075	36.6211	77.0962	36.6211	76.9329	36.6211	77.5768	36.6211	77.4016	36.6211	78.066	36.6211	77.8895	36.6211	78.5362	36.6211	78.3689	36.6211	78.9598	36.6211	78.812	36.6211	79.3121	36.6211	79.1927	36.6211	79.5726	36.6211	79.4888	36.6211	79.7261	36.6211	79.6829	36.6211	79.7635
38.0859	77.3592	38.0859	77.3649	38.0859	77.3687	38.0859	77.3885	38.0859	77.3938	38.0859	77.4356	38.0859	77.4385	38.0859	77.5148	38.0859	77.5096	38.0859	77.6357	38.0859	77.6161	38.0859	77.808	38.0859	77.7681	38.0859	78.0394	38.0859	77.9747	38.0859	78.3328	38.0859	78.2417	38.0859	78.6853	38.0859	78.5695	38.0859	79.0867	38.0859	78.9512	38.0859	79.5201	38.0859	79.3723	38.0859	79.9635	38.0859	79.8123	38.0859	80.392	38.0859	80.2469	38.0859	80.7801	38.0859	80.6505	38.0859	81.1044	38.0859	80.9987	38.0859	81.345	38.0859	81.2703	38.0859	81.4873	38.0859	81.4485	38.0859	81.5224
39.5508	79.2089	39.5508	79.2161	39.5508	79.2184	39.5508	79.2423	39.5508	79.245	39.5508	79.2921	39.5508	79.2918	39.5508	79.3723	39.5508	79.364	39.5508	79.4906	39.5508	79.4689	39.5508	79.6546	39.5508	79.6143	39.5508	79.8705	39.5508	79.8072	39.5508	80.1408	39.5508	80.0523	39.5508	80.463	39.5508	80.3501	39.5508	80.8288	39.5508	80.6952	39.5508	81.2238	39.5508	81.0761	39.5508	81.6288	39.5508	81.4758	39.5508	82.0216	39.5508	81.8729	39.5508	82.3786	39.5508	82.2445	39.5508	82.6777	39.5508	82.5676	39.5508	82.8998	39.5508	82.8216	39.5508	83.0305	39.5508	82.9899	39.5508	83.0611
41.0156	80.8649	41.0156	80.8731	41.0156	80.8724	41.0156	80.8988	41.0156	80.8958	41.0156	80.9459	41.0156	80.9374	41.0156	81.02	41.0156	81.0012	41.0156	81.1274	41.0156	81.0931	41.0156	81.2748	41.0156	81.2195	41.0156	81.4673	41.0156	81.3866	41.0156	81.708	41.0156	81.5992	41.0156	81.9954	41.0156	81.8591	41.0156	82.3234	41.0156	82.1632	41.0156	82.68	41.0156	82.5032	41.0156	83.0484	41.0156	82.8648	41.0156	83.4081	41.0156	83.2292	41.0156	83.7369	41.0156	83.5749	41.0156	84.0131	41.0156	83.8795	41.0156	84.2177	41.0156	84.1224	41.0156	84.336	41.0156	84.2864	41.0156	84.3594
42.4805	81.8863	42.4805	81.9045	42.4805	81.8832	42.4805	81.9396	42.4805	81.8955	42.4805	81.9949	42.4805	81.9251	42.4805	82.075	42.4805	81.9757	42.4805	82.1855	42.4805	82.0523	42.4805	82.3319	42.4805	82.1609	42.4805	82.5188	42.4805	82.3074	42.4805	82.7485	42.4805	82.4967	42.4805	83.0195	42.4805	82.7308	42.4805	83.3259	42.4805	83.0077	42.4805	83.6566	42.4805	83.3208	42.4805	83.996	42.4805	83.6578	42.4805	84.3249	42.4805	84.0024	42.4805	84.6227	42.4805	84.3349	42.4805	84.8687	42.4805	84.6339	42.4805	85.0451	42.4805	84.879	42.4805	85.1383	42.4805	85.0523	42.4805	85.1409
43.9453	82.5317	43.9453	82.5524	43.9453	82.526	43.9453	82.5895	43.9453	82.5353	43.9453	82.6458	43.9453	82.5611	43.9453	82.725	43.9453	82.6063	43.9453	82.8314	43.9453	82.6752	43.9453	82.9696	43.9453	82.773	43.9453	83.1431	43.9453	82.905	43.9453	83.3539	43.9453	83.0757	43.9453	83.6007	43.9453	83.2874	43.9453	83.879	43.9453	83.5393	43.9453	84.1794	43.9453	83.8262	43.9453	84.4887	43.9453	84.1381	43.9453	84.7899	43.9453	84.4602	43.9453	85.0642	43.9453	84.7738	43.9453	85.2922	43.9453	85.0582	43.9453	85.4564	43.9453	85.2926	43.9453	85.5432	43.9453	85.459	43.9453	85.5445
45.4102	82.7979	45.4102	82.8226	45.4102	82.7903	45.4102	82.8653	45.4102	82.8	45.4102	82.9278	45.4102	82.8287	45.4102	83.0127	45.4102	82.8788	45.4102	83.1231	45.4102	82.9539	45.4102	83.2621	45.4102	83.0578	45.4102	83.4319	45.4102	83.1946	45.4102	83.6337	45.4102	83.3673	45.4102	83.8661	45.4102	83.577	45.4102	84.1251	45.4102	83.8221	45.4102	84.4029	45.4102	84.0971	45.4102	84.6883	45.4102	84.3926	45.4102	84.9667	45.4102	84.6947	45.4102	85.2215	45.4102	84.9863	45.4102	85.4351	45.4102	85.2482	45.4102	85.5913	45.4102	85.4617	45.4102	85.677	45.4102	85.6107	45.4102	85.6841
46.875	83.1012	46.875	83.1242	46.875	83.0967	46.875	83.1659	46.875	83.1109	46.875	83.2274	46.875	83.145	46.875	83.3101	46.875	83.2007	46.875	83.416	46.875	83.2802	46.875	83.547	46.875	83.3859	46.875	83.7046	46.875	83.5201	46.875	83.8894	46.875	83.6846	46.875	84.1004	46.875	83.8794	46.875	84.3342	46.875	84.1028	46.875	84.5845	46.875	84.3502	46.875	84.8417	46.875	84.6135	46.875	85.0933	46.875	84.8814	46.875	85.3244	46.875	85.1391	46.875	85.5192	46.875	85.3703	46.875	85.6628	46.875	85.5585	46.875	85.7429	46.875	85.6892	46.875	85.7522
48.3398	83.0906	48.3398	83.1064	48.3398	83.0931	48.3398	83.1408	48.3398	83.1141	48.3398	83.1943	48.3398	83.1541	48.3398	83.2679	48.3398	83.2139	48.3398	83.3626	48.3398	83.2949	48.3398	83.4797	48.3398	83.3983	48.3398	83.62	48.3398	83.5254	48.3398	83.784	48.3398	83.677	48.3398	83.9707	48.3398	83.8532	48.3398	84.1778	48.3398	84.0521	48.3398	84.4002	48.3398	84.2701	48.3398	84.6301	48.3398	84.5006	48.3398	84.857	48.3398	84.7341	48.3398	85.0677	48.3398	84.9581	48.3398	85.2479	48.3398	85.1583	48.3398	85.3835	48.3398	85.3199	48.3398	85.463	48.3398	85.43	48.3398	85.4791
51.2695	82.9246	51.2695	82.9452	51.2695	82.9221	51.2695	82.9838	51.2695	82.9379	51.2695	83.0404	51.2695	82.9721	51.2695	83.1151	51.2695	83.0248	51.2695	83.2077	51.2695	83.0963	51.2695	83.3182	51.2695	83.1869	51.2695	83.4464	51.2695	83.2967	51.2695	83.5917	51.2695	83.4257	51.2695	83.7529	51.2695	83.5734	51.2695	83.9277	51.2695	83.7387	51.2695	84.1121	51.2695	83.919	51.2695	84.3003	51.2695	84.1101	51.2695	84.4841	51.2695	84.3054	51.2695	84.6534	51.2695	84.4955	51.2695	84.7966	51.2695	84.6687	51.2695	84.9021	51.2695	84.8121	51.2695	84.9601	51.2695	84.9137	51.2695	84.9644
52.7344	82.9279	52.7344	82.9544	52.7344	82.9201	52.7344	82.9993	52.7344	82.9313	52.7344	83.0618	52.7344	82.9612	52.7344	83.1413	52.7344	83.0098	52.7344	83.2369	52.7344	83.0765	52.7344	83.3475	52.7344	83.1611	52.7344	83.4721	52.7344	83.2629	52.7344	83.6095	52.7344	83.3816	52.7344	83.7583	52.7344	83.5164	52.7344	83.9162	52.7344	83.6661	52.7344	84.0799	52.7344	83.8289	52.7344	84.2448	52.7344	84.0016	52.7344	84.4041	52.7344	84.1788	52.7344	84.5494	52.7344	84.3527	52.7344	84.6708	52.7344	84.5129	52.7344	84.7582	52.7344	84.6477	52.7344	84.8027	52.7344	84.7459	52.7344	84.7989
54.1992	82.9286	54.1992	82.9574	54.1992	82.9184	54.1992	83.0042	54.1992	82.927	54.1992	83.0681	54.1992	82.954	54.1992	83.1479	54.1992	82.999	54.1992	83.2421	54.1992	83.0612	54.1992	83.3491	54.1992	83.1398	54.1992	83.4673	54.1992	83.2338	54.1992	83.5951	54.1992	83.3424	54.1992	83.7308	54.1992	83.4645	54.1992	83.8727	54.1992	83.5992	54.1992	84.018	54.1992	83.7452	54.1992	84.1632	54.1992	83.9003	54.1992	84.303	54.1992	84.0604	54.1992	84.43	54.1992	84.2191	54.1992	84.5357	54.1992	84.367	54.1992	84.6108	54.1992	84.4931	54.1992	84.6471	54.1992	84.5867	54.1992	84.6394
55.6641	82.9089	55.6641	82.9313	55.6641	82.9056	55.6641	82.9723	55.6641	82.9218	55.6641	83.0305	55.6641	82.957	55.6641	83.1044	55.6641	83.0103	55.6641	83.192	55.6641	83.0805	55.6641	83.2914	55.6641	83.1662	55.6641	83.4006	55.6641	83.2657	55.6641	83.518	55.6641	83.3773	55.6641	83.6419	55.6641	83.4994	55.6641	83.7706	55.6641	83.6302	55.6641	83.9021	55.6641	83.7676	55.6641	84.0333	55.6641	83.9089	55.6641	84.1603	55.6641	84.0497	55.6641	84.2771	55.6641	84.184	55.6641	84.3769	55.6641	84.3042	55.6641	84.4518	55.6641	84.4019	55.6641	84.4948	55.6641	84.4695	55.6641	84.5012
58.5938	83.1404	58.5938	83.1516	58.5938	83.1473	58.5938	83.1804	58.5938	83.1724	58.5938	83.2255	58.5938	83.2151	58.5938	83.285	58.5938	83.2738	58.5938	83.3568	58.5938	83.3467	58.5938	83.4386	58.5938	83.4316	58.5938	83.5281	58.5938	83.526	58.5938	83.6232	58.5938	83.6272	58.5938	83.7221	58.5938	83.7329	58.5938	83.8232	58.5938	83.8406	58.5938	83.925	58.5938	83.9481	58.5938	84.026	58.5938	84.0528	58.5938	84.1238	58.5938	84.1517	58.5938	84.215	58.5938	84.2411	58.5938	84.2949	58.5938	84.3167	58.5938	84.3585	58.5938	84.3739	58.5938	84.4007	58.5938	84.4087	58.5938	84.4179
60.0586	83.2331	60.0586	83.2417	60.0586	83.2425	60.0586	83.2677	60.0586	83.2697	60.0586	83.3099	60.0586	83.3137	60.0586	83.3661	60.0586	83.3728	60.0586	83.4339	60.0586	83.4447	60.0586	83.5106	60.0586	83.5268	60.0586	83.5934	60.0586	83.6164	60.0586	83.6799	60.0586	83.7106	60.0586	83.7683	60.0586	83.8068	60.0586	83.8571	60.0586	83.9028	60.0586	83.9455	60.0586	83.9963	60.0586	84.0325	60.0586	84.0854	60.0586	84.1167	60.0586	84.168	60.0586	84.1957	60.0586	84.2414	60.0586	84.2658	60.0586	84.3027	60.0586	84.3224	60.0586	84.3481	60.0586	84.3613	60.0586	84.3744	60.0586	84.3791
62.9883	83.4392	62.9883	83.4443	62.9883	83.451	62.9883	83.4657	62.9883	83.4794	62.9883	83.5019	62.9883	83.5232	62.9883	83.5508	62.9883	83.5802	62.9883	83.6096	62.9883	83.6477	62.9883	83.6754	62.9883	83.7226	62.9883	83.7452	62.9883	83.8015	62.9883	83.8164	62.9883	83.8813	62.9883	83.8869	62.9883	83.959	62.9883	83.9553	62.9883	84.0323	62.9883	84.0209	62.9883	84.0996	62.9883	84.0831	62.9883	84.1598	62.9883	84.1417	62.9883	84.2122	62.9883	84.1958	62.9883	84.2563	62.9883	84.2437	62.9883	84.2912	62.9883	84.283	62.9883	84.3156	62.9883	84.3113	62.9883	84.3278	62.9883	84.3265
64.4531	83.5599	64.4531	83.5636	64.4531	83.5726	64.4531	83.5829	64.4531	83.6012	64.4531	83.6163	64.4531	83.6444	64.4531	83.6615	64.4531	83.7	64.4531	83.7155	64.4531	83.7651	64.4531	83.7751	64.4531	83.8364	64.4531	83.8371	64.4531	83.9101	64.4531	83.8986	64.4531	83.9829	64.4531	83.9572	64.4531	84.0517	64.4531	84.0115	64.4531	84.1138	64.4531	84.0611	64.4531	84.1677	64.4531	84.1061	64.4531	84.2123	64.4531	84.1474	64.4531	84.2475	64.4531	84.1853	64.4531	84.2737	64.4531	84.2198	64.4531	84.291	64.4531	84.2499	64.4531	84.2998	64.4531	84.2742	64.4531	84.2999	64.4531	84.2912
67.3828	83.8161	67.3828	83.8169	67.3828	83.8295	67.3828	83.8314	67.3828	83.8566	67.3828	83.8582	67.3828	83.8958	67.3828	83.8948	67.3828	83.9446	67.3828	83.9381	67.3828	83.9999	67.3828	83.9849	67.3828	84.058	67.3828	84.0314	67.3828	84.1153	67.3828	84.0747	67.3828	84.1679	67.3828	84.1123	67.3828	84.2128	67.3828	84.1427	67.3828	84.2476	67.3828	84.1655	67.3828	84.271	67.3828	84.1815	67.3828	84.2831	67.3828	84.1924	67.3828	84.2852	67.3828	84.2001	67.3828	84.2797	67.3828	84.2068	67.3828	84.2694	67.3828	84.2138	67.3828	84.2568	67.3828	84.2222	67.3828	84.244	67.3828	84.2323
68.8477	83.9724	68.8477	83.9715	68.8477	83.9878	68.8477	83.9845	68.8477	84.0171	68.8477	84.0099	68.8477	84.0586	68.8477	84.0451	68.8477	84.1099	68.8477	84.0869	68.8477	84.1674	68.8477	84.1317	68.8477	84.2273	68.8477	84.1758	68.8477	84.2856	68.8477	84.2159	68.8477	84.3382	68.8477	84.2494	68.8477	84.3816	68.8477	84.2747	68.8477	84.4131	68.8477	84.2914	68.8477	84.4314	68.8477	84.3005	68.8477	84.4364	68.8477	84.3042	68.8477	84.4297	68.8477	84.305	68.8477	84.414	68.8477	84.306	68.8477	84.393	68.8477	84.3097	68.8477	84.3701	68.8477	84.3176	68.8477	84.3486	68.8477	84.3307
71.7773	84.3076	71.7773	84.2989	71.7773	84.3293	71.7773	84.3028	71.7773	84.3632	71.7773	84.3179	71.7773	84.4075	71.7773	84.3417	71.7773	84.4595	71.7773	84.3712	71.7773	84.5157	71.7773	84.4029	71.7773	84.572	71.7773	84.4331	71.7773	84.6242	71.7773	84.4585	71.7773	84.6681	71.7773	84.4766	71.7773	84.6999	71.7773	84.4856	71.7773	84.717	71.7773	84.4857	71.7773	84.7179	71.7773	84.4782	71.7773	84.703	71.7773	84.4661	71.7773	84.6743	71.7773	84.4535	71.7773	84.6356	71.7773	84.4449	71.7773	84.5915	71.7773	84.4441	71.7773	84.5471	71.7773	84.4539	71.7773	84.5071	71.7773	84.4752
74.707	84.5746	74.707	84.5713	74.707	84.5919	74.707	84.5812	74.707	84.6227	74.707	84.6025	74.707	84.6651	74.707	84.6325	74.707	84.7165	74.707	84.6677	74.707	84.773	74.707	84.7042	74.707	84.8302	74.707	84.738	74.707	84.8833	74.707	84.7654	74.707	84.9277	74.707	84.7833	74.707	84.9594	74.707	84.7899	74.707	84.9754	74.707	84.7851	74.707	84.9743	74.707	84.7703	74.707	84.9563	74.707	84.7488	74.707	84.9238	74.707	84.7254	74.707	84.8806	74.707	84.7055	74.707	84.832	74.707	84.6942	74.707	84.784	74.707	84.6957	74.707	84.7424	74.707	84.712
77.6367	84.7923	77.6367	84.7931	77.6367	84.8045	77.6367	84.8062	77.6367	84.8292	77.6367	84.8297	77.6367	84.8652	77.6367	84.8609	77.6367	84.9097	77.6367	84.8963	77.6367	84.9591	77.6367	84.9321	77.6367	85.0093	77.6367	84.9638	77.6367	85.0553	77.6367	84.9876	77.6367	85.0925	77.6367	85	77.6367	85.1167	77.6367	84.9989	77.6367	85.1248	77.6367	84.9838	77.6367	85.1151	77.6367	84.9561	77.6367	85.088	77.6367	84.9193	77.6367	85.0457	77.6367	84.8789	77.6367	84.9928	77.6367	84.8415	77.6367	84.9356	77.6367	84.8141	77.6367	84.8815	77.6367	84.8025	77.6367	84.8377	77.6367	84.8103
79.1016	84.9279	79.1016	84.9333	79.1016	84.9344	79.1016	84.9496	79.1016	84.9524	79.1016	84.9749	79.1016	84.981	79.1016	85.0064	79.1016	85.0177	79.1016	85.0408	79.1016	85.0594	79.1016	85.074	79.1016	85.1021	79.1016	85.102	79.1016	85.1413	79.1016	85.1206	79.1016	85.1726	79.1016	85.1268	79.1016	85.1918	79.1016	85.1182	79.1016	85.1957	79.1016	85.0946	79.1016	85.1823	79.1016	85.0575	79.1016	85.1516	79.1016	85.0107	79.1016	85.1056	79.1016	84.9601	79.1016	85.0489	79.1016	84.9128	79.1016	84.9882	79.1016	84.8767	79.1016	84.9315	79.1016	84.8582	79.1016	84.8872	79.1016	84.8616
82.0312	85.2756	82.0312	85.2839	82.0312	85.2762	82.0312	85.3	82.0312	85.2854	82.0312	85.3222	82.0312	85.3024	82.0312	85.348	82.0312	85.3251	82.0312	85.374	82.0312	85.3507	82.0312	85.3963	82.0312	85.3756	82.0312	85.4111	82.0312	85.396	82.0312	85.4144	82.0312	85.4076	82.0312	85.4029	82.0312	85.4068	82.0312	85.3747	82.0312	85.3904	82.0312	85.3297	82.0312	85.3571	82.0312	85.2698	82.0312	85.307	82.0312	85.1996	82.0312	85.2429	82.0312	85.126	82.0312	85.1704	82.0312	85.0574	82.0312	85.0973	82.0312	85.0028	82.0312	85.0328	82.0312	84.9699	82.0312	84.986	82.0312	84.964
84.9609	85.5336	84.9609	85.5478	84.9609	85.5262	84.9609	85.5678	84.9609	85.5258	84.9609	85.5916	84.9609	85.5315	84.9609	85.6165	84.9609	85.5414	84.9609	85.6392	84.9609	85.553	84.9609	85.6558	84.9609	85.5629	84.9609	85.6623	84.9609	85.5673	84.9609	85.655	84.9609	85.5623	84.9609	85.6308	84.9609	85.5445	84.9609	85.5877	84.9609	85.5112	84.9609	85.5255	84.9609	85.4615	84.9609	85.4466	84.9609	85.3964	84.9609	85.3557	84.9609	85.3195	84.9609	85.2606	84.9609	85.237	84.9609	85.1707	84.9609	85.1574	84.9609	85.0968	84.9609	85.0905	84.9609	85.048	84.9609	85.0457	84.9609	85.0304
87.8906	85.5935	87.8906	85.6092	87.8906	85.5859	87.8906	85.6317	87.8906	85.5865	87.8906	85.6592	87.8906	85.5947	87.8906	85.6886	87.8906	85.6086	87.8906	85.7163	87.8906	85.6256	87.8906	85.738	87.8906	85.6422	87.8906	85.7492	87.8906	85.6541	87.8906	85.7455	87.8906	85.6568	87.8906	85.7233	87.8906	85.6461	87.8906	85.6801	87.8906	85.6186	87.8906	85.6158	87.8906	85.5725	87.8906	85.5327	87.8906	85.5083	87.8906	85.4365	87.8906	85.4292	87.8906	85.3358	87.8906	85.3415	87.8906	85.2413	87.8906	85.2542	87.8906	85.1648	87.8906	85.1782	87.8906	85.1164	87.8906	85.1248	87.8906	85.1027
90.8203	85.7479	90.8203	85.7649	90.8203	85.7377	90.8203	85.788	90.8203	85.7344	90.8203	85.8153	90.8203	85.7376	90.8203	85.8446	90.8203	85.7459	90.8203	85.8725	90.8203	85.7572	90.8203	85.8951	90.8203	85.7686	90.8203	85.9081	90.8203	85.7768	90.8203	85.9071	90.8203	85.778	90.8203	85.8882	90.8203	85.7684	90.8203	85.849	90.8203	85.7448	90.8203	85.7888	90.8203	85.7051	90.8203	85.7099	90.8203	85.6491	90.8203	85.6174	90.8203	85.5793	90.8203	85.5198	90.8203	85.501	90.8203	85.4277	90.8203	85.4224	90.8203	85.3524	90.8203	85.354	90.8203	85.3038	90.8203	85.3063	90.8203	85.2881
95.2148	85.8823	95.2148	85.9017	95.2148	85.8654	95.2148	85.9231	95.2148	85.851	95.2148	85.9455	95.2148	85.8384	95.2148	85.9672	95.2148	85.8266	95.2148	85.9856	95.2148	85.8141	95.2148	85.9974	95.2148	85.7987	95.2148	85.9988	95.2148	85.778	95.2148	85.9859	95.2148	85.7494	95.2148	85.9549	95.2148	85.7105	95.2148	85.9033	95.2148	85.6598	95.2148	85.8304	95.2148	85.5968	95.2148	85.7378	95.2148	85.5232	95.2148	85.6306	95.2148	85.4428	95.2148	85.5165	95.2148	85.3617	95.2148	85.4063	95.2148	85.2884	95.2148	85.3111	95.2148	85.2321	95.2148	85.2414	95.2148	85.2019	95.2148	85.2041
98.1445	86.1682	98.1445	86.1827	98.1445	86.1524	98.1445	86.1958	98.1445	86.1347	98.1445	86.2069	98.1445	86.1139	98.1445	86.2144	98.1445	86.0885	98.1445	86.2159	98.1445	86.0567	98.1445	86.2082	98.1445	86.0164	98.1445	86.1875	98.1445	85.9657	98.1445	86.1497	98.1445	85.9027	98.1445	86.0912	98.1445	85.8262	98.1445	86.0094	98.1445	85.7357	98.1445	85.9036	98.1445	85.6323	98.1445	85.7761	98.1445	85.5191	98.1445	85.6327	98.1445	85.4014	98.1445	85.4828	98.1445	85.2872	98.1445	85.339	98.1445	85.1868	98.1445	85.2152	98.1445	85.1115	98.1445	85.1242	98.1445	85.0718	98.1445	85.0752
101.074	86.2558	101.074	86.2751	101.074	86.2317	101.074	86.29	101.074	86.2018	101.074	86.3003	101.074	86.1648	101.074	86.305	101.074	86.1194	101.074	86.3019	101.074	86.0641	101.074	86.2881	101.074	85.9972	101.074	86.2596	101.074	85.9174	101.074	86.2118	101.074	85.8233	101.074	86.1401	101.074	85.714	101.074	86.0407	101.074	85.5893	101.074	85.9118	101.074	85.4504	101.074	85.7543	101.074	85.3012	101.074	85.5733	101.074	85.1487	101.074	85.3786	101.074	85.0037	101.074	85.1848	101.074	84.8804	101.074	85.0096	101.074	84.7945	101.074	84.8714	101.074	84.76	101.074	84.7854
105.469	86.1504	105.469	86.1451	105.469	86.1595	105.469	86.1423	105.469	86.173	105.469	86.1394	105.469	86.1902	105.469	86.1333	105.469	86.2093	105.469	86.1201	105.469	86.2271	105.469	86.0957	105.469	86.2398	105.469	86.0559	105.469	86.2426	105.469	85.9975	105.469	86.2303	105.469	85.9184	105.469	86.1977	105.469	85.8188	105.469	86.1404	105.469	85.7016	105.469	86.0556	105.469	85.5729	105.469	85.9432	105.469	85.4419	105.469	85.8069	105.469	85.3204	105.469	85.6549	105.469	85.2212	105.469	85.4995	105.469	85.1565	105.469	85.356	105.469	85.1359	105.469	85.2399	105.469	85.1641
108.398	86.5376	108.398	86.5378	108.398	86.5339	108.398	86.5342	108.398	86.5264	108.398	86.5264	108.398	86.5146	108.398	86.513	108.398	86.4972	108.398	86.4922	108.398	86.4722	108.398	86.4611	108.398	86.4366	108.398	86.4161	108.398	86.3868	108.398	86.3537	108.398	86.3195	108.398	86.2708	108.398	86.2321	108.398	86.1654	108.398	86.124	108.398	86.0382	108.398	85.9969	108.398	85.8929	108.398	85.8551	108.398	85.7367	108.398	85.7057	108.398	85.5806	108.398	85.5582	108.398	85.4382	108.398	85.4245	108.398	85.3236	108.398	85.3167	108.398	85.2492	108.398	85.2467	108.398	85.2229
112.793	86.809	112.793	86.8177	112.793	86.7887	112.793	86.8148	112.793	86.7572	112.793	86.8002	112.793	86.7153	112.793	86.7739	112.793	86.6636	112.793	86.7357	112.793	86.6027	112.793	86.6848	112.793	86.5327	112.793	86.6199	112.793	86.4527	112.793	86.5392	112.793	86.3612	112.793	86.4406	112.793	86.2561	112.793	86.3227	112.793	86.1353	112.793	86.1852	112.793	85.9986	112.793	86.0304	112.793	85.8482	112.793	85.8634	112.793	85.6906	112.793	85.6931	112.793	85.5365	112.793	85.5315	112.793	85.4002	112.793	85.3928	112.793	85.2971	112.793	85.2912	112.793	85.2406	112.793	85.2383
117.188	86.531	117.188	86.5292	117.188	86.526	117.188	86.522	117.188	86.5127	117.188	86.5104	117.188	86.4896	117.188	86.4947	117.188	86.4554	117.188	86.4743	117.188	86.4089	117.188	86.448	117.188	86.3491	117.188	86.4134	117.188	86.275	117.188	86.3678	117.188	86.1859	117.188	86.3079	117.188	86.0813	117.188	86.2305	117.188	85.9616	117.188	86.1337	117.188	85.8291	117.188	86.0168	117.188	85.6884	117.188	85.8821	117.188	85.5475	117.188	85.7353	117.188	85.4177	117.188	85.5857	117.188	85.3122	117.188	85.4462	117.188	85.2442	117.188	85.3309	117.188	85.2234	117.188	85.2534
120.117	86.5568	120.117	86.5338	120.117	86.568	120.117	86.5013	120.117	86.5655	120.117	86.4613	120.117	86.5476	120.117	86.4155	120.117	86.5132	120.117	86.3647	120.117	86.4617	120.117	86.3092	120.117	86.393	120.117	86.2484	120.117	86.3073	120.117	86.1813	120.117	86.2055	120.117	86.1066	120.117	86.0885	120.117	86.0233	120.117	85.9586	120.117	85.9305	120.117	85.8193	120.117	85.8286	120.117	85.6763	120.117	85.7191	120.117	85.5381	120.117	85.6054	120.117	85.4149	120.117	85.4933	120.117	85.3176	120.117	85.3906	120.117	85.2551	120.117	85.3069	120.117	85.2331	120.117	85.2518
124.512	86.8991	124.512	86.8458	124.512	86.9351	124.512	86.7758	124.512	86.9532	124.512	86.6898	124.512	86.9528	124.512	86.5889	124.512	86.9328	124.512	86.4744	124.512	86.8921	124.512	86.3482	124.512	86.8293	124.512	86.2125	124.512	86.743	124.512	86.0701	124.512	86.632	124.512	85.9239	124.512	86.4958	124.512	85.7768	124.512	86.3351	124.512	85.6321	124.512	86.1523	124.512	85.4928	124.512	85.9529	124.512	85.3625	124.512	85.7456	124.512	85.2452	124.512	85.5425	124.512	85.1467	124.512	85.3582	124.512	85.0744	124.512	85.207	124.512	85.0373	124.512	85.1004	124.512	85.0441
128.906	86.8141	128.906	86.7654	128.906	86.8461	128.906	86.6992	128.906	86.8623	128.906	86.615	128.906	86.8629	128.906	86.5123	128.906	86.8479	128.906	86.3912	128.906	86.8163	128.906	86.2522	128.906	86.7666	128.906	86.0964	128.906	86.6965	128.906	85.9264	128.906	86.6036	128.906	85.7462	128.906	86.4862	128.906	85.5623	128.906	86.3436	128.906	85.3826	128.906	86.1771	128.906	85.2165	128.906	85.9904	128.906	85.0736	128.906	85.79	128.906	84.9623	128.906	85.5849	128.906	84.8897	128.906	85.3862	128.906	84.8609	128.906	85.2061	128.906	84.8791	128.906	85.0559	128.906	84.9449
133.301	86.903	133.301	86.9057	133.301	86.8794	133.301	86.886	133.301	86.8372	133.301	86.8434	133.301	86.7793	133.301	86.7781	133.301	86.7086	133.301	86.6907	133.301	86.6276	133.301	86.5822	133.301	86.5381	133.301	86.4538	133.301	86.4405	133.301	86.3069	133.301	86.334	133.301	86.1437	133.301	86.2175	133.301	85.9682	133.301	86.0898	133.301	85.7865	133.301	85.9507	133.301	85.607	133.301	85.8024	133.301	85.4397	133.301	85.6495	133.301	85.295	133.301	85.4989	133.301	85.1822	133.301	85.3591	133.301	85.1086	133.301	85.2392	133.301	85.0783	133.301	85.1477	133.301	85.0923
139.16	86.6488	139.16	86.6577	139.16	86.6177	139.16	86.6452	139.16	86.5646	139.16	86.6128	139.16	86.4907	139.16	86.5624	139.16	86.3984	139.16	86.4961	139.16	86.2906	139.16	86.4154	139.16	86.1707	139.16	86.3215	139.16	86.042	139.16	86.2148	139.16	85.9079	139.16	86.0957	139.16	85.7714	139.16	85.9652	139.16	85.6361	139.16	85.8256	139.16	85.5058	139.16	85.6811	139.16	85.3851	139.16	85.5383	139.16	85.2788	139.16	85.4047	139.16	85.1913	139.16	85.288	139.16	85.1263	139.16	85.1938	139.16	85.0862	139.16	85.1258	139.16	85.0723	139.16	85.0854
143.555	86.6967	143.555	86.6234	143.555	86.7409	143.555	86.5229	143.555	86.7557	143.555	86.3983	143.555	86.7421	143.555	86.2547	143.555	86.7017	143.555	86.0981	143.555	86.6368	143.555	85.9357	143.555	86.5495	143.555	85.7744	143.555	86.4422	143.555	85.6208	143.555	86.3168	143.555	85.48	143.555	86.1754	143.555	85.3552	143.555	86.021	143.555	85.2475	143.555	85.8577	143.555	85.1572	143.555	85.6916	143.555	85.084	143.555	85.53	143.555	85.0284	143.555	85.3809	143.555	84.9914	143.555	85.2509	143.555	84.9748	143.555	85.1448	143.555	84.9804	143.555	85.0644	143.555	85.0098
147.949	87.0729	147.949	87.054	147.949	87.0507	147.949	86.9918	147.949	86.9907	147.949	86.8854	147.949	86.8971	147.949	86.7357	147.949	86.775	147.949	86.5458	147.949	86.6298	147.949	86.3216	147.949	86.4667	147.949	86.0717	147.949	86.2909	147.949	85.8078	147.949	86.1066	147.949	85.5437	147.949	85.9173	147.949	85.2942	147.949	85.7262	147.949	85.0727	147.949	85.537	147.949	84.8897	147.949	85.354	147.949	84.7508	147.949	85.1828	147.949	84.6568	147.949	85.0291	147.949	84.6046	147.949	84.8972	147.949	84.5887	147.949	84.7893	147.949	84.603	147.949	84.7048	147.949	84.6426
153.809	87.0155	153.809	87.0351	153.809	86.9565	153.809	87.0147	153.809	86.8588	153.809	86.9535	153.809	86.7233	153.809	86.8506	153.809	86.5519	153.809	86.7055	153.809	86.3485	153.809	86.5188	153.809	86.1191	153.809	86.2934	153.809	85.8729	153.809	86.0355	153.809	85.6206	153.809	85.7551	153.809	85.3736	153.809	85.4666	153.809	85.1409	153.809	85.1864	153.809	84.9281	153.809	84.9303	153.809	84.7369	153.809	84.7097	153.809	84.5678	153.809	84.5294	153.809	84.4226	153.809	84.3886	153.809	84.306	153.809	84.284	153.809	84.2239	153.809	84.2136	153.809	84.181	153.809	84.1783
159.668	87.1359	159.668	87.13	159.668	87.1089	159.668	87.0924	159.668	87.0475	159.668	87.0239	159.668	86.9501	159.668	86.9247	159.668	86.8149	159.668	86.7945	159.668	86.6411	159.668	86.6328	159.668	86.4288	159.668	86.4404	159.668	86.1813	159.668	86.2199	159.668	85.9063	159.668	85.9778	159.668	85.6166	159.668	85.7253	159.668	85.33	159.668	85.4772	159.668	85.066	159.668	85.2498	159.668	84.842	159.668	85.0559	159.668	84.6697	159.668	84.9011	159.668	84.5536	159.668	84.7818	159.668	84.4917	159.668	84.6888	159.668	84.4774	159.668	84.6123	159.668	84.5001	159.668	84.5482
165.527	86.8871	165.527	86.8598	165.527	86.8795	165.527	86.8015	165.527	86.8331	165.527	86.716	165.527	86.7446	165.527	86.6065	165.527	86.6114	165.527	86.4747	165.527	86.4325	165.527	86.3216	165.527	86.2089	165.527	86.1472	165.527	85.9457	165.527	85.9521	165.527	85.6533	165.527	85.7389	165.527	85.3483	165.527	85.5138	165.527	85.0532	165.527	85.2873	165.527	84.7924	165.527	85.0732	165.527	84.5859	165.527	84.8856	165.527	84.4441	165.527	84.7343	165.527	84.3655	165.527	84.621	165.527	84.3393	165.527	84.5393	165.527	84.3503	165.527	84.478	165.527	84.3833	165.527	84.4272
171.387	86.6345	171.387	86.5084	171.387	86.7239	171.387	86.3488	171.387	86.7736	171.387	86.1596	171.387	86.7803	171.387	85.9457	171.387	86.7397	171.387	85.714	171.387	86.6468	171.387	85.4734	171.387	86.4957	171.387	85.2351	171.387	86.2816	171.387	85.012	171.387	86.0035	171.387	84.8172	171.387	85.6683	171.387	84.6609	171.387	85.2954	171.387	84.5481	171.387	84.9171	171.387	84.4763	171.387	84.5749	171.387	84.4359	171.387	84.3073	171.387	84.4114	171.387	84.1368	171.387	84.386	171.387	84.0636	171.387	84.3456	171.387	84.069	171.387	84.2838	171.387	84.1257	171.387	84.2053
177.246	86.7161	177.246	86.6838	177.246	86.6984	177.246	86.5965	177.246	86.6376	177.246	86.451	177.246	86.5424	177.246	86.2461	177.246	86.4224	177.246	85.9834	177.246	86.2877	177.246	85.6681	177.246	86.1458	177.246	85.3107	177.246	86.0007	177.246	84.9285	177.246	85.8514	177.246	84.5482	177.246	85.6943	177.246	84.2049	177.246	85.5274	177.246	83.938	177.246	85.3542	177.246	83.7806	177.246	85.1859	177.246	83.7471	177.246	85.0365	177.246	83.8255	177.246	84.9159	177.246	83.9821	177.246	84.8217	177.246	84.174	177.246	84.7388	177.246	84.3627	177.246	84.6455	177.246	84.5227
183.105	86.7479	183.105	86.752	183.105	86.6883	183.105	86.7009	183.105	86.5721	183.105	86.5936	183.105	86.3982	183.105	86.4288	183.105	86.1676	183.105	86.2053	183.105	85.8847	183.105	85.9245	183.105	85.5597	183.105	85.5921	183.105	85.209	183.105	85.221	183.105	84.855	183.105	84.8328	183.105	84.5241	183.105	84.4584	183.105	84.2435	183.105	84.1346	183.105	84.0366	183.105	83.8952	183.105	83.9168	183.105	83.7603	183.105	83.8814	183.105	83.7276	183.105	83.9098	183.105	83.7734	183.105	83.9686	183.105	83.8612	183.105	84.0225	183.105	83.9534	183.105	84.0441	183.105	84.0202
188.965	86.7619	188.965	86.736	188.965	86.7347	188.965	86.6611	188.965	86.6487	188.965	86.5394	188.965	86.497	188.965	86.3715	188.965	86.2729	188.965	86.1573	188.965	85.9716	188.965	85.8973	188.965	85.5929	188.965	85.5947	188.965	85.1445	188.965	85.2577	188.965	84.6442	188.965	84.9022	188.965	84.1229	188.965	84.5514	188.965	83.6241	188.965	84.2327	188.965	83.1996	188.965	83.9704	188.965	82.8977	188.965	83.777	188.965	82.7468	188.965	83.6478	188.965	82.7417	188.965	83.5628	188.965	82.845	188.965	83.4947	188.965	83.0036	188.965	83.4169	188.965	83.1692	188.965	83.3106
196.289	87.0134	196.289	86.9776	196.289	86.9968	196.289	86.8884	196.289	86.9283	196.289	86.7439	196.289	86.8071	196.289	86.542	196.289	86.6312	196.289	86.2807	196.289	86.3972	196.289	85.9594	196.289	86.1012	196.289	85.5811	196.289	85.7406	196.289	85.1564	196.289	85.3166	196.289	84.7073	196.289	84.8392	196.289	84.2696	196.289	84.3325	196.289	83.8899	196.289	83.84	196.289	83.612	196.289	83.4229	196.289	83.4576	196.289	83.1419	196.289	83.4133	196.289	83.0271	196.289	83.4353	196.289	83.0578	196.289	83.4698	196.289	83.1751	196.289	83.4726	196.289	83.3125	196.289	83.4201
203.613	86.9115	203.613	86.7978	203.613	86.9641	203.613	86.6247	203.613	86.9534	203.613	86.3945	203.613	86.876	203.613	86.1105	203.613	86.7272	203.613	85.7781	203.613	86.5021	203.613	85.4054	203.613	86.1971	203.613	85.0047	203.613	85.8133	203.613	84.5939	203.613	85.3598	203.613	84.1986	203.613	84.8573	203.613	83.8512	203.613	84.3397	203.613	83.5853	203.613	83.8518	203.613	83.4228	203.613	83.4425	203.613	83.3605	203.613	83.152	203.613	83.3672	203.613	82.9977	203.613	83.3949	203.613	82.9686	203.613	83.3995	203.613	83.0313	203.613	83.3557	203.613	83.1436	203.613	83.2633
210.938	87.0696	210.938	86.9584	210.938	87.1345	210.938	86.7962	210.938	87.1528	210.938	86.5735	210.938	87.1193	210.938	86.2776	210.938	87.0247	210.938	85.8949	210.938	86.8577	210.938	85.4144	210.938	86.6067	210.938	84.8339	210.938	86.2638	210.938	84.1684	210.938	85.8284	210.938	83.4631	210.938	85.3125	210.938	82.8036	210.938	84.7463	210.938	82.3084	210.938	84.1815	210.938	82.0831	210.938	83.687	210.938	82.1502	210.938	83.3306	210.938	82.427	210.938	83.1488	210.938	82.7787	210.938	83.1262	210.938	83.0869	210.938	83.2032	210.938	83.2821	210.938	83.301	210.938	83.3456
218.262	86.8396	218.262	86.8257	218.262	86.8027	218.262	86.7562	218.262	86.7181	218.262	86.6248	218.262	86.5877	218.262	86.4237	218.262	86.4118	218.262	86.1436	218.262	86.1895	218.262	85.7758	218.262	85.9196	218.262	85.3155	218.262	85.6021	218.262	84.7674	218.262	85.2395	218.262	84.1538	218.262	84.8383	218.262	83.5218	218.262	84.4114	218.262	82.9462	218.262	83.9821	218.262	82.5146	218.262	83.5868	218.262	82.2922	218.262	83.2707	218.262	82.2839	218.262	83.07	218.262	82.4298	218.262	82.9866	218.262	82.6385	218.262	82.9805	218.262	82.8271	218.262	82.9867	218.262	82.946
225.586	87.3872	225.586	87.4103	225.586	87.3018	225.586	87.3686	225.586	87.1556	225.586	87.2586	225.586	86.9484	225.586	87.0751	225.586	86.6771	225.586	86.8104	225.586	86.3347	225.586	86.4551	225.586	85.9127	225.586	86.0004	225.586	85.4075	225.586	85.444	225.586	84.8304	225.586	84.801	225.586	84.2206	225.586	84.1184	225.586	83.6502	225.586	83.4865	225.586	83.2105	225.586	83.0258	225.586	82.972	225.586	82.8294	225.586	82.9447	225.586	82.8951	225.586	83.0754	225.586	83.1232	225.586	83.2821	225.586	83.3851	225.586	83.4867	225.586	83.583	225.586	83.6287	225.586	83.6673
232.91	87.7017	232.91	87.6931	232.91	87.6376	232.91	87.6115	232.91	87.5007	232.91	87.4565	232.91	87.2906	232.91	87.2272	232.91	87.0058	232.91	86.922	232.91	86.6423	232.91	86.539	232.91	86.1934	232.91	86.0767	232.91	85.6524	232.91	85.5366	232.91	85.0191	232.91	84.9275	232.91	84.3143	232.91	84.2745	232.91	83.597	232.91	83.6287	232.91	82.9745	232.91	83.0705	232.91	82.5782	232.91	82.6919	232.91	82.488	232.91	82.5537	232.91	82.6635	232.91	82.6454	232.91	82.965	232.91	82.8844	232.91	83.2384	232.91	83.1532	232.91	83.3777	232.91	83.3421
241.699	87.6637	241.699	87.5449	241.699	87.7397	241.699	87.3801	241.699	87.7694	241.699	87.161	241.699	87.7428	241.699	86.876	241.699	87.6436	241.699	86.512	241.699	87.4501	241.699	86.0586	241.699	87.1362	241.699	85.5139	241.699	86.6735	241.699	84.8933	241.699	86.0348	241.699	84.2414	241.699	85.2039	241.699	83.6411	241.699	84.1978	241.699	83.2023	241.699	83.1067	241.699	83.0106	241.699	82.1392	241.699	83.0617	241.699	81.5823	241.699	83.255	241.699	81.5832	241.699	83.4585	241.699	81.9913	241.699	83.5723	241.699	82.5318	241.699	83.5451	241.699	83.0145	241.699	83.3593
250.488	87.3224	250.488	87.2243	250.488	87.3747	250.488	87.0741	250.488	87.3831	250.488	86.8615	250.488	87.3443	250.488	86.5733	250.488	87.2493	250.488	86.1937	250.488	87.0836	250.488	85.7065	250.488	86.8293	250.488	85.0995	250.488	86.4675	250.488	84.3724	250.488	85.9811	250.488	83.5519	250.488	85.361	250.488	82.7119	250.488	84.6139	250.488	81.9849	250.488	83.7789	250.488	81.5288	250.488	82.9474	250.488	81.4305	250.488	82.2664	250.488	81.6299	250.488	81.8842	250.488	81.9654	250.488	81.8423	250.488	82.2753	250.488	82.0335	250.488	82.452	250.488	82.284	250.488	82.4499
259.277	88.5061	259.277	88.4487	259.277	88.4905	259.277	88.3168	259.277	88.4003	259.277	88.1035	259.277	88.2315	259.277	87.7962	259.277	87.9797	259.277	87.3761	259.277	87.6391	259.277	86.8211	259.277	87.2013	259.277	86.111	259.277	86.6536	259.277	85.2378	259.277	85.9818	259.277	84.2265	259.277	85.1828	259.277	83.1732	259.277	84.2885	259.277	82.2861	259.277	83.401	259.277	81.8427	259.277	82.7084	259.277	81.971	259.277	82.4107	259.277	82.497	259.277	82.5573	259.277	83.1249	259.277	82.9902	259.277	83.6444	259.277	83.4805	259.277	83.9564	259.277	83.8565	259.277	84.0269
268.066	88.0563	268.066	88.0264	268.066	88.0227	268.066	87.9212	268.066	87.9377	268.066	87.7293	268.066	87.8119	268.066	87.4377	268.066	87.6507	268.066	87.03	268.066	87.4487	268.066	86.4846	268.066	87.1858	268.066	85.774	268.066	86.8272	268.066	84.8669	268.066	86.3282	268.066	83.74	268.066	85.6437	268.066	82.4119	268.066	84.7448	268.066	81.0275	268.066	83.6472	268.066	79.9762	268.066	82.4655	268.066	79.7524	268.066	81.469	268.066	80.3535	268.066	81.0024	268.066	81.2512	268.066	81.1619	268.066	82.0009	268.066	81.6707	268.066	82.4167	268.066	82.1782	268.066	82.4628
276.855	87.7569	276.855	87.7584	276.855	87.7166	276.855	87.7287	276.855	87.6257	276.855	87.6652	276.855	87.4738	276.855	87.5505	276.855	87.2549	276.855	87.3516	276.855	86.9671	276.855	87.024	276.855	86.6097	276.855	86.5193	276.855	86.1775	276.855	85.7931	276.855	85.658	276.855	84.8131	276.855	85.0364	276.855	83.5769	276.855	84.3116	276.855	82.1589	276.855	83.5234	276.855	80.8088	276.855	82.7782	276.855	79.994	276.855	82.235	276.855	80.0402	276.855	82.0102	276.855	80.6866	276.855	82.0687	276.855	81.44	276.855	82.2477	276.855	82.0119	276.855	82.3718	276.855	82.317
287.109	88.0603	287.109	88.0726	287.109	88.0173	287.109	88.0542	287.109	87.9322	287.109	87.994	287.109	87.7838	287.109	87.8716	287.109	87.5462	287.109	87.6581	287.109	87.1958	287.109	87.3176	287.109	86.7189	287.109	86.8097	287.109	86.1122	287.109	86.0927	287.109	85.3745	287.109	85.1309	287.109	84.4927	287.109	83.9089	287.109	83.4427	287.109	82.4668	287.109	82.2341	287.109	80.9877	287.109	81.021	287.109	79.9056	287.109	80.2032	287.109	79.6999	287.109	80.171	287.109	80.2828	287.109	80.7654	287.109	81.1022	287.109	81.4732	287.109	81.7448	287.109	81.9425	287.109	82.0404
297.363	88.0778	297.363	88.0856	297.363	88.0813	297.363	88.1055	297.363	88.0859	297.363	88.1294	297.363	88.0694	297.363	88.1367	297.363	87.9939	297.363	88.0908	297.363	87.8056	297.363	87.9397	297.363	87.442	297.363	87.6214	297.363	86.8438	297.363	87.0736	297.363	85.97	297.363	86.2456	297.363	84.8126	297.363	85.1177	297.363	83.4107	297.363	83.7328	297.363	81.8641	297.363	82.2405	297.363	80.35	297.363	80.9179	297.363	79.1415	297.363	80.0672	297.363	78.541	297.363	79.7787	297.363	78.6224	297.363	79.8484	297.363	79.103	297.363	79.9706	297.363	79.612	297.363	79.9211
307.617	87.9015	307.617	87.8654	307.617	87.9521	307.617	87.816	307.617	88.0339	307.617	87.72	307.617	88.1502	307.617	87.5449	307.617	88.2879	307.617	87.264	307.617	88.4104	307.617	86.8558	307.617	88.4535	307.617	86.2974	307.617	88.3299	307.617	85.5561	307.617	87.9418	307.617	84.5826	307.617	87.1962	307.617	83.3205	307.617	86.0176	307.617	81.7592	307.617	84.3684	307.617	80.0821	307.617	82.3099	307.617	78.8627	307.617	80.1846	307.617	78.694	307.617	78.826	307.617	79.2936	307.617	78.8304	307.617	79.9829	307.617	79.5609	307.617	80.4218	307.617	80.2176	307.617	80.5128
319.336	86.8162	319.336	86.7232	319.336	86.8989	319.336	86.6488	319.336	86.9584	319.336	86.6235	319.336	86.9965	319.336	86.6536	319.336	87.0203	319.336	86.7009	319.336	87.033	319.336	86.6841	319.336	87.027	319.336	86.5038	319.336	86.9761	319.336	86.0705	319.336	86.8293	319.336	85.324	319.336	86.5118	319.336	84.2407	319.336	85.9342	319.336	82.8403	319.336	85.0099	319.336	81.2189	319.336	83.6773	319.336	79.6444	319.336	81.9563	319.336	78.6177	319.336	80.0943	319.336	78.4741	319.336	78.7304	319.336	78.8625	319.336	78.4209	319.336	79.1952	319.336	78.7992	319.336	79.1707
329.59	87.0512	329.59	87.153	329.59	86.97	329.59	87.2571	329.59	86.9165	329.59	87.3412	329.59	86.883	329.59	87.3844	329.59	86.8479	329.59	87.3677	329.59	86.7811	329.59	87.2698	329.59	86.6501	329.59	87.0611	329.59	86.4233	329.59	86.7001	329.59	86.0697	329.59	86.1333	329.59	85.5582	329.59	85.3049	329.59	84.8624	329.59	84.1813	329.59	83.9759	329.59	82.8027	329.59	82.9359	329.59	81.3645	329.59	81.8493	329.59	80.2505	329.59	80.8995	329.59	79.7817	329.59	80.2833	329.59	79.8404	329.59	80.0631	329.59	80.0434	329.59	80.0922	329.59	80.1363
341.309	87.5131	341.309	87.4961	341.309	87.4603	341.309	87.4158	341.309	87.3509	341.309	87.2935	341.309	87.2128	341.309	87.1537	341.309	87.0709	341.309	87.0094	341.309	86.9264	341.309	86.8495	341.309	86.7474	341.309	86.6346	341.309	86.4804	341.309	86.3048	341.309	86.0712	341.309	85.7932	341.309	85.4779	341.309	85.0422	341.309	84.6782	341.309	84.0324	341.309	83.6898	341.309	82.845	341.309	82.6198	341.309	81.7627	341.309	81.7195	341.309	81.2301	341.309	81.2984	341.309	81.406	341.309	81.429	341.309	81.9208	341.309	81.8567	341.309	82.3396	341.309	82.2681	341.309	82.4608
353.027	87.5405	353.027	87.5663	353.027	87.4943	353.027	87.5849	353.027	87.4183	353.027	87.6029	353.027	87.3173	353.027	87.6126	353.027	87.2129	353.027	87.5901	353.027	87.1273	353.027	87.4952	353.027	87.0541	353.027	87.2745	353.027	86.9387	353.027	86.8656	353.027	86.6881	353.027	86.2066	353.027	86.2014	353.027	85.2528	353.027	85.3958	353.027	84.0088	353.027	84.2264	353.027	82.5878	353.027	82.7297	353.027	81.2872	353.027	81.1506	353.027	80.5251	353.027	80.081	353.027	80.4632	353.027	80.0119	353.027	80.8127	353.027	80.5742	353.027	81.1815	353.027	81.1102	353.027	81.3197
366.211	86.8945	366.211	86.7652	366.211	86.9785	366.211	86.5984	366.211	87.024	366.211	86.4172	366.211	87.045	366.211	86.2453	366.211	87.0512	366.211	86.0836	366.211	87.0355	366.211	85.8945	366.211	86.9681	366.211	85.6125	366.211	86.8039	366.211	85.1741	366.211	86.4985	366.211	84.5381	366.211	86.0164	366.211	83.686	366.211	85.3241	366.211	82.6105	366.211	84.3816	366.211	81.336	366.211	83.16	366.211	80.0206	366.211	81.7065	366.211	79.079	366.211	80.2559	366.211	78.9059	366.211	79.2572	366.211	79.2725	366.211	79.0188	366.211	79.6077	366.211	79.2995	366.211	79.6039
379.395	87.3016	379.395	87.26	379.395	87.3022	379.395	87.1838	379.395	87.2586	379.395	87.0829	379.395	87.1696	379.395	86.966	379.395	87.0396	379.395	86.8316	379.395	86.8828	379.395	86.6589	379.395	86.7134	379.395	86.4033	379.395	86.5124	379.395	86.0019	379.395	86.2	379.395	85.3869	379.395	85.6511	379.395	84.5026	379.395	84.7464	379.395	83.3327	379.395	83.4329	379.395	81.9493	379.395	81.807	379.395	80.5853	379.395	80.2439	379.395	79.6333	379.395	79.3682	379.395	79.3759	379.395	79.4265	379.395	79.6704	379.395	79.9335	379.395	80.1216	379.395	80.3387	379.395	80.4012
392.578	86.7263	392.578	86.676	392.578	86.7806	392.578	86.6273	392.578	86.8444	392.578	86.5832	392.578	86.9201	392.578	86.5473	392.578	87.005	392.578	86.5106	392.578	87.0908	392.578	86.4389	392.578	87.1612	392.578	86.2678	392.578	87.1835	392.578	85.913	392.578	87.1022	392.578	85.2899	392.578	86.8428	392.578	84.3369	392.578	86.3232	392.578	83.0506	392.578	85.466	392.578	81.5656	392.578	84.2158	392.578	80.2726	392.578	82.5827	392.578	79.6663	392.578	80.7617	392.578	79.7285	392.578	79.3057	392.578	79.9494	392.578	78.8329	392.578	79.9593	392.578	79.1682	392.578	79.6663
405.762	86.2422	405.762	86.3558	405.762	86.0808	405.762	86.4497	405.762	85.8713	405.762	86.5606	405.762	85.6449	405.762	86.7089	405.762	85.4444	405.762	86.8793	405.762	85.2923	405.762	87.0218	405.762	85.1832	405.762	87.0631	405.762	85.1054	405.762	86.916	405.762	85.0363	405.762	86.4861	405.762	84.9048	405.762	85.6813	405.762	84.5935	405.762	84.4243	405.762	84.0171	405.762	82.6866	405.762	83.2205	405.762	80.6285	405.762	82.419	405.762	78.9544	405.762	81.88	405.762	78.7061	405.762	81.679	405.762	79.6109	405.762	81.656	405.762	80.6207	405.762	81.5878	405.762	81.2858
420.41	86.8804	420.41	86.7225	420.41	86.9457	420.41	86.4923	420.41	86.9266	420.41	86.2437	420.41	86.8517	420.41	86.0519	420.41	86.7626	420.41	85.9757	420.41	86.6916	420.41	86.0122	420.41	86.6215	420.41	86.0815	420.41	86.4658	420.41	86.0516	420.41	86.1002	420.41	85.78	420.41	85.4164	420.41	85.1477	420.41	84.3487	420.41	84.0917	420.41	82.8563	420.41	82.6661	420.41	80.8871	420.41	81.1439	420.41	78.4687	420.41	80.011	420.41	76.3355	420.41	79.5682	420.41	76.2653	420.41	79.6058	420.41	77.7557	420.41	79.7332	420.41	79.0245	420.41	79.6308
435.059	87.8832	435.059	87.7182	435.059	87.8623	435.059	87.3694	435.059	87.6773	435.059	86.8681	435.059	87.3659	435.059	86.2692	435.059	86.9872	435.059	85.6375	435.059	86.6372	435.059	85.0294	435.059	86.4315	435.059	84.4757	435.059	86.4191	435.059	83.9768	435.059	86.5043	435.059	83.5225	435.059	86.4898	435.059	83.1054	435.059	86.1842	435.059	82.6859	435.059	85.4636	435.059	82.1528	435.059	84.2864	435.059	81.3757	435.059	82.7122	435.059	80.3591	435.059	80.9658	435.059	79.3823	435.059	79.4894	435.059	78.8365	435.059	78.7167	435.059	78.7194	435.059	78.5935	435.059	78.6842
451.172	87.5913	451.172	87.5487	451.172	87.5746	451.172	87.4763	451.172	87.4878	451.172	87.4057	451.172	87.3465	451.172	87.3567	451.172	87.1804	451.172	87.3249	451.172	87.009	451.172	87.2702	451.172	86.8294	451.172	87.1154	451.172	86.6195	451.172	86.758	451.172	86.3452	451.172	86.0856	451.172	85.9689	451.172	85.0005	451.172	85.4665	451.172	83.5024	451.172	84.8454	451.172	81.9215	451.172	84.1487	451.172	81.1134	451.172	83.4531	451.172	81.5228	451.172	82.87	451.172	82.3897	451.172	82.5261	451.172	83.0002	451.172	82.4919	451.172	83.1746	451.172	82.7106	451.172	83.011
465.82	87.0857	465.82	86.9018	465.82	87.1628	465.82	86.6272	465.82	87.1165	465.82	86.304	465.82	86.9303	465.82	86.0196	465.82	86.6168	465.82	85.8797	465.82	86.2395	465.82	85.93	465.82	85.8803	465.82	86.0926	465.82	85.5588	465.82	86.1907	465.82	85.1845	465.82	86.036	465.82	84.6053	465.82	85.4951	465.82	83.6994	465.82	84.5133	465.82	82.4524	465.82	83.1385	465.82	81.0662	465.82	81.6335	465.82	80.1108	465.82	80.6511	465.82	80.1858	465.82	80.7757	465.82	81.03	465.82	81.5819	465.82	81.9298	465.82	82.3117	465.82	82.5017	465.82	82.6365
483.398	87.845	483.398	87.7687	483.398	87.79	483.398	87.5433	483.398	87.6468	483.398	87.1753	483.398	87.4652	483.398	86.6924	483.398	87.2704	483.398	86.1403	483.398	87.0543	483.398	85.5696	483.398	86.8097	483.398	84.9991	483.398	86.5539	483.398	84.3788	483.398	86.275	483.398	83.6036	483.398	85.8559	483.398	82.5817	483.398	85.0999	483.398	81.3212	483.398	83.8363	483.398	80.0314	483.398	82.0233	483.398	79.1581	483.398	79.908	483.398	79.067	483.398	78.3168	483.398	79.6081	483.398	78.2255	483.398	80.318	483.398	79.2272	483.398	80.8032	483.398	80.2631	483.398	80.82
499.512	86.9531	499.512	86.9532	499.512	86.8398	499.512	86.8654	499.512	86.6385	499.512	86.7461	499.512	86.4059	499.512	86.625	499.512	86.2022	499.512	86.4762	499.512	86.0662	499.512	86.2507	499.512	85.9895	499.512	85.9183	499.512	85.922	499.512	85.4603	499.512	85.8038	499.512	84.8326	499.512	85.5692	499.512	83.9509	499.512	85.1159	499.512	82.729	499.512	84.3067	499.512	81.2016	499.512	83.0525	499.512	79.7607	499.512	81.4771	499.512	79.1179	499.512	80.0934	499.512	79.3764	499.512	79.5231	499.512	79.8936	499.512	79.6898	499.512	80.226	499.512	80.0495	499.512	80.2683
517.09	87.0902	517.09	86.8851	517.09	87.1215	517.09	86.5137	517.09	86.9571	517.09	86.0247	517.09	86.5692	517.09	85.5723	517.09	85.9876	517.09	85.3615	517.09	85.3786	517.09	85.4463	517.09	85.0229	517.09	85.6486	517.09	85.0459	517.09	85.7238	517.09	85.2117	517.09	85.497	517.09	85.1648	517.09	84.848	517.09	84.6865	517.09	83.66	517.09	83.7048	517.09	81.8805	517.09	82.2498	517.09	79.8806	517.09	80.5969	517.09	78.9288	517.09	79.6311	517.09	79.6202	517.09	80.063	517.09	80.7431	517.09	81.0512	517.09	81.5276	517.09	81.7107	517.09	81.8555
536.133	87.5529	536.133	87.4036	536.133	87.5237	536.133	87.0785	536.133	87.3167	536.133	86.5702	536.133	86.9802	536.133	85.9071	536.133	86.6138	536.133	85.2209	536.133	86.2947	536.133	84.7484	536.133	86.0123	536.133	84.6191	536.133	85.7011	536.133	84.6139	536.133	85.3045	536.133	84.3506	536.133	84.7697	536.133	83.6051	536.133	84.0059	536.133	82.3808	536.133	82.8817	536.133	80.8686	536.133	81.2835	536.133	79.5312	536.133	79.2594	536.133	79.1674	536.133	77.4134	536.133	79.97	536.133	77.1423	536.133	81.0177	536.133	78.5599	536.133	81.5343	536.133	80.199	536.133	81.2609
555.176	86.9165	555.176	86.7873	555.176	86.8639	555.176	86.488	555.176	86.6607	555.176	86.0776	555.176	86.3201	555.176	85.6059	555.176	85.8334	555.176	85.0915	555.176	85.274	555.176	84.561	555.176	84.8689	555.176	84.074	555.176	84.8028	555.176	83.6732	555.176	84.9351	555.176	83.2965	555.176	84.9274	555.176	82.7506	555.176	84.5422	555.176	81.793	555.176	83.7293	555.176	80.2608	555.176	82.5498	555.176	78.3159	555.176	81.0583	555.176	77.1823	555.176	79.4227	555.176	78.2399	555.176	78.4641	555.176	79.9906	555.176	79.0136	555.176	81.0153	555.176	80.2347	555.176	81.0532
574.219	87.3554	574.219	87.2405	574.219	87.3142	574.219	86.9338	574.219	87.1437	574.219	86.4115	574.219	86.839	574.219	85.7295	574.219	86.3497	574.219	85.1245	574.219	85.6427	574.219	84.899	574.219	84.8272	574.219	85.009	574.219	84.1479	574.219	85.0798	574.219	83.7231	574.219	84.8174	574.219	83.4015	574.219	84.0661	574.219	82.9627	574.219	82.661	574.219	82.2204	574.219	80.5008	574.219	80.9992	574.219	78.1336	574.219	79.3462	574.219	77.3458	574.219	78.1709	574.219	78.4945	574.219	78.7233	574.219	80.0341	574.219	80.1331	574.219	81.1474	574.219	81.1858	574.219	81.5468
594.727	87.0538	594.727	86.9842	594.727	87.0572	594.727	86.8445	594.727	86.9173	594.727	86.5474	594.727	86.564	594.727	85.9743	594.727	85.9997	594.727	85.0374	594.727	85.2896	594.727	83.8415	594.727	84.5913	594.727	82.9071	594.727	84.2183	594.727	82.7195	594.727	84.3482	594.727	82.8301	594.727	84.6121	594.727	82.5021	594.727	84.438	594.727	81.4097	594.727	83.4764	594.727	79.6118	594.727	81.608	594.727	77.8557	594.727	78.9113	594.727	77.6404	594.727	76.1576	594.727	78.687	594.727	75.8103	594.727	79.5956	594.727	77.7437	594.727	80.0347	594.727	79.3568	594.727	80.0326
615.234	87.6155	615.234	87.451	615.234	87.4901	615.234	87.0287	615.234	87.1231	615.234	86.4514	615.234	86.5989	615.234	85.8483	615.234	85.9889	615.234	85.3121	615.234	85.3492	615.234	84.8384	615.234	84.7164	615.234	84.3871	615.234	84.0731	615.234	83.9963	615.234	83.4109	615.234	83.6636	615.234	82.8579	615.234	83.1784	615.234	82.5221	615.234	82.2483	615.234	82.1271	615.234	80.6099	615.234	81.1414	615.234	77.9712	615.234	79.2611	615.234	74.7916	615.234	77.0845	615.234	74.4617	615.234	76.4044	615.234	76.0986	615.234	76.9514	615.234	76.9039	615.234	77.2178	615.234	77.1259
637.207	87.7592	637.207	87.6559	637.207	87.6635	637.207	87.3387	637.207	87.4174	637.207	86.8241	637.207	87.0343	637.207	86.1099	637.207	86.4471	637.207	85.2438	637.207	85.5732	637.207	84.5007	637.207	84.4988	637.207	84.2254	637.207	83.6368	637.207	84.2704	637.207	83.4305	637.207	84.1147	637.207	83.661	637.207	83.3724	637.207	83.6806	637.207	81.8414	637.207	83.0394	637.207	79.489	637.207	81.5435	637.207	76.7642	637.207	79.2281	637.207	75.3153	637.207	76.7623	637.207	76.7019	637.207	76.0621	637.207	79.0946	637.207	77.5871	637.207	80.5828	637.207	79.497	637.207	80.6672
659.18	86.5863	659.18	86.4378	659.18	86.6988	659.18	86.2762	659.18	86.6697	659.18	86.0201	659.18	86.4356	659.18	85.6266	659.18	86.0161	659.18	85.1138	659.18	85.4831	659.18	84.429	659.18	84.9271	659.18	83.5687	659.18	84.414	659.18	82.8578	659.18	83.936	659.18	82.6423	659.18	83.4105	659.18	82.637	659.18	82.7296	659.18	82.2327	659.18	81.7656	659.18	81.022	659.18	80.3054	659.18	79.0063	659.18	78.0862	659.18	77.0838	659.18	75.3177	659.18	76.679	659.18	74.1771	659.18	77.3753	659.18	75.755	659.18	77.9856	659.18	77.3558	659.18	78.0546
682.617	87.7203	682.617	87.5373	682.617	87.568	682.617	87.076	682.617	87.1595	682.617	86.4793	682.617	86.6277	682.617	85.7926	682.617	86.0264	682.617	84.9611	682.617	85.2765	682.617	84.1414	682.617	84.3726	682.617	83.7317	682.617	83.6103	682.617	83.7397	682.617	83.3232	682.617	83.7199	682.617	83.4149	682.617	83.3519	682.617	83.5309	682.617	82.4074	682.617	83.3104	682.617	80.6085	682.617	82.4186	682.617	78.0876	682.617	80.5919	682.617	76.4161	682.617	77.8947	682.617	77.0446	682.617	76.1062	682.617	78.7398	682.617	77.4201	682.617	80.0978	682.617	79.4067	682.617	80.3859
707.52	87.3285	707.52	87.3582	707.52	87.2798	707.52	87.2877	707.52	87.1978	707.52	86.9334	707.52	86.9916	707.52	86.1519	707.52	86.5579	707.52	85.0434	707.52	85.8462	707.52	83.9358	707.52	84.827	707.52	83.1867	707.52	83.6448	707.52	83.0567	707.52	83.0214	707.52	83.3429	707.52	83.4062	707.52	83.3351	707.52	83.7542	707.52	82.4565	707.52	83.0657	707.52	80.5073	707.52	81.137	707.52	77.6361	707.52	78.3487	707.52	75.4479	707.52	75.6396	707.52	77.0691	707.52	75.2458	707.52	79.1966	707.52	77.4635	707.52	79.9349	707.52	79.2327	707.52	79.8868
732.422	87.6782	732.422	87.4769	732.422	87.6641	732.422	87.1037	732.422	87.4291	732.422	86.5683	732.422	87.0205	732.422	85.8322	732.422	86.4015	732.422	84.8597	732.422	85.4578	732.422	83.728	732.422	84.3753	732.422	82.6903	732.422	83.7151	732.422	82.0351	732.422	83.4095	732.422	81.7744	732.422	82.8825	732.422	81.5427	732.422	82.2775	732.422	80.8985	732.422	81.8931	732.422	79.5654	732.422	81.1787	732.422	77.3464	732.422	79.4648	732.422	74.8487	732.422	76.8606	732.422	75.1442	732.422	75.8181	732.422	77.1245	732.422	77.282	732.422	78.452	732.422	78.457	732.422	78.8293
757.324	87.7752	757.324	87.5701	757.324	87.7941	757.324	87.2709	757.324	87.5934	757.324	86.8608	757.324	87.2893	757.324	86.2794	757.324	86.9339	757.324	85.5449	757.324	86.3075	757.324	84.6632	757.324	85.2002	757.324	83.6827	757.324	83.8133	757.324	83.0736	757.324	82.7306	757.324	83.1405	757.324	82.312	757.324	83.0828	757.324	82.2906	757.324	82.0747	757.324	82.1572	757.324	79.9169	757.324	81.3512	757.324	77.3172	757.324	79.4959	757.324	75.9993	757.324	77.074	757.324	76.3432	757.324	76.0901	757.324	77.7154	757.324	76.9585	757.324	78.9323	757.324	78.2065	757.324	79.0684
785.156	87.4891	785.156	87.3712	785.156	87.4774	785.156	87.0732	785.156	87.4359	785.156	86.7095	785.156	87.2303	785.156	86.2024	785.156	86.6751	785.156	85.2134	785.156	85.8817	785.156	83.7208	785.156	85.0543	785.156	82.25	785.156	84.0311	785.156	81.1608	785.156	82.8522	785.156	80.6676	785.156	82.3741	785.156	81.2125	785.156	82.6276	785.156	81.5987	785.156	82.3813	785.156	80.2883	785.156	81.0653	785.156	77.1191	785.156	78.5529	785.156	75.4054	785.156	74.2658	785.156	77.0784	785.156	71.258	785.156	78.9714	785.156	75.3659	785.156	80.2149	785.156	78.5732	785.156	80.0983
811.523	87.5077	811.523	87.389	811.523	87.4999	811.523	87.1531	811.523	87.2195	811.523	86.5639	811.523	86.8613	811.523	85.7182	811.523	86.5595	811.523	84.9883	811.523	85.9821	811.523	84.2612	811.523	84.9324	811.523	83.3411	811.523	83.7941	811.523	82.8801	811.523	82.8496	811.523	82.894	811.523	81.9282	811.523	82.2376	811.523	81.4959	811.523	80.7812	811.523	81.6716	811.523	79.2412	811.523	81.2716	811.523	77.3114	811.523	79.3872	811.523	74.456	811.523	76.5582	811.523	74.7897	811.523	75.0866	811.523	76.953	811.523	76.2991	811.523	77.8858	811.523	78.1383	811.523	78.5181
840.82	87.2375	840.82	87.0803	840.82	87.2215	840.82	86.8518	840.82	87.0905	840.82	86.6107	840.82	86.8601	840.82	86.1025	840.82	86.4521	840.82	85.1879	840.82	85.8596	840.82	84.0254	840.82	85.1491	840.82	82.4727	840.82	84.3164	840.82	80.3141	840.82	83.2133	840.82	79.0619	840.82	81.8618	840.82	79.7184	840.82	80.8811	840.82	79.8185	840.82	80.3117	840.82	78.542	840.82	79.2077	840.82	77.2784	840.82	77.3594	840.82	75.3781	840.82	75.5885	840.82	72.7322	840.82	74.9702	840.82	74.4005	840.82	76.4898	840.82	77.1598	840.82	78.0404	840.82	78.3512
870.117	87.4145	870.117	87.2916	870.117	87.2956	870.117	86.797	870.117	87.1476	870.117	86.1565	870.117	86.9138	870.117	85.5674	870.117	86.4129	870.117	84.7675	870.117	85.6723	870.117	83.6809	870.117	84.7986	870.117	82.9971	870.117	83.6503	870.117	82.9744	870.117	82.4236	870.117	82.8166	870.117	82.0413	870.117	82.2469	870.117	82.206	870.117	81.2682	870.117	81.7658	870.117	79.4457	870.117	80.7186	870.117	75.841	870.117	79.1199	870.117	71.9114	870.117	76.2158	870.117	73.0327	870.117	73.4982	870.117	75.4291	870.117	74.0468	870.117	77.4591	870.117	75.9465	870.117	77.6208
900.879	86.9774	900.879	87.1103	900.879	86.8664	900.879	87.2195	900.879	86.8512	900.879	87.028	900.879	86.8813	900.879	86.411	900.879	86.65	900.879	85.6402	900.879	86.0645	900.879	84.6181	900.879	85.1519	900.879	82.8512	900.879	83.8205	900.879	80.7112	900.879	82.2087	900.879	79.7369	900.879	81.317	900.879	80.1187	900.879	81.3765	900.879	80.3947	900.879	81.1165	900.879	79.6324	900.879	80.0941	900.879	77.0751	900.879	78.404	900.879	73.0109	900.879	75.1802	900.879	72.9923	900.879	70.4873	900.879	76.4761	900.879	74.6295	900.879	78.1192	900.879	77.811	900.879	78.4454
933.105	87.9907	933.105	87.6943	933.105	88.0712	933.105	87.1378	933.105	87.8225	933.105	86.4987	933.105	87.1837	933.105	86.0683	933.105	86.292	933.105	85.5123	933.105	85.3442	933.105	84.4953	933.105	84.5517	933.105	83.479	933.105	83.7365	933.105	82.9045	933.105	82.488	933.105	82.4949	933.105	81.2374	933.105	81.9497	933.105	81.1233	933.105	81.0444	933.105	81.6589	933.105	79.9738	933.105	81.1834	933.105	78.72	933.105	79.1941	933.105	76.7457	933.105	76.5813	933.105	75.6442	933.105	76.3893	933.105	76.4494	933.105	77.7198	933.105	77.5622	933.105	78.3104	933.105	78.2558
965.332	87.9801	965.332	87.5943	965.332	87.8196	965.332	87.3046	965.332	87.2393	965.332	87.0623	965.332	86.9127	965.332	86.3062	965.332	86.732	965.332	85.3379	965.332	86.2225	965.332	84.4423	965.332	85.3081	965.332	83.077	965.332	83.8784	965.332	81.1385	965.332	82.0677	965.332	80.0499	965.332	80.9074	965.332	80.4024	965.332	80.4895	965.332	80.6489	965.332	79.7509	965.332	79.3612	965.332	79.2383	965.332	75.9664	965.332	78.4334	965.332	71.9741	965.332	75.0835	965.332	73.6786	965.332	73.1912	965.332	77.6293	965.332	77.3065	965.332	79.7897	965.332	79.1776	965.332	80.0134
1,000.49	86.749	1,000.49	87.2416	1,000.49	86.7074	1,000.49	86.9071	1,000.49	87.0175	1,000.49	86.095	1,000.49	86.5446	1,000.49	85.7918	1,000.49	85.9099	1,000.49	85.3326	1,000.49	85.6411	1,000.49	84.2102	1,000.49	84.7238	1,000.49	82.7892	1,000.49	83.1013	1,000.49	81.1552	1,000.49	81.8604	1,000.49	80.2999	1,000.49	80.5912	1,000.49	80.5544	1,000.49	79.688	1,000.49	79.9694	1,000.49	80.5923	1,000.49	78.1975	1,000.49	80.6274	1,000.49	76.1696	1,000.49	76.8296	1,000.49	72.4628	1,000.49	69.3624	1,000.49	73.3602	1,000.49	70.0056	1,000.49	78.7766	1,000.49	74.3054	1,000.49	81.2217	1,000.49	78.9658	1,000.49	81.3271
1,035.64	87.2952	1,035.64	86.5865	1,035.64	87.1495	1,035.64	86.2185	1,035.64	86.584	1,035.64	86.3812	1,035.64	86.4165	1,035.64	85.9506	1,035.64	85.9396	1,035.64	85.0607	1,035.64	85.0041	1,035.64	84.0966	1,035.64	84.5503	1,035.64	82.5723	1,035.64	83.6113	1,035.64	81.0226	1,035.64	80.9113	1,035.64	80.6953	1,035.64	79.3597	1,035.64	81.2914	1,035.64	80.809	1,035.64	81.3687	1,035.64	81.3647	1,035.64	79.7409	1,035.64	80.4866	1,035.64	74.5293	1,035.64	78.9184	1,035.64	66.6927	1,035.64	74.1348	1,035.64	72.6568	1,035.64	69.0923	1,035.64	75.3913	1,035.64	74.7193	1,035.64	78.3507	1,035.64	76.9913	1,035.64	78.8941
1,072.27	87.4885	1,072.27	86.8909	1,072.27	87.698	1,072.27	86.3301	1,072.27	87.2926	1,072.27	85.8966	1,072.27	86.165	1,072.27	85.2901	1,072.27	85.4385	1,072.27	84.8936	1,072.27	85.7518	1,072.27	84.289	1,072.27	85.6397	1,072.27	82.8533	1,072.27	84.554	1,072.27	80.471	1,072.27	82.5805	1,072.27	78.012	1,072.27	79.5653	1,072.27	79.5393	1,072.27	78.9248	1,072.27	81.0175	1,072.27	81.1298	1,072.27	80.196	1,072.27	81.5036	1,072.27	77.7745	1,072.27	80.1417	1,072.27	71.9891	1,072.27	75.5697	1,072.27	67.1447	1,072.27	63.5986	1,072.27	75.2694	1,072.27	70.9508	1,072.27	76.4911	1,072.27	76.9841	1,072.27	77.3725
1,108.89	88.5365	1,108.89	87.7547	1,108.89	88.5042	1,108.89	87.0479	1,108.89	87.5356	1,108.89	86.0454	1,108.89	86.7235	1,108.89	84.57	1,108.89	85.8264	1,108.89	83.9901	1,108.89	84.6468	1,108.89	84.4275	1,108.89	83.9897	1,108.89	84.0478	1,108.89	83.6255	1,108.89	81.8888	1,108.89	82.7246	1,108.89	78.6626	1,108.89	81.1267	1,108.89	77.6527	1,108.89	78.9577	1,108.89	80.0656	1,108.89	79.1711	1,108.89	81.2618	1,108.89	81.0337	1,108.89	79.0972	1,108.89	80.8912	1,108.89	71.9929	1,108.89	77.4782	1,108.89	66.5221	1,108.89	66.9333	1,108.89	76.2964	1,108.89	68.0563	1,108.89	80.6591	1,108.89	76.2362	1,108.89	80.2992
1,148.44	87.0674	1,148.44	87.0693	1,148.44	87.1609	1,148.44	86.528	1,148.44	87.058	1,148.44	85.0971	1,148.44	86.3167	1,148.44	83.6275	1,148.44	85.2192	1,148.44	82.7123	1,148.44	83.9302	1,148.44	82.1398	1,148.44	82.8416	1,148.44	82.2992	1,148.44	83.0334	1,148.44	82.0677	1,148.44	82.7476	1,148.44	79.8917	1,148.44	80.5151	1,148.44	77.033	1,148.44	77.998	1,148.44	77.7302	1,148.44	76.6036	1,148.44	79.2119	1,148.44	78.3214	1,148.44	78.9168	1,148.44	79.0814	1,148.44	75.9512	1,148.44	77.4663	1,148.44	65.9399	1,148.44	74.2914	1,148.44	71.9772	1,148.44	65.7773	1,148.44	73.8677	1,148.44	71.4725	1,148.44	74.0549
1,189.45	87.489	1,189.45	86.7965	1,189.45	87.6876	1,189.45	86.312	1,189.45	86.7967	1,189.45	85.2349	1,189.45	86.1272	1,189.45	83.8334	1,189.45	85.4014	1,189.45	82.6371	1,189.45	84.0983	1,189.45	81.4351	1,189.45	83.1292	1,189.45	80.1103	1,189.45	81.836	1,189.45	78.6947	1,189.45	81.117	1,189.45	77.1461	1,189.45	80.4178	1,189.45	75.6596	1,189.45	77.524	1,189.45	76.317	1,189.45	77.1135	1,189.45	78.1012	1,189.45	77.9797	1,189.45	77.106	1,189.45	78.6204	1,189.45	73.411	1,189.45	77.1581	1,189.45	66.9389	1,189.45	70.877	1,189.45	70.9273	1,189.45	72.5277	1,189.45	75.413	1,189.45	74.4467	1,189.45	75.984
1,230.47	87.3083	1,230.47	87.4137	1,230.47	87.1346	1,230.47	86.7336	1,230.47	87.1794	1,230.47	85.8699	1,230.47	86.9362	1,230.47	84.9805	1,230.47	86.1572	1,230.47	83.3272	1,230.47	84.8176	1,230.47	82.226	1,230.47	83.3277	1,230.47	81.8019	1,230.47	82.3233	1,230.47	80.4115	1,230.47	81.534	1,230.47	77.8369	1,230.47	80.4655	1,230.47	75.0691	1,230.47	78.2177	1,230.47	76.8021	1,230.47	76.1638	1,230.47	77.4357	1,230.47	78.0527	1,230.47	76.5062	1,230.47	78.0007	1,230.47	73.916	1,230.47	75.5596	1,230.47	66.5962	1,230.47	69.6766	1,230.47	71.3437	1,230.47	67.6543	1,230.47	74.8656	1,230.47	74.1633	1,230.47	76.0395
1,274.41	87.9729	1,274.41	87.6674	1,274.41	87.658	1,274.41	87.2377	1,274.41	87.6055	1,274.41	86.2975	1,274.41	87.0474	1,274.41	84.6826	1,274.41	85.7058	1,274.41	83.3695	1,274.41	84.5088	1,274.41	81.7948	1,274.41	83.5167	1,274.41	81.5747	1,274.41	82.5734	1,274.41	81.1393	1,274.41	81.6654	1,274.41	80.0725	1,274.41	81.0486	1,274.41	77.9624	1,274.41	79.4425	1,274.41	73.9612	1,274.41	77.9278	1,274.41	77.1336	1,274.41	77.9572	1,274.41	77.1848	1,274.41	78.2129	1,274.41	73.6143	1,274.41	76.0412	1,274.41	65.5085	1,274.41	70.6567	1,274.41	66.4282	1,274.41	70.8035	1,274.41	71.2993	1,274.41	74.6089	1,274.41	75.1412
1,319.82	88.0603	1,319.82	87.8169	1,319.82	88.1518	1,319.82	87.0067	1,319.82	87.8831	1,319.82	86.303	1,319.82	86.9162	1,319.82	85.2389	1,319.82	86.1763	1,319.82	83.5969	1,319.82	85.0353	1,319.82	82.1496	1,319.82	83.5848	1,319.82	81.0739	1,319.82	82.2096	1,319.82	80.9116	1,319.82	81.8564	1,319.82	79.3932	1,319.82	81.1887	1,319.82	76.5249	1,319.82	78.4636	1,319.82	76.5666	1,319.82	76.1643	1,319.82	76.8031	1,319.82	76.9164	1,319.82	77.9211	1,319.82	78.5618	1,319.82	73.6849	1,319.82	77.7932	1,319.82	63.9575	1,319.82	73.2483	1,319.82	71.446	1,319.82	67.4709	1,319.82	75.8969	1,319.82	72.7869	1,319.82	75.5164
1,366.7	87.8321	1,366.7	87.5608	1,366.7	87.7279	1,366.7	87.3556	1,366.7	87.2397	1,366.7	86.3568	1,366.7	86.8481	1,366.7	85.2597	1,366.7	85.9755	1,366.7	84.1074	1,366.7	85.2599	1,366.7	82.1826	1,366.7	83.538	1,366.7	80.3673	1,366.7	81.753	1,366.7	79.5001	1,366.7	80.1729	1,366.7	78.6788	1,366.7	78.7834	1,366.7	76.5941	1,366.7	78.5906	1,366.7	75.1885	1,366.7	76.6192	1,366.7	77.5119	1,366.7	76.6935	1,366.7	77.5314	1,366.7	78.3195	1,366.7	77.1228	1,366.7	77.5137	1,366.7	71.4119	1,366.7	71.7581	1,366.7	69.8092	1,366.7	67.6097	1,366.7	71.6838	1,366.7	71.8045	1,366.7	74.2691
1,413.57	87.4193	1,413.57	87.2417	1,413.57	87.4147	1,413.57	86.4362	1,413.57	87.1489	1,413.57	85.8792	1,413.57	86.3156	1,413.57	84.739	1,413.57	85.3315	1,413.57	83.2292	1,413.57	83.9475	1,413.57	81.8719	1,413.57	82.4049	1,413.57	80.4762	1,413.57	80.5806	1,413.57	79.0532	1,413.57	79.4682	1,413.57	78.9397	1,413.57	79.8615	1,413.57	78.8611	1,413.57	78.2712	1,413.57	76.0482	1,413.57	75.953	1,413.57	75.9858	1,413.57	75.6625	1,413.57	77.3983	1,413.57	76.5488	1,413.57	76.0308	1,413.57	76.6443	1,413.57	69.3305	1,413.57	73.4037	1,413.57	63.4133	1,413.57	67.2895	1,413.57	70.9701	1,413.57	68.6079	1,413.57	70.2155
1,463.38	86.2325	1,463.38	86.3198	1,463.38	86.1195	1,463.38	85.6603	1,463.38	85.942	1,463.38	84.7165	1,463.38	85.2209	1,463.38	84.221	1,463.38	84.5086	1,463.38	82.8921	1,463.38	83.5458	1,463.38	81.7155	1,463.38	81.6585	1,463.38	79.842	1,463.38	80.2385	1,463.38	76.7055	1,463.38	79.3881	1,463.38	77.9908	1,463.38	77.6657	1,463.38	76.396	1,463.38	77.0238	1,463.38	73.9812	1,463.38	74.6218	1,463.38	74.3746	1,463.38	71.1324	1,463.38	74.5773	1,463.38	73.7932	1,463.38	72.4654	1,463.38	74.8031	1,463.38	71.0882	1,463.38	71.7799	1,463.38	71.8041	1,463.38	69.7473	1,463.38	73.1012	1,463.38	71.2694	1,463.38	74.6658
1,516.11	85.7778	1,516.11	85.3845	1,516.11	85.817	1,516.11	84.6765	1,516.11	84.8463	1,516.11	83.8367	1,516.11	84.111	1,516.11	83.1283	1,516.11	83.3821	1,516.11	81.678	1,516.11	81.3423	1,516.11	79.5861	1,516.11	80.2955	1,516.11	78.3553	1,516.11	79.3915	1,516.11	78.9192	1,516.11	76.867	1,516.11	77.8035	1,516.11	75.0446	1,516.11	75.5659	1,516.11	75.5064	1,516.11	74.5118	1,516.11	73.5215	1,516.11	72.5671	1,516.11	73.4851	1,516.11	75.6568	1,516.11	74.0224	1,516.11	74.4016	1,516.11	73.9278	1,516.11	68.9468	1,516.11	73.9043	1,516.11	67.4673	1,516.11	65.6246	1,516.11	66.9968	1,516.11	67.5665	1,516.11	66.1223
1,568.85	85.3478	1,568.85	85.0392	1,568.85	84.889	1,568.85	83.5847	1,568.85	85.0245	1,568.85	83.0678	1,568.85	84.7365	1,568.85	81.7507	1,568.85	82.7806	1,568.85	80.2939	1,568.85	82.2925	1,568.85	79.639	1,568.85	80.7755	1,568.85	77.9988	1,568.85	78.7396	1,568.85	75.1033	1,568.85	75.316	1,568.85	74.799	1,568.85	76.646	1,568.85	74.1657	1,568.85	75.6681	1,568.85	69.0974	1,568.85	73.337	1,568.85	70.4671	1,568.85	71.6876	1,568.85	71.6849	1,568.85	71.6278	1,568.85	74.6554	1,568.85	72.6985	1,568.85	73.2464	1,568.85	71.8986	1,568.85	71.6561	1,568.85	70.7185	1,568.85	74.3657	1,568.85	70.189	1,568.85	74.2248
1,624.51	85.449	1,624.51	84.3863	1,624.51	85.5984	1,624.51	84.0427	1,624.51	85.1229	1,624.51	82.952	1,624.51	84.3139	1,624.51	81.1766	1,624.51	83.8396	1,624.51	79.3195	1,624.51	81.0483	1,624.51	78.4421	1,624.51	80.1547	1,624.51	77.9125	1,624.51	79.0908	1,624.51	77.5337	1,624.51	78.7163	1,624.51	77.1032	1,624.51	77.3789	1,624.51	74.4745	1,624.51	76.809	1,624.51	73.0492	1,624.51	75.7258	1,624.51	67.3715	1,624.51	72.8079	1,624.51	73.935	1,624.51	71.0121	1,624.51	70.6799	1,624.51	74.5081	1,624.51	63.158	1,624.51	72.1483	1,624.51	57.9912	1,624.51	67.8565	1,624.51	68.0701	1,624.51	69.3496	1,624.51	62.6582
1,681.64	85.9676	1,681.64	85.746	1,681.64	85.4882	1,681.64	84.6841	1,681.64	84.9946	1,681.64	83.2668	1,681.64	85.3359	1,681.64	81.7418	1,681.64	83.2664	1,681.64	81.0919	1,681.64	82.6432	1,681.64	77.986	1,681.64	81.8995	1,681.64	78.3882	1,681.64	79.8396	1,681.64	76.4395	1,681.64	78.0363	1,681.64	74.4128	1,681.64	76.8922	1,681.64	73.8954	1,681.64	77.8792	1,681.64	74.5743	1,681.64	78.245	1,681.64	73.069	1,681.64	75.6771	1,681.64	71.2334	1,681.64	73.4899	1,681.64	70.1877	1,681.64	73.2674	1,681.64	69.6478	1,681.64	74.8136	1,681.64	66.4044	1,681.64	68.6603	1,681.64	71.8891	1,681.64	64.855	1,681.64	72.979
1,741.7	86.287	1,741.7	85.0329	1,741.7	86.0077	1,741.7	83.7655	1,741.7	85.135	1,741.7	83.1375	1,741.7	83.3157	1,741.7	82.0313	1,741.7	83.372	1,741.7	80.138	1,741.7	81.2126	1,741.7	79.7219	1,741.7	79.2746	1,741.7	76.831	1,741.7	78.3732	1,741.7	74.1941	1,741.7	77.0523	1,741.7	75.2665	1,741.7	74.9314	1,741.7	75.2105	1,741.7	73.0213	1,741.7	74.3298	1,741.7	70.7809	1,741.7	69.2377	1,741.7	73.4774	1,741.7	72.7779	1,741.7	70.9094	1,741.7	74.4701	1,741.7	72.2794	1,741.7	73.4041	1,741.7	71.3675	1,741.7	70.1411	1,741.7	58.4234	1,741.7	64.7764	1,741.7	68.6479	1,741.7	67.4117
1,803.22	84.5227	1,803.22	85.4914	1,803.22	85.5138	1,803.22	85.5903	1,803.22	84.6839	1,803.22	83.8949	1,803.22	84.2681	1,803.22	81.9154	1,803.22	80.8843	1,803.22	81.3109	1,803.22	79.6815	1,803.22	79.8239	1,803.22	78.223	1,803.22	77.5175	1,803.22	77.3545	1,803.22	76.423	1,803.22	73.2145	1,803.22	74.7253	1,803.22	75.5411	1,803.22	71.8917	1,803.22	74.5016	1,803.22	71.8758	1,803.22	73.2624	1,803.22	72.21	1,803.22	67.9277	1,803.22	70.1882	1,803.22	73.5438	1,803.22	71.7539	1,803.22	75.9529	1,803.22	74.852	1,803.22	72.0731	1,803.22	68.8915	1,803.22	68.5935	1,803.22	71.1813	1,803.22	69.4077	1,803.22	72.1102
1,866.21	86.5115	1,866.21	85.868	1,866.21	85.4734	1,866.21	84.1845	1,866.21	85.555	1,866.21	82.7293	1,866.21	83.8321	1,866.21	82.3645	1,866.21	83.7211	1,866.21	80.8701	1,866.21	82.316	1,866.21	80.7115	1,866.21	78.2041	1,866.21	79.8732	1,866.21	77.415	1,866.21	78.404	1,866.21	78.2836	1,866.21	78.7857	1,866.21	77.2227	1,866.21	79.0668	1,866.21	70.8158	1,866.21	78.125	1,866.21	72.5979	1,866.21	73.114	1,866.21	70.1857	1,866.21	73.0626	1,866.21	67.0672	1,866.21	72.2535	1,866.21	52.0916	1,866.21	69.1235	1,866.21	75.5256	1,866.21	57.9726	1,866.21	68.864	1,866.21	74.98	1,866.21	70.6264	1,866.21	56.0987
1,932.13	85.1569	1,932.13	83.0203	1,932.13	85.2301	1,932.13	83.758	1,932.13	84.5168	1,932.13	82.4396	1,932.13	84.0447	1,932.13	82.3559	1,932.13	82.1552	1,932.13	81.1524	1,932.13	80.8368	1,932.13	74.508	1,932.13	78.1674	1,932.13	74.6007	1,932.13	71.1391	1,932.13	72.0967	1,932.13	72.9823	1,932.13	71.1503	1,932.13	75.9184	1,932.13	61.5078	1,932.13	68.4883	1,932.13	70.8359	1,932.13	67.7684	1,932.13	69.4827	1,932.13	74.5704	1,932.13	65.2154	1,932.13	74.9106	1,932.13	75.3828	1,932.13	75.1113	1,932.13	76.2887	1,932.13	70.3131	1,932.13	71.9276	1,932.13	66.0042	1,932.13	71.5328	1,932.13	71.825	1,932.13	77.3407
1,999.51	85.5861	1,999.51	86.2549	1,999.51	86.6527	1,999.51	84.3279	1,999.51	84.4479	1,999.51	83.3641	1,999.51	85.2006	1,999.51	82.0371	1,999.51	82.6369	1,999.51	81.6068	1,999.51	82.8532	1,999.51	80.3152	1,999.51	80.1576	1,999.51	81.4969	1,999.51	82.3901	1,999.51	76.8664	1,999.51	75.0646	1,999.51	74.4043	1,999.51	76.4177	1,999.51	73.5259	1,999.51	75.3969	1,999.51	78.2771	1,999.51	77.431	1,999.51	73.9315	1,999.51	72.9279	1,999.51	76.2423	1,999.51	71.4731	1,999.51	75.6013	1,999.51	68.6383	1,999.51	67.3675	1,999.51	71.9201	1,999.51	64.5855	1,999.51	68.7404	1,999.51	77.9013	1,999.51	67.4959	1,999.51	72.775
2,069.82	83.2918	2,069.82	83.4272	2,069.82	81.831	2,069.82	84.8782	2,069.82	84.3184	2,069.82	83.2063	2,069.82	83.011	2,069.82	81.1899	2,069.82	80.1863	2,069.82	75.9065	2,069.82	77.1247	2,069.82	76.6108	2,069.82	79.2312	2,069.82	68.0545	2,069.82	76.3101	2,069.82	65.5337	2,069.82	76.7411	2,069.82	68.5214	2,069.82	77.8484	2,069.82	74.2432	2,069.82	74.6378	2,069.82	66.522	2,069.82	73.5547	2,069.82	66.13	2,069.82	66.2543	2,069.82	63.7596	2,069.82	64.3316	2,069.82	67.3934	2,069.82	68.0521	2,069.82	71.4102	2,069.82	72.6715	2,069.82	67.9822	2,069.82	71.0639	2,069.82	61.5614	2,069.82	69.3832	2,069.82	67.8471
2,143.07	86.8226	2,143.07	84.3401	2,143.07	86.1643	2,143.07	83.5379	2,143.07	85.4381	2,143.07	82.3624	2,143.07	83.5394	2,143.07	83.0546	2,143.07	83.504	2,143.07	81.774	2,143.07	82.2919	2,143.07	80.0968	2,143.07	75.7784	2,143.07	78.6377	2,143.07	74.7038	2,143.07	75.346	2,143.07	76.0692	2,143.07	78.9781	2,143.07	64.603	2,143.07	76.0691	2,143.07	71.7922	2,143.07	73.4411	2,143.07	69.2821	2,143.07	72.2381	2,143.07	74.4548	2,143.07	71.0779	2,143.07	75.8503	2,143.07	67.8894	2,143.07	68.9265	2,143.07	73.8511	2,143.07	62.5256	2,143.07	68.2637	2,143.07	67.5697	2,143.07	71.543	2,143.07	73.0294	2,143.07	76.9065
2,219.24	83.7452	2,219.24	83.8383	2,219.24	85.0381	2,219.24	83.6271	2,219.24	83.5336	2,219.24	84.0546	2,219.24	83.1986	2,219.24	83.0914	2,219.24	81.9774	2,219.24	82.5769	2,219.24	81.0096	2,219.24	79.5584	2,219.24	78.6522	2,219.24	74.546	2,219.24	75.2209	2,219.24	77.3351	2,219.24	74.8414	2,219.24	76.9827	2,219.24	71.3695	2,219.24	76.8808	2,219.24	73.5898	2,219.24	74.3855	2,219.24	74.0119	2,219.24	74.0695	2,219.24	75.4136	2,219.24	70.7505	2,219.24	64.8452	2,219.24	70.1959	2,219.24	73.1628	2,219.24	73.6474	2,219.24	71.2372	2,219.24	66.8556	2,219.24	54.8212	2,219.24	72.7958	2,219.24	67.8904	2,219.24	70.8855
2,296.88	85.8765	2,296.88	84.5429	2,296.88	85.702	2,296.88	83.8249	2,296.88	84.9303	2,296.88	83.7335	2,296.88	83.4139	2,296.88	83.6929	2,296.88	81.6005	2,296.88	81.6099	2,296.88	82.8891	2,296.88	79.881	2,296.88	82.7929	2,296.88	79.2561	2,296.88	83.0022	2,296.88	75.966	2,296.88	77.2626	2,296.88	77.0635	2,296.88	77.668	2,296.88	74.2784	2,296.88	72.9998	2,296.88	75.0356	2,296.88	76.7358	2,296.88	67.5953	2,296.88	75.0221	2,296.88	76.445	2,296.88	73.896	2,296.88	70.2639	2,296.88	70.2573	2,296.88	67.228	2,296.88	70.1836	2,296.88	71.7805	2,296.88	61.1443	2,296.88	67.4975	2,296.88	68.7186	2,296.88	62.2874
2,378.91	85.7908	2,378.91	85.5436	2,378.91	85.3016	2,378.91	84.7579	2,378.91	85.8192	2,378.91	83.5018	2,378.91	85.2717	2,378.91	82.113	2,378.91	85.372	2,378.91	78.4886	2,378.91	82.5342	2,378.91	82.6774	2,378.91	84.1306	2,378.91	75.5254	2,378.91	82.6103	2,378.91	74.7969	2,378.91	78.1988	2,378.91	75.3539	2,378.91	68.7667	2,378.91	77.0411	2,378.91	76.572	2,378.91	74.5541	2,378.91	77.2631	2,378.91	75.0514	2,378.91	71.6514	2,378.91	69.9236	2,378.91	74.9028	2,378.91	73.2754	2,378.91	68.9197	2,378.91	78.4639	2,378.91	77.3582	2,378.91	73.8892	2,378.91	74.6083	2,378.91	70.6502	2,378.91	67.7972	2,378.91	64.3812
2,462.4	88.5353	2,462.4	88.2693	2,462.4	87.9799	2,462.4	87.472	2,462.4	87.4293	2,462.4	86.2873	2,462.4	87.0766	2,462.4	85.4894	2,462.4	86.0407	2,462.4	84.4435	2,462.4	85.4826	2,462.4	82.5796	2,462.4	84.4278	2,462.4	80.765	2,462.4	82.6516	2,462.4	81.0174	2,462.4	80.984	2,462.4	78.8756	2,462.4	79.3457	2,462.4	75.7156	2,462.4	77.6102	2,462.4	73.4317	2,462.4	76.3881	2,462.4	73.6504	2,462.4	76.1988	2,462.4	72.0967	2,462.4	73.9285	2,462.4	70.5682	2,462.4	71.8185	2,462.4	74.3214	2,462.4	75.2665	2,462.4	67.5829	2,462.4	72.2065	2,462.4	71.0085	2,462.4	69.3352	2,462.4	72.7884
2,548.83	88.0927	2,548.83	88.0615	2,548.83	88.4046	2,548.83	87.6203	2,548.83	87.7937	2,548.83	87.3546	2,548.83	86.7122	2,548.83	86.4802	2,548.83	86.1534	2,548.83	85.7196	2,548.83	84.5223	2,548.83	84.4609	2,548.83	83.5254	2,548.83	82.9679	2,548.83	82.0692	2,548.83	79.6307	2,548.83	80.3872	2,548.83	77.9768	2,548.83	78.2496	2,548.83	77.4796	2,548.83	76.3109	2,548.83	75.3112	2,548.83	74.719	2,548.83	75.213	2,548.83	71.5179	2,548.83	74.919	2,548.83	74.3082	2,548.83	71.4271	2,548.83	65.2674	2,548.83	74.9478	2,548.83	71.8338	2,548.83	68.7778	2,548.83	70.5891	2,548.83	71.6958	2,548.83	69.0438	2,548.83	75.4415
2,639.65	86.9248	2,639.65	86.4428	2,639.65	86.2066	2,639.65	86.3713	2,639.65	86.2006	2,639.65	85.637	2,639.65	86.2647	2,639.65	85.6273	2,639.65	85.086	2,639.65	84.5021	2,639.65	85.0092	2,639.65	83.3093	2,639.65	83.6015	2,639.65	81.432	2,639.65	82.1052	2,639.65	81.3165	2,639.65	79.9453	2,639.65	79.4127	2,639.65	79.3132	2,639.65	77.9652	2,639.65	76.9968	2,639.65	77.0261	2,639.65	75.9393	2,639.65	74.8304	2,639.65	73.8724	2,639.65	72.9391	2,639.65	72.7598	2,639.65	71.1226	2,639.65	72.1949	2,639.65	72.2645	2,639.65	71.5667	2,639.65	70.891	2,639.65	70.7823	2,639.65	73.0691	2,639.65	65.9402	2,639.65	73.7945
2,731.93	85.7469	2,731.93	86.2602	2,731.93	86.6225	2,731.93	85.9168	2,731.93	86.1462	2,731.93	86.2032	2,731.93	85.4464	2,731.93	84.5967	2,731.93	85.9157	2,731.93	84.3749	2,731.93	84.6339	2,731.93	82.808	2,731.93	83.5863	2,731.93	81.2519	2,731.93	81.5851	2,731.93	78.2882	2,731.93	81.5336	2,731.93	77.0849	2,731.93	78.1525	2,731.93	75.0649	2,731.93	77.2543	2,731.93	72.6992	2,731.93	75.1754	2,731.93	72.5604	2,731.93	74.0154	2,731.93	73.1722	2,731.93	73.9913	2,731.93	71.6667	2,731.93	67.8861	2,731.93	73.7174	2,731.93	70.2641	2,731.93	60.8976	2,731.93	71.0354	2,731.93	72.3776	2,731.93	66.8157	2,731.93	73.213
2,828.61	86.5046	2,828.61	85.9616	2,828.61	85.4771	2,828.61	86.0105	2,828.61	86.2824	2,828.61	85.7804	2,828.61	87.1085	2,828.61	86.1478	2,828.61	86.122	2,828.61	83.9805	2,828.61	86.0255	2,828.61	83.113	2,828.61	84.7572	2,828.61	81.4104	2,828.61	83.6646	2,828.61	79.5666	2,828.61	79.7491	2,828.61	77.7698	2,828.61	79.5312	2,828.61	76.9222	2,828.61	76.7835	2,828.61	75.722	2,828.61	75.5187	2,828.61	71.9481	2,828.61	73.9054	2,828.61	70.0509	2,828.61	71.4983	2,828.61	68.0529	2,828.61	72.5195	2,828.61	72.2867	2,828.61	72.151	2,828.61	69.6631	2,828.61	70.9807	2,828.61	72.0831	2,828.61	68.1154	2,828.61	74.6668
2,928.22	86.5018	2,928.22	86.9908	2,928.22	87.3355	2,928.22	87.6191	2,928.22	87.4271	2,928.22	87.7806	2,928.22	86.9656	2,928.22	86.3806	2,928.22	87.3918	2,928.22	86.0287	2,928.22	86.1421	2,928.22	84.0133	2,928.22	84.6718	2,928.22	82.2867	2,928.22	82.3048	2,928.22	80.2809	2,928.22	82.1103	2,928.22	78.3033	2,928.22	78.7322	2,928.22	75.4773	2,928.22	78.1976	2,928.22	73.5014	2,928.22	76.0237	2,928.22	73.9329	2,928.22	74.4347	2,928.22	72.8507	2,928.22	74.5844	2,928.22	71.0333	2,928.22	69.1624	2,928.22	74.5629	2,928.22	71.5353	2,928.22	65.847	2,928.22	72.8162	2,928.22	72.9912	2,928.22	66.8965	2,928.22	74.1192
3,030.76	86.3926	3,030.76	86.4888	3,030.76	86.3951	3,030.76	86.6634	3,030.76	86.7149	3,030.76	87.0319	3,030.76	87.6981	3,030.76	87.3409	3,030.76	86.9349	3,030.76	85.3926	3,030.76	86.3142	3,030.76	84.0866	3,030.76	84.9416	3,030.76	81.6026	3,030.76	83.5841	3,030.76	80.3703	3,030.76	80.374	3,030.76	77.8461	3,030.76	79.92	3,030.76	77.6245	3,030.76	76.4264	3,030.76	76.3668	3,030.76	75.4727	3,030.76	72.6475	3,030.76	73.2653	3,030.76	73.244	3,030.76	70.0308	3,030.76	66.1749	3,030.76	73.4801	3,030.76	71.7124	3,030.76	70.9533	3,030.76	69.7728	3,030.76	72.5306	3,030.76	72.2585	3,030.76	66.7986	3,030.76	75.1695
3,137.7	86.6286	3,137.7	86.9857	3,137.7	86.2784	3,137.7	88.0021	3,137.7	87.224	3,137.7	87.7468	3,137.7	87.5174	3,137.7	87.3573	3,137.7	87.5485	3,137.7	86.1882	3,137.7	86.8456	3,137.7	84.407	3,137.7	84.6792	3,137.7	82.7855	3,137.7	82.8609	3,137.7	80.2221	3,137.7	81.8077	3,137.7	79.3548	3,137.7	79.4527	3,137.7	75.7591	3,137.7	77.5238	3,137.7	73.487	3,137.7	76.0498	3,137.7	74.6659	3,137.7	75.5697	3,137.7	72.4597	3,137.7	74.6807	3,137.7	71.3556	3,137.7	69.7631	3,137.7	73.7983	3,137.7	69.807	3,137.7	68.3328	3,137.7	72.0087	3,137.7	72.5796	3,137.7	66.0187	3,137.7	73.5243
3,249.02	85.1566	3,249.02	86.1736	3,249.02	86.4859	3,249.02	86.6609	3,249.02	86.4405	3,249.02	87.282	3,249.02	86.8074	3,249.02	86.1878	3,249.02	86.913	3,249.02	85.5301	3,249.02	86.3626	3,249.02	83.7588	3,249.02	84.7978	3,249.02	81.8317	3,249.02	82.6469	3,249.02	80.4067	3,249.02	79.7988	3,249.02	77.1511	3,249.02	78.3882	3,249.02	76.915	3,249.02	76.2215	3,249.02	74.1046	3,249.02	75.1403	3,249.02	72.278	3,249.02	71.426	3,249.02	72.1556	3,249.02	71.0509	3,249.02	67.3738	3,249.02	73.2519	3,249.02	72.2988	3,249.02	70.2851	3,249.02	69.222	3,249.02	73.5786	3,249.02	71.3331	3,249.02	65.6195	3,249.02	74.6315
3,363.28	85.7946	3,363.28	86.1977	3,363.28	85.6631	3,363.28	86.9132	3,363.28	87.0738	3,363.28	87.1275	3,363.28	87.9899	3,363.28	87.0292	3,363.28	87.2603	3,363.28	85.2165	3,363.28	85.9943	3,363.28	82.9948	3,363.28	84.2901	3,363.28	80.9413	3,363.28	82.1984	3,363.28	77.6699	3,363.28	80.8985	3,363.28	77.4421	3,363.28	78.8608	3,363.28	73.2455	3,363.28	76.0749	3,363.28	73.9476	3,363.28	73.6517	3,363.28	72.8783	3,363.28	73.3144	3,363.28	70.2067	3,363.28	71.5263	3,363.28	70.2627	3,363.28	68.217	3,363.28	71.6102	3,363.28	66.91	3,363.28	67.9504	3,363.28	71.9358	3,363.28	71.2822	3,363.28	66.0734	3,363.28	72.6015
3,481.93	86.3525	3,481.93	86.71	3,481.93	86.1093	3,481.93	87.6584	3,481.93	86.6405	3,481.93	87.7047	3,481.93	87.1261	3,481.93	86.9612	3,481.93	87.2719	3,481.93	85.7574	3,481.93	86.2193	3,481.93	83.9437	3,481.93	84.7261	3,481.93	81.4923	3,481.93	82.5208	3,481.93	79.2529	3,481.93	80.0432	3,481.93	77.3631	3,481.93	77.565	3,481.93	75.9099	3,481.93	76.629	3,481.93	71.7098	3,481.93	74.5738	3,481.93	70.0305	3,481.93	71.6594	3,481.93	70.144	3,481.93	69.004	3,481.93	68.1711	3,481.93	71.17	3,481.93	70.7622	3,481.93	67.0948	3,481.93	69.2845	3,481.93	71.6048	3,481.93	69.8089	3,481.93	62.3961	3,481.93	73.061
3,604.98	85.7917	3,604.98	86.5318	3,604.98	86.7764	3,604.98	87.4905	3,604.98	87.4081	3,604.98	87.8423	3,604.98	87.6583	3,604.98	87.0269	3,604.98	87.359	3,604.98	85.6812	3,604.98	86.4703	3,604.98	83.2512	3,604.98	84.9298	3,604.98	81.3274	3,604.98	83.1832	3,604.98	79.4074	3,604.98	80.684	3,604.98	77.3429	3,604.98	79.1044	3,604.98	75.3286	3,604.98	77.1833	3,604.98	73.3167	3,604.98	75.3248	3,604.98	72.295	3,604.98	73.0243	3,604.98	70.4201	3,604.98	73.1572	3,604.98	69.3889	3,604.98	71.2369	3,604.98	69.1001	3,604.98	69.6989	3,604.98	69.1459	3,604.98	73.2999	3,604.98	70.4742	3,604.98	65.4493	3,604.98	72.867
3,732.42	86.7526	3,732.42	87.5888	3,732.42	86.8669	3,732.42	87.7785	3,732.42	87.8901	3,732.42	87.6548	3,732.42	88.2759	3,732.42	86.9096	3,732.42	87.4405	3,732.42	85.2531	3,732.42	86.1397	3,732.42	83.0866	3,732.42	84.2347	3,732.42	80.825	3,732.42	81.839	3,732.42	78.7313	3,732.42	81.2377	3,732.42	77.6525	3,732.42	79.2481	3,732.42	74.1031	3,732.42	77.1485	3,732.42	73.7214	3,732.42	74.6168	3,732.42	72.6042	3,732.42	73.006	3,732.42	68.9891	3,732.42	71.6415	3,732.42	70.3337	3,732.42	69.704	3,732.42	68.722	3,732.42	66.2195	3,732.42	68.9866	3,732.42	71.8658	3,732.42	69.7953	3,732.42	64.142	3,732.42	72.9681
3,864.26	86.507	3,864.26	87.0553	3,864.26	85.9404	3,864.26	87.6351	3,864.26	86.3016	3,864.26	87.1456	3,864.26	86.6181	3,864.26	85.9279	3,864.26	86.191	3,864.26	84.0376	3,864.26	84.7448	3,864.26	82.9664	3,864.26	83.2416	3,864.26	80.8525	3,864.26	81.6545	3,864.26	78.4682	3,864.26	79.3321	3,864.26	76.2525	3,864.26	76.6863	3,864.26	74.7507	3,864.26	75.1492	3,864.26	72.1045	3,864.26	74.1859	3,864.26	69.4741	3,864.26	70.8295	3,864.26	71.4166	3,864.26	71.4584	3,864.26	67.7489	3,864.26	69.751	3,864.26	69.1164	3,864.26	67.5849	3,864.26	69.7197	3,864.26	69.7145	3,864.26	66.526	3,864.26	62.8178	3,864.26	71.7928
4,000.49	86.2435	4,000.49	86.3804	4,000.49	86.4943	4,000.49	87.0461	4,000.49	86.7127	4,000.49	86.5744	4,000.49	86.8674	4,000.49	84.7326	4,000.49	86.1884	4,000.49	82.9029	4,000.49	84.5734	4,000.49	81.082	4,000.49	83.5898	4,000.49	79.0756	4,000.49	81.8823	4,000.49	77.7195	4,000.49	79.8514	4,000.49	75.5467	4,000.49	77.6755	4,000.49	74.7123	4,000.49	76.8757	4,000.49	72.6232	4,000.49	74.1289	4,000.49	70.5943	4,000.49	72.4748	4,000.49	69.3824	4,000.49	72.6577	4,000.49	68.7719	4,000.49	71.8127	4,000.49	62.9196	4,000.49	68.114	4,000.49	68.3865	4,000.49	71.2549	4,000.49	69.0359	4,000.49	64.2704	4,000.49	70.9573
4,141.11	87.4118	4,141.11	87.5955	4,141.11	87.3837	4,141.11	87.6506	4,141.11	87.5106	4,141.11	86.9207	4,141.11	87.2896	4,141.11	86.0437	4,141.11	86.3727	4,141.11	84.5869	4,141.11	85.1388	4,141.11	82.1754	4,141.11	83.9563	4,141.11	80.4732	4,141.11	82.3425	4,141.11	78.7271	4,141.11	79.7801	4,141.11	76.3017	4,141.11	78.7321	4,141.11	74.3147	4,141.11	76.6697	4,141.11	72.6751	4,141.11	74.5863	4,141.11	69.6658	4,141.11	71.2683	4,141.11	69.7232	4,141.11	72.0889	4,141.11	68.2414	4,141.11	69.4497	4,141.11	65.8187	4,141.11	67.3525	4,141.11	69.3134	4,141.11	71.2143	4,141.11	64.3286	4,141.11	65.1236	4,141.11	72.711
4,287.6	87.6806	4,287.6	87.6423	4,287.6	87.5752	4,287.6	87.2722	4,287.6	87.0033	4,287.6	86.1737	4,287.6	86.8437	4,287.6	84.9625	4,287.6	85.8778	4,287.6	83.7699	4,287.6	85.0045	4,287.6	82.3987	4,287.6	83.4972	4,287.6	80.8362	4,287.6	81.8043	4,287.6	78.8839	4,287.6	80.3453	4,287.6	76.8324	4,287.6	78.2613	4,287.6	74.4092	4,287.6	76.5403	4,287.6	71.8826	4,287.6	74.3344	4,287.6	70.5249	4,287.6	71.4949	4,287.6	72.0475	4,287.6	70.1805	4,287.6	68.0923	4,287.6	68.8649	4,287.6	65.8683	4,287.6	67.2377	4,287.6	70.2106	4,287.6	69.3994	4,287.6	64.9695	4,287.6	63.6841	4,287.6	71.6155
4,438.48	89.102	4,438.48	88.6175	4,438.48	88.9145	4,438.48	87.6196	4,438.48	88.0061	4,438.48	86.397	4,438.48	87.2049	4,438.48	84.5325	4,438.48	85.8682	4,438.48	82.9386	4,438.48	84.3696	4,438.48	81.7241	4,438.48	83.0547	4,438.48	79.809	4,438.48	81.6945	4,438.48	77.0331	4,438.48	79.5623	4,438.48	75.4541	4,438.48	77.4513	4,438.48	72.7422	4,438.48	75.7734	4,438.48	71.1064	4,438.48	73.7638	4,438.48	68.0648	4,438.48	71.5092	4,438.48	67.5278	4,438.48	68.169	4,438.48	69.1984	4,438.48	70.5244	4,438.48	63.5646	4,438.48	67.7434	4,438.48	68.4114	4,438.48	66.4526	4,438.48	64.1275	4,438.48	63.6872	4,438.48	69.3238
4,595.21	88.8313	4,595.21	88.3172	4,595.21	88.5605	4,595.21	87.2948	4,595.21	87.6793	4,595.21	86.1104	4,595.21	86.6863	4,595.21	85.2224	4,595.21	85.8397	4,595.21	83.4879	4,595.21	84.6035	4,595.21	82.3665	4,595.21	82.9763	4,595.21	80.3325	4,595.21	81.2027	4,595.21	77.9987	4,595.21	79.3379	4,595.21	75.5706	4,595.21	76.9014	4,595.21	74.2234	4,595.21	74.4164	4,595.21	71.5095	4,595.21	73.3414	4,595.21	67.5973	4,595.21	70.7403	4,595.21	67.9117	4,595.21	68.3414	4,595.21	67.8633	4,595.21	69.301	4,595.21	64.52	4,595.21	67.029	4,595.21	67.6731	4,595.21	66.9352	4,595.21	60.6615	4,595.21	66.4801	4,595.21	70.5003
4,756.35	90.2075	4,756.35	89.2391	4,756.35	89.9976	4,756.35	87.9134	4,756.35	88.6595	4,756.35	86.9146	4,756.35	87.4489	4,756.35	85.9795	4,756.35	86.4858	4,756.35	84.7448	4,756.35	85.6226	4,756.35	82.6839	4,756.35	83.8224	4,756.35	80.5068	4,756.35	82.2789	4,756.35	78.011	4,756.35	80.1767	4,756.35	75.486	4,756.35	77.7401	4,756.35	74.5469	4,756.35	75.1086	4,756.35	71.932	4,756.35	73.3546	4,756.35	69.9563	4,756.35	70.9219	4,756.35	70.2782	4,756.35	66.669	4,756.35	68.739	4,756.35	68.4634	4,756.35	64.1579	4,756.35	66.3916	4,756.35	67.8299	4,756.35	65.4528	4,756.35	58.3942	4,756.35	64.6401	4,756.35	70.6828
4,924.8	89.785	4,924.8	88.7747	4,924.8	89.5184	4,924.8	87.7048	4,924.8	88.2973	4,924.8	87.3484	4,924.8	86.7841	4,924.8	87.2441	4,924.8	86.2948	4,924.8	86.5193	4,924.8	85.5513	4,924.8	84.7137	4,924.8	84.3021	4,924.8	82.4544	4,924.8	82.3167	4,924.8	79.8998	4,924.8	79.4999	4,924.8	77.4514	4,924.8	77.2013	4,924.8	74.8202	4,924.8	74.599	4,924.8	71.955	4,924.8	72.3219	4,924.8	70.6993	4,924.8	70.1825	4,924.8	69.1863	4,924.8	68.0442	4,924.8	68.0254	4,924.8	66.8458	4,924.8	66.0409	4,924.8	67.1107	4,924.8	67.661	4,924.8	63.2344	4,924.8	61.0267	4,924.8	62.936	4,924.8	70.0162
5,097.66	89.1808	5,097.66	87.9536	5,097.66	89.0964	5,097.66	86.7981	5,097.66	88.2285	5,097.66	86.3611	5,097.66	87.0469	5,097.66	86.428	5,097.66	86.7731	5,097.66	85.4372	5,097.66	86.1861	5,097.66	83.3548	5,097.66	84.3009	5,097.66	80.8232	5,097.66	81.8854	5,097.66	78.3042	5,097.66	79.3182	5,097.66	75.7285	5,097.66	76.5178	5,097.66	73.7149	5,097.66	74.497	5,097.66	71.1624	5,097.66	72.5185	5,097.66	70.2193	5,097.66	69.1793	5,097.66	68.9949	5,097.66	69.9886	5,097.66	67.4748	5,097.66	68.6013	5,097.66	64.0333	5,097.66	66.5645	5,097.66	66.1947	5,097.66	61.6862	5,097.66	63.3124	5,097.66	63.0104	5,097.66	67.44
5,277.83	89.3241	5,277.83	88.5306	5,277.83	89.2009	5,277.83	87.6754	5,277.83	88.314	5,277.83	87.4254	5,277.83	87.4866	5,277.83	87.362	5,277.83	87.001	5,277.83	86.1518	5,277.83	86.1811	5,277.83	83.6223	5,277.83	84.391	5,277.83	80.4614	5,277.83	81.7511	5,277.83	77.6724	5,277.83	79.1134	5,277.83	74.5396	5,277.83	76.1712	5,277.83	71.6262	5,277.83	73.7137	5,277.83	69.5947	5,277.83	71.6594	5,277.83	67.46	5,277.83	68.6932	5,277.83	67.696	5,277.83	68.0862	5,277.83	66.6233	5,277.83	68.1449	5,277.83	63.3767	5,277.83	67.3423	5,277.83	64.1166	5,277.83	61.6553	5,277.83	60.1675	5,277.83	61.28	5,277.83	67.4677
5,463.87	89.2838	5,463.87	88.2986	5,463.87	89.3972	5,463.87	87.5156	5,463.87	88.4797	5,463.87	87.3003	5,463.87	87.9163	5,463.87	86.8122	5,463.87	87.3179	5,463.87	85.352	5,463.87	86.2477	5,463.87	82.5964	5,463.87	84.2569	5,463.87	79.8532	5,463.87	81.3213	5,463.87	77.5107	5,463.87	78.8961	5,463.87	74.9149	5,463.87	75.8525	5,463.87	72.7096	5,463.87	73.9591	5,463.87	70.8637	5,463.87	70.8043	5,463.87	68.3228	5,463.87	67.6326	5,463.87	66.3435	5,463.87	67.3136	5,463.87	67.1028	5,463.87	67.1554	5,463.87	63.9288	5,463.87	66.0882	5,463.87	63.306	5,463.87	60.1383	5,463.87	58.4136	5,463.87	63.0965	5,463.87	65.912
5,657.23	88.9601	5,657.23	88.2552	5,657.23	88.8648	5,657.23	87.8688	5,657.23	88.2679	5,657.23	87.7561	5,657.23	87.7879	5,657.23	86.9698	5,657.23	87.2271	5,657.23	85.1172	5,657.23	85.7803	5,657.23	82.3243	5,657.23	83.9234	5,657.23	79.3064	5,657.23	81.0106	5,657.23	76.7981	5,657.23	78.676	5,657.23	73.5995	5,657.23	75.4129	5,657.23	70.9433	5,657.23	73.9241	5,657.23	70.6098	5,657.23	71.6815	5,657.23	67.0952	5,657.23	69.2505	5,657.23	65.5694	5,657.23	66.858	5,657.23	66.0022	5,657.23	66.6087	5,657.23	63.4664	5,657.23	66.5013	5,657.23	57.0606	5,657.23	62.2448	5,657.23	54.6033	5,657.23	61.7903	5,657.23	63.485
5,856.45	88.9052	5,856.45	88.103	5,856.45	88.7805	5,856.45	87.1474	5,856.45	88.1385	5,856.45	86.7602	5,856.45	87.6124	5,856.45	86.2815	5,856.45	87.1776	5,856.45	84.38	5,856.45	85.9977	5,856.45	81.9707	5,856.45	83.9694	5,856.45	79.4589	5,856.45	81.2722	5,856.45	77.2646	5,856.45	78.4578	5,856.45	75.0778	5,856.45	75.4818	5,856.45	72.958	5,856.45	73.3051	5,856.45	71.666	5,856.45	71.3957	5,856.45	68.7629	5,856.45	68.8207	5,856.45	67.5317	5,856.45	67.372	5,856.45	66.9482	5,856.45	65.6666	5,856.45	67.0822	5,856.45	66.8404	5,856.45	61.4496	5,856.45	64.427	5,856.45	55.2038	5,856.45	60.2609	5,856.45	64.0266
6,062.99	89.211	6,062.99	88.2545	6,062.99	88.8351	6,062.99	87.6933	6,062.99	87.8288	6,062.99	87.6214	6,062.99	87.6163	6,062.99	86.8441	6,062.99	87.3426	6,062.99	85.4679	6,062.99	86.2343	6,062.99	83.0263	6,062.99	84.2827	6,062.99	80.4133	6,062.99	81.61	6,062.99	78.0205	6,062.99	79.0528	6,062.99	74.68	6,062.99	76.3726	6,062.99	72.2308	6,062.99	74.5608	6,062.99	70.0961	6,062.99	72.1463	6,062.99	67.2413	6,062.99	70.0313	6,062.99	68.2924	6,062.99	68.6593	6,062.99	64.0995	6,062.99	67.6526	6,062.99	66.5739	6,062.99	66.1011	6,062.99	60.9418	6,062.99	65.0429	6,062.99	51.6547	6,062.99	64.4499	6,062.99	65.1148
6,276.86	88.6945	6,276.86	87.6689	6,276.86	88.605	6,276.86	87.2197	6,276.86	87.8317	6,276.86	87.1761	6,276.86	87.4575	6,276.86	86.399	6,276.86	87.2608	6,276.86	84.6859	6,276.86	85.7889	6,276.86	82.4768	6,276.86	83.9241	6,276.86	79.903	6,276.86	81.5309	6,276.86	77.713	6,276.86	79.0639	6,276.86	75.3897	6,276.86	76.047	6,276.86	72.5364	6,276.86	73.4177	6,276.86	70.6191	6,276.86	71.1688	6,276.86	68.8465	6,276.86	68.8917	6,276.86	67.4275	6,276.86	68.7969	6,276.86	67.2629	6,276.86	68.068	6,276.86	65.7345	6,276.86	64.1166	6,276.86	59.365	6,276.86	62.9748	6,276.86	53.3564	6,276.86	62.5263	6,276.86	65.1063
6,498.05	88.4876	6,498.05	87.7409	6,498.05	88.4866	6,498.05	87.6303	6,498.05	88.0056	6,498.05	87.5109	6,498.05	88.0956	6,498.05	86.8797	6,498.05	87.78	6,498.05	85.2266	6,498.05	86.4231	6,498.05	82.9555	6,498.05	84.7862	6,498.05	80.5432	6,498.05	82.563	6,498.05	77.6915	6,498.05	80.2337	6,498.05	74.6189	6,498.05	76.8876	6,498.05	71.642	6,498.05	74.2417	6,498.05	70.6246	6,498.05	72.1041	6,498.05	68.5006	6,498.05	70.0484	6,498.05	66.6913	6,498.05	69.2742	6,498.05	66.5741	6,498.05	69.1699	6,498.05	65.1322	6,498.05	64.9642	6,498.05	57.8168	6,498.05	64.3688	6,498.05	46.6065	6,498.05	63.5907	6,498.05	64.4048
6,726.56	88.4614	6,726.56	88.1024	6,726.56	88.1889	6,726.56	87.9746	6,726.56	87.8536	6,726.56	87.6838	6,726.56	87.7024	6,726.56	86.9258	6,726.56	87.209	6,726.56	85.5108	6,726.56	85.9771	6,726.56	83.7164	6,726.56	84.5762	6,726.56	80.8681	6,726.56	82.1437	6,726.56	78.1386	6,726.56	79.7058	6,726.56	75.0432	6,726.56	76.5152	6,726.56	72.6555	6,726.56	74.0804	6,726.56	70.5289	6,726.56	71.058	6,726.56	69.1455	6,726.56	69.3547	6,726.56	68.8526	6,726.56	69.2671	6,726.56	67.5121	6,726.56	68.718	6,726.56	65.4763	6,726.56	66.5461	6,726.56	60.8405	6,726.56	63.0134	6,726.56	50.7081	6,726.56	61.8693	6,726.56	62.7098
6,963.87	88.1813	6,963.87	88.0953	6,963.87	88.3087	6,963.87	87.7607	6,963.87	88.2583	6,963.87	87.2971	6,963.87	87.9002	6,963.87	86.4188	6,963.87	87.215	6,963.87	85.0582	6,963.87	86.2795	6,963.87	83.1806	6,963.87	84.6753	6,963.87	79.8261	6,963.87	82.4616	6,963.87	76.8311	6,963.87	79.4318	6,963.87	73.293	6,963.87	76.2599	6,963.87	71.1673	6,963.87	73.2925	6,963.87	69.023	6,963.87	70.5791	6,963.87	68.2867	6,963.87	69.2123	6,963.87	67.9419	6,963.87	68.2556	6,963.87	66.3316	6,963.87	68.0534	6,963.87	63.5822	6,963.87	67.2981	6,963.87	58.5422	6,963.87	64.4615	6,963.87	53.573	6,963.87	63.5713	6,963.87	61.5565
7,209.96	88.2016	7,209.96	88.3189	7,209.96	88.3655	7,209.96	88.1131	7,209.96	88.6811	7,209.96	87.3421	7,209.96	88.0784	7,209.96	86.835	7,209.96	87.5433	7,209.96	85.6528	7,209.96	86.7708	7,209.96	83.52	7,209.96	85.0132	7,209.96	81.0209	7,209.96	82.8293	7,209.96	77.7649	7,209.96	79.5918	7,209.96	74.8273	7,209.96	76.3042	7,209.96	71.6497	7,209.96	73.9977	7,209.96	69.3695	7,209.96	71.1425	7,209.96	67.5058	7,209.96	68.5816	7,209.96	69.0824	7,209.96	68.328	7,209.96	68.6998	7,209.96	68.6348	7,209.96	66.3301	7,209.96	68.8128	7,209.96	63.3085	7,209.96	65.1787	7,209.96	47.8156	7,209.96	61.1671	7,209.96	61.0159
7,464.84	87.789	7,464.84	88.1327	7,464.84	87.8415	7,464.84	87.9824	7,464.84	88.0671	7,464.84	87.1716	7,464.84	87.2589	7,464.84	87.0145	7,464.84	86.5935	7,464.84	85.5534	7,464.84	85.9233	7,464.84	83.1052	7,464.84	84.3053	7,464.84	80.0768	7,464.84	81.2488	7,464.84	76.4335	7,464.84	78.5196	7,464.84	73.1336	7,464.84	74.5289	7,464.84	70.953	7,464.84	71.9174	7,464.84	69.1617	7,464.84	69.1468	7,464.84	65.7488	7,464.84	67.3146	7,464.84	63.4309	7,464.84	66.8026	7,464.84	67.016	7,464.84	65.5558	7,464.84	64.417	7,464.84	67.2023	7,464.84	61.9898	7,464.84	63.3723	7,464.84	50.6173	7,464.84	62.0418	7,464.84	59.74
7,727.05	88.1861	7,727.05	88.6369	7,727.05	88.5483	7,727.05	88.0497	7,727.05	88.7998	7,727.05	87.0318	7,727.05	87.8912	7,727.05	86.664	7,727.05	87.2724	7,727.05	85.3682	7,727.05	86.5874	7,727.05	82.2715	7,727.05	84.6336	7,727.05	79.0968	7,727.05	81.7663	7,727.05	76.0723	7,727.05	77.9554	7,727.05	73.1686	7,727.05	75.4377	7,727.05	71.1939	7,727.05	72.7776	7,727.05	69.0336	7,727.05	70.5147	7,727.05	67.4504	7,727.05	68.8704	7,727.05	67.1661	7,727.05	66.4374	7,727.05	67.3137	7,727.05	65.8384	7,727.05	64.1801	7,727.05	67.5295	7,727.05	63.9962	7,727.05	64.9827	7,727.05	49.1331	7,727.05	60.7987	7,727.05	60.8623
7,999.51	87.5992	7,999.51	88.2571	7,999.51	88.0166	7,999.51	87.5354	7,999.51	88.264	7,999.51	86.6534	7,999.51	87.1057	7,999.51	86.576	7,999.51	86.6649	7,999.51	85.1612	7,999.51	85.9869	7,999.51	82.485	7,999.51	84.0557	7,999.51	79.5799	7,999.51	80.9537	7,999.51	76.5669	7,999.51	78.2349	7,999.51	73.784	7,999.51	74.7579	7,999.51	71.3352	7,999.51	71.6657	7,999.51	68.6907	7,999.51	69.521	7,999.51	67.5349	7,999.51	67.5313	7,999.51	66.2713	7,999.51	66.2454	7,999.51	65.7664	7,999.51	64.1418	7,999.51	64.0336	7,999.51	66.8508	7,999.51	63.1641	7,999.51	64.3117	7,999.51	50.4797	7,999.51	62.792	7,999.51	61.5709
8,282.23	88.132	8,282.23	88.5874	8,282.23	88.4393	8,282.23	87.8906	8,282.23	88.7975	8,282.23	86.7867	8,282.23	87.343	8,282.23	86.8055	8,282.23	87.0234	8,282.23	85.364	8,282.23	86.369	8,282.23	82.5949	8,282.23	84.0814	8,282.23	79.5782	8,282.23	81.5433	8,282.23	76.6553	8,282.23	78.6336	8,282.23	73.2503	8,282.23	75.2646	8,282.23	70.6943	8,282.23	72.7925	8,282.23	67.7763	8,282.23	69.3654	8,282.23	67.5039	8,282.23	68.4706	8,282.23	66.8865	8,282.23	67.3564	8,282.23	64.9252	8,282.23	65.3995	8,282.23	63.9863	8,282.23	66.3342	8,282.23	62.3292	8,282.23	65.4735	8,282.23	54.9509	8,282.23	62.0955	8,282.23	61.4885
8,573.73	87.9099	8,573.73	88.6732	8,573.73	88.2364	8,573.73	87.7229	8,573.73	88.3138	8,573.73	86.7939	8,573.73	87.0486	8,573.73	86.51	8,573.73	86.6135	8,573.73	84.7243	8,573.73	85.5958	8,573.73	82.328	8,573.73	83.7685	8,573.73	79.8852	8,573.73	81.4137	8,573.73	76.3942	8,573.73	78.8773	8,573.73	73.5099	8,573.73	75.1876	8,573.73	70.4196	8,573.73	71.5013	8,573.73	68.056	8,573.73	69.4709	8,573.73	67.1567	8,573.73	67.379	8,573.73	65.7577	8,573.73	64.1985	8,573.73	65.4684	8,573.73	64.7948	8,573.73	63.9548	8,573.73	66.6882	8,573.73	63.1734	8,573.73	64.9411	8,573.73	52.145	8,573.73	63.046	8,573.73	60.0699
8,876.95	88.4091	8,876.95	88.5006	8,876.95	88.5363	8,876.95	87.6963	8,876.95	88.5552	8,876.95	86.6655	8,876.95	87.5169	8,876.95	85.9004	8,876.95	86.7849	8,876.95	84.447	8,876.95	85.6371	8,876.95	82.2493	8,876.95	83.8286	8,876.95	79.7247	8,876.95	81.3043	8,876.95	76.3265	8,876.95	78.6589	8,876.95	72.6634	8,876.95	74.8729	8,876.95	69.636	8,876.95	72.1456	8,876.95	67.4568	8,876.95	69.3609	8,876.95	66.3848	8,876.95	67.3392	8,876.95	65.7204	8,876.95	64.3688	8,876.95	63.2625	8,876.95	64.8184	8,876.95	63.8605	8,876.95	65.6165	8,876.95	62.6229	8,876.95	64.9422	8,876.95	53.4189	8,876.95	60.6402	8,876.95	60.0845
9,188.96	88.3853	9,188.96	88.2464	9,188.96	88.2903	9,188.96	87.6767	9,188.96	88.1011	9,188.96	86.6	9,188.96	87.203	9,188.96	85.5351	9,188.96	86.0531	9,188.96	84.1545	9,188.96	84.8402	9,188.96	82.05	9,188.96	83.1058	9,188.96	78.9886	9,188.96	80.5246	9,188.96	75.4568	9,188.96	77.4179	9,188.96	71.7322	9,188.96	73.4338	9,188.96	69.9941	9,188.96	70.6994	9,188.96	66.361	9,188.96	68.025	9,188.96	64.944	9,188.96	65.5746	9,188.96	64.2592	9,188.96	63.6239	9,188.96	63.5917	9,188.96	63.9847	9,188.96	63.194	9,188.96	64.3184	9,188.96	61.9147	9,188.96	63.5143	9,188.96	53.0421	9,188.96	60.0852	9,188.96	57.759
9,514.16	88.8193	9,514.16	88.3443	9,514.16	88.6951	9,514.16	87.9411	9,514.16	88.3256	9,514.16	86.54	9,514.16	87.5106	9,514.16	85.2399	9,514.16	85.9618	9,514.16	83.8599	9,514.16	84.8776	9,514.16	81.4901	9,514.16	83.3886	9,514.16	77.7874	9,514.16	80.4812	9,514.16	74.8249	9,514.16	77.1178	9,514.16	71.3537	9,514.16	73.4644	9,514.16	68.528	9,514.16	70.3777	9,514.16	66.0626	9,514.16	68.0753	9,514.16	65.5896	9,514.16	65.8986	9,514.16	62.7278	9,514.16	63.5826	9,514.16	60.9513	9,514.16	63.334	9,514.16	62.7697	9,514.16	63.1444	9,514.16	61.4015	9,514.16	63.0434	9,514.16	49.7235	9,514.16	59.4426	9,514.16	58.1053
9,849.61	88.8261	9,849.61	88.1522	9,849.61	88.5184	9,849.61	88.0343	9,849.61	88.2221	9,849.61	86.4206	9,849.61	87.4352	9,849.61	85.0403	9,849.61	85.6959	9,849.61	83.5909	9,849.61	84.4028	9,849.61	81.269	9,849.61	82.8572	9,849.61	77.8131	9,849.61	79.7112	9,849.61	74.3937	9,849.61	76.5194	9,849.61	71.0286	9,849.61	72.7875	9,849.61	68.4669	9,849.61	69.4594	9,849.61	66.8712	9,849.61	66.5504	9,849.61	65.6913	9,849.61	65.7439	9,849.61	60.7394	9,849.61	63.4465	9,849.61	60.2744	9,849.61	62.2823	9,849.61	63.0147	9,849.61	61.8498	9,849.61	61.691	9,849.61	62.8123	9,849.61	54.8257	9,849.61	59.7461	9,849.61	56.7913
10,196.8	89.1106	10,196.8	88.2508	10,196.8	88.7251	10,196.8	88.2188	10,196.8	88.6892	10,196.8	86.5471	10,196.8	87.8204	10,196.8	85.0651	10,196.8	85.7732	10,196.8	83.6746	10,196.8	84.6705	10,196.8	81.1275	10,196.8	82.8216	10,196.8	77.9229	10,196.8	79.7656	10,196.8	74.3223	10,196.8	76.4525	10,196.8	70.4211	10,196.8	72.8725	10,196.8	68.1236	10,196.8	69.6658	10,196.8	65.0713	10,196.8	67.1316	10,196.8	64.3354	10,196.8	65.4498	10,196.8	61.7108	10,196.8	64.8439	10,196.8	60.7138	10,196.8	62.0394	10,196.8	62.648	10,196.8	61.8128	10,196.8	61.0015	10,196.8	63.1812	10,196.8	53.0208	10,196.8	55.6276	10,196.8	56.0438
10,555.7	88.9612	10,555.7	88.1691	10,555.7	88.5616	10,555.7	88.0733	10,555.7	88.4948	10,555.7	86.3234	10,555.7	87.6222	10,555.7	84.9247	10,555.7	85.7124	10,555.7	83.2723	10,555.7	84.467	10,555.7	80.6581	10,555.7	82.1801	10,555.7	77.4016	10,555.7	79.2131	10,555.7	74.1534	10,555.7	76.1749	10,555.7	70.1752	10,555.7	72.6676	10,555.7	68.1003	10,555.7	69.6256	10,555.7	64.2803	10,555.7	66.3257	10,555.7	64.3545	10,555.7	65.0314	10,555.7	61.7901	10,555.7	63.6756	10,555.7	61.3244	10,555.7	60.8687	10,555.7	62.1515	10,555.7	61.4395	10,555.7	60.327	10,555.7	62.8587	10,555.7	56.2586	10,555.7	54.3074	10,555.7	55.4861
10,927.7	88.8662	10,927.7	88.0956	10,927.7	88.5556	10,927.7	87.9534	10,927.7	88.2727	10,927.7	86.3568	10,927.7	87.3654	10,927.7	84.8013	10,927.7	85.5084	10,927.7	83.2547	10,927.7	84.2253	10,927.7	80.9409	10,927.7	82.2605	10,927.7	77.8551	10,927.7	79.7017	10,927.7	73.9924	10,927.7	76.4157	10,927.7	70.4296	10,927.7	72.5391	10,927.7	67.7284	10,927.7	68.5515	10,927.7	64.2926	10,927.7	66.1451	10,927.7	64.2572	10,927.7	64.4085	10,927.7	59.1829	10,927.7	62.847	10,927.7	59.1334	10,927.7	59.8761	10,927.7	61.9096	10,927.7	59.1713	10,927.7	59.9148	10,927.7	63.3038	10,927.7	56.6704	10,927.7	50.2655	10,927.7	54.038
11,313	88.7661	11,313	88.0606	11,313	88.4778	11,313	87.5324	11,313	88.1486	11,313	86.1253	11,313	87.1311	11,313	84.4544	11,313	85.4494	11,313	83.1535	11,313	84.1057	11,313	80.8956	11,313	82.4173	11,313	77.7947	11,313	79.7263	11,313	73.7176	11,313	76.366	11,313	70.3659	11,313	72.3316	11,313	67.7205	11,313	68.377	11,313	65.0382	11,313	66.6529	11,313	62.6745	11,313	64.2281	11,313	58.7555	11,313	62.6446	11,313	59.6018	11,313	60.1341	11,313	60.7055	11,313	57.8036	11,313	61.1621	11,313	62.6317	11,313	55.5886	11,313	45.7043	11,313	54.3295
11,712.9	88.524	11,712.9	87.9969	11,712.9	88.3489	11,712.9	87.0245	11,712.9	87.9003	11,712.9	86.1122	11,712.9	86.9342	11,712.9	83.9658	11,712.9	85.0445	11,712.9	83.1665	11,712.9	83.8286	11,712.9	80.7471	11,712.9	82.0659	11,712.9	77.5015	11,712.9	78.9856	11,712.9	74.1284	11,712.9	75.6129	11,712.9	70.1641	11,712.9	72.1941	11,712.9	68.7391	11,712.9	68.8338	11,712.9	64.7742	11,712.9	66.676	11,712.9	62.6422	11,712.9	64.593	11,712.9	59.7666	11,712.9	60.7718	11,712.9	60.5008	11,712.9	59.4599	11,712.9	61.0553	11,712.9	57.7287	11,712.9	61.1803	11,712.9	61.3257	11,712.9	57.5207	11,712.9	46.7755	11,712.9	52.8023
12,126	88.2668	12,126	87.9763	12,126	88.4057	12,126	86.9013	12,126	87.616	12,126	85.9049	12,126	86.8535	12,126	83.8548	12,126	84.8856	12,126	83.2951	12,126	83.9781	12,126	81.0728	12,126	82.3172	12,126	77.7528	12,126	79.8173	12,126	74.6281	12,126	76.5704	12,126	71.0361	12,126	73.0783	12,126	68.4467	12,126	68.8472	12,126	65.5516	12,126	66.5643	12,126	63.5202	12,126	64.9194	12,126	60.8276	12,126	62.3278	12,126	60.6536	12,126	60.9902	12,126	61.4592	12,126	57.425	12,126	61.4298	12,126	60.3491	12,126	57.8019	12,126	41.6766	12,126	52.8075
12,553.7	88.2591	12,553.7	87.9994	12,553.7	88.45	12,553.7	86.7268	12,553.7	87.2341	12,553.7	85.5737	12,553.7	86.6744	12,553.7	84.2313	12,553.7	84.6448	12,553.7	83.3325	12,553.7	84.0169	12,553.7	81.9489	12,553.7	82.6295	12,553.7	79.2619	12,553.7	80.5491	12,553.7	75.1057	12,553.7	77.5739	12,553.7	71.4766	12,553.7	73.5189	12,553.7	68.7204	12,553.7	69.0689	12,553.7	65.4795	12,553.7	67.3403	12,553.7	63.2482	12,553.7	65.1179	12,553.7	61.6269	12,553.7	61.0457	12,553.7	61.7718	12,553.7	61.5676	12,553.7	61.6024	12,553.7	56.4418	12,553.7	61.7973	12,553.7	59.7669	12,553.7	56.4305	12,553.7	39.8229	12,553.7	51.9942
12,996.1	88.0414	12,996.1	87.9494	12,996.1	88.3924	12,996.1	86.593	12,996.1	87.1246	12,996.1	85.6133	12,996.1	86.7036	12,996.1	84.8656	12,996.1	84.7169	12,996.1	83.3775	12,996.1	83.6557	12,996.1	82.4522	12,996.1	82.8533	12,996.1	79.422	12,996.1	80.6662	12,996.1	75.0173	12,996.1	76.7066	12,996.1	70.6786	12,996.1	72.6049	12,996.1	68.344	12,996.1	69.147	12,996.1	64.3941	12,996.1	66.9684	12,996.1	62.4355	12,996.1	63.8929	12,996.1	61.9845	12,996.1	61.5562	12,996.1	60.9123	12,996.1	61.2301	12,996.1	61.5623	12,996.1	56.8671	12,996.1	60.4884	12,996.1	58.2737	12,996.1	56.649	12,996.1	47.5284	12,996.1	50.7994
13,454.6	87.9519	13,454.6	87.7639	13,454.6	88.1658	13,454.6	86.5808	13,454.6	86.8737	13,454.6	85.6495	13,454.6	86.2275	13,454.6	84.9534	13,454.6	85.0863	13,454.6	83.543	13,454.6	83.5962	13,454.6	82.5067	13,454.6	83.0824	13,454.6	79.1725	13,454.6	80.4177	13,454.6	74.6356	13,454.6	76.903	13,454.6	70.5992	13,454.6	72.4077	13,454.6	68.582	13,454.6	68.9509	13,454.6	63.9251	13,454.6	65.6207	13,454.6	62.9725	13,454.6	63.7581	13,454.6	62.0804	13,454.6	62.2822	13,454.6	61.049	13,454.6	60.7134	13,454.6	61.6715	13,454.6	54.7179	13,454.6	59.1618	13,454.6	56.6284	13,454.6	55.413	13,454.6	49.0861	13,454.6	49.8267
13,929.2	88.0791	13,929.2	87.7104	13,929.2	88.1322	13,929.2	86.6327	13,929.2	86.7921	13,929.2	85.5396	13,929.2	85.7331	13,929.2	84.64	13,929.2	84.8576	13,929.2	83.7247	13,929.2	83.4008	13,929.2	81.9058	13,929.2	82.871	13,929.2	78.5047	13,929.2	80.1895	13,929.2	74.3534	13,929.2	76.3802	13,929.2	69.8853	13,929.2	72.1515	13,929.2	67.79	13,929.2	68.4888	13,929.2	63.8195	13,929.2	64.916	13,929.2	62.8051	13,929.2	65.1231	13,929.2	62.0178	13,929.2	62.9726	13,929.2	60.5058	13,929.2	59.6437	13,929.2	61.0617	13,929.2	54.249	13,929.2	57.6603	13,929.2	58.0291	13,929.2	52.0451	13,929.2	50.9058	13,929.2	48.453
14,419.9	87.9399	14,419.9	87.6756	14,419.9	88.035	14,419.9	86.3117	14,419.9	87.0067	14,419.9	86.0156	14,419.9	86.291	14,419.9	84.9951	14,419.9	85.5107	14,419.9	83.9986	14,419.9	84.4003	14,419.9	82.015	14,419.9	83.4758	14,419.9	79.2255	14,419.9	81.0038	14,419.9	75.1221	14,419.9	76.5998	14,419.9	70.0361	14,419.9	73.1264	14,419.9	68.1147	14,419.9	68.9443	14,419.9	63.3807	14,419.9	65.592	14,419.9	62.2665	14,419.9	66.0129	14,419.9	61.7217	14,419.9	63.4066	14,419.9	60.0998	14,419.9	60.3967	14,419.9	61.5681	14,419.9	52.5576	14,419.9	55.5441	14,419.9	58.9759	14,419.9	52.7574	14,419.9	51.6032	14,419.9	48.3575
14,928.2	87.8537	14,928.2	87.2796	14,928.2	88.0343	14,928.2	86.1949	14,928.2	87.1783	14,928.2	85.8882	14,928.2	86.4956	14,928.2	85.0318	14,928.2	85.8606	14,928.2	83.8159	14,928.2	85.1457	14,928.2	81.9037	14,928.2	83.2552	14,928.2	78.4653	14,928.2	81.126	14,928.2	74.0746	14,928.2	76.762	14,928.2	68.856	14,928.2	72.4476	14,928.2	67.1448	14,928.2	67.2794	14,928.2	60.1441	14,928.2	64.5742	14,928.2	62.2107	14,928.2	65.1261	14,928.2	61.5736	14,928.2	62.576	14,928.2	59.7344	14,928.2	58.5528	14,928.2	60.0325	14,928.2	47.1648	14,928.2	54.8752	14,928.2	57.1745	14,928.2	52.9104	14,928.2	52.1941	14,928.2	50.5148
15,455.6	88.2047	15,455.6	87.7594	15,455.6	88.1468	15,455.6	86.9111	15,455.6	87.4248	15,455.6	86.4062	15,455.6	86.6308	15,455.6	85.5582	15,455.6	85.966	15,455.6	83.9146	15,455.6	84.8676	15,455.6	82.0467	15,455.6	82.9403	15,455.6	77.19	15,455.6	80.3445	15,455.6	73.0408	15,455.6	75.5836	15,455.6	68.8812	15,455.6	71.4997	15,455.6	65.9825	15,455.6	66.2596	15,455.6	60.3751	15,455.6	64.1135	15,455.6	61.973	15,455.6	64.0357	15,455.6	60.9596	15,455.6	59.4674	15,455.6	58.465	15,455.6	56.277	15,455.6	58.642	15,455.6	42.2002	15,455.6	50.9998	15,455.6	55.4338	15,455.6	51.6053	15,455.6	50.6005	15,455.6	47.6811
16,000.5	88.63	16,000.5	88.1873	16,000.5	88.6684	16,000.5	87.1765	16,000.5	88.1112	16,000.5	86.9441	16,000.5	87.5132	16,000.5	85.7981	16,000.5	86.7403	16,000.5	83.811	16,000.5	84.9608	16,000.5	81.56	16,000.5	83.1241	16,000.5	77.2006	16,000.5	79.8558	16,000.5	72.2711	16,000.5	74.063	16,000.5	69.0012	16,000.5	70.8127	16,000.5	64.3111	16,000.5	65.7419	16,000.5	61.1284	16,000.5	62.9869	16,000.5	61.9214	16,000.5	61.5393	16,000.5	60.0183	16,000.5	55.7719	16,000.5	57.6803	16,000.5	55.8337	16,000.5	56.7821	16,000.5	50.046	16,000.5	48.1326	16,000.5	47.0278	16,000.5	53.5902	16,000.5	49.3649	16,000.5	47.0834
16,564.5	88.573	16,564.5	88.0686	16,564.5	88.6171	16,564.5	87.7221	16,564.5	88.1718	16,564.5	86.9681	16,564.5	87.2738	16,564.5	85.6104	16,564.5	86.5484	16,564.5	83.7142	16,564.5	84.393	16,564.5	80.7197	16,564.5	82.1077	16,564.5	76.433	16,564.5	78.2295	16,564.5	70.826	16,564.5	74.0446	16,564.5	68.1707	16,564.5	69.4952	16,564.5	62.6022	16,564.5	63.6599	16,564.5	61.7245	16,564.5	61.7114	16,564.5	60.3677	16,564.5	61.3193	16,564.5	56.3759	16,564.5	54.2101	16,564.5	55.4718	16,564.5	54.5	16,564.5	52.8034	16,564.5	53.2192	16,564.5	48.4539	16,564.5	49.9482	16,564.5	52.7954	16,564.5	47.0712	16,564.5	43.3863
17,148.9	88.6847	17,148.9	88.3498	17,148.9	88.6842	17,148.9	87.9754	17,148.9	88.5348	17,148.9	87.3269	17,148.9	87.6084	17,148.9	86.045	17,148.9	86.4851	17,148.9	83.6537	17,148.9	84.2336	17,148.9	80.6217	17,148.9	81.2476	17,148.9	76.2448	17,148.9	78.0776	17,148.9	70.6849	17,148.9	72.1027	17,148.9	67.3119	17,148.9	68.5069	17,148.9	61.5482	17,148.9	62.3452	17,148.9	60.5004	17,148.9	61.432	17,148.9	59.0944	17,148.9	59.9823	17,148.9	54.099	17,148.9	54.2991	17,148.9	53.7025	17,148.9	52.7606	17,148.9	50.193	17,148.9	51.9719	17,148.9	47.7945	17,148.9	50.3201	17,148.9	54.3836	17,148.9	42.8877	17,148.9	37.251
17,752.4	88.6944	17,752.4	88.6366	17,752.4	89.0021	17,752.4	88.2727	17,752.4	88.8622	17,752.4	87.5391	17,752.4	87.953	17,752.4	85.9032	17,752.4	86.6818	17,752.4	82.9812	17,752.4	84.2481	17,752.4	79.6355	17,752.4	80.5934	17,752.4	74.143	17,752.4	76.3207	17,752.4	67.3019	17,752.4	70.7464	17,752.4	66.1359	17,752.4	66.0209	17,752.4	59.8795	17,752.4	61.1207	17,752.4	59.1869	17,752.4	60.4856	17,752.4	57.498	17,752.4	57.9337	17,752.4	51.5211	17,752.4	51.7311	17,752.4	49.375	17,752.4	51.1391	17,752.4	46.1581	17,752.4	50.1693	17,752.4	44.4664	17,752.4	50.7893	17,752.4	54.083	17,752.4	44.1371	17,752.4	40.773
18,379.4	88.9271	18,379.4	88.7574	18,379.4	89.1171	18,379.4	88.5747	18,379.4	89.2198	18,379.4	87.3742	18,379.4	88.0971	18,379.4	85.6042	18,379.4	86.4608	18,379.4	82.1033	18,379.4	83.5772	18,379.4	77.6985	18,379.4	78.962	18,379.4	71.6475	18,379.4	73.0361	18,379.4	65.6161	18,379.4	68.0956	18,379.4	63.2772	18,379.4	65.0183	18,379.4	57.8884	18,379.4	60.9217	18,379.4	56.7816	18,379.4	60.0928	18,379.4	54.4641	18,379.4	56.6876	18,379.4	50.0443	18,379.4	50.075	18,379.4	44.5434	18,379.4	49.5351	18,379.4	42.793	18,379.4	47.7609	18,379.4	49.5806	18,379.4	49.4689	18,379.4	53.0623	18,379.4	45.2212	18,379.4	40.6887
19,026.9	89.0812	19,026.9	89.0734	19,026.9	89.4007	19,026.9	88.589	19,026.9	89.4531	19,026.9	87.3618	19,026.9	88.3041	19,026.9	84.8065	19,026.9	86.308	19,026.9	80.3744	19,026.9	82.756	19,026.9	74.5845	19,026.9	77.0971	19,026.9	68.8341	19,026.9	71.8497	19,026.9	61.0491	19,026.9	68.0809	19,026.9	62.1262	19,026.9	63.9362	19,026.9	54.8298	19,026.9	61.7909	19,026.9	55.7346	19,026.9	59.095	19,026.9	54.1068	19,026.9	54.3833	19,026.9	48.8777	19,026.9	48.4757	19,026.9	35.2232	19,026.9	50.3207	19,026.9	43.6922	19,026.9	46.6692	19,026.9	48.1035	19,026.9	47.6379	19,026.9	51.2656	19,026.9	48.2997	19,026.9	37.6731
19,697.8	89.5754	19,697.8	89.4752	19,697.8	89.8664	19,697.8	88.8066	19,697.8	89.8205	19,697.8	87.0574	19,697.8	88.3748	19,697.8	83.939	19,697.8	86.1792	19,697.8	78.7217	19,697.8	82.4129	19,697.8	72.1569	19,697.8	76.2438	19,697.8	65.0517	19,697.8	72.0462	19,697.8	62.5254	19,697.8	68.8993	19,697.8	61.7507	19,697.8	65.457	19,697.8	55.3166	19,697.8	63.0433	19,697.8	57.8841	19,697.8	59.9243	19,697.8	54.1071	19,697.8	55.7366	19,697.8	38.9114	19,697.8	51.1838	19,697.8	38.786	19,697.8	50.0287	19,697.8	37.1675	19,697.8	47.4717	19,697.8	49.6399	19,697.8	48.3901	19,697.8	50.6496	19,697.8	50.087	19,697.8	30.6808
19,999.5	89.5388	19,999.5	89.2615	19,999.5	90.1336	19,999.5	89.4062	19,999.5	90.0938	19,999.5	87.2928	19,999.5	88.2667	19,999.5	84.1472	19,999.5	86.3131	19,999.5	77.5938	19,999.5	81.9136	19,999.5	72.1483	19,999.5	76.1342	19,999.5	65.2216	19,999.5	74.1484	19,999.5	61.9632	19,999.5	69.3528	19,999.5	65.9021	19,999.5	67.3596	19,999.5	54.6803	19,999.5	61.7759	19,999.5	57.3386	19,999.5	56.9715	19,999.5	56.7674	19,999.5	63.1438	19,999.5	42.8236	19,999.5	53.7935	19,999.5	50.6842	19,999.5	55.1509	19,999.5	42.8581	19,999.5	55.4441	19,999.5	46.0812	19,999.5	50.8327	19,999.5	54.2487	19,999.5	56.1077	19,999.5	44.3404
