"SPL Vertical"
"On-Axis"		"10°"		"-10°"		"20°"		"-20°"		"30°"		"-30°"		"40°"		"-40°"		"50°"		"-50°"		"60°"		"-60°"		"70°"		"-70°"		"80°"		"-80°"		"90°"		"-90°"		"100°"		"-100°"		"110°"		"-110°"		"120°"		"-120°"		"130°"		"-130°"		"140°"		"-140°"		"150°"		"-150°"		"160°"		"-160°"		"170°"		"-170°"		"180°"
"Frequency [Hz]"	"Sound Pessure Level [dB]  / [2.83V 1m] "	"Frequency [Hz]"	"Sound Pessure Level [dB]  / [2.83V 1m] "	"Frequency [Hz]"	"Sound Pessure Level [dB]  / [2.83V 1m] "	"Frequency [Hz]"	"Sound Pessure Level [dB]  / [2.83V 1m] "	"Frequency [Hz]"	"Sound Pessure Level [dB]  / [2.83V 1m] "	"Frequency [Hz]"	"Sound Pessure Level [dB]  / [2.83V 1m] "	"Frequency [Hz]"	"Sound Pessure Level [dB]  / [2.83V 1m] "	"Frequency [Hz]"	"Sound Pessure Level [dB]  / [2.83V 1m] "	"Frequency [Hz]"	"Sound Pessure Level [dB]  / [2.83V 1m] "	"Frequency [Hz]"	"Sound Pessure Level [dB]  / [2.83V 1m] "	"Frequency [Hz]"	"Sound Pessure Level [dB]  / [2.83V 1m] "	"Frequency [Hz]"	"Sound Pessure Level [dB]  / [2.83V 1m] "	"Frequency [Hz]"	"Sound Pessure Level [dB]  / [2.83V 1m] "	"Frequency [Hz]"	"Sound Pessure Level [dB]  / [2.83V 1m] "	"Frequency [Hz]"	"Sound Pessure Level [dB]  / [2.83V 1m] "	"Frequency [Hz]"	"Sound Pessure Level [dB]  / [2.83V 1m] "	"Frequency [Hz]"	"Sound Pessure Level [dB]  / [2.83V 1m] "	"Frequency [Hz]"	"Sound Pessure Level [dB]  / [2.83V 1m] "	"Frequency [Hz]"	"Sound Pessure Level [dB]  / [2.83V 1m] "	"Frequency [Hz]"	"Sound Pessure Level [dB]  / [2.83V 1m] "	"Frequency [Hz]"	"Sound Pessure Level [dB]  / [2.83V 1m] "	"Frequency [Hz]"	"Sound Pessure Level [dB]  / [2.83V 1m] "	"Frequency [Hz]"	"Sound Pessure Level [dB]  / [2.83V 1m] "	"Frequency [Hz]"	"Sound Pessure Level [dB]  / [2.83V 1m] "	"Frequency [Hz]"	"Sound Pessure Level [dB]  / [2.83V 1m] "	"Frequency [Hz]"	"Sound Pessure Level [dB]  / [2.83V 1m] "	"Frequency [Hz]"	"Sound Pessure Level [dB]  / [2.83V 1m] "	"Frequency [Hz]"	"Sound Pessure Level [dB]  / [2.83V 1m] "	"Frequency [Hz]"	"Sound Pessure Level [dB]  / [2.83V 1m] "	"Frequency [Hz]"	"Sound Pessure Level [dB]  / [2.83V 1m] "	"Frequency [Hz]"	"Sound Pessure Level [dB]  / [2.83V 1m] "	"Frequency [Hz]"	"Sound Pessure Level [dB]  / [2.83V 1m] "	"Frequency [Hz]"	"Sound Pessure Level [dB]  / [2.83V 1m] "	"Frequency [Hz]"	"Sound Pessure Level [dB]  / [2.83V 1m] "	"Frequency [Hz]"	"Sound Pessure Level [dB]  / [2.83V 1m] "	"Frequency [Hz]"	"Sound Pessure Level [dB]  / [2.83V 1m] "
20.5078	57.3719	20.5078	57.2784	20.5078	57.4938	20.5078	57.2188	20.5078	57.6441	20.5078	57.2009	20.5078	57.8321	20.5078	57.2331	20.5078	58.0812	20.5078	57.323	20.5078	58.4333	20.5078	57.4763	20.5078	58.9423	20.5078	57.6964	20.5078	59.6492	20.5078	57.984	20.5078	60.5438	20.5078	58.3373	20.5078	61.5476	20.5078	58.7523	20.5078	62.5406	20.5078	59.2231	20.5078	63.4077	20.5078	59.7426	20.5078	64.0675	20.5078	60.3025	20.5078	64.479	20.5078	60.8938	20.5078	64.6359	20.5078	61.5067	20.5078	64.5584	20.5078	62.1292	20.5078	64.2841	20.5078	62.7456	20.5078	63.8599	20.5078	63.3332
21.9727	53.5345	21.9727	53.7817	21.9727	53.3258	21.9727	54.06	21.9727	53.182	21.9727	54.3706	21.9727	53.167	21.9727	54.7173	21.9727	53.3964	21.9727	55.104	21.9727	54.0153	21.9727	55.5331	21.9727	55.1046	21.9727	56.0058	21.9727	56.5852	21.9727	56.5217	21.9727	58.2519	21.9727	57.0792	21.9727	59.8913	21.9727	57.6755	21.9727	61.3513	21.9727	58.307	21.9727	62.5449	21.9727	58.9691	21.9727	63.4325	21.9727	59.6564	21.9727	64.0063	21.9727	60.3622	21.9727	64.2804	21.9727	61.0771	21.9727	64.2844	21.9727	61.7877	21.9727	64.0588	21.9727	62.4739	21.9727	63.6504	21.9727	63.1073
23.4375	57.1557	23.4375	56.9835	23.4375	57.3421	23.4375	56.8407	23.4375	57.5344	23.4375	56.7453	23.4375	57.7387	23.4375	56.7156	23.4375	57.9866	23.4375	56.7676	23.4375	58.3457	23.4375	56.9134	23.4375	58.9106	23.4375	57.1599	23.4375	59.7511	23.4375	57.5077	23.4375	60.842	23.4375	57.9518	23.4375	62.0553	23.4375	58.4828	23.4375	63.2275	23.4375	59.0883	23.4375	64.2276	23.4375	59.7546	23.4375	64.9775	23.4375	60.4679	23.4375	65.4452	23.4375	61.2143	23.4375	65.6314	23.4375	61.9791	23.4375	65.5586	23.4375	62.7451	23.4375	65.2631	23.4375	63.4898	23.4375	64.7893	23.4375	64.1836
24.9023	60.0597	24.9023	59.8281	24.9023	60.3064	24.9023	59.6262	24.9023	60.5577	24.9023	59.4703	24.9023	60.8112	24.9023	59.3767	24.9023	61.0787	24.9023	59.3602	24.9023	61.394	24.9023	59.4328	24.9023	61.8135	24.9023	59.6023	24.9023	62.3976	24.9023	59.8715	24.9023	63.1684	24.9023	60.238	24.9023	64.0765	24.9023	60.6946	24.9023	65.014	24.9023	61.2307	24.9023	65.863	24.9023	61.8334	24.9023	66.5336	24.9023	62.4883	24.9023	66.9753	24.9023	63.1803	24.9023	67.1726	24.9023	63.8923	24.9023	67.1351	24.9023	64.6048	24.9023	66.89	24.9023	65.2935	24.9023	66.4741	24.9023	65.9286
26.3672	59.6621	26.3672	59.4345	26.3672	59.8827	26.3672	59.2268	26.3672	60.0721	26.3672	59.0672	26.3672	60.2123	26.3672	58.9834	26.3672	60.3006	26.3672	59.0001	26.3672	60.3712	26.3672	59.1355	26.3672	60.5273	26.3672	59.3984	26.3672	60.9498	26.3672	59.7869	26.3672	61.7995	26.3672	60.2896	26.3672	63.042	26.3672	60.889	26.3672	64.4433	26.3672	61.565	26.3672	65.7481	26.3672	62.2973	26.3672	66.7949	26.3672	63.0673	26.3672	67.5155	26.3672	63.8576	26.3672	67.9017	26.3672	64.6512	26.3672	67.9792	26.3672	65.4292	26.3672	67.7924	26.3672	66.1678	26.3672	67.3936	26.3672	66.836
27.832	62.7263	27.832	62.5092	27.832	62.9525	27.832	62.3189	27.832	63.1732	27.832	62.1748	27.832	63.3803	27.832	62.0965	27.832	63.5789	27.832	62.1019	27.832	63.7991	27.832	62.2057	27.832	64.1087	27.832	62.4168	27.832	64.6059	27.832	62.7369	27.832	65.3661	27.832	63.1613	27.832	66.3649	27.832	63.6792	27.832	67.4688	27.832	64.2762	27.832	68.5103	27.832	64.9362	27.832	69.3607	27.832	65.6422	27.832	69.9504	27.832	66.3768	27.832	70.2595	27.832	67.122	27.832	70.3009	27.832	67.8569	27.832	70.1076	27.832	68.5569	27.832	69.7224	27.832	69.1912
29.2969	64.0316	29.2969	63.8235	29.2969	64.2441	29.2969	63.6396	29.2969	64.4429	29.2969	63.5004	29.2969	64.6138	29.2969	63.4264	29.2969	64.753	29.2969	63.4359	29.2969	64.8803	29.2969	63.5434	29.2969	65.0587	29.2969	63.7576	29.2969	65.4031	29.2969	64.0796	29.2969	66.0346	29.2969	64.5033	29.2969	66.9752	29.2969	65.0169	29.2969	68.0959	29.2969	65.6048	29.2969	69.1999	29.2969	66.25	29.2969	70.1275	29.2969	66.935	29.2969	70.7922	29.2969	67.6423	29.2969	71.1679	29.2969	68.3544	29.2969	71.2673	29.2969	69.0515	29.2969	71.1253	29.2969	69.7102	29.2969	70.7875	29.2969	70.3012
30.7617	66.3007	30.7617	66.1371	30.7617	66.479	30.7617	66.0027	30.7617	66.6598	30.7617	65.9133	30.7617	66.838	30.7617	65.8841	30.7617	67.0226	30.7617	65.9285	30.7617	67.2483	30.7617	66.0568	30.7617	67.5843	30.7617	66.2755	30.7617	68.121	30.7617	66.5861	30.7617	68.9139	30.7617	66.9854	30.7617	69.9208	30.7617	67.4661	30.7617	71.0072	30.7617	68.0181	30.7617	72.0182	30.7617	68.6294	30.7617	72.8374	30.7617	69.2866	30.7617	73.4028	30.7617	69.9751	30.7617	73.697	30.7617	70.6784	30.7617	73.7331	30.7617	71.3769	30.7617	73.5432	30.7617	72.0462	30.7617	73.1692	30.7617	72.6561
32.2266	68.2327	32.2266	68.0491	32.2266	68.432	32.2266	67.8945	32.2266	68.6363	32.2266	67.783	32.2266	68.8408	32.2266	67.7287	32.2266	69.0511	32.2266	67.7447	32.2266	69.2926	32.2266	67.8415	32.2266	69.6165	32.2266	68.0259	32.2266	70.0919	32.2266	68.3005	32.2266	70.7695	32.2266	68.6628	32.2266	71.6311	32.2266	69.1064	32.2266	72.5789	32.2266	69.6216	32.2266	73.4814	32.2266	70.1964	32.2266	74.2271	32.2266	70.8174	32.2266	74.7487	32.2266	71.4701	32.2266	75.0215	32.2266	72.1381	32.2266	75.0525	32.2266	72.8025	32.2266	74.8696	32.2266	73.44	32.2266	74.5117	32.2266	74.0216
33.6914	70.6712	33.6914	70.4921	33.6914	70.8723	33.6914	70.3447	33.6914	71.0881	33.6914	70.2398	33.6914	71.3161	33.6914	70.1882	33.6914	71.563	33.6914	70.2003	33.6914	71.8498	33.6914	70.2847	33.6914	72.2157	33.6914	70.4475	33.6914	72.7094	33.6914	70.6918	33.6914	73.3624	33.6914	71.0173	33.6914	74.154	33.6914	71.42	33.6914	75.0047	33.6914	71.8931	33.6914	75.8069	33.6914	72.4271	33.6914	76.4653	33.6914	73.0107	33.6914	76.9191	33.6914	73.6303	33.6914	77.1441	33.6914	74.2703	33.6914	77.1451	33.6914	74.9116	33.6914	76.9469	33.6914	75.5312	33.6914	76.5853	33.6914	76.1005
35.1562	73.0227	35.1562	72.8361	35.1562	73.2308	35.1562	72.6802	35.1562	73.4534	35.1562	72.5645	35.1562	73.6874	35.1562	72.4989	35.1562	73.9368	35.1562	72.4925	35.1562	74.2176	35.1562	72.5531	35.1562	74.5606	35.1562	72.6866	35.1562	75.0057	35.1562	72.8963	35.1562	75.581	35.1562	73.1828	35.1562	76.2753	35.1562	73.5435	35.1562	77.0264	35.1562	73.9729	35.1562	77.7423	35.1562	74.4633	35.1562	78.3354	35.1562	75.0042	35.1562	78.7456	35.1562	75.5833	35.1562	78.9457	35.1562	76.1855	35.1562	78.9371	35.1562	76.7926	35.1562	78.7413	35.1562	77.382	35.1562	78.3915	35.1562	77.926
36.6211	75.2273	36.6211	75.0394	36.6211	75.4382	36.6211	74.8819	36.6211	75.6661	36.6211	74.763	36.6211	75.9087	36.6211	74.691	36.6211	76.1695	36.6211	74.6738	36.6211	76.4618	36.6211	74.7183	36.6211	76.8104	36.6211	74.8303	36.6211	77.2464	36.6211	75.0133	36.6211	77.7906	36.6211	75.2686	36.6211	78.4309	36.6211	75.5951	36.6211	79.114	36.6211	75.989	36.6211	79.76	36.6211	76.4439	36.6211	80.2911	36.6211	76.9511	36.6211	80.6518	36.6211	77.4993	36.6211	80.8162	36.6211	78.0745	36.6211	80.7845	36.6211	78.659	36.6211	80.5766	36.6211	79.2311	36.6211	80.2241	36.6211	79.7635
38.0859	77.3592	38.0859	77.169	38.0859	77.5746	38.0859	77.0096	38.0859	77.811	38.0859	76.8875	38.0859	78.0669	38.0859	76.8093	38.0859	78.3458	38.0859	76.7817	38.0859	78.6578	38.0859	76.8111	38.0859	79.0208	38.0859	76.9026	38.0859	79.456	38.0859	77.0602	38.0859	79.9748	38.0859	77.2856	38.0859	80.5634	38.0859	77.5789	38.0859	81.176	38.0859	77.9375	38.0859	81.7457	38.0859	78.3565	38.0859	82.2058	38.0859	78.8286	38.0859	82.5076	38.0859	79.3438	38.0859	82.6272	38.0859	79.8894	38.0859	82.5647	38.0859	80.4489	38.0859	82.3388	38.0859	81.0019	38.0859	81.9797	38.0859	81.5224
39.5508	79.2089	39.5508	79.013	39.5508	79.4316	39.5508	78.849	39.5508	79.6769	39.5508	78.7224	39.5508	79.943	39.5508	78.6392	39.5508	80.2312	39.5508	78.605	39.5508	80.5483	39.5508	78.6253	39.5508	80.9071	39.5508	78.7044	39.5508	81.3228	39.5508	78.8459	39.5508	81.8039	39.5508	79.0516	39.5508	82.3388	39.5508	79.3217	39.5508	82.8897	39.5508	79.6542	39.5508	83.3993	39.5508	80.0452	39.5508	83.8084	39.5508	80.4882	39.5508	84.0715	39.5508	80.9747	39.5508	84.1656	39.5508	81.4927	39.5508	84.0895	39.5508	82.0271	39.5508	83.8603	39.5508	82.5581	39.5508	83.5063	39.5508	83.0611
41.0156	80.8649	41.0156	80.6521	41.0156	81.1058	41.0156	80.472	41.0156	81.3709	41.0156	80.3295	41.0156	81.6576	41.0156	80.2295	41.0156	81.9658	41.0156	80.177	41.0156	82.2992	41.0156	80.1767	41.0156	82.6656	41.0156	80.2329	41.0156	83.0746	41.0156	80.3491	41.0156	83.5296	41.0156	80.5275	41.0156	84.0188	41.0156	80.769	41.0156	84.5091	41.0156	81.0729	41.0156	84.9517	41.0156	81.4361	41.0156	85.2952	41.0156	81.8535	41.0156	85.5002	41.0156	82.3172	41.0156	85.5463	41.0156	82.8163	41.0156	85.4337	41.0156	83.3363	41.0156	85.1792	41.0156	83.8586	41.0156	84.8103	41.0156	84.3594
42.4805	81.8863	42.4805	81.6701	42.4805	82.1301	42.4805	81.486	42.4805	82.3974	42.4805	81.3387	42.4805	82.6847	42.4805	81.2327	42.4805	82.9901	42.4805	81.1723	42.4805	83.3152	42.4805	81.1616	42.4805	83.6655	42.4805	81.2044	42.4805	84.0501	42.4805	81.3036	42.4805	84.4757	42.4805	81.4617	42.4805	84.9359	42.4805	81.6799	42.4805	85.4027	42.4805	81.9585	42.4805	85.8285	42.4805	82.2958	42.4805	86.1594	42.4805	82.6885	42.4805	86.3519	42.4805	83.1303	42.4805	86.3835	42.4805	83.6121	42.4805	86.2542	42.4805	84.1206	42.4805	85.9831	42.4805	84.638	42.4805	85.6005	42.4805	85.1409
43.9453	82.5317	43.9453	82.3069	43.9453	82.7853	43.9453	82.1149	43.9453	83.0639	43.9453	81.9595	43.9453	83.3638	43.9453	81.8446	43.9453	83.6823	43.9453	81.7742	43.9453	84.0185	43.9453	81.7521	43.9453	84.3741	43.9453	81.7819	43.9453	84.7529	43.9453	81.8669	43.9453	85.1567	43.9453	82.0096	43.9453	85.5779	43.9453	82.2118	43.9453	85.9929	43.9453	82.4739	43.9453	86.3624	43.9453	82.7943	43.9453	86.6416	43.9453	83.1699	43.9453	86.793	43.9453	83.5946	43.9453	86.7964	43.9453	84.0595	43.9453	86.6515	43.9453	84.5517	43.9453	86.3752	43.9453	85.0541	43.9453	85.9954	43.9453	85.5445
45.4102	82.7979	45.4102	82.5755	45.4102	83.0516	45.4102	82.3877	45.4102	83.3334	45.4102	82.2374	45.4102	83.6398	45.4102	82.1279	45.4102	83.9675	45.4102	82.062	45.4102	84.3141	45.4102	82.0427	45.4102	84.6786	45.4102	82.0731	45.4102	85.0609	45.4102	82.1556	45.4102	85.459	45.4102	82.2924	45.4102	85.8631	45.4102	82.4851	45.4102	86.251	45.4102	82.7342	45.4102	86.588	45.4102	83.0388	45.4102	86.8347	45.4102	83.3962	45.4102	86.9585	45.4102	83.8014	45.4102	86.9416	45.4102	84.2467	45.4102	86.7846	45.4102	84.7203	45.4102	86.504	45.4102	85.2065	45.4102	86.1267	45.4102	85.6841
46.875	83.1012	46.875	82.8779	46.875	83.357	46.875	82.6897	46.875	83.6423	46.875	82.5388	46.875	83.9538	46.875	82.4276	46.875	84.2875	46.875	82.3583	46.875	84.6398	46.875	82.3331	46.875	85.0073	46.875	82.3545	46.875	85.3868	46.875	82.4247	46.875	85.7727	46.875	82.5457	46.875	86.1532	46.875	82.7192	46.875	86.5068	46.875	82.9462	46.875	86.8026	46.875	83.2267	46.875	87.0069	46.875	83.5591	46.875	87.092	46.875	83.9396	46.875	87.044	46.875	84.3617	46.875	86.8649	46.875	84.8152	46.875	86.5717	46.875	85.2853	46.875	86.1908	46.875	85.7522
48.3398	83.0906	48.3398	82.8574	48.3398	83.3574	48.3398	82.6599	48.3398	83.6546	48.3398	82.5001	48.3398	83.9786	48.3398	82.3797	48.3398	84.3244	48.3398	82.3004	48.3398	84.6862	48.3398	82.2639	48.3398	85.058	48.3398	82.2722	48.3398	85.4327	48.3398	82.3272	48.3398	85.8019	48.3398	82.431	48.3398	86.1527	48.3398	82.5853	48.3398	86.4654	48.3398	82.7915	48.3398	86.714	48.3398	83.0502	48.3398	86.8703	48.3398	83.3604	48.3398	86.9117	48.3398	83.7196	48.3398	86.8273	48.3398	84.1223	48.3398	86.6208	48.3398	84.5595	48.3398	86.3093	48.3398	85.018	48.3398	85.9189	48.3398	85.4791
51.2695	82.9246	51.2695	82.6917	51.2695	83.1908	51.2695	82.4941	51.2695	83.4871	51.2695	82.3331	51.2695	83.8093	51.2695	82.2098	51.2695	84.1512	51.2695	82.1252	51.2695	84.5051	51.2695	82.0804	51.2695	84.8622	51.2695	82.0767	51.2695	85.2129	51.2695	82.1155	51.2695	85.5471	51.2695	82.1987	51.2695	85.8523	51.2695	82.3279	51.2695	86.1124	51.2695	82.5048	51.2695	86.3071	51.2695	82.7307	51.2695	86.4146	51.2695	83.0057	51.2695	86.4167	51.2695	83.3285	51.2695	86.3051	51.2695	83.6953	51.2695	86.0841	51.2695	84.0988	51.2695	85.7699	51.2695	84.5274	51.2695	85.3874	51.2695	84.9644
52.7344	82.9279	52.7344	82.695	52.7344	83.1942	52.7344	82.4972	52.7344	83.491	52.7344	82.3356	52.7344	83.8139	52.7344	82.2109	52.7344	84.1567	52.7344	82.1237	52.7344	84.5111	52.7344	82.0749	52.7344	84.8671	52.7344	82.0654	52.7344	85.2138	52.7344	82.0966	52.7344	85.5392	52.7344	82.1701	52.7344	85.8297	52.7344	82.2874	52.7344	86.0693	52.7344	82.4505	52.7344	86.2389	52.7344	82.6606	52.7344	86.3193	52.7344	82.9183	52.7344	86.2957	52.7344	83.2228	52.7344	86.1622	52.7344	83.5714	52.7344	85.9252	52.7344	83.9579	52.7344	85.6019	52.7344	84.3721	52.7344	85.2174	52.7344	84.7989
54.1992	82.9286	54.1992	82.6923	54.1992	83.1989	54.1992	82.4915	54.1992	83.5005	54.1992	82.3269	54.1992	83.8288	54.1992	82.199	54.1992	84.1771	54.1992	82.1081	54.1992	84.5364	54.1992	82.0547	54.1992	84.8953	54.1992	82.0397	54.1992	85.2414	54.1992	82.064	54.1992	85.561	54.1992	82.1291	54.1992	85.8391	54.1992	82.2365	54.1992	86.0595	54.1992	82.3879	54.1992	86.204	54.1992	82.5846	54.1992	86.2557	54.1992	82.8273	54.1992	86.2028	54.1992	83.1158	54.1992	86.0428	54.1992	83.448	54.1992	85.7844	54.1992	83.819	54.1992	85.447	54.1992	84.2206	54.1992	85.0563	54.1992	84.6394
55.6641	82.9089	55.6641	82.6668	55.6641	83.187	55.6641	82.4622	55.6641	83.4982	55.6641	82.2955	55.6641	83.8376	55.6641	82.1667	55.6641	84.1976	55.6641	82.0756	55.6641	84.5677	55.6641	82.0221	55.6641	84.9351	55.6641	82.0061	55.6641	85.285	55.6641	82.0281	55.6641	85.6017	55.6641	82.0888	55.6641	85.8691	55.6641	82.1891	55.6641	86.0708	55.6641	82.3306	55.6641	86.1906	55.6641	82.5147	55.6641	86.2145	55.6641	82.7429	55.6641	86.1342	55.6641	83.0159	55.6641	85.9497	55.6641	83.3333	55.6641	85.6716	55.6641	83.6921	55.6641	85.32	55.6641	84.0855	55.6641	84.9208	55.6641	84.5012
58.5938	83.1404	58.5938	82.8936	58.5938	83.4233	58.5938	82.6842	58.5938	83.7392	58.5938	82.5122	58.5938	84.0823	58.5938	82.3769	58.5938	84.4439	58.5938	82.2772	58.5938	84.812	58.5938	82.2124	58.5938	85.1718	58.5938	82.1818	58.5938	85.5066	58.5938	82.1855	58.5938	85.7992	58.5938	82.2242	58.5938	86.0331	58.5938	82.2993	58.5938	86.1931	58.5938	82.4129	58.5938	86.2665	58.5938	82.5676	58.5938	86.2439	58.5938	82.7661	58.5938	86.1213	58.5938	83.0106	58.5938	85.9026	58.5938	83.302	58.5938	85.6005	58.5938	83.6385	58.5938	85.2353	58.5938	84.0142	58.5938	84.8325	58.5938	84.4179
60.0586	83.2331	60.0586	82.9865	60.0586	83.5151	60.0586	82.7768	60.0586	83.8294	60.0586	82.604	60.0586	84.1702	60.0586	82.4672	60.0586	84.5283	60.0586	82.3655	60.0586	84.8915	60.0586	82.2979	60.0586	85.2445	60.0586	82.2637	60.0586	85.5698	60.0586	82.2628	60.0586	85.8497	60.0586	82.2958	60.0586	86.0674	60.0586	82.3638	60.0586	86.2084	60.0586	82.469	60.0586	86.2612	60.0586	82.6137	60.0586	86.2186	60.0586	82.8007	60.0586	86.079	60.0586	83.0321	60.0586	85.8486	60.0586	83.309	60.0586	85.5411	60.0586	83.63	60.0586	85.1773	60.0586	83.9899	60.0586	84.7818	60.0586	84.3791
62.9883	83.4392	62.9883	83.1798	62.9883	83.7345	62.9883	82.958	62.9883	84.0619	62.9883	82.7738	62.9883	84.4147	62.9883	82.6265	62.9883	84.7829	62.9883	82.5148	62.9883	85.1523	62.9883	82.4374	62.9883	85.5056	62.9883	82.3934	62.9883	85.8234	62.9883	82.3821	62.9883	86.0862	62.9883	82.4037	62.9883	86.2766	62.9883	82.459	62.9883	86.3809	62.9883	82.5494	62.9883	86.3902	62.9883	82.6771	62.9883	86.3012	62.9883	82.8448	62.9883	86.1168	62.9883	83.0549	62.9883	85.8473	62.9883	83.3095	62.9883	85.51	62.9883	83.6088	62.9883	85.1276	62.9883	83.9501	62.9883	84.7253	62.9883	84.3265
64.4531	83.5599	64.4531	83.3016	64.4531	83.8535	64.4531	83.0799	64.4531	84.1786	64.4531	82.895	64.4531	84.5285	64.4531	82.7458	64.4531	84.8931	64.4531	82.6311	64.4531	85.258	64.4531	82.5495	64.4531	85.6049	64.4531	82.4997	64.4531	85.9135	64.4531	82.4809	64.4531	86.1633	64.4531	82.4933	64.4531	86.3368	64.4531	82.5374	64.4531	86.421	64.4531	82.615	64.4531	86.4089	64.4531	82.7283	64.4531	86.2993	64.4531	82.8803	64.4531	86.0973	64.4531	83.0744	64.4531	85.8143	64.4531	83.313	64.4531	85.4686	64.4531	83.5972	64.4531	85.0832	64.4531	83.9253	64.4531	84.6831	64.4531	84.2912
67.3828	83.8161	67.3828	83.5483	67.3828	84.1181	67.3828	83.3166	67.3828	84.4502	67.3828	83.121	67.3828	84.8049	67.3828	82.9605	67.3828	85.1705	67.3828	82.8338	67.3828	85.531	67.3828	82.7392	67.3828	85.8665	67.3828	82.6753	67.3828	86.1549	67.3828	82.6412	67.3828	86.3748	67.3828	82.6366	67.3828	86.5092	67.3828	82.6623	67.3828	86.5473	67.3828	82.7196	67.3828	86.4858	67.3828	82.8108	67.3828	86.3282	67.3828	82.9391	67.3828	86.0842	67.3828	83.1081	67.3828	85.7691	67.3828	83.3209	67.3828	85.4031	67.3828	83.58	67.3828	85.0095	67.3828	83.8851	67.3828	84.6123	67.3828	84.2323
68.8477	83.9724	68.8477	83.6992	68.8477	84.2801	68.8477	83.4627	68.8477	84.6179	68.8477	83.2628	68.8477	84.9779	68.8477	83.0986	68.8477	85.3481	68.8477	82.9687	68.8477	85.7122	68.8477	82.8711	68.8477	86.0498	68.8477	82.8043	68.8477	86.3387	68.8477	82.7673	68.8477	86.5574	68.8477	82.7597	68.8477	86.6888	68.8477	82.7818	68.8477	86.7219	68.8477	82.8351	68.8477	86.6534	68.8477	82.9218	68.8477	86.4869	68.8477	83.0454	68.8477	86.2325	68.8477	83.2096	68.8477	85.9058	68.8477	83.4185	68.8477	85.528	68.8477	83.6751	68.8477	85.1234	68.8477	83.9803	68.8477	84.717	68.8477	84.3307
71.7773	84.3076	71.7773	84.0337	71.7773	84.6152	71.7773	83.7951	71.7773	84.9521	71.7773	83.592	71.7773	85.3107	71.7773	83.4235	71.7773	85.6793	71.7773	83.2879	71.7773	86.0416	71.7773	83.1834	71.7773	86.3771	71.7773	83.1084	71.7773	86.6627	71.7773	83.0616	71.7773	86.8757	71.7773	83.0425	71.7773	86.9969	71.7773	83.0517	71.7773	87.0141	71.7773	83.0903	71.7773	86.9231	71.7773	83.1611	71.7773	86.7287	71.7773	83.2675	71.7773	86.4437	71.7773	83.414	71.7773	86.0882	71.7773	83.605	71.7773	85.6873	71.7773	83.8448	71.7773	85.2685	71.7773	84.1353	71.7773	84.8575	71.7773	84.4752
74.707	84.5746	74.707	84.3088	74.707	84.8762	74.707	84.0798	74.707	85.2094	74.707	83.8871	74.707	85.5667	74.707	83.7287	74.707	85.9358	74.707	83.6022	74.707	86.2998	74.707	83.5053	74.707	86.6375	74.707	83.4358	74.707	86.925	74.707	83.3922	74.707	87.139	74.707	83.3737	74.707	87.2597	74.707	83.3805	74.707	87.2743	74.707	83.414	74.707	87.1785	74.707	83.4767	74.707	86.9774	74.707	83.5723	74.707	86.6847	74.707	83.7057	74.707	86.3219	74.707	83.8821	74.707	85.9158	74.707	84.1068	74.707	85.4952	74.707	84.3834	74.707	85.0869	74.707	84.712
77.6367	84.7923	77.6367	84.5191	77.6367	85.1014	77.6367	84.2838	77.6367	85.4416	77.6367	84.0859	77.6367	85.8043	77.6367	83.9236	77.6367	86.1765	77.6367	83.7945	77.6367	86.5406	77.6367	83.6957	77.6367	86.8746	77.6367	83.6247	77.6367	87.1545	77.6367	83.5794	77.6367	87.3564	77.6367	83.5587	77.6367	87.4608	77.6367	83.5622	77.6367	87.4553	77.6367	83.591	77.6367	87.3371	77.6367	83.6473	77.6367	87.113	77.6367	83.7346	77.6367	86.7991	77.6367	83.8575	77.6367	86.4194	77.6367	84.0216	77.6367	86.0028	77.6367	84.2326	77.6367	85.5794	77.6367	84.4949	77.6367	85.1754	77.6367	84.8103
79.1016	84.9279	79.1016	84.6511	79.1016	85.2402	79.1016	84.4117	79.1016	85.5826	79.1016	84.2098	79.1016	85.9462	79.1016	84.0437	79.1016	86.3177	79.1016	83.9109	79.1016	86.6791	79.1016	83.8088	79.1016	87.0084	79.1016	83.7347	79.1016	87.2811	79.1016	83.6865	79.1016	87.4737	79.1016	83.6628	79.1016	87.5669	79.1016	83.6633	79.1016	87.5492	79.1016	83.6886	79.1016	87.4184	79.1016	83.7408	79.1016	87.1822	79.1016	83.823	79.1016	86.8576	79.1016	83.9399	79.1016	86.4694	79.1016	84.0968	79.1016	86.0477	79.1016	84.2997	79.1016	85.6228	79.1016	84.5537	79.1016	85.2212	79.1016	84.8616
82.0312	85.2756	82.0312	84.9856	82.0312	85.5999	82.0312	84.7326	82.0312	85.9524	82.0312	84.5168	82.0312	86.3232	82.0312	84.3368	82.0312	86.6976	82.0312	84.1901	82.0312	87.0563	82.0312	84.0739	82.0312	87.3762	82.0312	83.9857	82.0312	87.6323	82.0312	83.9233	82.0312	87.8013	82.0312	83.8853	82.0312	87.8652	82.0312	83.8714	82.0312	87.8148	82.0312	83.8822	82.0312	87.6502	82.0312	83.9196	82.0312	87.3816	82.0312	83.9867	82.0312	87.0276	82.0312	84.0883	82.0312	86.6142	82.0312	84.2301	82.0312	86.1721	82.0312	84.4192	82.0312	85.7328	82.0312	84.6623	82.0312	85.3238	82.0312	84.964
84.9609	85.5336	84.9609	85.2307	84.9609	85.8699	84.9609	84.9648	84.9609	86.2325	84.9609	84.7372	84.9609	86.6102	84.9609	84.547	84.9609	86.9875	84.9609	84.392	84.9609	87.3441	84.9609	84.2691	84.9609	87.6561	84.9609	84.1754	84.9609	87.898	84.9609	84.1078	84.9609	88.0464	84.9609	84.0644	84.9609	88.0841	84.9609	84.0439	84.9609	88.003	84.9609	84.0463	84.9609	87.8059	84.9609	84.0729	84.9609	87.506	84.9609	84.1268	84.9609	87.1252	84.9609	84.2128	84.9609	86.6918	84.9609	84.338	84.9609	86.2372	84.9609	84.5107	84.9609	85.7925	84.9609	84.7394	84.9609	85.3842	84.9609	85.0304
87.8906	85.5935	87.8906	85.3156	87.8906	85.906	87.8906	85.0742	87.8906	86.2478	87.8906	84.8687	87.8906	86.6093	87.8906	84.6967	87.8906	86.9763	87.8906	84.5552	87.8906	87.3302	87.8906	84.4405	87.8906	87.6482	87.8906	84.3493	87.8906	87.9052	87.8906	84.2789	87.8906	88.0764	87.8906	84.2276	87.8906	88.1406	87.8906	84.1952	87.8906	88.0845	87.8906	84.1826	87.8906	87.9054	87.8906	84.1929	87.8906	87.6134	87.8906	84.2308	87.8906	87.2306	87.8906	84.3031	87.8906	86.789	87.8906	84.418	87.8906	86.3248	87.8906	84.5846	87.8906	85.8724	87.8906	84.8111	87.8906	85.4592	87.8906	85.1027
90.8203	85.7479	90.8203	85.4411	90.8203	86.0894	90.8203	85.1733	90.8203	86.4576	90.8203	84.9458	90.8203	86.8405	90.8203	84.7572	90.8203	87.2223	90.8203	84.6048	90.8203	87.5835	90.8203	84.4851	90.8203	87.902	90.8203	84.3948	90.8203	88.1539	90.8203	84.3307	90.8203	88.3166	90.8203	84.2907	90.8203	88.3717	90.8203	84.2735	90.8203	88.3079	90.8203	84.2793	90.8203	88.1233	90.8203	84.3096	90.8203	87.8269	90.8203	84.3675	90.8203	87.4393	90.8203	84.4578	90.8203	86.9913	90.8203	84.5873	90.8203	86.52	90.8203	84.7636	90.8203	86.0618	90.8203	84.995	90.8203	85.6456	90.8203	85.2881
95.2148	85.8823	95.2148	85.5619	95.2148	86.2318	95.2148	85.2773	95.2148	86.6007	95.2148	85.0322	95.2148	86.9765	95.2148	84.8279	95.2148	87.3433	95.2148	84.6635	95.2148	87.6822	95.2148	84.5362	95.2148	87.9717	95.2148	84.4427	95.2148	88.1891	95.2148	84.3789	95.2148	88.3137	95.2148	84.3409	95.2148	88.3299	95.2148	84.3257	95.2148	88.2301	95.2148	84.3311	95.2148	88.0161	95.2148	84.3571	95.2148	87.6991	95.2148	84.4052	95.2148	87.3001	95.2148	84.4798	95.2148	86.849	95.2148	84.5874	95.2148	86.3819	95.2148	84.7371	95.2148	85.9351	95.2148	84.9394	95.2148	85.5371	95.2148	85.2041
98.1445	86.1682	98.1445	85.8588	98.1445	86.505	98.1445	85.5818	98.1445	86.8604	98.1445	85.3398	98.1445	87.222	98.1445	85.1324	98.1445	87.5738	98.1445	84.9578	98.1445	87.8959	98.1445	84.813	98.1445	88.1655	98.1445	84.6942	98.1445	88.3589	98.1445	84.5982	98.1445	88.4546	98.1445	84.5222	98.1445	88.4369	98.1445	84.4645	98.1445	88.2988	98.1445	84.425	98.1445	88.0441	98.1445	84.4055	98.1445	87.6865	98.1445	84.4098	98.1445	87.2499	98.1445	84.444	98.1445	86.7668	98.1445	84.5168	98.1445	86.275	98.1445	84.6387	98.1445	85.8118	98.1445	84.8213	98.1445	85.4065	98.1445	85.0752
101.074	86.2558	101.074	85.9283	101.074	86.6089	101.074	85.6329	101.074	86.9776	101.074	85.3731	101.074	87.348	101.074	85.1493	101.074	87.7029	101.074	84.9597	101.074	88.0216	101.074	84.8009	101.074	88.2802	101.074	84.6687	101.074	88.4539	101.074	84.5588	101.074	88.5202	101.074	84.4674	101.074	88.4633	101.074	84.3921	101.074	88.2775	101.074	84.3319	101.074	87.9689	101.074	84.2882	101.074	87.5553	101.074	84.2647	101.074	87.0649	101.074	84.2682	101.074	86.5347	101.074	84.3083	101.074	86.0064	101.074	84.398	101.074	85.5206	101.074	84.5521	101.074	85.1084	101.074	84.7854
105.469	86.1504	105.469	85.8156	105.469	86.5139	105.469	85.5163	105.469	86.8961	105.469	85.2558	105.469	87.2829	105.469	85.0347	105.469	87.6571	105.469	84.8516	105.469	87.998	105.469	84.7035	105.469	88.283	105.469	84.5868	105.469	88.4886	105.469	84.4976	105.469	88.5937	105.469	84.4325	105.469	88.5832	105.469	84.3889	105.469	88.4502	105.469	84.366	105.469	88.1985	105.469	84.3645	105.469	87.8419	105.469	84.3879	105.469	87.4041	105.469	84.4422	105.469	86.917	105.469	84.5361	105.469	86.4172	105.469	84.6803	105.469	85.941	105.469	84.8864	105.469	85.5174	105.469	85.1641
108.398	86.5376	108.398	86.1927	108.398	86.9061	108.398	85.8805	108.398	87.2853	108.398	85.6061	108.398	87.6592	108.398	85.3708	108.398	88.0094	108.398	85.173	108.398	88.3161	108.398	85.0092	108.398	88.5588	108.398	84.8749	108.398	88.7175	108.398	84.7658	108.398	88.7754	108.398	84.6782	108.398	88.7211	108.398	84.6102	108.398	88.5511	108.398	84.5618	108.398	88.2707	108.398	84.5351	108.398	87.8937	108.398	84.5348	108.398	87.4425	108.398	84.5676	108.398	86.9481	108.398	84.6426	108.398	86.4472	108.398	84.77	108.398	85.9759	108.398	84.9603	108.398	85.5626	108.398	85.2229
112.793	86.809	112.793	86.4505	112.793	87.181	112.793	86.1163	112.793	87.5535	112.793	85.8147	112.793	87.9121	112.793	85.5505	112.793	88.2411	112.793	85.3255	112.793	88.5235	112.793	85.1386	112.793	88.7414	112.793	84.9863	112.793	88.8759	112.793	84.8642	112.793	88.9104	112.793	84.7678	112.793	88.8337	112.793	84.6938	112.793	88.6429	112.793	84.6404	112.793	88.344	112.793	84.6085	112.793	87.9515	112.793	84.6013	112.793	87.4873	112.793	84.6252	112.793	86.9817	112.793	84.689	112.793	86.471	112.793	84.8042	112.793	85.9923	112.793	84.9834	112.793	85.5757	112.793	85.2383
117.188	86.531	117.188	86.1876	117.188	86.892	117.188	85.8697	117.188	87.2608	117.188	85.5828	117.188	87.6253	117.188	85.3304	117.188	87.971	117.188	85.1137	117.188	88.2806	117.188	84.9318	117.188	88.534	117.188	84.7824	117.188	88.7098	117.188	84.6622	117.188	88.7886	117.188	84.568	117.188	88.7572	117.188	84.4976	117.188	88.6107	117.188	84.4505	117.188	88.3534	117.188	84.429	117.188	87.9972	117.188	84.4377	117.188	87.5613	117.188	84.4844	117.188	87.0726	117.188	84.579	117.188	86.5647	117.188	84.7323	117.188	86.0732	117.188	84.9547	117.188	85.6292	117.188	85.2534
120.117	86.5568	120.117	86.2039	120.117	86.9261	120.117	85.8762	120.117	87.3002	120.117	85.5797	120.117	87.6645	120.117	85.3177	120.117	88.0021	120.117	85.0918	120.117	88.2941	120.117	84.9016	120.117	88.5204	120.117	84.7458	120.117	88.6613	120.117	84.6221	120.117	88.7014	120.117	84.5283	120.117	88.6326	120.117	84.4626	120.117	88.4558	120.117	84.4246	120.117	88.1796	120.117	84.4159	120.117	87.8181	120.117	84.4397	120.117	87.3907	120.117	84.5013	120.117	86.9235	120.117	84.6067	120.117	86.448	120.117	84.7627	120.117	85.9962	120.117	84.9759	120.117	85.593	120.117	85.2518
124.512	86.8991	124.512	86.5232	124.512	87.2901	124.512	86.1728	124.512	87.6824	124.512	85.8545	124.512	88.0592	124.512	85.5715	124.512	88.4011	124.512	85.3242	124.512	88.6867	124.512	85.1106	124.512	88.8932	124.512	84.9279	124.512	88.9992	124.512	84.773	124.512	88.9883	124.512	84.6436	124.512	88.8545	124.512	84.5384	124.512	88.604	124.512	84.458	124.512	88.253	124.512	84.4049	124.512	87.8228	124.512	84.3839	124.512	87.3365	124.512	84.4014	124.512	86.8199	124.512	84.466	124.512	86.3029	124.512	84.5878	124.512	85.8178	124.512	84.7774	124.512	85.3925	124.512	85.0441
128.906	86.8141	128.906	86.4082	128.906	87.2325	128.906	86.0292	128.906	87.6454	128.906	85.6875	128.906	88.0331	128.906	85.3887	128.906	88.3746	128.906	85.1346	128.906	88.6491	128.906	84.9239	128.906	88.8357	128.906	84.753	128.906	88.9155	128.906	84.6174	128.906	88.8739	128.906	84.5125	128.906	88.7062	128.906	84.4345	128.906	88.4196	128.906	84.3812	128.906	88.0332	128.906	84.3522	128.906	87.5738	128.906	84.3496	128.906	87.0714	128.906	84.3774	128.906	86.558	128.906	84.4421	128.906	86.0656	128.906	84.5518	128.906	85.6219	128.906	84.7161	128.906	85.246	128.906	84.9449
133.301	86.903	133.301	86.4982	133.301	87.3148	133.301	86.1159	133.301	87.7162	133.301	85.7682	133.301	88.089	133.301	85.463	133.301	88.4152	133.301	85.2038	133.301	88.6766	133.301	84.9904	133.301	88.8549	133.301	84.8195	133.301	88.9327	133.301	84.6866	133.301	88.8963	133.301	84.5869	133.301	88.74	133.301	84.5164	133.301	88.4697	133.301	84.4725	133.301	88.1016	133.301	84.4545	133.301	87.6595	133.301	84.4637	133.301	87.1718	133.301	84.5034	133.301	86.6705	133.301	84.5786	133.301	86.1888	133.301	84.6962	133.301	85.7553	133.301	84.8645	133.301	85.388	133.301	85.0923
139.16	86.6488	139.16	86.2624	139.16	87.038	139.16	85.893	139.16	87.415	139.16	85.5524	139.16	87.765	139.16	85.2496	139.16	88.0742	139.16	84.9895	139.16	88.3294	139.16	84.7734	139.16	88.5169	139.16	84.6	139.16	88.6229	139.16	84.4659	139.16	88.6352	139.16	84.3676	139.16	88.547	139.16	84.302	139.16	88.3578	139.16	84.2672	139.16	88.0727	139.16	84.2634	139.16	87.701	139.16	84.2921	139.16	87.2591	139.16	84.3568	139.16	86.7742	139.16	84.462	139.16	86.2829	139.16	84.6137	139.16	85.8226	139.16	84.8189	139.16	85.4196	139.16	85.0854
143.555	86.6967	143.555	86.2676	143.555	87.1287	143.555	85.8582	143.555	87.5451	143.555	85.4826	143.555	87.9262	143.555	85.151	143.555	88.2524	143.555	84.8692	143.555	88.5043	143.555	84.6389	143.555	88.6635	143.555	84.4578	143.555	88.7154	143.555	84.3215	143.555	88.6543	143.555	84.2247	143.555	88.4873	143.555	84.1627	143.555	88.2335	143.555	84.1327	143.555	87.9141	143.555	84.1338	143.555	87.5428	143.555	84.1678	143.555	87.1259	143.555	84.2386	143.555	86.6735	143.555	84.3516	143.555	86.2076	143.555	84.5133	143.555	85.7586	143.555	84.7307	143.555	85.3539	143.555	85.0098
147.949	87.0729	147.949	86.6143	147.949	87.5265	147.949	86.1714	147.949	87.952	147.949	85.7604	147.949	88.3257	147.949	85.3927	147.949	88.6255	147.949	85.0742	147.949	88.8314	147.949	84.8065	147.949	88.9261	147.949	84.5874	147.949	88.8957	147.949	84.4125	147.949	88.7346	147.949	84.2768	147.949	88.4508	147.949	84.1757	147.949	88.0692	147.949	84.1058	147.949	87.6236	147.949	84.0656	147.949	87.1452	147.949	84.0561	147.949	86.6554	147.949	84.0805	147.949	86.1708	147.949	84.144	147.949	85.7097	147.949	84.2538	147.949	85.2922	147.949	84.4175	147.949	84.9341	147.949	84.6426
153.809	87.0155	153.809	86.5339	153.809	87.4742	153.809	86.0541	153.809	87.8872	153.809	85.5993	153.809	88.2345	153.809	85.1891	153.809	88.4999	153.809	84.8362	153.809	88.6687	153.809	84.5456	153.809	88.7264	153.809	84.3146	153.809	88.6587	153.809	84.1352	153.809	88.4571	153.809	83.9969	153.809	88.1279	153.809	83.8895	153.809	87.6977	153.809	83.8059	153.809	87.2068	153.809	83.7432	153.809	86.6945	153.809	83.7035	153.809	86.1865	153.809	83.6938	153.809	85.6974	153.809	83.725	153.809	85.2394	153.809	83.8097	153.809	84.8257	153.809	83.9587	153.809	84.4689	153.809	84.1783
159.668	87.1359	159.668	86.6554	159.668	87.5864	159.668	86.1665	159.668	87.9879	159.668	85.6917	159.668	88.3251	159.668	85.2521	159.668	88.5858	159.668	84.8654	159.668	88.7586	159.668	84.5439	159.668	88.8298	159.668	84.2934	159.668	88.7846	159.668	84.113	159.668	88.612	159.668	83.9959	159.668	88.3143	159.668	83.9318	159.668	87.9124	159.668	83.9098	159.668	87.4397	159.668	83.9206	159.668	86.9301	159.668	83.958	159.668	86.4115	159.668	84.0199	159.668	85.9113	159.668	84.1067	159.668	85.4598	159.668	84.2207	159.668	85.0812	159.668	84.3656	159.668	84.7811	159.668	84.5482
165.527	86.8871	165.527	86.4607	165.527	87.2889	165.527	86.0242	165.527	87.6547	165.527	85.5941	165.527	87.9756	165.527	85.1854	165.527	88.2428	165.527	84.8105	165.527	88.4434	165.527	84.4773	165.527	88.5575	165.527	84.1898	165.527	88.561	165.527	83.9496	165.527	88.4345	165.527	83.757	165.527	88.1763	165.527	83.6129	165.527	87.811	165.527	83.5191	165.527	87.3827	165.527	83.4783	165.527	86.9338	165.527	83.4932	165.527	86.4859	165.527	83.5658	165.527	86.0414	165.527	83.6965	165.527	85.6008	165.527	83.8843	165.527	85.1744	165.527	84.1283	165.527	84.7785	165.527	84.4272
171.387	86.6345	171.387	86.1893	171.387	87.0637	171.387	85.7394	171.387	87.4678	171.387	85.3	171.387	87.8356	171.387	84.8889	171.387	88.1516	171.387	84.5226	171.387	88.3951	171.387	84.2125	171.387	88.5439	171.387	83.9623	171.387	88.578	171.387	83.7678	171.387	88.4855	171.387	83.6203	171.387	88.266	171.387	83.5103	171.387	87.9317	171.387	83.4319	171.387	87.5039	171.387	83.3851	171.387	87.009	171.387	83.3763	171.387	86.4775	171.387	83.4154	171.387	85.9432	171.387	83.513	171.387	85.4354	171.387	83.6768	171.387	84.9725	171.387	83.9086	171.387	84.5614	171.387	84.2053
177.246	86.7161	177.246	86.1785	177.246	87.23	177.246	85.6361	177.246	87.698	177.246	85.1072	177.246	88.0948	177.246	84.6116	177.246	88.3946	177.246	84.1702	177.246	88.5753	177.246	83.8025	177.246	88.6206	177.246	83.5223	177.246	88.523	177.246	83.335	177.246	88.2885	177.246	83.2359	177.246	87.9443	177.246	83.2133	177.246	87.5376	177.246	83.2518	177.246	87.1159	177.246	83.3372	177.246	86.7039	177.246	83.4591	177.246	86.3014	177.246	83.6119	177.246	85.9049	177.246	83.794	177.246	85.5207	177.246	84.0061	177.246	85.1592	177.246	84.2491	177.246	84.8261	177.246	84.5227
183.105	86.7479	183.105	86.209	183.105	87.2581	183.105	85.6637	183.105	87.7126	183.105	85.1293	183.105	88.0838	183.105	84.6189	183.105	88.348	183.105	84.1438	183.105	88.4884	183.105	83.7142	183.105	88.4958	183.105	83.3395	183.105	88.3688	183.105	83.0282	183.105	88.1179	183.105	82.7873	183.105	87.77	183.105	82.6219	183.105	87.367	183.105	82.5356	183.105	86.9475	183.105	82.5305	183.105	86.5299	183.105	82.6069	183.105	86.1144	183.105	82.7622	183.105	85.6974	183.105	82.9909	183.105	85.2777	183.105	83.2845	183.105	84.8554	183.105	83.6321	183.105	84.433	183.105	84.0202
188.965	86.7619	188.965	86.1633	188.965	87.3019	188.965	85.5409	188.965	87.7529	188.965	84.9287	188.965	88.0918	188.965	84.3556	188.965	88.3041	188.965	83.8421	188.965	88.381	188.965	83.3994	188.965	88.3172	188.965	83.0301	188.965	88.1119	188.965	82.73	188.965	87.777	188.965	82.4922	188.965	87.3462	188.965	82.3101	188.965	86.871	188.965	82.1811	188.965	86.3953	188.965	82.1081	188.965	85.9356	188.965	82.0997	188.965	85.4893	188.965	82.1679	188.965	85.0529	188.965	82.3242	188.965	84.6223	188.965	82.5734	188.965	84.1883	188.965	82.9092	188.965	83.7467	188.965	83.3106
196.289	87.0134	196.289	86.4017	196.289	87.5551	196.289	85.7404	196.289	88.0096	196.289	85.0523	196.289	88.3621	196.289	84.3619	196.289	88.5981	196.289	83.6964	196.289	88.702	196.289	83.0861	196.289	88.6587	196.289	82.563	196.289	88.4615	196.289	82.1554	196.289	88.1235	196.289	81.8804	196.289	87.6858	196.289	81.7391	196.289	87.2033	196.289	81.7185	196.289	86.7069	196.289	81.7984	196.289	86.1857	196.289	81.9589	196.289	85.6256	196.289	82.1829	196.289	85.0572	196.289	82.4562	196.289	84.5423	196.289	82.7639	196.289	84.1145	196.289	83.0898	196.289	83.7538	196.289	83.4201
203.613	86.9115	203.613	86.2543	203.613	87.5138	203.613	85.5687	203.613	88.0311	203.613	84.8763	203.613	88.4322	203.613	84.1929	203.613	88.6876	203.613	83.5299	203.613	88.7738	203.613	82.8986	203.613	88.6778	203.613	82.3149	203.613	88.4033	203.613	81.8016	203.613	87.9829	203.613	81.3875	203.613	87.4895	203.613	81.1013	203.613	87.0198	203.613	80.9634	203.613	86.6325	203.613	80.9791	203.613	86.2975	203.613	81.1377	203.613	85.9351	203.613	81.4164	203.613	85.4936	203.613	81.7886	203.613	84.9745	203.613	82.2307	203.613	84.4089	203.613	82.7262	203.613	83.83	203.613	83.2633
210.938	87.0696	210.938	86.4092	210.938	87.6433	210.938	85.6953	210.938	88.1015	210.938	84.9626	210.938	88.4203	210.938	84.2434	210.938	88.5813	210.938	83.5632	210.938	88.5701	210.938	82.9397	210.938	88.376	210.938	82.3855	210.938	87.9963	210.938	81.9118	210.938	87.4536	210.938	81.5321	210.938	86.8254	210.938	81.2624	210.938	86.245	210.938	81.119	210.938	85.8218	210.938	81.114	210.938	85.5414	210.938	81.2507	210.938	85.2963	210.938	81.5201	210.938	85.0035	210.938	81.8998	210.938	84.649	210.938	82.3565	210.938	84.2498	210.938	82.8508	210.938	83.815	210.938	83.3456
218.262	86.8396	218.262	86.1317	218.262	87.4652	218.262	85.3737	218.262	87.9802	218.262	84.5993	218.262	88.3618	218.262	83.8401	218.262	88.5924	218.262	83.1249	218.262	88.6584	218.262	82.4783	218.262	88.5485	218.262	81.9206	218.262	88.2567	218.262	81.4671	218.262	87.7917	218.262	81.1268	218.262	87.1946	218.262	80.9028	218.262	86.5475	218.262	80.7951	218.262	85.9483	218.262	80.8036	218.262	85.455	218.262	80.9292	218.262	85.0551	218.262	81.1708	218.262	84.6938	218.262	81.5193	218.262	84.3189	218.262	81.9531	218.262	83.9025	218.262	82.4402	218.262	83.4407	218.262	82.946
225.586	87.3872	225.586	86.6438	225.586	88.0186	225.586	85.8228	225.586	88.5104	225.586	84.9633	225.586	88.8412	225.586	84.1039	225.586	88.9935	225.586	83.2785	225.586	88.9535	225.586	82.5173	225.586	88.7131	225.586	81.8511	225.586	88.278	225.586	81.3148	225.586	87.6839	225.586	80.9448	225.586	87.0189	225.586	80.7675	225.586	86.4155	225.586	80.7879	225.586	85.9733	225.586	80.9854	225.586	85.6781	225.586	81.3209	225.586	85.4378	225.586	81.7487	225.586	85.1766	225.586	82.2262	225.586	84.8662	225.586	82.7189	225.586	84.506	225.586	83.2035	225.586	84.1035	225.586	83.6673
232.91	87.7017	232.91	86.9949	232.91	88.2719	232.91	86.1896	232.91	88.6745	232.91	85.3303	232.91	88.8862	232.91	84.4625	232.91	88.8931	232.91	83.6251	232.91	88.693	232.91	82.8442	232.91	88.2968	232.91	82.1352	232.91	87.7318	232.91	81.5113	232.91	87.055	232.91	80.9955	232.91	86.3701	232.91	80.6258	232.91	85.8041	232.91	80.4483	232.91	85.4154	232.91	80.4972	232.91	85.1457	232.91	80.771	232.91	84.9026	232.91	81.2236	232.91	84.6432	232.91	81.7774	232.91	84.3648	232.91	82.3508	232.91	84.0653	232.91	82.8821	232.91	83.731	232.91	83.3421
241.699	87.6637	241.699	87.0425	241.699	88.1587	241.699	86.3201	241.699	88.5034	241.699	85.5192	241.699	88.6789	241.699	84.6603	241.699	88.6714	241.699	83.7679	241.699	88.4697	241.699	82.8783	241.699	88.0633	241.699	82.044	241.699	87.453	241.699	81.328	241.699	86.6877	241.699	80.7881	241.699	85.9239	241.699	80.4585	241.699	85.4064	241.699	80.3433	241.699	85.2413	241.699	80.4261	241.699	85.2482	241.699	80.6828	241.699	85.1924	241.699	81.0855	241.699	84.9961	241.699	81.5992	241.699	84.6944	241.699	82.1805	241.699	84.322	241.699	82.782	241.699	83.8781	241.699	83.3593
250.488	87.3224	250.488	86.4921	250.488	88.0306	250.488	85.5891	250.488	88.5778	250.488	84.6695	250.488	88.9317	250.488	83.7821	250.488	89.0635	250.488	82.9523	250.488	88.9458	250.488	82.1799	250.488	88.5521	250.488	81.4545	250.488	87.8548	250.488	80.7771	250.488	86.8472	250.488	80.1747	250.488	85.6359	250.488	79.6999	250.488	84.5874	250.488	79.4141	250.488	84.1864	250.488	79.3615	250.488	84.404	250.488	79.5477	250.488	84.7237	250.488	79.9362	250.488	84.7767	250.488	80.4665	250.488	84.4793	250.488	81.08	250.488	83.9063	250.488	81.7432	250.488	83.1904	250.488	82.4499
259.277	88.5061	259.277	87.678	259.277	89.1428	259.277	86.6844	259.277	89.5681	259.277	85.5567	259.277	89.7697	259.277	84.3365	259.277	89.7439	259.277	83.0847	259.277	89.4886	259.277	81.8888	259.277	88.9896	259.277	80.8575	259.277	88.2118	259.277	80.0933	259.277	87.1156	259.277	79.6515	259.277	85.723	259.277	79.5234	259.277	84.2422	259.277	79.6612	259.277	83.1482	259.277	80.0138	259.277	82.8694	259.277	80.5394	259.277	83.2758	259.277	81.1973	259.277	83.8995	259.277	81.9376	259.277	84.3864	259.277	82.7005	259.277	84.5751	259.277	83.4208	259.277	84.4385	259.277	84.0269
268.066	88.0563	268.066	87.4349	268.066	88.5437	268.066	86.7041	268.066	88.8846	268.066	85.8968	268.066	89.0709	268.066	85.0411	268.066	89.0879	268.066	84.15	268.066	88.9103	268.066	83.2224	268.066	88.5084	268.066	82.2595	268.066	87.8466	268.066	81.2877	268.066	86.8757	268.066	80.3787	268.066	85.5696	268.066	79.6493	268.066	84.0865	268.066	79.2205	268.066	82.9663	268.066	79.1506	268.066	82.7085	268.066	79.4088	268.066	82.9913	268.066	79.9098	268.066	83.2471	268.066	80.5564	268.066	83.2882	268.066	81.2531	268.066	83.1505	268.066	81.9112	268.066	82.8755	268.066	82.4628
276.855	87.7569	276.855	87.0902	276.855	88.2994	276.855	86.3239	276.855	88.6945	276.855	85.4855	276.855	88.9226	276.855	84.6023	276.855	88.9721	276.855	83.6936	276.855	88.8411	276.855	82.7628	276.855	88.5268	276.855	81.7991	276.855	88.0004	276.855	80.7976	276.855	87.1916	276.855	79.7941	276.855	86.0112	276.855	78.9021	276.855	84.4361	276.855	78.3155	276.855	82.711	276.855	78.2178	276.855	81.6003	276.855	78.6239	276.855	81.7239	276.855	79.355	276.855	82.4611	276.855	80.1896	276.855	82.9998	276.855	80.9859	276.855	83.0947	276.855	81.6961	276.855	82.8179	276.855	82.317
287.109	88.0603	287.109	87.603	287.109	88.3909	287.109	87.0395	287.109	88.5759	287.109	86.3844	287.109	88.6084	287.109	85.6463	287.109	88.5	287.109	84.8336	287.109	88.2745	287.109	83.9583	287.109	87.9451	287.109	83.0344	287.109	87.4825	287.109	82.0719	287.109	86.8014	287.109	81.0788	287.109	85.7924	287.109	80.0802	287.109	84.4096	287.109	79.1612	287.109	82.8132	287.109	78.5083	287.109	81.4825	287.109	78.3644	287.109	80.9204	287.109	78.8254	287.109	81.0805	287.109	79.7034	287.109	81.5532	287.109	80.6832	287.109	81.9981	287.109	81.5126	287.109	82.1978	287.109	82.0404
297.363	88.0778	297.363	87.5559	297.363	88.4425	297.363	86.9186	297.363	88.6173	297.363	86.1982	297.363	88.5913	297.363	85.4047	297.363	88.3789	297.363	84.529	297.363	88.0146	297.363	83.5606	297.363	87.5436	297.363	82.5072	297.363	87.0056	297.363	81.4109	297.363	86.4062	297.363	80.3578	297.363	85.6782	297.363	79.4768	297.363	84.6685	297.363	78.903	297.363	83.2329	297.363	78.6981	297.363	81.5032	297.363	78.7955	297.363	80.1801	297.363	79.0503	297.363	79.872	297.363	79.332	297.363	80.0728	297.363	79.5709	297.363	80.1688	297.363	79.7578	297.363	80.0786	297.363	79.9211
307.617	87.9015	307.617	87.2822	307.617	88.3184	307.617	86.5203	307.617	88.5024	307.617	85.6907	307.617	88.453	307.617	84.8598	307.617	88.1861	307.617	84.0622	307.617	87.7177	307.617	83.2901	307.617	87.0598	307.617	82.4997	307.617	86.2379	307.617	81.6276	307.617	85.3204	307.617	80.6086	307.617	84.4245	307.617	79.3983	307.617	83.6259	307.617	78.0132	307.617	82.8305	307.617	76.6199	307.617	81.8848	307.617	75.6698	307.617	80.9507	307.617	75.7408	307.617	80.5677	307.617	76.809	307.617	80.8201	307.617	78.2457	307.617	81.1205	307.617	79.5514	307.617	81.0475	307.617	80.5128
319.336	86.8162	319.336	86.1301	319.336	87.4046	319.336	85.4386	319.336	87.815	319.336	84.8118	319.336	87.9908	319.336	84.2588	319.336	87.9054	319.336	83.7255	319.336	87.5737	319.336	83.1395	319.336	87.0601	319.336	82.4561	319.336	86.4595	319.336	81.6744	319.336	85.851	319.336	80.8243	319.336	85.2642	319.336	79.9438	319.336	84.6763	319.336	79.0632	319.336	84.023	319.336	78.2155	319.336	83.2863	319.336	77.4792	319.336	82.579	319.336	77.0198	319.336	81.9988	319.336	77.0279	319.336	81.4465	319.336	77.5254	319.336	80.7841	319.336	78.312	319.336	80.007	319.336	79.1707
329.59	87.0512	329.59	86.1354	329.59	87.6938	329.59	85.0176	329.59	88.041	329.59	83.8208	329.59	88.1073	329.59	82.7016	329.59	87.9257	329.59	81.7893	329.59	87.5313	329.59	81.1082	329.59	86.9574	329.59	80.5726	329.59	86.2396	329.59	80.0677	329.59	85.4259	329.59	79.5199	329.59	84.5881	329.59	78.9168	329.59	83.7714	329.59	78.3003	329.59	82.9143	329.59	77.758	329.59	81.9987	329.59	77.4101	329.59	81.3273	329.59	77.3742	329.59	81.2221	329.59	77.7069	329.59	81.3959	329.59	78.3659	329.59	81.3498	329.59	79.2295	329.59	80.9025	329.59	80.1363
341.309	87.5131	341.309	86.5195	341.309	88.2284	341.309	85.3538	341.309	88.6129	341.309	84.1676	341.309	88.6497	341.309	83.1022	341.309	88.3394	341.309	82.2173	341.309	87.7016	341.309	81.4801	341.309	86.7999	341.309	80.8243	341.309	85.7689	341.309	80.2029	341.309	84.8125	341.309	79.6023	341.309	84.1131	341.309	79.0415	341.309	83.6326	341.309	78.581	341.309	83.1063	341.309	78.3333	341.309	82.4489	341.309	78.438	341.309	82.0497	341.309	78.9691	341.309	82.2366	341.309	79.8426	341.309	82.6706	341.309	80.8487	341.309	82.9214	341.309	81.7702	341.309	82.8523	341.309	82.4608
353.027	87.5405	353.027	86.6245	353.027	88.1376	353.027	85.4276	353.027	88.4086	353.027	84.0534	353.027	88.3434	353.027	82.6857	353.027	87.9207	353.027	81.5362	353.027	87.1375	353.027	80.7202	353.027	86.054	353.027	80.1845	353.027	84.8049	353.027	79.7863	353.027	83.5617	353.027	79.4049	353.027	82.533	353.027	78.981	353.027	81.9077	353.027	78.5125	353.027	81.5149	353.027	78.0594	353.027	80.9263	353.027	77.7738	353.027	80.2052	353.027	77.8894	353.027	80.1028	353.027	78.5343	353.027	80.7842	353.027	79.5341	353.027	81.4667	353.027	80.5527	353.027	81.6609	353.027	81.3197
366.211	86.8945	366.211	86.0085	366.211	87.4212	366.211	84.8379	366.211	87.5365	366.211	83.4887	366.211	87.2089	366.211	82.1035	366.211	86.4452	366.211	80.8486	366.211	85.3303	366.211	79.8729	366.211	84.0582	366.211	79.2413	366.211	82.8901	366.211	78.9037	366.211	82.0579	366.211	78.74	366.211	81.7069	366.211	78.6299	366.211	81.6877	366.211	78.4914	366.211	81.5128	366.211	78.3007	366.211	80.8941	366.211	78.1117	366.211	80.1149	366.211	78.0559	366.211	79.6807	366.211	78.2641	366.211	79.6205	366.211	78.7227	366.211	79.6855	366.211	79.2415	366.211	79.7252	366.211	79.6039
379.395	87.3016	379.395	86.3139	379.395	87.8653	379.395	84.9795	379.395	87.9656	379.395	83.423	379.395	87.6012	379.395	81.8202	379.395	86.8166	379.395	80.3657	379.395	85.7059	379.395	79.1993	379.395	84.396	379.395	78.3548	379.395	83.0096	379.395	77.7867	379.395	81.6973	379.395	77.4278	379.395	80.8434	379.395	77.2229	379.395	80.8245	379.395	77.144	379.395	81.193	379.395	77.2034	379.395	81.2967	379.395	77.4543	379.395	81.0778	379.395	77.9479	379.395	80.7776	379.395	78.652	379.395	80.5419	379.395	79.4187	379.395	80.4485	379.395	80.0502	379.395	80.4724	379.395	80.4012
392.578	86.7263	392.578	85.9505	392.578	87.0247	392.578	84.7307	392.578	86.8752	392.578	83.1718	392.578	86.3604	392.578	81.4615	392.578	85.5943	392.578	79.8407	392.578	84.6957	392.578	78.4982	392.578	83.7768	392.578	77.487	392.578	82.9177	392.578	76.7779	392.578	82.1467	392.578	76.346	392.578	81.5048	392.578	76.1726	392.578	81.0138	392.578	76.2194	392.578	80.6115	392.578	76.4435	392.578	80.4819	392.578	76.8297	392.578	80.8986	392.578	77.3786	392.578	81.4078	392.578	78.0446	392.578	81.3994	392.578	78.7073	392.578	80.8488	392.578	79.2442	392.578	80.1674	392.578	79.6663
405.762	86.2422	405.762	85.3275	405.762	86.7867	405.762	84.0708	405.762	86.9574	405.762	82.5492	405.762	86.749	405.762	80.9099	405.762	86.1455	405.762	79.3786	405.762	85.1465	405.762	78.1998	405.762	83.8149	405.762	77.4741	405.762	82.3258	405.762	77.0698	405.762	81.063	405.762	76.7509	405.762	80.581	405.762	76.3317	405.762	80.7096	405.762	75.7461	405.762	80.5052	405.762	75.1186	405.762	79.8995	405.762	74.8424	405.762	80.2365	405.762	75.3988	405.762	81.5587	405.762	76.7892	405.762	82.4784	405.762	78.4976	405.762	82.6064	405.762	80.0611	405.762	82.1465	405.762	81.2858
420.41	86.8804	420.41	85.7055	420.41	87.5545	420.41	84.0575	420.41	87.7125	420.41	81.9995	420.41	87.3469	420.41	79.6987	420.41	86.4637	420.41	77.5215	420.41	85.1091	420.41	75.9599	420.41	83.4248	420.41	75.228	420.41	81.6816	420.41	75.1175	420.41	80.2417	420.41	75.3425	420.41	79.5443	420.41	75.7188	420.41	79.5033	420.41	76.1311	420.41	79.0237	420.41	76.4807	420.41	77.5681	420.41	76.6831	420.41	77.151	420.41	76.7653	420.41	78.9733	420.41	76.9753	420.41	80.4305	420.41	77.6093	420.41	80.8063	420.41	78.6059	420.41	80.4309	420.41	79.6308
435.059	87.8832	435.059	86.8428	435.059	88.328	435.059	85.2404	435.059	88.1291	435.059	83.126	435.059	87.2326	435.059	80.6218	435.059	85.6393	435.059	78.0098	435.059	83.4918	435.059	75.8061	435.059	81.0788	435.059	74.5252	435.059	78.7387	435.059	74.1536	435.059	77.5313	435.059	74.2966	435.059	78.71	435.059	74.6921	435.059	80.2215	435.059	75.2696	435.059	80.3294	435.059	75.993	435.059	78.803	435.059	76.7701	435.059	76.3996	435.059	77.4836	435.059	75.3031	435.059	78.056	435.059	76.1768	435.059	78.4669	435.059	77.4032	435.059	78.7027	435.059	78.2766	435.059	78.6842
451.172	87.5913	451.172	86.5341	451.172	88.1196	451.172	85.0274	451.172	88.0942	451.172	83.1596	451.172	87.5581	451.172	81.001	451.172	86.5479	451.172	78.6247	451.172	85.0018	451.172	76.1696	451.172	82.8422	451.172	73.8835	451.172	80.1675	451.172	72.0195	451.172	76.9601	451.172	70.6485	451.172	73.712	451.172	69.7235	451.172	76.2512	451.172	69.3241	451.172	79.9504	451.172	69.795	451.172	81.5484	451.172	71.5256	451.172	81.9654	451.172	74.2242	451.172	82.402	451.172	77.1155	451.172	83.1152	451.172	79.6774	451.172	83.6354	451.172	81.6776	451.172	83.6469	451.172	83.011
465.82	87.0857	465.82	86.0287	465.82	87.532	465.82	84.4209	465.82	87.3778	465.82	82.3616	465.82	86.684	465.82	79.9285	465.82	85.5097	465.82	77.1755	465.82	83.9081	465.82	74.3269	465.82	82.007	465.82	72.0551	465.82	79.9615	465.82	70.9511	465.82	77.7561	465.82	70.6493	465.82	76.1353	465.82	70.553	465.82	76.7758	465.82	70.4275	465.82	77.9548	465.82	70.5365	465.82	78.7124	465.82	71.7075	465.82	79.9664	465.82	74.2317	465.82	81.2898	465.82	77.2036	465.82	82.0488	465.82	79.7903	465.82	82.5194	465.82	81.6389	465.82	82.8337	465.82	82.6365
483.398	87.845	483.398	86.3256	483.398	88.6455	483.398	84.0881	483.398	88.7331	483.398	81.1935	483.398	88.1095	483.398	77.8827	483.398	86.7735	483.398	74.7084	483.398	84.7386	483.398	72.3081	483.398	82.1183	483.398	70.8688	483.398	79.2157	483.398	70.2815	483.398	76.3116	483.398	70.4011	483.398	74.8851	483.398	70.9243	483.398	76.3306	483.398	71.5384	483.398	77.1196	483.398	72.1693	483.398	77.4287	483.398	72.9991	483.398	79.4386	483.398	74.3038	483.398	81.1134	483.398	76.1359	483.398	81.4585	483.398	78.1283	483.398	81.2815	483.398	79.7928	483.398	81.1882	483.398	80.82
499.512	86.9531	499.512	85.9662	499.512	87.3348	499.512	84.3268	499.512	87.1653	499.512	81.9938	499.512	86.477	499.512	78.9354	499.512	85.222	499.512	75.2237	499.512	83.2804	499.512	71.5169	499.512	80.6439	499.512	69.4181	499.512	77.6831	499.512	68.8844	499.512	74.9185	499.512	68.4004	499.512	72.9495	499.512	67.5735	499.512	73.4315	499.512	66.8241	499.512	74.4115	499.512	67.1629	499.512	74.9235	499.512	69.3103	499.512	77.3938	499.512	72.3624	499.512	80.1682	499.512	75.2326	499.512	81.548	499.512	77.4977	499.512	81.697	499.512	79.1213	499.512	81.14	499.512	80.2683
517.09	87.0902	517.09	85.4371	517.09	87.933	517.09	82.9905	517.09	87.9655	517.09	79.808	517.09	87.1735	517.09	76.0936	517.09	85.4526	517.09	72.4371	517.09	82.5738	517.09	69.7287	517.09	78.5062	517.09	68.1259	517.09	74.6925	517.09	67.0473	517.09	72.2456	517.09	66.1589	517.09	71.8052	517.09	65.5902	517.09	75.4683	517.09	65.7101	517.09	76.7326	517.09	66.3892	517.09	75.6779	517.09	67.2982	517.09	77.5303	517.09	69.1168	517.09	80.7636	517.09	72.4586	517.09	82.6628	517.09	76.2473	517.09	83.4354	517.09	79.4978	517.09	83.181	517.09	81.8555
536.133	87.5529	536.133	85.9388	536.133	88.2409	536.133	83.3232	536.133	88.0195	536.133	79.5409	536.133	86.9047	536.133	74.3823	536.133	84.9454	536.133	68.1563	536.133	82.1642	536.133	65.076	536.133	78.5247	536.133	66.9149	536.133	74.3469	536.133	68.5856	536.133	69.4016	536.133	69.0414	536.133	65.7617	536.133	68.3352	536.133	72.8339	536.133	66.8285	536.133	75.2836	536.133	65.3008	536.133	75.7276	536.133	64.9063	536.133	77.4325	536.133	67.3139	536.133	79.0048	536.133	71.9818	536.133	80.1243	536.133	76.2754	536.133	81.3526	536.133	79.3785	536.133	81.91	536.133	81.2609
555.176	86.9165	555.176	85.2794	555.176	87.6518	555.176	82.6225	555.176	87.567	555.176	78.7107	555.176	86.7	555.176	72.9563	555.176	84.9541	555.176	63.8505	555.176	82.0269	555.176	60.7565	555.176	77.7745	555.176	64.751	555.176	73.9554	555.176	65.6042	555.176	71.4578	555.176	64.8698	555.176	66.2576	555.176	63.0039	555.176	67.4272	555.176	60.0589	555.176	69.27	555.176	57.1722	555.176	73.0723	555.176	60.0391	555.176	77.9035	555.176	66.1627	555.176	79.9099	555.176	71.6777	555.176	80.5169	555.176	76.0328	555.176	81.2414	555.176	79.1598	555.176	81.6877	555.176	81.0532
574.219	87.3554	574.219	85.3939	574.219	88.3182	574.219	82.2727	574.219	88.2942	574.219	77.5631	574.219	87.2019	574.219	69.9624	574.219	84.8496	574.219	48.3586	574.219	80.7393	574.219	63.3236	574.219	73.7949	574.219	66.6255	574.219	68.3707	574.219	67.5224	574.219	68.0907	574.219	67.7997	574.219	61.6482	574.219	67.6671	574.219	69.3937	574.219	66.8392	574.219	68.9453	574.219	64.9377	574.219	66.9341	574.219	62.5414	574.219	75.8458	574.219	65.7006	574.219	79.4404	574.219	72.041	574.219	81.0809	574.219	76.8015	574.219	81.9554	574.219	79.8689	574.219	82.1568	574.219	81.5468
594.727	87.0538	594.727	85.0865	594.727	87.9506	594.727	81.8453	594.727	87.7555	594.727	76.7086	594.727	86.2973	594.727	67.554	594.727	83.3229	594.727	58.8075	594.727	78.4204	594.727	66.1217	594.727	70.8326	594.727	67.0427	594.727	68.8168	594.727	66.4475	594.727	69.6608	594.727	65.7865	594.727	64.6831	594.727	64.8957	594.727	70.0805	594.727	62.6133	594.727	71.6586	594.727	57.6756	594.727	71.1129	594.727	54.911	594.727	73.4411	594.727	59.2343	594.727	75.5194	594.727	68.2022	594.727	78.4148	594.727	74.5319	594.727	80.2915	594.727	78.2043	594.727	80.6704	594.727	80.0326
615.234	87.6155	615.234	85.367	615.234	88.6311	615.234	81.76	615.234	88.4095	615.234	76.391	615.234	86.8934	615.234	68.1976	615.234	83.936	615.234	63.0313	615.234	78.971	615.234	67.5352	615.234	73.4569	615.234	69.4749	615.234	75.5038	615.234	70.0885	615.234	74.8213	615.234	70.1348	615.234	66.2786	615.234	69.9652	615.234	63.5111	615.234	69.5632	615.234	62.6405	615.234	68.1928	615.234	71.7322	615.234	64.3514	615.234	76.7713	615.234	60.5017	615.234	77.7941	615.234	67.8386	615.234	78.5511	615.234	72.5559	615.234	79.2086	615.234	75.2678	615.234	78.6047	615.234	77.1259
637.207	87.7592	637.207	85.6905	637.207	88.5615	637.207	82.2693	637.207	88.0749	637.207	77.1798	637.207	86.1754	637.207	69.3118	637.207	82.562	637.207	63.3978	637.207	76.2118	637.207	68.4406	637.207	67.2004	637.207	70.2352	637.207	73.3694	637.207	70.6092	637.207	75.0054	637.207	70.8862	637.207	72.8637	637.207	71.3908	637.207	70.5605	637.207	71.7118	637.207	65.0399	637.207	71.4371	637.207	66.522	637.207	70.0937	637.207	74.6882	637.207	65.6699	637.207	77.2018	637.207	60.0237	637.207	79.2256	637.207	72.6532	637.207	80.9012	637.207	78.0729	637.207	81.4654	637.207	80.6672
659.18	86.5863	659.18	84.0657	659.18	87.7503	659.18	79.7157	659.18	87.7091	659.18	72.1925	659.18	86.2677	659.18	54.6171	659.18	82.7559	659.18	65.6819	659.18	75.5993	659.18	68.3216	659.18	72.5977	659.18	69.1108	659.18	77.5309	659.18	69.9704	659.18	77.7541	659.18	70.6968	659.18	74.6721	659.18	70.9627	659.18	72.952	659.18	71.3778	659.18	71.3238	659.18	72.1178	659.18	65.3306	659.18	71.9223	659.18	71.6198	659.18	69.0016	659.18	76.2703	659.18	54.8024	659.18	79.2155	659.18	69.0555	659.18	80.1707	659.18	75.3819	659.18	79.5002	659.18	78.0546
682.617	87.7203	682.617	84.8529	682.617	88.9556	682.617	79.7102	682.617	88.6433	682.617	70.2829	682.617	86.5596	682.617	68.9577	682.617	82.1635	682.617	72.9625	682.617	73.2903	682.617	73.5225	682.617	70.5429	682.617	73.0643	682.617	75.9269	682.617	72.7172	682.617	74.7919	682.617	72.681	682.617	71.3436	682.617	72.7616	682.617	74.3258	682.617	72.9646	682.617	73.9406	682.617	73.5051	682.617	68.6718	682.617	73.8394	682.617	71.0309	682.617	72.4667	682.617	75.6007	682.617	67.8907	682.617	79.1681	682.617	71.2406	682.617	80.8407	682.617	77.4784	682.617	81.2231	682.617	80.3859
707.52	87.3285	707.52	84.716	707.52	88.4396	707.52	80.3035	707.52	88.1118	707.52	74.9592	707.52	86.0005	707.52	74.2678	707.52	81.0583	707.52	75.4832	707.52	69.0931	707.52	75.6823	707.52	72.2572	707.52	75.2146	707.52	76.6144	707.52	74.3052	707.52	76.8542	707.52	73.0536	707.52	73.884	707.52	72.3062	707.52	73.7571	707.52	72.8807	707.52	74.1397	707.52	73.6888	707.52	68.1078	707.52	73.7997	707.52	60.9042	707.52	72.7056	707.52	75.0101	707.52	70.2312	707.52	79.6507	707.52	72.3418	707.52	80.7714	707.52	77.3209	707.52	80.654	707.52	79.8868
732.422	87.6782	732.422	85.2166	732.422	88.3678	732.422	80.7283	732.422	87.4168	732.422	74.7231	732.422	84.6909	732.422	73.8676	732.422	79.0696	732.422	75.6501	732.422	61.2133	732.422	76.1864	732.422	73.7716	732.422	76.1183	732.422	78.0504	732.422	75.8054	732.422	78.3355	732.422	75.0289	732.422	75.7932	732.422	73.3176	732.422	74.2299	732.422	71.7551	732.422	74.6326	732.422	72.8884	732.422	71.4696	732.422	73.8801	732.422	64.1614	732.422	72.4665	732.422	74.0857	732.422	67.9101	732.422	78.0577	732.422	69.7005	732.422	79.3502	732.422	75.8384	732.422	79.6983	732.422	78.8293
757.324	87.7752	757.324	85.4388	757.324	88.6562	757.324	81.4419	757.324	88.0862	757.324	76.8781	757.324	85.5273	757.324	75.9471	757.324	79.7089	757.324	76.0426	757.324	71.6812	757.324	74.7516	757.324	77.8347	757.324	73.8597	757.324	80.1943	757.324	75.6649	757.324	78.4486	757.324	77.2158	757.324	76.0918	757.324	76.7673	757.324	76.318	757.324	74.824	757.324	71.1862	757.324	74.1297	757.324	59.2741	757.324	74.7969	757.324	64.2067	757.324	73.4866	757.324	75.977	757.324	68.9414	757.324	79.4912	757.324	71.2322	757.324	79.6208	757.324	76.7217	757.324	79.4434	757.324	79.0684
785.156	87.4891	785.156	85.1389	785.156	88.126	785.156	81.2172	785.156	86.953	785.156	77.487	785.156	83.3543	785.156	77.3758	785.156	75.2468	785.156	78.4882	785.156	76.1571	785.156	78.9634	785.156	80.9832	785.156	78.4473	785.156	81.2554	785.156	77.0638	785.156	77.9907	785.156	76.2322	785.156	73.728	785.156	76.4236	785.156	78.8794	785.156	76.341	785.156	79.75	785.156	75.7474	785.156	75.1656	785.156	75.1246	785.156	68.3653	785.156	74.0009	785.156	70.3903	785.156	71.0696	785.156	75.9759	785.156	71.7078	785.156	78.8018	785.156	77.2545	785.156	80.367	785.156	80.0983
811.523	87.5077	811.523	84.8706	811.523	88.1727	811.523	80.1067	811.523	87.0445	811.523	76.9387	811.523	83.6949	811.523	79.094	811.523	76.403	811.523	80.1179	811.523	75.8864	811.523	79.9	811.523	80.8851	811.523	79.5128	811.523	82.0455	811.523	78.8249	811.523	80.3592	811.523	77.3301	811.523	75.2979	811.523	74.2441	811.523	77.9653	811.523	69.383	811.523	80.1446	811.523	71.269	811.523	77.0673	811.523	73.8996	811.523	69.7802	811.523	73.195	811.523	70.2845	811.523	70.2282	811.523	74.2459	811.523	72.6993	811.523	76.1834	811.523	76.9677	811.523	77.8265	811.523	78.5181
840.82	87.2375	840.82	85.1872	840.82	87.3681	840.82	81.3046	840.82	85.5376	840.82	78.5838	840.82	81.2907	840.82	79.6499	840.82	75.4828	840.82	79.8638	840.82	79.3464	840.82	78.3463	840.82	82.5471	840.82	76.0198	840.82	82.2805	840.82	75.3789	840.82	79.368	840.82	77.0307	840.82	75.4542	840.82	78.2627	840.82	74.8305	840.82	77.6983	840.82	77.0056	840.82	75.4425	840.82	77.7692	840.82	73.5868	840.82	74.623	840.82	72.8811	840.82	69.8829	840.82	71.1965	840.82	74.2057	840.82	72.9319	840.82	75.8794	840.82	76.9388	840.82	77.5212	840.82	78.3512
870.117	87.4145	870.117	84.8495	870.117	87.9268	870.117	80.9434	870.117	86.2136	870.117	80.1181	870.117	81.5158	870.117	81.1153	870.117	75.9211	870.117	80.7025	870.117	80.9639	870.117	78.8437	870.117	83.4066	870.117	75.9382	870.117	82.5144	870.117	73.3342	870.117	79.6956	870.117	74.5956	870.117	77.733	870.117	76.2409	870.117	80.8862	870.117	76.235	870.117	80.5609	870.117	75.8468	870.117	78.7937	870.117	76.2876	870.117	77.6876	870.117	76.1461	870.117	73.2411	870.117	73.2932	870.117	74.1393	870.117	68.8063	870.117	77.5575	870.117	73.575	870.117	78.8948	870.117	77.6208
900.879	86.9774	900.879	84.93	900.879	87.4284	900.879	82.2484	900.879	86.0447	900.879	81.0851	900.879	82.56	900.879	81.07	900.879	77.3224	900.879	79.923	900.879	79.1754	900.879	78.115	900.879	81.6169	900.879	77.2198	900.879	81.5243	900.879	77.0248	900.879	78.2713	900.879	75.4773	900.879	75.6773	900.879	72.8572	900.879	79.652	900.879	74.0004	900.879	78.8314	900.879	74.9728	900.879	75.8361	900.879	74.2669	900.879	70.7762	900.879	73.6339	900.879	64.1933	900.879	73.9756	900.879	72.0827	900.879	75.3196	900.879	74.446	900.879	77.3826	900.879	77.4123	900.879	78.4454
933.105	87.9907	933.105	85.9072	933.105	87.4459	933.105	82.1475	933.105	84.452	933.105	80.8214	933.105	78.4835	933.105	81.2867	933.105	77.4739	933.105	80.3666	933.105	82.7852	933.105	77.811	933.105	84.6859	933.105	76.0138	933.105	82.4575	933.105	77.1435	933.105	72.6767	933.105	78.3378	933.105	70.1075	933.105	77.1168	933.105	75.2966	933.105	74.7425	933.105	74.8081	933.105	75.9473	933.105	74.963	933.105	77.8194	933.105	74.3076	933.105	77.4512	933.105	67.9247	933.105	74.3822	933.105	72.2563	933.105	75.31	933.105	76.5837	933.105	78.8027	933.105	76.59	933.105	78.2558
965.332	87.9801	965.332	86.4201	965.332	87.9586	965.332	83.4072	965.332	85.9479	965.332	80.6638	965.332	81.3762	965.332	80.4383	965.332	77.9306	965.332	80.2353	965.332	82.4332	965.332	78.7976	965.332	84.4325	965.332	77.044	965.332	82.8948	965.332	76.6908	965.332	80.5488	965.332	77.0393	965.332	76.979	965.332	75.7749	965.332	76.7303	965.332	72.0096	965.332	77.0679	965.332	67.8866	965.332	75.4586	965.332	71.7133	965.332	71.3863	965.332	72.9071	965.332	62.5644	965.332	68.574	965.332	73.7023	965.332	70.8247	965.332	78.5465	965.332	76.5576	965.332	80.8572	965.332	80.0134
1,000.49	86.749	1,000.49	84.7182	1,000.49	87.3676	1,000.49	82.5681	1,000.49	86.2644	1,000.49	82.9604	1,000.49	83.3094	1,000.49	82.3569	1,000.49	81.3749	1,000.49	79.0958	1,000.49	82.6645	1,000.49	76.1109	1,000.49	82.5346	1,000.49	76.124	1,000.49	81.8126	1,000.49	76.0738	1,000.49	79.0372	1,000.49	78.4959	1,000.49	78.9587	1,000.49	79.6798	1,000.49	76.6894	1,000.49	77.8475	1,000.49	68.6874	1,000.49	73.3309	1,000.49	63.5502	1,000.49	76.0603	1,000.49	69.7762	1,000.49	78.8057	1,000.49	69.3343	1,000.49	77.508	1,000.49	74.6847	1,000.49	72.3827	1,000.49	77.7927	1,000.49	78.7439	1,000.49	79.4743	1,000.49	81.3271
1,035.64	87.2952	1,035.64	86.0565	1,035.64	86.4187	1,035.64	83.9557	1,035.64	83.7747	1,035.64	82.7957	1,035.64	80.5529	1,035.64	82.6699	1,035.64	78.6053	1,035.64	82.1113	1,035.64	81.4694	1,035.64	80.3898	1,035.64	84.7756	1,035.64	77.3365	1,035.64	83.5117	1,035.64	72.6724	1,035.64	72.7913	1,035.64	66.7798	1,035.64	78.0535	1,035.64	66.6605	1,035.64	82.9996	1,035.64	68.396	1,035.64	81.7957	1,035.64	67.5793	1,035.64	71.9712	1,035.64	74.4756	1,035.64	73.6721	1,035.64	77.8241	1,035.64	70.5118	1,035.64	77.684	1,035.64	64.3505	1,035.64	76.2992	1,035.64	76.9171	1,035.64	78.5469	1,035.64	78.141	1,035.64	78.8941
1,072.27	87.4885	1,072.27	86.6605	1,072.27	86.5563	1,072.27	84.6593	1,072.27	84.4455	1,072.27	83.4778	1,072.27	83.3767	1,072.27	83.2797	1,072.27	84.6165	1,072.27	82.1768	1,072.27	85.7281	1,072.27	80.6753	1,072.27	85.5937	1,072.27	80.2	1,072.27	84.0744	1,072.27	78.6829	1,072.27	80.4966	1,072.27	71.2776	1,072.27	72.1257	1,072.27	76.1974	1,072.27	80.1728	1,072.27	79.5283	1,072.27	80.7246	1,072.27	76.9996	1,072.27	73.6352	1,072.27	72.5314	1,072.27	68.5146	1,072.27	76.4272	1,072.27	75.3262	1,072.27	76.3848	1,072.27	76.8452	1,072.27	71.6436	1,072.27	79.8573	1,072.27	75.1392	1,072.27	80.8996	1,072.27	77.3725
1,108.89	88.5365	1,108.89	87.1741	1,108.89	88.0429	1,108.89	84.3589	1,108.89	85.8491	1,108.89	83.412	1,108.89	83.9495	1,108.89	83.8329	1,108.89	85.2031	1,108.89	81.8582	1,108.89	86.2075	1,108.89	77.3864	1,108.89	84.6878	1,108.89	77.7343	1,108.89	82.8004	1,108.89	80.61	1,108.89	82.2938	1,108.89	77.2827	1,108.89	78.5669	1,108.89	65.6783	1,108.89	73.5448	1,108.89	65.7124	1,108.89	82.1424	1,108.89	74.9006	1,108.89	82.7171	1,108.89	74.9623	1,108.89	78.8269	1,108.89	74.7402	1,108.89	77.6877	1,108.89	75.0604	1,108.89	78.6655	1,108.89	72.0935	1,108.89	79.9857	1,108.89	75.8876	1,108.89	81.6283	1,108.89	80.2992
1,148.44	87.0674	1,148.44	86.3896	1,148.44	86.6345	1,148.44	85.0353	1,148.44	85.0069	1,148.44	83.8888	1,148.44	83.948	1,148.44	82.4515	1,148.44	85.2578	1,148.44	80.8336	1,148.44	86.2655	1,148.44	80.5607	1,148.44	85.6065	1,148.44	78.5333	1,148.44	83.5526	1,148.44	71.9774	1,148.44	81.1834	1,148.44	71.1503	1,148.44	77.3814	1,148.44	77.1028	1,148.44	74.2409	1,148.44	78.6928	1,148.44	77.904	1,148.44	76.0064	1,148.44	76.9556	1,148.44	69.5182	1,148.44	64.2596	1,148.44	73.2887	1,148.44	54.7417	1,148.44	77.2607	1,148.44	74.6318	1,148.44	76.2489	1,148.44	77.678	1,148.44	72.7974	1,148.44	74.72	1,148.44	74.0549
1,189.45	87.489	1,189.45	86.1333	1,189.45	86.8562	1,189.45	83.472	1,189.45	84.1084	1,189.45	82.5405	1,189.45	82.5225	1,189.45	83.2643	1,189.45	85.0278	1,189.45	82.462	1,189.45	85.7417	1,189.45	79.3415	1,189.45	83.0456	1,189.45	75.8931	1,189.45	80.1709	1,189.45	75.4912	1,189.45	79.7355	1,189.45	74.1019	1,189.45	75.4984	1,189.45	65.9907	1,189.45	69.3899	1,189.45	73.2446	1,189.45	76.5501	1,189.45	75.7352	1,189.45	79.3721	1,189.45	74.8095	1,189.45	79.764	1,189.45	74.1227	1,189.45	77.25	1,189.45	71.6376	1,189.45	71.9858	1,189.45	68.4932	1,189.45	74.5301	1,189.45	73.7054	1,189.45	76.1114	1,189.45	75.984
1,230.47	87.3083	1,230.47	85.911	1,230.47	86.8357	1,230.47	83.8641	1,230.47	84.2434	1,230.47	82.9112	1,230.47	82.6903	1,230.47	81.7106	1,230.47	85.1029	1,230.47	80.3921	1,230.47	85.7122	1,230.47	79.1398	1,230.47	84.5465	1,230.47	76.5627	1,230.47	82.5752	1,230.47	75.1951	1,230.47	80.6121	1,230.47	76.2965	1,230.47	77.1287	1,230.47	74.213	1,230.47	71.6252	1,230.47	71.469	1,230.47	76.3753	1,230.47	74.4707	1,230.47	74.4314	1,230.47	75.4663	1,230.47	65.2563	1,230.47	74.307	1,230.47	56.8429	1,230.47	73.4984	1,230.47	69.736	1,230.47	74.0312	1,230.47	73.937	1,230.47	75.0547	1,230.47	75.7375	1,230.47	76.0395
1,274.41	87.9729	1,274.41	85.7502	1,274.41	87.2431	1,274.41	82.5887	1,274.41	84.1603	1,274.41	82.661	1,274.41	82.9509	1,274.41	82.2704	1,274.41	84.908	1,274.41	78.8663	1,274.41	85.0619	1,274.41	77.6972	1,274.41	83.3416	1,274.41	78.9524	1,274.41	82.5465	1,274.41	76.4762	1,274.41	81.8518	1,274.41	71.8433	1,274.41	78.8649	1,274.41	70.5122	1,274.41	76.3924	1,274.41	71.0213	1,274.41	73.2459	1,274.41	70.5814	1,274.41	77.4716	1,274.41	70.4635	1,274.41	79.8082	1,274.41	73.1196	1,274.41	75.2258	1,274.41	73.5198	1,274.41	67.6157	1,274.41	71.0594	1,274.41	75.6074	1,274.41	74.4581	1,274.41	74.284	1,274.41	75.1412
1,319.82	88.0603	1,319.82	86.1462	1,319.82	87.6388	1,319.82	83.5436	1,319.82	85.4909	1,319.82	82.8393	1,319.82	84.4467	1,319.82	82.6758	1,319.82	85.0924	1,319.82	81.6777	1,319.82	83.3441	1,319.82	78.8727	1,319.82	81.7969	1,319.82	74.5974	1,319.82	83.0804	1,319.82	74.4322	1,319.82	79.6476	1,319.82	75.4017	1,319.82	67.2897	1,319.82	74.9701	1,319.82	74.5258	1,319.82	75.9924	1,319.82	72.8358	1,319.82	76.0387	1,319.82	68.2546	1,319.82	72.3963	1,319.82	60.1904	1,319.82	71.838	1,319.82	65.2076	1,319.82	73.4247	1,319.82	69.7348	1,319.82	71.1915	1,319.82	73.2824	1,319.82	72.4975	1,319.82	77.412	1,319.82	75.5164
1,366.7	87.8321	1,366.7	86.07	1,366.7	87.5337	1,366.7	83.7229	1,366.7	85.8059	1,366.7	82.8852	1,366.7	85.6127	1,366.7	81.5497	1,366.7	86.2489	1,366.7	79.6184	1,366.7	85.5943	1,366.7	78.766	1,366.7	83.7569	1,366.7	77.2599	1,366.7	80.9056	1,366.7	72.752	1,366.7	80.6976	1,366.7	68.9625	1,366.7	79.4854	1,366.7	69.2973	1,366.7	73.749	1,366.7	69.8604	1,366.7	71.3164	1,366.7	72.7902	1,366.7	78.1479	1,366.7	74.1304	1,366.7	75.9554	1,366.7	72.778	1,366.7	75.1691	1,366.7	71.6374	1,366.7	70.9385	1,366.7	71.5094	1,366.7	70.6361	1,366.7	72.6306	1,366.7	72.5454	1,366.7	74.2691
1,413.57	87.4193	1,413.57	85.3417	1,413.57	87.5074	1,413.57	83.7894	1,413.57	85.8414	1,413.57	83.6952	1,413.57	85.5724	1,413.57	82.1169	1,413.57	84.8895	1,413.57	79.0526	1,413.57	82.1305	1,413.57	74.2416	1,413.57	81.1463	1,413.57	74.8067	1,413.57	83.0384	1,413.57	78.0538	1,413.57	79.3709	1,413.57	78.2014	1,413.57	71.1643	1,413.57	71.4129	1,413.57	72.6027	1,413.57	58.1771	1,413.57	70.0221	1,413.57	71.1681	1,413.57	71.8704	1,413.57	73.0663	1,413.57	70.034	1,413.57	71.5598	1,413.57	66.0014	1,413.57	73.0825	1,413.57	65.6214	1,413.57	71.028	1,413.57	75.1809	1,413.57	66.9898	1,413.57	77.035	1,413.57	70.2155
1,463.38	86.2325	1,463.38	83.8446	1,463.38	86.8612	1,463.38	82.7707	1,463.38	86.5473	1,463.38	82.6717	1,463.38	86.7616	1,463.38	80.5758	1,463.38	86.2238	1,463.38	78.9917	1,463.38	84.1241	1,463.38	78.1898	1,463.38	82.7786	1,463.38	77.1704	1,463.38	81.2991	1,463.38	72.7559	1,463.38	76.3183	1,463.38	71.1722	1,463.38	72.796	1,463.38	77.1353	1,463.38	73.2069	1,463.38	78.1892	1,463.38	74.9719	1,463.38	75.3765	1,463.38	74.8074	1,463.38	72.3814	1,463.38	73.5758	1,463.38	74.3914	1,463.38	73.2149	1,463.38	72.8253	1,463.38	70.9742	1,463.38	65.6069	1,463.38	72.8209	1,463.38	70.5812	1,463.38	74.365	1,463.38	74.6658
1,516.11	85.7778	1,516.11	82.9701	1,516.11	86.6072	1,516.11	82.2327	1,516.11	85.5545	1,516.11	83.0835	1,516.11	86.4202	1,516.11	81.1522	1,516.11	86.3562	1,516.11	79.1202	1,516.11	82.814	1,516.11	79.2778	1,516.11	79.8271	1,516.11	76.1421	1,516.11	80.5385	1,516.11	71.9838	1,516.11	78.3662	1,516.11	70.6284	1,516.11	75.3998	1,516.11	69.4943	1,516.11	75.4408	1,516.11	72.8094	1,516.11	68.0489	1,516.11	73.6384	1,516.11	70.0986	1,516.11	69.1807	1,516.11	74.3718	1,516.11	72.2064	1,516.11	72.7336	1,516.11	74.1668	1,516.11	66.9098	1,516.11	71.1256	1,516.11	67.6533	1,516.11	67.8321	1,516.11	74.0778	1,516.11	66.1223
1,568.85	85.3478	1,568.85	81.9238	1,568.85	85.9733	1,568.85	81.1952	1,568.85	84.6366	1,568.85	81.546	1,568.85	85.746	1,568.85	79.8303	1,568.85	84.9164	1,568.85	79.4392	1,568.85	80.9333	1,568.85	76.8373	1,568.85	81.1952	1,568.85	75.3812	1,568.85	81.0379	1,568.85	77.4465	1,568.85	72.1544	1,568.85	72.5646	1,568.85	63.861	1,568.85	74.235	1,568.85	71.0445	1,568.85	71.0588	1,568.85	75.2951	1,568.85	61.3392	1,568.85	67.2242	1,568.85	70.9686	1,568.85	55.0357	1,568.85	68.8092	1,568.85	68.8641	1,568.85	66.8368	1,568.85	74.3638	1,568.85	64.1198	1,568.85	68.4198	1,568.85	65.5765	1,568.85	73.0794	1,568.85	74.2248
1,624.51	85.449	1,624.51	82.6111	1,624.51	85.9858	1,624.51	79.9288	1,624.51	85.2289	1,624.51	79.4798	1,624.51	85.3172	1,624.51	78.3858	1,624.51	84.0816	1,624.51	77.2029	1,624.51	81.2307	1,624.51	78.1298	1,624.51	79.6459	1,624.51	76.6719	1,624.51	74.2019	1,624.51	73.7511	1,624.51	71.5228	1,624.51	76.9086	1,624.51	75.7556	1,624.51	77.6261	1,624.51	75.6825	1,624.51	74.5205	1,624.51	63.6628	1,624.51	74.2147	1,624.51	70.8588	1,624.51	73.0957	1,624.51	72.8478	1,624.51	73.0499	1,624.51	72.3048	1,624.51	72.5944	1,624.51	68.8286	1,624.51	67.869	1,624.51	69.1861	1,624.51	63.4491	1,624.51	70.3465	1,624.51	62.6582
1,681.64	85.9676	1,681.64	81.7022	1,681.64	87.0974	1,681.64	76.9421	1,681.64	85.3789	1,681.64	77.9907	1,681.64	84.4178	1,681.64	79.0423	1,681.64	83.6086	1,681.64	75.4993	1,681.64	81.3968	1,681.64	76.6239	1,681.64	76.5605	1,681.64	78.5412	1,681.64	75.6544	1,681.64	77.0764	1,681.64	71.819	1,681.64	73.9023	1,681.64	64.1769	1,681.64	72.9581	1,681.64	74.5937	1,681.64	72.114	1,681.64	71.7619	1,681.64	65.2176	1,681.64	67.9351	1,681.64	68.3304	1,681.64	72.4209	1,681.64	72.0171	1,681.64	68.699	1,681.64	65.3075	1,681.64	68.0641	1,681.64	57.8232	1,681.64	70.9742	1,681.64	65.7629	1,681.64	71.8384	1,681.64	72.979
1,741.7	86.287	1,741.7	82.8712	1,741.7	86.6039	1,741.7	77.2064	1,741.7	86.4471	1,741.7	77.2446	1,741.7	84.7802	1,741.7	76.859	1,741.7	82.0781	1,741.7	77.3318	1,741.7	80.2835	1,741.7	77.1479	1,741.7	77.8375	1,741.7	74.9175	1,741.7	47.4158	1,741.7	76.3804	1,741.7	70.4886	1,741.7	76.3617	1,741.7	74.3824	1,741.7	77.9352	1,741.7	74.7635	1,741.7	75.8206	1,741.7	62.8598	1,741.7	71.4985	1,741.7	66.0775	1,741.7	71.577	1,741.7	65.049	1,741.7	71.1243	1,741.7	63.3158	1,741.7	62.9266	1,741.7	66.1874	1,741.7	57.2872	1,741.7	66.5134	1,741.7	56.4939	1,741.7	69.9982	1,741.7	67.4117
1,803.22	84.5227	1,803.22	81.6133	1,803.22	87.202	1,803.22	77.3025	1,803.22	85.9931	1,803.22	75.8931	1,803.22	85.398	1,803.22	78.0167	1,803.22	81.2709	1,803.22	76.5204	1,803.22	77.7474	1,803.22	79.0852	1,803.22	68.2991	1,803.22	80.666	1,803.22	71.0984	1,803.22	76.6558	1,803.22	65.0123	1,803.22	63.1784	1,803.22	71.9148	1,803.22	71.6891	1,803.22	77.8376	1,803.22	69.076	1,803.22	75.8814	1,803.22	76.094	1,803.22	71.6827	1,803.22	72.3849	1,803.22	48.3433	1,803.22	60.2694	1,803.22	65.2116	1,803.22	67.321	1,803.22	72.2059	1,803.22	69.2308	1,803.22	71.0481	1,803.22	70.0741	1,803.22	69.5247	1,803.22	72.1102
1,866.21	86.5115	1,866.21	79.8927	1,866.21	85.4888	1,866.21	72.8007	1,866.21	86.0568	1,866.21	65.8087	1,866.21	83.955	1,866.21	78.22	1,866.21	74.1928	1,866.21	79.7266	1,866.21	74.7469	1,866.21	80.6383	1,866.21	75.1467	1,866.21	78.9455	1,866.21	63.2597	1,866.21	77.9412	1,866.21	72.2578	1,866.21	79.2567	1,866.21	76.4669	1,866.21	72.8026	1,866.21	73.6464	1,866.21	75.4696	1,866.21	65.0261	1,866.21	76.4233	1,866.21	66.0982	1,866.21	76.429	1,866.21	68.6046	1,866.21	77.8966	1,866.21	75.2001	1,866.21	72.933	1,866.21	72.7973	1,866.21	70.5168	1,866.21	55.622	1,866.21	54.5029	1,866.21	73.1953	1,866.21	56.0987
1,932.13	85.1569	1,932.13	82.8212	1,932.13	86.8125	1,932.13	76.7936	1,932.13	83.8601	1,932.13	76.2908	1,932.13	85.5898	1,932.13	76.9593	1,932.13	81.7077	1,932.13	80.6385	1,932.13	71.5242	1,932.13	80.7252	1,932.13	67.686	1,932.13	78.9546	1,932.13	75.002	1,932.13	76.7915	1,932.13	70.8328	1,932.13	75.1888	1,932.13	62.9294	1,932.13	78.2664	1,932.13	76.4739	1,932.13	77.2969	1,932.13	63.5745	1,932.13	75.7306	1,932.13	71.2032	1,932.13	73.165	1,932.13	69.0593	1,932.13	69.4951	1,932.13	66.2594	1,932.13	73.3166	1,932.13	54.3268	1,932.13	72.8877	1,932.13	74.5852	1,932.13	68.0373	1,932.13	62.6643	1,932.13	77.3407
1,999.51	85.5861	1,999.51	77.8672	1,999.51	86.2688	1,999.51	58.088	1,999.51	86.9196	1,999.51	76.7696	1,999.51	85.1728	1,999.51	82.6547	1,999.51	84.0286	1,999.51	83.6406	1,999.51	81.3035	1,999.51	80.6948	1,999.51	76.0329	1,999.51	80.9777	1,999.51	65.7439	1,999.51	81.2446	1,999.51	77.3696	1,999.51	74.1769	1,999.51	80.1206	1,999.51	74.2623	1,999.51	74.661	1,999.51	72.7819	1,999.51	68.4213	1,999.51	75.2565	1,999.51	65.7093	1,999.51	74.0798	1,999.51	73.4103	1,999.51	75.5799	1,999.51	66.8786	1,999.51	72.9565	1,999.51	70.762	1,999.51	69.3684	1,999.51	69.7839	1,999.51	66.3769	1,999.51	72.5518	1,999.51	72.775
2,069.82	83.2918	2,069.82	79.4663	2,069.82	84.5579	2,069.82	80.536	2,069.82	83.8004	2,069.82	81.508	2,069.82	82.6124	2,069.82	82.0551	2,069.82	83.3414	2,069.82	84.1776	2,069.82	78.4031	2,069.82	84.1915	2,069.82	76.0751	2,069.82	76.4797	2,069.82	78.7709	2,069.82	76.9093	2,069.82	76.9048	2,069.82	66.9643	2,069.82	77.6348	2,069.82	72.3847	2,069.82	78.4578	2,069.82	77.3119	2,069.82	65.5652	2,069.82	76.6422	2,069.82	68.9285	2,069.82	76.2902	2,069.82	69.7496	2,069.82	75.6484	2,069.82	78.6699	2,069.82	69.2493	2,069.82	72.8493	2,069.82	74.4246	2,069.82	66.1583	2,069.82	69.1057	2,069.82	70.9306	2,069.82	67.8471
2,143.07	86.8226	2,143.07	80.9808	2,143.07	84.2882	2,143.07	79.8771	2,143.07	81.4748	2,143.07	80.3739	2,143.07	77.1668	2,143.07	78.334	2,143.07	77.8572	2,143.07	79.3522	2,143.07	81.2897	2,143.07	79.5508	2,143.07	82.6345	2,143.07	76.4965	2,143.07	74.8055	2,143.07	77.8645	2,143.07	72.2511	2,143.07	77.6976	2,143.07	77.4149	2,143.07	76.0222	2,143.07	75.0776	2,143.07	64.1692	2,143.07	62.5982	2,143.07	72.1845	2,143.07	71.1492	2,143.07	71.8513	2,143.07	77.0078	2,143.07	73.7341	2,143.07	67.1681	2,143.07	72.8225	2,143.07	73.5553	2,143.07	67.8697	2,143.07	64.7339	2,143.07	62.1227	2,143.07	70.7147	2,143.07	76.9065
2,219.24	83.7452	2,219.24	85.3866	2,219.24	85.3284	2,219.24	80.6363	2,219.24	86.798	2,219.24	81.4117	2,219.24	84.7954	2,219.24	82.6756	2,219.24	81.2356	2,219.24	83.2148	2,219.24	78.1307	2,219.24	82.4924	2,219.24	80.584	2,219.24	78.4773	2,219.24	85.4325	2,219.24	75.5328	2,219.24	80.3287	2,219.24	77.302	2,219.24	78.3978	2,219.24	78.2712	2,219.24	64.4815	2,219.24	79.5855	2,219.24	73.5825	2,219.24	76.3436	2,219.24	68.3683	2,219.24	68.4362	2,219.24	69.8398	2,219.24	74.8962	2,219.24	71.8633	2,219.24	71.3516	2,219.24	68.9436	2,219.24	69.7698	2,219.24	70.9395	2,219.24	72.5704	2,219.24	66.892	2,219.24	70.8855
2,296.88	85.8765	2,296.88	85.3982	2,296.88	82.3518	2,296.88	84.2771	2,296.88	84.5638	2,296.88	85.8015	2,296.88	80.5047	2,296.88	83.948	2,296.88	71.9558	2,296.88	80.1456	2,296.88	84.2424	2,296.88	83.4584	2,296.88	85.2853	2,296.88	81.1624	2,296.88	81.1803	2,296.88	81.4259	2,296.88	82.1813	2,296.88	77.2047	2,296.88	71.5334	2,296.88	75.744	2,296.88	79.1371	2,296.88	76.2349	2,296.88	73.8374	2,296.88	70.8678	2,296.88	71.6446	2,296.88	74.6693	2,296.88	45.32	2,296.88	77.9464	2,296.88	71.2524	2,296.88	74.9947	2,296.88	64.7916	2,296.88	71.2698	2,296.88	69.1228	2,296.88	74.5756	2,296.88	72.8965	2,296.88	62.2874
2,378.91	85.7908	2,378.91	87.1736	2,378.91	85.3019	2,378.91	83.8637	2,378.91	82.5233	2,378.91	84.8919	2,378.91	83.2136	2,378.91	82.0726	2,378.91	79.7075	2,378.91	82.7848	2,378.91	83.1773	2,378.91	82.4651	2,378.91	80.2285	2,378.91	78.9001	2,378.91	85.9146	2,378.91	73.628	2,378.91	83.3073	2,378.91	74.5201	2,378.91	81.5915	2,378.91	78.3405	2,378.91	75.5087	2,378.91	81.3611	2,378.91	63.4434	2,378.91	79.0386	2,378.91	76.2792	2,378.91	76.875	2,378.91	74.8255	2,378.91	76.6822	2,378.91	70.3502	2,378.91	80.407	2,378.91	70.0228	2,378.91	76.1538	2,378.91	68.7815	2,378.91	77.0641	2,378.91	75.7053	2,378.91	64.3812
2,462.4	88.5353	2,462.4	86.4449	2,462.4	86.5608	2,462.4	84.2411	2,462.4	83.9945	2,462.4	84.6873	2,462.4	81.1752	2,462.4	84.8819	2,462.4	82.7747	2,462.4	83.6409	2,462.4	84.5952	2,462.4	82.459	2,462.4	85.5869	2,462.4	79.8288	2,462.4	84.1264	2,462.4	80.6835	2,462.4	84.6994	2,462.4	78.688	2,462.4	76.6289	2,462.4	76.491	2,462.4	70.4819	2,462.4	72.5322	2,462.4	72.7302	2,462.4	72.1386	2,462.4	71.4245	2,462.4	72.5297	2,462.4	71.7598	2,462.4	71.7728	2,462.4	72.0363	2,462.4	71.2458	2,462.4	70.7626	2,462.4	72.8417	2,462.4	61.8926	2,462.4	74.4769	2,462.4	70.6225	2,462.4	72.7884
2,548.83	88.0927	2,548.83	87.3943	2,548.83	87.1597	2,548.83	86.6599	2,548.83	85.6	2,548.83	85.1962	2,548.83	80.9796	2,548.83	85.215	2,548.83	82.7682	2,548.83	84.8842	2,548.83	86.4077	2,548.83	81.3307	2,548.83	85.3028	2,548.83	81.5968	2,548.83	84.8564	2,548.83	76.4262	2,548.83	84.2277	2,548.83	73.8446	2,548.83	79.8176	2,548.83	74.845	2,548.83	71.8285	2,548.83	75.7025	2,548.83	67.563	2,548.83	72.3563	2,548.83	74.0738	2,548.83	71.5238	2,548.83	70.5415	2,548.83	72.4178	2,548.83	69.7211	2,548.83	74.5124	2,548.83	69.2191	2,548.83	73.9472	2,548.83	67.9501	2,548.83	74.8282	2,548.83	71.0584	2,548.83	75.4415
2,639.65	86.9248	2,639.65	85.7038	2,639.65	86.3589	2,639.65	86.5753	2,639.65	85.5585	2,639.65	85.4431	2,639.65	84.2305	2,639.65	85.3622	2,639.65	83.5626	2,639.65	84.4371	2,639.65	85.7638	2,639.65	82.8792	2,639.65	86.3281	2,639.65	79.2809	2,639.65	84.9227	2,639.65	80.2072	2,639.65	82.7706	2,639.65	80.2699	2,639.65	76.8619	2,639.65	75.8972	2,639.65	73.7393	2,639.65	72.9062	2,639.65	72.1389	2,639.65	73.4629	2,639.65	72.89	2,639.65	72.8973	2,639.65	73.211	2,639.65	72.2633	2,639.65	67.0952	2,639.65	73.1719	2,639.65	70.6686	2,639.65	74.4957	2,639.65	68.8373	2,639.65	74.3619	2,639.65	72.4018	2,639.65	73.7945
2,731.93	85.7469	2,731.93	85.8583	2,731.93	85.2389	2,731.93	85.6204	2,731.93	84.0973	2,731.93	85.8954	2,731.93	84.3183	2,731.93	85.4199	2,731.93	83.61	2,731.93	85.2892	2,731.93	86.2648	2,731.93	82.1902	2,731.93	87.1133	2,731.93	82.1242	2,731.93	85.6378	2,731.93	79.3649	2,731.93	81.025	2,731.93	71.7461	2,731.93	74.8839	2,731.93	75.9532	2,731.93	73.5244	2,731.93	76.4389	2,731.93	73.1304	2,731.93	71.8793	2,731.93	73.7073	2,731.93	71.9505	2,731.93	71.8713	2,731.93	73.5554	2,731.93	68.5698	2,731.93	73.3127	2,731.93	72.387	2,731.93	73.8716	2,731.93	65.1251	2,731.93	74.6756	2,731.93	70.1273	2,731.93	73.213
2,828.61	86.5046	2,828.61	86.1743	2,828.61	86.2739	2,828.61	85.7429	2,828.61	83.7382	2,828.61	85.9964	2,828.61	85.705	2,828.61	85.3073	2,828.61	84.2061	2,828.61	83.8487	2,828.61	86.9339	2,828.61	84.6676	2,828.61	87.2639	2,828.61	79.6075	2,828.61	87.1013	2,828.61	80.6309	2,828.61	81.0227	2,828.61	81.1066	2,828.61	75.5785	2,828.61	77.1745	2,828.61	67.8369	2,828.61	72.089	2,828.61	67.3763	2,828.61	72.823	2,828.61	72.8193	2,828.61	72.1694	2,828.61	69.1119	2,828.61	71.7219	2,828.61	69.8188	2,828.61	74.4105	2,828.61	71.9986	2,828.61	73.5401	2,828.61	67.3638	2,828.61	74.5318	2,828.61	71.0527	2,828.61	74.6668
2,928.22	86.5018	2,928.22	87.6772	2,928.22	85.9653	2,928.22	86.4578	2,928.22	84.3647	2,928.22	85.9312	2,928.22	84.8067	2,928.22	85.8997	2,928.22	85.983	2,928.22	85.4832	2,928.22	86.093	2,928.22	82.8331	2,928.22	86.8715	2,928.22	83.1831	2,928.22	86.9459	2,928.22	80.4826	2,928.22	83.0962	2,928.22	73.2682	2,928.22	74.324	2,928.22	76.5795	2,928.22	69.4038	2,928.22	75.826	2,928.22	69.0899	2,928.22	72.9389	2,928.22	71.4077	2,928.22	70.9883	2,928.22	70.1693	2,928.22	74.0102	2,928.22	71.5537	2,928.22	73.6542	2,928.22	72.0019	2,928.22	75.8688	2,928.22	67.2912	2,928.22	76.664	2,928.22	70.5227	2,928.22	74.1192
3,030.76	86.3926	3,030.76	86.7801	3,030.76	86.676	3,030.76	86.873	3,030.76	85.2581	3,030.76	85.8415	3,030.76	84.6267	3,030.76	86.4304	3,030.76	85.5235	3,030.76	84.5279	3,030.76	87.0038	3,030.76	84.5514	3,030.76	86.4835	3,030.76	81.5761	3,030.76	85.3032	3,030.76	80.2768	3,030.76	84.8457	3,030.76	80.3708	3,030.76	69.607	3,030.76	76.7012	3,030.76	69.7056	3,030.76	73.99	3,030.76	71.4016	3,030.76	74.1715	3,030.76	72.116	3,030.76	72.041	3,030.76	71.1838	3,030.76	72.6094	3,030.76	70.4072	3,030.76	73.9919	3,030.76	69.1309	3,030.76	72.2737	3,030.76	69.1302	3,030.76	75.7215	3,030.76	70.5079	3,030.76	75.1695
3,137.7	86.6286	3,137.7	86.0225	3,137.7	85.981	3,137.7	86.5711	3,137.7	85.9517	3,137.7	86.0196	3,137.7	85.2142	3,137.7	85.9239	3,137.7	86.2442	3,137.7	86.1951	3,137.7	87.9247	3,137.7	83.7718	3,137.7	85.3704	3,137.7	82.4279	3,137.7	83.8141	3,137.7	78.9765	3,137.7	84.6503	3,137.7	72.9771	3,137.7	73.7582	3,137.7	75.0294	3,137.7	67.7932	3,137.7	75.0084	3,137.7	71.9314	3,137.7	70.0894	3,137.7	69.921	3,137.7	70.5855	3,137.7	70.966	3,137.7	73.4785	3,137.7	70.6852	3,137.7	73.2711	3,137.7	70.1374	3,137.7	75.8538	3,137.7	69.2154	3,137.7	75.8901	3,137.7	69.1885	3,137.7	73.5243
3,249.02	85.1566	3,249.02	84.8642	3,249.02	85.2009	3,249.02	85.081	3,249.02	85.9409	3,249.02	86.667	3,249.02	85.7985	3,249.02	86.159	3,249.02	85.7553	3,249.02	85.7795	3,249.02	85.9491	3,249.02	83.4698	3,249.02	85.0802	3,249.02	80.6834	3,249.02	81.3994	3,249.02	81.157	3,249.02	84.6117	3,249.02	80.357	3,249.02	75.3836	3,249.02	76.3634	3,249.02	65.636	3,249.02	72.1174	3,249.02	72.596	3,249.02	71.2799	3,249.02	70.7121	3,249.02	70.6359	3,249.02	72.0315	3,249.02	72.2013	3,249.02	71.0085	3,249.02	73.3197	3,249.02	71.4818	3,249.02	73.4163	3,249.02	69.9873	3,249.02	75.2377	3,249.02	69.51	3,249.02	74.6315
3,363.28	85.7946	3,363.28	85.439	3,363.28	86.0845	3,363.28	85.4748	3,363.28	85.9347	3,363.28	85.0679	3,363.28	85.9239	3,363.28	86.6924	3,363.28	85.8128	3,363.28	85.3088	3,363.28	86.0209	3,363.28	82.9638	3,363.28	85.4576	3,363.28	82.2815	3,363.28	82.0547	3,363.28	77.1965	3,363.28	86.1204	3,363.28	75.8507	3,363.28	75.9136	3,363.28	71.5215	3,363.28	72.6089	3,363.28	74.6312	3,363.28	68.0026	3,363.28	68.9977	3,363.28	71.6098	3,363.28	69.2697	3,363.28	70.1181	3,363.28	72.7969	3,363.28	67.9008	3,363.28	72.5587	3,363.28	70.7346	3,363.28	73.6922	3,363.28	68.9765	3,363.28	74.5372	3,363.28	66.3651	3,363.28	72.6015
3,481.93	86.3525	3,481.93	85.268	3,481.93	86.0211	3,481.93	86.0134	3,481.93	86.6624	3,481.93	85.4665	3,481.93	85.8025	3,481.93	86.3974	3,481.93	86.0064	3,481.93	85.3234	3,481.93	85.3852	3,481.93	84.3425	3,481.93	87.7434	3,481.93	81.5787	3,481.93	85.12	3,481.93	81.0145	3,481.93	86.136	3,481.93	76.5329	3,481.93	72.6299	3,481.93	77.6339	3,481.93	74.5933	3,481.93	71.5266	3,481.93	71.1782	3,481.93	72.024	3,481.93	72.2741	3,481.93	67.142	3,481.93	70.0155	3,481.93	71.671	3,481.93	69.8312	3,481.93	73.4392	3,481.93	70.8498	3,481.93	73.3126	3,481.93	68.2138	3,481.93	74.8926	3,481.93	65.0868	3,481.93	73.061
3,604.98	85.7917	3,604.98	85.2824	3,604.98	85.6441	3,604.98	84.7622	3,604.98	86.0873	3,604.98	86.5677	3,604.98	85.8334	3,604.98	85.0435	3,604.98	84.9483	3,604.98	86.0034	3,604.98	84.8498	3,604.98	83.3103	3,604.98	87.5399	3,604.98	81.838	3,604.98	85.2072	3,604.98	77.2819	3,604.98	82.9394	3,604.98	80.1514	3,604.98	74.7326	3,604.98	73.5021	3,604.98	71.6154	3,604.98	74.3797	3,604.98	68.9473	3,604.98	69.3503	3,604.98	71.1471	3,604.98	69.519	3,604.98	70.4054	3,604.98	70.0642	3,604.98	71.0691	3,604.98	71.6894	3,604.98	69.7126	3,604.98	72.7323	3,604.98	68.7327	3,604.98	74.1689	3,604.98	62.358	3,604.98	72.867
3,732.42	86.7526	3,732.42	85.6784	3,732.42	87.3021	3,732.42	84.9218	3,732.42	86.0156	3,732.42	86.1346	3,732.42	85.3434	3,732.42	86.2608	3,732.42	84.7543	3,732.42	84.8907	3,732.42	82.8324	3,732.42	83.0378	3,732.42	86.3651	3,732.42	81.7673	3,732.42	86.8719	3,732.42	79.5963	3,732.42	80.3722	3,732.42	71.923	3,732.42	80.0421	3,732.42	74.2083	3,732.42	66.7516	3,732.42	72.4565	3,732.42	62.7041	3,732.42	69.2039	3,732.42	71.2352	3,732.42	67.0514	3,732.42	72.9614	3,732.42	69.4692	3,732.42	68.6189	3,732.42	71.7267	3,732.42	69.2211	3,732.42	73.9872	3,732.42	69.1019	3,732.42	74.4828	3,732.42	62.8267	3,732.42	72.9681
3,864.26	86.507	3,864.26	84.8209	3,864.26	86.4901	3,864.26	84.7854	3,864.26	87.4595	3,864.26	85.6319	3,864.26	85.5438	3,864.26	86.49	3,864.26	83.5338	3,864.26	85.0303	3,864.26	82.9022	3,864.26	83.7304	3,864.26	85.8582	3,864.26	81.0506	3,864.26	86.462	3,864.26	80.1264	3,864.26	80.7031	3,864.26	76.7263	3,864.26	82.0593	3,864.26	75.0755	3,864.26	71.6659	3,864.26	69.4469	3,864.26	64.0488	3,864.26	70.8965	3,864.26	72.5536	3,864.26	67.2146	3,864.26	72.9987	3,864.26	68.9448	3,864.26	66.775	3,864.26	72.7854	3,864.26	69.5825	3,864.26	72.2692	3,864.26	70.3138	3,864.26	73.6367	3,864.26	64.1419	3,864.26	71.7928
4,000.49	86.2435	4,000.49	84.5082	4,000.49	86.0422	4,000.49	84.1876	4,000.49	85.9502	4,000.49	84.8133	4,000.49	85.953	4,000.49	85.1102	4,000.49	82.9731	4,000.49	84.8638	4,000.49	82.7152	4,000.49	82.4581	4,000.49	85.4797	4,000.49	80.5706	4,000.49	87.2446	4,000.49	76.8723	4,000.49	82.3912	4,000.49	77.8794	4,000.49	81.19	4,000.49	71.0989	4,000.49	72.5278	4,000.49	71.7665	4,000.49	68.1939	4,000.49	67.1368	4,000.49	72.2181	4,000.49	67.83	4,000.49	72.8676	4,000.49	67.773	4,000.49	68.9541	4,000.49	69.1814	4,000.49	69.2813	4,000.49	71.7589	4,000.49	68.1543	4,000.49	73.1938	4,000.49	65.4137	4,000.49	70.9573
4,141.11	87.4118	4,141.11	85.4513	4,141.11	86.7521	4,141.11	84.3704	4,141.11	85.9743	4,141.11	85.5022	4,141.11	85.8849	4,141.11	84.7123	4,141.11	83.2227	4,141.11	84.4522	4,141.11	82.6438	4,141.11	81.2238	4,141.11	84.3028	4,141.11	81.1134	4,141.11	85.9203	4,141.11	76.0742	4,141.11	82.3797	4,141.11	73.9004	4,141.11	77.4486	4,141.11	72.9309	4,141.11	75.2884	4,141.11	71.6892	4,141.11	68.2555	4,141.11	67.9584	4,141.11	70.2996	4,141.11	63.7379	4,141.11	71.8705	4,141.11	68.3055	4,141.11	67.7242	4,141.11	69.8597	4,141.11	68.7474	4,141.11	72.4115	4,141.11	69.6699	4,141.11	73.9113	4,141.11	66.409	4,141.11	72.711
4,287.6	87.6806	4,287.6	85.6219	4,287.6	87.1983	4,287.6	84.9666	4,287.6	85.8315	4,287.6	85.5952	4,287.6	85.4737	4,287.6	85.0754	4,287.6	84.3575	4,287.6	83.6137	4,287.6	81.7917	4,287.6	82.4379	4,287.6	84.4301	4,287.6	79.3605	4,287.6	85.9194	4,287.6	77.817	4,287.6	84.5135	4,287.6	73.4473	4,287.6	74.8538	4,287.6	73.0614	4,287.6	71.511	4,287.6	70.0204	4,287.6	69.4073	4,287.6	68.8708	4,287.6	69.1598	4,287.6	66.153	4,287.6	70.6821	4,287.6	63.3605	4,287.6	69.0479	4,287.6	67.1923	4,287.6	67.6309	4,287.6	70.3542	4,287.6	68.6239	4,287.6	73.2647	4,287.6	64.9343	4,287.6	71.6155
4,438.48	89.102	4,438.48	86.4338	4,438.48	88.6092	4,438.48	86.375	4,438.48	86.9803	4,438.48	85.7034	4,438.48	86.4516	4,438.48	84.846	4,438.48	84.5292	4,438.48	84.0764	4,438.48	83.8537	4,438.48	81.8508	4,438.48	85.3692	4,438.48	80.3463	4,438.48	85.3927	4,438.48	77.8826	4,438.48	83.8048	4,438.48	75.331	4,438.48	74.6122	4,438.48	72.005	4,438.48	54.9292	4,438.48	69.3871	4,438.48	66.2943	4,438.48	67.4575	4,438.48	65.194	4,438.48	68.1296	4,438.48	69.7171	4,438.48	58.151	4,438.48	66.2203	4,438.48	68.9937	4,438.48	66.156	4,438.48	71.2317	4,438.48	70.0552	4,438.48	72.4321	4,438.48	64.3379	4,438.48	69.3238
4,595.21	88.8313	4,595.21	87.9693	4,595.21	88.4176	4,595.21	85.9238	4,595.21	87.0948	4,595.21	85.5945	4,595.21	86.3868	4,595.21	84.314	4,595.21	84.4101	4,595.21	84.0692	4,595.21	81.661	4,595.21	80.6799	4,595.21	83.8747	4,595.21	79.7148	4,595.21	83.5739	4,595.21	75.2742	4,595.21	78.9165	4,595.21	76.5364	4,595.21	74.49	4,595.21	72.7655	4,595.21	67.827	4,595.21	68.9579	4,595.21	66.8426	4,595.21	67.4	4,595.21	67.7185	4,595.21	66.3186	4,595.21	69.4454	4,595.21	61.8398	4,595.21	66.2378	4,595.21	66.8226	4,595.21	66.0415	4,595.21	69.2597	4,595.21	70.0065	4,595.21	72.3417	4,595.21	66.7329	4,595.21	70.5003
4,756.35	90.2075	4,756.35	87.7728	4,756.35	89.028	4,756.35	87.2617	4,756.35	86.3843	4,756.35	86.405	4,756.35	86.778	4,756.35	84.7016	4,756.35	84.5309	4,756.35	82.519	4,756.35	80.3851	4,756.35	81.2013	4,756.35	81.3187	4,756.35	78.3754	4,756.35	83.1942	4,756.35	76.2122	4,756.35	76.5385	4,756.35	73.4229	4,756.35	67.2973	4,756.35	72.4071	4,756.35	64.332	4,756.35	70.1356	4,756.35	66.3323	4,756.35	68.5459	4,756.35	69.7244	4,756.35	66.722	4,756.35	64.4817	4,756.35	61.8883	4,756.35	67.6607	4,756.35	66.6573	4,756.35	67.1505	4,756.35	67.8772	4,756.35	69.6012	4,756.35	72.446	4,756.35	65.9346	4,756.35	70.6828
4,924.8	89.785	4,924.8	88.4948	4,924.8	90.218	4,924.8	87.5464	4,924.8	86.8482	4,924.8	85.7585	4,924.8	85.4677	4,924.8	83.749	4,924.8	84.3316	4,924.8	82.1867	4,924.8	81.278	4,924.8	80.337	4,924.8	79.2366	4,924.8	79.3133	4,924.8	79.5828	4,924.8	76.1373	4,924.8	72.8807	4,924.8	71.8119	4,924.8	70.8695	4,924.8	70.43	4,924.8	61.0799	4,924.8	67.8873	4,924.8	61.9476	4,924.8	66.0531	4,924.8	66.5051	4,924.8	66.2335	4,924.8	69.3583	4,924.8	61.7833	4,924.8	68.459	4,924.8	65.6185	4,924.8	64.4669	4,924.8	69.4955	4,924.8	68.8273	4,924.8	72.3571	4,924.8	65.9109	4,924.8	70.0162
5,097.66	89.1808	5,097.66	88.3904	5,097.66	89.0508	5,097.66	87.4523	5,097.66	87.9594	5,097.66	85.6812	5,097.66	86.3082	5,097.66	83.1631	5,097.66	84.0957	5,097.66	82.2935	5,097.66	81.0277	5,097.66	80.7325	5,097.66	80.7678	5,097.66	78.7415	5,097.66	78.49	5,097.66	76.1602	5,097.66	79.3461	5,097.66	75.1762	5,097.66	77.4419	5,097.66	72.2831	5,097.66	64.6202	5,097.66	66.5749	5,097.66	59.6766	5,097.66	67.3536	5,097.66	65.8832	5,097.66	67.0816	5,097.66	65.2958	5,097.66	61.9024	5,097.66	64.9181	5,097.66	62.8091	5,097.66	64.3254	5,097.66	68.8241	5,097.66	70.2053	5,097.66	69.5261	5,097.66	63.1192	5,097.66	67.44
5,277.83	89.3241	5,277.83	89.184	5,277.83	88.7277	5,277.83	87.568	5,277.83	87.7972	5,277.83	85.1884	5,277.83	86.838	5,277.83	83.0958	5,277.83	83.9246	5,277.83	82.5201	5,277.83	80.3977	5,277.83	80.7826	5,277.83	79.4994	5,277.83	79.7026	5,277.83	76.6674	5,277.83	76.1623	5,277.83	80.8048	5,277.83	72.4322	5,277.83	77.9817	5,277.83	72.1406	5,277.83	62.3331	5,277.83	67.6886	5,277.83	61.6385	5,277.83	67.3913	5,277.83	68.3976	5,277.83	64.8603	5,277.83	66.3673	5,277.83	61.6321	5,277.83	64.4051	5,277.83	60.5075	5,277.83	64.631	5,277.83	69.1052	5,277.83	69.1904	5,277.83	70.6858	5,277.83	63.814	5,277.83	67.4677
5,463.87	89.2838	5,463.87	88.7137	5,463.87	88.426	5,463.87	87.8831	5,463.87	87.2943	5,463.87	85.4577	5,463.87	87.1229	5,463.87	83.2665	5,463.87	85.2118	5,463.87	83.0431	5,463.87	80.7086	5,463.87	80.722	5,463.87	74.7509	5,463.87	78.6049	5,463.87	80.01	5,463.87	75.4279	5,463.87	81.3652	5,463.87	74.1332	5,463.87	76.7031	5,463.87	71.1236	5,463.87	67.2564	5,463.87	66.8373	5,463.87	62.7294	5,463.87	66.6631	5,463.87	64.9054	5,463.87	63.2896	5,463.87	68.3337	5,463.87	59.1765	5,463.87	64.0399	5,463.87	61.7393	5,463.87	64.3518	5,463.87	68.0715	5,463.87	67.8011	5,463.87	70.7025	5,463.87	64.6565	5,463.87	65.912
5,657.23	88.9601	5,657.23	88.76	5,657.23	88.7521	5,657.23	87.8012	5,657.23	88.4294	5,657.23	85.4349	5,657.23	86.3819	5,657.23	83.9354	5,657.23	84.8009	5,657.23	83.0065	5,657.23	80.2772	5,657.23	81.1353	5,657.23	80.3372	5,657.23	79.1369	5,657.23	83.8226	5,657.23	76.6258	5,657.23	83.6679	5,657.23	73.7847	5,657.23	74.1177	5,657.23	71.3983	5,657.23	66.721	5,657.23	66.4771	5,657.23	66.8998	5,657.23	65.5811	5,657.23	64.4282	5,657.23	65.5497	5,657.23	66.7606	5,657.23	59.3672	5,657.23	62.0708	5,657.23	62.9693	5,657.23	64.6561	5,657.23	67.4277	5,657.23	67.2294	5,657.23	68.9586	5,657.23	64.4577	5,657.23	63.485
5,856.45	88.9052	5,856.45	88.5544	5,856.45	87.5559	5,856.45	87.9424	5,856.45	88.351	5,856.45	85.3441	5,856.45	86.751	5,856.45	84.6578	5,856.45	85.0066	5,856.45	83.4393	5,856.45	82.2762	5,856.45	81.6967	5,856.45	81.7372	5,856.45	79.2889	5,856.45	83.8987	5,856.45	75.6793	5,856.45	84.1142	5,856.45	72.7214	5,856.45	76.1556	5,856.45	71.8815	5,856.45	54.9735	5,856.45	67.7535	5,856.45	65.9111	5,856.45	66.3471	5,856.45	63.3433	5,856.45	64.5117	5,856.45	62.2221	5,856.45	59.525	5,856.45	61.8029	5,856.45	56.6451	5,856.45	62.2223	5,856.45	66.0489	5,856.45	65.1921	5,856.45	69.3614	5,856.45	64.6639	5,856.45	64.0266
6,062.99	89.211	6,062.99	89.1911	6,062.99	88.2173	6,062.99	87.6217	6,062.99	87.0042	6,062.99	86.0516	6,062.99	87.0896	6,062.99	84.0784	6,062.99	85.1212	6,062.99	83.6569	6,062.99	81.8302	6,062.99	81.6275	6,062.99	78.4589	6,062.99	78.8441	6,062.99	84.1889	6,062.99	75.9165	6,062.99	82.5353	6,062.99	72.3664	6,062.99	78.357	6,062.99	71.2817	6,062.99	65.2801	6,062.99	66.9342	6,062.99	61.4598	6,062.99	65.0433	6,062.99	56.4538	6,062.99	65.5066	6,062.99	62.2232	6,062.99	61.3602	6,062.99	61.1492	6,062.99	56.4877	6,062.99	62.466	6,062.99	66.2021	6,062.99	62.7049	6,062.99	69.6788	6,062.99	64.2324	6,062.99	65.1148
6,276.86	88.6945	6,276.86	88.5591	6,276.86	87.578	6,276.86	87.6103	6,276.86	87.7726	6,276.86	86.1314	6,276.86	86.5221	6,276.86	84.4189	6,276.86	85.421	6,276.86	83.1607	6,276.86	82.6278	6,276.86	81.8796	6,276.86	80.4147	6,276.86	79.1486	6,276.86	82.4837	6,276.86	76.7833	6,276.86	80.6013	6,276.86	72.1732	6,276.86	75.2994	6,276.86	71.3718	6,276.86	63.7731	6,276.86	66.179	6,276.86	66.1201	6,276.86	65.8019	6,276.86	63.6941	6,276.86	67.4212	6,276.86	58.7442	6,276.86	59.7495	6,276.86	60.0168	6,276.86	54.8486	6,276.86	64.5245	6,276.86	64.3078	6,276.86	63.1671	6,276.86	68.6069	6,276.86	65.0961	6,276.86	65.1063
6,498.05	88.4876	6,498.05	89.2609	6,498.05	87.749	6,498.05	88.054	6,498.05	87.4072	6,498.05	86.0385	6,498.05	86.7513	6,498.05	84.6332	6,498.05	85.0233	6,498.05	83.9663	6,498.05	82.5601	6,498.05	81.52	6,498.05	80.7049	6,498.05	78.4348	6,498.05	80.0879	6,498.05	74.8092	6,498.05	79.7335	6,498.05	71.659	6,498.05	76.7309	6,498.05	70.0142	6,498.05	54.6026	6,498.05	67.4662	6,498.05	64.3747	6,498.05	65.9116	6,498.05	65.165	6,498.05	64.3606	6,498.05	60.0821	6,498.05	61.0908	6,498.05	56.7859	6,498.05	52.4085	6,498.05	65.0576	6,498.05	64.975	6,498.05	59.9968	6,498.05	69.3537	6,498.05	64.3571	6,498.05	64.4048
6,726.56	88.4614	6,726.56	88.4419	6,726.56	88.0738	6,726.56	87.8585	6,726.56	86.8291	6,726.56	85.9104	6,726.56	86.7071	6,726.56	84.4777	6,726.56	85.5282	6,726.56	82.9171	6,726.56	83.4528	6,726.56	81.5006	6,726.56	78.616	6,726.56	78.4836	6,726.56	80.1073	6,726.56	75.3003	6,726.56	81.3975	6,726.56	71.2227	6,726.56	78.0561	6,726.56	70.1534	6,726.56	59.6098	6,726.56	66.2993	6,726.56	65.7259	6,726.56	64.9692	6,726.56	65.4424	6,726.56	65.1226	6,726.56	54.0089	6,726.56	59.1669	6,726.56	61.6368	6,726.56	47.4273	6,726.56	62.6566	6,726.56	61.99	6,726.56	61.255	6,726.56	68.8158	6,726.56	64.7098	6,726.56	62.7098
6,963.87	88.1813	6,963.87	88.0767	6,963.87	87.5005	6,963.87	87.5058	6,963.87	87.6039	6,963.87	86.1668	6,963.87	86.5694	6,963.87	84.9723	6,963.87	85.467	6,963.87	83.2614	6,963.87	83.2999	6,963.87	81.3843	6,963.87	77.8266	6,963.87	77.1171	6,963.87	81.5133	6,963.87	74.1196	6,963.87	81.2716	6,963.87	72.5128	6,963.87	76.0857	6,963.87	68.6859	6,963.87	52.3311	6,963.87	64.8702	6,963.87	59.5715	6,963.87	65.6818	6,963.87	66.0157	6,963.87	63.4032	6,963.87	60.6187	6,963.87	61.4398	6,963.87	58.7651	6,963.87	49.8779	6,963.87	64.1612	6,963.87	61.4891	6,963.87	61.5302	6,963.87	66.3917	6,963.87	62.3389	6,963.87	61.5565
7,209.96	88.2016	7,209.96	88.1916	7,209.96	87.8116	7,209.96	88.0155	7,209.96	86.9866	7,209.96	86.1695	7,209.96	86.9166	7,209.96	84.3996	7,209.96	85.5658	7,209.96	83.1774	7,209.96	84.0609	7,209.96	80.9555	7,209.96	79.0089	7,209.96	78.1975	7,209.96	82.969	7,209.96	74.2408	7,209.96	80.9669	7,209.96	70.7954	7,209.96	77.9573	7,209.96	69.7808	7,209.96	52.5331	7,209.96	66.207	7,209.96	60.7606	7,209.96	64.2485	7,209.96	62.8948	7,209.96	65.3967	7,209.96	60.4387	7,209.96	61.4857	7,209.96	59.8563	7,209.96	53.1383	7,209.96	61.926	7,209.96	58.1356	7,209.96	59.6458	7,209.96	67.0166	7,209.96	62.6496	7,209.96	61.0159
7,464.84	87.789	7,464.84	88.1202	7,464.84	87.9876	7,464.84	87.5453	7,464.84	87.4159	7,464.84	86.4185	7,464.84	86.7598	7,464.84	84.6687	7,464.84	86.102	7,464.84	82.9003	7,464.84	83.6111	7,464.84	81.5846	7,464.84	79.8152	7,464.84	76.7487	7,464.84	82.5825	7,464.84	74.7538	7,464.84	80.4169	7,464.84	68.6798	7,464.84	74.3966	7,464.84	68.5665	7,464.84	58.6904	7,464.84	65.3275	7,464.84	62.411	7,464.84	65.8195	7,464.84	65.8208	7,464.84	62.8016	7,464.84	63.666	7,464.84	62.2527	7,464.84	56.816	7,464.84	57.5031	7,464.84	61.4931	7,464.84	58.1606	7,464.84	60.081	7,464.84	66.0074	7,464.84	61.8632	7,464.84	59.74
7,727.05	88.1861	7,727.05	88.1506	7,727.05	88.0753	7,727.05	88.1073	7,727.05	87.4274	7,727.05	86.3639	7,727.05	87.251	7,727.05	84.2584	7,727.05	85.977	7,727.05	82.9529	7,727.05	84.825	7,727.05	80.5763	7,727.05	77.8215	7,727.05	76.9613	7,727.05	80.3457	7,727.05	72.3672	7,727.05	76.1682	7,727.05	70.3533	7,727.05	71.6836	7,727.05	68.086	7,727.05	56.3049	7,727.05	63.611	7,727.05	58.1295	7,727.05	63.1993	7,727.05	59.3361	7,727.05	64.0966	7,727.05	62.8595	7,727.05	63.234	7,727.05	58.9724	7,727.05	56.3891	7,727.05	60.7952	7,727.05	51.9086	7,727.05	58.2699	7,727.05	64.2215	7,727.05	59.0944	7,727.05	60.8623
7,999.51	87.5992	7,999.51	87.7896	7,999.51	88.05	7,999.51	87.8479	7,999.51	87.3734	7,999.51	85.9563	7,999.51	86.6447	7,999.51	84.3882	7,999.51	86.0532	7,999.51	82.3086	7,999.51	83.1639	7,999.51	80.8289	7,999.51	79.0297	7,999.51	76.2898	7,999.51	78.8955	7,999.51	74.4376	7,999.51	75.0069	7,999.51	70.9659	7,999.51	74.6511	7,999.51	67.944	7,999.51	56.0719	7,999.51	65.3635	7,999.51	59.9723	7,999.51	66.1143	7,999.51	61.9868	7,999.51	63.8377	7,999.51	63.3346	7,999.51	63.0049	7,999.51	55.7091	7,999.51	60.4483	7,999.51	61.412	7,999.51	55.5996	7,999.51	59.2005	7,999.51	65.2871	7,999.51	60.6501	7,999.51	61.5709
8,282.23	88.132	8,282.23	88.2184	8,282.23	87.7122	8,282.23	87.9902	8,282.23	87.284	8,282.23	86.011	8,282.23	86.6327	8,282.23	83.9512	8,282.23	85.5994	8,282.23	82.488	8,282.23	83.4475	8,282.23	80.6745	8,282.23	77.0875	8,282.23	77.1277	8,282.23	70.8777	8,282.23	73.2074	8,282.23	75.3389	8,282.23	69.9847	8,282.23	73.6685	8,282.23	67.0817	8,282.23	61.7326	8,282.23	64.2398	8,282.23	58.7383	8,282.23	64.0077	8,282.23	59.6007	8,282.23	62.2564	8,282.23	59.4515	8,282.23	63.2226	8,282.23	60.1847	8,282.23	59.8318	8,282.23	60.1335	8,282.23	51.5164	8,282.23	58.3989	8,282.23	63.5261	8,282.23	60.9537	8,282.23	61.4885
8,573.73	87.9099	8,573.73	87.8455	8,573.73	88.1469	8,573.73	87.9614	8,573.73	87.1851	8,573.73	86.0625	8,573.73	86.7083	8,573.73	83.6984	8,573.73	85.1249	8,573.73	81.4862	8,573.73	82.9596	8,573.73	80.6852	8,573.73	77.6506	8,573.73	76.1909	8,573.73	69.4104	8,573.73	73.2755	8,573.73	78.2723	8,573.73	69.4777	8,573.73	72.2949	8,573.73	67.1455	8,573.73	46.6237	8,573.73	64.3184	8,573.73	57.6702	8,573.73	65.8155	8,573.73	58.4376	8,573.73	60.7628	8,573.73	59.9027	8,573.73	63.2642	8,573.73	59.6722	8,573.73	59.8942	8,573.73	57.6684	8,573.73	52.2735	8,573.73	58.3538	8,573.73	63.4126	8,573.73	60.4305	8,573.73	60.0699
8,876.95	88.4091	8,876.95	87.9124	8,876.95	87.8882	8,876.95	88.133	8,876.95	87.5256	8,876.95	85.7592	8,876.95	86.4279	8,876.95	83.047	8,876.95	85.1092	8,876.95	81.4852	8,876.95	83.2159	8,876.95	80.3716	8,876.95	77.731	8,876.95	76.0382	8,876.95	75.4484	8,876.95	72.9024	8,876.95	78.7971	8,876.95	70.2162	8,876.95	75.7728	8,876.95	64.7822	8,876.95	54.1094	8,876.95	63.754	8,876.95	56.9786	8,876.95	63.4562	8,876.95	55.6587	8,876.95	60.9717	8,876.95	55.2733	8,876.95	63.2076	8,876.95	59.3455	8,876.95	60.5821	8,876.95	57.767	8,876.95	54.8306	8,876.95	56.45	8,876.95	62.6524	8,876.95	58.6818	8,876.95	60.0845
9,188.96	88.3853	9,188.96	88.0798	9,188.96	88.3211	9,188.96	87.8354	9,188.96	87.5753	9,188.96	85.5114	9,188.96	86.4874	9,188.96	83.1321	9,188.96	85.1722	9,188.96	81.4059	9,188.96	83.814	9,188.96	80.5115	9,188.96	78.618	9,188.96	76.4561	9,188.96	76.3866	9,188.96	72.6214	9,188.96	79.8829	9,188.96	69.2733	9,188.96	75.7401	9,188.96	66.1059	9,188.96	55.1457	9,188.96	65.1038	9,188.96	50.7586	9,188.96	64.8208	9,188.96	41.0629	9,188.96	61.2159	9,188.96	55.9552	9,188.96	62.9817	9,188.96	62.2637	9,188.96	59.6472	9,188.96	57.7466	9,188.96	53.3092	9,188.96	56.6893	9,188.96	60.7557	9,188.96	59.6563	9,188.96	57.759
9,514.16	88.8193	9,514.16	88.3911	9,514.16	88.4689	9,514.16	87.9147	9,514.16	88.0898	9,514.16	85.6699	9,514.16	86.4777	9,514.16	82.911	9,514.16	84.8794	9,514.16	81.1773	9,514.16	82.9333	9,514.16	80.6105	9,514.16	79.4352	9,514.16	75.2598	9,514.16	77.8391	9,514.16	70.5555	9,514.16	78.3641	9,514.16	67.6376	9,514.16	73.8483	9,514.16	61.9446	9,514.16	43.3979	9,514.16	60.8023	9,514.16	56.9278	9,514.16	60.8269	9,514.16	52.133	9,514.16	60.8773	9,514.16	59.265	9,514.16	62.6992	9,514.16	61.0778	9,514.16	61.1175	9,514.16	54.8146	9,514.16	52.1953	9,514.16	56.902	9,514.16	60.7419	9,514.16	56.8521	9,514.16	58.1053
9,849.61	88.8261	9,849.61	88.6603	9,849.61	88.7801	9,849.61	88.2174	9,849.61	88.1004	9,849.61	85.4538	9,849.61	86.2937	9,849.61	82.8548	9,849.61	84.2662	9,849.61	81.0942	9,849.61	82.696	9,849.61	79.8921	9,849.61	78.3352	9,849.61	75.0962	9,849.61	75.1487	9,849.61	71.9799	9,849.61	76.9658	9,849.61	69.8155	9,849.61	71.8658	9,849.61	64.1112	9,849.61	59.6421	9,849.61	66.4044	9,849.61	60.491	9,849.61	64.0105	9,849.61	58.5648	9,849.61	61.4478	9,849.61	61.9254	9,849.61	59.7487	9,849.61	62.9891	9,849.61	60.3947	9,849.61	57.5133	9,849.61	43.9457	9,849.61	44.5863	9,849.61	58.3665	9,849.61	58.8965	9,849.61	56.7913
10,196.8	89.1106	10,196.8	89.1463	10,196.8	88.8486	10,196.8	88.3845	10,196.8	88.13	10,196.8	85.8165	10,196.8	86.4709	10,196.8	82.437	10,196.8	84.0125	10,196.8	80.7363	10,196.8	82.6319	10,196.8	79.4493	10,196.8	77.9002	10,196.8	75.2825	10,196.8	66.5866	10,196.8	71.626	10,196.8	76.2817	10,196.8	67.5893	10,196.8	71.9407	10,196.8	64.0398	10,196.8	45.4642	10,196.8	60.4341	10,196.8	60.5336	10,196.8	60.1244	10,196.8	60.9226	10,196.8	60.8615	10,196.8	62.0841	10,196.8	61.6384	10,196.8	62.5234	10,196.8	59.6755	10,196.8	55.8772	10,196.8	48.9957	10,196.8	52.1548	10,196.8	59.1022	10,196.8	57.2389	10,196.8	56.0438
10,555.7	88.9612	10,555.7	89.1218	10,555.7	88.9175	10,555.7	88.3689	10,555.7	88.0786	10,555.7	85.7492	10,555.7	86.1777	10,555.7	82.5277	10,555.7	84.3084	10,555.7	79.9812	10,555.7	82.5832	10,555.7	79.8672	10,555.7	78.4341	10,555.7	74.5707	10,555.7	71.808	10,555.7	71.099	10,555.7	76.4653	10,555.7	69.6497	10,555.7	75.1398	10,555.7	61.8937	10,555.7	59.8912	10,555.7	65.0132	10,555.7	62.4414	10,555.7	60.308	10,555.7	60.5686	10,555.7	58.8514	10,555.7	62.6422	10,555.7	59.8354	10,555.7	63.0131	10,555.7	61.9146	10,555.7	56.3726	10,555.7	43.9666	10,555.7	45.6345	10,555.7	58.1283	10,555.7	57.4425	10,555.7	55.4861
10,927.7	88.8662	10,927.7	89.0843	10,927.7	88.9818	10,927.7	88.1638	10,927.7	87.8654	10,927.7	85.9879	10,927.7	86.2216	10,927.7	82.6528	10,927.7	83.9151	10,927.7	79.6142	10,927.7	82.3061	10,927.7	79.6012	10,927.7	79.5103	10,927.7	75.5888	10,927.7	74.6795	10,927.7	71.0145	10,927.7	75.4429	10,927.7	68.1365	10,927.7	69.8659	10,927.7	62.5695	10,927.7	45.4629	10,927.7	63.491	10,927.7	59.8268	10,927.7	60.9946	10,927.7	55.7994	10,927.7	62.291	10,927.7	61.8641	10,927.7	57.7233	10,927.7	61.6058	10,927.7	59.3819	10,927.7	57.0775	10,927.7	45.2601	10,927.7	45.9309	10,927.7	57.9535	10,927.7	57.8679	10,927.7	54.038
11,313	88.7661	11,313	89.1989	11,313	89.0359	11,313	87.9695	11,313	87.9866	11,313	85.9276	11,313	86.29	11,313	82.6623	11,313	84.1909	11,313	79.5635	11,313	82.3786	11,313	80.0557	11,313	79.2265	11,313	74.5611	11,313	75.9676	11,313	71.3439	11,313	72.0449	11,313	67.2716	11,313	74.8526	11,313	61.4211	11,313	56.1833	11,313	61.3697	11,313	59.3144	11,313	58.8145	11,313	51.5335	11,313	60.2198	11,313	61.0102	11,313	57.7672	11,313	62.3455	11,313	60.9846	11,313	56.26	11,313	51.0861	11,313	43.1481	11,313	54.7919	11,313	57.2364	11,313	54.3295
11,712.9	88.524	11,712.9	88.741	11,712.9	88.8675	11,712.9	87.7527	11,712.9	87.919	11,712.9	85.9351	11,712.9	86.2113	11,712.9	82.8272	11,712.9	84.0761	11,712.9	79.531	11,712.9	82.2954	11,712.9	79.9122	11,712.9	79.3815	11,712.9	75.3354	11,712.9	74.1928	11,712.9	71.5198	11,712.9	75.7146	11,712.9	68.5471	11,712.9	74.2046	11,712.9	62.8951	11,712.9	57.6386	11,712.9	64.2552	11,712.9	60.1531	11,712.9	60.121	11,712.9	52.4665	11,712.9	59.871	11,712.9	59.4383	11,712.9	53.6326	11,712.9	64.2533	11,712.9	59.7758	11,712.9	57.3278	11,712.9	52.7545	11,712.9	42.4332	11,712.9	55.8984	11,712.9	58.5665	11,712.9	52.8023
12,126	88.2668	12,126	88.3813	12,126	88.4593	12,126	87.5244	12,126	87.9553	12,126	85.6736	12,126	85.8954	12,126	82.9207	12,126	84.067	12,126	79.8047	12,126	82.3511	12,126	80.0574	12,126	77.9835	12,126	75.6264	12,126	76.0564	12,126	71.7585	12,126	76.2796	12,126	67.5536	12,126	69.2308	12,126	63.4131	12,126	43.0578	12,126	61.6193	12,126	59.0414	12,126	59.1907	12,126	55.0046	12,126	59.0814	12,126	58.8884	12,126	53.1574	12,126	63.6378	12,126	60.5749	12,126	57.7865	12,126	53.3361	12,126	41.8238	12,126	56.4696	12,126	58.3697	12,126	52.8075
12,553.7	88.2591	12,553.7	87.9408	12,553.7	87.7751	12,553.7	87.5151	12,553.7	87.7283	12,553.7	84.8214	12,553.7	85.8892	12,553.7	83.2264	12,553.7	84.2926	12,553.7	79.0776	12,553.7	82.9155	12,553.7	79.8798	12,553.7	80.1079	12,553.7	76.2601	12,553.7	74.4483	12,553.7	71.803	12,553.7	74.5694	12,553.7	67.9724	12,553.7	73.2867	12,553.7	61.4806	12,553.7	58.1111	12,553.7	60.3856	12,553.7	60.2327	12,553.7	58.6923	12,553.7	59.379	12,553.7	57.5593	12,553.7	60.8499	12,553.7	51.5712	12,553.7	64.8494	12,553.7	59.4582	12,553.7	58.3147	12,553.7	54.7353	12,553.7	41.201	12,553.7	54.2725	12,553.7	58.4673	12,553.7	51.9942
12,996.1	88.0414	12,996.1	87.5302	12,996.1	87.5638	12,996.1	87.2089	12,996.1	87.2787	12,996.1	84.3559	12,996.1	85.8512	12,996.1	82.8363	12,996.1	83.6734	12,996.1	78.8377	12,996.1	82.8418	12,996.1	79.968	12,996.1	80.1267	12,996.1	76.2627	12,996.1	75.6693	12,996.1	70.5442	12,996.1	73.1371	12,996.1	66.853	12,996.1	72.0379	12,996.1	61.2933	12,996.1	57.3406	12,996.1	60.0039	12,996.1	62.421	12,996.1	59.2209	12,996.1	58.4002	12,996.1	55.6569	12,996.1	60.6661	12,996.1	51.0946	12,996.1	63.4057	12,996.1	57.3986	12,996.1	57.9101	12,996.1	56.5096	12,996.1	28.831	12,996.1	55.172	12,996.1	58.5264	12,996.1	50.7994
13,454.6	87.9519	13,454.6	87.3127	13,454.6	87.6474	13,454.6	87.0568	13,454.6	87.1329	13,454.6	84.2626	13,454.6	85.734	13,454.6	82.7298	13,454.6	83.6378	13,454.6	78.8271	13,454.6	82.7557	13,454.6	80.0246	13,454.6	79.5902	13,454.6	75.6127	13,454.6	73.7957	13,454.6	70.4771	13,454.6	70.3403	13,454.6	66.7088	13,454.6	70.3277	13,454.6	62.152	13,454.6	48.548	13,454.6	60.4182	13,454.6	61.6597	13,454.6	57.1836	13,454.6	56.3732	13,454.6	55.238	13,454.6	60.0527	13,454.6	50.3798	13,454.6	62.6121	13,454.6	58.0856	13,454.6	55.3041	13,454.6	56.3768	13,454.6	42.1933	13,454.6	54.0397	13,454.6	55.8112	13,454.6	49.8267
13,929.2	88.0791	13,929.2	87.6562	13,929.2	87.8031	13,929.2	86.9752	13,929.2	87.0931	13,929.2	85.1352	13,929.2	86.2218	13,929.2	82.8642	13,929.2	83.8075	13,929.2	79.9647	13,929.2	83.0889	13,929.2	80.2734	13,929.2	79.7131	13,929.2	75.3926	13,929.2	73.5678	13,929.2	69.6693	13,929.2	67.5671	13,929.2	66.1971	13,929.2	65.3164	13,929.2	60.3138	13,929.2	58.898	13,929.2	60.1723	13,929.2	58.7684	13,929.2	57.6013	13,929.2	55.6213	13,929.2	55.0285	13,929.2	58.6924	13,929.2	52.0694	13,929.2	62.2485	13,929.2	56.4087	13,929.2	53.736	13,929.2	57.0925	13,929.2	43.5398	13,929.2	53.8629	13,929.2	54.9983	13,929.2	48.453
14,419.9	87.9399	14,419.9	87.7475	14,419.9	87.9642	14,419.9	86.786	14,419.9	86.9124	14,419.9	85.0903	14,419.9	86.1207	14,419.9	83.2149	14,419.9	83.7942	14,419.9	79.9209	14,419.9	81.8914	14,419.9	79.323	14,419.9	79.3424	14,419.9	75.0673	14,419.9	72.2744	14,419.9	69.9063	14,419.9	72.1555	14,419.9	66.2292	14,419.9	69.6536	14,419.9	57.8547	14,419.9	55.7005	14,419.9	59.8466	14,419.9	55.4256	14,419.9	55.6371	14,419.9	54.2447	14,419.9	51.2484	14,419.9	57.4855	14,419.9	50.5956	14,419.9	60.2215	14,419.9	54.3639	14,419.9	54.4408	14,419.9	55.5776	14,419.9	45.7264	14,419.9	51.399	14,419.9	54.0045	14,419.9	48.3575
14,928.2	87.8537	14,928.2	87.8658	14,928.2	87.9719	14,928.2	86.6822	14,928.2	86.8894	14,928.2	84.9724	14,928.2	86.1705	14,928.2	83.6039	14,928.2	83.9946	14,928.2	79.766	14,928.2	82.2536	14,928.2	78.907	14,928.2	79.064	14,928.2	74.8266	14,928.2	73.195	14,928.2	69.3828	14,928.2	68.3633	14,928.2	65.1618	14,928.2	62.8897	14,928.2	57.141	14,928.2	50.014	14,928.2	58.8647	14,928.2	52.49	14,928.2	56.4026	14,928.2	44.2086	14,928.2	49.8156	14,928.2	53.6401	14,928.2	48.2929	14,928.2	57.1046	14,928.2	51.6111	14,928.2	51.307	14,928.2	56.5024	14,928.2	46.5434	14,928.2	48.9012	14,928.2	53.4379	14,928.2	50.5148
15,455.6	88.2047	15,455.6	88.026	15,455.6	88.1567	15,455.6	86.8717	15,455.6	87.1591	15,455.6	84.7114	15,455.6	86.3788	15,455.6	83.9733	15,455.6	84.2713	15,455.6	79.2016	15,455.6	82.6139	15,455.6	78.4049	15,455.6	79.2705	15,455.6	74.2484	15,455.6	72.0812	15,455.6	67.7518	15,455.6	67.4709	15,455.6	63.8774	15,455.6	64.6067	15,455.6	53.4023	15,455.6	45.2869	15,455.6	57.4709	15,455.6	39.0913	15,455.6	53.8898	15,455.6	46.281	15,455.6	45.4491	15,455.6	51.4016	15,455.6	44.6981	15,455.6	51.3508	15,455.6	47.4968	15,455.6	47.2104	15,455.6	53.5076	15,455.6	48.8368	15,455.6	39.541	15,455.6	52.1062	15,455.6	47.6811
16,000.5	88.63	16,000.5	88.1441	16,000.5	88.0888	16,000.5	87.2814	16,000.5	87.067	16,000.5	84.6723	16,000.5	86.1643	16,000.5	83.7354	16,000.5	83.783	16,000.5	79.0541	16,000.5	81.8724	16,000.5	77.8496	16,000.5	78.6365	16,000.5	72.257	16,000.5	72.2958	16,000.5	67.5236	16,000.5	72.2592	16,000.5	61.9742	16,000.5	62.6005	16,000.5	53.2972	16,000.5	53.5037	16,000.5	57.5919	16,000.5	50.495	16,000.5	55.1379	16,000.5	50.1616	16,000.5	48.6468	16,000.5	45.5743	16,000.5	43.8172	16,000.5	41.1185	16,000.5	38.3449	16,000.5	49.3503	16,000.5	52.4173	16,000.5	51.8117	16,000.5	41.3741	16,000.5	49.7631	16,000.5	47.0834
16,564.5	88.573	16,564.5	88.1306	16,564.5	87.8873	16,564.5	87.1174	16,564.5	86.8584	16,564.5	84.5121	16,564.5	85.9633	16,564.5	83.1141	16,564.5	83.8097	16,564.5	78.4353	16,564.5	81.2366	16,564.5	76.2564	16,564.5	78.687	16,564.5	70.6219	16,564.5	72.9547	16,564.5	65.4494	16,564.5	68.1924	16,564.5	60.6921	16,564.5	62.6686	16,564.5	50.1392	16,564.5	51.8033	16,564.5	56.5066	16,564.5	54.1731	16,564.5	50.2984	16,564.5	53.1277	16,564.5	45.4208	16,564.5	48.2661	16,564.5	30.6716	16,564.5	44.0974	16,564.5	40.9156	16,564.5	51.041	16,564.5	45.7557	16,564.5	51.8993	16,564.5	45.4069	16,564.5	48.2429	16,564.5	43.3863
17,148.9	88.6847	17,148.9	88.2362	17,148.9	88.0497	17,148.9	87.2883	17,148.9	87.2232	17,148.9	84.8332	17,148.9	86.1119	17,148.9	83.1304	17,148.9	84.063	17,148.9	77.8568	17,148.9	81.0572	17,148.9	75.8881	17,148.9	78.128	17,148.9	70.2395	17,148.9	72.2574	17,148.9	63.6181	17,148.9	63.7975	17,148.9	58.9078	17,148.9	56.3317	17,148.9	51.0783	17,148.9	47.2331	17,148.9	54.9002	17,148.9	51.5751	17,148.9	46.0493	17,148.9	53.5003	17,148.9	42.5714	17,148.9	45.0393	17,148.9	34.3763	17,148.9	44.5842	17,148.9	42.029	17,148.9	52.3936	17,148.9	46.5633	17,148.9	48.7909	17,148.9	48.3787	17,148.9	50.1282	17,148.9	37.251
17,752.4	88.6944	17,752.4	88.4685	17,752.4	88.4156	17,752.4	87.4037	17,752.4	87.4849	17,752.4	84.4838	17,752.4	86.0552	17,752.4	83.0345	17,752.4	83.9461	17,752.4	76.7873	17,752.4	80.4854	17,752.4	74.8438	17,752.4	76.6271	17,752.4	67.7165	17,752.4	67.4524	17,752.4	61.5305	17,752.4	65.4825	17,752.4	55.068	17,752.4	51.1494	17,752.4	50.3278	17,752.4	48.3833	17,752.4	51.1344	17,752.4	43.4552	17,752.4	40.948	17,752.4	51.8759	17,752.4	43.9497	17,752.4	33.5482	17,752.4	41.5279	17,752.4	31.8165	17,752.4	40.5669	17,752.4	50.4253	17,752.4	45.6129	17,752.4	45.8556	17,752.4	49.5749	17,752.4	47.3675	17,752.4	40.773
18,379.4	88.9271	18,379.4	88.716	18,379.4	88.7616	18,379.4	87.4329	18,379.4	87.7053	18,379.4	84.0971	18,379.4	86.0018	18,379.4	82.5091	18,379.4	83.6622	18,379.4	75.7026	18,379.4	79.5323	18,379.4	72.5927	18,379.4	74.7939	18,379.4	65.218	18,379.4	68.5616	18,379.4	60.2478	18,379.4	59.7807	18,379.4	53.479	18,379.4	52.4408	18,379.4	48.2441	18,379.4	38.5989	18,379.4	47.7227	18,379.4	45.8543	18,379.4	41.073	18,379.4	49.1113	18,379.4	45.6077	18,379.4	44.9001	18,379.4	47.4614	18,379.4	42.6077	18,379.4	39.5934	18,379.4	51.3813	18,379.4	44.5837	18,379.4	37.2052	18,379.4	48.5101	18,379.4	42.0686	18,379.4	40.6887
19,026.9	89.0812	19,026.9	88.9652	19,026.9	88.9758	19,026.9	87.6768	19,026.9	87.6004	19,026.9	83.9056	19,026.9	85.6899	19,026.9	81.97	19,026.9	83.1758	19,026.9	75.0866	19,026.9	78.2783	19,026.9	70.5291	19,026.9	73.2427	19,026.9	62.9101	19,026.9	68.2138	19,026.9	59.3543	19,026.9	62.6562	19,026.9	54.7181	19,026.9	29.161	19,026.9	46.4435	19,026.9	43.3446	19,026.9	43.2308	19,026.9	29.7623	19,026.9	40.2068	19,026.9	41.6907	19,026.9	41.57	19,026.9	47.322	19,026.9	49.6165	19,026.9	48.4753	19,026.9	40.8827	19,026.9	50.0581	19,026.9	45.3771	19,026.9	35.276	19,026.9	49.6879	19,026.9	42.2776	19,026.9	37.6731
19,697.8	89.5754	19,697.8	89.4796	19,697.8	89.2107	19,697.8	88.0547	19,697.8	87.4343	19,697.8	84.0194	19,697.8	85.0128	19,697.8	81.4141	19,697.8	82.2815	19,697.8	74.2988	19,697.8	77.1756	19,697.8	68.2289	19,697.8	71.18	19,697.8	61.2495	19,697.8	64.7103	19,697.8	57.361	19,697.8	61.2294	19,697.8	54.9578	19,697.8	38.3951	19,697.8	42.7247	19,697.8	48.5581	19,697.8	44.7165	19,697.8	24.8023	19,697.8	44.1296	19,697.8	45.7815	19,697.8	47.0103	19,697.8	48.4077	19,697.8	50.0575	19,697.8	49.9124	19,697.8	43.1607	19,697.8	49.0108	19,697.8	47.9578	19,697.8	32.6006	19,697.8	50.4621	19,697.8	43.4379	19,697.8	30.6808
19,999.5	89.5388	19,999.5	89.6838	19,999.5	89.4401	19,999.5	88.0038	19,999.5	87.5296	19,999.5	83.8253	19,999.5	84.6092	19,999.5	80.8603	19,999.5	81.3879	19,999.5	73.3331	19,999.5	77.3629	19,999.5	65.7832	19,999.5	72.3216	19,999.5	63.3418	19,999.5	56.303	19,999.5	54.5765	19,999.5	61.8608	19,999.5	54.6185	19,999.5	54.2616	19,999.5	47.1992	19,999.5	53.3282	19,999.5	51.8704	19,999.5	56.6088	19,999.5	53.7917	19,999.5	52.1645	19,999.5	54.6595	19,999.5	51.0006	19,999.5	50.5313	19,999.5	56.1288	19,999.5	47.9123	19,999.5	51.8344	19,999.5	52.9727	19,999.5	49.8249	19,999.5	44.6239	19,999.5	50.6683	19,999.5	44.3404
