"SPL Horizontal"
"On-Axis"		"10°"		"-10°"		"20°"		"-20°"		"30°"		"-30°"		"40°"		"-40°"		"50°"		"-50°"		"60°"		"-60°"		"70°"		"-70°"		"80°"		"-80°"		"90°"		"-90°"		"100°"		"-100°"		"110°"		"-110°"		"120°"		"-120°"		"130°"		"-130°"		"140°"		"-140°"		"150°"		"-150°"		"160°"		"-160°"		"170°"		"-170°"		"180°"
"Frequency / Hz"	"Sound Pressure Level / dB (re 20 µPa/V)  [2.83  V @ 1. m]"	"Frequency / Hz"	"Sound Pressure Level / dB (re 20 µPa/V)  [2.83  V @ 1. m]"	"Frequency / Hz"	"Sound Pressure Level / dB (re 20 µPa/V)  [2.83  V @ 1. m]"	"Frequency / Hz"	"Sound Pressure Level / dB (re 20 µPa/V)  [2.83  V @ 1. m]"	"Frequency / Hz"	"Sound Pressure Level / dB (re 20 µPa/V)  [2.83  V @ 1. m]"	"Frequency / Hz"	"Sound Pressure Level / dB (re 20 µPa/V)  [2.83  V @ 1. m]"	"Frequency / Hz"	"Sound Pressure Level / dB (re 20 µPa/V)  [2.83  V @ 1. m]"	"Frequency / Hz"	"Sound Pressure Level / dB (re 20 µPa/V)  [2.83  V @ 1. m]"	"Frequency / Hz"	"Sound Pressure Level / dB (re 20 µPa/V)  [2.83  V @ 1. m]"	"Frequency / Hz"	"Sound Pressure Level / dB (re 20 µPa/V)  [2.83  V @ 1. m]"	"Frequency / Hz"	"Sound Pressure Level / dB (re 20 µPa/V)  [2.83  V @ 1. m]"	"Frequency / Hz"	"Sound Pressure Level / dB (re 20 µPa/V)  [2.83  V @ 1. m]"	"Frequency / Hz"	"Sound Pressure Level / dB (re 20 µPa/V)  [2.83  V @ 1. m]"	"Frequency / Hz"	"Sound Pressure Level / dB (re 20 µPa/V)  [2.83  V @ 1. m]"	"Frequency / Hz"	"Sound Pressure Level / dB (re 20 µPa/V)  [2.83  V @ 1. m]"	"Frequency / Hz"	"Sound Pressure Level / dB (re 20 µPa/V)  [2.83  V @ 1. m]"	"Frequency / Hz"	"Sound Pressure Level / dB (re 20 µPa/V)  [2.83  V @ 1. m]"	"Frequency / Hz"	"Sound Pressure Level / dB (re 20 µPa/V)  [2.83  V @ 1. m]"	"Frequency / Hz"	"Sound Pressure Level / dB (re 20 µPa/V)  [2.83  V @ 1. m]"	"Frequency / Hz"	"Sound Pressure Level / dB (re 20 µPa/V)  [2.83  V @ 1. m]"	"Frequency / Hz"	"Sound Pressure Level / dB (re 20 µPa/V)  [2.83  V @ 1. m]"	"Frequency / Hz"	"Sound Pressure Level / dB (re 20 µPa/V)  [2.83  V @ 1. m]"	"Frequency / Hz"	"Sound Pressure Level / dB (re 20 µPa/V)  [2.83  V @ 1. m]"	"Frequency / Hz"	"Sound Pressure Level / dB (re 20 µPa/V)  [2.83  V @ 1. m]"	"Frequency / Hz"	"Sound Pressure Level / dB (re 20 µPa/V)  [2.83  V @ 1. m]"	"Frequency / Hz"	"Sound Pressure Level / dB (re 20 µPa/V)  [2.83  V @ 1. m]"	"Frequency / Hz"	"Sound Pressure Level / dB (re 20 µPa/V)  [2.83  V @ 1. m]"	"Frequency / Hz"	"Sound Pressure Level / dB (re 20 µPa/V)  [2.83  V @ 1. m]"	"Frequency / Hz"	"Sound Pressure Level / dB (re 20 µPa/V)  [2.83  V @ 1. m]"	"Frequency / Hz"	"Sound Pressure Level / dB (re 20 µPa/V)  [2.83  V @ 1. m]"	"Frequency / Hz"	"Sound Pressure Level / dB (re 20 µPa/V)  [2.83  V @ 1. m]"	"Frequency / Hz"	"Sound Pressure Level / dB (re 20 µPa/V)  [2.83  V @ 1. m]"	"Frequency / Hz"	"Sound Pressure Level / dB (re 20 µPa/V)  [2.83  V @ 1. m]"	"Frequency / Hz"	"Sound Pressure Level / dB (re 20 µPa/V)  [2.83  V @ 1. m]"	"Frequency / Hz"	"Sound Pressure Level / dB (re 20 µPa/V)  [2.83  V @ 1. m]"	"Frequency / Hz"	"Sound Pressure Level / dB (re 20 µPa/V)  [2.83  V @ 1. m]"
20.5078	60.6989	20.5078	60.7409	20.5078	60.6694	20.5078	60.7936	20.5078	60.6541	20.5078	60.8551	20.5078	60.6548	20.5078	60.923	20.5078	60.672	20.5078	60.9936	20.5078	60.7047	20.5078	61.0622	20.5078	60.7491	20.5078	61.1239	20.5078	60.7992	20.5078	61.1743	20.5078	60.8472	20.5078	61.2112	20.5078	60.8864	20.5078	61.236	20.5078	60.9128	20.5078	61.253	20.5078	60.9276	20.5078	61.2686	20.5078	60.937	20.5078	61.2869	20.5078	60.9508	20.5078	61.3069	20.5078	60.9787	20.5078	61.3212	20.5078	61.0265	20.5078	61.3194	20.5078	61.0931	20.5078	61.2929	20.5078	61.1691	20.5078	61.2403
21.9727	59.1604	21.9727	59.2011	21.9727	59.1138	21.9727	59.2372	21.9727	59.0614	21.9727	59.2708	21.9727	59.0049	21.9727	59.3047	21.9727	58.9472	21.9727	59.3417	21.9727	58.8929	21.9727	59.3843	21.9727	58.847	21.9727	59.4347	21.9727	58.8154	21.9727	59.4954	21.9727	58.804	21.9727	59.5687	21.9727	58.8192	21.9727	59.6574	21.9727	58.8669	21.9727	59.7628	21.9727	58.9526	21.9727	59.8831	21.9727	59.0797	21.9727	60.0112	21.9727	59.2475	21.9727	60.1337	21.9727	59.4489	21.9727	60.2322	21.9727	59.6686	21.9727	60.287	21.9727	59.8847	21.9727	60.2821	21.9727	60.0724	21.9727	60.2095
23.4375	61.3021	23.4375	61.3647	23.4375	61.2288	23.4375	61.4153	23.4375	61.1466	23.4375	61.4539	23.4375	61.0583	23.4375	61.4809	23.4375	60.9668	23.4375	61.4971	23.4375	60.8745	23.4375	61.5036	23.4375	60.7839	23.4375	61.5015	23.4375	60.6973	23.4375	61.4924	23.4375	60.6173	23.4375	61.4779	23.4375	60.5481	23.4375	61.46	23.4375	60.4957	23.4375	61.4404	23.4375	60.4676	23.4375	61.4196	23.4375	60.4712	23.4375	61.3961	23.4375	60.5115	23.4375	61.3665	23.4375	60.5887	23.4375	61.325	23.4375	60.6967	23.4375	61.2658	23.4375	60.8239	23.4375	61.1841	23.4375	60.956	23.4375	61.0794
24.9023	62.3892	24.9023	62.4252	24.9023	62.3468	24.9023	62.4538	24.9023	62.299	24.9023	62.4749	24.9023	62.2473	24.9023	62.4884	24.9023	62.1937	24.9023	62.4941	24.9023	62.1398	24.9023	62.492	24.9023	62.0871	24.9023	62.4825	24.9023	62.0369	24.9023	62.4663	24.9023	61.9906	24.9023	62.4454	24.9023	61.9506	24.9023	62.4225	24.9023	61.9199	24.9023	62.4006	24.9023	61.9024	24.9023	62.382	24.9023	61.9019	24.9023	62.3667	24.9023	61.921	24.9023	62.3524	24.9023	61.9599	24.9023	62.3345	24.9023	62.0154	24.9023	62.3078	24.9023	62.0816	24.9023	62.2683	24.9023	62.1508	24.9023	62.2151
26.3672	63.0245	26.3672	63.0555	26.3672	62.9852	26.3672	63.0771	26.3672	62.9391	26.3672	63.0888	26.3672	62.8881	26.3672	63.0907	26.3672	62.8343	26.3672	63.0835	26.3672	62.7794	26.3672	63.0684	26.3672	62.7251	26.3672	63.047	26.3672	62.6726	26.3672	63.021	26.3672	62.6231	26.3672	62.9925	26.3672	62.5783	26.3672	62.9631	26.3672	62.5404	26.3672	62.934	26.3672	62.5121	26.3672	62.9056	26.3672	62.4967	26.3672	62.8774	26.3672	62.4964	26.3672	62.8482	26.3672	62.5123	26.3672	62.8158	26.3672	62.5432	26.3672	62.7784	26.3672	62.5857	26.3672	62.7351	26.3672	62.6352	26.3672	62.6864
27.832	63.781	27.832	63.8141	27.832	63.7432	27.832	63.842	27.832	63.7018	27.832	63.864	27.832	63.6575	27.832	63.8798	27.832	63.6117	27.832	63.8887	27.832	63.5651	27.832	63.8901	27.832	63.5189	27.832	63.8835	27.832	63.4737	27.832	63.8685	27.832	63.4306	27.832	63.845	27.832	63.3905	27.832	63.8137	27.832	63.3552	27.832	63.7757	27.832	63.3265	27.832	63.7325	27.832	63.3069	27.832	63.686	27.832	63.2986	27.832	63.6372	27.832	63.3029	27.832	63.5871	27.832	63.3203	27.832	63.5361	27.832	63.3498	27.832	63.485	27.832	63.3891	27.832	63.4352
29.2969	65.1143	29.2969	65.152	29.2969	65.0678	29.2969	65.1803	29.2969	65.0136	29.2969	65.1984	29.2969	64.953	29.2969	65.2063	29.2969	64.8876	29.2969	65.2036	29.2969	64.819	29.2969	65.1907	29.2969	64.7492	29.2969	65.168	29.2969	64.6799	29.2969	65.1362	29.2969	64.6133	29.2969	65.0965	29.2969	64.5515	29.2969	65.0501	29.2969	64.497	29.2969	64.9987	29.2969	64.4525	29.2969	64.9439	29.2969	64.4209	29.2969	64.8866	29.2969	64.4048	29.2969	64.8274	29.2969	64.406	29.2969	64.7659	29.2969	64.4251	29.2969	64.7019	29.2969	64.4612	29.2969	64.6362	29.2969	64.5113	29.2969	64.5712
30.7617	65.6695	30.7617	65.7087	30.7617	65.6194	30.7617	65.7365	30.7617	65.5592	30.7617	65.7527	30.7617	65.49	30.7617	65.7571	30.7617	65.4133	30.7617	65.7502	30.7617	65.3309	30.7617	65.7326	30.7617	65.2453	30.7617	65.705	30.7617	65.1596	30.7617	65.6685	30.7617	65.0771	30.7617	65.6238	30.7617	65.0016	30.7617	65.5718	30.7617	64.9364	30.7617	65.513	30.7617	64.8847	30.7617	65.448	30.7617	64.8486	30.7617	65.3778	30.7617	64.8298	30.7617	65.3031	30.7617	64.829	30.7617	65.2252	30.7617	64.8463	30.7617	65.146	30.7617	64.8811	30.7617	65.0682	30.7617	64.9318	30.7617	64.9954
32.2266	66.6119	32.2266	66.6294	32.2266	66.5875	32.2266	66.6398	32.2266	66.5567	32.2266	66.6427	32.2266	66.5199	32.2266	66.6382	32.2266	66.478	32.2266	66.6263	32.2266	66.4317	32.2266	66.6073	32.2266	66.3824	32.2266	66.5816	32.2266	66.3314	32.2266	66.5501	32.2266	66.2806	32.2266	66.5135	32.2266	66.2317	32.2266	66.4734	32.2266	66.1871	32.2266	66.4315	32.2266	66.149	32.2266	66.3893	32.2266	66.1198	32.2266	66.3484	32.2266	66.1011	32.2266	66.3092	32.2266	66.0941	32.2266	66.2717	32.2266	66.0986	32.2266	66.2354	32.2266	66.1136	32.2266	66.2001	32.2266	66.1371	32.2266	66.1668
33.6914	66.9873	33.6914	67.0018	33.6914	66.9656	33.6914	67.0081	33.6914	66.9373	33.6914	67.0059	33.6914	66.9035	33.6914	66.9948	33.6914	66.865	33.6914	66.9752	33.6914	66.8228	33.6914	66.9475	33.6914	66.7776	33.6914	66.9127	33.6914	66.7303	33.6914	66.8722	33.6914	66.6817	33.6914	66.8274	33.6914	66.633	33.6914	66.78	33.6914	66.5856	33.6914	66.7315	33.6914	66.5416	33.6914	66.6834	33.6914	66.5032	33.6914	66.6374	33.6914	66.4722	33.6914	66.5943	33.6914	66.4504	33.6914	66.5548	33.6914	66.4388	33.6914	66.5194	33.6914	66.4376	33.6914	66.4888	33.6914	66.4464	33.6914	66.4639
35.1562	67.6168	35.1562	67.643	35.1562	67.5822	35.1562	67.6599	35.1562	67.5405	35.1562	67.6667	35.1562	67.493	35.1562	67.663	35.1562	67.4412	35.1562	67.6488	35.1562	67.3868	35.1562	67.6244	35.1562	67.3311	35.1562	67.5907	35.1562	67.2758	35.1562	67.5488	35.1562	67.2224	35.1562	67.5	35.1562	67.1725	35.1562	67.4463	35.1562	67.1276	35.1562	67.3893	35.1562	67.0894	35.1562	67.3313	35.1562	67.0589	35.1562	67.2742	35.1562	67.0369	35.1562	67.2198	35.1562	67.0238	35.1562	67.17	35.1562	67.0194	35.1562	67.1258	35.1562	67.0238	35.1562	67.0884	35.1562	67.037	35.1562	67.0586
36.6211	68.5553	36.6211	68.5802	36.6211	68.5218	36.6211	68.5957	36.6211	68.4809	36.6211	68.6011	36.6211	68.4338	36.6211	68.5961	36.6211	68.3818	36.6211	68.5803	36.6211	68.3263	36.6211	68.554	36.6211	68.2689	36.6211	68.5174	36.6211	68.2109	36.6211	68.4713	36.6211	68.154	36.6211	68.417	36.6211	68.0997	36.6211	68.356	36.6211	68.0497	36.6211	68.2903	36.6211	68.0052	36.6211	68.2224	36.6211	67.9673	36.6211	68.155	36.6211	67.937	36.6211	68.0911	36.6211	67.9146	36.6211	68.0334	36.6211	67.9007	36.6211	67.9843	36.6211	67.8961	36.6211	67.9455	36.6211	67.9016	36.6211	67.9179
38.0859	68.6894	38.0859	68.7133	38.0859	68.654	38.0859	68.7247	38.0859	68.6079	38.0859	68.723	38.0859	68.5525	38.0859	68.7077	38.0859	68.4891	38.0859	68.6787	38.0859	68.4195	38.0859	68.6362	38.0859	68.346	38.0859	68.581	38.0859	68.2707	38.0859	68.5141	38.0859	68.1962	38.0859	68.4372	38.0859	68.1246	38.0859	68.3528	38.0859	68.0578	38.0859	68.2635	38.0859	67.9971	38.0859	68.173	38.0859	67.9434	38.0859	68.0849	38.0859	67.897	38.0859	68.0033	38.0859	67.8584	38.0859	67.9323	38.0859	67.8286	38.0859	67.8751	38.0859	67.809	38.0859	67.834	38.0859	67.802	38.0859	67.8098
39.5508	69.4607	39.5508	69.4742	39.5508	69.4411	39.5508	69.4805	39.5508	69.4165	39.5508	69.4791	39.5508	69.3882	39.5508	69.4694	39.5508	69.3575	39.5508	69.4513	39.5508	69.3257	39.5508	69.4246	39.5508	69.2935	39.5508	69.3897	39.5508	69.2616	39.5508	69.3471	39.5508	69.23	39.5508	69.298	39.5508	69.1983	39.5508	69.2442	39.5508	69.1662	39.5508	69.1885	39.5508	69.1335	39.5508	69.1336	39.5508	69.1004	39.5508	69.0828	39.5508	69.0677	39.5508	69.0388	39.5508	69.0366	39.5508	69.0038	39.5508	69.0086	39.5508	68.9791	39.5508	68.9857	39.5508	68.9655	39.5508	68.9698	39.5508	68.9626
41.0156	70.2212	41.0156	70.2285	41.0156	70.2059	41.0156	70.2269	41.0156	70.1836	41.0156	70.2156	41.0156	70.1558	41.0156	70.1942	41.0156	70.1237	41.0156	70.1624	41.0156	70.0886	41.0156	70.1205	41.0156	70.0518	41.0156	70.0689	41.0156	70.0141	41.0156	70.0085	41.0156	69.9756	41.0156	69.9409	41.0156	69.9358	41.0156	69.8686	41.0156	69.8936	41.0156	69.7945	41.0156	69.8479	41.0156	69.7223	41.0156	69.7981	41.0156	69.6557	41.0156	69.7448	41.0156	69.5987	41.0156	69.6897	41.0156	69.5548	41.0156	69.636	41.0156	69.5269	41.0156	69.5877	41.0156	69.5167	41.0156	69.5492	41.0156	69.5245
42.4805	70.6382	42.4805	70.6599	42.4805	70.6021	42.4805	70.6676	42.4805	70.5514	42.4805	70.6619	42.4805	70.4861	42.4805	70.6434	42.4805	70.4072	42.4805	70.6131	42.4805	70.3162	42.4805	70.5718	42.4805	70.2161	42.4805	70.5206	42.4805	70.1111	42.4805	70.4606	42.4805	70.0065	42.4805	70.3931	42.4805	69.9085	42.4805	70.3196	42.4805	69.8232	42.4805	70.2421	42.4805	69.7556	42.4805	70.1631	42.4805	69.7088	42.4805	70.0854	42.4805	69.6832	42.4805	70.0116	42.4805	69.6773	42.4805	69.944	42.4805	69.6878	42.4805	69.8836	42.4805	69.7111	42.4805	69.8305	42.4805	69.7439	42.4805	69.784
43.9453	71.2778	43.9453	71.3008	43.9453	71.2451	43.9453	71.3134	43.9453	71.2036	43.9453	71.3155	43.9453	71.1546	43.9453	71.307	43.9453	71.0998	43.9453	71.2882	43.9453	71.0411	43.9453	71.2599	43.9453	70.9805	43.9453	71.223	43.9453	70.9204	43.9453	71.1786	43.9453	70.8632	43.9453	71.128	43.9453	70.8111	43.9453	71.0726	43.9453	70.7663	43.9453	71.0138	43.9453	70.7301	43.9453	70.9534	43.9453	70.703	43.9453	70.8934	43.9453	70.6846	43.9453	70.8367	43.9453	70.6735	43.9453	70.7861	43.9453	70.6686	43.9453	70.7441	43.9453	70.6693	43.9453	70.712	43.9453	70.676	43.9453	70.6897
45.4102	71.7388	45.4102	71.7595	45.4102	71.7074	45.4102	71.7693	45.4102	71.666	45.4102	71.7678	45.4102	71.6151	45.4102	71.7551	45.4102	71.5559	45.4102	71.7315	45.4102	71.4897	45.4102	71.6973	45.4102	71.4184	45.4102	71.6534	45.4102	71.3441	45.4102	71.6008	45.4102	71.2695	45.4102	71.5408	45.4102	71.1974	45.4102	71.4746	45.4102	71.1307	45.4102	71.4036	45.4102	71.0716	45.4102	71.3295	45.4102	71.0221	45.4102	71.2542	45.4102	70.9834	45.4102	71.1807	45.4102	70.9561	45.4102	71.1122	45.4102	70.9405	45.4102	71.0521	45.4102	70.937	45.4102	71.0035	45.4102	70.9459	45.4102	70.9679
46.875	72.5127	46.875	72.5238	46.875	72.4895	46.875	72.5224	46.875	72.4548	46.875	72.5084	46.875	72.4092	46.875	72.4819	46.875	72.3537	46.875	72.4434	46.875	72.2897	46.875	72.3935	46.875	72.2186	46.875	72.3337	46.875	72.1423	46.875	72.2653	46.875	72.0632	46.875	72.1904	46.875	71.9837	46.875	72.1109	46.875	71.9063	46.875	72.0289	46.875	71.8337	46.875	71.947	46.875	71.7683	46.875	71.8678	46.875	71.7122	46.875	71.7945	46.875	71.6672	46.875	71.7302	46.875	71.6344	46.875	71.6779	46.875	71.6145	46.875	71.6397	46.875	71.6083	46.875	71.6165
48.3398	72.9057	48.3398	72.9161	48.3398	72.8852	48.3398	72.916	48.3398	72.855	48.3398	72.9055	48.3398	72.8158	48.3398	72.8845	48.3398	72.7687	48.3398	72.8536	48.3398	72.7149	48.3398	72.8136	48.3398	72.656	48.3398	72.7655	48.3398	72.5937	48.3398	72.7108	48.3398	72.5303	48.3398	72.6511	48.3398	72.4678	48.3398	72.5879	48.3398	72.4083	48.3398	72.5231	48.3398	72.3537	48.3398	72.4586	48.3398	72.3054	48.3398	72.3963	48.3398	72.2647	48.3398	72.3387	48.3398	72.2324	48.3398	72.2882	48.3398	72.2092	48.3398	72.247	48.3398	72.1953	48.3398	72.2169	48.3398	72.1915	48.3398	72.1985
51.2695	73.8221	51.2695	73.8471	51.2695	73.7877	51.2695	73.8621	51.2695	73.7447	51.2695	73.8666	51.2695	73.6942	51.2695	73.8606	51.2695	73.6374	51.2695	73.8439	51.2695	73.5759	51.2695	73.8169	51.2695	73.5113	51.2695	73.7801	51.2695	73.4457	51.2695	73.734	51.2695	73.3807	51.2695	73.6796	51.2695	73.3184	51.2695	73.6179	51.2695	73.2604	51.2695	73.5504	51.2695	73.2085	51.2695	73.479	51.2695	73.1643	51.2695	73.4059	51.2695	73.1292	51.2695	73.3342	51.2695	73.1046	51.2695	73.2671	51.2695	73.0911	51.2695	73.208	51.2695	73.0895	51.2695	73.1596	51.2695	73.1001	51.2695	73.1234
52.7344	74.2726	52.7344	74.2976	52.7344	74.241	52.7344	74.3154	52.7344	74.2039	52.7344	74.3258	52.7344	74.1625	52.7344	74.3287	52.7344	74.1185	52.7344	74.3245	52.7344	74.0739	52.7344	74.3137	52.7344	74.0307	52.7344	74.2972	52.7344	73.9908	52.7344	74.2758	52.7344	73.9559	52.7344	74.2505	52.7344	73.9272	52.7344	74.2223	52.7344	73.9056	52.7344	74.1917	52.7344	73.8913	52.7344	74.1594	52.7344	73.8844	52.7344	74.1257	52.7344	73.8845	52.7344	74.0915	52.7344	73.891	52.7344	74.0574	52.7344	73.9033	52.7344	74.0245	52.7344	73.9203	52.7344	73.9939	52.7344	73.9414	52.7344	73.966
54.1992	74.7602	54.1992	74.7884	54.1992	74.7218	54.1992	74.8056	54.1992	74.6744	54.1992	74.8114	54.1992	74.62	54.1992	74.8062	54.1992	74.5611	54.1992	74.7907	54.1992	74.5007	54.1992	74.7663	54.1992	74.442	54.1992	74.7348	54.1992	74.3886	54.1992	74.6985	54.1992	74.3436	54.1992	74.6599	54.1992	74.3097	54.1992	74.6213	54.1992	74.2885	54.1992	74.5847	54.1992	74.2803	54.1992	74.5513	54.1992	74.284	54.1992	74.5216	54.1992	74.2975	54.1992	74.4955	54.1992	74.3176	54.1992	74.4726	54.1992	74.3414	54.1992	74.4518	54.1992	74.3661	54.1992	74.4319	54.1992	74.3897	54.1992	74.4116
55.6641	75.6301	55.6641	75.6573	55.6641	75.5827	55.6641	75.6639	55.6641	75.5156	55.6641	75.6504	55.6641	75.4303	55.6641	75.6177	55.6641	75.3287	55.6641	75.5678	55.6641	75.2136	55.6641	75.503	55.6641	75.0886	55.6641	75.4264	55.6641	74.9582	55.6641	75.3415	55.6641	74.8277	55.6641	75.2518	55.6641	74.703	55.6641	75.1604	55.6641	74.5903	55.6641	75.0695	55.6641	74.4958	55.6641	74.9805	55.6641	74.4244	55.6641	74.894	55.6641	74.3794	55.6641	74.8102	55.6641	74.3618	55.6641	74.729	55.6641	74.37	55.6641	74.651	55.6641	74.4003	55.6641	74.5767	55.6641	74.4479	55.6641	74.5081
58.5938	76.5578	58.5938	76.5453	58.5938	76.5493	58.5938	76.5115	58.5938	76.5201	58.5938	76.4566	58.5938	76.4711	58.5938	76.3812	58.5938	76.4033	58.5938	76.2863	58.5938	76.318	58.5938	76.1736	58.5938	76.217	58.5938	76.0459	58.5938	76.1027	58.5938	75.9066	58.5938	75.9777	58.5938	75.7601	58.5938	75.8453	58.5938	75.6116	58.5938	75.7095	58.5938	75.4669	58.5938	75.5741	58.5938	75.3319	58.5938	75.4434	58.5938	75.2122	58.5938	75.3215	58.5938	75.1123	58.5938	75.2124	58.5938	75.036	58.5938	75.1195	58.5938	74.9856	58.5938	75.0457	58.5938	74.962	58.5938	74.9936	58.5938	74.9651
60.0586	76.8668	60.0586	76.8749	60.0586	76.8424	60.0586	76.8661	60.0586	76.8022	60.0586	76.84	60.0586	76.7469	60.0586	76.7962	60.0586	76.677	60.0586	76.7345	60.0586	76.5938	60.0586	76.6549	60.0586	76.4982	60.0586	76.5583	60.0586	76.3921	60.0586	76.4462	60.0586	76.2776	60.0586	76.3214	60.0586	76.1572	60.0586	76.1876	60.0586	76.0341	60.0586	76.0494	60.0586	75.912	60.0586	75.9126	60.0586	75.7949	60.0586	75.7831	60.0586	75.6871	60.0586	75.6669	60.0586	75.5928	60.0586	75.5694	60.0586	75.5162	60.0586	75.4947	60.0586	75.4607	60.0586	75.4457	60.0586	75.4293	60.0586	75.4239
62.9883	77.4957	62.9883	77.5105	62.9883	77.4672	62.9883	77.5114	62.9883	77.426	62.9883	77.4985	62.9883	77.3732	62.9883	77.4724	62.9883	77.3105	62.9883	77.434	62.9883	77.2398	62.9883	77.3847	62.9883	77.1634	62.9883	77.326	62.9883	77.0838	62.9883	77.2597	62.9883	77.0036	62.9883	77.1875	62.9883	76.925	62.9883	77.1112	62.9883	76.8506	62.9883	77.0328	62.9883	76.7825	62.9883	76.9542	62.9883	76.7226	62.9883	76.8778	62.9883	76.6728	62.9883	76.806	62.9883	76.6344	62.9883	76.7415	62.9883	76.6088	62.9883	76.6868	62.9883	76.5966	62.9883	76.644	62.9883	76.5983	62.9883	76.6142
64.4531	77.7497	64.4531	77.7678	64.4531	77.7197	64.4531	77.7736	64.4531	77.6789	64.4531	77.7673	64.4531	77.6284	64.4531	77.7492	64.4531	77.5701	64.4531	77.7204	64.4531	77.5061	64.4531	77.6824	64.4531	77.4385	64.4531	77.6366	64.4531	77.3699	64.4531	77.585	64.4531	77.3024	64.4531	77.5292	64.4531	77.2385	64.4531	77.4707	64.4531	77.1801	64.4531	77.4109	64.4531	77.1289	64.4531	77.351	64.4531	77.0866	64.4531	77.2918	64.4531	77.0542	64.4531	77.2349	64.4531	77.0327	64.4531	77.1816	64.4531	77.0225	64.4531	77.1336	64.4531	77.0239	64.4531	77.0925	64.4531	77.0366	64.4531	77.0598
67.3828	78.4529	67.3828	78.4577	67.3828	78.4357	67.3828	78.45	67.3828	78.4069	67.3828	78.4301	67.3828	78.3679	67.3828	78.3991	67.3828	78.3203	67.3828	78.3586	67.3828	78.2663	67.3828	78.3107	67.3828	78.2081	67.3828	78.2581	67.3828	78.1482	67.3828	78.2035	67.3828	78.0889	67.3828	78.1495	67.3828	78.0326	67.3828	78.0985	67.3828	77.9811	67.3828	78.0521	67.3828	77.9363	67.3828	78.0113	67.3828	77.8993	67.3828	77.9761	67.3828	77.8712	67.3828	77.9459	67.3828	77.8523	67.3828	77.9198	67.3828	77.8427	67.3828	77.897	67.3828	77.8418	67.3828	77.8772	67.3828	77.8482	67.3828	77.8605
68.8477	78.833	68.8477	78.8371	68.8477	78.8166	68.8477	78.8287	68.8477	78.7887	68.8477	78.808	68.8477	78.7506	68.8477	78.7762	68.8477	78.7041	68.8477	78.7347	68.8477	78.6514	68.8477	78.6857	68.8477	78.5949	68.8477	78.6319	68.8477	78.5371	68.8477	78.5762	68.8477	78.4804	68.8477	78.5214	68.8477	78.4272	68.8477	78.4703	68.8477	78.3795	68.8477	78.4247	68.8477	78.3388	68.8477	78.386	68.8477	78.3059	68.8477	78.3543	68.8477	78.2815	68.8477	78.329	68.8477	78.2655	68.8477	78.3089	68.8477	78.2572	68.8477	78.2926	68.8477	78.2558	68.8477	78.2791	68.8477	78.2599	68.8477	78.268
71.7773	79.6753	71.7773	79.679	71.7773	79.6571	71.7773	79.668	71.7773	79.6253	71.7773	79.6426	71.7773	79.5815	71.7773	79.6038	71.7773	79.5274	71.7773	79.5533	71.7773	79.4654	71.7773	79.4934	71.7773	79.3983	71.7773	79.4271	71.7773	79.3287	71.7773	79.3576	71.7773	79.2598	71.7773	79.2884	71.7773	79.1941	71.7773	79.2227	71.7773	79.1343	71.7773	79.1631	71.7773	79.0821	71.7773	79.1116	71.7773	79.039	71.7773	79.0689	71.7773	79.0056	71.7773	79.0349	71.7773	78.9818	71.7773	79.0086	71.7773	78.9669	71.7773	78.9888	71.7773	78.96	71.7773	78.9743	71.7773	78.9596	71.7773	78.9646
74.707	80.3844	74.707	80.3901	74.707	80.3637	74.707	80.3803	74.707	80.3288	74.707	80.3554	74.707	80.2816	74.707	80.3165	74.707	80.2243	74.707	80.2655	74.707	80.1596	74.707	80.2049	74.707	80.0907	74.707	80.1376	74.707	80.0207	74.707	80.0673	74.707	79.953	74.707	79.9975	74.707	79.8906	74.707	79.9318	74.707	79.8357	74.707	79.8732	74.707	79.79	74.707	79.8236	74.707	79.7544	74.707	79.784	74.707	79.7286	74.707	79.7543	74.707	79.7118	74.707	79.733	74.707	79.7023	74.707	79.7185	74.707	79.6986	74.707	79.7087	74.707	79.699	74.707	79.7025
77.6367	81.0147	77.6367	81.0196	77.6367	80.9939	77.6367	81.0084	77.6367	80.9581	77.6367	80.9814	77.6367	80.9093	77.6367	80.94	77.6367	80.8496	77.6367	80.8863	77.6367	80.7819	77.6367	80.823	77.6367	80.7095	77.6367	80.7533	77.6367	80.6358	77.6367	80.6811	77.6367	80.5642	77.6367	80.61	77.6367	80.498	77.6367	80.5437	77.6367	80.4399	77.6367	80.4851	77.6367	80.3919	77.6367	80.4361	77.6367	80.3549	77.6367	80.3973	77.6367	80.3289	77.6367	80.3682	77.6367	80.3129	77.6367	80.3473	77.6367	80.3053	77.6367	80.3324	77.6367	80.304	77.6367	80.3214	77.6367	80.307	77.6367	80.3131
79.1016	81.3677	79.1016	81.3716	79.1016	81.3476	79.1016	81.3593	79.1016	81.3124	79.1016	81.3313	79.1016	81.2636	79.1016	81.2889	79.1016	81.2035	79.1016	81.2343	79.1016	81.1351	79.1016	81.17	79.1016	81.0614	79.1016	81.0992	79.1016	80.9861	79.1016	81.0257	79.1016	80.9126	79.1016	80.9529	79.1016	80.8442	79.1016	80.8845	79.1016	80.7837	79.1016	80.8234	79.1016	80.733	79.1016	80.7715	79.1016	80.6932	79.1016	80.7298	79.1016	80.6644	79.1016	80.6981	79.1016	80.6457	79.1016	80.675	79.1016	80.6356	79.1016	80.6586	79.1016	80.6321	79.1016	80.6469	79.1016	80.6336	79.1016	80.6387
82.0312	81.9592	82.0312	81.9637	82.0312	81.9383	82.0312	81.9517	82.0312	81.9019	82.0312	81.9238	82.0312	81.8517	82.0312	81.8812	82.0312	81.7899	82.0312	81.8261	82.0312	81.7194	82.0312	81.7612	82.0312	81.6433	82.0312	81.6898	82.0312	81.5654	82.0312	81.6156	82.0312	81.4892	82.0312	81.5423	82.0312	81.418	82.0312	81.4733	82.0312	81.3547	82.0312	81.4112	82.0312	81.3013	82.0312	81.3578	82.0312	81.259	82.0312	81.3135	82.0312	81.2278	82.0312	81.2781	82.0312	81.2071	82.0312	81.2503	82.0312	81.1956	82.0312	81.229	82.0312	81.1917	82.0312	81.2129	82.0312	81.194	82.0312	81.2012
84.9609	82.3249	84.9609	82.3198	84.9609	82.3165	84.9609	82.3012	84.9609	82.2954	84.9609	82.2695	84.9609	82.2634	84.9609	82.2264	84.9609	82.2223	84.9609	82.1739	84.9609	82.1749	84.9609	82.1151	84.9609	82.124	84.9609	82.0535	84.9609	82.0725	84.9609	81.9928	84.9609	82.023	84.9609	81.9367	84.9609	81.9778	84.9609	81.8884	84.9609	81.9386	84.9609	81.85	84.9609	81.9061	84.9609	81.8225	84.9609	81.8804	84.9609	81.8055	84.9609	81.8611	84.9609	81.7975	84.9609	81.8468	84.9609	81.7964	84.9609	81.8362	84.9609	81.7999	84.9609	81.8276	84.9609	81.8057	84.9609	81.82	84.9609	81.8127
87.8906	82.8909	87.8906	82.8965	87.8906	82.868	87.8906	82.8843	87.8906	82.8295	87.8906	82.855	87.8906	82.778	87.8906	82.8104	87.8906	82.717	87.8906	82.7537	87.8906	82.6506	87.8906	82.689	87.8906	82.5833	87.8906	82.6211	87.8906	82.5198	87.8906	82.5556	87.8906	82.4643	87.8906	82.4977	87.8906	82.4204	87.8906	82.452	87.8906	82.3907	87.8906	82.4216	87.8906	82.3763	87.8906	82.4075	87.8906	82.3766	87.8906	82.4083	87.8906	82.3892	87.8906	82.4204	87.8906	82.4099	87.8906	82.4386	87.8906	82.4336	87.8906	82.457	87.8906	82.4552	87.8906	82.4706	87.8906	82.4701	87.8906	82.4755
90.8203	83.3894	90.8203	83.4101	90.8203	83.3485	90.8203	83.4098	90.8203	83.29	90.8203	83.3888	90.8203	83.2174	90.8203	83.3487	90.8203	83.1353	90.8203	83.2928	90.8203	83.0492	90.8203	83.2253	90.8203	82.9648	90.8203	83.1516	90.8203	82.8875	90.8203	83.0775	90.8203	82.8219	90.8203	83.0089	90.8203	82.7713	90.8203	82.9508	90.8203	82.7374	90.8203	82.9065	90.8203	82.7204	90.8203	82.8773	90.8203	82.7191	90.8203	82.862	90.8203	82.731	90.8203	82.857	90.8203	82.7525	90.8203	82.8576	90.8203	82.779	90.8203	82.8587	90.8203	82.8061	90.8203	82.8559	90.8203	82.8295	90.8203	82.8465
95.2148	84.346	95.2148	84.3732	95.2148	84.2912	95.2148	84.3731	95.2148	84.21	95.2148	84.347	95.2148	84.1049	95.2148	84.2974	95.2148	83.98	95.2148	84.2281	95.2148	83.8412	95.2148	84.1436	95.2148	83.6957	95.2148	84.0494	95.2148	83.5525	95.2148	83.9515	95.2148	83.421	95.2148	83.8558	95.2148	83.3101	95.2148	83.7675	95.2148	83.2271	95.2148	83.6904	95.2148	83.1758	95.2148	83.6262	95.2148	83.1563	95.2148	83.5744	95.2148	83.1651	95.2148	83.5327	95.2148	83.1956	95.2148	83.4971	95.2148	83.24	95.2148	83.4634	95.2148	83.2905	95.2148	83.4276	95.2148	83.3408	95.2148	83.387
98.1445	84.7678	98.1445	84.7614	98.1445	84.7473	98.1445	84.7288	98.1445	84.7002	98.1445	84.6721	98.1445	84.628	98.1445	84.5942	98.1445	84.5338	98.1445	84.4994	98.1445	84.4218	98.1445	84.3931	98.1445	84.2976	98.1445	84.2812	98.1445	84.1681	98.1445	84.1705	98.1445	84.0409	98.1445	84.0671	98.1445	83.9236	98.1445	83.9766	98.1445	83.8228	98.1445	83.9027	98.1445	83.7434	98.1445	83.8466	98.1445	83.6881	98.1445	83.8073	98.1445	83.6568	98.1445	83.7812	98.1445	83.6467	98.1445	83.7635	98.1445	83.6533	98.1445	83.7489	98.1445	83.6705	98.1445	83.7332	98.1445	83.6925	98.1445	83.7144
101.074	85.011	101.074	85.0132	101.074	84.9844	101.074	84.9908	101.074	84.9341	101.074	84.9447	101.074	84.8622	101.074	84.8771	101.074	84.7712	101.074	84.791	101.074	84.6648	101.074	84.6907	101.074	84.5478	101.074	84.5813	101.074	84.4258	101.074	84.4686	101.074	84.3053	101.074	84.3585	101.074	84.1933	101.074	84.2565	101.074	84.0961	101.074	84.1673	101.074	84.0183	101.074	84.0938	101.074	83.962	101.074	84.0372	101.074	83.9266	101.074	83.9967	101.074	83.909	101.074	83.9694	101.074	83.9048	101.074	83.9514	101.074	83.9091	101.074	83.9386	101.074	83.9177	101.074	83.9278
105.469	85.3963	105.469	85.4083	105.469	85.3583	105.469	85.3929	105.469	85.2966	105.469	85.3508	105.469	85.2149	105.469	85.2838	105.469	85.1178	105.469	85.1957	105.469	85.0105	105.469	85.0917	105.469	84.8982	105.469	84.978	105.469	84.7863	105.469	84.8619	105.469	84.6797	105.469	84.7501	105.469	84.5829	105.469	84.6486	105.469	84.4993	105.469	84.5617	105.469	84.4315	105.469	84.4914	105.469	84.3806	105.469	84.4377	105.469	84.3461	105.469	84.3986	105.469	84.3261	105.469	84.3715	105.469	84.3178	105.469	84.3529	105.469	84.3175	105.469	84.3398	105.469	84.3223	105.469	84.3299
108.398	85.8886	108.398	85.8941	108.398	85.8543	108.398	85.8705	108.398	85.7926	108.398	85.819	108.398	85.7065	108.398	85.742	108.398	85.5999	108.398	85.6434	108.398	85.4779	108.398	85.5284	108.398	85.3466	108.398	85.4032	108.398	85.2126	108.398	85.2749	108.398	85.0827	108.398	85.1507	108.398	84.9631	108.398	85.0368	108.398	84.8589	108.398	84.9381	108.398	84.7736	108.398	84.8569	108.398	84.7085	108.398	84.7933	108.398	84.6631	108.398	84.7451	108.398	84.6354	108.398	84.7088	108.398	84.6226	108.398	84.6811	108.398	84.6212	108.398	84.659	108.398	84.6283	108.398	84.6414
112.793	86.3064	112.793	86.3116	112.793	86.2722	112.793	86.2871	112.793	86.2116	112.793	86.234	112.793	86.1289	112.793	86.1552	112.793	86.0297	112.793	86.0556	112.793	85.9209	112.793	85.9415	112.793	85.8096	112.793	85.8208	112.793	85.7032	112.793	85.7022	112.793	85.608	112.793	85.5939	112.793	85.5286	112.793	85.503	112.793	85.4679	112.793	85.4342	112.793	85.426	112.793	85.3887	112.793	85.4012	112.793	85.3647	112.793	85.3902	112.793	85.3578	112.793	85.3884	112.793	85.3623	112.793	85.3911	112.793	85.3724	112.793	85.3943	112.793	85.3832	112.793	85.3949	112.793	85.3912
117.188	86.5564	117.188	86.5665	117.188	86.5135	117.188	86.5438	117.188	86.4395	117.188	86.4901	117.188	86.3377	117.188	86.4086	117.188	86.2132	117.188	86.3042	117.188	86.0728	117.188	86.1836	117.188	85.9249	117.188	86.0548	117.188	85.7792	117.188	85.9269	117.188	85.6458	117.188	85.8092	117.188	85.5338	117.188	85.7102	117.188	85.4504	117.188	85.6357	117.188	85.3993	117.188	85.5879	117.188	85.38	117.188	85.5647	117.188	85.3882	117.188	85.5599	117.188	85.4163	117.188	85.5649	117.188	85.4553	117.188	85.5706	117.188	85.4964	117.188	85.5696	117.188	85.5321	117.188	85.5572
120.117	86.8238	120.117	86.832	120.117	86.7823	120.117	86.8072	120.117	86.7086	120.117	86.751	120.117	86.6054	120.117	86.6666	120.117	86.4772	120.117	86.5585	120.117	86.33	120.117	86.4323	120.117	86.1716	120.117	86.2952	120.117	86.0115	120.117	86.1551	120.117	85.8597	120.117	86.0201	120.117	85.7263	120.117	85.8983	120.117	85.6199	120.117	85.7963	120.117	85.5459	120.117	85.7185	120.117	85.5057	120.117	85.6661	120.117	85.4959	120.117	85.6367	120.117	85.5095	120.117	85.6245	120.117	85.5368	120.117	85.6216	120.117	85.5679	120.117	85.6197	120.117	85.5945	120.117	85.6119
124.512	87.2101	124.512	87.2254	124.512	87.1636	124.512	87.2099	124.512	87.0867	124.512	87.1652	124.512	86.9817	124.512	87.0943	124.512	86.8526	124.512	87.0012	124.512	86.7047	124.512	86.891	124.512	86.5453	124.512	86.7699	124.512	86.3828	124.512	86.6444	124.512	86.2268	124.512	86.521	124.512	86.087	124.512	86.4056	124.512	85.9722	124.512	86.3027	124.512	85.8884	124.512	86.2151	124.512	85.8382	124.512	86.1439	124.512	85.8196	124.512	86.0883	124.512	85.827	124.512	86.0456	124.512	85.8518	124.512	86.0119	124.512	85.8853	124.512	85.9825	124.512	85.9203	124.512	85.9529
128.906	87.4466	128.906	87.4507	128.906	87.4094	128.906	87.4223	128.906	87.3402	128.906	87.3632	128.906	87.2411	128.906	87.2771	128.906	87.116	128.906	87.1689	128.906	86.9701	128.906	87.0451	128.906	86.81	128.906	86.9132	128.906	86.6438	128.906	86.7811	128.906	86.4806	128.906	86.6561	128.906	86.33	128.906	86.5443	128.906	86.2008	128.906	86.4495	128.906	86.1002	128.906	86.3728	128.906	86.0325	128.906	86.3128	128.906	85.998	128.906	86.266	128.906	85.9931	128.906	86.2279	128.906	86.011	128.906	86.1936	128.906	86.0434	128.906	86.159	128.906	86.0824	128.906	86.1219
133.301	87.5993	133.301	87.5975	133.301	87.568	133.301	87.563	133.301	87.5045	133.301	87.498	133.301	87.4114	133.301	87.4062	133.301	87.2924	133.301	87.2926	133.301	87.1525	133.301	87.1641	133.301	86.9982	133.301	87.028	133.301	86.8363	133.301	86.8922	133.301	86.6749	133.301	86.7639	133.301	86.5217	133.301	86.6487	133.301	86.3846	133.301	86.5499	133.301	86.2699	133.301	86.4684	133.301	86.1826	133.301	86.4021	133.301	86.1249	133.301	86.3477	133.301	86.0962	133.301	86.301	133.301	86.0929	133.301	86.2582	133.301	86.1094	133.301	86.2169	133.301	86.1393	133.301	86.1766
139.16	87.3124	139.16	87.313	139.16	87.282	139.16	87.2839	139.16	87.2236	139.16	87.2275	139.16	87.1411	139.16	87.1484	139.16	87.0399	139.16	87.0532	139.16	86.9271	139.16	86.9504	139.16	86.8108	139.16	86.8497	139.16	86.6996	139.16	86.7608	139.16	86.6018	139.16	86.6921	139.16	86.5246	139.16	86.6488	139.16	86.4731	139.16	86.632	139.16	86.4494	139.16	86.6381	139.16	86.4525	139.16	86.6598	139.16	86.4783	139.16	86.6876	139.16	86.5206	139.16	86.7121	139.16	86.5718	139.16	86.7258	139.16	86.6241	139.16	86.7239	139.16	86.6705	139.16	86.705
143.555	87.624	143.555	87.6161	143.555	87.5905	143.555	87.5666	143.555	87.5182	143.555	87.4782	143.555	87.412	143.555	87.3564	143.555	87.2794	143.555	87.2097	143.555	87.1296	143.555	87.0493	143.555	86.9732	143.555	86.8888	143.555	86.8217	143.555	86.7427	143.555	86.6865	143.555	86.6249	143.555	86.5779	143.555	86.5456	143.555	86.5038	143.555	86.5098	143.555	86.4682	143.555	86.5152	143.555	86.4704	143.555	86.5528	143.555	86.5044	143.555	86.609	143.555	86.5599	143.555	86.6688	143.555	86.6242	143.555	86.7185	143.555	86.6844	143.555	86.7481	143.555	86.7296	143.555	86.7521
147.949	87.8179	147.949	87.8187	147.949	87.7718	147.949	87.7742	147.949	87.683	147.949	87.6863	147.949	87.5559	147.949	87.5595	147.949	87.3971	147.949	87.4007	147.949	87.2155	147.949	87.2198	147.949	87.0221	147.949	87.0293	147.949	86.8292	147.949	86.8432	147.949	86.6496	147.949	86.6759	147.949	86.495	147.949	86.5398	147.949	86.3752	147.949	86.4427	147.949	86.2955	147.949	86.3865	147.949	86.2567	147.949	86.3663	147.949	86.2542	147.949	86.3721	147.949	86.2789	147.949	86.3914	147.949	86.319	147.949	86.4118	147.949	86.3622	147.949	86.4231	147.949	86.3979	147.949	86.4191
153.809	87.7523	153.809	87.7608	153.809	87.7013	153.809	87.727	153.809	87.6091	153.809	87.6527	153.809	87.4789	153.809	87.5416	153.809	87.316	153.809	87.3992	153.809	87.1281	153.809	87.2335	153.809	86.9251	153.809	87.0544	153.809	86.7193	153.809	86.874	153.809	86.5242	153.809	86.7051	153.809	86.3534	153.809	86.5593	153.809	86.2182	153.809	86.4453	153.809	86.1257	153.809	86.3668	153.809	86.0774	153.809	86.3215	153.809	86.0693	153.809	86.3018	153.809	86.0923	153.809	86.297	153.809	86.1347	153.809	86.2954	153.809	86.1844	153.809	86.2871	153.809	86.2307	153.809	86.266
159.668	87.8717	159.668	87.8736	159.668	87.8248	159.668	87.8305	159.668	87.7349	159.668	87.7441	159.668	87.6061	159.668	87.6188	159.668	87.4442	159.668	87.4615	159.668	87.2573	159.668	87.2816	159.668	87.0554	159.668	87.0912	159.668	86.8503	159.668	86.9041	159.668	86.6551	159.668	86.7345	159.668	86.4828	159.668	86.5947	159.668	86.3453	159.668	86.493	159.668	86.2514	159.668	86.4321	159.668	86.2046	159.668	86.4083	159.668	86.2025	159.668	86.4123	159.668	86.236	159.668	86.4307	159.668	86.2915	159.668	86.4495	159.668	86.3533	159.668	86.4563	159.668	86.4072	159.668	86.4429
165.527	88.0803	165.527	88.0841	165.527	88.0305	165.527	88.0419	165.527	87.9367	165.527	87.9563	165.527	87.8036	165.527	87.8323	165.527	87.6381	165.527	87.6774	165.527	87.4494	165.527	87.5015	165.527	87.2493	165.527	87.3164	165.527	87.051	165.527	87.1355	165.527	86.8683	165.527	86.9721	165.527	86.7138	165.527	86.8377	165.527	86.5969	165.527	86.74	165.527	86.5224	165.527	86.6811	165.527	86.4899	165.527	86.6575	165.527	86.494	165.527	86.6601	165.527	86.5255	165.527	86.677	165.527	86.5729	165.527	86.6952	165.527	86.6238	165.527	86.7036	165.527	86.6672	165.527	86.6949
171.387	87.8927	171.387	87.8874	171.387	87.8492	171.387	87.8337	171.387	87.7585	171.387	87.7347	171.387	87.6252	171.387	87.5963	171.387	87.4561	171.387	87.4272	171.387	87.2611	171.387	87.2392	171.387	87.0528	171.387	87.0468	171.387	86.8464	171.387	86.8657	171.387	86.658	171.387	86.7117	171.387	86.5029	171.387	86.597	171.387	86.3928	171.387	86.528	171.387	86.3334	171.387	86.5041	171.387	86.3234	171.387	86.5173	171.387	86.3549	171.387	86.5545	171.387	86.4151	171.387	86.6002	171.387	86.489	171.387	86.6393	171.387	86.5614	171.387	86.6595	171.387	86.6194	171.387	86.6534
177.246	87.6828	177.246	87.6727	177.246	87.6411	177.246	87.6115	177.246	87.5499	177.246	87.5022	177.246	87.4141	177.246	87.3512	177.246	87.2413	177.246	87.168	177.246	87.0418	177.246	86.9651	177.246	86.8287	177.246	86.7585	177.246	86.6173	177.246	86.5658	177.246	86.4242	177.246	86.4037	177.246	86.2652	177.246	86.2851	177.246	86.1525	177.246	86.216	177.246	86.0919	177.246	86.1941	177.246	86.0814	177.246	86.2101	177.246	86.1117	177.246	86.2499	177.246	86.1686	177.246	86.2985	177.246	86.2363	177.246	86.3415	177.246	86.2996	177.246	86.3679	177.246	86.3469	177.246	86.3705
183.105	87.6326	183.105	87.6291	183.105	87.5834	183.105	87.5731	183.105	87.4832	183.105	87.4673	183.105	87.3364	183.105	87.3169	183.105	87.1498	183.105	87.1303	183.105	86.9329	183.105	86.9197	183.105	86.6986	183.105	86.7012	183.105	86.4625	183.105	86.4948	183.105	86.2427	183.105	86.3214	183.105	86.058	183.105	86.1989	183.105	85.9253	183.105	86.1367	183.105	85.8555	183.105	86.1324	183.105	85.8503	183.105	86.1721	183.105	85.9012	183.105	86.2352	183.105	85.9915	183.105	86.3001	183.105	86.1003	183.105	86.3484	183.105	86.2068	183.105	86.3669	183.105	86.2936	183.105	86.3489
188.965	87.5143	188.965	87.524	188.965	87.4454	188.965	87.474	188.965	87.3211	188.965	87.3663	188.965	87.1477	188.965	87.2071	188.965	86.9346	188.965	87.0065	188.965	86.6941	188.965	86.7797	188.965	86.4415	188.965	86.5456	188.965	86.1947	188.965	86.3266	188.965	85.9727	188.965	86.1444	188.965	85.7937	188.965	86.0167	188.965	85.6727	188.965	85.9521	188.965	85.6183	188.965	85.9476	188.965	85.6304	188.965	85.9896	188.965	85.6992	188.965	86.0574	188.965	85.8065	188.965	86.1292	188.965	85.9301	188.965	86.1851	188.965	86.0474	188.965	86.2104	188.965	86.1402	188.965	86.1962
196.289	87.7827	196.289	87.793	196.289	87.7117	196.289	87.7416	196.289	87.5826	196.289	87.6293	196.289	87.4002	196.289	87.46	196.289	87.1717	196.289	87.2405	196.289	86.9077	196.289	86.9826	196.289	86.6232	196.289	86.7027	196.289	86.3372	196.289	86.4226	196.289	86.0721	196.289	86.1678	196.289	85.8503	196.289	85.9641	196.289	85.6905	196.289	85.8315	196.289	85.6037	196.289	85.7777	196.289	85.5899	196.289	85.7947	196.289	85.6387	196.289	85.8603	196.289	85.7309	196.289	85.9457	196.289	85.8426	196.289	86.0225	196.289	85.9495	196.289	86.0691	196.289	86.031	196.289	86.0729
203.613	87.6379	203.613	87.6246	203.613	87.588	203.613	87.5495	203.613	87.4752	203.613	87.4164	203.613	87.3024	203.613	87.232	203.613	87.0753	203.613	87.0057	203.613	86.8032	203.613	86.7506	203.613	86.5002	203.613	86.4832	203.613	86.1854	203.613	86.2228	203.613	85.8831	203.613	85.9902	203.613	85.6204	203.613	85.8055	203.613	85.423	203.613	85.6843	203.613	85.3091	203.613	85.6335	203.613	85.2842	203.613	85.648	203.613	85.3386	203.613	85.7098	203.613	85.4502	203.613	85.7924	203.613	85.5897	203.613	85.8664	203.613	85.7268	203.613	85.907	203.613	85.8357	203.613	85.8982
210.938	87.5368	210.938	87.5254	210.938	87.478	210.938	87.4432	210.938	87.3525	210.938	87.2928	210.938	87.1665	210.938	87.0811	210.938	86.9291	210.938	86.8198	210.938	86.6524	210.938	86.5267	210.938	86.3519	210.938	86.2246	210.938	86.0463	210.938	85.94	210.938	85.7573	210.938	85.6987	210.938	85.5076	210.938	85.5211	210.938	85.3178	210.938	85.4178	210.938	85.2028	210.938	85.3877	210.938	85.1672	210.938	85.4183	210.938	85.2041	210.938	85.489	210.938	85.2952	210.938	85.5743	210.938	85.415	210.938	85.6487	210.938	85.5356	210.938	85.6906	210.938	85.6319	210.938	85.6861
218.262	87.497	218.262	87.4823	218.262	87.442	218.262	87.3996	218.262	87.3182	218.262	87.2524	218.262	87.1296	218.262	87.0465	218.262	86.8844	218.262	86.7912	218.262	86.5958	218.262	86.5012	218.262	86.2816	218.262	86.1983	218.262	85.9643	218.262	85.9103	218.262	85.6694	218.262	85.6668	218.262	85.4228	218.262	85.4923	218.262	85.2463	218.262	85.399	218.262	85.1532	218.262	85.384	218.262	85.1436	218.262	85.4311	218.262	85.2047	218.262	85.5155	218.262	85.3135	218.262	85.6094	218.262	85.4432	218.262	85.6869	218.262	85.5676	218.262	85.7279	218.262	85.6654	218.262	85.7213
225.586	87.3976	225.586	87.3849	225.586	87.3338	225.586	87.2974	225.586	87.1944	225.586	87.1385	225.586	86.9828	225.586	86.9145	225.586	86.7066	225.586	86.6361	225.586	86.3788	225.586	86.3202	225.586	86.0194	225.586	85.9917	225.586	85.6551	225.586	85.6827	225.586	85.3189	225.586	85.4277	225.586	85.0449	225.586	85.2548	225.586	84.8622	225.586	85.1773	225.586	84.7873	225.586	85.1895	225.586	84.8192	225.586	85.2703	225.586	84.9384	225.586	85.3895	225.586	85.1125	225.586	85.5155	225.586	85.3037	225.586	85.619	225.586	85.4771	225.586	85.677	225.586	85.6061	225.586	85.6745
232.91	87.4814	232.91	87.4661	232.91	87.4136	232.91	87.3686	232.91	87.2636	232.91	87.1917	232.91	87.035	232.91	86.9412	232.91	86.7341	232.91	86.6267	232.91	86.3723	232.91	86.2645	232.91	85.9676	232.91	85.8798	232.91	85.5466	232.91	85.5077	232.91	85.1449	232.91	85.1905	232.91	84.8031	232.91	84.9664	232.91	84.5584	232.91	84.8569	232.91	84.4341	232.91	84.8577	232.91	84.4329	232.91	84.9424	232.91	84.5364	232.91	85.0731	232.91	84.7111	232.91	85.2104	232.91	84.9166	232.91	85.3197	232.91	85.1133	232.91	85.3745	232.91	85.2682	232.91	85.3585
241.699	87.5123	241.699	87.5069	241.699	87.4378	241.699	87.4213	241.699	87.2848	241.699	87.257	241.699	87.0567	241.699	87.0172	241.699	86.7587	241.699	86.7075	241.699	86.3988	241.699	86.3379	241.699	85.9891	241.699	85.9254	241.699	85.5485	241.699	85.4982	241.699	85.1047	241.699	85.097	241.699	84.6956	241.699	84.7698	241.699	84.3649	241.699	84.5568	241.699	84.1517	241.699	84.4729	241.699	84.0751	241.699	84.5006	241.699	84.1254	241.699	84.5994	241.699	84.2672	241.699	84.7222	241.699	84.4532	241.699	84.8268	241.699	84.6375	241.699	84.8818	241.699	84.784	241.699	84.8689
250.488	87.4503	250.488	87.433	250.488	87.3777	250.488	87.3259	250.488	87.2175	250.488	87.1322	250.488	86.9743	250.488	86.8585	250.488	86.6558	250.488	86.5166	250.488	86.2744	250.488	86.124	250.488	85.849	250.488	85.7049	250.488	85.4074	250.488	85.2916	250.488	84.986	250.488	84.9237	250.488	84.6271	250.488	84.6427	250.488	84.3705	250.488	84.4809	250.488	84.2408	250.488	84.4465	250.488	84.2387	250.488	84.5173	250.488	84.3396	250.488	84.6496	250.488	84.5027	250.488	84.796	250.488	84.6831	250.488	84.9187	250.488	84.8428	250.488	84.9932	250.488	84.9554	250.488	85.0069
259.277	87.7087	259.277	87.6999	259.277	87.6375	259.277	87.6097	259.277	87.487	259.277	87.4366	259.277	87.2584	259.277	87.1799	259.277	86.9549	259.277	86.8424	259.277	86.5829	259.277	86.4338	259.277	86.1535	259.277	85.9737	259.277	85.685	259.277	85.4941	259.277	85.205	259.277	85.0393	259.277	84.7538	259.277	84.6604	259.277	84.383	259.277	84.4046	259.277	84.1444	259.277	84.2989	259.277	84.0693	259.277	84.3373	259.277	84.1496	259.277	84.4808	259.277	84.3387	259.277	84.6711	259.277	84.5714	259.277	84.8491	259.277	84.7862	259.277	84.9686	259.277	84.9382	259.277	85.0016
268.066	87.4652	268.066	87.4304	268.066	87.4158	268.066	87.3128	268.066	87.281	268.066	87.1153	268.066	87.0604	268.066	86.843	268.066	86.7552	268.066	86.505	268.066	86.3707	268.066	86.1165	268.066	85.919	268.066	85.7004	268.066	85.4216	268.066	85.2882	268.066	84.9128	268.066	84.918	268.066	84.4384	268.066	84.6283	268.066	84.0523	268.066	84.4476	268.066	83.8045	268.066	84.3854	268.066	83.725	268.066	84.4279	268.066	83.8081	268.066	84.541	268.066	84.0113	268.066	84.6793	268.066	84.2703	268.066	84.7964	268.066	84.5215	268.066	84.8551	268.066	84.7176	268.066	84.8315
276.855	87.344	276.855	87.298	276.855	87.3105	276.855	87.1667	276.855	87.2033	276.855	86.9466	276.855	87.0253	276.855	86.6373	276.855	86.7753	276.855	86.2426	276.855	86.4495	276.855	85.7719	276.855	86.046	276.855	85.2452	276.855	85.5726	276.855	84.7021	276.855	85.0527	276.855	84.2084	276.855	84.529	276.855	83.8462	276.855	84.0599	276.855	83.675	276.855	83.708	276.855	83.6914	276.855	83.5213	276.855	83.8325	276.855	83.5142	276.855	84.0226	276.855	83.6593	276.855	84.2077	276.855	83.8944	276.855	84.3561	276.855	84.1433	276.855	84.4424	276.855	84.3392	276.855	84.4418
287.109	87.4905	287.109	87.4574	287.109	87.4214	287.109	87.3265	287.109	87.2475	287.109	87.1007	287.109	86.9746	287.109	86.7813	287.109	86.6208	287.109	86.3727	287.109	86.216	287.109	85.8887	287.109	85.7924	287.109	85.3559	287.109	85.3731	287.109	84.8134	287.109	84.9662	287.109	84.3087	287.109	84.5721	287.109	83.8934	287.109	84.2006	287.109	83.6187	287.109	83.8798	287.109	83.5213	287.109	83.6474	287.109	83.5952	287.109	83.5286	287.109	83.7782	287.109	83.5221	287.109	83.9762	287.109	83.6056	287.109	84.1081	287.109	83.748	287.109	84.1338	287.109	83.913	287.109	84.0571
297.363	87.4146	297.363	87.4731	297.363	87.2778	297.363	87.4436	297.363	87.0707	297.363	87.3185	297.363	86.7952	297.363	87.0947	297.363	86.4464	297.363	86.7741	297.363	86.0184	297.363	86.3624	297.363	85.5165	297.363	85.8705	297.363	84.9691	297.363	85.3198	297.363	84.431	297.363	84.7525	297.363	83.9699	297.363	84.2406	297.363	83.6417	297.363	83.8772	297.363	83.4782	297.363	83.737	297.363	83.4902	297.363	83.8282	297.363	83.6679	297.363	84.084	297.363	83.9704	297.363	84.4029	297.363	84.3249	297.363	84.6932	297.363	84.6478	297.363	84.8901	297.363	84.8706	297.363	84.9545
307.617	87.5994	307.617	87.5343	307.617	87.5628	307.617	87.372	307.617	87.4241	307.617	87.121	307.617	87.1873	307.617	86.7942	307.617	86.8601	307.617	86.4078	307.617	86.4541	307.617	85.9797	307.617	85.9846	307.617	85.5278	307.617	85.4727	307.617	85.0683	307.617	84.9475	307.617	84.6198	307.617	84.4459	307.617	84.21	307.617	84.0062	307.617	83.8801	307.617	83.6607	307.617	83.6752	307.617	83.4334	307.617	83.6189	307.617	83.3413	307.617	83.6915	307.617	83.3868	307.617	83.834	307.617	83.5414	307.617	83.974	307.617	83.7446	307.617	84.053	307.617	83.9277	307.617	84.0387
319.336	87.267	319.336	87.2775	319.336	87.1555	319.336	87.1882	319.336	86.9435	319.336	86.9982	319.336	86.6355	319.336	86.7036	319.336	86.2403	319.336	86.3001	319.336	85.7715	319.336	85.7921	319.336	85.2492	319.336	85.2042	319.336	84.7075	319.336	84.5889	319.336	84.1993	319.336	84.0231	319.336	83.7914	319.336	83.588	319.336	83.5403	319.336	83.3433	319.336	83.4631	319.336	83.3089	319.336	83.528	319.336	83.4606	319.336	83.6786	319.336	83.7334	319.336	83.8645	319.336	84.0374	319.336	84.0552	319.336	84.2878	319.336	84.2325	319.336	84.4308	319.336	84.3758	319.336	84.4534
329.59	86.9306	329.59	86.9244	329.59	86.8577	329.59	86.8424	329.59	86.6995	329.59	86.6833	329.59	86.4494	329.59	86.442	329.59	86.1039	329.59	86.1116	329.59	85.6654	329.59	85.686	329.59	85.1448	329.59	85.1678	329.59	84.5651	329.59	84.5797	329.59	83.9675	329.59	83.9766	329.59	83.4139	329.59	83.4447	329.59	82.9792	329.59	83.073	329.59	82.7291	329.59	82.9089	329.59	82.6915	329.59	82.9393	329.59	82.8401	329.59	83.1105	329.59	83.1047	329.59	83.3542	329.59	83.3999	329.59	83.5989	329.59	83.6526	329.59	83.7814	329.59	83.8141	329.59	83.8588
341.309	87.401	341.309	87.3512	341.309	87.2969	341.309	87.1488	341.309	87.0457	341.309	86.8056	341.309	86.6608	341.309	86.3481	341.309	86.1641	341.309	85.8175	341.309	85.5868	341.309	85.2635	341.309	84.9698	341.309	84.7319	341.309	84.3634	341.309	84.2547	341.309	83.8304	341.309	83.8553	341.309	83.4421	341.309	83.5617	341.309	83.2542	341.309	83.404	341.309	83.2677	341.309	83.3889	341.309	83.4209	341.309	83.4828	341.309	83.6276	341.309	83.6302	341.309	83.8224	341.309	83.7852	341.309	83.9734	341.309	83.9231	341.309	84.071	341.309	84.0309	341.309	84.1123	341.309	84.0973
353.027	87.7595	353.027	87.7453	353.027	87.6291	353.027	87.5801	353.027	87.3603	353.027	87.2587	353.027	86.9573	353.027	86.7777	353.027	86.4201	353.027	86.1374	353.027	85.7436	353.027	85.3473	353.027	84.9247	353.027	84.4411	353.027	83.9806	353.027	83.5026	353.027	82.9803	353.027	82.689	353.027	82.0787	353.027	82.2016	353.027	81.5122	353.027	82.166	353.027	81.4777	353.027	82.5326	353.027	81.9538	353.027	83.1338	353.027	82.7144	353.027	83.7998	353.027	83.5166	353.027	84.4055	353.027	84.2117	353.027	84.8681	353.027	84.7363	353.027	85.1412	353.027	85.0709	353.027	85.2082
366.211	88.0511	366.211	87.9926	366.211	87.9973	366.211	87.8197	366.211	87.8254	366.211	87.5258	366.211	87.5216	366.211	87.1046	366.211	87.068	366.211	86.5556	366.211	86.4524	366.211	85.8888	366.211	85.6781	366.211	85.1221	366.211	84.7691	366.211	84.2759	366.211	83.7722	366.211	83.3862	366.211	82.7648	366.211	82.558	366.211	81.878	366.211	82.0187	366.211	81.3038	366.211	81.9985	366.211	81.2096	366.211	82.4505	366.211	81.5855	366.211	83.0759	366.211	82.236	366.211	83.6198	366.211	82.9335	366.211	83.9822	366.211	83.5233	366.211	84.1533	366.211	83.9313	366.211	84.1387
379.395	88.2759	379.395	88.2506	379.395	88.2057	379.395	88.133	379.395	88.0313	379.395	87.9182	379.395	87.7415	379.395	87.5917	379.395	87.3255	379.395	87.1315	379.395	86.7756	379.395	86.5182	379.395	86.0929	379.395	85.7536	379.395	85.2969	379.395	84.8854	379.395	84.4367	379.395	84.0178	379.395	83.5964	379.395	83.2832	379.395	82.8836	379.395	82.7788	379.395	82.3987	379.395	82.5433	379.395	82.2059	379.395	82.5912	379.395	82.3168	379.395	82.9026	379.395	82.6781	379.395	83.3711	379.395	83.1749	379.395	83.8286	379.395	83.6677	379.395	84.1309	379.395	84.0369	379.395	84.2037
392.578	88.238	392.578	88.215	392.578	88.1512	392.578	88.0795	392.578	87.9533	392.578	87.8223	392.578	87.639	392.578	87.4293	392.578	87.1976	392.578	86.8869	392.578	86.6114	392.578	86.1901	392.578	85.8609	392.578	85.3495	392.578	84.94	392.578	84.4059	392.578	83.8832	392.578	83.4625	392.578	82.8026	392.578	82.7164	392.578	81.9111	392.578	82.3955	392.578	81.4643	392.578	82.5651	392.578	81.5856	392.578	83.0574	392.578	82.156	392.578	83.6492	392.578	82.9303	392.578	84.1978	392.578	83.6969	392.578	84.6286	392.578	84.3257	392.578	84.8894	392.578	84.7489	392.578	84.9373
405.762	87.8202	405.762	87.7624	405.762	87.8001	405.762	87.6206	405.762	87.6917	405.762	87.3754	405.762	87.4707	405.762	87.0019	405.762	87.107	405.762	86.4768	405.762	86.5714	405.762	85.7812	405.762	85.8416	405.762	84.9048	405.762	84.909	405.762	83.8633	405.762	83.7934	405.762	82.7458	405.762	82.5789	405.762	81.7883	405.762	81.4751	405.762	81.3566	405.762	80.8299	405.762	81.637	405.762	80.9006	405.762	82.3829	405.762	81.5525	405.762	83.2026	405.762	82.417	405.762	83.8621	405.762	83.2188	405.762	84.2887	405.762	83.8408	405.762	84.4849	405.762	84.2567	405.762	84.4706
420.41	88.4395	420.41	88.3528	420.41	88.3995	420.41	88.14	420.41	88.2345	420.41	87.8051	420.41	87.9437	420.41	87.3499	420.41	87.5216	420.41	86.7656	420.41	86.9573	420.41	86.0304	420.41	86.2326	420.41	85.1174	420.41	85.3172	420.41	84.0029	420.41	84.1694	420.41	82.6747	420.41	82.7566	420.41	81.1777	420.41	81.1283	420.41	79.8037	420.41	79.6019	420.41	79.2954	420.41	78.8994	420.41	80.0744	420.41	79.44	420.41	81.4229	420.41	80.6418	420.41	82.5915	420.41	81.8325	420.41	83.34	420.41	82.7527	420.41	83.6785	420.41	83.3617	420.41	83.6715
435.059	88.0152	435.059	87.9857	435.059	87.932	435.059	87.8396	435.059	87.7515	435.059	87.5831	435.059	87.4913	435.059	87.2243	435.059	87.158	435.059	86.7647	435.059	86.7392	435.059	86.1943	435.059	86.208	435.059	85.4914	435.059	85.5377	435.059	84.6372	435.059	84.7163	435.059	83.6511	435.059	83.7572	435.059	82.6346	435.059	82.7139	435.059	81.7797	435.059	81.7139	435.059	81.2957	435.059	81.0007	435.059	81.2962	435.059	80.859	435.059	81.7366	435.059	81.3375	435.059	82.423	435.059	82.1501	435.059	83.1019	435.059	82.9456	435.059	83.5702	435.059	83.5006	435.059	83.716
451.172	87.7111	451.172	87.6567	451.172	87.6632	451.172	87.5083	451.172	87.5056	451.172	87.2607	451.172	87.2388	451.172	86.8927	451.172	86.8625	451.172	86.3758	451.172	86.3586	451.172	85.6782	451.172	85.686	451.172	84.758	451.172	84.7969	451.172	83.5601	451.172	83.6572	451.172	82.0586	451.172	82.2565	451.172	80.3982	451.172	80.6298	451.172	79.1313	451.172	78.9907	451.172	79.0033	451.172	78.0307	451.172	79.9299	451.172	78.5277	451.172	81.1979	451.172	80.0182	451.172	82.3545	451.172	81.5554	451.172	83.2184	451.172	82.7317	451.172	83.7106	451.172	83.4761	451.172	83.7991
465.82	87.9375	465.82	87.8931	465.82	87.9422	465.82	87.7952	465.82	87.8842	465.82	87.6029	465.82	87.724	465.82	87.2751	465.82	87.434	465.82	86.7873	465.82	87.0073	465.82	86.1295	465.82	86.4379	465.82	85.2991	465.82	85.6954	465.82	84.2946	465.82	84.7308	465.82	83.1061	465.82	83.5191	465.82	81.7193	465.82	82.1164	465.82	80.2121	465.82	80.695	465.82	79.0245	465.82	79.5315	465.82	78.9281	465.82	78.9618	465.82	79.887	465.82	79.2039	465.82	81.0268	465.82	80.0421	465.82	81.8195	465.82	80.988	465.82	82.1682	465.82	81.7155	465.82	82.1186
483.398	88.4284	483.398	88.3835	483.398	88.3941	483.398	88.2644	483.398	88.2748	483.398	88.0739	483.398	88.0617	483.398	87.8045	483.398	87.7464	483.398	87.4337	483.398	87.3286	483.398	86.9221	483.398	86.8112	483.398	86.2127	483.398	86.182	483.398	85.2298	483.398	85.4001	483.398	83.8931	483.398	84.409	483.398	82.1702	483.398	83.189	483.398	80.2279	483.398	81.8593	483.398	78.7681	483.398	80.7981	483.398	78.8305	483.398	80.5159	483.398	80.1573	483.398	81.0777	483.398	81.6576	483.398	82.0167	483.398	82.8057	483.398	82.8937	483.398	83.4867	483.398	83.4885	483.398	83.7035
499.512	89.4013	499.512	89.4137	499.512	89.2604	499.512	89.2966	499.512	89.0292	499.512	89.0809	499.512	88.7537	499.512	88.7968	499.512	88.4475	499.512	88.4422	499.512	88.0749	499.512	87.9807	499.512	87.5724	499.512	87.3643	499.512	86.8833	499.512	86.5559	499.512	85.9781	499.512	85.5346	499.512	84.861	499.512	84.2982	499.512	83.5881	499.512	82.9087	499.512	82.3215	499.512	81.6492	499.512	81.3963	499.512	81.1396	499.512	81.1963	499.512	81.7202	499.512	81.7553	499.512	82.8463	499.512	82.7002	499.512	83.8643	499.512	83.6358	499.512	84.4828	499.512	84.3223	499.512	84.6289
517.09	89.6438	517.09	89.7011	517.09	89.5014	517.09	89.6586	517.09	89.2798	517.09	89.4904	517.09	88.9863	517.09	89.1727	517.09	88.6321	517.09	88.6963	517.09	88.216	517.09	88.061	517.09	87.7036	517.09	87.2479	517.09	87.0273	517.09	86.2051	517.09	86.1103	517.09	84.8676	517.09	84.8884	517.09	83.2186	517.09	83.341	517.09	81.4309	517.09	81.6255	517.09	80.133	517.09	80.4269	517.09	80.2107	517.09	80.7024	517.09	81.504	517.09	82.0728	517.09	83.0462	517.09	83.4854	517.09	84.2663	517.09	84.5078	517.09	85.0036	517.09	85.0936	517.09	85.2642
536.133	88.6413	536.133	88.5421	536.133	88.6515	536.133	88.3933	536.133	88.5247	536.133	88.2135	536.133	88.2359	536.133	88.004	536.133	87.8127	536.133	87.7485	536.133	87.3176	536.133	87.4045	536.133	86.7744	536.133	86.8994	536.133	86.1261	536.133	86.1457	536.133	85.2845	536.133	85.0658	536.133	84.1852	536.133	83.6072	536.133	82.7805	536.133	81.7847	536.133	81.0616	536.133	79.9105	536.133	79.2821	536.133	78.9834	536.133	78.2962	536.133	79.6998	536.133	78.8778	536.133	81.1735	536.133	80.4535	536.133	82.5295	536.133	82.077	536.133	83.4268	536.133	83.2289	536.133	83.6906
555.176	88.9205	555.176	88.8956	555.176	88.8669	555.176	88.7915	555.176	88.7334	555.176	88.607	555.176	88.5062	555.176	88.3267	555.176	88.1527	555.176	87.9136	555.176	87.6376	555.176	87.3329	555.176	86.9519	555.176	86.575	555.176	86.1125	555.176	85.6184	555.176	85.1043	555.176	84.3642	555.176	83.846	555.176	82.6606	555.176	82.2584	555.176	80.4649	555.176	80.3504	555.176	78.2594	555.176	78.2956	555.176	77.6916	555.176	76.9475	555.176	79.3337	555.176	77.8285	555.176	81.3012	555.176	80.0013	555.176	82.61	555.176	81.7835	555.176	83.208	555.176	82.8221	555.176	83.2575
574.219	89.0227	574.219	89.0662	574.219	88.8738	574.219	88.974	574.219	88.6646	574.219	88.7469	574.219	88.42	574.219	88.4162	574.219	88.1267	574.219	88.031	574.219	87.7567	574.219	87.6141	574.219	87.2907	574.219	87.1133	574.219	86.7027	574.219	86.4155	574.219	85.9309	574.219	85.4088	574.219	84.8686	574.219	84.0138	574.219	83.38	574.219	82.1907	574.219	81.3884	574.219	80.0884	574.219	79.2444	574.219	78.5362	574.219	78.2245	574.219	78.806	574.219	78.9391	574.219	80.404	574.219	80.2929	574.219	82.0015	574.219	81.623	574.219	82.9967	574.219	82.6853	574.219	83.2124
594.727	89.0688	594.727	89.0282	594.727	88.9717	594.727	88.8857	594.727	88.7333	594.727	88.6922	594.727	88.3832	594.727	88.4825	594.727	87.9628	594.727	88.2425	594.727	87.4975	594.727	87.8916	594.727	86.984	594.727	87.3131	594.727	86.3862	594.727	86.446	594.727	85.6295	594.727	85.3365	594.727	84.5902	594.727	84.0319	594.727	83.0957	594.727	82.434	594.727	81.0034	594.727	80.4811	594.727	78.604	594.727	78.9522	594.727	77.4316	594.727	79.377	594.727	78.4905	594.727	80.9163	594.727	80.2491	594.727	82.1437	594.727	81.7093	594.727	82.8185	594.727	82.6392	594.727	82.9944
615.234	88.6148	615.234	88.5988	615.234	88.5272	615.234	88.5238	615.234	88.3124	615.234	88.3897	615.234	88.0221	615.234	88.1569	615.234	87.7351	615.234	87.8035	615.234	87.453	615.234	87.364	615.234	87.0822	615.234	86.8786	615.234	86.5237	615.234	86.2748	615.234	85.7331	615.234	85.3415	615.234	84.6904	615.234	83.8461	615.234	83.3584	615.234	81.6545	615.234	81.6835	615.234	78.9265	615.234	79.6095	615.234	76.9719	615.234	77.3308	615.234	77.7339	615.234	76.4653	615.234	79.7717	615.234	78.3358	615.234	81.4228	615.234	80.5674	615.234	82.3225	615.234	81.9373	615.234	82.4833
637.207	88.6483	637.207	88.6384	637.207	88.5585	637.207	88.5205	637.207	88.405	637.207	88.3409	637.207	88.1833	637.207	88.1254	637.207	87.8679	637.207	87.8439	637.207	87.4661	637.207	87.4581	637.207	87.0086	637.207	86.9285	637.207	86.5128	637.207	86.1941	637.207	85.9395	637.207	85.206	637.207	85.1322	637.207	83.896	637.207	83.8276	637.207	82.0715	637.207	81.7664	637.207	79.6631	637.207	78.9135	637.207	77.8233	637.207	76.4541	637.207	78.4818	637.207	77.1665	637.207	80.4616	637.207	79.653	637.207	82.2619	637.207	81.8107	637.207	83.4242	637.207	83.2213	637.207	83.769
659.18	89.0921	659.18	89.0676	659.18	88.9618	659.18	88.8749	659.18	88.6875	659.18	88.4985	659.18	88.3038	659.18	87.9895	659.18	87.8547	659.18	87.4754	659.18	87.39	659.18	87.0324	659.18	86.9503	659.18	86.6057	659.18	86.4829	659.18	86.0443	659.18	85.8395	659.18	85.1382	659.18	84.8936	659.18	83.7308	659.18	83.5921	659.18	81.814	659.18	81.904	659.18	79.3355	659.18	79.7179	659.18	76.4534	659.18	77.0614	659.18	76.2529	659.18	76.0371	659.18	79.2011	659.18	78.4134	659.18	81.4931	659.18	80.8683	659.18	82.6258	659.18	82.3062	659.18	82.859
682.617	89.1947	682.617	89.141	682.617	89.0499	682.617	88.8592	682.617	88.7786	682.617	88.4335	682.617	88.4213	682.617	88.0144	682.617	87.9907	682.617	87.7004	682.617	87.5135	682.617	87.46	682.617	87.0473	682.617	87.1163	682.617	86.6202	682.617	86.4905	682.617	86.1407	682.617	85.5925	682.617	85.4241	682.617	84.4741	682.617	84.2882	682.617	82.907	682.617	82.5602	682.617	80.4227	682.617	80.0406	682.617	76.8356	682.617	76.9737	682.617	75.1781	682.617	76.1258	682.617	78.1052	682.617	78.4694	682.617	80.7613	682.617	80.7308	682.617	82.2002	682.617	82.1071	682.617	82.6093
707.52	89.1858	707.52	89.0698	707.52	89.1367	707.52	88.8528	707.52	88.9025	707.52	88.5565	707.52	88.4999	707.52	88.1129	707.52	87.9571	707.52	87.4829	707.52	87.366	707.52	86.8114	707.52	86.8629	707.52	86.332	707.52	86.4912	707.52	86.0068	707.52	86.1373	707.52	85.4613	707.52	85.5535	707.52	84.3581	707.52	84.4326	707.52	82.659	707.52	82.5443	707.52	80.474	707.52	79.7147	707.52	77.7635	707.52	76.1523	707.52	76.0568	707.52	75.3987	707.52	78.1301	707.52	78.3178	707.52	80.6518	707.52	80.7717	707.52	82.144	707.52	82.1978	707.52	82.6531
732.422	89.0884	732.422	89.0657	732.422	88.9241	732.422	88.8146	732.422	88.5381	732.422	88.2793	732.422	87.9747	732.422	87.5701	732.422	87.3809	732.422	86.9269	732.422	86.8212	732.422	86.4748	732.422	86.2839	732.422	86.1294	732.422	85.8034	732.422	85.7309	732.422	85.3531	732.422	85.1455	732.422	84.7672	732.422	84.2075	732.422	83.8192	732.422	82.5716	732.422	82.3163	732.422	79.7516	732.422	80.1533	732.422	75.8782	732.422	77.1112	732.422	74.736	732.422	73.8549	732.422	77.6408	732.422	75.4374	732.422	80.3424	732.422	78.6733	732.422	81.7666	732.422	80.7551	732.422	81.8317
757.324	89.3226	757.324	89.1497	757.324	89.1192	757.324	88.6876	757.324	88.6294	757.324	88.1465	757.324	87.9436	757.324	87.5821	757.324	87.167	757.324	86.9301	757.324	86.5714	757.324	86.2959	757.324	86.2851	757.324	85.7946	757.324	86.0154	757.324	85.3356	757.324	85.5069	757.324	84.8192	757.324	84.8268	757.324	84.0906	757.324	83.9953	757.324	82.9381	757.324	82.6012	757.324	81.0816	757.324	79.9359	757.324	77.6913	757.324	75.4676	757.324	73.6293	757.324	71.8005	757.324	76.556	757.324	74.7024	757.324	79.5676	757.324	78.2954	757.324	80.8408	757.324	80.4193	757.324	81.1329
785.156	88.8218	785.156	88.9996	785.156	88.5529	785.156	88.9444	785.156	88.2148	785.156	88.4775	785.156	87.7515	785.156	87.6611	785.156	87.0837	785.156	86.8461	785.156	86.3078	785.156	86.208	785.156	85.7678	785.156	85.6964	785.156	85.5407	785.156	85.413	785.156	85.3126	785.156	85.1523	785.156	84.8793	785.156	84.4134	785.156	84.107	785.156	83.0182	785.156	82.9858	785.156	80.8607	785.156	81.5804	785.156	77.5786	785.156	78.9676	785.156	74.5607	785.156	73.1709	785.156	76.8195	785.156	72.6881	785.156	79.3257	785.156	77.9775	785.156	80.4477	785.156	80.1824	785.156	80.7501
811.523	89.4224	811.523	89.1031	811.523	89.3016	811.523	88.4675	811.523	88.748	811.523	87.6765	811.523	87.9244	811.523	86.8165	811.523	86.9802	811.523	85.8369	811.523	85.9618	811.523	84.8037	811.523	84.9893	811.523	84.0306	811.523	84.2495	811.523	83.6776	811.523	83.8801	811.523	83.5136	811.523	83.8003	811.523	83.0985	811.523	83.5431	811.523	82.185	811.523	82.6582	811.523	80.5525	811.523	80.912	811.523	77.6715	811.523	77.9434	811.523	73.4117	811.523	72.8653	811.523	72.1217	811.523	69.2062	811.523	75.9562	811.523	74.6643	811.523	78.3046	811.523	78.0378	811.523	79.0002
840.82	88.8297	840.82	88.7972	840.82	88.6962	840.82	88.5631	840.82	88.3533	840.82	87.9949	840.82	87.7564	840.82	87.0629	840.82	86.9559	840.82	85.9727	840.82	86.1686	840.82	85.0778	840.82	85.5245	840.82	84.7025	840.82	85.0019	840.82	84.6553	840.82	84.6172	840.82	84.4774	840.82	84.2258	840.82	84.1271	840.82	83.6779	840.82	83.3638	840.82	82.7822	840.82	81.5011	840.82	80.9941	840.82	77.8139	840.82	78.1485	840.82	73.0092	840.82	75.1373	840.82	74.4472	840.82	74.2218	840.82	77.579	840.82	76.9004	840.82	79.5507	840.82	79.4767	840.82	80.3216
870.117	89.4306	870.117	89.2517	870.117	89.2098	870.117	88.6626	870.117	88.6205	870.117	87.7178	870.117	87.6941	870.117	86.6217	870.117	86.5334	870.117	85.7028	870.117	85.3902	870.117	84.9363	870.117	84.5089	870.117	84.1549	870.117	83.9323	870.117	83.8369	870.117	83.7989	870.117	83.7332	870.117	83.9709	870.117	82.9673	870.117	83.8375	870.117	81.7233	870.117	83.1261	870.117	80.1698	870.117	81.6527	870.117	77.1561	870.117	79.2158	870.117	73.0475	870.117	75.9781	870.117	72.9774	870.117	73.3613	870.117	75.8053	870.117	75.0434	870.117	78.6546	870.117	78.1665	870.117	79.6288
900.879	89.6091	900.879	89.6283	900.879	89.3832	900.879	89.4185	900.879	88.9164	900.879	88.8265	900.879	88.1521	900.879	87.7148	900.879	87.0118	900.879	86.1726	900.879	85.6615	900.879	84.7684	900.879	84.479	900.879	83.8423	900.879	83.7119	900.879	83.157	900.879	83.374	900.879	83.69	900.879	83.4226	900.879	84.4813	900.879	83.2395	900.879	83.4091	900.879	82.0352	900.879	80.5418	900.879	80.1944	900.879	77.6019	900.879	77.9707	900.879	74.1128	900.879	75.231	900.879	75.5241	900.879	74.8893	900.879	79.8445	900.879	77.8055	900.879	81.3464	900.879	80.5321	900.879	81.4428
933.105	90.285	933.105	90.1298	933.105	90.1674	933.105	89.8094	933.105	89.6967	933.105	89.2501	933.105	88.9307	933.105	88.3495	933.105	87.9036	933.105	87.1739	933.105	86.6087	933.105	85.9017	933.105	85.1372	933.105	84.7808	933.105	83.9727	933.105	84.0264	933.105	83.6031	933.105	83.3852	933.105	83.55	933.105	82.9179	933.105	83.5584	933.105	82.4851	933.105	83.5617	933.105	81.2683	933.105	82.7106	933.105	78.1991	933.105	80.388	933.105	70.7153	933.105	76.4414	933.105	65.7401	933.105	72.8293	933.105	74.5178	933.105	73.7439	933.105	78.6123	933.105	76.5488	933.105	78.9941
965.332	91.9057	965.332	91.6671	965.332	91.7204	965.332	91.3184	965.332	91.0366	965.332	90.9017	965.332	90.1311	965.332	90.1202	965.332	89.0858	965.332	88.8986	965.332	87.6331	965.332	87.3873	965.332	86.1292	965.332	86.0324	965.332	84.8392	965.332	85.4121	965.332	83.7602	965.332	85.4033	965.332	84.2058	965.332	85.2198	965.332	84.5621	965.332	84.0826	965.332	83.5696	965.332	82.1693	965.332	82.6382	965.332	79.7612	965.332	80.5206	965.332	76.2647	965.332	74.7432	965.332	71.8937	965.332	73.7822	965.332	76.191	965.332	78.4834	965.332	80.1119	965.332	80.3964	965.332	80.9454
1,000.49	92.0122	1,000.49	91.9361	1,000.49	91.6755	1,000.49	91.4404	1,000.49	91.1191	1,000.49	90.6693	1,000.49	90.3603	1,000.49	89.6108	1,000.49	89.2211	1,000.49	88.2504	1,000.49	87.5931	1,000.49	86.7243	1,000.49	85.6043	1,000.49	85.2567	1,000.49	83.7959	1,000.49	84.4964	1,000.49	82.5846	1,000.49	84.8899	1,000.49	82.8815	1,000.49	85.7461	1,000.49	84.7429	1,000.49	85.6577	1,000.49	85.3215	1,000.49	84.3137	1,000.49	83.845	1,000.49	81.7514	1,000.49	81.3692	1,000.49	76.5004	1,000.49	77.2258	1,000.49	69.9978	1,000.49	71.8162	1,000.49	75.7684	1,000.49	77.1549	1,000.49	79.8713	1,000.49	81.3151	1,000.49	82.0373
1,035.64	91.5895	1,035.64	91.5212	1,035.64	91.3636	1,035.64	91.2267	1,035.64	90.8011	1,035.64	90.7378	1,035.64	89.9568	1,035.64	89.8425	1,035.64	88.8663	1,035.64	88.473	1,035.64	87.4528	1,035.64	86.769	1,035.64	85.8736	1,035.64	84.8682	1,035.64	84.2332	1,035.64	83.5898	1,035.64	82.4643	1,035.64	83.0337	1,035.64	81.7247	1,035.64	82.8778	1,035.64	82.1295	1,035.64	83.1904	1,035.64	82.3982	1,035.64	83.0894	1,035.64	82.1365	1,035.64	82.0757	1,035.64	80.4208	1,035.64	79.241	1,035.64	75.675	1,035.64	73.6496	1,035.64	62.3843	1,035.64	73.8429	1,035.64	73.3739	1,035.64	77.8929	1,035.64	77.9515	1,035.64	79.2892
1,072.27	91.8863	1,072.27	91.8059	1,072.27	91.8468	1,072.27	91.4808	1,072.27	91.5409	1,072.27	90.7985	1,072.27	90.7775	1,072.27	89.7324	1,072.27	89.761	1,072.27	88.308	1,072.27	88.4902	1,072.27	86.4806	1,072.27	86.66	1,072.27	84.5837	1,072.27	85.0384	1,072.27	83.0891	1,072.27	83.8754	1,072.27	82.5689	1,072.27	82.7811	1,072.27	83.5527	1,072.27	83.2346	1,072.27	84.0942	1,072.27	84.0079	1,072.27	83.3553	1,072.27	83.9797	1,072.27	81.1756	1,072.27	82.7849	1,072.27	77.9342	1,072.27	79.7363	1,072.27	76.7275	1,072.27	75.3849	1,072.27	78.6566	1,072.27	75.1396	1,072.27	80.8893	1,072.27	78.591	1,072.27	80.8453
1,108.89	91.646	1,108.89	91.3954	1,108.89	91.5025	1,108.89	90.8931	1,108.89	91.0503	1,108.89	90.3402	1,108.89	90.2909	1,108.89	89.4941	1,108.89	89.1055	1,108.89	88.114	1,108.89	87.4916	1,108.89	86.3895	1,108.89	85.5738	1,108.89	84.0674	1,108.89	83.4636	1,108.89	81.5581	1,108.89	81.5582	1,108.89	80.4836	1,108.89	80.2014	1,108.89	81.2907	1,108.89	79.3756	1,108.89	82.0252	1,108.89	78.9459	1,108.89	81.3356	1,108.89	78.316	1,108.89	79.6854	1,108.89	77.033	1,108.89	76.4233	1,108.89	73.1939	1,108.89	70.8153	1,108.89	66.7392	1,108.89	75.5976	1,108.89	73.3945	1,108.89	78.3102	1,108.89	78.6146	1,108.89	79.9864
1,148.44	92.2253	1,148.44	91.8981	1,148.44	92.1167	1,148.44	91.3183	1,148.44	91.4848	1,148.44	90.6558	1,148.44	90.4435	1,148.44	89.5516	1,148.44	89.3758	1,148.44	87.977	1,148.44	88.2992	1,148.44	86.0635	1,148.44	86.8562	1,148.44	83.7965	1,148.44	85.4954	1,148.44	81.8028	1,148.44	83.6464	1,148.44	79.7818	1,148.44	81.2958	1,148.44	80.6304	1,148.44	81.4838	1,148.44	81.6896	1,148.44	82.5302	1,148.44	81.6925	1,148.44	82.5314	1,148.44	80.453	1,148.44	81.8839	1,148.44	75.1446	1,148.44	79.6997	1,148.44	69.6252	1,148.44	73.3083	1,148.44	76.009	1,148.44	71.6087	1,148.44	78.5	1,148.44	77.7319	1,148.44	79.2861
1,189.45	92.3865	1,189.45	92.0687	1,189.45	92.5985	1,189.45	91.6901	1,189.45	92.2529	1,189.45	91.092	1,189.45	91.3736	1,189.45	90.3263	1,189.45	90.2496	1,189.45	88.9018	1,189.45	89.295	1,189.45	87.2144	1,189.45	87.8746	1,189.45	85.1211	1,189.45	86.0032	1,189.45	82.4276	1,189.45	85.3038	1,189.45	80.6809	1,189.45	84.4095	1,189.45	80.9308	1,189.45	82.7277	1,189.45	81.9493	1,189.45	81.0381	1,189.45	81.8225	1,189.45	79.9396	1,189.45	80.147	1,189.45	78.8903	1,189.45	75.3436	1,189.45	74.637	1,189.45	71.024	1,189.45	59.6074	1,189.45	75.4425	1,189.45	65.7254	1,189.45	78.8378	1,189.45	75.1779	1,189.45	79.4
1,230.47	92.8803	1,230.47	92.7671	1,230.47	92.6274	1,230.47	92.3325	1,230.47	92.1229	1,230.47	91.5126	1,230.47	91.2481	1,230.47	90.6299	1,230.47	90.0857	1,230.47	89.9185	1,230.47	88.9912	1,230.47	88.7634	1,230.47	87.8345	1,230.47	86.9627	1,230.47	86.5573	1,230.47	84.542	1,230.47	84.6134	1,230.47	82.5055	1,230.47	83.2059	1,230.47	80.8263	1,230.47	83.7598	1,230.47	81.181	1,230.47	83.2471	1,230.47	81.5436	1,230.47	82.9788	1,230.47	80.5386	1,230.47	81.6978	1,230.47	75.2226	1,230.47	79.2417	1,230.47	71.8305	1,230.47	71.2669	1,230.47	76.6866	1,230.47	70.2875	1,230.47	80.6755	1,230.47	75.9187	1,230.47	79.5649
1,274.41	92.5985	1,274.41	92.8733	1,274.41	92.2084	1,274.41	92.631	1,274.41	91.5603	1,274.41	91.7887	1,274.41	90.9326	1,274.41	90.9654	1,274.41	90.4477	1,274.41	89.7396	1,274.41	89.5105	1,274.41	88.0168	1,274.41	88.3567	1,274.41	86.5677	1,274.41	86.4438	1,274.41	85.0945	1,274.41	85.0323	1,274.41	83.5318	1,274.41	84.0255	1,274.41	81.6758	1,274.41	83.1977	1,274.41	81.0768	1,274.41	83.1904	1,274.41	81.205	1,274.41	84.2656	1,274.41	79.7094	1,274.41	83.7292	1,274.41	76.8814	1,274.41	79.8563	1,274.41	72.1872	1,274.41	74.3466	1,274.41	76.2924	1,274.41	73.6022	1,274.41	80.4149	1,274.41	76.0824	1,274.41	80.2336
1,319.82	92.5317	1,319.82	92.5897	1,319.82	92.0059	1,319.82	92.2227	1,319.82	91.3668	1,319.82	91.5326	1,319.82	90.7314	1,319.82	90.8811	1,319.82	89.8226	1,319.82	89.9343	1,319.82	88.8938	1,319.82	88.5154	1,319.82	87.7104	1,319.82	87.3907	1,319.82	85.5696	1,319.82	85.5991	1,319.82	83.9098	1,319.82	83.2796	1,319.82	82.0502	1,319.82	80.4944	1,319.82	82.3716	1,319.82	81.0813	1,319.82	83.084	1,319.82	80.7344	1,319.82	83.0383	1,319.82	80.1828	1,319.82	82.2805	1,319.82	77.253	1,319.82	79.7859	1,319.82	71.6617	1,319.82	73.5722	1,319.82	76.2416	1,319.82	71.965	1,319.82	80.7857	1,319.82	76.9472	1,319.82	80.1442
1,366.7	92.3793	1,366.7	92.5511	1,366.7	92.0629	1,366.7	92.1831	1,366.7	91.8102	1,366.7	91.4309	1,366.7	90.6874	1,366.7	90.6397	1,366.7	89.4751	1,366.7	89.7755	1,366.7	88.4388	1,366.7	88.4663	1,366.7	87.075	1,366.7	86.7694	1,366.7	85.8761	1,366.7	84.0705	1,366.7	84.5603	1,366.7	81.1098	1,366.7	82.0842	1,366.7	79.1948	1,366.7	80.8547	1,366.7	80.6423	1,366.7	80.3232	1,366.7	81.4664	1,366.7	81.2813	1,366.7	79.5064	1,366.7	80.6123	1,366.7	73.1617	1,366.7	77.6738	1,366.7	67.6731	1,366.7	69.0199	1,366.7	75.5517	1,366.7	64.9453	1,366.7	80.0614	1,366.7	73.4906	1,366.7	78.7489
1,413.57	92.8314	1,413.57	92.7569	1,413.57	92.4226	1,413.57	92.0323	1,413.57	92.1388	1,413.57	91.4158	1,413.57	91.5313	1,413.57	90.3192	1,413.57	89.989	1,413.57	88.7272	1,413.57	88.7162	1,413.57	87.5099	1,413.57	87.91	1,413.57	86.0876	1,413.57	86.1462	1,413.57	83.5813	1,413.57	84.969	1,413.57	80.4378	1,413.57	83.6999	1,413.57	79.1	1,413.57	81.0171	1,413.57	79.4865	1,413.57	79.7599	1,413.57	80.1782	1,413.57	80.0208	1,413.57	79.025	1,413.57	80.0989	1,413.57	75.286	1,413.57	79.5602	1,413.57	65.8529	1,413.57	75.3691	1,413.57	73.1814	1,413.57	68.782	1,413.57	77.8143	1,413.57	74.5798	1,413.57	77.2149
1,463.38	92.9769	1,463.38	92.5354	1,463.38	92.6443	1,463.38	91.7482	1,463.38	92.2432	1,463.38	91.5204	1,463.38	91.4994	1,463.38	90.3518	1,463.38	90.6481	1,463.38	88.4456	1,463.38	89.5975	1,463.38	87.2797	1,463.38	87.9819	1,463.38	85.4915	1,463.38	86.1671	1,463.38	83.9455	1,463.38	83.8126	1,463.38	80.7952	1,463.38	82.7489	1,463.38	78.853	1,463.38	81.5079	1,463.38	80.5277	1,463.38	79.2419	1,463.38	81.1597	1,463.38	79.0499	1,463.38	81.2087	1,463.38	79.9558	1,463.38	78.023	1,463.38	80.7653	1,463.38	64.8454	1,463.38	77.8425	1,463.38	74.4174	1,463.38	68.771	1,463.38	78.5584	1,463.38	74.521	1,463.38	77.5963
1,516.11	93.5154	1,516.11	93.5186	1,516.11	93.5266	1,516.11	93.0968	1,516.11	93.1521	1,516.11	92.2356	1,516.11	92.2847	1,516.11	90.9184	1,516.11	91.705	1,516.11	89.1995	1,516.11	90.2866	1,516.11	87.7638	1,516.11	89.2624	1,516.11	86.5432	1,516.11	87.2019	1,516.11	84.784	1,516.11	84.4925	1,516.11	81.8516	1,516.11	81.8372	1,516.11	79.6529	1,516.11	82.1755	1,516.11	78.3754	1,516.11	82.1034	1,516.11	81.1729	1,516.11	81.8641	1,516.11	80.5538	1,516.11	81.135	1,516.11	78	1,516.11	80.8657	1,516.11	68.1651	1,516.11	77.3387	1,516.11	75.2104	1,516.11	73.602	1,516.11	78.4976	1,516.11	77.2554	1,516.11	78.0694
1,568.85	93.8765	1,568.85	93.7499	1,568.85	93.6795	1,568.85	93.2172	1,568.85	93.0871	1,568.85	91.9786	1,568.85	92.5297	1,568.85	90.8934	1,568.85	91.2282	1,568.85	89.3253	1,568.85	89.8935	1,568.85	87.9618	1,568.85	89.005	1,568.85	85.7445	1,568.85	87.6293	1,568.85	84.5416	1,568.85	85.7657	1,568.85	83.7478	1,568.85	83.126	1,568.85	79.9534	1,568.85	82.6737	1,568.85	78.1424	1,568.85	81.5684	1,568.85	80.2781	1,568.85	80.4754	1,568.85	81.0246	1,568.85	80.883	1,568.85	77.7315	1,568.85	80.5181	1,568.85	71.6343	1,568.85	78.2331	1,568.85	77.2268	1,568.85	72.2677	1,568.85	81.7695	1,568.85	78.3832	1,568.85	80.4157
1,624.51	93.5653	1,624.51	93.4409	1,624.51	92.6591	1,624.51	92.5504	1,624.51	92.3769	1,624.51	91.1418	1,624.51	91.813	1,624.51	89.2782	1,624.51	91.1396	1,624.51	87.5805	1,624.51	89.8783	1,624.51	86.2282	1,624.51	88.7009	1,624.51	85.374	1,624.51	87.8822	1,624.51	84.5896	1,624.51	84.6893	1,624.51	83.054	1,624.51	83.4309	1,624.51	80.4516	1,624.51	82.3599	1,624.51	74.2579	1,624.51	82.5762	1,624.51	78.9329	1,624.51	83.2814	1,624.51	80.8132	1,624.51	79.359	1,624.51	78.6342	1,624.51	79.0017	1,624.51	69.2855	1,624.51	79.2699	1,624.51	72.1083	1,624.51	73.9855	1,624.51	76.4072	1,624.51	76.4646	1,624.51	78.7498
1,681.64	93.0126	1,681.64	92.6948	1,681.64	92.1555	1,681.64	92.2593	1,681.64	92.3816	1,681.64	91.7066	1,681.64	91.0698	1,681.64	90.1854	1,681.64	90.4015	1,681.64	88.9803	1,681.64	90.2325	1,681.64	87.216	1,681.64	88.5267	1,681.64	85.3576	1,681.64	86.3427	1,681.64	82.2854	1,681.64	84.9108	1,681.64	83.1885	1,681.64	84.6441	1,681.64	81.1362	1,681.64	81.5832	1,681.64	75.7056	1,681.64	80.159	1,681.64	76.1865	1,681.64	78.2422	1,681.64	78.7894	1,681.64	82.5389	1,681.64	80.0796	1,681.64	80.9219	1,681.64	70.0278	1,681.64	80.9877	1,681.64	71.5711	1,681.64	68.6073	1,681.64	79.1373	1,681.64	67.0872	1,681.64	77.1136
1,741.7	93.6151	1,741.7	93.3736	1,741.7	93.6325	1,741.7	92.655	1,741.7	92.187	1,741.7	91.6867	1,741.7	92.1946	1,741.7	91.2685	1,741.7	91.8046	1,741.7	88.5155	1,741.7	89.8236	1,741.7	87.7475	1,741.7	88.0855	1,741.7	84.5525	1,741.7	87.4691	1,741.7	83.7423	1,741.7	86.1076	1,741.7	82.4991	1,741.7	84.7535	1,741.7	79.4325	1,741.7	82.8747	1,741.7	72.913	1,741.7	78.0182	1,741.7	76.5118	1,741.7	80.5549	1,741.7	80.784	1,741.7	81.9169	1,741.7	79.1031	1,741.7	82.9453	1,741.7	74.1692	1,741.7	84.3637	1,741.7	74.3403	1,741.7	76.6422	1,741.7	77.4442	1,741.7	62.4778	1,741.7	74.494
1,803.22	93.7321	1,803.22	94.2803	1,803.22	93.3736	1,803.22	93.1903	1,803.22	93.3986	1,803.22	91.691	1,803.22	93.3632	1,803.22	90.6792	1,803.22	91.0367	1,803.22	90.3849	1,803.22	90.2299	1,803.22	87.451	1,803.22	88.9424	1,803.22	86.3823	1,803.22	87.7111	1,803.22	84.6979	1,803.22	85.7965	1,803.22	83.3042	1,803.22	84.9569	1,803.22	81.435	1,803.22	83.5281	1,803.22	79.0485	1,803.22	83.9771	1,803.22	78.3914	1,803.22	79.923	1,803.22	71.8155	1,803.22	78.2367	1,803.22	76.1954	1,803.22	80.9166	1,803.22	68.4539	1,803.22	81.6404	1,803.22	75.4376	1,803.22	77.1621	1,803.22	77.6444	1,803.22	74.351	1,803.22	73.459
1,866.21	93.6529	1,866.21	93.7374	1,866.21	93.4182	1,866.21	93.1478	1,866.21	93.0705	1,866.21	92.2045	1,866.21	92.2728	1,866.21	90.7921	1,866.21	90.8637	1,866.21	89.1642	1,866.21	89.4514	1,866.21	87.3249	1,866.21	87.6836	1,866.21	85.6128	1,866.21	85.7464	1,866.21	84.2479	1,866.21	84.6133	1,866.21	82.2779	1,866.21	83.5423	1,866.21	80.4178	1,866.21	82.1361	1,866.21	77.5525	1,866.21	80.4112	1,866.21	74.8706	1,866.21	79.1712	1,866.21	78.3995	1,866.21	77.4513	1,866.21	78.3567	1,866.21	78.3155	1,866.21	76.208	1,866.21	78.1754	1,866.21	73.101	1,866.21	74.5107	1,866.21	76.8953	1,866.21	68.3653	1,866.21	75.3725
1,932.13	92.7665	1,932.13	92.294	1,932.13	92.4211	1,932.13	91.8381	1,932.13	91.9838	1,932.13	91.0667	1,932.13	91.0228	1,932.13	89.9793	1,932.13	89.6661	1,932.13	88.2095	1,932.13	88.1399	1,932.13	86.3067	1,932.13	86.2348	1,932.13	83.7271	1,932.13	84.8823	1,932.13	81.8727	1,932.13	82.9565	1,932.13	78.92	1,932.13	80.8691	1,932.13	78.2111	1,932.13	78.7028	1,932.13	76.3858	1,932.13	78.8045	1,932.13	75.5019	1,932.13	76.5082	1,932.13	74.5616	1,932.13	76.8605	1,932.13	74.2318	1,932.13	76.3436	1,932.13	68.1369	1,932.13	77.5021	1,932.13	72.215	1,932.13	74.8279	1,932.13	77.1735	1,932.13	70.4455	1,932.13	74.5992
1,999.51	91.8102	1,999.51	91.5203	1,999.51	91.7495	1,999.51	91.0369	1,999.51	91.3558	1,999.51	90.0811	1,999.51	90.6647	1,999.51	89.0428	1,999.51	89.4386	1,999.51	87.3195	1,999.51	87.7134	1,999.51	84.9637	1,999.51	85.7243	1,999.51	82.3892	1,999.51	84.3238	1,999.51	80.9008	1,999.51	82.3188	1,999.51	78.3427	1,999.51	81.5832	1,999.51	77.0558	1,999.51	79.6878	1,999.51	75.3895	1,999.51	77.9762	1,999.51	72.386	1,999.51	76.1918	1,999.51	75.515	1,999.51	76.081	1,999.51	75.2477	1,999.51	75.2966	1,999.51	70.1352	1,999.51	73.7333	1,999.51	71.3909	1,999.51	72.8761	1,999.51	75.2617	1,999.51	68.8225	1,999.51	72.0167
2,069.82	92.4564	2,069.82	92.3982	2,069.82	92.3808	2,069.82	91.9141	2,069.82	92.153	2,069.82	91.13	2,069.82	91.3939	2,069.82	89.8972	2,069.82	90.105	2,069.82	88.2621	2,069.82	88.5542	2,069.82	86.2682	2,069.82	86.7926	2,069.82	83.787	2,069.82	84.9318	2,069.82	81.3139	2,069.82	83.5241	2,069.82	79.536	2,069.82	80.5809	2,069.82	77.1103	2,069.82	79.1036	2,069.82	74.5639	2,069.82	79.1148	2,069.82	73.2905	2,069.82	79.1298	2,069.82	74.6219	2,069.82	76.3172	2,069.82	74.3733	2,069.82	75.8651	2,069.82	68.7959	2,069.82	77.4324	2,069.82	72.0981	2,069.82	73.8953	2,069.82	73.283	2,069.82	68.1919	2,069.82	73.5305
2,143.07	92.7399	2,143.07	92.6035	2,143.07	92.6758	2,143.07	92.1768	2,143.07	92.309	2,143.07	91.431	2,143.07	91.5506	2,143.07	90.2849	2,143.07	90.2273	2,143.07	88.8123	2,143.07	88.4899	2,143.07	86.9676	2,143.07	86.5757	2,143.07	84.5131	2,143.07	85.1682	2,143.07	82.3797	2,143.07	83.3085	2,143.07	79.6807	2,143.07	81.8076	2,143.07	78.4711	2,143.07	79.8436	2,143.07	76.4721	2,143.07	78.2866	2,143.07	74.3259	2,143.07	78.1984	2,143.07	74.9013	2,143.07	77.9199	2,143.07	76.7979	2,143.07	75.7155	2,143.07	72.595	2,143.07	76.1201	2,143.07	71.1677	2,143.07	75.5489	2,143.07	76.0332	2,143.07	70.1028	2,143.07	73.5037
2,219.24	92.2927	2,219.24	91.9499	2,219.24	92.2421	2,219.24	91.4926	2,219.24	91.7483	2,219.24	90.9073	2,219.24	91.0618	2,219.24	90.0063	2,219.24	89.826	2,219.24	88.4159	2,219.24	88.1953	2,219.24	86.2551	2,219.24	86.3836	2,219.24	84.936	2,219.24	84.2524	2,219.24	82.7402	2,219.24	83.3172	2,219.24	80.0544	2,219.24	82.2052	2,219.24	77.5449	2,219.24	80.4222	2,219.24	76.1361	2,219.24	78.0348	2,219.24	74.5994	2,219.24	80.0129	2,219.24	75.9703	2,219.24	78.2428	2,219.24	77.6105	2,219.24	76.0492	2,219.24	74.2571	2,219.24	76.3014	2,219.24	72.1391	2,219.24	77.0234	2,219.24	73.675	2,219.24	71.3819	2,219.24	70.9206
2,296.88	91.8419	2,296.88	91.8114	2,296.88	91.9234	2,296.88	91.5612	2,296.88	91.8821	2,296.88	91.0287	2,296.88	91.1391	2,296.88	89.8358	2,296.88	89.9387	2,296.88	88.5876	2,296.88	88.508	2,296.88	87.5172	2,296.88	86.9161	2,296.88	85.1165	2,296.88	84.8358	2,296.88	83.8626	2,296.88	84.05	2,296.88	81.422	2,296.88	82.5135	2,296.88	78.8865	2,296.88	80.6354	2,296.88	78.0026	2,296.88	79.4038	2,296.88	77.3176	2,296.88	79.6407	2,296.88	75.3661	2,296.88	78.9913	2,296.88	77.4042	2,296.88	76.2184	2,296.88	73.931	2,296.88	78.7544	2,296.88	73.177	2,296.88	78.78	2,296.88	76.5031	2,296.88	73.4685	2,296.88	74.3434
2,378.91	92.6072	2,378.91	92.5799	2,378.91	92.8688	2,378.91	92.7426	2,378.91	92.7871	2,378.91	92.3122	2,378.91	92.1339	2,378.91	91.7541	2,378.91	91.0307	2,378.91	90.4781	2,378.91	89.8325	2,378.91	89.0837	2,378.91	88.1228	2,378.91	87.2604	2,378.91	86.2335	2,378.91	85.7536	2,378.91	84.7311	2,378.91	82.6053	2,378.91	82.9557	2,378.91	80.4546	2,378.91	82.0022	2,378.91	79.9954	2,378.91	80.3867	2,378.91	79.0711	2,378.91	81.0067	2,378.91	77.2687	2,378.91	81.7564	2,378.91	78.9439	2,378.91	78.0763	2,378.91	77.5151	2,378.91	75.2707	2,378.91	76.6291	2,378.91	79.4298	2,378.91	78.7722	2,378.91	76.6957	2,378.91	74.7334
2,462.4	92.3819	2,462.4	92.8152	2,462.4	92.8315	2,462.4	92.3174	2,462.4	92.7845	2,462.4	92.3638	2,462.4	92.0159	2,462.4	91.4014	2,462.4	91.0409	2,462.4	91.0617	2,462.4	89.4924	2,462.4	90.4021	2,462.4	88.0144	2,462.4	88.5117	2,462.4	86.7041	2,462.4	86.532	2,462.4	84.3729	2,462.4	84.3134	2,462.4	84.3185	2,462.4	81.56	2,462.4	82.7403	2,462.4	80.2218	2,462.4	79.3517	2,462.4	79.8698	2,462.4	78.4079	2,462.4	80.0343	2,462.4	81.3945	2,462.4	79.9939	2,462.4	79.2408	2,462.4	78.3131	2,462.4	75.6939	2,462.4	77.9518	2,462.4	79.3244	2,462.4	78.7859	2,462.4	76.6771	2,462.4	73.9211
2,548.83	93.0493	2,548.83	92.4955	2,548.83	93.1827	2,548.83	92.345	2,548.83	93.5	2,548.83	92.7391	2,548.83	93.0485	2,548.83	92.1249	2,548.83	91.8268	2,548.83	91.1499	2,548.83	90.4526	2,548.83	89.6839	2,548.83	89.3492	2,548.83	88.0649	2,548.83	87.8807	2,548.83	85.5059	2,548.83	85.8135	2,548.83	85.5841	2,548.83	85.1763	2,548.83	80.5673	2,548.83	83.8845	2,548.83	79.8516	2,548.83	81.5344	2,548.83	80.3062	2,548.83	79.6874	2,548.83	79.3779	2,548.83	80.5212	2,548.83	80.5156	2,548.83	81.8566	2,548.83	78.5371	2,548.83	75.0358	2,548.83	77.5889	2,548.83	78.2042	2,548.83	80.4919	2,548.83	77.8593	2,548.83	75.8644
2,639.65	92.6932	2,639.65	91.3658	2,639.65	93.897	2,639.65	92.2574	2,639.65	93.9216	2,639.65	92.0897	2,639.65	93.5944	2,639.65	92.7517	2,639.65	92.218	2,639.65	92.4121	2,639.65	91.0862	2,639.65	90.0242	2,639.65	89.6412	2,639.65	88.988	2,639.65	88.2482	2,639.65	88.0859	2,639.65	86.8346	2,639.65	84.4542	2,639.65	86.7844	2,639.65	82.025	2,639.65	84.8316	2,639.65	81.9134	2,639.65	82.1939	2,639.65	80.8389	2,639.65	80.0571	2,639.65	80.2613	2,639.65	81.5562	2,639.65	81.8405	2,639.65	82.0056	2,639.65	77.5659	2,639.65	78.1045	2,639.65	77.0031	2,639.65	80.3176	2,639.65	77.0612	2,639.65	77.8482	2,639.65	75.0547
2,731.93	91.6438	2,731.93	89.9825	2,731.93	93.1897	2,731.93	90.914	2,731.93	93.2668	2,731.93	91.1431	2,731.93	92.8923	2,731.93	92.3202	2,731.93	91.5588	2,731.93	92.5034	2,731.93	90.6303	2,731.93	90.956	2,731.93	89.1774	2,731.93	89.2132	2,731.93	87.524	2,731.93	87.7512	2,731.93	86.5613	2,731.93	84.4038	2,731.93	85.1331	2,731.93	83.8266	2,731.93	82.6443	2,731.93	82.011	2,731.93	82.0696	2,731.93	81.2569	2,731.93	81.0799	2,731.93	79.9024	2,731.93	80.0336	2,731.93	82.4401	2,731.93	80.9339	2,731.93	79.2844	2,731.93	77.5731	2,731.93	77.8558	2,731.93	77.0556	2,731.93	80.8494	2,731.93	78.977	2,731.93	77.5847
2,828.61	92.0415	2,828.61	91.2251	2,828.61	92.9367	2,828.61	90.0875	2,828.61	93.9332	2,828.61	91.7768	2,828.61	92.9727	2,828.61	91.5538	2,828.61	92.3406	2,828.61	91.9742	2,828.61	90.9336	2,828.61	91.7716	2,828.61	90.0754	2,828.61	90.1611	2,828.61	88.8356	2,828.61	85.9049	2,828.61	86.743	2,828.61	85.7493	2,828.61	84.4756	2,828.61	83.2626	2,828.61	83.4136	2,828.61	80.317	2,828.61	82.6609	2,828.61	79.5145	2,828.61	81.2278	2,828.61	78.9148	2,828.61	80.0818	2,828.61	81.3966	2,828.61	81.5541	2,828.61	79.1969	2,828.61	79.1761	2,828.61	77.4168	2,828.61	77.0517	2,828.61	79.9132	2,828.61	79.173	2,828.61	74.0317
2,928.22	91.3874	2,928.22	89.5835	2,928.22	92.9638	2,928.22	89.3697	2,928.22	93.5589	2,928.22	91.0694	2,928.22	92.9071	2,928.22	91.8775	2,928.22	92.2839	2,928.22	91.6053	2,928.22	90.9896	2,928.22	91.4237	2,928.22	90.0305	2,928.22	89.6008	2,928.22	88.4819	2,928.22	86.9585	2,928.22	86.9847	2,928.22	86.2247	2,928.22	85.9322	2,928.22	83.9708	2,928.22	84.2384	2,928.22	79.8159	2,928.22	82.5323	2,928.22	80.9496	2,928.22	80.6792	2,928.22	78.8619	2,928.22	79.5399	2,928.22	79.7336	2,928.22	80.7726	2,928.22	80.3434	2,928.22	78.9981	2,928.22	77.7505	2,928.22	76.817	2,928.22	82.2131	2,928.22	77.5925	2,928.22	75.1026
3,030.76	90.5258	3,030.76	88.6527	3,030.76	91.9259	3,030.76	88.3825	3,030.76	92.4411	3,030.76	90.0287	3,030.76	91.9064	3,030.76	91.1121	3,030.76	90.8177	3,030.76	90.5386	3,030.76	89.8881	3,030.76	90.5499	3,030.76	89.576	3,030.76	88.6429	3,030.76	87.7514	3,030.76	86.2562	3,030.76	85.1248	3,030.76	85.4008	3,030.76	82.8174	3,030.76	82.7902	3,030.76	83.3336	3,030.76	78.941	3,030.76	80.2115	3,030.76	79.6955	3,030.76	79.1989	3,030.76	79.25	3,030.76	76.9264	3,030.76	79.7718	3,030.76	78.922	3,030.76	80.0177	3,030.76	78.796	3,030.76	78.5558	3,030.76	75.7467	3,030.76	77.9238	3,030.76	78.0026	3,030.76	69.2602
3,137.7	91.26	3,137.7	89.4953	3,137.7	92.7987	3,137.7	88.5137	3,137.7	92.1907	3,137.7	89.3211	3,137.7	92.2022	3,137.7	91.2257	3,137.7	91.4968	3,137.7	92.385	3,137.7	90.4212	3,137.7	90.5082	3,137.7	88.9895	3,137.7	88.9077	3,137.7	88.1434	3,137.7	87.2975	3,137.7	85.9923	3,137.7	84.521	3,137.7	84.5646	3,137.7	83.8489	3,137.7	83.1474	3,137.7	80.0116	3,137.7	80.1169	3,137.7	78.7653	3,137.7	79.0401	3,137.7	79.7451	3,137.7	76.4828	3,137.7	81.0138	3,137.7	77.6742	3,137.7	78.596	3,137.7	77.7548	3,137.7	76.3145	3,137.7	75.2642	3,137.7	78.2655	3,137.7	77.1869	3,137.7	75.8425
3,249.02	91.3039	3,249.02	90.0984	3,249.02	92.5115	3,249.02	89.0049	3,249.02	92.0683	3,249.02	89.4348	3,249.02	92.0775	3,249.02	91.4997	3,249.02	91.5327	3,249.02	92.7825	3,249.02	90.3923	3,249.02	91.3064	3,249.02	89.0411	3,249.02	90.1045	3,249.02	87.8939	3,249.02	87.8028	3,249.02	85.5123	3,249.02	85.0681	3,249.02	83.4586	3,249.02	83.326	3,249.02	82.1966	3,249.02	81.5126	3,249.02	79.8813	3,249.02	79.916	3,249.02	78.3593	3,249.02	79.8264	3,249.02	78.8076	3,249.02	81.0653	3,249.02	74.7442	3,249.02	79.2733	3,249.02	77.0445	3,249.02	76.197	3,249.02	68.9076	3,249.02	78.534	3,249.02	77.1809	3,249.02	73.612
3,363.28	92.4335	3,363.28	92.1946	3,363.28	92.1419	3,363.28	90.0024	3,363.28	92.4665	3,363.28	89.7547	3,363.28	91.6462	3,363.28	91.5778	3,363.28	91.2299	3,363.28	92.42	3,363.28	89.5712	3,363.28	91.5272	3,363.28	88.2662	3,363.28	90.4414	3,363.28	86.1012	3,363.28	87.9236	3,363.28	84.515	3,363.28	84.0238	3,363.28	82.4483	3,363.28	82.0893	3,363.28	80.2019	3,363.28	81.8322	3,363.28	80.0669	3,363.28	78.9678	3,363.28	76.3409	3,363.28	79.5217	3,363.28	78.4625	3,363.28	80.0812	3,363.28	74.8186	3,363.28	80.0469	3,363.28	76.8393	3,363.28	77.938	3,363.28	70.5257	3,363.28	79.8962	3,363.28	77.2949	3,363.28	70.1364
3,481.93	94.9122	3,481.93	94.1736	3,481.93	94.0657	3,481.93	92.797	3,481.93	93.1401	3,481.93	91.3906	3,481.93	91.9846	3,481.93	91.8006	3,481.93	90.8692	3,481.93	91.0715	3,481.93	90.4169	3,481.93	90.9542	3,481.93	89.6866	3,481.93	89.2415	3,481.93	87.7112	3,481.93	87.4625	3,481.93	86.598	3,481.93	83.0298	3,481.93	84.7035	3,481.93	82.1513	3,481.93	82.7474	3,481.93	80.1874	3,481.93	82.3042	3,481.93	78.7453	3,481.93	78.9244	3,481.93	78.5077	3,481.93	79.8386	3,481.93	79.6057	3,481.93	77.097	3,481.93	79.4774	3,481.93	77.5419	3,481.93	77.8209	3,481.93	74.8169	3,481.93	75.8189	3,481.93	74.899	3,481.93	72.5439
3,604.98	94.5988	3,604.98	94.3679	3,604.98	94.1377	3,604.98	93.0188	3,604.98	92.5427	3,604.98	91.4765	3,604.98	92.135	3,604.98	90.9927	3,604.98	91.8219	3,604.98	90.6882	3,604.98	91.9654	3,604.98	89.3897	3,604.98	90.2948	3,604.98	87.3376	3,604.98	88.6573	3,604.98	85.4852	3,604.98	87.414	3,604.98	81.9596	3,604.98	85.1749	3,604.98	79.7756	3,604.98	83.2697	3,604.98	77.9647	3,604.98	82.1471	3,604.98	74.7332	3,604.98	79.1219	3,604.98	76.5713	3,604.98	79.6468	3,604.98	76.601	3,604.98	78.5165	3,604.98	79.8101	3,604.98	78.3346	3,604.98	74.7672	3,604.98	76.8608	3,604.98	74.9211	3,604.98	77.5249	3,604.98	74.2936
3,732.42	92.8139	3,732.42	92.9638	3,732.42	92.1675	3,732.42	91.9691	3,732.42	90.6339	3,732.42	91.1524	3,732.42	91.2748	3,732.42	90.4661	3,732.42	91.5287	3,732.42	90.1061	3,732.42	91.0827	3,732.42	88.1855	3,732.42	89.9429	3,732.42	85.7861	3,732.42	87.8635	3,732.42	84.2602	3,732.42	86.7973	3,732.42	80.4377	3,732.42	84.465	3,732.42	78.5379	3,732.42	82.0774	3,732.42	77.2361	3,732.42	81.3181	3,732.42	72.7034	3,732.42	78.9372	3,732.42	76.5937	3,732.42	77.8783	3,732.42	75.9038	3,732.42	76.947	3,732.42	79.1142	3,732.42	77.656	3,732.42	71.9945	3,732.42	74.7439	3,732.42	76.7861	3,732.42	76.3372	3,732.42	72.4794
3,864.26	91.7061	3,864.26	92.4829	3,864.26	90.726	3,864.26	91.7157	3,864.26	91.041	3,864.26	90.6397	3,864.26	92.0013	3,864.26	90.525	3,864.26	92.3324	3,864.26	90.8811	3,864.26	91.4697	3,864.26	89.4868	3,864.26	89.6215	3,864.26	87.3394	3,864.26	88.0799	3,864.26	83.6779	3,864.26	86.4558	3,864.26	82.4437	3,864.26	84.0461	3,864.26	78.3196	3,864.26	82.3741	3,864.26	77.4989	3,864.26	80.8371	3,864.26	73.0423	3,864.26	77.9663	3,864.26	76.7777	3,864.26	75.1264	3,864.26	73.3192	3,864.26	77.6573	3,864.26	77.7881	3,864.26	75.4772	3,864.26	72.9827	3,864.26	73.8464	3,864.26	74.9193	3,864.26	75.9796	3,864.26	73.2612
4,000.49	90.698	4,000.49	92.4802	4,000.49	89.3073	4,000.49	91.6065	4,000.49	90.9329	4,000.49	90.0814	4,000.49	91.83	4,000.49	90.7664	4,000.49	91.9188	4,000.49	90.1418	4,000.49	90.6013	4,000.49	89.191	4,000.49	89.3699	4,000.49	86.8131	4,000.49	87.9992	4,000.49	83.4693	4,000.49	85.4455	4,000.49	81.6527	4,000.49	83.8957	4,000.49	78.0069	4,000.49	81.354	4,000.49	77.8308	4,000.49	79.5631	4,000.49	74.4297	4,000.49	79.0466	4,000.49	76.1593	4,000.49	76.3081	4,000.49	75.6737	4,000.49	76.6278	4,000.49	77.7618	4,000.49	73.2318	4,000.49	72.5808	4,000.49	75.3794	4,000.49	73.9007	4,000.49	74.9564	4,000.49	73.3604
4,141.11	91.0508	4,141.11	91.8125	4,141.11	90.9713	4,141.11	91.1443	4,141.11	90.7621	4,141.11	90.1348	4,141.11	91.7063	4,141.11	89.6883	4,141.11	90.7034	4,141.11	89.5617	4,141.11	89.0891	4,141.11	88.5875	4,141.11	89.1556	4,141.11	86.5019	4,141.11	88.153	4,141.11	84.2692	4,141.11	84.7017	4,141.11	81.4684	4,141.11	83.8527	4,141.11	80.2478	4,141.11	80.4991	4,141.11	76.4861	4,141.11	80.523	4,141.11	74.5926	4,141.11	78.6745	4,141.11	73.5958	4,141.11	73.4301	4,141.11	74.4811	4,141.11	75.474	4,141.11	78.653	4,141.11	74.4016	4,141.11	71.2477	4,141.11	72.9985	4,141.11	73.4139	4,141.11	74.0178	4,141.11	73.7592
4,287.6	92.0769	4,287.6	92.3606	4,287.6	91.2332	4,287.6	92.0654	4,287.6	90.7422	4,287.6	89.2515	4,287.6	90.6417	4,287.6	87.1063	4,287.6	90.812	4,287.6	88.1396	4,287.6	90.2959	4,287.6	87.8485	4,287.6	88.8066	4,287.6	86.1763	4,287.6	86.6522	4,287.6	83.5022	4,287.6	84.8608	4,287.6	80.2737	4,287.6	83.9407	4,287.6	76.409	4,287.6	80.5902	4,287.6	74.2519	4,287.6	80.6549	4,287.6	74.0426	4,287.6	76.7109	4,287.6	74.1251	4,287.6	75.3946	4,287.6	73.3341	4,287.6	77.7422	4,287.6	78.1449	4,287.6	71.9903	4,287.6	70.5567	4,287.6	74.0647	4,287.6	74.3516	4,287.6	74.0211	4,287.6	73.4307
4,438.48	90.8217	4,438.48	93.1456	4,438.48	89.9059	4,438.48	91.519	4,438.48	91.1481	4,438.48	89.9186	4,438.48	90.7091	4,438.48	89.7121	4,438.48	91.2055	4,438.48	88.8474	4,438.48	90.5902	4,438.48	88.1934	4,438.48	88.2012	4,438.48	86.6138	4,438.48	86.2021	4,438.48	83.6238	4,438.48	85.2719	4,438.48	81.4963	4,438.48	82.7094	4,438.48	79.457	4,438.48	80.2707	4,438.48	75.8624	4,438.48	79.7622	4,438.48	73.0708	4,438.48	77.5441	4,438.48	71.9079	4,438.48	76.3989	4,438.48	74.3147	4,438.48	74.3722	4,438.48	78.881	4,438.48	72.3104	4,438.48	72.6251	4,438.48	73.7504	4,438.48	73.848	4,438.48	72.4579	4,438.48	73.3503
4,595.21	92.2583	4,595.21	92.9027	4,595.21	91.9471	4,595.21	93.672	4,595.21	91.5626	4,595.21	90.7984	4,595.21	92.1125	4,595.21	89.4587	4,595.21	90.5134	4,595.21	90.1285	4,595.21	89.3605	4,595.21	88.4089	4,595.21	89.2903	4,595.21	86.6824	4,595.21	88.0756	4,595.21	84.6415	4,595.21	85.1176	4,595.21	80.8335	4,595.21	83.4519	4,595.21	79.9592	4,595.21	80.5976	4,595.21	73.8963	4,595.21	79.452	4,595.21	74.4867	4,595.21	76.9715	4,595.21	71.8752	4,595.21	75.4987	4,595.21	73.6161	4,595.21	76.8499	4,595.21	76.8071	4,595.21	74.499	4,595.21	72.4165	4,595.21	73.0798	4,595.21	71.7101	4,595.21	70.2303	4,595.21	74.4321
4,756.35	91.3926	4,756.35	93.2162	4,756.35	90.6721	4,756.35	92.474	4,756.35	90.6688	4,756.35	90.2592	4,756.35	89.5042	4,756.35	88.8606	4,756.35	89.8544	4,756.35	89.2168	4,756.35	89.8705	4,756.35	89.2734	4,756.35	87.973	4,756.35	88.4039	4,756.35	86.2458	4,756.35	85.1077	4,756.35	84.6497	4,756.35	82.0736	4,756.35	81.4916	4,756.35	77.3443	4,756.35	79.3874	4,756.35	78.5948	4,756.35	74.5489	4,756.35	75.5876	4,756.35	75.8366	4,756.35	73.5309	4,756.35	73.7594	4,756.35	74.7163	4,756.35	73.8768	4,756.35	78.9721	4,756.35	73.8041	4,756.35	74.0035	4,756.35	69.3304	4,756.35	72.5397	4,756.35	70.0009	4,756.35	71.6945
4,924.8	92.4069	4,924.8	93.5733	4,924.8	92.364	4,924.8	92.9085	4,924.8	91.1129	4,924.8	91.094	4,924.8	90.395	4,924.8	89.7179	4,924.8	91.0326	4,924.8	89.7972	4,924.8	90.5988	4,924.8	89.8168	4,924.8	89.1476	4,924.8	87.8262	4,924.8	86.0774	4,924.8	84.2977	4,924.8	83.6489	4,924.8	83.4096	4,924.8	82.0111	4,924.8	80.4423	4,924.8	80.2834	4,924.8	76.9446	4,924.8	76.3455	4,924.8	72.6888	4,924.8	75.7134	4,924.8	75.0059	4,924.8	72.6307	4,924.8	74.8866	4,924.8	70.1119	4,924.8	75.7771	4,924.8	74.518	4,924.8	71.1357	4,924.8	68.728	4,924.8	69.1436	4,924.8	67.3682	4,924.8	72.9718
5,097.66	91.8951	5,097.66	92.5389	5,097.66	91.6403	5,097.66	92.9806	5,097.66	89.4445	5,097.66	90.3922	5,097.66	89.9869	5,097.66	89.0466	5,097.66	90.1889	5,097.66	89.5232	5,097.66	88.9592	5,097.66	88.9945	5,097.66	87.4991	5,097.66	86.4972	5,097.66	85.5557	5,097.66	86.3339	5,097.66	82.7107	5,097.66	81.5377	5,097.66	81.0195	5,097.66	81.6395	5,097.66	78.8401	5,097.66	76.6576	5,097.66	75.8423	5,097.66	73.4285	5,097.66	77.0081	5,097.66	74.0821	5,097.66	73.6852	5,097.66	77.3894	5,097.66	74.0231	5,097.66	76.9669	5,097.66	75.4094	5,097.66	74.4641	5,097.66	62.6189	5,097.66	70.209	5,097.66	61.1379	5,097.66	73.8211
5,277.83	92.4829	5,277.83	93.3601	5,277.83	90.9789	5,277.83	93.1833	5,277.83	90.1179	5,277.83	91.7374	5,277.83	89.8643	5,277.83	89.3208	5,277.83	91.2348	5,277.83	89.7367	5,277.83	90.6408	5,277.83	90.001	5,277.83	88.318	5,277.83	88.8808	5,277.83	86.4739	5,277.83	86.2643	5,277.83	84.4425	5,277.83	82.2634	5,277.83	80.766	5,277.83	74.0649	5,277.83	79.6772	5,277.83	73.3323	5,277.83	78.2237	5,277.83	73.3908	5,277.83	74.8403	5,277.83	70.253	5,277.83	70.8315	5,277.83	73.7368	5,277.83	70.3307	5,277.83	77.4368	5,277.83	73.6717	5,277.83	74.2737	5,277.83	66.5255	5,277.83	67.3273	5,277.83	65.2646	5,277.83	73.2579
5,463.87	92.1043	5,463.87	91.9138	5,463.87	91.6576	5,463.87	91.9006	5,463.87	90.138	5,463.87	89.7422	5,463.87	91.1274	5,463.87	87.6801	5,463.87	90.5788	5,463.87	88.3558	5,463.87	88.8907	5,463.87	88.4598	5,463.87	88.4825	5,463.87	86.7176	5,463.87	86.9888	5,463.87	84.1948	5,463.87	81.5525	5,463.87	81.1219	5,463.87	82.2904	5,463.87	78.4415	5,463.87	78.814	5,463.87	73.3132	5,463.87	77.8221	5,463.87	70.8651	5,463.87	76.1739	5,463.87	70.783	5,463.87	72.5329	5,463.87	73.5137	5,463.87	73.1618	5,463.87	75.9294	5,463.87	72.0439	5,463.87	73.1427	5,463.87	65.4626	5,463.87	66.4637	5,463.87	64.34	5,463.87	74.8388
5,657.23	92.2996	5,657.23	91.6109	5,657.23	91.2466	5,657.23	91.5396	5,657.23	90.799	5,657.23	90.8055	5,657.23	90.3092	5,657.23	89.3217	5,657.23	90.303	5,657.23	89.3345	5,657.23	89.1504	5,657.23	89.2936	5,657.23	87.7007	5,657.23	87.1894	5,657.23	85.1371	5,657.23	85.1915	5,657.23	84.417	5,657.23	80.0153	5,657.23	81.8811	5,657.23	79.5994	5,657.23	79.5948	5,657.23	74.7684	5,657.23	76.8843	5,657.23	74.8317	5,657.23	77.8777	5,657.23	71.0701	5,657.23	72.7763	5,657.23	73.7811	5,657.23	73.9698	5,657.23	74.9146	5,657.23	72.9432	5,657.23	72.2291	5,657.23	68.4819	5,657.23	66.8533	5,657.23	57.0894	5,657.23	72.6414
5,856.45	92.198	5,856.45	91.1563	5,856.45	91.2129	5,856.45	91.3251	5,856.45	90.4191	5,856.45	90.4946	5,856.45	90.2674	5,856.45	88.0845	5,856.45	89.4383	5,856.45	87.7626	5,856.45	88.3509	5,856.45	88.0894	5,856.45	87.5313	5,856.45	87.4803	5,856.45	86.7096	5,856.45	81.9497	5,856.45	82.9337	5,856.45	80.3056	5,856.45	81.2203	5,856.45	73.3269	5,856.45	78.2864	5,856.45	71.9469	5,856.45	75.6814	5,856.45	73.1107	5,856.45	75.8128	5,856.45	71.9216	5,856.45	73.8139	5,856.45	69.6101	5,856.45	71.3127	5,856.45	71.7455	5,856.45	71.4963	5,856.45	70.0506	5,856.45	65.7613	5,856.45	59.7948	5,856.45	64.088	5,856.45	72.0213
6,062.99	92.5545	6,062.99	91.7298	6,062.99	91.7719	6,062.99	91.0983	6,062.99	90.8194	6,062.99	90.5467	6,062.99	90.4968	6,062.99	88.2412	6,062.99	89.8075	6,062.99	87.3488	6,062.99	88.683	6,062.99	86.7377	6,062.99	87.726	6,062.99	84.9321	6,062.99	84.5147	6,062.99	81.7643	6,062.99	81.8885	6,062.99	78.073	6,062.99	81.0802	6,062.99	78.1239	6,062.99	77.6387	6,062.99	72.8039	6,062.99	76.1936	6,062.99	70.6053	6,062.99	73.0532	6,062.99	71.0033	6,062.99	76.6462	6,062.99	73.9411	6,062.99	73.5649	6,062.99	74.2821	6,062.99	71.1514	6,062.99	72.4114	6,062.99	65.7106	6,062.99	64.8992	6,062.99	62.8045	6,062.99	72.2207
6,276.86	92.3473	6,276.86	91.3724	6,276.86	91.4335	6,276.86	90.4501	6,276.86	90.782	6,276.86	90.3007	6,276.86	89.1564	6,276.86	88.351	6,276.86	89.0353	6,276.86	87.5243	6,276.86	89.2995	6,276.86	86.7379	6,276.86	87.1743	6,276.86	84.6362	6,276.86	85.3781	6,276.86	82.639	6,276.86	81.8786	6,276.86	80.4627	6,276.86	80.0386	6,276.86	76.6052	6,276.86	77.4757	6,276.86	74.7497	6,276.86	77.1026	6,276.86	69.1196	6,276.86	71.2874	6,276.86	69.2305	6,276.86	73.7744	6,276.86	70.902	6,276.86	70.5197	6,276.86	73.2434	6,276.86	69.5871	6,276.86	71.4126	6,276.86	66.7049	6,276.86	56.2023	6,276.86	65.9997	6,276.86	69.2964
6,498.05	91.9534	6,498.05	91.0593	6,498.05	91.5863	6,498.05	90.1082	6,498.05	90.0577	6,498.05	90.1598	6,498.05	88.944	6,498.05	88.3723	6,498.05	88.5097	6,498.05	87.1452	6,498.05	87.435	6,498.05	86.4403	6,498.05	86.5779	6,498.05	84.9587	6,498.05	84.5126	6,498.05	83.3865	6,498.05	81.5878	6,498.05	79.4912	6,498.05	80.0209	6,498.05	75.0237	6,498.05	77.0047	6,498.05	70.3951	6,498.05	75.9057	6,498.05	67.3563	6,498.05	73.0649	6,498.05	70.3657	6,498.05	73.6794	6,498.05	70.4034	6,498.05	69.8885	6,498.05	71.9627	6,498.05	68.9988	6,498.05	69.593	6,498.05	64.0025	6,498.05	52.8557	6,498.05	64.1847	6,498.05	70.4177
6,726.56	92.0152	6,726.56	91.4568	6,726.56	91.6012	6,726.56	90.2024	6,726.56	90.4884	6,726.56	90.0019	6,726.56	88.2446	6,726.56	88.3357	6,726.56	89.1562	6,726.56	85.585	6,726.56	88.2765	6,726.56	86.7316	6,726.56	86.118	6,726.56	85.1661	6,726.56	84.5329	6,726.56	82.8591	6,726.56	83.017	6,726.56	79.0394	6,726.56	80.7281	6,726.56	76.0622	6,726.56	77.8776	6,726.56	73.9753	6,726.56	77.0967	6,726.56	67.9649	6,726.56	74.276	6,726.56	66.7438	6,726.56	72.8449	6,726.56	72.0849	6,726.56	72.5797	6,726.56	72.8	6,726.56	70.8932	6,726.56	69.1586	6,726.56	67.6232	6,726.56	48.6135	6,726.56	64.4156	6,726.56	71.5381
6,963.87	91.2724	6,963.87	90.8336	6,963.87	91.7989	6,963.87	89.4328	6,963.87	89.5101	6,963.87	89.7707	6,963.87	88.5251	6,963.87	87.4344	6,963.87	88.3383	6,963.87	86.1291	6,963.87	87.55	6,963.87	85.9455	6,963.87	87.562	6,963.87	85.0812	6,963.87	85.6596	6,963.87	82.54	6,963.87	82.368	6,963.87	78.1793	6,963.87	80.9465	6,963.87	75.8996	6,963.87	78.4943	6,963.87	72.1415	6,963.87	76.574	6,963.87	70.0273	6,963.87	72.7084	6,963.87	61.975	6,963.87	75.5278	6,963.87	68.3957	6,963.87	71.2311	6,963.87	70.3561	6,963.87	67.1329	6,963.87	69.5905	6,963.87	67.5865	6,963.87	58.0847	6,963.87	64.5064	6,963.87	70.0697
7,209.96	90.6792	7,209.96	90.1192	7,209.96	90.6268	7,209.96	88.6084	7,209.96	88.9535	7,209.96	88.7129	7,209.96	87.4304	7,209.96	86.6258	7,209.96	87.6238	7,209.96	84.4806	7,209.96	87.7672	7,209.96	86.3512	7,209.96	86.7348	7,209.96	84.8488	7,209.96	84.5069	7,209.96	82.4364	7,209.96	82.2092	7,209.96	79.8359	7,209.96	80.1719	7,209.96	75.8023	7,209.96	77.5302	7,209.96	72.0458	7,209.96	73.7731	7,209.96	66.0533	7,209.96	74.2375	7,209.96	60.9396	7,209.96	72.1262	7,209.96	67.4863	7,209.96	70.02	7,209.96	72.3248	7,209.96	72.1709	7,209.96	70.3867	7,209.96	70.2494	7,209.96	59.4235	7,209.96	62.3111	7,209.96	68.4777
7,464.84	89.8876	7,464.84	90.2349	7,464.84	90.4584	7,464.84	88.6265	7,464.84	88.4461	7,464.84	87.9837	7,464.84	87.4251	7,464.84	87.0424	7,464.84	86.9221	7,464.84	85.4903	7,464.84	87.5001	7,464.84	86.4844	7,464.84	87.0726	7,464.84	85.335	7,464.84	85.3586	7,464.84	82.7639	7,464.84	81.1526	7,464.84	80.2089	7,464.84	79.6545	7,464.84	75.4461	7,464.84	76.7472	7,464.84	73.2953	7,464.84	75.7745	7,464.84	71.6475	7,464.84	71.6111	7,464.84	63.6912	7,464.84	73.0002	7,464.84	65.5368	7,464.84	70.7365	7,464.84	71.3135	7,464.84	70.1884	7,464.84	68.6365	7,464.84	69.6181	7,464.84	57.4536	7,464.84	61.014	7,464.84	66.2974
7,727.05	89.9927	7,727.05	90.2759	7,727.05	90.2483	7,727.05	88.9923	7,727.05	88.9472	7,727.05	87.8226	7,727.05	87.1147	7,727.05	87.4317	7,727.05	87.6039	7,727.05	85.7767	7,727.05	87.4398	7,727.05	86.6549	7,727.05	86.5036	7,727.05	85.5748	7,727.05	84.5298	7,727.05	82.5978	7,727.05	81.7273	7,727.05	80.0203	7,727.05	79.608	7,727.05	75.1442	7,727.05	77.0009	7,727.05	73.8232	7,727.05	75.5821	7,727.05	68.0994	7,727.05	73.2414	7,727.05	64.8718	7,727.05	73.0908	7,727.05	63.5847	7,727.05	69.7222	7,727.05	70.8746	7,727.05	70.2622	7,727.05	67.7842	7,727.05	70.5617	7,727.05	56.7208	7,727.05	58.8951	7,727.05	64.4206
7,999.51	89.829	7,999.51	89.7237	7,999.51	89.886	7,999.51	89.1809	7,999.51	89.0563	7,999.51	87.7383	7,999.51	86.7655	7,999.51	87.0668	7,999.51	86.8789	7,999.51	85.8087	7,999.51	86.567	7,999.51	86.2766	7,999.51	85.9122	7,999.51	85.0512	7,999.51	84.1006	7,999.51	81.7387	7,999.51	81.2784	7,999.51	78.5833	7,999.51	78.909	7,999.51	73.935	7,999.51	76.2273	7,999.51	72.2421	7,999.51	74.9176	7,999.51	67.555	7,999.51	71.0133	7,999.51	65.5055	7,999.51	70.2142	7,999.51	56.4777	7,999.51	70.6202	7,999.51	70.3183	7,999.51	68.8902	7,999.51	65.6088	7,999.51	69.9403	7,999.51	53.0041	7,999.51	59.2021	7,999.51	63.4009
8,282.23	89.8319	8,282.23	89.4175	8,282.23	89.1773	8,282.23	88.6467	8,282.23	88.598	8,282.23	86.9227	8,282.23	86.0914	8,282.23	87.1692	8,282.23	86.4828	8,282.23	85.4398	8,282.23	86.1332	8,282.23	85.6715	8,282.23	85.2921	8,282.23	83.616	8,282.23	83.7584	8,282.23	81.0683	8,282.23	80.9056	8,282.23	77.1934	8,282.23	78.3221	8,282.23	72.9806	8,282.23	75.5787	8,282.23	67.4722	8,282.23	72.7322	8,282.23	64.3165	8,282.23	72.3688	8,282.23	61.1669	8,282.23	69.4952	8,282.23	58.9023	8,282.23	68.6359	8,282.23	68.9954	8,282.23	68.3499	8,282.23	67.313	8,282.23	68.6493	8,282.23	58.6381	8,282.23	57.9895	8,282.23	64.644
8,573.73	89.6414	8,573.73	89.3269	8,573.73	88.7694	8,573.73	88.5401	8,573.73	88.5459	8,573.73	86.6125	8,573.73	86.1841	8,573.73	87.1632	8,573.73	85.4156	8,573.73	84.7793	8,573.73	85.0791	8,573.73	85.1202	8,573.73	84.6311	8,573.73	83.106	8,573.73	82.8522	8,573.73	79.724	8,573.73	79.0381	8,573.73	77.0274	8,573.73	76.5764	8,573.73	72.0719	8,573.73	73.5629	8,573.73	67.2796	8,573.73	71.0941	8,573.73	62.7271	8,573.73	68.6031	8,573.73	64.4339	8,573.73	65.7669	8,573.73	63.3369	8,573.73	67.557	8,573.73	68.8549	8,573.73	69.3425	8,573.73	63.6826	8,573.73	67.9446	8,573.73	57.4662	8,573.73	55.1255	8,573.73	61.0187
8,876.95	89.2941	8,876.95	89.3405	8,876.95	88.9957	8,876.95	88.5519	8,876.95	88.1876	8,876.95	86.7082	8,876.95	85.9218	8,876.95	86.8401	8,876.95	84.18	8,876.95	84.288	8,876.95	84.719	8,876.95	84.4351	8,876.95	83.459	8,876.95	82.5587	8,876.95	81.2173	8,876.95	79.5304	8,876.95	77.0452	8,876.95	77.4708	8,876.95	75.8931	8,876.95	72.4732	8,876.95	72.365	8,876.95	69.3208	8,876.95	71.2165	8,876.95	67.078	8,876.95	69.0585	8,876.95	62.8466	8,876.95	66.8129	8,876.95	60.5822	8,876.95	67.3957	8,876.95	67.994	8,876.95	68.5654	8,876.95	63.5873	8,876.95	65.9635	8,876.95	57.3974	8,876.95	45.3164	8,876.95	60.295
9,188.96	89.3216	9,188.96	89.1675	9,188.96	88.9646	9,188.96	88.3577	9,188.96	87.8063	9,188.96	86.7772	9,188.96	86.1153	9,188.96	85.7656	9,188.96	83.96	9,188.96	83.6477	9,188.96	84.1177	9,188.96	83.4989	9,188.96	83.5094	9,188.96	82.5697	9,188.96	81.4846	9,188.96	78.8607	9,188.96	78.0991	9,188.96	76.6343	9,188.96	76.2208	9,188.96	71.3747	9,188.96	71.4398	9,188.96	68.9551	9,188.96	70.9362	9,188.96	68.4508	9,188.96	66.865	9,188.96	59.7497	9,188.96	67.4108	9,188.96	56.2954	9,188.96	67.734	9,188.96	65.4557	9,188.96	68.1464	9,188.96	56.3562	9,188.96	64.2868	9,188.96	54.3803	9,188.96	54.9219	9,188.96	59.598
9,514.16	88.9253	9,514.16	88.6544	9,514.16	88.7366	9,514.16	88.0147	9,514.16	88.3045	9,514.16	86.1458	9,514.16	86.1844	9,514.16	85.3201	9,514.16	84.1533	9,514.16	81.7652	9,514.16	84.0189	9,514.16	82.3929	9,514.16	83.8852	9,514.16	81.6623	9,514.16	82.0974	9,514.16	77.613	9,514.16	79.1852	9,514.16	75.6987	9,514.16	76.1569	9,514.16	68.1586	9,514.16	72.3267	9,514.16	67.1716	9,514.16	71.389	9,514.16	64.2579	9,514.16	67.9732	9,514.16	62.9791	9,514.16	66.8536	9,514.16	54.7139	9,514.16	67.0828	9,514.16	63.7095	9,514.16	66.4964	9,514.16	60.3419	9,514.16	65.2549	9,514.16	57.3708	9,514.16	48.9345	9,514.16	56.2741
9,849.61	88.7297	9,849.61	88.113	9,849.61	88.8203	9,849.61	87.0482	9,849.61	88.4009	9,849.61	85.5892	9,849.61	86.8017	9,849.61	84.1376	9,849.61	84.7968	9,849.61	80.6601	9,849.61	84.2921	9,849.61	80.702	9,849.61	84.0704	9,849.61	80.2409	9,849.61	81.8653	9,849.61	76.242	9,849.61	78.4968	9,849.61	72.7615	9,849.61	75.7775	9,849.61	67.5876	9,849.61	72.7573	9,849.61	67.536	9,849.61	70.5015	9,849.61	63.3941	9,849.61	67.6904	9,849.61	58.5567	9,849.61	65.8196	9,849.61	50.7048	9,849.61	66.6999	9,849.61	61.5743	9,849.61	64.1307	9,849.61	55.2914	9,849.61	64.3433	9,849.61	49.5348	9,849.61	44.6856	9,849.61	50.055
10,196.8	89.0332	10,196.8	87.9838	10,196.8	88.5459	10,196.8	87.0724	10,196.8	88.2983	10,196.8	85.4884	10,196.8	87.0291	10,196.8	83.3142	10,196.8	85.1327	10,196.8	79.6427	10,196.8	84.0031	10,196.8	78.6996	10,196.8	83.6049	10,196.8	77.6569	10,196.8	81.3824	10,196.8	73.5029	10,196.8	76.9268	10,196.8	69.7705	10,196.8	74.602	10,196.8	63.0046	10,196.8	71.5942	10,196.8	61.5906	10,196.8	68.5042	10,196.8	59.7222	10,196.8	66.5857	10,196.8	55.987	10,196.8	63.7767	10,196.8	52.0244	10,196.8	62.9479	10,196.8	56.7943	10,196.8	62.9164	10,196.8	42.4603	10,196.8	64.1153	10,196.8	49.8237	10,196.8	54.9955	10,196.8	55.2353
10,555.7	89.1041	10,555.7	88.2592	10,555.7	88.5215	10,555.7	87.4922	10,555.7	88.0131	10,555.7	85.4151	10,555.7	86.8773	10,555.7	83.2879	10,555.7	84.6715	10,555.7	80.0798	10,555.7	83.6207	10,555.7	78.5694	10,555.7	82.5979	10,555.7	75.6689	10,555.7	80.1264	10,555.7	71.251	10,555.7	76.5181	10,555.7	67.4336	10,555.7	73.6021	10,555.7	62.5735	10,555.7	69.7808	10,555.7	57.3278	10,555.7	67.8679	10,555.7	54.9667	10,555.7	64.9833	10,555.7	51.515	10,555.7	61.7608	10,555.7	50.5056	10,555.7	64.5727	10,555.7	52.7632	10,555.7	60.459	10,555.7	47.5556	10,555.7	61.6079	10,555.7	53.7663	10,555.7	50.5301	10,555.7	53.0945
10,927.7	89.8021	10,927.7	89.2325	10,927.7	89.3153	10,927.7	88.1998	10,927.7	88.0778	10,927.7	86.0959	10,927.7	86.7278	10,927.7	84.2614	10,927.7	84.2179	10,927.7	80.724	10,927.7	82.1488	10,927.7	77.4228	10,927.7	80.6853	10,927.7	73.1466	10,927.7	77.9408	10,927.7	68.9983	10,927.7	73.4262	10,927.7	63.6688	10,927.7	70.3643	10,927.7	59.9998	10,927.7	67.023	10,927.7	59.3186	10,927.7	64.0637	10,927.7	52.8833	10,927.7	62.5696	10,927.7	53.9791	10,927.7	62.1705	10,927.7	52.533	10,927.7	61.0075	10,927.7	54.3388	10,927.7	56.8029	10,927.7	44.1198	10,927.7	58.751	10,927.7	46.1995	10,927.7	43.7468	10,927.7	50.6486
11,313	90.6729	11,313	90.0332	11,313	89.8772	11,313	88.9499	11,313	88.378	11,313	86.611	11,313	86.6404	11,313	84.6476	11,313	83.7979	11,313	80.2075	11,313	80.9044	11,313	76.3804	11,313	78.1604	11,313	70.8381	11,313	74.4013	11,313	66.2022	11,313	69.4779	11,313	62.4374	11,313	65.7468	11,313	59.6931	11,313	62.0183	11,313	52.7426	11,313	58.1204	11,313	53.9817	11,313	57.1203	11,313	51.6035	11,313	56.5693	11,313	45.6437	11,313	56.656	11,313	51.1542	11,313	51.7791	11,313	47.4755	11,313	51.9848	11,313	49.1848	11,313	47.0695	11,313	51.1803
11,712.9	91.1049	11,712.9	90.5772	11,712.9	90.1431	11,712.9	89.0765	11,712.9	88.2373	11,712.9	86.547	11,712.9	86.0967	11,712.9	84.0044	11,712.9	83.0681	11,712.9	78.8895	11,712.9	79.7252	11,712.9	75.3076	11,712.9	76.0887	11,712.9	71.0321	11,712.9	70.9133	11,712.9	69.3315	11,712.9	66.3285	11,712.9	64.4174	11,712.9	61.9219	11,712.9	62.5818	11,712.9	61.3733	11,712.9	59.7035	11,712.9	56.9586	11,712.9	51.371	11,712.9	57.9268	11,712.9	52.2937	11,712.9	43.2783	11,712.9	37.5694	11,712.9	51.6192	11,712.9	54.757	11,712.9	45.5136	11,712.9	43.1814	11,712.9	47.6867	11,712.9	50.258	11,712.9	46.341	11,712.9	51.6073
12,126	90.9783	12,126	90.3256	12,126	90.1002	12,126	88.6205	12,126	87.7478	12,126	85.9912	12,126	85.3237	12,126	83.0672	12,126	81.832	12,126	77.3149	12,126	77.9371	12,126	74.0642	12,126	74.0195	12,126	73.3839	12,126	70.2546	12,126	72.501	12,126	67.5913	12,126	67.7467	12,126	62.9561	12,126	65.286	12,126	60.0286	12,126	60.8018	12,126	57.4733	12,126	57.8347	12,126	57.603	12,126	55.7752	12,126	55.6297	12,126	47.3906	12,126	49.6104	12,126	53.6471	12,126	49.4876	12,126	38.4851	12,126	51.308	12,126	53.0785	12,126	48.3151	12,126	51.8261
12,553.7	90.7403	12,553.7	90.0076	12,553.7	89.6033	12,553.7	88.1506	12,553.7	87.1266	12,553.7	85.0524	12,553.7	84.3244	12,553.7	81.8778	12,553.7	79.8587	12,553.7	75.6601	12,553.7	75.3246	12,553.7	72.914	12,553.7	71.1671	12,553.7	75.4114	12,553.7	70.2334	12,553.7	74.5888	12,553.7	68.0893	12,553.7	69.7948	12,553.7	63.9932	12,553.7	67.652	12,553.7	61.4866	12,553.7	62.4317	12,553.7	59.5137	12,553.7	59.3023	12,553.7	55.178	12,553.7	53.2527	12,553.7	55.0627	12,553.7	51.8397	12,553.7	50.1792	12,553.7	50.273	12,553.7	43.4528	12,553.7	39.444	12,553.7	50.2846	12,553.7	53.2535	12,553.7	40.1768	12,553.7	49.0054
12,996.1	90.3634	12,996.1	89.7636	12,996.1	89.0146	12,996.1	87.7332	12,996.1	86.3507	12,996.1	84.3693	12,996.1	83.1948	12,996.1	80.4157	12,996.1	77.3311	12,996.1	73.5255	12,996.1	72.5891	12,996.1	72.4888	12,996.1	73.2386	12,996.1	76.4271	12,996.1	71.6665	12,996.1	75.9876	12,996.1	69.0048	12,996.1	71.4764	12,996.1	66.0304	12,996.1	67.3886	12,996.1	64.1024	12,996.1	64.2375	12,996.1	60.5751	12,996.1	59.9506	12,996.1	57.7593	12,996.1	54.6994	12,996.1	58.3812	12,996.1	50.4858	12,996.1	54.5133	12,996.1	46.2391	12,996.1	49.3728	12,996.1	46.8995	12,996.1	52.8556	12,996.1	52.8568	12,996.1	36.1353	12,996.1	47.9824
13,454.6	90.1772	13,454.6	89.6823	13,454.6	88.8393	13,454.6	87.3883	13,454.6	86.378	13,454.6	83.5435	13,454.6	82.969	13,454.6	77.6693	13,454.6	76.9024	13,454.6	71.2091	13,454.6	74.6885	13,454.6	72.4059	13,454.6	75.2764	13,454.6	77.2388	13,454.6	74.3376	13,454.6	76.576	13,454.6	71.3057	13,454.6	72.3525	13,454.6	67.9354	13,454.6	66.9784	13,454.6	63.8216	13,454.6	63.8945	13,454.6	62.1385	13,454.6	61.2283	13,454.6	58.5512	13,454.6	55.301	13,454.6	57.2977	13,454.6	46.3611	13,454.6	57.1572	13,454.6	38.827	13,454.6	51.6023	13,454.6	47.518	13,454.6	58.7504	13,454.6	53.2708	13,454.6	34.7634	13,454.6	47.6099
13,929.2	89.6456	13,929.2	89.332	13,929.2	88.6752	13,929.2	86.9469	13,929.2	86.4072	13,929.2	82.2676	13,929.2	82.8274	13,929.2	73.8429	13,929.2	77.561	13,929.2	68.6672	13,929.2	76.5833	13,929.2	73.8341	13,929.2	76.9317	13,929.2	78.1255	13,929.2	75.865	13,929.2	76.8816	13,929.2	71.2509	13,929.2	72.2905	13,929.2	68.4045	13,929.2	67.3157	13,929.2	65.4535	13,929.2	64.385	13,929.2	62.0762	13,929.2	60.8146	13,929.2	59.5539	13,929.2	52.4413	13,929.2	57.5624	13,929.2	48.7306	13,929.2	58.5811	13,929.2	36.9116	13,929.2	52.8301	13,929.2	53.4859	13,929.2	60.1232	13,929.2	48.3083	13,929.2	39.8371	13,929.2	41.7589
14,419.9	88.6514	14,419.9	88.5389	14,419.9	88.151	14,419.9	86.0833	14,419.9	86.2969	14,419.9	80.3783	14,419.9	82.6139	14,419.9	71.947	14,419.9	78.1063	14,419.9	70.6219	14,419.9	77.025	14,419.9	75.6164	14,419.9	77.1813	14,419.9	78.2613	14,419.9	75.7228	14,419.9	76.5567	14,419.9	72.8446	14,419.9	72.0084	14,419.9	69.1797	14,419.9	66.9026	14,419.9	66.0412	14,419.9	65.3161	14,419.9	62.8684	14,419.9	61.3122	14,419.9	60.877	14,419.9	52.3377	14,419.9	57.2586	14,419.9	50.6062	14,419.9	58.7691	14,419.9	42.9197	14,419.9	55.7269	14,419.9	53.4655	14,419.9	60.1499	14,419.9	49.3028	14,419.9	43.4129	14,419.9	45.6578
14,928.2	87.5527	14,928.2	87.331	14,928.2	87.3954	14,928.2	84.8609	14,928.2	85.7452	14,928.2	78.6019	14,928.2	82.1408	14,928.2	72.9293	14,928.2	77.6777	14,928.2	73.2073	14,928.2	76.4966	14,928.2	76.2225	14,928.2	75.846	14,928.2	76.9605	14,928.2	75.3447	14,928.2	75.4252	14,928.2	72.2918	14,928.2	71.6314	14,928.2	68.2215	14,928.2	65.7869	14,928.2	64.3284	14,928.2	64.7633	14,928.2	61.8631	14,928.2	59.6261	14,928.2	57.4876	14,928.2	39.6255	14,928.2	58.0211	14,928.2	47.5641	14,928.2	58.1627	14,928.2	44.2567	14,928.2	53.4152	14,928.2	50.2172	14,928.2	59.3295	14,928.2	47.5254	14,928.2	47.233	14,928.2	50.3841
15,455.6	86.6789	15,455.6	86.1309	15,455.6	86.8573	15,455.6	83.6639	15,455.6	84.9815	15,455.6	77.5647	15,455.6	81.9068	15,455.6	73.6281	15,455.6	77.8934	15,455.6	73.9066	15,455.6	75.462	15,455.6	74.8987	15,455.6	75.3618	15,455.6	74.8502	15,455.6	74.0228	15,455.6	73.112	15,455.6	72.047	15,455.6	69.0927	15,455.6	67.5413	15,455.6	64.1748	15,455.6	62.3444	15,455.6	62.2209	15,455.6	60.5714	15,455.6	51.8479	15,455.6	57.9472	15,455.6	41.5559	15,455.6	56.8642	15,455.6	41.611	15,455.6	56.0902	15,455.6	45.7219	15,455.6	46.0814	15,455.6	51.6967	15,455.6	57.6714	15,455.6	37.0951	15,455.6	45.9467	15,455.6	47.7932
16,000.5	86.2726	16,000.5	85.3819	16,000.5	87.0209	16,000.5	82.1469	16,000.5	84.7154	16,000.5	74.0916	16,000.5	81.3833	16,000.5	74.0615	16,000.5	77.8945	16,000.5	73.2942	16,000.5	74.6947	16,000.5	71.5051	16,000.5	74.2433	16,000.5	71.3544	16,000.5	73.0936	16,000.5	70.3105	16,000.5	71.0674	16,000.5	66.5085	16,000.5	66.4811	16,000.5	61.4022	16,000.5	60.7252	16,000.5	55.5654	16,000.5	60.1031	16,000.5	51.5022	16,000.5	56.6744	16,000.5	49.9579	16,000.5	57.3904	16,000.5	37.3155	16,000.5	55.9387	16,000.5	47.104	16,000.5	49.764	16,000.5	48.7683	16,000.5	53.7106	16,000.5	37.9672	16,000.5	34.5768	16,000.5	42.86
16,564.5	86.1134	16,564.5	84.8349	16,564.5	86.9726	16,564.5	79.4068	16,564.5	84.1625	16,564.5	64.5405	16,564.5	80.8947	16,564.5	76.4082	16,564.5	78.1896	16,564.5	73.0186	16,564.5	75.7798	16,564.5	69.6208	16,564.5	73.8045	16,564.5	70.0854	16,564.5	72.342	16,564.5	68.155	16,564.5	70.1186	16,564.5	63.0833	16,564.5	66.4159	16,564.5	58.574	16,564.5	62.6346	16,564.5	53.1618	16,564.5	59.5653	16,564.5	50.9276	16,564.5	57.7103	16,564.5	47.8981	16,564.5	57.9589	16,564.5	44.4282	16,564.5	55.6254	16,564.5	47.7137	16,564.5	51.8535	16,564.5	39.1762	16,564.5	52.2472	16,564.5	30.0976	16,564.5	47.1378	16,564.5	43.3758
17,148.9	85.8689	17,148.9	83.7487	17,148.9	86.0889	17,148.9	76.859	17,148.9	83.0638	17,148.9	74.4367	17,148.9	80.8685	17,148.9	77.9335	17,148.9	78.9311	17,148.9	74.484	17,148.9	76.5468	17,148.9	70.6337	17,148.9	73.4127	17,148.9	70.2339	17,148.9	72.0369	17,148.9	67.2193	17,148.9	69.1253	17,148.9	63.1541	17,148.9	65.8472	17,148.9	55.7439	17,148.9	61.4234	17,148.9	51.4082	17,148.9	57.6533	17,148.9	50.6991	17,148.9	53.7364	17,148.9	42.7976	17,148.9	58.0142	17,148.9	43.3289	17,148.9	54.9535	17,148.9	47.0544	17,148.9	47.7752	17,148.9	45.8885	17,148.9	51.7478	17,148.9	43.3594	17,148.9	47.5237	17,148.9	46.9793
17,752.4	85.7669	17,752.4	83.038	17,752.4	85.4432	17,752.4	75.3992	17,752.4	82.3338	17,752.4	78.0162	17,752.4	81.5557	17,752.4	78.6414	17,752.4	79.8509	17,752.4	74.5301	17,752.4	76.4236	17,752.4	70.7542	17,752.4	72.2541	17,752.4	67.9576	17,752.4	69.5201	17,752.4	64.6545	17,752.4	64.4457	17,752.4	60.1903	17,752.4	61.7929	17,752.4	54.2235	17,752.4	57.5221	17,752.4	44.309	17,752.4	52.1359	17,752.4	50.7358	17,752.4	51.6349	17,752.4	47.9742	17,752.4	53.141	17,752.4	39.8887	17,752.4	48.2257	17,752.4	41.4078	17,752.4	36.3906	17,752.4	41.3149	17,752.4	48.398	17,752.4	44.4977	17,752.4	45.9915	17,752.4	47.008
18,379.4	85.4025	18,379.4	82.2418	18,379.4	84.7638	18,379.4	75.9605	18,379.4	81.8346	18,379.4	79.3659	18,379.4	82.296	18,379.4	79.3704	18,379.4	79.6672	18,379.4	74.1994	18,379.4	75.1023	18,379.4	70.9014	18,379.4	70.5961	18,379.4	62.9513	18,379.4	66.7215	18,379.4	58.2168	18,379.4	58.7539	18,379.4	52.7941	18,379.4	54.306	18,379.4	51.1406	18,379.4	57.1789	18,379.4	41.3777	18,379.4	47.6788	18,379.4	47.8862	18,379.4	50.3808	18,379.4	46.1976	18,379.4	46.7325	18,379.4	38.9674	18,379.4	47.0158	18,379.4	32.8252	18,379.4	49.4303	18,379.4	33.2266	18,379.4	51.3194	18,379.4	43.2744	18,379.4	40.7751	18,379.4	39.0922
19,026.9	85.0246	19,026.9	81.4349	19,026.9	83.879	19,026.9	77.4199	19,026.9	82.0044	19,026.9	80.0068	19,026.9	82.7235	19,026.9	79.4182	19,026.9	78.881	19,026.9	73.3127	19,026.9	72.8691	19,026.9	69.8368	19,026.9	67.7644	19,026.9	55.0447	19,026.9	61.7958	19,026.9	55.1825	19,026.9	63.285	19,026.9	58.597	19,026.9	58.587	19,026.9	53.7439	19,026.9	59.1095	19,026.9	46.0113	19,026.9	50.8558	19,026.9	42.2905	19,026.9	53.3431	19,026.9	44.1051	19,026.9	52.7054	19,026.9	39.0227	19,026.9	51.774	19,026.9	37.5782	19,026.9	51.1089	19,026.9	32.8597	19,026.9	53.9076	19,026.9	41.1263	19,026.9	44.1184	19,026.9	37.3807
19,697.8	84.9868	19,697.8	80.8049	19,697.8	83.4599	19,697.8	78.8568	19,697.8	82.409	19,697.8	79.9709	19,697.8	82.5423	19,697.8	78.8812	19,697.8	77.7954	19,697.8	71.8439	19,697.8	71.5576	19,697.8	68.2466	19,697.8	62.5741	19,697.8	56.6537	19,697.8	64.997	19,697.8	62.8961	19,697.8	67.3874	19,697.8	63.5047	19,697.8	63.1669	19,697.8	56.6203	19,697.8	59.5986	19,697.8	52.2113	19,697.8	54.7006	19,697.8	44.2557	19,697.8	56.5207	19,697.8	43.755	19,697.8	53.8199	19,697.8	44.7964	19,697.8	52.4652	19,697.8	45.0261	19,697.8	53.1395	19,697.8	35.7989	19,697.8	53.0512	19,697.8	45.0658	19,697.8	45.202	19,697.8	38.2753
19,999.5	84.6329	19,999.5	80.7215	19,999.5	83.431	19,999.5	79.2513	19,999.5	82.5529	19,999.5	79.9527	19,999.5	82.2851	19,999.5	78.7502	19,999.5	77.2203	19,999.5	71.5487	19,999.5	71.7115	19,999.5	65.2088	19,999.5	60.3054	19,999.5	62.9486	19,999.5	67.8743	19,999.5	64.6534	19,999.5	68.8562	19,999.5	63.0149	19,999.5	65.3751	19,999.5	56.8184	19,999.5	60.907	19,999.5	52.4329	19,999.5	59.2777	19,999.5	50.6333	19,999.5	59.1427	19,999.5	53.51	19,999.5	52.2117	19,999.5	41.9213	19,999.5	53.9101	19,999.5	47.9885	19,999.5	58.1639	19,999.5	49.0371	19,999.5	52.3394	19,999.5	54.2254	19,999.5	41.1362	19,999.5	37.8023
