"SPL Vertical"
"On-Axis"		"10°"		"-10°"		"20°"		"-20°"		"30°"		"-30°"		"40°"		"-40°"		"50°"		"-50°"		"60°"		"-60°"		"70°"		"-70°"		"80°"		"-80°"		"90°"		"-90°"		"100°"		"-100°"		"110°"		"-110°"		"120°"		"-120°"		"130°"		"-130°"		"140°"		"-140°"		"150°"		"-150°"		"160°"		"-160°"		"170°"		"-170°"		"180°"
"Frequency / Hz"	"Sound Pressure Level / dB (re 20 µPa/V)  [2.83  V @ 1. m]"	"Frequency / Hz"	"Sound Pressure Level / dB (re 20 µPa/V)  [2.83  V @ 1. m]"	"Frequency / Hz"	"Sound Pressure Level / dB (re 20 µPa/V)  [2.83  V @ 1. m]"	"Frequency / Hz"	"Sound Pressure Level / dB (re 20 µPa/V)  [2.83  V @ 1. m]"	"Frequency / Hz"	"Sound Pressure Level / dB (re 20 µPa/V)  [2.83  V @ 1. m]"	"Frequency / Hz"	"Sound Pressure Level / dB (re 20 µPa/V)  [2.83  V @ 1. m]"	"Frequency / Hz"	"Sound Pressure Level / dB (re 20 µPa/V)  [2.83  V @ 1. m]"	"Frequency / Hz"	"Sound Pressure Level / dB (re 20 µPa/V)  [2.83  V @ 1. m]"	"Frequency / Hz"	"Sound Pressure Level / dB (re 20 µPa/V)  [2.83  V @ 1. m]"	"Frequency / Hz"	"Sound Pressure Level / dB (re 20 µPa/V)  [2.83  V @ 1. m]"	"Frequency / Hz"	"Sound Pressure Level / dB (re 20 µPa/V)  [2.83  V @ 1. m]"	"Frequency / Hz"	"Sound Pressure Level / dB (re 20 µPa/V)  [2.83  V @ 1. m]"	"Frequency / Hz"	"Sound Pressure Level / dB (re 20 µPa/V)  [2.83  V @ 1. m]"	"Frequency / Hz"	"Sound Pressure Level / dB (re 20 µPa/V)  [2.83  V @ 1. m]"	"Frequency / Hz"	"Sound Pressure Level / dB (re 20 µPa/V)  [2.83  V @ 1. m]"	"Frequency / Hz"	"Sound Pressure Level / dB (re 20 µPa/V)  [2.83  V @ 1. m]"	"Frequency / Hz"	"Sound Pressure Level / dB (re 20 µPa/V)  [2.83  V @ 1. m]"	"Frequency / Hz"	"Sound Pressure Level / dB (re 20 µPa/V)  [2.83  V @ 1. m]"	"Frequency / Hz"	"Sound Pressure Level / dB (re 20 µPa/V)  [2.83  V @ 1. m]"	"Frequency / Hz"	"Sound Pressure Level / dB (re 20 µPa/V)  [2.83  V @ 1. m]"	"Frequency / Hz"	"Sound Pressure Level / dB (re 20 µPa/V)  [2.83  V @ 1. m]"	"Frequency / Hz"	"Sound Pressure Level / dB (re 20 µPa/V)  [2.83  V @ 1. m]"	"Frequency / Hz"	"Sound Pressure Level / dB (re 20 µPa/V)  [2.83  V @ 1. m]"	"Frequency / Hz"	"Sound Pressure Level / dB (re 20 µPa/V)  [2.83  V @ 1. m]"	"Frequency / Hz"	"Sound Pressure Level / dB (re 20 µPa/V)  [2.83  V @ 1. m]"	"Frequency / Hz"	"Sound Pressure Level / dB (re 20 µPa/V)  [2.83  V @ 1. m]"	"Frequency / Hz"	"Sound Pressure Level / dB (re 20 µPa/V)  [2.83  V @ 1. m]"	"Frequency / Hz"	"Sound Pressure Level / dB (re 20 µPa/V)  [2.83  V @ 1. m]"	"Frequency / Hz"	"Sound Pressure Level / dB (re 20 µPa/V)  [2.83  V @ 1. m]"	"Frequency / Hz"	"Sound Pressure Level / dB (re 20 µPa/V)  [2.83  V @ 1. m]"	"Frequency / Hz"	"Sound Pressure Level / dB (re 20 µPa/V)  [2.83  V @ 1. m]"	"Frequency / Hz"	"Sound Pressure Level / dB (re 20 µPa/V)  [2.83  V @ 1. m]"	"Frequency / Hz"	"Sound Pressure Level / dB (re 20 µPa/V)  [2.83  V @ 1. m]"	"Frequency / Hz"	"Sound Pressure Level / dB (re 20 µPa/V)  [2.83  V @ 1. m]"	"Frequency / Hz"	"Sound Pressure Level / dB (re 20 µPa/V)  [2.83  V @ 1. m]"	"Frequency / Hz"	"Sound Pressure Level / dB (re 20 µPa/V)  [2.83  V @ 1. m]"
20.5078	60.6989	20.5078	60.7163	20.5078	60.6946	20.5078	60.7458	20.5078	60.7036	20.5078	60.7864	20.5078	60.7252	20.5078	60.8365	20.5078	60.7574	20.5078	60.8944	20.5078	60.7968	20.5078	60.9584	20.5078	60.8386	20.5078	61.0266	20.5078	60.8781	20.5078	61.0967	20.5078	60.9108	20.5078	61.1664	20.5078	60.9342	20.5078	61.2327	20.5078	60.9482	20.5078	61.2923	20.5078	60.9554	20.5078	61.3413	20.5078	60.9612	20.5078	61.3755	20.5078	60.9728	20.5078	61.3909	20.5078	60.9972	20.5078	61.3846	20.5078	61.0389	20.5078	61.3556	20.5078	61.0975	20.5078	61.3057	20.5078	61.1676	20.5078	61.2403
21.9727	59.1604	21.9727	59.1155	21.9727	59.2066	21.9727	59.0731	21.9727	59.2544	21.9727	59.0355	21.9727	59.3047	21.9727	59.0062	21.9727	59.3588	21.9727	58.9894	21.9727	59.4176	21.9727	58.9891	21.9727	59.4814	21.9727	59.0094	21.9727	59.5497	21.9727	59.0533	21.9727	59.6222	21.9727	59.1227	21.9727	59.6987	21.9727	59.2179	21.9727	59.779	21.9727	59.3368	21.9727	59.863	21.9727	59.475	21.9727	59.9493	21.9727	59.6252	21.9727	60.0349	21.9727	59.7783	21.9727	60.1141	21.9727	59.9234	21.9727	60.1794	21.9727	60.0495	21.9727	60.222	21.9727	60.1472	21.9727	60.2339	21.9727	60.2095
23.4375	61.3021	23.4375	61.2264	23.4375	61.3752	23.4375	61.1492	23.4375	61.4445	23.4375	61.0717	23.4375	61.5088	23.4375	60.9957	23.4375	61.5662	23.4375	60.9232	23.4375	61.6139	23.4375	60.8568	23.4375	61.6491	23.4375	60.7989	23.4375	61.6687	23.4375	60.7523	23.4375	61.6707	23.4375	60.7193	23.4375	61.6544	23.4375	60.7021	23.4375	61.6208	23.4375	60.7019	23.4375	61.5723	23.4375	60.7193	23.4375	61.5127	23.4375	60.7533	23.4375	61.4458	23.4375	60.8021	23.4375	61.3748	23.4375	60.8626	23.4375	61.302	23.4375	60.9313	23.4375	61.2285	23.4375	61.0045	23.4375	61.1542	23.4375	61.0794
24.9023	62.3892	24.9023	62.2806	24.9023	62.4979	24.9023	62.1746	24.9023	62.6037	24.9023	62.0735	24.9023	62.7031	24.9023	61.9797	24.9023	62.7922	24.9023	61.8953	24.9023	62.8668	24.9023	61.8225	24.9023	62.9228	24.9023	61.7636	24.9023	62.9568	24.9023	61.7206	24.9023	62.9668	24.9023	61.6953	24.9023	62.9522	24.9023	61.689	24.9023	62.9145	24.9023	61.7024	24.9023	62.8568	24.9023	61.7352	24.9023	62.7832	24.9023	61.7863	24.9023	62.6983	24.9023	61.8534	24.9023	62.6063	24.9023	61.9332	24.9023	62.5103	24.9023	62.0224	24.9023	62.4125	24.9023	62.1173	24.9023	62.3138	24.9023	62.2151
26.3672	63.0245	26.3672	62.9185	26.3672	63.1274	26.3672	62.8122	26.3672	63.2244	26.3672	62.7083	26.3672	63.3125	26.3672	62.6096	26.3672	63.3883	26.3672	62.519	26.3672	63.4486	26.3672	62.4389	26.3672	63.4899	26.3672	62.372	26.3672	63.5095	26.3672	62.32	26.3672	63.5057	26.3672	62.2849	26.3672	63.4783	26.3672	62.2674	26.3672	63.4287	26.3672	62.2682	26.3672	63.3601	26.3672	62.287	26.3672	63.2765	26.3672	62.3227	26.3672	63.1827	26.3672	62.3737	26.3672	63.0831	26.3672	62.4379	26.3672	62.9813	26.3672	62.5129	26.3672	62.8801	26.3672	62.5964	26.3672	62.7814	26.3672	62.6864
27.832	63.781	27.832	63.6566	27.832	63.9061	27.832	63.5365	27.832	64.0279	27.832	63.4235	27.832	64.1418	27.832	63.3199	27.832	64.2427	27.832	63.2278	27.832	64.3256	27.832	63.1485	27.832	64.3857	27.832	63.0836	27.832	64.4191	27.832	63.0342	27.832	64.4234	27.832	63.0011	27.832	64.3976	27.832	62.9851	27.832	64.3433	27.832	62.9865	27.832	64.2634	27.832	63.0053	27.832	64.1629	27.832	63.0409	27.832	64.0473	27.832	63.0926	27.832	63.9229	27.832	63.1591	27.832	63.7952	27.832	63.2393	27.832	63.6691	27.832	63.3317	27.832	63.5482	27.832	63.4352
29.2969	65.1143	29.2969	64.9997	29.2969	65.226	29.2969	64.8859	29.2969	65.3308	29.2969	64.7759	29.2969	65.4244	29.2969	64.6726	29.2969	65.5021	29.2969	64.5781	29.2969	65.5595	29.2969	64.4946	29.2969	65.5928	29.2969	64.4237	29.2969	65.5988	29.2969	64.3667	29.2969	65.5761	29.2969	64.3243	29.2969	65.5249	29.2969	64.2972	29.2969	65.4479	29.2969	64.2852	29.2969	65.3493	29.2969	64.2879	29.2969	65.2353	29.2969	64.3048	29.2969	65.1129	29.2969	64.3348	29.2969	64.9889	29.2969	64.377	29.2969	64.8693	29.2969	64.4306	29.2969	64.7586	29.2969	64.4953	29.2969	64.6589	29.2969	64.5712
30.7617	65.6695	30.7617	65.5404	30.7617	65.7941	30.7617	65.4108	30.7617	65.9101	30.7617	65.2842	30.7617	66.0127	30.7617	65.1637	30.7617	66.0973	30.7617	65.052	30.7617	66.1593	30.7617	64.9516	30.7617	66.1949	30.7617	64.8643	30.7617	66.201	30.7617	64.7919	30.7617	66.1762	30.7617	64.7354	30.7617	66.1208	30.7617	64.6957	30.7617	66.037	30.7617	64.6732	30.7617	65.9288	30.7617	64.6679	30.7617	65.8017	30.7617	64.6798	30.7617	65.6622	30.7617	64.7089	30.7617	65.517	30.7617	64.755	30.7617	65.3727	30.7617	64.8182	30.7617	65.235	30.7617	64.8984	30.7617	65.1082	30.7617	64.9954
32.2266	66.6119	32.2266	66.4927	32.2266	66.7278	32.2266	66.3739	32.2266	66.8365	32.2266	66.2587	32.2266	66.9341	32.2266	66.1503	32.2266	67.0165	32.2266	66.0515	32.2266	67.0798	32.2266	65.9645	32.2266	67.1203	32.2266	65.8914	32.2266	67.1356	32.2266	65.8339	32.2266	67.1242	32.2266	65.7931	32.2266	67.0864	32.2266	65.7697	32.2266	67.0242	32.2266	65.7641	32.2266	66.9411	32.2266	65.7761	32.2266	66.8419	32.2266	65.8053	32.2266	66.7317	32.2266	65.8507	32.2266	66.6156	32.2266	65.9111	32.2266	66.4979	32.2266	65.985	32.2266	66.3823	32.2266	66.0708	32.2266	66.2712	32.2266	66.1668
33.6914	66.9873	33.6914	66.86	33.6914	67.1112	33.6914	66.7332	33.6914	67.2272	33.6914	66.6106	33.6914	67.3307	33.6914	66.4955	33.6914	67.4173	33.6914	66.3906	33.6914	67.4827	33.6914	66.2984	33.6914	67.523	33.6914	66.2206	33.6914	67.5356	33.6914	66.1588	33.6914	67.5194	33.6914	66.1137	33.6914	67.4746	33.6914	66.086	33.6914	67.4036	33.6914	66.0758	33.6914	67.3104	33.6914	66.0831	33.6914	67.2	33.6914	66.1075	33.6914	67.0779	33.6914	66.1486	33.6914	66.9498	33.6914	66.2057	33.6914	66.8205	33.6914	66.278	33.6914	66.6943	33.6914	66.3645	33.6914	66.5746	33.6914	66.4639
35.1562	67.6168	35.1562	67.4834	35.1562	67.7466	35.1562	67.3507	35.1562	67.8682	35.1562	67.2223	35.1562	67.977	35.1562	67.1018	35.1562	68.0682	35.1562	66.9919	35.1562	68.137	35.1562	66.8952	35.1562	68.1796	35.1562	66.8137	35.1562	68.193	35.1562	66.7486	35.1562	68.1758	35.1562	66.7011	35.1562	68.1285	35.1562	66.6716	35.1562	68.0534	35.1562	66.6601	35.1562	67.9546	35.1562	66.6667	35.1562	67.8374	35.1562	66.6909	35.1562	67.7079	35.1562	66.7324	35.1562	67.5719	35.1562	66.7907	35.1562	67.4348	35.1562	66.8651	35.1562	67.3012	35.1562	66.9548	35.1562	67.1748	35.1562	67.0586
36.6211	68.5553	36.6211	68.4218	36.6211	68.6838	36.6211	68.2875	36.6211	68.8032	36.6211	68.1561	36.6211	68.9088	36.6211	68.031	36.6211	68.9961	36.6211	67.9154	36.6211	69.0608	36.6211	67.8118	36.6211	69.0991	36.6211	67.7223	36.6211	69.1084	36.6211	67.6487	36.6211	69.0874	36.6211	67.5922	36.6211	69.0364	36.6211	67.5537	36.6211	68.9577	36.6211	67.5338	36.6211	68.8553	36.6211	67.5326	36.6211	68.734	36.6211	67.5505	36.6211	68.5995	36.6211	67.5875	36.6211	68.4577	36.6211	67.6433	36.6211	68.3139	36.6211	67.7177	36.6211	68.1733	36.6211	67.8097	36.6211	68.0401	36.6211	67.9179
38.0859	68.6894	38.0859	68.5379	38.0859	68.8331	38.0859	68.3837	38.0859	68.9637	38.0859	68.2314	38.0859	69.0759	38.0859	68.085	38.0859	69.1646	38.0859	67.9484	38.0859	69.2253	38.0859	67.8244	38.0859	69.2543	38.0859	67.7156	38.0859	69.2494	38.0859	67.6238	38.0859	69.2098	38.0859	67.5504	38.0859	69.1365	38.0859	67.4963	38.0859	69.0327	38.0859	67.4622	38.0859	68.903	38.0859	67.4484	38.0859	68.7534	38.0859	67.4553	38.0859	68.5907	38.0859	67.4831	38.0859	68.4219	38.0859	67.5323	38.0859	68.2536	38.0859	67.6033	38.0859	68.0922	38.0859	67.696	38.0859	67.9428	38.0859	67.8098
39.5508	69.4607	39.5508	69.3136	39.5508	69.6062	39.5508	69.1697	39.5508	69.7444	39.5508	69.0335	39.5508	69.8695	39.5508	68.9085	39.5508	69.9758	39.5508	68.7975	39.5508	70.0581	39.5508	68.7024	39.5508	70.112	39.5508	68.6246	39.5508	70.1344	39.5508	68.5651	39.5508	70.1239	39.5508	68.5241	39.5508	70.0811	39.5508	68.5018	39.5508	70.0084	39.5508	68.498	39.5508	69.9099	39.5508	68.5125	39.5508	69.7909	39.5508	68.545	39.5508	69.6574	39.5508	68.5952	39.5508	69.5153	39.5508	68.6627	39.5508	69.3703	39.5508	68.7472	39.5508	69.2271	39.5508	68.8476	39.5508	69.0901	39.5508	68.9626
41.0156	70.2212	41.0156	70.0764	41.0156	70.3616	41.0156	69.9318	41.0156	70.4925	41.0156	69.7917	41.0156	70.6087	41.0156	69.6597	41.0156	70.7053	41.0156	69.5389	41.0156	70.7772	41.0156	69.4316	41.0156	70.8205	41.0156	69.3397	41.0156	70.8322	41.0156	69.2645	41.0156	70.8106	41.0156	69.2068	41.0156	70.7558	41.0156	69.1671	41.0156	70.6701	41.0156	69.1456	41.0156	70.5571	41.0156	69.1424	41.0156	70.4224	41.0156	69.1578	41.0156	70.2724	41.0156	69.1921	41.0156	70.114	41.0156	69.2457	41.0156	69.9541	41.0156	69.319	41.0156	69.7991	41.0156	69.4121	41.0156	69.6545	41.0156	69.5245
42.4805	70.6382	42.4805	70.4863	42.4805	70.781	42.4805	70.3302	42.4805	70.91	42.4805	70.1747	42.4805	71.0201	42.4805	70.0241	42.4805	71.1067	42.4805	69.8824	42.4805	71.1656	42.4805	69.7534	42.4805	71.1934	42.4805	69.6399	42.4805	71.1881	42.4805	69.5443	42.4805	71.1493	42.4805	69.4687	42.4805	71.0781	42.4805	69.4141	42.4805	70.978	42.4805	69.3816	42.4805	70.8535	42.4805	69.3718	42.4805	70.7105	42.4805	69.3848	42.4805	70.555	42.4805	69.4208	42.4805	70.393	42.4805	69.4796	42.4805	70.2301	42.4805	69.5607	42.4805	70.0714	42.4805	69.6628	42.4805	69.9213	42.4805	69.784
43.9453	71.2778	43.9453	71.1233	43.9453	71.4268	43.9453	70.9684	43.9453	71.5654	43.9453	70.8177	43.9453	71.6883	43.9453	70.6755	43.9453	71.7906	43.9453	70.5456	43.9453	71.8678	43.9453	70.4314	43.9453	71.9161	43.9453	70.3353	43.9453	71.933	43.9453	70.2595	43.9453	71.9174	43.9453	70.2054	43.9453	71.87	43.9453	70.1737	43.9453	71.7933	43.9453	70.1648	43.9453	71.6912	43.9453	70.1787	43.9453	71.5685	43.9453	70.2148	43.9453	71.4307	43.9453	70.2723	43.9453	71.283	43.9453	70.3503	43.9453	71.1306	43.9453	70.4472	43.9453	70.9781	43.9453	70.5611	43.9453	70.8298	43.9453	70.6897
45.4102	71.7388	45.4102	71.5785	45.4102	71.8917	45.4102	71.4158	45.4102	72.0319	45.4102	71.2554	45.4102	72.1544	45.4102	71.1017	45.4102	72.2539	45.4102	70.9588	45.4102	72.3259	45.4102	70.83	45.4102	72.3665	45.4102	70.7184	45.4102	72.3733	45.4102	70.6264	45.4102	72.3452	45.4102	70.5558	45.4102	72.2834	45.4102	70.5079	45.4102	72.1906	45.4102	70.4835	45.4102	72.0711	45.4102	70.4832	45.4102	71.9305	45.4102	70.5072	45.4102	71.7747	45.4102	70.5552	45.4102	71.6097	45.4102	70.6267	45.4102	71.4414	45.4102	70.7206	45.4102	71.2752	45.4102	70.8351	45.4102	71.1159	45.4102	70.9679
46.875	72.5127	46.875	72.3532	46.875	72.6639	46.875	72.1902	46.875	72.8018	46.875	72.0282	46.875	72.9211	46.875	71.8713	46.875	73.0169	46.875	71.7229	46.875	73.0849	46.875	71.5862	46.875	73.1214	46.875	71.4639	46.875	73.124	46.875	71.3584	46.875	73.0918	46.875	71.2719	46.875	73.0257	46.875	71.2066	46.875	72.9281	46.875	71.1643	46.875	72.8032	46.875	71.1469	46.875	72.6557	46.875	71.1561	46.875	72.4913	46.875	71.1932	46.875	72.3154	46.875	71.2588	46.875	72.134	46.875	71.3527	46.875	71.953	46.875	71.473	46.875	71.7784	46.875	71.6165
48.3398	72.9057	48.3398	72.7418	48.3398	73.0634	48.3398	72.5771	48.3398	73.2088	48.3398	72.4167	48.3398	73.3363	48.3398	72.2649	48.3398	73.4402	48.3398	72.1251	48.3398	73.5161	48.3398	72.0001	48.3398	73.5604	48.3398	71.8922	48.3398	73.571	48.3398	71.8031	48.3398	73.5474	48.3398	71.7345	48.3398	73.491	48.3398	71.6878	48.3398	73.4045	48.3398	71.6643	48.3398	73.2925	48.3398	71.6654	48.3398	73.1598	48.3398	71.6921	48.3398	73.0116	48.3398	71.7451	48.3398	72.8526	48.3398	71.8243	48.3398	72.6874	48.3398	71.9283	48.3398	72.5201	48.3398	72.0544	48.3398	72.3555	48.3398	72.1985
51.2695	73.8221	51.2695	73.6615	51.2695	73.9777	51.2695	73.5011	51.2695	74.1226	51.2695	73.3458	51.2695	74.2512	51.2695	73.1998	51.2695	74.3578	51.2695	73.0667	51.2695	74.4369	51.2695	72.9494	51.2695	74.4842	51.2695	72.8504	51.2695	74.4966	51.2695	72.7712	51.2695	74.4728	51.2695	72.7131	51.2695	74.4135	51.2695	72.6765	51.2695	74.3214	51.2695	72.6616	51.2695	74.2012	51.2695	72.6682	51.2695	74.059	51.2695	72.6958	51.2695	73.9019	51.2695	72.7437	51.2695	73.737	51.2695	72.8112	51.2695	73.5714	51.2695	72.8975	51.2695	73.4109	51.2695	73.0019	51.2695	73.2605	51.2695	73.1234
52.7344	74.2726	52.7344	74.106	52.7344	74.4364	52.7344	73.9428	52.7344	74.5911	52.7344	73.7887	52.7344	74.7306	52.7344	73.6489	52.7344	74.8492	52.7344	73.5275	52.7344	74.9422	52.7344	73.4281	52.7344	75.006	52.7344	73.3529	52.7344	75.0385	52.7344	73.3031	52.7344	75.0393	52.7344	73.2791	52.7344	75.0096	52.7344	73.2803	52.7344	74.952	52.7344	73.3053	52.7344	74.87	52.7344	73.3522	52.7344	74.7677	52.7344	73.4189	52.7344	74.6495	52.7344	73.5029	52.7344	74.5197	52.7344	73.6018	52.7344	74.3828	52.7344	73.7134	52.7344	74.2425	52.7344	73.8356	52.7344	74.1026	52.7344	73.966
54.1992	74.7602	54.1992	74.5909	54.1992	74.9224	54.1992	74.4207	54.1992	75.0714	54.1992	74.2557	54.1992	75.2017	54.1992	74.1016	54.1992	75.3085	54.1992	73.9638	54.1992	75.3878	54.1992	73.847	54.1992	75.4374	54.1992	73.7549	54.1992	75.4564	54.1992	73.6904	54.1992	75.4459	54.1992	73.6551	54.1992	75.4083	54.1992	73.6496	54.1992	75.3472	54.1992	73.6733	54.1992	75.2668	54.1992	73.7243	54.1992	75.171	54.1992	73.8001	54.1992	75.063	54.1992	73.897	54.1992	74.9454	54.1992	74.011	54.1992	74.8199	54.1992	74.1377	54.1992	74.6878	54.1992	74.2726	54.1992	74.5509	54.1992	74.4116
55.6641	75.6301	55.6641	75.4814	55.6641	75.7618	55.6641	75.3202	55.6641	75.8722	55.6641	75.1513	55.6641	75.9575	55.6641	74.9798	55.6641	76.0145	55.6641	74.8108	55.6641	76.0406	55.6641	74.6495	55.6641	76.0342	55.6641	74.5008	55.6641	75.995	55.6641	74.3696	55.6641	75.9243	55.6641	74.2601	55.6641	75.8251	55.6641	74.176	55.6641	75.7021	55.6641	74.1202	55.6641	75.5615	55.6641	74.0943	55.6641	75.4094	55.6641	74.0989	55.6641	75.2517	55.6641	74.133	55.6641	75.0933	55.6641	74.1945	55.6641	74.9373	55.6641	74.2802	55.6641	74.7864	55.6641	74.3861	55.6641	74.6426	55.6641	74.5081
58.5938	76.5578	58.5938	76.3929	58.5938	76.7045	58.5938	76.2147	58.5938	76.828	58.5938	76.0282	58.5938	76.9236	58.5938	75.8382	58.5938	76.9868	58.5938	75.6493	58.5938	77.0141	58.5938	75.466	58.5938	77.0025	58.5938	75.2925	58.5938	76.9508	58.5938	75.1329	58.5938	76.8592	58.5938	74.9909	58.5938	76.7299	58.5938	74.8702	58.5938	76.5671	58.5938	74.7739	58.5938	76.3771	58.5938	74.7049	58.5938	76.1673	58.5938	74.6658	58.5938	75.9465	58.5938	74.6586	58.5938	75.7234	58.5938	74.6846	58.5938	75.5065	58.5938	74.7448	58.5938	75.3036	58.5938	74.8387	58.5938	75.1214	58.5938	74.9651
60.0586	76.8668	60.0586	76.7	60.0586	77.0203	60.0586	76.525	60.0586	77.1549	60.0586	76.3468	60.0586	77.2652	60.0586	76.1698	60.0586	77.3463	60.0586	75.9979	60.0586	77.3936	60.0586	75.8342	60.0586	77.4036	60.0586	75.6817	60.0586	77.3741	60.0586	75.5428	60.0586	77.3043	60.0586	75.4199	60.0586	77.1951	60.0586	75.3149	60.0586	77.0494	60.0586	75.2302	60.0586	76.8717	60.0586	75.1681	60.0586	76.6686	60.0586	75.1313	60.0586	76.448	60.0586	75.1227	60.0586	76.2194	60.0586	75.1454	60.0586	75.993	60.0586	75.2022	60.0586	75.779	60.0586	75.295	60.0586	75.5869	60.0586	75.4239
62.9883	77.4957	62.9883	77.3397	62.9883	77.6419	62.9883	77.1789	62.9883	77.7733	62.9883	77.0181	62.9883	77.8854	62.9883	76.8621	62.9883	77.9736	62.9883	76.7149	62.9883	78.0345	62.9883	76.5804	62.9883	78.0648	62.9883	76.4617	62.9883	78.0629	62.9883	76.3615	62.9883	78.0279	62.9883	76.2819	62.9883	77.9608	62.9883	76.2243	62.9883	77.8639	62.9883	76.1899	62.9883	77.7408	62.9883	76.1793	62.9883	77.5965	62.9883	76.1927	62.9883	77.4363	62.9883	76.2303	62.9883	77.2664	62.9883	76.2919	62.9883	77.0932	62.9883	76.3772	62.9883	76.9228	62.9883	76.4852	62.9883	76.7614	62.9883	76.6142
64.4531	77.7497	64.4531	77.5914	64.4531	77.9002	64.4531	77.4303	64.4531	78.0379	64.4531	77.2713	64.4531	78.1579	64.4531	77.1191	64.4531	78.2557	64.4531	76.9781	64.4531	78.3273	64.4531	76.852	64.4531	78.3694	64.4531	76.7441	64.4531	78.3799	64.4531	76.657	64.4531	78.3582	64.4531	76.5924	64.4531	78.3051	64.4531	76.5517	64.4531	78.223	64.4531	76.5353	64.4531	78.1155	64.4531	76.5434	64.4531	77.9872	64.4531	76.5755	64.4531	77.8428	64.4531	76.631	64.4531	77.6874	64.4531	76.7088	64.4531	77.5263	64.4531	76.8075	64.4531	77.3646	64.4531	76.9253	64.4531	77.2076	64.4531	77.0598
67.3828	78.4529	67.3828	78.2888	67.3828	78.6098	67.3828	78.123	67.3828	78.7541	67.3828	77.9607	67.3828	78.8803	67.3828	77.807	67.3828	78.9833	67.3828	77.6664	67.3828	79.0587	67.3828	77.5428	67.3828	79.1029	67.3828	77.4399	67.3828	79.114	67.3828	77.3601	67.3828	79.0918	67.3828	77.3053	67.3828	79.0381	67.3828	77.2764	67.3828	78.9564	67.3828	77.2735	67.3828	78.8513	67.3828	77.296	67.3828	78.7281	67.3828	77.3427	67.3828	78.592	67.3828	77.4115	67.3828	78.4475	67.3828	77.5004	67.3828	78.2987	67.3828	77.6067	67.3828	78.1492	67.3828	77.7277	67.3828	78.0021	67.3828	77.8605
68.8477	78.833	68.8477	78.6634	68.8477	78.9957	68.8477	78.4928	68.8477	79.1457	68.8477	78.3265	68.8477	79.2771	68.8477	78.1697	68.8477	79.3844	68.8477	78.0272	68.8477	79.4627	68.8477	77.9029	68.8477	79.5087	68.8477	77.8003	68.8477	79.5205	68.8477	77.7221	68.8477	79.4981	68.8477	77.67	68.8477	79.4437	68.8477	77.645	68.8477	79.3611	68.8477	77.647	68.8477	79.2555	68.8477	77.6752	68.8477	79.1323	68.8477	77.7279	68.8477	78.9967	68.8477	77.8028	68.8477	78.8533	68.8477	77.8973	68.8477	78.7058	68.8477	78.0084	68.8477	78.5572	68.8477	78.133	68.8477	78.4104	68.8477	78.268
71.7773	79.6753	71.7773	79.5059	71.7773	79.8354	71.7773	79.3332	71.7773	79.9803	71.7773	79.1631	71.7773	80.1039	71.7773	79.0009	71.7773	80.2012	71.7773	78.8517	71.7773	80.2677	71.7773	78.7197	71.7773	80.3005	71.7773	78.6084	71.7773	80.2982	71.7773	78.5208	71.7773	80.2615	71.7773	78.4587	71.7773	80.1928	71.7773	78.4232	71.7773	80.0964	71.7773	78.4145	71.7773	79.9776	71.7773	78.4317	71.7773	79.8425	71.7773	78.4734	71.7773	79.6969	71.7773	78.5374	71.7773	79.5461	71.7773	78.6213	71.7773	79.3944	71.7773	78.7222	71.7773	79.2452	71.7773	78.8375	71.7773	79.1012	71.7773	78.9646
74.707	80.3844	74.707	80.2205	74.707	80.5384	74.707	80.0526	74.707	80.6765	74.707	79.8865	74.707	80.7933	74.707	79.7279	74.707	80.884	74.707	79.5818	74.707	80.9447	74.707	79.4529	74.707	80.973	74.707	79.345	74.707	80.9679	74.707	79.2609	74.707	80.9306	74.707	79.2025	74.707	80.8636	74.707	79.1708	74.707	80.7712	74.707	79.1654	74.707	80.6584	74.707	79.1853	74.707	80.5308	74.707	79.2285	74.707	80.3935	74.707	79.2924	74.707	80.2515	74.707	79.3745	74.707	80.1085	74.707	79.4718	74.707	79.9677	74.707	79.5819	74.707	79.8317	74.707	79.7025
77.6367	81.0147	77.6367	80.8504	77.6367	81.1681	77.6367	80.6811	77.6367	81.305	77.6367	80.5126	77.6367	81.4201	77.6367	80.3505	77.6367	81.5088	77.6367	80.2003	77.6367	81.5674	77.6367	80.0667	77.6367	81.5936	77.6367	79.9539	77.6367	81.5866	77.6367	79.8652	77.6367	81.5473	77.6367	79.8029	77.6367	81.4787	77.6367	79.7681	77.6367	81.3848	77.6367	79.761	77.6367	81.2712	77.6367	79.7804	77.6367	81.1431	77.6367	79.8246	77.6367	81.006	77.6367	79.8907	77.6367	80.8643	77.6367	79.9758	77.6367	80.7217	77.6367	80.0765	77.6367	80.5809	77.6367	80.1898	77.6367	80.4441	77.6367	80.3131
79.1016	81.3677	79.1016	81.2042	79.1016	81.5202	79.1016	81.0357	79.1016	81.6563	79.1016	80.8678	79.1016	81.7707	79.1016	80.7063	79.1016	81.8586	79.1016	80.5563	79.1016	81.9163	79.1016	80.4225	79.1016	81.9415	79.1016	80.3089	79.1016	81.9333	79.1016	80.2188	79.1016	81.8927	79.1016	80.1543	79.1016	81.8224	79.1016	80.1167	79.1016	81.7268	79.1016	80.1061	79.1016	81.6111	79.1016	80.1217	79.1016	81.4809	79.1016	80.1618	79.1016	81.3413	79.1016	80.224	79.1016	81.1971	79.1016	80.3057	79.1016	81.052	79.1016	80.4039	79.1016	80.909	79.1016	80.5158	79.1016	80.7705	79.1016	80.6387
82.0312	81.9592	82.0312	81.7933	82.0312	82.1141	82.0312	81.6225	82.0312	82.2521	82.0312	81.4528	82.0312	82.3677	82.0312	81.2903	82.0312	82.4559	82.0312	81.1402	82.0312	82.5131	82.0312	81.0075	82.0312	82.5365	82.0312	80.896	82.0312	82.5253	82.0312	80.8085	82.0312	82.4805	82.0312	80.7468	82.0312	82.405	82.0312	80.7116	82.0312	82.3033	82.0312	80.7024	82.0312	82.181	82.0312	80.7178	82.0312	82.0443	82.0312	80.7558	82.0312	81.8991	82.0312	80.8141	82.0312	81.7508	82.0312	80.89	82.0312	81.6039	82.0312	80.9812	82.0312	81.4619	82.0312	81.0855	82.0312	81.3271	82.0312	81.2012
84.9609	82.3249	84.9609	82.1565	84.9609	82.485	84.9609	81.9862	84.9609	82.6309	84.9609	81.8201	84.9609	82.757	84.9609	81.6644	84.9609	82.8583	84.9609	81.5245	84.9609	82.9308	84.9609	81.4053	84.9609	82.972	84.9609	81.3106	84.9609	82.9812	84.9609	81.2429	84.9609	82.9592	84.9609	81.2032	84.9609	82.9086	84.9609	81.1912	84.9609	82.8331	84.9609	81.2053	84.9609	82.7368	84.9609	81.2431	84.9609	82.6238	84.9609	81.3015	84.9609	82.4982	84.9609	81.3775	84.9609	82.3638	84.9609	81.4687	84.9609	82.2243	84.9609	81.5727	84.9609	82.0837	84.9609	81.6878	84.9609	81.9454	84.9609	81.8127
87.8906	82.8909	87.8906	82.7151	87.8906	83.0556	87.8906	82.5352	87.8906	83.2026	87.8906	82.3582	87.8906	83.3257	87.8906	82.191	87.8906	83.42	87.8906	82.04	87.8906	83.4823	87.8906	81.9113	87.8906	83.5115	87.8906	81.8097	87.8906	83.5087	87.8906	81.739	87.8906	83.477	87.8906	81.7014	87.8906	83.4214	87.8906	81.6974	87.8906	83.3475	87.8906	81.7255	87.8906	83.2609	87.8906	81.783	87.8906	83.1656	87.8906	81.8656	87.8906	83.0642	87.8906	81.9683	87.8906	82.9576	87.8906	82.0858	87.8906	82.8456	87.8906	82.2126	87.8906	82.7278	87.8906	82.3439	87.8906	82.6041	87.8906	82.4755
90.8203	83.3894	90.8203	83.2101	90.8203	83.554	90.8203	83.0235	90.8203	83.6972	90.8203	82.8371	90.8203	83.8132	90.8203	82.6585	90.8203	83.8972	90.8203	82.495	90.8203	83.946	90.8203	82.3535	90.8203	83.9587	90.8203	82.2398	90.8203	83.9367	90.8203	82.1582	90.8203	83.884	90.8203	82.1116	90.8203	83.8067	90.8203	82.1005	90.8203	83.7124	90.8203	82.1238	90.8203	83.6087	90.8203	82.1781	90.8203	83.5018	90.8203	82.2587	90.8203	83.3955	90.8203	82.3597	90.8203	83.2904	90.8203	82.4748	90.8203	83.1852	90.8203	82.5979	90.8203	83.0774	90.8203	82.7233	90.8203	82.9649	90.8203	82.8465
95.2148	84.346	95.2148	84.1637	95.2148	84.5093	95.2148	83.9701	95.2148	84.6465	95.2148	83.7729	95.2148	84.7514	95.2148	83.58	95.2148	84.8192	95.2148	83.3984	95.2148	84.8468	95.2148	83.2349	95.2148	84.8334	95.2148	83.0952	95.2148	84.7807	95.2148	82.984	95.2148	84.6928	95.2148	82.9046	95.2148	84.5765	95.2148	82.8585	95.2148	84.4405	95.2148	82.8457	95.2148	84.294	95.2148	82.8643	95.2148	84.1455	95.2148	82.9107	95.2148	84.0016	95.2148	82.9804	95.2148	83.8656	95.2148	83.0679	95.2148	83.7381	95.2148	83.1679	95.2148	83.6173	95.2148	83.2755	95.2148	83.5009	95.2148	83.387
98.1445	84.7678	98.1445	84.5984	98.1445	84.9169	98.1445	84.415	98.1445	85.0398	98.1445	84.2245	98.1445	85.1318	98.1445	84.0342	98.1445	85.189	98.1445	83.8512	98.1445	85.2091	98.1445	83.6823	98.1445	85.1915	98.1445	83.5338	98.1445	85.1372	98.1445	83.4111	98.1445	85.0496	98.1445	83.3186	98.1445	84.9341	98.1445	83.2588	98.1445	84.7977	98.1445	83.2325	98.1445	84.6487	98.1445	83.2386	98.1445	84.4952	98.1445	83.274	98.1445	84.3443	98.1445	83.3341	98.1445	84.2008	98.1445	83.4133	98.1445	84.067	98.1445	83.506	98.1445	83.9427	98.1445	83.6074	98.1445	83.8258	98.1445	83.7144
101.074	85.011	101.074	84.843	101.074	85.1582	101.074	84.6602	101.074	85.2789	101.074	84.4694	101.074	85.3687	101.074	84.2776	101.074	85.4239	101.074	84.0918	101.074	85.4425	101.074	83.9188	101.074	85.424	101.074	83.765	101.074	85.37	101.074	83.6361	101.074	85.2839	101.074	83.5364	101.074	85.171	101.074	83.4693	101.074	85.0382	101.074	83.4361	101.074	84.8929	101.074	83.4364	101.074	84.7423	101.074	83.4679	101.074	84.5922	101.074	83.5265	101.074	84.4466	101.074	83.607	101.074	84.3076	101.074	83.7039	101.074	84.1753	101.074	83.8121	101.074	84.049	101.074	83.9278
105.469	85.3963	105.469	85.2076	105.469	85.5639	105.469	85.0055	105.469	85.7033	105.469	84.7984	105.469	85.8086	105.469	84.5949	105.469	85.8754	105.469	84.4031	105.469	85.9009	105.469	84.2304	105.469	85.8846	105.469	84.083	105.469	85.8283	105.469	83.9655	105.469	85.7362	105.469	83.8808	105.469	85.6149	105.469	83.8299	105.469	85.4724	105.469	83.8121	105.469	85.3175	105.469	83.8252	105.469	85.1583	105.469	83.866	105.469	85.0013	105.469	83.9301	105.469	84.851	105.469	84.0128	105.469	84.7091	105.469	84.1094	105.469	84.5757	105.469	84.216	105.469	84.4497	105.469	84.3299
108.398	85.8886	108.398	85.6997	108.398	86.0551	108.398	85.4959	108.398	86.1923	108.398	85.2855	108.398	86.2947	108.398	85.0767	108.398	86.3581	108.398	84.8777	108.398	86.3801	108.398	84.6958	108.398	86.36	108.398	84.5372	108.398	86.2996	108.398	84.4066	108.398	86.2024	108.398	84.3071	108.398	86.0741	108.398	84.2401	108.398	85.9217	108.398	84.2051	108.398	85.7529	108.398	84.2007	108.398	85.5758	108.398	84.224	108.398	85.3976	108.398	84.2717	108.398	85.2243	108.398	84.3403	108.398	85.0603	108.398	84.4263	108.398	84.9079	108.398	84.5272	108.398	84.7683	108.398	84.6414
112.793	86.3064	112.793	86.1251	112.793	86.465	112.793	85.9288	112.793	86.5946	112.793	85.7261	112.793	86.6903	112.793	85.526	112.793	86.7488	112.793	85.3375	112.793	86.7688	112.793	85.169	112.793	86.7516	112.793	85.0276	112.793	86.7003	112.793	84.9184	112.793	86.6207	112.793	84.8442	112.793	86.52	112.793	84.8054	112.793	86.4056	112.793	84.8004	112.793	86.284	112.793	84.8259	112.793	86.1595	112.793	84.8779	112.793	86.034	112.793	84.9521	112.793	85.9075	112.793	85.0442	112.793	85.7794	112.793	85.1503	112.793	85.6498	112.793	85.2671	112.793	85.5197	112.793	85.3912
117.188	86.5564	117.188	86.3533	117.188	86.7335	117.188	86.1323	117.188	86.8778	117.188	85.9021	117.188	86.9836	117.188	85.6725	117.188	87.0467	117.188	85.4536	117.188	87.0648	117.188	85.2554	117.188	87.0379	117.188	85.0872	117.188	86.969	117.188	84.9568	117.188	86.8642	117.188	84.8696	117.188	86.7328	117.188	84.8279	117.188	86.5857	117.188	84.8306	117.188	86.4343	117.188	84.8737	117.188	86.2877	117.188	84.9505	117.188	86.1514	117.188	85.0529	117.188	86.0261	117.188	85.1722	117.188	85.909	117.188	85.3003	117.188	85.7948	117.188	85.4303	117.188	85.6786	117.188	85.5572
120.117	86.8238	120.117	86.6262	120.117	86.9964	120.117	86.4112	120.117	87.1367	120.117	86.1872	120.117	87.2381	120.117	85.9623	120.117	87.2956	120.117	85.7451	120.117	87.3061	120.117	85.5439	120.117	87.2688	120.117	85.3666	120.117	87.1864	120.117	85.2204	120.117	87.0648	120.117	85.1112	120.117	86.9132	120.117	85.0428	120.117	86.743	120.117	85.0164	120.117	86.5667	120.117	85.0304	120.117	86.3954	120.117	85.0806	120.117	86.2366	120.117	85.1601	120.117	86.0936	120.117	85.2607	120.117	85.9647	120.117	85.3742	120.117	85.845	120.117	85.493	120.117	85.7288	120.117	85.6119
124.512	87.2101	124.512	87.012	124.512	87.3845	124.512	86.7987	124.512	87.5273	124.512	86.5787	124.512	87.6318	124.512	86.3603	124.512	87.6929	124.512	86.1517	124.512	87.7076	124.512	85.9603	124.512	87.6753	124.512	85.7928	124.512	87.5984	124.512	85.6549	124.512	87.4818	124.512	85.5508	124.512	87.3333	124.512	85.483	124.512	87.1625	124.512	85.4523	124.512	86.9803	124.512	85.4569	124.512	86.7974	124.512	85.4935	124.512	86.6229	124.512	85.5566	124.512	86.4626	124.512	85.64	124.512	86.3181	124.512	85.7372	124.512	86.1876	124.512	85.8426	124.512	86.0672	124.512	85.9529
128.906	87.4466	128.906	87.2449	128.906	87.6217	128.906	87.0252	128.906	87.7624	128.906	86.7965	128.906	87.8625	128.906	86.5678	128.906	87.9177	128.906	86.3476	128.906	87.9259	128.906	86.144	128.906	87.8874	128.906	85.9644	128.906	87.805	128.906	85.8152	128.906	87.684	128.906	85.7014	128.906	87.5319	128.906	85.6265	128.906	87.3579	128.906	85.5917	128.906	87.1724	128.906	85.5959	128.906	86.9858	128.906	85.6352	128.906	86.8072	128.906	85.7035	128.906	86.6429	128.906	85.7932	128.906	86.4951	128.906	85.8967	128.906	86.362	128.906	86.0076	128.906	86.2392	128.906	86.1219
133.301	87.5993	133.301	87.4066	133.301	87.7642	133.301	87.1945	133.301	87.8943	133.301	86.9723	133.301	87.9848	133.301	86.7494	133.301	88.0331	133.301	86.5343	133.301	88.0389	133.301	86.3346	133.301	88.0037	133.301	86.1565	133.301	87.9309	133.301	86.0049	133.301	87.8249	133.301	85.8835	133.301	87.6906	133.301	85.7948	133.301	87.5336	133.301	85.7407	133.301	87.3594	133.301	85.7214	133.301	87.1745	133.301	85.7357	133.301	86.9858	133.301	85.7807	133.301	86.8003	133.301	85.8521	133.301	86.6241	133.301	85.9447	133.301	86.461	133.301	86.0538	133.301	86.312	133.301	86.1766
139.16	87.3124	139.16	87.1036	139.16	87.4955	139.16	86.8792	139.16	87.6451	139.16	86.6512	139.16	87.7559	139.16	86.4327	139.16	87.8252	139.16	86.2368	139.16	87.8533	139.16	86.0747	139.16	87.8434	139.16	85.9548	139.16	87.8018	139.16	85.8809	139.16	87.7367	139.16	85.8528	139.16	87.6572	139.16	85.8664	139.16	87.5709	139.16	85.9151	139.16	87.4822	139.16	85.9913	139.16	87.3916	139.16	86.0876	139.16	87.2967	139.16	86.1981	139.16	87.1945	139.16	86.3179	139.16	87.083	139.16	86.4439	139.16	86.9627	139.16	86.5736	139.16	86.8357	139.16	86.705
143.555	87.624	143.555	87.4034	143.555	87.8118	143.555	87.1597	143.555	87.9586	143.555	86.9041	143.555	88.0579	143.555	86.649	143.555	88.1059	143.555	86.4075	143.555	88.1016	143.555	86.1931	143.555	88.0474	143.555	86.0183	143.555	87.9501	143.555	85.8934	143.555	87.8203	143.555	85.8248	143.555	87.6723	143.555	85.8138	143.555	87.5218	143.555	85.8562	143.555	87.3827	143.555	85.9432	143.555	87.2642	143.555	86.0629	143.555	87.1679	143.555	86.2026	143.555	87.0888	143.555	86.3504	143.555	87.017	143.555	86.4959	143.555	86.9419	143.555	86.6315	143.555	86.8552	143.555	86.7521
147.949	87.8179	147.949	87.5975	147.949	88.003	147.949	87.3507	147.949	88.1454	147.949	87.0876	147.949	88.2392	147.949	86.8189	147.949	88.2804	147.949	86.5562	147.949	88.2673	147.949	86.3112	147.949	88.2015	147.949	86.0953	147.949	88.0876	147.949	85.9189	147.949	87.9341	147.949	85.7902	147.949	87.7523	147.949	85.7144	147.949	87.556	147.949	85.6926	147.949	87.3595	147.949	85.7217	147.949	87.1754	147.949	85.7943	147.949	87.0124	147.949	85.8998	147.949	86.8727	147.949	86.026	147.949	86.7523	147.949	86.1607	147.949	86.6428	147.949	86.294	147.949	86.5343	147.949	86.4191
153.809	87.7523	153.809	87.5295	153.809	87.9378	153.809	87.279	153.809	88.0781	153.809	87.0117	153.809	88.1677	153.809	86.7394	153.809	88.2038	153.809	86.4739	153.809	88.1869	153.809	86.2266	153.809	88.1205	153.809	86.0083	153.809	88.0109	153.809	85.8278	153.809	87.8671	153.809	85.6923	153.809	87.6991	153.809	85.6062	153.809	87.5178	153.809	85.5709	153.809	87.3331	153.809	85.5844	153.809	87.1531	153.809	85.6413	153.809	86.9832	153.809	85.7338	153.809	86.8258	153.809	85.8518	153.809	86.6795	153.809	85.9854	153.809	86.5406	153.809	86.1256	153.809	86.404	153.809	86.266
159.668	87.8717	159.668	87.639	159.668	88.0667	159.668	87.3786	159.668	88.2162	159.668	87.1021	159.668	88.3146	159.668	86.8218	159.668	88.3588	159.668	86.5506	159.668	88.3483	159.668	86.3008	159.668	88.2855	159.668	86.0833	159.668	88.1756	159.668	85.9074	159.668	88.0268	159.668	85.7797	159.668	87.8495	159.668	85.7043	159.668	87.6563	159.668	85.6817	159.668	87.46	159.668	85.7091	159.668	87.2725	159.668	85.7804	159.668	87.1022	159.668	85.8867	159.668	86.9523	159.668	86.0169	159.668	86.8194	159.668	86.1596	159.668	86.696	159.668	86.3041	159.668	86.5728	159.668	86.4429
165.527	88.0803	165.527	87.858	165.527	88.2651	165.527	87.6082	165.527	88.4045	165.527	87.3425	165.527	88.4934	165.527	87.0736	165.527	88.5294	165.527	86.8145	165.527	88.5137	165.527	86.5774	165.527	88.4504	165.527	86.373	165.527	88.3466	165.527	86.2094	165.527	88.2112	165.527	86.0919	165.527	88.0537	165.527	86.0229	165.527	87.8832	165.527	86.0019	165.527	87.708	165.527	86.0255	165.527	87.5353	165.527	86.0884	165.527	87.3711	165.527	86.1827	165.527	87.2191	165.527	86.2995	165.527	87.0797	165.527	86.4292	165.527	86.9495	165.527	86.563	165.527	86.823	165.527	86.6949
171.387	87.8927	171.387	87.6702	171.387	88.073	171.387	87.4162	171.387	88.203	171.387	87.1442	171.387	88.2782	171.387	86.8691	171.387	88.2975	171.387	86.6063	171.387	88.2634	171.387	86.3702	171.387	88.1819	171.387	86.1732	171.387	88.0622	171.387	86.0242	171.387	87.9156	171.387	85.9281	171.387	87.7542	171.387	85.8858	171.387	87.5893	171.387	85.8941	171.387	87.4304	171.387	85.9469	171.387	87.2843	171.387	86.0355	171.387	87.1547	171.387	86.1496	171.387	87.0422	171.387	86.2782	171.387	86.9433	171.387	86.4106	171.387	86.8509	171.387	86.5376	171.387	86.7567	171.387	86.6534
177.246	87.6828	177.246	87.4463	177.246	87.8761	177.246	87.1773	177.246	88.0181	177.246	86.8894	177.246	88.1036	177.246	86.5979	177.246	88.1306	177.246	86.3198	177.246	88.1007	177.246	86.0715	177.246	88.0196	177.246	85.8673	177.246	87.8968	177.246	85.7171	177.246	87.7447	177.246	85.6253	177.246	87.5767	177.246	85.591	177.246	87.405	177.246	85.6086	177.246	87.2387	177.246	85.6693	177.246	87.0832	177.246	85.7628	177.246	86.9408	177.246	85.8779	177.246	86.8115	177.246	86.004	177.246	86.694	177.246	86.132	177.246	86.5849	177.246	86.2551	177.246	86.479	177.246	86.3705
183.105	87.6326	183.105	87.398	183.105	87.8239	183.105	87.1305	183.105	87.964	183.105	86.8424	183.105	88.0474	183.105	86.5477	183.105	88.0719	183.105	86.2619	183.105	88.0389	183.105	86.0012	183.105	87.9535	183.105	85.781	183.105	87.825	183.105	85.6143	183.105	87.6656	183.105	85.5092	183.105	87.4895	183.105	85.468	183.105	87.3109	183.105	85.4867	183.105	87.1418	183.105	85.5561	183.105	86.9904	183.105	85.6637	183.105	86.8604	183.105	85.7961	183.105	86.7497	183.105	85.9405	183.105	86.6521	183.105	86.0859	183.105	86.5584	183.105	86.2239	183.105	86.4595	183.105	86.3489
188.965	87.5143	188.965	87.2641	188.965	87.7127	188.965	86.9748	188.965	87.8503	188.965	86.6614	188.965	87.922	188.965	86.3411	188.965	87.927	188.965	86.032	188.965	87.8689	188.965	85.7519	188.965	87.7566	188.965	85.5164	188.965	87.603	188.965	85.3381	188.965	87.4251	188.965	85.2244	188.965	87.2413	188.965	85.1776	188.965	87.0685	188.965	85.1946	188.965	86.9182	188.965	85.2679	188.965	86.7945	188.965	85.3865	188.965	86.6939	188.965	85.5374	188.965	86.6077	188.965	85.7064	188.965	86.5244	188.965	85.88	188.965	86.433	188.965	86.0462	188.965	86.3251	188.965	86.1962
196.289	87.7827	196.289	87.5281	196.289	87.9843	196.289	87.2318	196.289	88.1238	196.289	86.9077	196.289	88.1953	196.289	86.572	196.289	88.1959	196.289	86.2424	196.289	88.1266	196.289	85.9371	196.289	87.9928	196.289	85.6733	196.289	87.8039	196.289	85.4654	196.289	87.5736	196.289	85.323	196.289	87.319	196.289	85.2497	196.289	87.0602	196.289	85.2429	196.289	86.8187	196.289	85.2945	196.289	86.6142	196.289	85.3925	196.289	86.4594	196.289	85.5229	196.289	86.3539	196.289	85.6704	196.289	86.2838	196.289	85.8199	196.289	86.2269	196.289	85.9576	196.289	86.1613	196.289	86.0729
203.613	87.6379	203.613	87.4002	203.613	87.8203	203.613	87.1172	203.613	87.9403	203.613	86.8022	203.613	87.9945	203.613	86.4704	203.613	87.9828	203.613	86.1391	203.613	87.9089	203.613	85.8264	203.613	87.7797	203.613	85.5502	203.613	87.6057	203.613	85.3268	203.613	87.3993	203.613	85.1691	203.613	87.1735	203.613	85.0843	203.613	86.9406	203.613	85.0726	203.613	86.7128	203.613	85.1267	203.613	86.503	203.613	85.2326	203.613	86.325	203.613	85.3721	203.613	86.1888	203.613	85.5251	203.613	86.0943	203.613	85.6726	203.613	86.0285	203.613	85.7996	203.613	85.9702	203.613	85.8982
210.938	87.5368	210.938	87.2696	210.938	87.746	210.938	86.957	210.938	87.8878	210.938	86.6144	210.938	87.9558	210.938	86.2599	210.938	87.9476	210.938	85.9129	210.938	87.8654	210.938	85.5927	210.938	87.717	210.938	85.3166	210.938	87.5162	210.938	85.0983	210.938	87.2813	210.938	84.9467	210.938	87.0324	210.938	84.8658	210.938	86.7874	210.938	84.854	210.938	86.5596	210.938	84.9048	210.938	86.3578	210.938	85.0061	210.938	86.1871	210.938	85.1419	210.938	86.0494	210.938	85.2935	210.938	85.9421	210.938	85.4429	210.938	85.8558	210.938	85.576	210.938	85.7757	210.938	85.6861
218.262	87.497	218.262	87.2275	218.262	87.7086	218.262	86.9139	218.262	87.8516	218.262	86.5724	218.262	87.919	218.262	86.2212	218.262	87.9079	218.262	85.8799	218.262	87.8211	218.262	85.5672	218.262	87.668	218.262	85.2999	218.262	87.4638	218.262	85.0908	218.262	87.2286	218.262	84.9473	218.262	86.984	218.262	84.8718	218.262	86.7491	218.262	84.8617	218.262	86.5377	218.262	84.9107	218.262	86.3573	218.262	85.0084	218.262	86.2097	218.262	85.1417	218.262	86.092	218.262	85.2948	218.262	85.9968	218.262	85.4511	218.262	85.9123	218.262	85.5963	218.262	85.8245	218.262	85.7213
225.586	87.3976	225.586	87.1095	225.586	87.6167	225.586	86.7673	225.586	87.7563	225.586	86.3902	225.586	87.8103	225.586	86.0007	225.586	87.7781	225.586	85.6238	225.586	87.6651	225.586	85.2843	225.586	87.4831	225.586	85.0039	225.586	87.2499	225.586	84.7982	225.586	86.988	225.586	84.6745	225.586	86.7212	225.586	84.6318	225.586	86.4711	225.586	84.6626	225.586	86.2549	225.586	84.7551	225.586	86.0832	225.586	84.8943	225.586	85.9601	225.586	85.0631	225.586	85.8812	225.586	85.2428	225.586	85.8336	225.586	85.4147	225.586	85.7972	225.586	85.5621	225.586	85.75	225.586	85.6745
232.91	87.4814	232.91	87.185	232.91	87.7017	232.91	86.8263	232.91	87.8359	232.91	86.4234	232.91	87.8783	232.91	85.9988	232.91	87.8279	232.91	85.5784	232.91	87.6896	232.91	85.1898	232.91	87.4747	232.91	84.8591	232.91	87.2016	232.91	84.6072	232.91	86.8939	232.91	84.4455	232.91	86.5776	232.91	84.3754	232.91	86.2772	232.91	84.3891	232.91	86.0126	232.91	84.4726	232.91	85.7977	232.91	84.6082	232.91	85.6403	232.91	84.7756	232.91	85.5398	232.91	84.9534	232.91	85.4847	232.91	85.1206	232.91	85.4533	232.91	85.2592	232.91	85.419	232.91	85.3585
241.699	87.5123	241.699	87.22	241.699	87.733	241.699	86.8694	241.699	87.8712	241.699	86.4765	241.699	87.9197	241.699	86.0591	241.699	87.8758	241.699	85.637	241.699	87.7423	241.699	85.2318	241.699	87.5285	241.699	84.8655	241.699	87.2502	241.699	84.5594	241.699	86.9285	241.699	84.3308	241.699	86.587	241.699	84.1897	241.699	86.2477	241.699	84.1367	241.699	85.9285	241.699	84.1629	241.699	85.6429	241.699	84.2512	241.699	85.4023	241.699	84.3799	241.699	85.2155	241.699	84.5249	241.699	85.0842	241.699	84.6642	241.699	84.998	241.699	84.781	241.699	84.9347	241.699	84.8689
250.488	87.4503	250.488	87.1146	250.488	87.7053	250.488	86.716	250.488	87.8664	250.488	86.2773	250.488	87.9258	250.488	85.8251	250.488	87.8811	250.488	85.3882	250.488	87.7365	250.488	84.9946	250.488	87.5037	250.488	84.6677	250.488	87.2016	250.488	84.422	250.488	86.8563	250.488	84.2625	250.488	86.4991	250.488	84.1847	250.488	86.1629	250.488	84.1785	250.488	85.8753	250.488	84.2311	250.488	85.6515	250.488	84.3285	250.488	85.4903	250.488	84.4566	250.488	85.3758	250.488	84.6007	250.488	85.2865	250.488	84.747	250.488	85.2029	250.488	84.8846	250.488	85.1121	250.488	85.0069
259.277	87.7087	259.277	87.4192	259.277	87.919	259.277	87.0619	259.277	88.0422	259.277	86.6521	259.277	88.0747	259.277	86.2081	259.277	88.0177	259.277	85.7517	259.277	87.8769	259.277	85.3069	259.277	87.6629	259.277	84.8995	259.277	87.3891	259.277	84.5536	259.277	87.0697	259.277	84.2893	259.277	86.7183	259.277	84.1194	259.277	86.3486	259.277	84.0473	259.277	85.98	259.277	84.0678	259.277	85.6428	259.277	84.1673	259.277	85.3747	259.277	84.3256	259.277	85.2029	259.277	84.5168	259.277	85.1227	259.277	84.7113	259.277	85.0952	259.277	84.8803	259.277	85.0681	259.277	85.0016
268.066	87.4652	268.066	87.1573	268.066	87.6946	268.066	86.7843	268.066	87.835	268.066	86.3634	268.066	87.8794	268.066	85.9162	268.066	87.8257	268.066	85.4694	268.066	87.6782	268.066	85.0528	268.066	87.4496	268.066	84.6958	268.066	87.1605	268.066	84.4214	268.066	86.8363	268.066	84.2411	268.066	86.5017	268.066	84.1528	268.066	86.1747	268.066	84.1444	268.066	85.8648	268.066	84.1985	268.066	85.5779	268.066	84.2973	268.066	85.3245	268.066	84.4229	268.066	85.1217	268.066	84.5563	268.066	84.9834	268.066	84.678	268.066	84.9068	268.066	84.7718	268.066	84.8675	268.066	84.8315
276.855	87.344	276.855	87.0358	276.855	87.5707	276.855	86.6616	276.855	87.704	276.855	86.2399	276.855	87.7366	276.855	85.791	276.855	87.6662	276.855	85.3366	276.855	87.497	276.855	84.8983	276.855	87.2396	276.855	84.4978	276.855	86.9123	276.855	84.1565	276.855	86.5405	276.855	83.8932	276.855	86.1543	276.855	83.7212	276.855	85.7837	276.855	83.6451	276.855	85.4512	276.855	83.6588	276.855	85.1689	276.855	83.7466	276.855	84.941	276.855	83.8859	276.855	84.7682	276.855	84.0494	276.855	84.6482	276.855	84.2095	276.855	84.5697	276.855	84.3437	276.855	84.5101	276.855	84.4418
287.109	87.4905	287.109	87.1801	287.109	87.7085	287.109	86.7908	287.109	87.8259	287.109	86.3416	287.109	87.8397	287.109	85.8586	287.109	87.7533	287.109	85.3739	287.109	87.5774	287.109	84.9223	287.109	87.33	287.109	84.5343	287.109	87.0339	287.109	84.2276	287.109	86.7124	287.109	84.0028	287.109	86.3844	287.109	83.8472	287.109	86.0617	287.109	83.7444	287.109	85.7488	287.109	83.6832	287.109	85.4456	287.109	83.6606	287.109	85.1517	287.109	83.6777	287.109	84.8711	287.109	83.7334	287.109	84.6137	287.109	83.8206	287.109	84.3909	287.109	83.9299	287.109	84.2073	287.109	84.0571
297.363	87.4146	297.363	87.0868	297.363	87.648	297.363	86.6872	297.363	87.7709	297.363	86.2425	297.363	87.7751	297.363	85.7799	297.363	87.6622	297.363	85.3258	297.363	87.4436	297.363	84.9043	297.363	87.1404	297.363	84.5372	297.363	86.7813	297.363	84.2433	297.363	86.3996	297.363	84.0368	297.363	86.0287	297.363	83.9241	297.363	85.6991	297.363	83.9027	297.363	85.4364	297.363	83.9617	297.363	85.2569	297.363	84.0851	297.363	85.1606	297.363	84.2538	297.363	85.1264	297.363	84.4463	297.363	85.1185	297.363	84.6403	297.363	85.1012	297.363	84.815	297.363	85.05	297.363	84.9545
307.617	87.5994	307.617	87.2525	307.617	87.8425	307.617	86.8165	307.617	87.9748	307.617	86.3166	307.617	87.994	307.617	85.7893	307.617	87.9028	307.617	85.2791	307.617	87.7099	307.617	84.83	307.617	87.4317	307.617	84.4717	307.617	87.0924	307.617	84.209	307.617	86.7188	307.617	84.0236	307.617	86.333	307.617	83.8874	307.617	85.9463	307.617	83.7788	307.617	85.5621	307.617	83.6936	307.617	85.1871	307.617	83.644	307.617	84.8418	307.617	83.6469	307.617	84.557	307.617	83.7078	307.617	84.3532	307.617	83.8119	307.617	84.222	307.617	83.9307	307.617	84.1295	307.617	84.0387
319.336	87.267	319.336	86.9503	319.336	87.4822	319.336	86.5423	319.336	87.5898	319.336	86.059	319.336	87.5881	319.336	85.5257	319.336	87.4816	319.336	84.9814	319.336	87.2823	319.336	84.4815	319.336	87.0102	319.336	84.09	319.336	86.6902	319.336	83.8566	319.336	86.3473	319.336	83.7882	319.336	86.0011	319.336	83.8426	319.336	85.6654	319.336	83.9528	319.336	85.3525	319.336	84.0619	319.336	85.0788	319.336	84.1431	319.336	84.8632	319.336	84.1993	319.336	84.7155	319.336	84.2491	319.336	84.6261	319.336	84.3087	319.336	84.5691	319.336	84.3802	319.336	84.5167	319.336	84.4534
329.59	86.9306	329.59	86.5796	329.59	87.1823	329.59	86.1477	329.59	87.3206	329.59	85.6575	329.59	87.3371	329.59	85.1359	329.59	87.2324	329.59	84.6152	329.59	87.0209	329.59	84.1345	329.59	86.7335	329.59	83.7386	329.59	86.4127	329.59	83.4699	329.59	86.0981	329.59	83.3499	329.59	85.8065	329.59	83.364	329.59	85.5233	329.59	83.4654	329.59	85.2156	329.59	83.5982	329.59	84.8637	329.59	83.7199	329.59	84.488	329.59	83.8109	329.59	84.1503	329.59	83.8685	329.59	83.9192	329.59	83.8949	329.59	83.8201	329.59	83.8906	329.59	83.8198	329.59	83.8588
341.309	87.401	341.309	86.9899	341.309	87.6541	341.309	86.4397	341.309	87.7387	341.309	85.7823	341.309	87.6515	341.309	85.0678	341.309	87.3996	341.309	84.3667	341.309	87.0071	341.309	83.7627	341.309	86.5239	341.309	83.3327	341.309	86.031	341.309	83.1181	341.309	85.6319	341.309	83.1054	341.309	85.4129	341.309	83.2347	341.309	85.3846	341.309	83.4278	341.309	85.4634	341.309	83.6174	341.309	85.5222	341.309	83.7631	341.309	85.4619	341.309	83.8538	341.309	85.2515	341.309	83.9027	341.309	84.9306	341.309	83.9367	341.309	84.5836	341.309	83.9894	341.309	84.2926	341.309	84.0973
353.027	87.7595	353.027	87.4142	353.027	87.9438	353.027	86.9144	353.027	87.9594	353.027	86.2673	353.027	87.7992	353.027	85.4866	353.027	87.4609	353.027	84.6028	353.027	86.9548	353.027	83.6794	353.027	86.3114	353.027	82.8263	353.027	85.5897	353.027	82.1912	353.027	84.8856	353.027	81.9006	353.027	84.3331	353.027	81.9804	353.027	84.069	353.027	82.3427	353.027	84.1484	353.027	82.8541	353.027	84.4853	353.027	83.4022	353.027	84.9059	353.027	83.9146	353.027	85.2528	353.027	84.3537	353.027	85.4436	353.027	84.7082	353.027	85.4717	353.027	84.9871	353.027	85.3774	353.027	85.2082
366.211	88.0511	366.211	87.7141	366.211	88.2506	366.211	87.25	366.211	88.2999	366.211	86.6701	366.211	88.1854	366.211	85.9918	366.211	87.8987	366.211	85.2455	366.211	87.4437	366.211	84.4828	366.211	86.8417	366.211	83.7792	366.211	86.1322	366.211	83.2211	366.211	85.3735	366.211	82.8703	366.211	84.648	366.211	82.7281	366.211	84.0621	366.211	82.7387	366.211	83.7177	366.211	82.8342	366.211	83.6502	366.211	82.9747	366.211	83.793	366.211	83.1553	366.211	84.0187	366.211	83.382	366.211	84.2122	366.211	83.6457	366.211	84.3065	366.211	83.9133	366.211	84.2793	366.211	84.1387
379.395	88.2759	379.395	87.9707	379.395	88.4545	379.395	87.5479	379.395	88.492	379.395	87.0105	379.395	88.3723	379.395	86.3604	379.395	88.0869	379.395	85.6089	379.395	87.6427	379.395	84.793	379.395	87.0643	379.395	83.995	379.395	86.3913	379.395	83.3438	379.395	85.6776	379.395	82.9621	379.395	84.9942	379.395	82.8757	379.395	84.4256	379.395	82.9902	379.395	84.0481	379.395	83.1751	379.395	83.8958	379.395	83.3499	379.395	83.9391	379.395	83.5015	379.395	84.0932	379.395	83.6543	379.395	84.2543	379.395	83.8304	379.395	84.3421	379.395	84.0246	379.395	84.3221	379.395	84.2037
392.578	88.238	392.578	87.909	392.578	88.4281	392.578	87.4585	392.578	88.4613	392.578	86.9014	392.578	88.3264	392.578	86.2519	392.578	88.0266	392.578	85.5278	392.578	87.5807	392.578	84.7581	392.578	87.0136	392.578	83.9955	392.578	86.3465	392.578	83.3297	392.578	85.6039	392.578	82.8772	392.578	84.8438	392.578	82.7254	392.578	84.1833	392.578	82.8656	392.578	83.7754	392.578	83.1982	392.578	83.7091	392.578	83.6059	392.578	83.9234	392.578	84.0077	392.578	84.2588	392.578	84.3617	392.578	84.5756	392.578	84.6455	392.578	84.8041	392.578	84.8418	392.578	84.9253	392.578	84.9373
405.762	87.8202	405.762	87.5893	405.762	87.929	405.762	87.2415	405.762	87.9091	405.762	86.7756	405.762	87.7586	405.762	86.1867	405.762	87.4855	405.762	85.4757	405.762	87.1041	405.762	84.6675	405.762	86.6271	405.762	83.8334	405.762	86.0604	405.762	83.1023	405.762	85.4077	405.762	82.6225	405.762	84.6848	405.762	82.4668	405.762	83.9452	405.762	82.5772	405.762	83.3142	405.762	82.8318	405.762	82.9818	405.762	83.1384	405.762	83.0686	405.762	83.4592	405.762	83.471	405.762	83.7805	405.762	83.9451	405.762	84.0813	405.762	84.3026	405.762	84.3255	405.762	84.475	405.762	84.4706
420.41	88.4395	420.41	88.1339	420.41	88.6019	420.41	87.6896	420.41	88.6148	420.41	87.1093	420.41	88.4702	420.41	86.3944	420.41	88.1616	420.41	85.5485	420.41	87.6878	420.41	84.5886	420.41	87.0563	420.41	83.5703	420.41	86.2866	420.41	82.6233	420.41	85.4128	420.41	81.9509	420.41	84.4857	420.41	81.7151	420.41	83.5704	420.41	81.8781	420.41	82.7548	420.41	82.2394	420.41	82.1696	420.41	82.6189	420.41	81.9668	420.41	82.9444	420.41	82.1879	420.41	83.2194	420.41	82.6725	420.41	83.455	420.41	83.1765	420.41	83.626	420.41	83.5291	420.41	83.6715
435.059	88.0152	435.059	87.7766	435.059	88.1432	435.059	87.4351	435.059	88.1445	435.059	86.9883	435.059	88.0007	435.059	86.4253	435.059	87.7008	435.059	85.732	435.059	87.2491	435.059	84.9009	435.059	86.667	435.059	83.9549	435.059	85.9929	435.059	82.9902	435.059	85.2857	435.059	82.2114	435.059	84.624	435.059	81.8582	435.059	84.0797	435.059	81.9879	435.059	83.6733	435.059	82.4075	435.059	83.3723	435.059	82.8793	435.059	83.1526	435.059	83.2738	435.059	83.0456	435.059	83.5568	435.059	83.0987	435.059	83.7283	435.059	83.293	435.059	83.7844	435.059	83.5331	435.059	83.716
451.172	87.7111	451.172	87.4286	451.172	87.8619	451.172	87.0294	451.172	87.8598	451.172	86.5191	451.172	87.6856	451.172	85.8929	451.172	87.334	451.172	85.136	451.172	86.8195	451.172	84.2283	451.172	86.1689	451.172	83.1635	451.172	85.4045	451.172	81.9974	451.172	84.5415	451.172	80.9296	451.172	83.6194	451.172	80.328	451.172	82.7537	451.172	80.4594	451.172	82.1453	451.172	81.1512	451.172	81.9581	451.172	82.0093	451.172	82.1516	451.172	82.7706	451.172	82.5331	451.172	83.3369	451.172	82.9423	451.172	83.69	451.172	83.3106	451.172	83.8376	451.172	83.6087	451.172	83.7991
465.82	87.9375	465.82	87.6794	465.82	88.0527	465.82	87.3056	465.82	88.0004	465.82	86.8343	465.82	87.7754	465.82	86.2681	465.82	87.3988	465.82	85.5968	465.82	86.909	465.82	84.8054	465.82	86.3344	465.82	83.8837	465.82	85.6751	465.82	82.8429	465.82	84.9111	465.82	81.7487	465.82	84.0254	465.82	80.7676	465.82	83.0357	465.82	80.1512	465.82	82.0615	465.82	80.0567	465.82	81.389	465.82	80.3783	465.82	81.2942	465.82	80.8687	465.82	81.6533	465.82	81.3368	465.82	82.0592	465.82	81.6968	465.82	82.2576	465.82	81.9437	465.82	82.2432	465.82	82.1186
483.398	88.4284	483.398	88.163	483.398	88.5561	483.398	87.7828	483.398	88.5349	483.398	87.316	483.398	88.3687	483.398	86.7857	483.398	88.0772	483.398	86.195	483.398	87.6856	483.398	85.521	483.398	87.206	483.398	84.7246	483.398	86.6246	483.398	83.7824	483.398	85.9131	483.398	82.7344	483.398	85.0499	483.398	81.7323	483.398	84.0392	483.398	81.0251	483.398	82.9529	483.398	80.8021	483.398	82.0279	483.398	81.0363	483.398	81.6742	483.398	81.5579	483.398	82.0599	483.398	82.202	483.398	82.8037	483.398	82.843	483.398	83.4364	483.398	83.3754	483.398	83.7434	483.398	83.7035
499.512	89.4013	499.512	89.0427	499.512	89.6066	499.512	88.5633	499.512	89.6369	499.512	88.0048	499.512	89.4837	499.512	87.4088	499.512	89.1582	499.512	86.8007	499.512	88.6904	499.512	86.1782	499.512	88.1142	499.512	85.5202	499.512	87.4524	499.512	84.8114	499.512	86.7219	499.512	84.074	499.512	85.9452	499.512	83.3875	499.512	85.1437	499.512	82.8714	499.512	84.3354	499.512	82.6267	499.512	83.5885	499.512	82.6846	499.512	83.1073	499.512	83.0043	499.512	83.1331	499.512	83.4896	499.512	83.6073	499.512	84.0084	499.512	84.1768	499.512	84.4245	499.512	84.5513	499.512	84.6289
517.09	89.6438	517.09	89.3973	517.09	89.7354	517.09	88.9983	517.09	89.6709	517.09	88.4555	517.09	89.4504	517.09	87.7841	517.09	89.081	517.09	86.9967	517.09	88.5801	517.09	86.0911	517.09	87.9687	517.09	85.0553	517.09	87.2667	517.09	83.9054	517.09	86.5005	517.09	82.7544	517.09	85.7051	517.09	81.8639	517.09	84.9026	517.09	81.5283	517.09	84.0971	517.09	81.7885	517.09	83.3569	517.09	82.4106	517.09	82.9387	517.09	83.1578	517.09	83.1417	517.09	83.901	517.09	83.855	517.09	84.5592	517.09	84.6293	517.09	85.0456	517.09	85.1341	517.09	85.2642
536.133	88.6413	536.133	88.3365	536.133	88.7839	536.133	87.9156	536.133	88.716	536.133	87.415	536.133	88.4162	536.133	86.8655	536.133	87.9245	536.133	86.2884	536.133	87.3398	536.133	85.6828	536.133	86.7657	536.133	85.0206	536.133	86.2506	536.133	84.2614	536.133	85.7832	536.133	83.3919	536.133	85.3198	536.133	82.4876	536.133	84.7945	536.133	81.7499	536.133	84.1342	536.133	81.4106	536.133	83.3237	536.133	81.5368	536.133	82.5109	536.133	82.0054	536.133	82.0392	536.133	82.634	536.133	82.1745	536.133	83.2382	536.133	82.7515	536.133	83.637	536.133	83.3582	536.133	83.6906
555.176	88.9205	555.176	88.5866	555.176	89.0002	555.176	88.0285	555.176	88.8138	555.176	87.2927	555.176	88.3843	555.176	86.4518	555.176	87.7839	555.176	85.6012	555.176	87.1129	555.176	84.8195	555.176	86.4411	555.176	84.117	555.176	85.7738	555.176	83.4318	555.176	85.0883	555.176	82.7023	555.176	84.3809	555.176	81.986	555.176	83.6794	555.176	81.5064	555.176	83.0298	555.176	81.457	555.176	82.4839	555.176	81.765	555.176	82.1089	555.176	82.2151	555.176	81.9997	555.176	82.6605	555.176	82.2061	555.176	83.0272	555.176	82.6203	555.176	83.2487	555.176	83.0275	555.176	83.2575
574.219	89.0227	574.219	88.6611	574.219	89.1375	574.219	88.0689	574.219	88.9997	574.219	87.273	574.219	88.631	574.219	86.3377	574.219	88.0803	574.219	85.3953	574.219	87.387	574.219	84.6171	574.219	86.549	574.219	84.0715	574.219	85.568	574.219	83.6054	574.219	84.5509	574.219	82.9666	574.219	83.7203	574.219	82.0763	574.219	83.1935	574.219	81.216	574.219	82.7875	574.219	80.8667	574.219	82.2474	574.219	81.1493	574.219	81.6489	574.219	81.7503	574.219	81.4616	574.219	82.3708	574.219	81.8865	574.219	82.8649	574.219	82.5202	574.219	83.1607	574.219	82.9971	574.219	83.2124
594.727	89.0688	594.727	88.9142	594.727	88.9873	594.727	88.5369	594.727	88.6712	594.727	87.9417	594.727	88.169	594.727	87.1284	594.727	87.565	594.727	86.1207	594.727	86.907	594.727	85.0021	594.727	86.1517	594.727	83.9203	594.727	85.2209	594.727	83.0053	594.727	84.1262	594.727	82.2296	594.727	83.0635	594.727	81.429	594.727	82.3392	594.727	80.574	594.727	82.0561	594.727	79.9924	594.727	81.9783	594.727	80.1096	594.727	81.8809	594.727	80.858	594.727	81.8365	594.727	81.7824	594.727	82.0345	594.727	82.5223	594.727	82.4251	594.727	82.9274	594.727	82.795	594.727	82.9944
615.234	88.6148	615.234	88.4318	615.234	88.5782	615.234	88.0639	615.234	88.3126	615.234	87.5475	615.234	87.8322	615.234	86.8947	615.234	87.1689	615.234	86.1118	615.234	86.3743	615.234	85.2557	615.234	85.4937	615.234	84.4547	615.234	84.5226	615.234	83.8035	615.234	83.4404	615.234	83.1933	615.234	82.3339	615.234	82.3697	615.234	81.47	615.234	81.2562	615.234	81.0771	615.234	80.2233	615.234	80.9619	615.234	79.9154	615.234	80.7276	615.234	80.427	615.234	80.432	615.234	81.2223	615.234	80.6642	615.234	81.9056	615.234	81.473	615.234	82.3499	615.234	82.1989	615.234	82.4833
637.207	88.6483	637.207	88.3154	637.207	88.7514	637.207	87.7885	637.207	88.5975	637.207	87.1061	637.207	88.2117	637.207	86.3219	637.207	87.6898	637.207	85.5076	637.207	87.1007	637.207	84.7494	637.207	86.3641	637.207	84.1337	637.207	85.3258	637.207	83.6797	637.207	83.9607	637.207	83.2488	637.207	82.495	637.207	82.6153	637.207	81.3501	637.207	81.7195	637.207	80.7785	637.207	80.8823	637.207	80.5316	637.207	80.6905	637.207	80.2794	637.207	81.344	637.207	80.2057	637.207	82.3883	637.207	80.8249	637.207	83.3028	637.207	82.025	637.207	83.806	637.207	83.1441	637.207	83.769
659.18	89.0921	659.18	88.7398	659.18	89.0975	659.18	88.0918	659.18	88.764	659.18	87.2482	659.18	88.1671	659.18	86.3306	659.18	87.4366	659.18	85.4222	659.18	86.6684	659.18	84.5105	659.18	85.8443	659.18	83.5129	659.18	84.9277	659.18	82.4324	659.18	83.9538	659.18	81.5354	659.18	82.9053	659.18	81.1028	659.18	81.7155	659.18	80.9526	659.18	80.7354	659.18	80.7908	659.18	80.6687	659.18	80.6946	659.18	81.0314	659.18	81.0006	659.18	80.9701	659.18	81.7507	659.18	80.8868	659.18	82.5187	659.18	81.4835	659.18	82.9266	659.18	82.3294	659.18	82.859
682.617	89.1947	682.617	88.8957	682.617	89.0991	682.617	88.2631	682.617	88.6125	682.617	87.3643	682.617	87.8917	682.617	86.2954	682.617	87.1684	682.617	85.2045	682.617	86.4682	682.617	84.2147	682.617	85.6065	682.617	83.3066	682.617	84.5003	682.617	82.3567	682.617	83.2849	682.617	81.3308	682.617	82.1717	682.617	80.3892	682.617	81.2559	682.617	79.7572	682.617	80.623	682.617	79.5343	682.617	80.4821	682.617	79.7141	682.617	80.5444	682.617	80.3129	682.617	80.1512	682.617	81.2533	682.617	79.6129	682.617	82.1985	682.617	80.2489	682.617	82.7445	682.617	81.6682	682.617	82.6093
707.52	89.1858	707.52	88.9639	707.52	89.0297	707.52	88.3326	707.52	88.6117	707.52	87.3556	707.52	88.0918	707.52	86.1891	707.52	87.5399	707.52	85.0404	707.52	86.8551	707.52	84.0829	707.52	85.9246	707.52	83.3326	707.52	84.7577	707.52	82.5851	707.52	83.3591	707.52	81.5835	707.52	81.5964	707.52	80.3266	707.52	79.7253	707.52	79.2002	707.52	79.4953	707.52	78.6345	707.52	80.5731	707.52	78.6693	707.52	80.6383	707.52	79.2033	707.52	80.0769	707.52	80.1912	707.52	80.6392	707.52	81.3733	707.52	81.7406	707.52	82.2959	707.52	82.4389	707.52	82.6531
732.422	89.0884	732.422	88.8868	732.422	88.8942	732.422	88.2823	732.422	88.4004	732.422	87.3652	732.422	87.7449	732.422	86.3026	732.422	87.0163	732.422	85.2608	732.422	86.2176	732.422	84.3198	732.422	85.3214	732.422	83.5082	732.422	84.3031	732.422	82.9217	732.422	83.1828	732.422	82.5773	732.422	82.0741	732.422	82.1514	732.422	81.0209	732.422	81.3396	732.422	80.0895	732.422	80.3666	732.422	79.8553	732.422	79.9756	732.422	80.1823	732.422	80.4555	732.422	79.9005	732.422	81.1205	732.422	79.3401	732.422	81.5686	732.422	80.0273	732.422	81.8415	732.422	81.2297	732.422	81.8317
757.324	89.3226	757.324	89.1735	757.324	89.1142	757.324	88.6295	757.324	88.6518	757.324	87.7185	757.324	88.0747	757.324	86.5616	757.324	87.417	757.324	85.3846	757.324	86.5632	757.324	84.387	757.324	85.4345	757.324	83.4997	757.324	84.0949	757.324	82.4936	757.324	82.6907	757.324	81.4674	757.324	81.3654	757.324	80.6778	757.324	80.187	757.324	80.0395	757.324	79.3085	757.324	79.5608	757.324	78.8002	757.324	79.5266	757.324	78.5206	757.324	80.3504	757.324	78.7005	757.324	81.4709	757.324	79.026	757.324	82.0577	757.324	79.2539	757.324	81.9172	757.324	80.0085	757.324	81.1329
785.156	88.8218	785.156	88.8394	785.156	88.6318	785.156	88.4789	785.156	88.3575	785.156	87.5058	785.156	87.9854	785.156	85.9817	785.156	87.3397	785.156	84.5574	785.156	86.2752	785.156	83.9285	785.156	84.9416	785.156	83.483	785.156	83.567	785.156	82.3662	785.156	82.054	785.156	81.0074	785.156	80.1668	785.156	80.0988	785.156	78.2046	785.156	79.4569	785.156	77.7725	785.156	78.9962	785.156	78.4929	785.156	78.7144	785.156	78.5511	785.156	78.8038	785.156	78.486	785.156	79.361	785.156	78.7793	785.156	80.1094	785.156	79.3693	785.156	80.663	785.156	80.2292	785.156	80.7501
811.523	89.4224	811.523	89.2805	811.523	88.8372	811.523	88.4874	811.523	87.905	811.523	87.5306	811.523	87.1968	811.523	86.8317	811.523	86.7281	811.523	86.1457	811.523	86.0081	811.523	85.0286	811.523	84.8446	811.523	83.3865	811.523	83.4785	811.523	80.9854	811.523	82.3084	811.523	77.4086	811.523	81.6315	811.523	74.4279	811.523	81.0896	811.523	75.306	811.523	79.6411	811.523	77.347	811.523	77.1694	811.523	78.7042	811.523	76.4524	811.523	80.1205	811.523	77.6869	811.523	81.405	811.523	79.0466	811.523	81.5687	811.523	79.5203	811.523	80.54	811.523	78.8074	811.523	79.0002
840.82	88.8297	840.82	88.6903	840.82	88.6583	840.82	88.3932	840.82	88.0487	840.82	87.8494	840.82	87.2441	840.82	86.9766	840.82	86.5243	840.82	85.8573	840.82	85.7839	840.82	84.5802	840.82	84.9607	840.82	83.3037	840.82	84.098	840.82	82.2913	840.82	82.9607	840.82	81.376	840.82	80.9705	840.82	80.4027	840.82	78.2794	840.82	80.155	840.82	77.929	840.82	80.814	840.82	78.5781	840.82	80.4863	840.82	78.3619	840.82	79.03	840.82	78.3039	840.82	78.5841	840.82	76.8732	840.82	79.1685	840.82	75.9675	840.82	79.957	840.82	78.9475	840.82	80.3216
870.117	89.4306	870.117	89.8101	870.117	88.2334	870.117	89.1231	870.117	87.1949	870.117	87.5966	870.117	86.9948	870.117	85.8965	870.117	86.7006	870.117	84.6941	870.117	85.722	870.117	83.7652	870.117	84.5639	870.117	82.7507	870.117	83.6548	870.117	81.7908	870.117	82.7304	870.117	80.6121	870.117	81.5296	870.117	78.9493	870.117	80.0814	870.117	78.2304	870.117	78.5068	870.117	79.1145	870.117	76.5319	870.117	79.7691	870.117	75.7696	870.117	79.6526	870.117	76.6512	870.117	79.7326	870.117	76.1674	870.117	80.3484	870.117	75.9026	870.117	80.4303	870.117	77.9225	870.117	79.6288
900.879	89.6091	900.879	89.8778	900.879	89.3344	900.879	89.9928	900.879	88.6295	900.879	89.3652	900.879	87.5076	900.879	87.7839	900.879	86.5539	900.879	85.6864	900.879	85.8617	900.879	83.8638	900.879	84.8873	900.879	82.5673	900.879	83.4181	900.879	81.5033	900.879	82.0116	900.879	80.3808	900.879	80.8983	900.879	78.9869	900.879	78.9366	900.879	77.7159	900.879	77.3912	900.879	78.5545	900.879	78.1589	900.879	80.0596	900.879	77.9904	900.879	80.3151	900.879	77.9459	900.879	80.1332	900.879	77.5653	900.879	80.3696	900.879	77.1241	900.879	81.0278	900.879	80.0702	900.879	81.4428
933.105	90.285	933.105	90.4436	933.105	89.7592	933.105	90.0263	933.105	89.2062	933.105	88.8901	933.105	88.6135	933.105	87.1607	933.105	87.3394	933.105	85.4527	933.105	85.499	933.105	84.2783	933.105	84.6112	933.105	83.2271	933.105	84.7129	933.105	82.3303	933.105	84.2289	933.105	82.1121	933.105	83.1361	933.105	81.2868	933.105	82.3058	933.105	79.0773	933.105	80.9906	933.105	77.0122	933.105	78.5233	933.105	78.5671	933.105	77.56	933.105	79.4029	933.105	78.0406	933.105	77.9242	933.105	78.665	933.105	76.8722	933.105	78.5904	933.105	77.7519	933.105	78.9094	933.105	78.9941
965.332	91.9057	965.332	91.3467	965.332	91.3736	965.332	90.5508	965.332	89.7766	965.332	90.1201	965.332	88.5601	965.332	89.5862	965.332	88.4754	965.332	88.203	965.332	88.3118	965.332	85.5613	965.332	87.3905	965.332	81.6187	965.332	85.6283	965.332	76.5722	965.332	83.4527	965.332	72.048	965.332	81.6327	965.332	72.5046	965.332	81.4886	965.332	74.9401	965.332	82.2564	965.332	75.4552	965.332	81.2463	965.332	76.3645	965.332	79.5927	965.332	78.3471	965.332	78.9084	965.332	79.588	965.332	78.3883	965.332	80.5849	965.332	79.9032	965.332	81.3167	965.332	80.5103	965.332	80.9454
1,000.49	92.0122	1,000.49	92.2049	1,000.49	91.2007	1,000.49	91.6144	1,000.49	90.4823	1,000.49	90.3638	1,000.49	89.8285	1,000.49	88.7685	1,000.49	88.4603	1,000.49	87.5217	1,000.49	86.9509	1,000.49	86.5554	1,000.49	86.1402	1,000.49	84.883	1,000.49	85.3992	1,000.49	82.4093	1,000.49	84.5982	1,000.49	80.2883	1,000.49	83.4172	1,000.49	80.3595	1,000.49	80.2809	1,000.49	82.0248	1,000.49	75.6655	1,000.49	82.0411	1,000.49	75.9316	1,000.49	79.8679	1,000.49	77.2959	1,000.49	80.2022	1,000.49	79.9949	1,000.49	80.7472	1,000.49	79.3581	1,000.49	80.2633	1,000.49	77.8055	1,000.49	81.0538	1,000.49	80.9145	1,000.49	82.0373
1,035.64	91.5895	1,035.64	92.1011	1,035.64	90.6178	1,035.64	91.9498	1,035.64	90.0001	1,035.64	91.3008	1,035.64	89.4413	1,035.64	89.8818	1,035.64	88.4248	1,035.64	87.5177	1,035.64	88.0816	1,035.64	85.104	1,035.64	88.1659	1,035.64	83.3311	1,035.64	87.289	1,035.64	81.9116	1,035.64	85.6429	1,035.64	81.3416	1,035.64	84.432	1,035.64	81.4509	1,035.64	83.6913	1,035.64	81.7569	1,035.64	82.5113	1,035.64	80.8874	1,035.64	80.043	1,035.64	77.0598	1,035.64	74.5988	1,035.64	73.5856	1,035.64	77.8999	1,035.64	77.0599	1,035.64	80.3405	1,035.64	80.4789	1,035.64	78.6658	1,035.64	81.0642	1,035.64	77.1315	1,035.64	79.2892
1,072.27	91.8863	1,072.27	91.7143	1,072.27	91.3189	1,072.27	91.3724	1,072.27	89.9653	1,072.27	90.7287	1,072.27	89.004	1,072.27	89.419	1,072.27	88.5056	1,072.27	87.5815	1,072.27	87.5499	1,072.27	85.5918	1,072.27	85.7574	1,072.27	83.2775	1,072.27	83.7291	1,072.27	80.6741	1,072.27	83.3426	1,072.27	79.5871	1,072.27	83.7417	1,072.27	77.8159	1,072.27	82.3975	1,072.27	73.8984	1,072.27	77.6704	1,072.27	76.1936	1,072.27	74.8467	1,072.27	80.4146	1,072.27	78.4745	1,072.27	80.1887	1,072.27	79.231	1,072.27	79.3579	1,072.27	77.6036	1,072.27	78.6948	1,072.27	76.1082	1,072.27	79.7358	1,072.27	79.2406	1,072.27	80.8453
1,108.89	91.646	1,108.89	92.0722	1,108.89	90.4251	1,108.89	91.559	1,108.89	89.5977	1,108.89	90.3367	1,108.89	88.6566	1,108.89	88.3055	1,108.89	86.7193	1,108.89	86.0192	1,108.89	86.3911	1,108.89	85.3851	1,108.89	86.56	1,108.89	85.5002	1,108.89	85.4259	1,108.89	83.2924	1,108.89	83.6438	1,108.89	80.5352	1,108.89	82.0352	1,108.89	81.4784	1,108.89	81.5939	1,108.89	82.0589	1,108.89	82.4126	1,108.89	79.8075	1,108.89	80.6966	1,108.89	76.9098	1,108.89	74.1212	1,108.89	75.0386	1,108.89	77.1435	1,108.89	76.7551	1,108.89	79.3293	1,108.89	80.2677	1,108.89	78.6731	1,108.89	81.7609	1,108.89	77.3429	1,108.89	79.9864
1,148.44	92.2253	1,148.44	92.6891	1,148.44	90.8626	1,148.44	91.6611	1,148.44	90.2403	1,148.44	90.0885	1,148.44	89.3435	1,148.44	88.8604	1,148.44	87.5658	1,148.44	87.6479	1,148.44	86.9932	1,148.44	86.5047	1,148.44	86.7026	1,148.44	85.2275	1,148.44	85.6508	1,148.44	81.8495	1,148.44	84.5079	1,148.44	77.1625	1,148.44	83.5223	1,148.44	77.5733	1,148.44	82.0528	1,148.44	78.2285	1,148.44	79.9922	1,148.44	77.6737	1,148.44	76.4228	1,148.44	77.7921	1,148.44	74.0273	1,148.44	77.1376	1,148.44	77.5541	1,148.44	77.6643	1,148.44	77.8473	1,148.44	79.1934	1,148.44	77.5207	1,148.44	80.2941	1,148.44	76.714	1,148.44	79.2861
1,189.45	92.3865	1,189.45	92.7704	1,189.45	91.9039	1,189.45	91.9107	1,189.45	91.1107	1,189.45	89.7192	1,189.45	88.4182	1,189.45	87.3473	1,189.45	86.9637	1,189.45	86.1851	1,189.45	87.7479	1,189.45	85.8331	1,189.45	86.4559	1,189.45	84.8362	1,189.45	84.8945	1,189.45	81.8195	1,189.45	84.4013	1,189.45	77.673	1,189.45	83.0431	1,189.45	77.7762	1,189.45	80.8048	1,189.45	79.4481	1,189.45	78.4841	1,189.45	79.907	1,189.45	77.1981	1,189.45	78.3031	1,189.45	72.7004	1,189.45	72.3389	1,189.45	74.4374	1,189.45	68.2706	1,189.45	76.5946	1,189.45	76.7478	1,189.45	78.9983	1,189.45	80.4985	1,189.45	78.9965	1,189.45	79.4
1,230.47	92.8803	1,230.47	92.9893	1,230.47	92.0626	1,230.47	91.8864	1,230.47	90.8622	1,230.47	90.0652	1,230.47	88.7045	1,230.47	88.5774	1,230.47	86.6183	1,230.47	87.0217	1,230.47	85.3939	1,230.47	83.5939	1,230.47	85.3868	1,230.47	79.9015	1,230.47	86.0359	1,230.47	79.0836	1,230.47	84.624	1,230.47	76.155	1,230.47	82.5067	1,230.47	75.288	1,230.47	81.1886	1,230.47	79.7551	1,230.47	80.4029	1,230.47	82.1899	1,230.47	80.5069	1,230.47	81.2019	1,230.47	77.0883	1,230.47	76.2002	1,230.47	73.9336	1,230.47	72.5814	1,230.47	74.6096	1,230.47	78.0912	1,230.47	78.7811	1,230.47	81.1834	1,230.47	78.7179	1,230.47	79.5649
1,274.41	92.5985	1,274.41	92.5717	1,274.41	92.0766	1,274.41	91.967	1,274.41	89.9845	1,274.41	90.3648	1,274.41	87.4852	1,274.41	87.8349	1,274.41	87.3047	1,274.41	85.2073	1,274.41	85.958	1,274.41	83.4765	1,274.41	84.789	1,274.41	80.6026	1,274.41	85.0732	1,274.41	77.8313	1,274.41	84.3346	1,274.41	76.7317	1,274.41	83.0308	1,274.41	72.0957	1,274.41	82.0931	1,274.41	72.5002	1,274.41	80.3663	1,274.41	79.1413	1,274.41	79.7236	1,274.41	79.3373	1,274.41	79.2755	1,274.41	75.6515	1,274.41	73.8982	1,274.41	70.3619	1,274.41	76.2862	1,274.41	74.2836	1,274.41	78.4543	1,274.41	78.7141	1,274.41	80.181	1,274.41	80.2336
1,319.82	92.5317	1,319.82	93.0869	1,319.82	91.5065	1,319.82	92.4402	1,319.82	89.3652	1,319.82	89.9364	1,319.82	85.9331	1,319.82	86.1603	1,319.82	85.3342	1,319.82	83.4154	1,319.82	85.2654	1,319.82	81.4111	1,319.82	85.8006	1,319.82	80.2113	1,319.82	86.0399	1,319.82	79.3895	1,319.82	85.8095	1,319.82	79.3536	1,319.82	85.4187	1,319.82	80.3647	1,319.82	83.2053	1,319.82	78.1627	1,319.82	80.1983	1,319.82	79.5804	1,319.82	77.6154	1,319.82	80.2034	1,319.82	76.7479	1,319.82	74.7332	1,319.82	79.566	1,319.82	71.471	1,319.82	74.823	1,319.82	75.7228	1,319.82	77.0751	1,319.82	79.6824	1,319.82	80.4257	1,319.82	80.1442
1,366.7	92.3793	1,366.7	92.7107	1,366.7	91.0265	1,366.7	92.069	1,366.7	88.4447	1,366.7	90.2445	1,366.7	85.7649	1,366.7	87.1583	1,366.7	84.7103	1,366.7	83.2723	1,366.7	85.4594	1,366.7	79.9506	1,366.7	88.2249	1,366.7	79.806	1,366.7	88.5225	1,366.7	80.8303	1,366.7	87.218	1,366.7	79.1905	1,366.7	86.2414	1,366.7	77.802	1,366.7	84.6232	1,366.7	75.464	1,366.7	82.2459	1,366.7	76.5747	1,366.7	80.1956	1,366.7	80.9103	1,366.7	80.2328	1,366.7	77.9534	1,366.7	77.9668	1,366.7	74.0326	1,366.7	71.8488	1,366.7	72.792	1,366.7	78.7369	1,366.7	79.5422	1,366.7	79.3762	1,366.7	78.7489
1,413.57	92.8314	1,413.57	92.9634	1,413.57	91.0715	1,413.57	91.7936	1,413.57	87.9066	1,413.57	89.9734	1,413.57	84.85	1,413.57	88.3679	1,413.57	84.1862	1,413.57	85.3356	1,413.57	86.6673	1,413.57	78.6838	1,413.57	88.9462	1,413.57	74.4092	1,413.57	87.8498	1,413.57	73.4119	1,413.57	85.2229	1,413.57	70.4916	1,413.57	84.6639	1,413.57	68.9214	1,413.57	83.1279	1,413.57	73.9379	1,413.57	81.3311	1,413.57	77.8427	1,413.57	81.2519	1,413.57	79.2479	1,413.57	81.094	1,413.57	78.2562	1,413.57	78.5146	1,413.57	78.2772	1,413.57	77.514	1,413.57	74.5505	1,413.57	76.5582	1,413.57	75.4949	1,413.57	78.1816	1,413.57	77.2149
1,463.38	92.9769	1,463.38	93.2243	1,463.38	91.2434	1,463.38	91.5246	1,463.38	87.9726	1,463.38	88.8527	1,463.38	83.2319	1,463.38	87.2211	1,463.38	85.9289	1,463.38	84.0519	1,463.38	87.2411	1,463.38	73.2016	1,463.38	87.9837	1,463.38	66.3189	1,463.38	88.1205	1,463.38	62.1273	1,463.38	86.7809	1,463.38	76.0167	1,463.38	84.7965	1,463.38	72.4008	1,463.38	84.0632	1,463.38	73.5945	1,463.38	82.1511	1,463.38	64.7985	1,463.38	79.981	1,463.38	78.2384	1,463.38	74.9457	1,463.38	78.0009	1,463.38	78.7804	1,463.38	78.5774	1,463.38	76.4863	1,463.38	72.7888	1,463.38	73.4451	1,463.38	71.742	1,463.38	80.0701	1,463.38	77.5963
1,516.11	93.5154	1,516.11	92.9853	1,516.11	91.9179	1,516.11	91.4516	1,516.11	86.9377	1,516.11	88.6032	1,516.11	85.3458	1,516.11	83.5219	1,516.11	86.1686	1,516.11	81.5189	1,516.11	87.6062	1,516.11	77.3775	1,516.11	88.0743	1,516.11	72.801	1,516.11	88.5511	1,516.11	77.1934	1,516.11	88.0611	1,516.11	73.0694	1,516.11	85.406	1,516.11	77.0872	1,516.11	84.2988	1,516.11	77.3428	1,516.11	82.8688	1,516.11	69.597	1,516.11	83.617	1,516.11	72.3523	1,516.11	80.3355	1,516.11	71.4674	1,516.11	77.6911	1,516.11	72.5652	1,516.11	76.7419	1,516.11	68.3772	1,516.11	76.1433	1,516.11	69.3159	1,516.11	79.4749	1,516.11	78.0694
1,568.85	93.8765	1,568.85	92.9856	1,568.85	91.4117	1,568.85	90.575	1,568.85	86.8105	1,568.85	88.5132	1,568.85	85.143	1,568.85	84.0006	1,568.85	86.1846	1,568.85	78.5441	1,568.85	89.3072	1,568.85	78.6658	1,568.85	88.7682	1,568.85	75.4688	1,568.85	87.8051	1,568.85	79.4935	1,568.85	87.8378	1,568.85	72.6555	1,568.85	85.4845	1,568.85	69.7343	1,568.85	84.552	1,568.85	80.3902	1,568.85	83.7178	1,568.85	80.5147	1,568.85	84.1685	1,568.85	66.6826	1,568.85	82.528	1,568.85	63.4657	1,568.85	77.9221	1,568.85	76.1251	1,568.85	76.566	1,568.85	68.1092	1,568.85	78.219	1,568.85	72.8013	1,568.85	77.6876	1,568.85	80.4157
1,624.51	93.5653	1,624.51	93.1194	1,624.51	90.6284	1,624.51	91.2473	1,624.51	86.2317	1,624.51	89.6806	1,624.51	85.2758	1,624.51	85.3843	1,624.51	88.0863	1,624.51	76.5877	1,624.51	90.4429	1,624.51	73.4799	1,624.51	88.6206	1,624.51	79.4853	1,624.51	88.3608	1,624.51	78.9157	1,624.51	87.7952	1,624.51	75.7411	1,624.51	85.6358	1,624.51	74.1373	1,624.51	85.65	1,624.51	70.0135	1,624.51	85.4863	1,624.51	80.2449	1,624.51	84.6251	1,624.51	76.5992	1,624.51	83.1936	1,624.51	73.6145	1,624.51	74.7577	1,624.51	67.8922	1,624.51	78.6567	1,624.51	71.2251	1,624.51	73.717	1,624.51	70.1477	1,624.51	77.7101	1,624.51	78.7498
1,681.64	93.0126	1,681.64	92.6719	1,681.64	91.5866	1,681.64	91.9672	1,681.64	85.7654	1,681.64	87.7909	1,681.64	87.6887	1,681.64	81.9381	1,681.64	87.4842	1,681.64	81.6122	1,681.64	89.4801	1,681.64	82.1289	1,681.64	91.4938	1,681.64	68.2417	1,681.64	89.5865	1,681.64	78.5891	1,681.64	86.8474	1,681.64	77.2895	1,681.64	84.2675	1,681.64	76.4279	1,681.64	83.9032	1,681.64	74.0562	1,681.64	83.283	1,681.64	80.9505	1,681.64	85.0691	1,681.64	81.3113	1,681.64	81.9032	1,681.64	72.8264	1,681.64	73.9431	1,681.64	70.7156	1,681.64	78.0281	1,681.64	74.5947	1,681.64	71.0963	1,681.64	68.8366	1,681.64	80.0562	1,681.64	77.1136
1,741.7	93.6151	1,741.7	92.684	1,741.7	91.2566	1,741.7	91.0067	1,741.7	86.7693	1,741.7	87.4383	1,741.7	83.5265	1,741.7	80.5927	1,741.7	88.3078	1,741.7	79.3155	1,741.7	90.9762	1,741.7	84.9424	1,741.7	88.8903	1,741.7	81.7589	1,741.7	87.3968	1,741.7	80.0365	1,741.7	86.9695	1,741.7	81.4674	1,741.7	84.888	1,741.7	76.7856	1,741.7	83.479	1,741.7	63.3711	1,741.7	78.7231	1,741.7	78.8276	1,741.7	81.0086	1,741.7	82.9614	1,741.7	81.7127	1,741.7	78.9094	1,741.7	73.9191	1,741.7	67.2322	1,741.7	77.2357	1,741.7	71.109	1,741.7	73.978	1,741.7	50.5994	1,741.7	79.3697	1,741.7	74.494
1,803.22	93.7321	1,803.22	92.4061	1,803.22	91.6133	1,803.22	88.2916	1,803.22	85.6191	1,803.22	80.6611	1,803.22	84.3164	1,803.22	76.612	1,803.22	87.0565	1,803.22	78.5134	1,803.22	90.3691	1,803.22	80.0362	1,803.22	90.6963	1,803.22	83.5598	1,803.22	85.645	1,803.22	80.5151	1,803.22	84.2608	1,803.22	84.723	1,803.22	80.3281	1,803.22	82.9589	1,803.22	75.3618	1,803.22	72.4698	1,803.22	77.2361	1,803.22	73.3787	1,803.22	79.5081	1,803.22	81.639	1,803.22	82.0685	1,803.22	75.5776	1,803.22	78.4987	1,803.22	73.2772	1,803.22	73.9957	1,803.22	67.3484	1,803.22	72.0275	1,803.22	68.7816	1,803.22	77.4034	1,803.22	73.459
1,866.21	93.6529	1,866.21	93.0933	1,866.21	91.5456	1,866.21	88.7667	1,866.21	86.6458	1,866.21	79.9313	1,866.21	83.4736	1,866.21	75.8032	1,866.21	87.9656	1,866.21	80.3696	1,866.21	89.2271	1,866.21	82.8129	1,866.21	88.0137	1,866.21	83.4178	1,866.21	85.1398	1,866.21	79.9586	1,866.21	84.9333	1,866.21	78.182	1,866.21	82.7574	1,866.21	77.5005	1,866.21	80.8604	1,866.21	79.7377	1,866.21	79.793	1,866.21	74.3348	1,866.21	79.6145	1,866.21	77.6694	1,866.21	78.755	1,866.21	76.5002	1,866.21	75.087	1,866.21	70.4207	1,866.21	73.4329	1,866.21	60.8515	1,866.21	65.6664	1,866.21	70.9899	1,866.21	77.9957	1,866.21	75.3725
1,932.13	92.7665	1,932.13	91.8455	1,932.13	90.3277	1,932.13	87.3413	1,932.13	84.0703	1,932.13	79.2617	1,932.13	81.7366	1,932.13	76.7241	1,932.13	86.8097	1,932.13	82.4104	1,932.13	88.0393	1,932.13	83.2015	1,932.13	87.518	1,932.13	83.3189	1,932.13	84.7958	1,932.13	79.4725	1,932.13	81.6203	1,932.13	79.94	1,932.13	81.6046	1,932.13	79.0129	1,932.13	75.904	1,932.13	77.8365	1,932.13	77.2477	1,932.13	77.3736	1,932.13	77.6412	1,932.13	75.8612	1,932.13	73.9346	1,932.13	75.7673	1,932.13	69.4969	1,932.13	67.8974	1,932.13	71.2879	1,932.13	69.6494	1,932.13	62.3453	1,932.13	66.403	1,932.13	73.7499	1,932.13	74.5992
1,999.51	91.8102	1,999.51	90.0935	1,999.51	89.4531	1,999.51	86.3815	1,999.51	81.4803	1,999.51	76.7501	1,999.51	80.231	1,999.51	78.3119	1,999.51	86.0458	1,999.51	83.0396	1,999.51	88.3354	1,999.51	83.7359	1,999.51	87.7533	1,999.51	81.9191	1,999.51	85.9119	1,999.51	80.7159	1,999.51	82.3389	1,999.51	78.3985	1,999.51	80.8726	1,999.51	73.0589	1,999.51	75.8568	1,999.51	78.3314	1,999.51	76.3041	1,999.51	79.0843	1,999.51	76.1112	1,999.51	75.1204	1,999.51	75.9242	1,999.51	77.7596	1,999.51	72.3919	1,999.51	69.7033	1,999.51	71.0387	1,999.51	66.4742	1,999.51	63.0889	1,999.51	65.8217	1,999.51	72.6122	1,999.51	72.0167
2,069.82	92.4564	2,069.82	90.5522	2,069.82	90.5856	2,069.82	85.0183	2,069.82	82.9503	2,069.82	62.4255	2,069.82	79.6156	2,069.82	81.4492	2,069.82	85.7965	2,069.82	84.1823	2,069.82	88.2598	2,069.82	83.3448	2,069.82	87.8669	2,069.82	81.8998	2,069.82	85.0839	2,069.82	80.7232	2,069.82	83.1581	2,069.82	79.6023	2,069.82	78.1304	2,069.82	79.2581	2,069.82	77.0192	2,069.82	73.538	2,069.82	74.249	2,069.82	78.1458	2,069.82	71.8034	2,069.82	76.4382	2,069.82	76.6164	2,069.82	75.457	2,069.82	70.0851	2,069.82	75.1988	2,069.82	72.6103	2,069.82	65.8091	2,069.82	55.9406	2,069.82	71.2461	2,069.82	75.0614	2,069.82	73.5305
2,143.07	92.7399	2,143.07	91.2128	2,143.07	91.29	2,143.07	84.6843	2,143.07	83.9835	2,143.07	73.7613	2,143.07	79.1508	2,143.07	82.6231	2,143.07	86.5833	2,143.07	84.5661	2,143.07	88.588	2,143.07	84.7174	2,143.07	87.5763	2,143.07	82.8342	2,143.07	83.7304	2,143.07	81.2757	2,143.07	82.0055	2,143.07	80.669	2,143.07	81.1285	2,143.07	78.3542	2,143.07	79.3645	2,143.07	76.7348	2,143.07	75.4379	2,143.07	75.9318	2,143.07	70.9694	2,143.07	77.3095	2,143.07	76.609	2,143.07	73.3266	2,143.07	72.2842	2,143.07	73.5236	2,143.07	68.8522	2,143.07	62.6937	2,143.07	48.882	2,143.07	72.8765	2,143.07	74.651	2,143.07	73.5037
2,219.24	92.2927	2,219.24	90.4727	2,219.24	90.8954	2,219.24	82.2899	2,219.24	84.4969	2,219.24	80.4453	2,219.24	78.9045	2,219.24	84.8146	2,219.24	87.4101	2,219.24	86.2032	2,219.24	89.6162	2,219.24	85.718	2,219.24	88.4324	2,219.24	83.888	2,219.24	85.7837	2,219.24	82.8638	2,219.24	81.4478	2,219.24	80.9063	2,219.24	82.3336	2,219.24	77.8252	2,219.24	81.9525	2,219.24	78.282	2,219.24	78.4115	2,219.24	77.2692	2,219.24	75.2156	2,219.24	79.6376	2,219.24	78.1106	2,219.24	77.6226	2,219.24	72.8071	2,219.24	75.7756	2,219.24	66.3147	2,219.24	65.7432	2,219.24	54.8766	2,219.24	72.9466	2,219.24	74.695	2,219.24	70.9206
2,296.88	91.8419	2,296.88	88.8165	2,296.88	90.9383	2,296.88	81.3925	2,296.88	85.3635	2,296.88	82.4033	2,296.88	72.0249	2,296.88	87.9001	2,296.88	87.9027	2,296.88	88.6097	2,296.88	90.5986	2,296.88	87.2717	2,296.88	90.2262	2,296.88	85.858	2,296.88	86.9674	2,296.88	83.7289	2,296.88	80.1055	2,296.88	81.0282	2,296.88	81.5325	2,296.88	80.2403	2,296.88	83.0115	2,296.88	80.7493	2,296.88	81.726	2,296.88	80.0905	2,296.88	75.9482	2,296.88	79.4687	2,296.88	80.9439	2,296.88	79.6371	2,296.88	75.2365	2,296.88	75.9018	2,296.88	67.7651	2,296.88	71.9037	2,296.88	64.1262	2,296.88	72.6734	2,296.88	74.8757	2,296.88	74.3434
2,378.91	92.6072	2,378.91	90.2741	2,378.91	91.5866	2,378.91	83.8272	2,378.91	86.1787	2,378.91	85.8878	2,378.91	77.3725	2,378.91	89.5906	2,378.91	88.1703	2,378.91	90.3349	2,378.91	91.2328	2,378.91	88.4878	2,378.91	91.1973	2,378.91	86.4555	2,378.91	87.7613	2,378.91	87.0215	2,378.91	83.497	2,378.91	86.452	2,378.91	82.3322	2,378.91	84.0312	2,378.91	82.5395	2,378.91	78.8489	2,378.91	80.3845	2,378.91	82.1426	2,378.91	79.8603	2,378.91	80.1688	2,378.91	80.5505	2,378.91	81.2591	2,378.91	74.4534	2,378.91	77.0963	2,378.91	67.6872	2,378.91	75.4085	2,378.91	63.2956	2,378.91	72.6787	2,378.91	75.8388	2,378.91	74.7334
2,462.4	92.3819	2,462.4	91.2506	2,462.4	91.1221	2,462.4	85.6887	2,462.4	87.996	2,462.4	89.1596	2,462.4	82.2939	2,462.4	90.7971	2,462.4	89.3254	2,462.4	91.0818	2,462.4	91.5101	2,462.4	90.6516	2,462.4	91.9708	2,462.4	89.4451	2,462.4	90.2084	2,462.4	84.7849	2,462.4	85.7527	2,462.4	86.507	2,462.4	84.7318	2,462.4	82.1325	2,462.4	85.0941	2,462.4	82.8188	2,462.4	81.533	2,462.4	80.9597	2,462.4	81.2792	2,462.4	82.5219	2,462.4	80.9034	2,462.4	82.3655	2,462.4	75.1806	2,462.4	79.9502	2,462.4	66.7134	2,462.4	76.4798	2,462.4	63.5156	2,462.4	73.0988	2,462.4	76.2551	2,462.4	73.9211
2,548.83	93.0493	2,548.83	91.0342	2,548.83	90.3471	2,548.83	89.0292	2,548.83	87.9698	2,548.83	90.4081	2,548.83	87.5214	2,548.83	91.8809	2,548.83	89.1365	2,548.83	92.177	2,548.83	91.8278	2,548.83	91.5141	2,548.83	92.51	2,548.83	89.0155	2,548.83	90.118	2,548.83	88.7107	2,548.83	84.0578	2,548.83	83.7745	2,548.83	85.4545	2,548.83	82.823	2,548.83	83.8432	2,548.83	83.5769	2,548.83	84.1809	2,548.83	81.4678	2,548.83	80.4526	2,548.83	82.9851	2,548.83	80.8626	2,548.83	82.3618	2,548.83	76.7673	2,548.83	80.4053	2,548.83	69.3663	2,548.83	75.8125	2,548.83	67.923	2,548.83	72.1454	2,548.83	73.228	2,548.83	75.8644
2,639.65	92.6932	2,639.65	91.6127	2,639.65	89.7975	2,639.65	89.4364	2,639.65	88.3981	2,639.65	90.1721	2,639.65	88.6315	2,639.65	92.9636	2,639.65	90.7191	2,639.65	93.0503	2,639.65	92.0252	2,639.65	92.1591	2,639.65	92.096	2,639.65	89.045	2,639.65	89.5923	2,639.65	88.0271	2,639.65	88.8448	2,639.65	87.0432	2,639.65	86.404	2,639.65	85.3392	2,639.65	80.7544	2,639.65	81.1942	2,639.65	81.9658	2,639.65	82.8626	2,639.65	80.2533	2,639.65	81.0607	2,639.65	80.8307	2,639.65	82.8228	2,639.65	77.1482	2,639.65	80.2809	2,639.65	70.5212	2,639.65	78.5358	2,639.65	57.0753	2,639.65	77.074	2,639.65	74.0456	2,639.65	75.0547
2,731.93	91.6438	2,731.93	91.2424	2,731.93	88.3926	2,731.93	88.7548	2,731.93	88.1275	2,731.93	90.9013	2,731.93	89.7888	2,731.93	92.3884	2,731.93	90.9369	2,731.93	93.1161	2,731.93	91.9187	2,731.93	91.4837	2,731.93	92.4279	2,731.93	90.6586	2,731.93	89.4022	2,731.93	86.9211	2,731.93	88.5319	2,731.93	85.7389	2,731.93	84.3962	2,731.93	82.7072	2,731.93	78.066	2,731.93	81.0219	2,731.93	75.0048	2,731.93	79.1998	2,731.93	77.8139	2,731.93	81.279	2,731.93	78.2525	2,731.93	82.0715	2,731.93	71.056	2,731.93	80.6224	2,731.93	73.5209	2,731.93	77.3063	2,731.93	55.5287	2,731.93	72.918	2,731.93	73.2656	2,731.93	77.5847
2,828.61	92.0415	2,828.61	90.7753	2,828.61	88.3955	2,828.61	89.821	2,828.61	85.8872	2,828.61	91.0928	2,828.61	91.2849	2,828.61	92.7958	2,828.61	90.5762	2,828.61	92.7249	2,828.61	92.4969	2,828.61	91.0854	2,828.61	90.456	2,828.61	87.9743	2,828.61	88.5602	2,828.61	85.5139	2,828.61	88.1308	2,828.61	83.6903	2,828.61	82.2309	2,828.61	82.0044	2,828.61	59.3997	2,828.61	80.8889	2,828.61	69.9216	2,828.61	79.1035	2,828.61	80.104	2,828.61	80.7225	2,828.61	78.6512	2,828.61	80.0984	2,828.61	69.0321	2,828.61	79.6839	2,828.61	71.5072	2,828.61	75.397	2,828.61	65.4988	2,828.61	71.2451	2,828.61	69.6035	2,828.61	74.0317
2,928.22	91.3874	2,928.22	91.6619	2,928.22	89.8828	2,928.22	89.952	2,928.22	86.2751	2,928.22	90.9644	2,928.22	91.7096	2,928.22	93.1201	2,928.22	90.8735	2,928.22	92.4245	2,928.22	91.5574	2,928.22	90.7823	2,928.22	90.6516	2,928.22	86.1654	2,928.22	89.6974	2,928.22	85.0918	2,928.22	89.2948	2,928.22	84.5124	2,928.22	76.2361	2,928.22	81.4988	2,928.22	80.9063	2,928.22	79.489	2,928.22	76.4944	2,928.22	78.1389	2,928.22	81.5101	2,928.22	78.4542	2,928.22	65.6802	2,928.22	78.4775	2,928.22	66.6211	2,928.22	79.6698	2,928.22	72.1596	2,928.22	76.9651	2,928.22	62.8008	2,928.22	74.9419	2,928.22	62.2417	2,928.22	75.1026
3,030.76	90.5258	3,030.76	91.5252	3,030.76	88.3524	3,030.76	89.0752	3,030.76	87.7155	3,030.76	91.4655	3,030.76	92.0893	3,030.76	92.9611	3,030.76	91.7231	3,030.76	90.9226	3,030.76	90.0883	3,030.76	87.6257	3,030.76	90.2627	3,030.76	86.6854	3,030.76	88.4947	3,030.76	84.6087	3,030.76	86.789	3,030.76	79.1364	3,030.76	82.2166	3,030.76	81.8936	3,030.76	84.447	3,030.76	81.0482	3,030.76	84.1409	3,030.76	78.0637	3,030.76	79.4073	3,030.76	79.6319	3,030.76	74.5948	3,030.76	78.3647	3,030.76	70.1329	3,030.76	77.4643	3,030.76	77.2367	3,030.76	75.0989	3,030.76	63.3405	3,030.76	74.5517	3,030.76	44.8932	3,030.76	69.2602
3,137.7	91.26	3,137.7	91.4108	3,137.7	87.2704	3,137.7	89.2469	3,137.7	87.6909	3,137.7	91.6422	3,137.7	92.5496	3,137.7	92.8221	3,137.7	92.376	3,137.7	90.4496	3,137.7	89.7971	3,137.7	88.5335	3,137.7	90.6705	3,137.7	86.7577	3,137.7	89.7934	3,137.7	84.7926	3,137.7	85.3642	3,137.7	85.1182	3,137.7	86.9035	3,137.7	83.9474	3,137.7	84.8312	3,137.7	81.8102	3,137.7	81.812	3,137.7	78.8131	3,137.7	74.8744	3,137.7	79.5844	3,137.7	75.6198	3,137.7	79.1161	3,137.7	68.0171	3,137.7	78.5202	3,137.7	76.8397	3,137.7	75.701	3,137.7	61.6755	3,137.7	76.2661	3,137.7	60.835	3,137.7	75.8425
3,249.02	91.3039	3,249.02	91.7592	3,249.02	87.0251	3,249.02	89.0711	3,249.02	88.2165	3,249.02	92.4342	3,249.02	92.2996	3,249.02	92.4819	3,249.02	92.1104	3,249.02	89.2272	3,249.02	89.3589	3,249.02	88.0361	3,249.02	90.1689	3,249.02	87.9316	3,249.02	89.8109	3,249.02	88.1173	3,249.02	88.1571	3,249.02	84.1312	3,249.02	88.228	3,249.02	82.7136	3,249.02	81.5187	3,249.02	78.8957	3,249.02	79.1558	3,249.02	79.5978	3,249.02	76.3433	3,249.02	78.3701	3,249.02	75.3705	3,249.02	80.5868	3,249.02	67.9852	3,249.02	78.5871	3,249.02	74.8776	3,249.02	75.7751	3,249.02	58.3567	3,249.02	76.4129	3,249.02	61.1686	3,249.02	73.612
3,363.28	92.4335	3,363.28	92.1125	3,363.28	84.5738	3,363.28	89.1118	3,363.28	88.7916	3,363.28	92.6002	3,363.28	93.3187	3,363.28	90.8451	3,363.28	90.8127	3,363.28	90.2392	3,363.28	87.8113	3,363.28	90.2505	3,363.28	90.5294	3,363.28	89.7987	3,363.28	90.088	3,363.28	85.9702	3,363.28	89.3025	3,363.28	82.4408	3,363.28	87.7442	3,363.28	83.1255	3,363.28	80.5202	3,363.28	80.8592	3,363.28	78.878	3,363.28	80.1141	3,363.28	79.291	3,363.28	79.379	3,363.28	74.5456	3,363.28	80.9289	3,363.28	66.0528	3,363.28	78.2995	3,363.28	76.0198	3,363.28	75.7546	3,363.28	60.6685	3,363.28	76.3275	3,363.28	63.4557	3,363.28	70.1364
3,481.93	94.9122	3,481.93	91.4191	3,481.93	89.1872	3,481.93	89.1463	3,481.93	86.3774	3,481.93	91.757	3,481.93	93.7903	3,481.93	91.1289	3,481.93	91.5324	3,481.93	91.5393	3,481.93	84.7919	3,481.93	91.2308	3,481.93	92.2008	3,481.93	87.5659	3,481.93	90.7913	3,481.93	84.7447	3,481.93	90.6966	3,481.93	84.4178	3,481.93	84.5605	3,481.93	79.8317	3,481.93	80.731	3,481.93	77.5522	3,481.93	82.405	3,481.93	74.9338	3,481.93	81.5619	3,481.93	77.6755	3,481.93	72.8233	3,481.93	79.693	3,481.93	68.8314	3,481.93	78.8039	3,481.93	77.8299	3,481.93	73.6729	3,481.93	60.0536	3,481.93	77.0208	3,481.93	62.6063	3,481.93	72.5439
3,604.98	94.5988	3,604.98	87.5314	3,604.98	91.7874	3,604.98	91.1585	3,604.98	84.0977	3,604.98	90.5131	3,604.98	91.8023	3,604.98	90.6933	3,604.98	91.2143	3,604.98	91.3944	3,604.98	83.4143	3,604.98	88.3451	3,604.98	92.5849	3,604.98	85.1419	3,604.98	91.7153	3,604.98	83.375	3,604.98	90.6885	3,604.98	75.6848	3,604.98	74.6157	3,604.98	78.5134	3,604.98	78.8228	3,604.98	76.7105	3,604.98	83.0199	3,604.98	74.9827	3,604.98	81.5068	3,604.98	71.8479	3,604.98	69.6565	3,604.98	77.0645	3,604.98	68.0748	3,604.98	77.6155	3,604.98	76.3004	3,604.98	76.0442	3,604.98	62.5197	3,604.98	73.5143	3,604.98	68.8361	3,604.98	74.2936
3,732.42	92.8139	3,732.42	86.0265	3,732.42	91.7965	3,732.42	91.5448	3,732.42	85.4961	3,732.42	90.6026	3,732.42	92.0258	3,732.42	92.0075	3,732.42	91.5525	3,732.42	89.8562	3,732.42	86.8569	3,732.42	86.0533	3,732.42	91.4301	3,732.42	83.4506	3,732.42	91.6159	3,732.42	82.5794	3,732.42	88.0182	3,732.42	82.5985	3,732.42	80.9584	3,732.42	80.1036	3,732.42	78.656	3,732.42	78.3416	3,732.42	81.7014	3,732.42	74.401	3,732.42	76.4942	3,732.42	72.6525	3,732.42	63.6123	3,732.42	76.3033	3,732.42	71.5025	3,732.42	75.7726	3,732.42	73.8211	3,732.42	77.6116	3,732.42	66.0471	3,732.42	70.0698	3,732.42	68.7006	3,732.42	72.4794
3,864.26	91.7061	3,864.26	89.2879	3,864.26	92.1193	3,864.26	90.8146	3,864.26	85.4183	3,864.26	91.1738	3,864.26	91.0526	3,864.26	91.7467	3,864.26	90.9603	3,864.26	88.6598	3,864.26	87.4357	3,864.26	86.9409	3,864.26	90.5578	3,864.26	84.9824	3,864.26	90.5822	3,864.26	84.9872	3,864.26	87.2327	3,864.26	80.6035	3,864.26	84.5638	3,864.26	80.0857	3,864.26	79.405	3,864.26	78.8621	3,864.26	78.4038	3,864.26	77.6136	3,864.26	71.8462	3,864.26	73.7281	3,864.26	67.1193	3,864.26	76.0113	3,864.26	71.2433	3,864.26	75.9992	3,864.26	70.6747	3,864.26	75.4502	3,864.26	63.7902	3,864.26	73.9433	3,864.26	66.2144	3,864.26	73.2612
4,000.49	90.698	4,000.49	89.3878	4,000.49	92.0264	4,000.49	89.6779	4,000.49	87.9916	4,000.49	91.1501	4,000.49	91.2216	4,000.49	90.0617	4,000.49	91.6162	4,000.49	88.9304	4,000.49	88.8715	4,000.49	87.2837	4,000.49	89.8681	4,000.49	86.3329	4,000.49	89.4968	4,000.49	82.863	4,000.49	85.1223	4,000.49	82.0361	4,000.49	84.3356	4,000.49	79.2651	4,000.49	80.7155	4,000.49	78.9456	4,000.49	72.6592	4,000.49	76.3008	4,000.49	71.0268	4,000.49	75.1966	4,000.49	68.7254	4,000.49	76.481	4,000.49	72.1617	4,000.49	76.9656	4,000.49	69.3055	4,000.49	77.1782	4,000.49	68.0218	4,000.49	75.612	4,000.49	67.8135	4,000.49	73.3604
4,141.11	91.0508	4,141.11	88.0324	4,141.11	91.6791	4,141.11	89.1825	4,141.11	88.3267	4,141.11	92.1187	4,141.11	91.5327	4,141.11	90.2955	4,141.11	91.1743	4,141.11	89.5895	4,141.11	90.0994	4,141.11	88.4486	4,141.11	89.7307	4,141.11	86.1842	4,141.11	87.2997	4,141.11	85.8055	4,141.11	82.5876	4,141.11	82.4495	4,141.11	84.9024	4,141.11	79.884	4,141.11	82.3469	4,141.11	79.6069	4,141.11	72.3793	4,141.11	77.1406	4,141.11	65.8969	4,141.11	75.8777	4,141.11	65.421	4,141.11	77.7169	4,141.11	70.2675	4,141.11	77.1789	4,141.11	67.6065	4,141.11	76.832	4,141.11	68.5562	4,141.11	76.1879	4,141.11	66.9191	4,141.11	73.7592
4,287.6	92.0769	4,287.6	88.7857	4,287.6	91.7096	4,287.6	91.2598	4,287.6	87.7449	4,287.6	90.0976	4,287.6	91.7823	4,287.6	89.0424	4,287.6	91.9558	4,287.6	90.2254	4,287.6	90.996	4,287.6	87.6393	4,287.6	88.93	4,287.6	87.4333	4,287.6	84.1321	4,287.6	83.3632	4,287.6	83.6452	4,287.6	83.7529	4,287.6	85.8403	4,287.6	80.0407	4,287.6	79.537	4,287.6	78.3439	4,287.6	71.0459	4,287.6	76.7903	4,287.6	73.0387	4,287.6	74.6434	4,287.6	68.3815	4,287.6	76.3258	4,287.6	69.3044	4,287.6	77.3101	4,287.6	64.8759	4,287.6	77.6147	4,287.6	70.929	4,287.6	76.0189	4,287.6	63.2885	4,287.6	73.4307
4,438.48	90.8217	4,438.48	88.318	4,438.48	92.6495	4,438.48	90.024	4,438.48	88.42	4,438.48	88.8332	4,438.48	90.5249	4,438.48	90.9893	4,438.48	91.3031	4,438.48	89.439	4,438.48	90.6569	4,438.48	89.1602	4,438.48	85.0105	4,438.48	86.8481	4,438.48	84.1957	4,438.48	86.1638	4,438.48	87.4624	4,438.48	82.6465	4,438.48	85.0226	4,438.48	79.094	4,438.48	74.4053	4,438.48	79.2795	4,438.48	68.5256	4,438.48	77.1048	4,438.48	72.0836	4,438.48	75.4879	4,438.48	65.8103	4,438.48	76.1887	4,438.48	69.3528	4,438.48	77.1603	4,438.48	62.4406	4,438.48	76.6043	4,438.48	69.8025	4,438.48	76.3011	4,438.48	65.8635	4,438.48	73.3503
4,595.21	92.2583	4,595.21	88.6796	4,595.21	92.6214	4,595.21	90.6061	4,595.21	89.7504	4,595.21	89.0585	4,595.21	88.9061	4,595.21	89.9891	4,595.21	90.3058	4,595.21	90.1324	4,595.21	89.1482	4,595.21	89.1126	4,595.21	80.8288	4,595.21	88.2672	4,595.21	88.0184	4,595.21	83.6099	4,595.21	88.9182	4,595.21	83.2329	4,595.21	83.5767	4,595.21	80.1833	4,595.21	75.2688	4,595.21	77.6244	4,595.21	75.1675	4,595.21	75.9216	4,595.21	57.4494	4,595.21	72.5052	4,595.21	69.8782	4,595.21	77.123	4,595.21	69.6563	4,595.21	77.0686	4,595.21	67.2664	4,595.21	77.3173	4,595.21	71.3847	4,595.21	78.2172	4,595.21	68.3166	4,595.21	74.4321
4,756.35	91.3926	4,756.35	90.1642	4,756.35	92.036	4,756.35	89.7693	4,756.35	90.7402	4,756.35	88.3737	4,756.35	87.5531	4,756.35	90.6452	4,756.35	90.1972	4,756.35	90.438	4,756.35	89.4165	4,756.35	88.733	4,756.35	84.203	4,756.35	86.2473	4,756.35	90.2706	4,756.35	84.0796	4,756.35	86.3294	4,756.35	80.4645	4,756.35	78.9902	4,756.35	78.4302	4,756.35	75.675	4,756.35	76.3187	4,756.35	72.6921	4,756.35	74.8167	4,756.35	67.3081	4,756.35	73.3436	4,756.35	73.1248	4,756.35	75.2585	4,756.35	71.53	4,756.35	74.1168	4,756.35	65.3687	4,756.35	75.6603	4,756.35	72.5981	4,756.35	75.0098	4,756.35	64.726	4,756.35	71.6945
4,924.8	92.4069	4,924.8	89.9021	4,924.8	92.6507	4,924.8	88.8655	4,924.8	89.4662	4,924.8	90.0257	4,924.8	86.9341	4,924.8	89.5743	4,924.8	89.1535	4,924.8	90.4069	4,924.8	87.4592	4,924.8	86.9807	4,924.8	87.2285	4,924.8	86.235	4,924.8	90.149	4,924.8	82.4893	4,924.8	84.2814	4,924.8	80.9673	4,924.8	81.0191	4,924.8	78.1194	4,924.8	75.4173	4,924.8	76.2567	4,924.8	68.2349	4,924.8	75.8738	4,924.8	63.5091	4,924.8	70.6892	4,924.8	74.3365	4,924.8	74.095	4,924.8	72.7751	4,924.8	74.9967	4,924.8	62.2789	4,924.8	75.1696	4,924.8	74.2192	4,924.8	75.5683	4,924.8	64.705	4,924.8	72.9718
5,097.66	91.8951	5,097.66	90.2159	5,097.66	92.7949	5,097.66	89.7398	5,097.66	90.5897	5,097.66	89.4705	5,097.66	89.4984	5,097.66	90.4041	5,097.66	88.0169	5,097.66	89.4793	5,097.66	87.3447	5,097.66	87.2267	5,097.66	88.6715	5,097.66	85.2504	5,097.66	88.1301	5,097.66	82.8363	5,097.66	82.0399	5,097.66	78.5326	5,097.66	78.6251	5,097.66	77.3047	5,097.66	77.4159	5,097.66	74.7636	5,097.66	76.6855	5,097.66	74.1194	5,097.66	54.9633	5,097.66	71.1957	5,097.66	72.2445	5,097.66	73.0219	5,097.66	68.9978	5,097.66	71.6536	5,097.66	65.1329	5,097.66	75.8448	5,097.66	72.4198	5,097.66	76.0435	5,097.66	62.1845	5,097.66	73.8211
5,277.83	92.4829	5,277.83	90.9101	5,277.83	92.4221	5,277.83	89.8431	5,277.83	90.6259	5,277.83	90.1381	5,277.83	91.7832	5,277.83	89.65	5,277.83	84.503	5,277.83	88.5352	5,277.83	88.3222	5,277.83	86.8504	5,277.83	88.1259	5,277.83	83.8562	5,277.83	86.1996	5,277.83	80.8916	5,277.83	82.7756	5,277.83	78.5495	5,277.83	80.4978	5,277.83	76.6699	5,277.83	75.1303	5,277.83	75.283	5,277.83	66.7349	5,277.83	73.2288	5,277.83	56.9096	5,277.83	68.4372	5,277.83	72.9271	5,277.83	70.7948	5,277.83	59.55	5,277.83	71.3015	5,277.83	70.5644	5,277.83	70.8224	5,277.83	68.6299	5,277.83	72.4953	5,277.83	64.8832	5,277.83	73.2579
5,463.87	92.1043	5,463.87	90.9946	5,463.87	92.2635	5,463.87	90.55	5,463.87	91.3178	5,463.87	89.8092	5,463.87	91.0069	5,463.87	88.8534	5,463.87	83.16	5,463.87	88.4159	5,463.87	89.6049	5,463.87	86.0518	5,463.87	85.4049	5,463.87	83.6661	5,463.87	84.0416	5,463.87	81.3458	5,463.87	82.7123	5,463.87	78.1556	5,463.87	83.6985	5,463.87	75.936	5,463.87	75.9226	5,463.87	74.6048	5,463.87	63.4049	5,463.87	72.2241	5,463.87	66.3829	5,463.87	69.9486	5,463.87	74.6044	5,463.87	70.2366	5,463.87	57.96	5,463.87	73.1659	5,463.87	66.8591	5,463.87	72.5989	5,463.87	72.0463	5,463.87	74.6899	5,463.87	67.4839	5,463.87	74.8388
5,657.23	92.2996	5,657.23	92.1247	5,657.23	93.0087	5,657.23	91.0797	5,657.23	89.2519	5,657.23	89.1273	5,657.23	89.1687	5,657.23	88.277	5,657.23	85.9043	5,657.23	87.8244	5,657.23	91.2952	5,657.23	85.7217	5,657.23	82.5995	5,657.23	83.0715	5,657.23	82.3215	5,657.23	81.6838	5,657.23	81.948	5,657.23	78.8542	5,657.23	81.3226	5,657.23	74.6046	5,657.23	76.8467	5,657.23	74.7137	5,657.23	67.802	5,657.23	71.4776	5,657.23	62.8709	5,657.23	70.3515	5,657.23	71.1568	5,657.23	68.4413	5,657.23	63.9511	5,657.23	71.895	5,657.23	67.5146	5,657.23	70.9848	5,657.23	73.6001	5,657.23	74.0515	5,657.23	67.3744	5,657.23	72.6414
5,856.45	92.198	5,856.45	92.6507	5,856.45	92.6957	5,856.45	90.5546	5,856.45	90.2237	5,856.45	88.1929	5,856.45	89.8069	5,856.45	88.4641	5,856.45	88.7711	5,856.45	87.4417	5,856.45	89.7909	5,856.45	85.6632	5,856.45	82.9717	5,856.45	83.3002	5,856.45	81.4566	5,856.45	80.2706	5,856.45	79.9528	5,856.45	78.2095	5,856.45	78.0401	5,856.45	76.3615	5,856.45	73.4894	5,856.45	74.1371	5,856.45	69.0089	5,856.45	73.1031	5,856.45	63.8491	5,856.45	70.5698	5,856.45	66.909	5,856.45	64.2205	5,856.45	65.1794	5,856.45	70.3904	5,856.45	67.6874	5,856.45	69.5964	5,856.45	71.9068	5,856.45	71.7847	5,856.45	66.1848	5,856.45	72.0213
6,062.99	92.5545	6,062.99	92.6592	6,062.99	92.5837	6,062.99	90.8078	6,062.99	91.8088	6,062.99	87.7825	6,062.99	90.9277	6,062.99	88.2894	6,062.99	89.9007	6,062.99	87.3141	6,062.99	89.4063	6,062.99	85.6623	6,062.99	81.6367	6,062.99	83.1059	6,062.99	82.9352	6,062.99	81.0643	6,062.99	81.9554	6,062.99	77.1375	6,062.99	80.6025	6,062.99	76.1049	6,062.99	67.412	6,062.99	73.0378	6,062.99	63.752	6,062.99	72.5193	6,062.99	53.8064	6,062.99	71.4514	6,062.99	63.1234	6,062.99	66.2792	6,062.99	66.7278	6,062.99	67.1721	6,062.99	68.093	6,062.99	69.5945	6,062.99	65.6926	6,062.99	72.2057	6,062.99	63.4514	6,062.99	72.2207
6,276.86	92.3473	6,276.86	92.8917	6,276.86	92.1372	6,276.86	90.2079	6,276.86	90.5614	6,276.86	88.3761	6,276.86	90.316	6,276.86	88.0136	6,276.86	88.9814	6,276.86	87.3748	6,276.86	87.8612	6,276.86	85.1831	6,276.86	82.2848	6,276.86	82.6521	6,276.86	84.4992	6,276.86	80.1871	6,276.86	83.5278	6,276.86	76.3016	6,276.86	78.4161	6,276.86	75.2709	6,276.86	67.6217	6,276.86	73.4055	6,276.86	67.1263	6,276.86	71.5596	6,276.86	66.3893	6,276.86	70.4142	6,276.86	62.3482	6,276.86	63.5895	6,276.86	56.468	6,276.86	65.2628	6,276.86	67.4494	6,276.86	69.2404	6,276.86	68.912	6,276.86	69.8379	6,276.86	60.0347	6,276.86	69.2964
6,498.05	91.9534	6,498.05	92.4142	6,498.05	91.8935	6,498.05	90.5229	6,498.05	90.6775	6,498.05	88.1669	6,498.05	89.4624	6,498.05	88.0882	6,498.05	87.5003	6,498.05	86.962	6,498.05	85.5449	6,498.05	84.9187	6,498.05	83.9245	6,498.05	82.4651	6,498.05	84.071	6,498.05	79.5665	6,498.05	84.7361	6,498.05	77.3415	6,498.05	79.5199	6,498.05	74.3197	6,498.05	67.7927	6,498.05	73.9908	6,498.05	65.1484	6,498.05	70.9879	6,498.05	62.9321	6,498.05	69.843	6,498.05	68.0649	6,498.05	67.0685	6,498.05	61.1589	6,498.05	66.8922	6,498.05	61.0207	6,498.05	64.9272	6,498.05	72.1675	6,498.05	70.2444	6,498.05	59.4292	6,498.05	70.4177
6,726.56	92.0152	6,726.56	92.3165	6,726.56	92.5214	6,726.56	89.8444	6,726.56	92.21	6,726.56	88.3957	6,726.56	89.3543	6,726.56	87.9811	6,726.56	86.4857	6,726.56	86.1595	6,726.56	83.3167	6,726.56	84.8548	6,726.56	83.5808	6,726.56	82.5624	6,726.56	84.5423	6,726.56	79.7907	6,726.56	81.8488	6,726.56	76.7185	6,726.56	79.5906	6,726.56	74.6824	6,726.56	71.7792	6,726.56	72.9876	6,726.56	62.7982	6,726.56	70.541	6,726.56	61.734	6,726.56	70.5663	6,726.56	66.3201	6,726.56	67.1578	6,726.56	57.9963	6,726.56	65.7341	6,726.56	65.2038	6,726.56	62.111	6,726.56	69.5089	6,726.56	69.4342	6,726.56	60.9427	6,726.56	71.5381
6,963.87	91.2724	6,963.87	91.7205	6,963.87	90.5034	6,963.87	89.6759	6,963.87	90.1839	6,963.87	88.6328	6,963.87	89.9039	6,963.87	87.2531	6,963.87	84.7708	6,963.87	86.0268	6,963.87	83.0065	6,963.87	85.1151	6,963.87	84.2411	6,963.87	82.3952	6,963.87	82.4969	6,963.87	79.5574	6,963.87	78.6517	6,963.87	76.2255	6,963.87	78.2723	6,963.87	75.2682	6,963.87	65.4894	6,963.87	72.8189	6,963.87	58.8645	6,963.87	70.1959	6,963.87	66.604	6,963.87	70.5497	6,963.87	63.9566	6,963.87	67.6656	6,963.87	66.072	6,963.87	65.8845	6,963.87	67.2248	6,963.87	62.8528	6,963.87	64.0924	6,963.87	70.667	6,963.87	62.8594	6,963.87	70.0697
7,209.96	90.6792	7,209.96	91.0324	7,209.96	90.4196	7,209.96	90.0298	7,209.96	89.1934	7,209.96	87.8886	7,209.96	88.5565	7,209.96	87.0302	7,209.96	83.8485	7,209.96	86.2734	7,209.96	84.6107	7,209.96	84.9296	7,209.96	86.2121	7,209.96	83.256	7,209.96	76.8486	7,209.96	80.0953	7,209.96	80.579	7,209.96	77.2028	7,209.96	74.269	7,209.96	74.4502	7,209.96	63.3676	7,209.96	72.7322	7,209.96	71.3054	7,209.96	70.9429	7,209.96	54.1929	7,209.96	70.8973	7,209.96	58.3572	7,209.96	65.548	7,209.96	67.7109	7,209.96	66.9208	7,209.96	65.3152	7,209.96	60.9876	7,209.96	64.9374	7,209.96	69.4501	7,209.96	62.5081	7,209.96	68.4777
7,464.84	89.8876	7,464.84	90.5871	7,464.84	90.8194	7,464.84	89.6484	7,464.84	89.56	7,464.84	87.0999	7,464.84	86.4705	7,464.84	86.7016	7,464.84	85.4322	7,464.84	85.4922	7,464.84	86.2592	7,464.84	84.843	7,464.84	86.1059	7,464.84	83.2085	7,464.84	76.4605	7,464.84	79.7804	7,464.84	82.7786	7,464.84	76.8929	7,464.84	74.3966	7,464.84	73.316	7,464.84	70.3371	7,464.84	72.3722	7,464.84	72.4445	7,464.84	71.1669	7,464.84	60.9225	7,464.84	69.7423	7,464.84	62.9307	7,464.84	64.2159	7,464.84	68.3067	7,464.84	64.8149	7,464.84	65.3922	7,464.84	59.9799	7,464.84	59.3068	7,464.84	66.6084	7,464.84	65.4089	7,464.84	66.2974
7,727.05	89.9927	7,727.05	90.2414	7,727.05	89.9939	7,727.05	88.9171	7,727.05	89.2835	7,727.05	87.0163	7,727.05	86.8854	7,727.05	85.8762	7,727.05	85.0754	7,727.05	85.1596	7,727.05	87.2339	7,727.05	84.1849	7,727.05	82.275	7,727.05	82.0193	7,727.05	83.0658	7,727.05	77.7612	7,727.05	81.1912	7,727.05	74.619	7,727.05	73.8657	7,727.05	70.5145	7,727.05	66.8399	7,727.05	70.0227	7,727.05	70.4342	7,727.05	68.4334	7,727.05	62.8956	7,727.05	69.4214	7,727.05	55.7054	7,727.05	63.2133	7,727.05	64.3268	7,727.05	57.3991	7,727.05	60.7913	7,727.05	57.6369	7,727.05	59.7586	7,727.05	67.6817	7,727.05	61.7528	7,727.05	64.4206
7,999.51	89.829	7,999.51	89.8914	7,999.51	90.0963	7,999.51	88.6647	7,999.51	89.4423	7,999.51	86.2803	7,999.51	87.2493	7,999.51	85.4568	7,999.51	85.3029	7,999.51	85.717	7,999.51	86.878	7,999.51	83.5704	7,999.51	78.3071	7,999.51	79.7252	7,999.51	83.6222	7,999.51	75.5846	7,999.51	76.9929	7,999.51	71.9901	7,999.51	72.4653	7,999.51	70.8464	7,999.51	58.2312	7,999.51	69.2546	7,999.51	66.3748	7,999.51	67.9861	7,999.51	61.8452	7,999.51	69.5926	7,999.51	53.5069	7,999.51	65.2447	7,999.51	62.5778	7,999.51	61.4646	7,999.51	57.576	7,999.51	56.4624	7,999.51	62.1806	7,999.51	60.8195	7,999.51	61.3891	7,999.51	63.4009
8,282.23	89.8319	8,282.23	89.3348	8,282.23	88.7287	8,282.23	88.7299	8,282.23	88.4281	8,282.23	85.3194	8,282.23	86.8788	8,282.23	86.0757	8,282.23	85.0772	8,282.23	85.6072	8,282.23	85.0752	8,282.23	82.9868	8,282.23	82.5498	8,282.23	79.0292	8,282.23	80.7391	8,282.23	76.3429	8,282.23	74.9019	8,282.23	72.3009	8,282.23	72.1183	8,282.23	71.7091	8,282.23	69.9932	8,282.23	67.9897	8,282.23	63.6754	8,282.23	68.6906	8,282.23	62.4244	8,282.23	68.0189	8,282.23	57.0297	8,282.23	65.0117	8,282.23	65.6441	8,282.23	65.7051	8,282.23	63.2193	8,282.23	59.9193	8,282.23	59.824	8,282.23	60.7787	8,282.23	60.3549	8,282.23	64.644
8,573.73	89.6414	8,573.73	89.2044	8,573.73	88.6177	8,573.73	88.2963	8,573.73	87.2179	8,573.73	85.6779	8,573.73	85.4282	8,573.73	85.9371	8,573.73	84.1921	8,573.73	85.5137	8,573.73	82.6336	8,573.73	82.4356	8,573.73	82.8523	8,573.73	79.8409	8,573.73	74.2342	8,573.73	77.0103	8,573.73	73.7389	8,573.73	73.5096	8,573.73	69.6159	8,573.73	71.5729	8,573.73	69.2575	8,573.73	68.725	8,573.73	58.9043	8,573.73	68.9903	8,573.73	59.0313	8,573.73	67.8508	8,573.73	62.1996	8,573.73	64.9292	8,573.73	61.6481	8,573.73	67.8209	8,573.73	57.9152	8,573.73	60.9939	8,573.73	60.0325	8,573.73	57.1375	8,573.73	53.8643	8,573.73	61.0187
8,876.95	89.2941	8,876.95	89.1656	8,876.95	88.0314	8,876.95	88.3093	8,876.95	87.3246	8,876.95	85.9062	8,876.95	84.9216	8,876.95	85.9272	8,876.95	83.8784	8,876.95	84.5628	8,876.95	82.275	8,876.95	82.5551	8,876.95	81.1845	8,876.95	80.6781	8,876.95	78.9941	8,876.95	78.4685	8,876.95	75.9351	8,876.95	74.6449	8,876.95	71.1591	8,876.95	71.5466	8,876.95	66.564	8,876.95	70.6188	8,876.95	63.3875	8,876.95	68.7051	8,876.95	45.1765	8,876.95	69.1767	8,876.95	52.8404	8,876.95	66.4499	8,876.95	59.8062	8,876.95	67.068	8,876.95	61.6105	8,876.95	63.0869	8,876.95	54.478	8,876.95	59.3452	8,876.95	52.6835	8,876.95	60.295
9,188.96	89.3216	9,188.96	88.9765	9,188.96	87.8468	9,188.96	87.8061	9,188.96	87.339	9,188.96	86.4889	9,188.96	86.9816	9,188.96	85.1533	9,188.96	82.2976	9,188.96	82.7907	9,188.96	82.2217	9,188.96	82.0454	9,188.96	79.9623	9,188.96	81.1914	9,188.96	82.2924	9,188.96	77.6391	9,188.96	70.286	9,188.96	73.5836	9,188.96	73.0399	9,188.96	69.9093	9,188.96	61.4939	9,188.96	70.2926	9,188.96	51.6304	9,188.96	67.3563	9,188.96	54.5155	9,188.96	69.4373	9,188.96	58.9034	9,188.96	64.8752	9,188.96	61.443	9,188.96	65.1575	9,188.96	58.9293	9,188.96	63.6471	9,188.96	48.6903	9,188.96	61.402	9,188.96	54.9906	9,188.96	59.598
9,514.16	88.9253	9,514.16	88.5515	9,514.16	88.2419	9,514.16	86.9877	9,514.16	86.9832	9,514.16	85.769	9,514.16	85.356	9,514.16	82.9934	9,514.16	81.1052	9,514.16	81.0755	9,514.16	82.6488	9,514.16	81.904	9,514.16	82.0017	9,514.16	80.2153	9,514.16	80.3795	9,514.16	76.0459	9,514.16	70.8114	9,514.16	72.0314	9,514.16	72.4406	9,514.16	68.0111	9,514.16	65.0843	9,514.16	67.4502	9,514.16	58.7832	9,514.16	66.8563	9,514.16	59.2335	9,514.16	68.0071	9,514.16	59.2153	9,514.16	62.7366	9,514.16	64.6819	9,514.16	60.6024	9,514.16	52.0111	9,514.16	59.6951	9,514.16	47.917	9,514.16	59.1451	9,514.16	56.2071	9,514.16	56.2741
9,849.61	88.7297	9,849.61	87.6321	9,849.61	87.874	9,849.61	87.0144	9,849.61	87.6293	9,849.61	85.0622	9,849.61	86.7419	9,849.61	81.7049	9,849.61	84.2675	9,849.61	80.8106	9,849.61	84.0388	9,849.61	81.4915	9,849.61	82.6723	9,849.61	77.5764	9,849.61	78.9708	9,849.61	72.0149	9,849.61	75.1622	9,849.61	66.1208	9,849.61	70.8058	9,849.61	63.8508	9,849.61	62.9307	9,849.61	61.4231	9,849.61	60.4056	9,849.61	62.9203	9,849.61	58.8144	9,849.61	63.8188	9,849.61	55.9885	9,849.61	60.7538	9,849.61	63.9853	9,849.61	59.5174	9,849.61	52.7133	9,849.61	56.9673	9,849.61	54.3827	9,849.61	51.4777	9,849.61	51.0821	9,849.61	50.055
10,196.8	89.0332	10,196.8	87.8941	10,196.8	88.0475	10,196.8	87.4487	10,196.8	87.438	10,196.8	84.4375	10,196.8	86.8082	10,196.8	81.1129	10,196.8	84.4685	10,196.8	82.3241	10,196.8	81.2931	10,196.8	79.9015	10,196.8	83.13	10,196.8	74.0473	10,196.8	78.2422	10,196.8	71.4015	10,196.8	73.203	10,196.8	65.9803	10,196.8	69.8498	10,196.8	64.4738	10,196.8	54.7349	10,196.8	61.6706	10,196.8	62.8031	10,196.8	61.518	10,196.8	55.0701	10,196.8	62.6738	10,196.8	46.9202	10,196.8	61.0514	10,196.8	59.1984	10,196.8	61.2339	10,196.8	55.2454	10,196.8	56.4877	10,196.8	47.6745	10,196.8	49.9002	10,196.8	48.4513	10,196.8	55.2353
10,555.7	89.1041	10,555.7	88.2656	10,555.7	88.7643	10,555.7	87.7193	10,555.7	87.7306	10,555.7	84.3027	10,555.7	85.4268	10,555.7	83.2666	10,555.7	83.0075	10,555.7	81.4303	10,555.7	79.9947	10,555.7	77.902	10,555.7	81.9794	10,555.7	74.7319	10,555.7	74.146	10,555.7	71.2062	10,555.7	75.119	10,555.7	67.1251	10,555.7	71.3387	10,555.7	65.0499	10,555.7	59.0944	10,555.7	62.2993	10,555.7	65.8861	10,555.7	60.8941	10,555.7	48.1706	10,555.7	61.9125	10,555.7	41.5515	10,555.7	61.5191	10,555.7	50.1346	10,555.7	60.101	10,555.7	54.8568	10,555.7	60.2268	10,555.7	48.9959	10,555.7	47.3615	10,555.7	41.4894	10,555.7	53.0945
10,927.7	89.8021	10,927.7	89.1788	10,927.7	89.2506	10,927.7	88.0791	10,927.7	88.4447	10,927.7	85.3373	10,927.7	85.6535	10,927.7	84.2957	10,927.7	81.9886	10,927.7	80.1677	10,927.7	81.5463	10,927.7	76.4986	10,927.7	78.5438	10,927.7	74.8001	10,927.7	75.5933	10,927.7	71.3312	10,927.7	72.5468	10,927.7	66.5382	10,927.7	68.4903	10,927.7	62.776	10,927.7	61.9803	10,927.7	59.357	10,927.7	62.4935	10,927.7	57.8282	10,927.7	52.18	10,927.7	61.3008	10,927.7	45.735	10,927.7	57.9003	10,927.7	58.1101	10,927.7	59.9374	10,927.7	52.6305	10,927.7	59.1374	10,927.7	45.1455	10,927.7	49.0218	10,927.7	37.0596	10,927.7	50.6486
11,313	90.6729	11,313	90.4616	11,313	89.7944	11,313	88.7074	11,313	88.2553	11,313	86.3295	11,313	85.702	11,313	84.3927	11,313	82.4886	11,313	79.2463	11,313	80.5931	11,313	76.568	11,313	76.0715	11,313	73.5255	11,313	73.3422	11,313	68.8153	11,313	66.7972	11,313	64.4092	11,313	64.6625	11,313	60.3689	11,313	57.5396	11,313	58.0039	11,313	58.2626	11,313	58.0158	11,313	47.7968	11,313	58.1157	11,313	47.5231	11,313	58.4503	11,313	49.1258	11,313	58.6484	11,313	44.8128	11,313	57.6446	11,313	53.0115	11,313	45.9994	11,313	47.5307	11,313	51.1803
11,712.9	91.1049	11,712.9	90.9193	11,712.9	90.1317	11,712.9	88.9865	11,712.9	87.832	11,712.9	86.7244	11,712.9	84.5257	11,712.9	83.6143	11,712.9	81.9728	11,712.9	79.1538	11,712.9	77.8732	11,712.9	76.4867	11,712.9	73.215	11,712.9	72.7718	11,712.9	68.5434	11,712.9	67.9432	11,712.9	67.8343	11,712.9	64.1288	11,712.9	64.3598	11,712.9	61.3591	11,712.9	52.1363	11,712.9	59.9466	11,712.9	56.3609	11,712.9	58.2616	11,712.9	44.6236	11,712.9	60.5046	11,712.9	37.7116	11,712.9	58.1242	11,712.9	49.6457	11,712.9	57.3722	11,712.9	47.8022	11,712.9	58.7899	11,712.9	50.6263	11,712.9	50.7832	11,712.9	48.1783	11,712.9	51.6073
12,126	90.9783	12,126	90.9788	12,126	89.9099	12,126	88.7839	12,126	86.9993	12,126	86.4656	12,126	83.551	12,126	82.4375	12,126	79.2844	12,126	78.3658	12,126	75.744	12,126	75.9706	12,126	73.2953	12,126	72.828	12,126	67.8882	12,126	69.7615	12,126	67.1078	12,126	66.6785	12,126	63.58	12,126	63.446	12,126	47.6393	12,126	60.8171	12,126	55.1222	12,126	60.0182	12,126	47.5792	12,126	62.1086	12,126	35.841	12,126	58.7155	12,126	49.3672	12,126	60.7308	12,126	47.4508	12,126	59.8378	12,126	52.3916	12,126	53.5531	12,126	51.5871	12,126	51.8261
12,553.7	90.7403	12,553.7	90.711	12,553.7	89.5423	12,553.7	88.1986	12,553.7	86.4909	12,553.7	85.9989	12,553.7	82.5597	12,553.7	80.8815	12,553.7	78.8718	12,553.7	77.982	12,553.7	75.4976	12,553.7	75.2423	12,553.7	74.0244	12,553.7	73.7823	12,553.7	70.459	12,553.7	71.4488	12,553.7	67.8526	12,553.7	68.2301	12,553.7	66.5596	12,553.7	63.695	12,553.7	51.5793	12,553.7	62.2506	12,553.7	59.2093	12,553.7	61.4004	12,553.7	52.1491	12,553.7	61.9213	12,553.7	44.8015	12,553.7	59.6133	12,553.7	48.5897	12,553.7	60.9252	12,553.7	32.7556	12,553.7	61.1824	12,553.7	48.9047	12,553.7	52.6581	12,553.7	50.5835	12,553.7	49.0054
12,996.1	90.3634	12,996.1	90.2271	12,996.1	88.9772	12,996.1	87.8082	12,996.1	86.3738	12,996.1	85.1479	12,996.1	82.8392	12,996.1	80.1805	12,996.1	78.934	12,996.1	76.8995	12,996.1	76.3043	12,996.1	74.5459	12,996.1	70.445	12,996.1	75.1595	12,996.1	69.3982	12,996.1	71.9236	12,996.1	70.1921	12,996.1	68.0951	12,996.1	65.6584	12,996.1	64.6271	12,996.1	54.7191	12,996.1	61.314	12,996.1	61.3439	12,996.1	61.9363	12,996.1	46.7209	12,996.1	63.5937	12,996.1	49.0853	12,996.1	59.9335	12,996.1	47.3208	12,996.1	60.9389	12,996.1	45.9783	12,996.1	61.3246	12,996.1	47.2947	12,996.1	51.0094	12,996.1	49.8124	12,996.1	47.9824
13,454.6	90.1772	13,454.6	89.7715	13,454.6	88.4609	13,454.6	87.4979	13,454.6	86.4653	13,454.6	84.1491	13,454.6	82.6187	13,454.6	79.7193	13,454.6	78.0593	13,454.6	73.2633	13,454.6	76.8999	13,454.6	74.1671	13,454.6	74.0864	13,454.6	74.7073	13,454.6	71.3015	13,454.6	71.5625	13,454.6	69.9219	13,454.6	67.9966	13,454.6	61.0854	13,454.6	65.0281	13,454.6	55.8311	13,454.6	60.011	13,454.6	61.6031	13,454.6	61.406	13,454.6	49.8586	13,454.6	62.5935	13,454.6	40.6758	13,454.6	58.8139	13,454.6	49.207	13,454.6	59.5593	13,454.6	49.6325	13,454.6	61.3406	13,454.6	46.3529	13,454.6	54.6945	13,454.6	53.3443	13,454.6	47.6099
13,929.2	89.6456	13,929.2	89.1738	13,929.2	87.9803	13,929.2	86.9752	13,929.2	86.9408	13,929.2	82.5295	13,929.2	83.4981	13,929.2	77.2976	13,929.2	79.6077	13,929.2	68.5682	13,929.2	77.4854	13,929.2	73.7726	13,929.2	75.219	13,929.2	74.4367	13,929.2	68.6905	13,929.2	70.9675	13,929.2	68.7911	13,929.2	67.0311	13,929.2	59.3314	13,929.2	63.2586	13,929.2	58.8594	13,929.2	59.9792	13,929.2	63.1492	13,929.2	61.3427	13,929.2	52.2508	13,929.2	60.341	13,929.2	42.0398	13,929.2	58.2183	13,929.2	52.4968	13,929.2	59.4777	13,929.2	47.9838	13,929.2	60.06	13,929.2	41.7652	13,929.2	53.4791	13,929.2	51.5131	13,929.2	41.7589
14,419.9	88.6514	14,419.9	88.0576	14,419.9	87.2625	14,419.9	85.7993	14,419.9	86.5038	14,419.9	79.9898	14,419.9	83.244	14,419.9	73.543	14,419.9	79.5682	14,419.9	67.9214	14,419.9	76.5112	14,419.9	72.9512	14,419.9	74.0697	14,419.9	74.214	14,419.9	71.2096	14,419.9	70.0102	14,419.9	61.3948	14,419.9	65.9037	14,419.9	58.9058	14,419.9	60.9068	14,419.9	60.1381	14,419.9	59.9288	14,419.9	64.6175	14,419.9	58.9554	14,419.9	49.0998	14,419.9	58.8713	14,419.9	46.4504	14,419.9	57.5107	14,419.9	47.2198	14,419.9	56.3621	14,419.9	46.5331	14,419.9	59.3982	14,419.9	45.8772	14,419.9	51.8512	14,419.9	50.8549	14,419.9	45.6578
14,928.2	87.5527	14,928.2	86.7215	14,928.2	87.0823	14,928.2	84.0157	14,928.2	86.5751	14,928.2	76.1137	14,928.2	82.664	14,928.2	64.8502	14,928.2	76.9381	14,928.2	71.8329	14,928.2	77.026	14,928.2	72.5851	14,928.2	71.7753	14,928.2	73.4463	14,928.2	70.8105	14,928.2	67.7603	14,928.2	55.6346	14,928.2	64.5272	14,928.2	57.971	14,928.2	58.8747	14,928.2	60.8379	14,928.2	57.0986	14,928.2	65.2566	14,928.2	57.595	14,928.2	49.2076	14,928.2	57.7026	14,928.2	47.6426	14,928.2	55.2183	14,928.2	50.3536	14,928.2	53.4602	14,928.2	44.2928	14,928.2	59.686	14,928.2	38.5728	14,928.2	55.9554	14,928.2	49.3755	14,928.2	50.3841
15,455.6	86.6789	15,455.6	85.6751	15,455.6	87.2458	15,455.6	81.8673	15,455.6	87.3361	15,455.6	71.5042	15,455.6	83.3841	15,455.6	71.2956	15,455.6	80.2037	15,455.6	73.793	15,455.6	77.5802	15,455.6	72.8724	15,455.6	74.8935	15,455.6	71.7332	15,455.6	69.8342	15,455.6	67.1783	15,455.6	59.2836	15,455.6	64.8165	15,455.6	55.6044	15,455.6	59.5665	15,455.6	63.8934	15,455.6	56.1922	15,455.6	65.3028	15,455.6	57.2666	15,455.6	43.0852	15,455.6	57.8044	15,455.6	46.9472	15,455.6	53.9804	15,455.6	47.584	15,455.6	55.3687	15,455.6	45.3493	15,455.6	59.3393	15,455.6	30.244	15,455.6	55.0356	15,455.6	46.065	15,455.6	47.7932
16,000.5	86.2726	16,000.5	85.0734	16,000.5	87.6658	16,000.5	79.9816	16,000.5	87.3871	16,000.5	71.0138	16,000.5	84.0224	16,000.5	76.3747	16,000.5	80.7575	16,000.5	73.5339	16,000.5	76.312	16,000.5	70.6299	16,000.5	72.8907	16,000.5	71.0123	16,000.5	70.4502	16,000.5	67.2634	16,000.5	58.6379	16,000.5	63.13	16,000.5	54.8846	16,000.5	58.3834	16,000.5	65.3752	16,000.5	55.2701	16,000.5	66.0762	16,000.5	55.5958	16,000.5	50.9985	16,000.5	52.6703	16,000.5	45.757	16,000.5	54.7701	16,000.5	38.3282	16,000.5	53.6348	16,000.5	44.7221	16,000.5	56.9921	16,000.5	44.3197	16,000.5	51.522	16,000.5	44.7815	16,000.5	42.86
16,564.5	86.1134	16,564.5	84.2918	16,564.5	87.6605	16,564.5	78.3412	16,564.5	87.1415	16,564.5	74.4965	16,564.5	83.7974	16,564.5	77.6154	16,564.5	80.2961	16,564.5	73.2811	16,564.5	76.2277	16,564.5	69.8823	16,564.5	71.955	16,564.5	70.5457	16,564.5	66.5707	16,564.5	64.1584	16,564.5	62.9048	16,564.5	56.919	16,564.5	51.8682	16,564.5	52.2921	16,564.5	67.4614	16,564.5	52.9449	16,564.5	66.7594	16,564.5	49.0894	16,564.5	51.2663	16,564.5	48.7177	16,564.5	43.5567	16,564.5	52.5544	16,564.5	33.081	16,564.5	48.7603	16,564.5	34.5212	16,564.5	50.944	16,564.5	37.1478	16,564.5	42.4247	16,564.5	47.1615	16,564.5	43.3758
17,148.9	85.8689	17,148.9	82.9464	17,148.9	87.1094	17,148.9	76.904	17,148.9	86.5123	17,148.9	77.5757	17,148.9	83.5169	17,148.9	77.525	17,148.9	78.2072	17,148.9	73.6963	17,148.9	76.0965	17,148.9	71.5819	17,148.9	70.6096	17,148.9	68.8466	17,148.9	67.7945	17,148.9	63.351	17,148.9	63.013	17,148.9	59.9237	17,148.9	53.5594	17,148.9	52.5254	17,148.9	66.2817	17,148.9	52.3049	17,148.9	66.8443	17,148.9	51.2361	17,148.9	51.4715	17,148.9	52.9158	17,148.9	38.9516	17,148.9	53.07	17,148.9	42.3656	17,148.9	51.7219	17,148.9	43.2035	17,148.9	51.7038	17,148.9	22.8275	17,148.9	43.7955	17,148.9	47.3904	17,148.9	46.9793
17,752.4	85.7669	17,752.4	82.1032	17,752.4	86.1952	17,752.4	76.3551	17,752.4	85.646	17,752.4	78.4223	17,752.4	83.5321	17,752.4	77.3479	17,752.4	79.1785	17,752.4	73.5489	17,752.4	74.9562	17,752.4	68.3423	17,752.4	69.1194	17,752.4	66.3889	17,752.4	65.4147	17,752.4	64.4102	17,752.4	59.7341	17,752.4	59.1177	17,752.4	54.0016	17,752.4	54.0142	17,752.4	64.7329	17,752.4	47.7946	17,752.4	65.3504	17,752.4	52.8027	17,752.4	48.512	17,752.4	51.9069	17,752.4	28.7349	17,752.4	51.024	17,752.4	40.2058	17,752.4	48.8029	17,752.4	43.9929	17,752.4	50.9926	17,752.4	34.7353	17,752.4	49.0737	17,752.4	44.6848	17,752.4	47.008
18,379.4	85.4025	18,379.4	81.6032	18,379.4	85.6294	18,379.4	77.0067	18,379.4	84.9088	18,379.4	78.306	18,379.4	82.948	18,379.4	76.4401	18,379.4	78.7232	18,379.4	71.5319	18,379.4	73.1401	18,379.4	63.9704	18,379.4	67.701	18,379.4	64.074	18,379.4	62.9601	18,379.4	58.1721	18,379.4	54.429	18,379.4	47.5655	18,379.4	53.3365	18,379.4	42.14	18,379.4	65.4526	18,379.4	34.5274	18,379.4	65.5259	18,379.4	47.1576	18,379.4	50.104	18,379.4	37.6861	18,379.4	27.592	18,379.4	38.8511	18,379.4	40.3669	18,379.4	37.6116	18,379.4	41.5926	18,379.4	40.186	18,379.4	39.6385	18,379.4	47.1607	18,379.4	45.3578	18,379.4	39.0922
19,026.9	85.0246	19,026.9	80.5092	19,026.9	85.0849	19,026.9	77.5582	19,026.9	84.5897	19,026.9	78.2081	19,026.9	82.6201	19,026.9	74.9188	19,026.9	77.0743	19,026.9	69.1468	19,026.9	71.2379	19,026.9	62.9816	19,026.9	64.9412	19,026.9	52.8053	19,026.9	58.5749	19,026.9	49.4259	19,026.9	36.2613	19,026.9	44.8499	19,026.9	44.5112	19,026.9	44.3511	19,026.9	65.8028	19,026.9	44.3189	19,026.9	65.8678	19,026.9	40.9485	19,026.9	47.9144	19,026.9	44.6872	19,026.9	42.4651	19,026.9	46.1932	19,026.9	45.7994	19,026.9	47.9406	19,026.9	43.0165	19,026.9	50.3797	19,026.9	41.5937	19,026.9	48.7656	19,026.9	45.7889	19,026.9	37.3807
19,697.8	84.9868	19,697.8	79.696	19,697.8	84.6784	19,697.8	78.4397	19,697.8	84.5064	19,697.8	78.0075	19,697.8	82.1522	19,697.8	74.1706	19,697.8	75.7319	19,697.8	66.1868	19,697.8	69.195	19,697.8	58.9736	19,697.8	61.9542	19,697.8	55.7852	19,697.8	46.2101	19,697.8	55.603	19,697.8	53.2933	19,697.8	48.7413	19,697.8	49.2119	19,697.8	47.3398	19,697.8	66.0637	19,697.8	31.4884	19,697.8	64.8733	19,697.8	46.9383	19,697.8	44.8535	19,697.8	45.7412	19,697.8	35.3011	19,697.8	49.0516	19,697.8	46.5307	19,697.8	49.3067	19,697.8	36.9291	19,697.8	51.834	19,697.8	43.5472	19,697.8	49.9706	19,697.8	41.1962	19,697.8	38.2753
19,999.5	84.6329	19,999.5	80.0369	19,999.5	84.7385	19,999.5	79.1466	19,999.5	84.4233	19,999.5	77.7642	19,999.5	81.7156	19,999.5	74.405	19,999.5	74.8288	19,999.5	66.83	19,999.5	66.6712	19,999.5	53.1498	19,999.5	55.6525	19,999.5	60.3184	19,999.5	44.3257	19,999.5	55.057	19,999.5	59.3856	19,999.5	48.7054	19,999.5	54.0529	19,999.5	42.4937	19,999.5	66.9582	19,999.5	34.204	19,999.5	66.1426	19,999.5	52.6333	19,999.5	49.7835	19,999.5	43.669	19,999.5	48.8558	19,999.5	54.3122	19,999.5	45.2335	19,999.5	45.7979	19,999.5	38.785	19,999.5	51.6499	19,999.5	49.8383	19,999.5	50.6107	19,999.5	46.03	19,999.5	37.8023
