"SPL Horizontal"
"On-Axis"		"10°"		"-10°"		"20°"		"-20°"		"30°"		"-30°"		"40°"		"-40°"		"50°"		"-50°"		"60°"		"-60°"		"70°"		"-70°"		"80°"		"-80°"		"90°"		"-90°"		"100°"		"-100°"		"110°"		"-110°"		"120°"		"-120°"		"130°"		"-130°"		"140°"		"-140°"		"150°"		"-150°"		"160°"		"-160°"		"170°"		"-170°"		"180°"
"Frequency [Hz]"	"Sound Pessure Level [dB]  / [2.83V 1m] "	"Frequency [Hz]"	"Sound Pessure Level [dB]  / [2.83V 1m] "	"Frequency [Hz]"	"Sound Pessure Level [dB]  / [2.83V 1m] "	"Frequency [Hz]"	"Sound Pessure Level [dB]  / [2.83V 1m] "	"Frequency [Hz]"	"Sound Pessure Level [dB]  / [2.83V 1m] "	"Frequency [Hz]"	"Sound Pessure Level [dB]  / [2.83V 1m] "	"Frequency [Hz]"	"Sound Pessure Level [dB]  / [2.83V 1m] "	"Frequency [Hz]"	"Sound Pessure Level [dB]  / [2.83V 1m] "	"Frequency [Hz]"	"Sound Pessure Level [dB]  / [2.83V 1m] "	"Frequency [Hz]"	"Sound Pessure Level [dB]  / [2.83V 1m] "	"Frequency [Hz]"	"Sound Pessure Level [dB]  / [2.83V 1m] "	"Frequency [Hz]"	"Sound Pessure Level [dB]  / [2.83V 1m] "	"Frequency [Hz]"	"Sound Pessure Level [dB]  / [2.83V 1m] "	"Frequency [Hz]"	"Sound Pessure Level [dB]  / [2.83V 1m] "	"Frequency [Hz]"	"Sound Pessure Level [dB]  / [2.83V 1m] "	"Frequency [Hz]"	"Sound Pessure Level [dB]  / [2.83V 1m] "	"Frequency [Hz]"	"Sound Pessure Level [dB]  / [2.83V 1m] "	"Frequency [Hz]"	"Sound Pessure Level [dB]  / [2.83V 1m] "	"Frequency [Hz]"	"Sound Pessure Level [dB]  / [2.83V 1m] "	"Frequency [Hz]"	"Sound Pessure Level [dB]  / [2.83V 1m] "	"Frequency [Hz]"	"Sound Pessure Level [dB]  / [2.83V 1m] "	"Frequency [Hz]"	"Sound Pessure Level [dB]  / [2.83V 1m] "	"Frequency [Hz]"	"Sound Pessure Level [dB]  / [2.83V 1m] "	"Frequency [Hz]"	"Sound Pessure Level [dB]  / [2.83V 1m] "	"Frequency [Hz]"	"Sound Pessure Level [dB]  / [2.83V 1m] "	"Frequency [Hz]"	"Sound Pessure Level [dB]  / [2.83V 1m] "	"Frequency [Hz]"	"Sound Pessure Level [dB]  / [2.83V 1m] "	"Frequency [Hz]"	"Sound Pessure Level [dB]  / [2.83V 1m] "	"Frequency [Hz]"	"Sound Pessure Level [dB]  / [2.83V 1m] "	"Frequency [Hz]"	"Sound Pessure Level [dB]  / [2.83V 1m] "	"Frequency [Hz]"	"Sound Pessure Level [dB]  / [2.83V 1m] "	"Frequency [Hz]"	"Sound Pessure Level [dB]  / [2.83V 1m] "	"Frequency [Hz]"	"Sound Pessure Level [dB]  / [2.83V 1m] "	"Frequency [Hz]"	"Sound Pessure Level [dB]  / [2.83V 1m] "	"Frequency [Hz]"	"Sound Pessure Level [dB]  / [2.83V 1m] "	"Frequency [Hz]"	"Sound Pessure Level [dB]  / [2.83V 1m] "
20.5078	67.1952	20.5078	66.9148	20.5078	67.464	20.5078	66.6305	20.5078	67.7123	20.5078	66.3484	20.5078	67.9298	20.5078	66.0735	20.5078	68.1039	20.5078	65.8092	20.5078	68.2198	20.5078	65.5567	20.5078	68.2597	20.5078	65.3141	20.5078	68.2054	20.5078	65.0753	20.5078	68.0406	20.5078	64.8306	20.5078	67.7558	20.5078	64.5691	20.5078	67.351	20.5078	64.283	20.5078	66.8363	20.5078	63.972	20.5078	66.2316	20.5078	63.6477	20.5078	65.5652	20.5078	63.3337	20.5078	64.8751	20.5078	63.0637	20.5078	64.2099	20.5078	62.8767	20.5078	63.6269	20.5078	62.8128	20.5078	63.1807	20.5078	62.9073
21.9727	57.34	21.9727	57.4887	21.9727	57.3228	21.9727	57.746	21.9727	57.4495	21.9727	58.0862	21.9727	57.715	21.9727	58.4852	21.9727	58.0959	21.9727	58.9222	21.9727	58.5603	21.9727	59.3802	21.9727	59.0814	21.9727	59.8479	21.9727	59.6443	21.9727	60.3203	21.9727	60.243	21.9727	60.7995	21.9727	60.8715	21.9727	61.293	21.9727	61.5169	21.9727	61.8093	21.9727	62.1585	21.9727	62.3501	21.9727	62.7726	21.9727	62.9043	21.9727	63.3361	21.9727	63.4446	21.9727	63.8286	21.9727	63.9324	21.9727	64.2311	21.9727	64.3269	21.9727	64.5252	21.9727	64.5953	21.9727	64.6926	21.9727	64.7186
23.4375	68.0267	23.4375	67.9787	23.4375	68.0846	23.4375	67.9438	23.4375	68.1484	23.4375	67.9241	23.4375	68.2144	23.4375	67.9202	23.4375	68.2795	23.4375	67.932	23.4375	68.3424	23.4375	67.9587	23.4375	68.4039	23.4375	67.9995	23.4375	68.4674	23.4375	68.0538	23.4375	68.5374	23.4375	68.1205	23.4375	68.6176	23.4375	68.1991	23.4375	68.708	23.4375	68.29	23.4375	68.804	23.4375	68.3946	23.4375	68.8981	23.4375	68.514	23.4375	68.9824	23.4375	68.6457	23.4375	69.0508	23.4375	68.7816	23.4375	69.0991	23.4375	68.9085	23.4375	69.1237	23.4375	69.0126	23.4375	69.1204	23.4375	69.0842
24.9023	70.0753	24.9023	69.9519	24.9023	70.2096	24.9023	69.8422	24.9023	70.3518	24.9023	69.7492	24.9023	70.4985	24.9023	69.6761	24.9023	70.6454	24.9023	69.6267	24.9023	70.7867	24.9023	69.6058	24.9023	70.9164	24.9023	69.6183	24.9023	71.0294	24.9023	69.6694	24.9023	71.1246	24.9023	69.7636	24.9023	71.2057	24.9023	69.9047	24.9023	71.2808	24.9023	70.0934	24.9023	71.3585	24.9023	70.3255	24.9023	71.4441	24.9023	70.5901	24.9023	71.5367	24.9023	70.8693	24.9023	71.6287	24.9023	71.1407	24.9023	71.7068	24.9023	71.3811	24.9023	71.7547	24.9023	71.5704	24.9023	71.7556	24.9023	71.6963
26.3672	68.0051	26.3672	67.9055	26.3672	68.111	26.3672	67.8172	26.3672	68.2189	26.3672	67.7458	26.3672	68.326	26.3672	67.6975	26.3672	68.4316	26.3672	67.6791	26.3672	68.5371	26.3672	67.6987	26.3672	68.6465	26.3672	67.7647	26.3672	68.7661	26.3672	67.8851	26.3672	68.9028	26.3672	68.0653	26.3672	69.0634	26.3672	68.3065	26.3672	69.2522	26.3672	68.6038	26.3672	69.4689	26.3672	68.9454	26.3672	69.7079	26.3672	69.3126	26.3672	69.9572	26.3672	69.6811	26.3672	70.1991	26.3672	70.0232	26.3672	70.4108	26.3672	70.3107	26.3672	70.5677	26.3672	70.5195	26.3672	70.6473	26.3672	70.6334
27.832	66.3826	27.832	66.4972	27.832	66.28	27.832	66.6226	27.832	66.1936	27.832	66.7589	27.832	66.1312	27.832	66.9071	27.832	66.1037	27.832	67.0693	27.832	66.1245	27.832	67.2483	27.832	66.2064	27.832	67.4475	27.832	66.3591	27.832	67.6706	27.832	66.5876	27.832	67.9203	27.832	66.8911	27.832	68.1976	27.832	67.2627	27.832	68.5008	27.832	67.6893	27.832	68.824	27.832	68.1523	27.832	69.1557	27.832	68.6274	27.832	69.4779	27.832	69.0853	27.832	69.7659	27.832	69.4941	27.832	69.9911	27.832	69.8226	27.832	70.1254	27.832	70.0454	27.832	70.1472
29.2969	69.0035	29.2969	68.9808	29.2969	69.0104	29.2969	68.9461	29.2969	68.9998	29.2969	68.9037	29.2969	68.972	29.2969	68.8586	29.2969	68.9302	29.2969	68.8157	29.2969	68.8798	29.2969	68.7798	29.2969	68.8276	29.2969	68.7556	29.2969	68.781	29.2969	68.747	29.2969	68.7469	29.2969	68.7566	29.2969	68.7316	29.2969	68.7855	29.2969	68.741	29.2969	68.8336	29.2969	68.7789	29.2969	68.8995	29.2969	68.8463	29.2969	68.9806	29.2969	68.9392	29.2969	69.0725	29.2969	69.0481	29.2969	69.167	29.2969	69.1584	29.2969	69.2519	29.2969	69.2529	29.2969	69.3127	29.2969	69.3157	29.2969	69.3362
30.7617	69.3572	30.7617	69.3656	30.7617	69.3279	30.7617	69.354	30.7617	69.2776	30.7617	69.3245	30.7617	69.208	30.7617	69.2794	30.7617	69.1222	30.7617	69.2218	30.7617	69.025	30.7617	69.1546	30.7617	68.9212	30.7617	69.0814	30.7617	68.8162	30.7617	69.0055	30.7617	68.7151	30.7617	68.9304	30.7617	68.6231	30.7617	68.8587	30.7617	68.5454	30.7617	68.7924	30.7617	68.486	30.7617	68.7324	30.7617	68.4464	30.7617	68.6786	30.7617	68.4254	30.7617	68.6304	30.7617	68.4199	30.7617	68.5874	30.7617	68.4258	30.7617	68.549	30.7617	68.4399	30.7617	68.515	30.7617	68.4601	30.7617	68.4853
32.2266	73.7771	32.2266	73.8011	32.2266	73.7382	32.2266	73.8102	32.2266	73.6855	32.2266	73.8051	32.2266	73.6209	32.2266	73.7869	32.2266	73.5476	32.2266	73.7571	32.2266	73.4696	32.2266	73.7171	32.2266	73.3915	32.2266	73.668	32.2266	73.3179	32.2266	73.6108	32.2266	73.2526	32.2266	73.5464	32.2266	73.1977	32.2266	73.4766	32.2266	73.1542	32.2266	73.4045	32.2266	73.1214	32.2266	73.3339	32.2266	73.0978	32.2266	73.2688	32.2266	73.0818	32.2266	73.2121	32.2266	73.0715	32.2266	73.1649	32.2266	73.0659	32.2266	73.1276	32.2266	73.0648	32.2266	73.0995	32.2266	73.0691	32.2266	73.0802
33.6914	75.5853	33.6914	75.598	33.6914	75.5636	33.6914	75.6019	33.6914	75.5333	33.6914	75.5974	33.6914	75.4959	33.6914	75.585	33.6914	75.454	33.6914	75.5649	33.6914	75.4116	33.6914	75.5377	33.6914	75.3728	33.6914	75.5038	33.6914	75.3419	33.6914	75.4643	33.6914	75.3211	33.6914	75.421	33.6914	75.3104	33.6914	75.3765	33.6914	75.3073	33.6914	75.334	33.6914	75.3079	33.6914	75.2966	33.6914	75.3081	33.6914	75.2669	33.6914	75.3054	33.6914	75.2462	33.6914	75.2985	33.6914	75.2346	33.6914	75.2875	33.6914	75.2313	33.6914	75.2736	33.6914	75.2353	33.6914	75.2586	33.6914	75.2451
35.1562	76.612	35.1562	76.6353	35.1562	76.5927	35.1562	76.6624	35.1562	76.5779	35.1562	76.6938	35.1562	76.5695	35.1562	76.73	35.1562	76.5703	35.1562	76.7717	35.1562	76.5842	35.1562	76.8194	35.1562	76.6155	35.1562	76.8735	35.1562	76.6681	35.1562	76.9345	35.1562	76.744	35.1562	77.0025	35.1562	76.8421	35.1562	77.0772	35.1562	76.9577	35.1562	77.1578	35.1562	77.0838	35.1562	77.2427	35.1562	77.2116	35.1562	77.329	35.1562	77.3329	35.1562	77.413	35.1562	77.4401	35.1562	77.4899	35.1562	77.5266	35.1562	77.5542	35.1562	77.5875	35.1562	77.6004	35.1562	77.62	35.1562	77.6237
36.6211	78.5246	36.6211	78.4998	36.6211	78.548	36.6211	78.4741	36.6211	78.5698	36.6211	78.4488	36.6211	78.5903	36.6211	78.4256	36.6211	78.6103	36.6211	78.4063	36.6211	78.631	36.6211	78.3928	36.6211	78.6532	36.6211	78.3869	36.6211	78.6778	36.6211	78.3898	36.6211	78.705	36.6211	78.4023	36.6211	78.7346	36.6211	78.4246	36.6211	78.7657	36.6211	78.4564	36.6211	78.7969	36.6211	78.4976	36.6211	78.8265	36.6211	78.5472	36.6211	78.8522	36.6211	78.6039	36.6211	78.8713	36.6211	78.6648	36.6211	78.8809	36.6211	78.7257	36.6211	78.8779	36.6211	78.7816	36.6211	78.8603	36.6211	78.8277
38.0859	80.5572	38.0859	80.5652	38.0859	80.5371	38.0859	80.5615	38.0859	80.5053	38.0859	80.547	38.0859	80.4631	38.0859	80.5232	38.0859	80.4124	38.0859	80.4923	38.0859	80.356	38.0859	80.4564	38.0859	80.2974	38.0859	80.418	38.0859	80.2408	38.0859	80.3793	38.0859	80.1903	38.0859	80.3424	38.0859	80.1497	38.0859	80.3094	38.0859	80.1214	38.0859	80.2823	38.0859	80.1068	38.0859	80.2628	38.0859	80.1062	38.0859	80.2519	38.0859	80.1187	38.0859	80.2491	38.0859	80.1418	38.0859	80.2518	38.0859	80.1715	38.0859	80.2555	38.0859	80.2023	38.0859	80.2552	38.0859	80.2287	38.0859	80.2468
39.5508	82.4338	39.5508	82.4334	39.5508	82.4174	39.5508	82.4169	39.5508	82.3842	39.5508	82.3852	39.5508	82.3344	39.5508	82.3393	39.5508	82.2689	39.5508	82.281	39.5508	82.189	39.5508	82.2119	39.5508	82.0971	39.5508	82.1342	39.5508	81.9965	39.5508	82.0499	39.5508	81.8914	39.5508	81.9614	39.5508	81.7864	39.5508	81.8709	39.5508	81.6862	39.5508	81.7812	39.5508	81.595	39.5508	81.6948	39.5508	81.5164	39.5508	81.6147	39.5508	81.4533	39.5508	81.5435	39.5508	81.407	39.5508	81.483	39.5508	81.3773	39.5508	81.4345	39.5508	81.363	39.5508	81.3983	39.5508	81.3624	39.5508	81.3743
41.0156	83.9315	41.0156	83.9297	41.0156	83.9287	41.0156	83.9228	41.0156	83.922	41.0156	83.9101	41.0156	83.9117	41.0156	83.8915	41.0156	83.8977	41.0156	83.867	41.0156	83.8792	41.0156	83.8368	41.0156	83.8551	41.0156	83.8013	41.0156	83.8246	41.0156	83.7605	41.0156	83.7873	41.0156	83.7149	41.0156	83.7441	41.0156	83.6651	41.0156	83.6964	41.0156	83.6121	41.0156	83.6461	41.0156	83.5572	41.0156	83.595	41.0156	83.5025	41.0156	83.5442	41.0156	83.4508	41.0156	83.4947	41.0156	83.4063	41.0156	83.4479	41.0156	83.3735	41.0156	83.4067	41.0156	83.3564	41.0156	83.375	41.0156	83.3572
42.4805	85.2263	42.4805	85.243	42.4805	85.2042	42.4805	85.2539	42.4805	85.1778	42.4805	85.2587	42.4805	85.1482	42.4805	85.2576	42.4805	85.1169	42.4805	85.2512	42.4805	85.0852	42.4805	85.2403	42.4805	85.0548	42.4805	85.2257	42.4805	85.0273	42.4805	85.2081	42.4805	85.0041	42.4805	85.1884	42.4805	84.9862	42.4805	85.1672	42.4805	84.9743	42.4805	85.1454	42.4805	84.9683	42.4805	85.1239	42.4805	84.9677	42.4805	85.1034	42.4805	84.9714	42.4805	85.0845	42.4805	84.9785	42.4805	85.0672	42.4805	84.9878	42.4805	85.0513	42.4805	84.9987	42.4805	85.0368	42.4805	85.0106	42.4805	85.0233
43.9453	86.5834	43.9453	86.5972	43.9453	86.5634	43.9453	86.6041	43.9453	86.5379	43.9453	86.604	43.9453	86.5078	43.9453	86.5968	43.9453	86.4743	43.9453	86.5832	43.9453	86.4383	43.9453	86.5637	43.9453	86.4012	43.9453	86.5393	43.9453	86.3644	43.9453	86.5112	43.9453	86.3295	43.9453	86.4807	43.9453	86.2983	43.9453	86.4493	43.9453	86.2724	43.9453	86.4186	43.9453	86.2533	43.9453	86.3899	43.9453	86.2415	43.9453	86.3639	43.9453	86.237	43.9453	86.3412	43.9453	86.2389	43.9453	86.3218	43.9453	86.2455	43.9453	86.3053	43.9453	86.2552	43.9453	86.2911	43.9453	86.2664	43.9453	86.2784
45.4102	87.8195	45.4102	87.8338	45.4102	87.7965	45.4102	87.8389	45.4102	87.7655	45.4102	87.8348	45.4102	87.7273	45.4102	87.8216	45.4102	87.6828	45.4102	87.7999	45.4102	87.6331	45.4102	87.7704	45.4102	87.5794	45.4102	87.7342	45.4102	87.5234	45.4102	87.6924	45.4102	87.467	45.4102	87.6463	45.4102	87.4127	45.4102	87.5975	45.4102	87.3629	45.4102	87.5476	45.4102	87.3199	45.4102	87.4986	45.4102	87.2858	45.4102	87.4519	45.4102	87.262	45.4102	87.409	45.4102	87.2489	45.4102	87.3707	45.4102	87.2462	45.4102	87.3373	45.4102	87.2524	45.4102	87.3088	45.4102	87.2659	45.4102	87.2849
46.875	89.1301	46.875	89.1347	46.875	89.1155	46.875	89.129	46.875	89.0912	46.875	89.1131	46.875	89.0577	46.875	89.0873	46.875	89.0156	46.875	89.0521	46.875	88.9657	46.875	89.0084	46.875	88.9092	46.875	88.9572	46.875	88.8474	46.875	88.9001	46.875	88.7822	46.875	88.8387	46.875	88.7159	46.875	88.7752	46.875	88.6509	46.875	88.7117	46.875	88.5898	46.875	88.6505	46.875	88.5352	46.875	88.5935	46.875	88.4892	46.875	88.5424	46.875	88.4534	46.875	88.4987	46.875	88.4287	46.875	88.4633	46.875	88.4152	46.875	88.4369	46.875	88.4124	46.875	88.4198
48.3398	90.4074	48.3398	90.4043	48.3398	90.4007	48.3398	90.3915	48.3398	90.3842	48.3398	90.3695	48.3398	90.3582	48.3398	90.3389	48.3398	90.3232	48.3398	90.3004	48.3398	90.28	48.3398	90.255	48.3398	90.2294	48.3398	90.2039	48.3398	90.1729	48.3398	90.1481	48.3398	90.1123	48.3398	90.0892	48.3398	90.0496	48.3398	90.0286	48.3398	89.987	48.3398	89.9682	48.3398	89.9268	48.3398	89.9099	48.3398	89.8712	48.3398	89.8557	48.3398	89.8218	48.3398	89.8078	48.3398	89.7803	48.3398	89.7681	48.3398	89.7477	48.3398	89.738	48.3398	89.7248	48.3398	89.7185	48.3398	89.7121	48.3398	89.7099
51.2695	92.634	51.2695	92.6321	51.2695	92.6273	51.2695	92.6216	51.2695	92.6122	51.2695	92.6028	51.2695	92.5889	51.2695	92.5764	51.2695	92.558	51.2695	92.5434	51.2695	92.5203	51.2695	92.5047	51.2695	92.4766	51.2695	92.4616	51.2695	92.428	51.2695	92.4154	51.2695	92.3758	51.2695	92.3673	51.2695	92.3219	51.2695	92.3187	51.2695	92.2682	51.2695	92.2706	51.2695	92.217	51.2695	92.2243	51.2695	92.1703	51.2695	92.181	51.2695	92.1299	51.2695	92.1418	51.2695	92.097	51.2695	92.108	51.2695	92.0723	51.2695	92.0808	51.2695	92.0562	51.2695	92.0615	51.2695	92.049	51.2695	92.0508
52.7344	93.674	52.7344	93.6696	52.7344	93.669	52.7344	93.656	52.7344	93.6548	52.7344	93.6337	52.7344	93.6317	52.7344	93.6033	52.7344	93.6002	52.7344	93.566	52.7344	93.5613	52.7344	93.523	52.7344	93.516	52.7344	93.4759	52.7344	93.4655	52.7344	93.426	52.7344	93.4115	52.7344	93.3748	52.7344	93.3558	52.7344	93.3237	52.7344	93.3005	52.7344	93.2742	52.7344	93.2477	52.7344	93.2275	52.7344	93.1993	52.7344	93.1848	52.7344	93.157	52.7344	93.1473	52.7344	93.1221	52.7344	93.1159	52.7344	93.0953	52.7344	93.0917	52.7344	93.0771	52.7344	93.0752	52.7344	93.0678	52.7344	93.0672
54.1992	94.6677	54.1992	94.6613	54.1992	94.6646	54.1992	94.6458	54.1992	94.652	54.1992	94.6217	54.1992	94.6304	54.1992	94.5899	54.1992	94.6002	54.1992	94.5515	54.1992	94.5624	54.1992	94.5079	54.1992	94.5182	54.1992	94.4605	54.1992	94.469	54.1992	94.411	54.1992	94.4167	54.1992	94.361	54.1992	94.3631	54.1992	94.3119	54.1992	94.3102	54.1992	94.2654	54.1992	94.26	54.1992	94.2226	54.1992	94.2144	54.1992	94.1848	54.1992	94.175	54.1992	94.1527	54.1992	94.1428	54.1992	94.127	54.1992	94.1184	54.1992	94.1081	54.1992	94.1019	54.1992	94.0961	54.1992	94.0929	54.1992	94.091
55.6641	95.5845	55.6641	95.5758	55.6641	95.584	55.6641	95.5584	55.6641	95.5742	55.6641	95.5331	55.6641	95.5555	55.6641	95.5008	55.6641	95.5283	55.6641	95.4631	55.6641	95.4938	55.6641	95.4214	55.6641	95.4533	55.6641	95.3774	55.6641	95.4085	55.6641	95.3328	55.6641	95.3614	55.6641	95.2895	55.6641	95.3142	55.6641	95.2488	55.6641	95.2687	55.6641	95.2122	55.6641	95.2268	55.6641	95.1804	55.6641	95.1899	55.6641	95.154	55.6641	95.1591	55.6641	95.133	55.6641	95.1349	55.6641	95.1172	55.6641	95.1173	55.6641	95.1062	55.6641	95.1057	55.6641	95.0998	55.6641	95.0993	55.6641	95.0975
58.5938	97.3251	58.5938	97.3124	58.5938	97.3273	58.5938	97.2895	58.5938	97.3187	58.5938	97.2573	58.5938	97.2999	58.5938	97.2169	58.5938	97.2715	58.5938	97.1699	58.5938	97.2347	58.5938	97.118	58.5938	97.1909	58.5938	97.0631	58.5938	97.1419	58.5938	97.0074	58.5938	97.0895	58.5938	96.9528	58.5938	97.0358	58.5938	96.9013	58.5938	96.9828	58.5938	96.8547	58.5938	96.9324	58.5938	96.8145	58.5938	96.8862	58.5938	96.7816	58.5938	96.8455	58.5938	96.7566	58.5938	96.8109	58.5938	96.7399	58.5938	96.7827	58.5938	96.7309	58.5938	96.7607	58.5938	96.7292	58.5938	96.7445	58.5938	96.7339
60.0586	98.0198	60.0586	98.0107	60.0586	98.0174	60.0586	97.9907	60.0586	98.0037	60.0586	97.9604	60.0586	97.9791	60.0586	97.9212	60.0586	97.9445	60.0586	97.8745	60.0586	97.9014	60.0586	97.8222	60.0586	97.8512	60.0586	97.7662	60.0586	97.7962	60.0586	97.7087	60.0586	97.7383	60.0586	97.6518	60.0586	97.6801	60.0586	97.5976	60.0586	97.6236	60.0586	97.5477	60.0586	97.571	60.0586	97.5035	60.0586	97.524	60.0586	97.4662	60.0586	97.4839	60.0586	97.4363	60.0586	97.4513	60.0586	97.4142	60.0586	97.4262	60.0586	97.3996	60.0586	97.4082	60.0586	97.3922	60.0586	97.3967	60.0586	97.3914
62.9883	99.1976	62.9883	99.1881	62.9883	99.1954	62.9883	99.1673	62.9883	99.1816	62.9883	99.136	62.9883	99.1568	62.9883	99.0955	62.9883	99.1219	62.9883	99.0475	62.9883	99.0784	62.9883	98.9939	62.9883	99.0281	62.9883	98.9369	62.9883	98.9731	62.9883	98.8787	62.9883	98.9157	62.9883	98.8215	62.9883	98.8581	62.9883	98.7674	62.9883	98.8024	62.9883	98.7181	62.9883	98.7506	62.9883	98.6749	62.9883	98.7043	62.9883	98.6388	62.9883	98.6646	62.9883	98.6103	62.9883	98.6321	62.9883	98.5896	62.9883	98.6068	62.9883	98.5764	62.9883	98.5884	62.9883	98.5701	62.9883	98.5763	62.9883	98.5702
64.4531	99.6872	64.4531	99.6775	64.4531	99.6848	64.4531	99.6562	64.4531	99.6704	64.4531	99.6242	64.4531	99.6447	64.4531	99.5828	64.4531	99.6087	64.4531	99.5337	64.4531	99.5639	64.4531	99.4791	64.4531	99.5123	64.4531	99.4211	64.4531	99.456	64.4531	99.3622	64.4531	99.3975	64.4531	99.3045	64.4531	99.3392	64.4531	99.2502	64.4531	99.2831	64.4531	99.201	64.4531	99.2314	64.4531	99.1581	64.4531	99.1854	64.4531	99.1225	64.4531	99.1462	64.4531	99.0945	64.4531	99.1143	64.4531	99.0741	64.4531	99.0897	64.4531	99.0611	64.4531	99.0719	64.4531	99.0548	64.4531	99.0604	64.4531	99.0547
67.3828	100.431	67.3828	100.42	67.3828	100.43	67.3828	100.396	67.3828	100.415	67.3828	100.36	67.3828	100.388	67.3828	100.315	67.3828	100.35	67.3828	100.261	67.3828	100.302	67.3828	100.202	67.3828	100.247	67.3828	100.139	67.3828	100.188	67.3828	100.076	67.3828	100.125	67.3828	100.014	67.3828	100.064	67.3828	99.9574	67.3828	100.004	67.3828	99.9064	67.3828	99.9496	67.3828	99.8628	67.3828	99.9009	67.3828	99.827	67.3828	99.859	67.3828	99.799	67.3828	99.8245	67.3828	99.7787	67.3828	99.7974	67.3828	99.7654	67.3828	99.7776	67.3828	99.7588	67.3828	99.7648	67.3828	99.7586
68.8477	100.707	68.8477	100.696	68.8477	100.705	68.8477	100.672	68.8477	100.689	68.8477	100.636	68.8477	100.662	68.8477	100.59	68.8477	100.624	68.8477	100.536	68.8477	100.576	68.8477	100.476	68.8477	100.521	68.8477	100.412	68.8477	100.462	68.8477	100.348	68.8477	100.401	68.8477	100.286	68.8477	100.34	68.8477	100.228	68.8477	100.282	68.8477	100.177	68.8477	100.229	68.8477	100.134	68.8477	100.181	68.8477	100.099	68.8477	100.139	68.8477	100.072	68.8477	100.105	68.8477	100.053	68.8477	100.077	68.8477	100.041	68.8477	100.057	68.8477	100.035	68.8477	100.044	68.8477	100.036
71.7773	101.064	71.7773	101.054	71.7773	101.06	71.7773	101.031	71.7773	101.043	71.7773	100.995	71.7773	101.013	71.7773	100.948	71.7773	100.972	71.7773	100.892	71.7773	100.923	71.7773	100.829	71.7773	100.866	71.7773	100.763	71.7773	100.806	71.7773	100.695	71.7773	100.744	71.7773	100.63	71.7773	100.684	71.7773	100.57	71.7773	100.628	71.7773	100.517	71.7773	100.577	71.7773	100.473	71.7773	100.533	71.7773	100.439	71.7773	100.496	71.7773	100.415	71.7773	100.466	71.7773	100.4	71.7773	100.443	71.7773	100.394	71.7773	100.425	71.7773	100.395	71.7773	100.411	71.7773	100.4
74.707	101.234	74.707	101.226	74.707	101.228	74.707	101.204	74.707	101.208	74.707	101.17	74.707	101.177	74.707	101.125	74.707	101.134	74.707	101.07	74.707	101.083	74.707	101.009	74.707	101.025	74.707	100.943	74.707	100.963	74.707	100.876	74.707	100.901	74.707	100.811	74.707	100.841	74.707	100.749	74.707	100.784	74.707	100.695	74.707	100.734	74.707	100.648	74.707	100.691	74.707	100.612	74.707	100.655	74.707	100.585	74.707	100.626	74.707	100.568	74.707	100.604	74.707	100.561	74.707	100.587	74.707	100.56	74.707	100.574	74.707	100.565
77.6367	101.249	77.6367	101.242	77.6367	101.242	77.6367	101.222	77.6367	101.222	77.6367	101.189	77.6367	101.189	77.6367	101.145	77.6367	101.145	77.6367	101.093	77.6367	101.092	77.6367	101.035	77.6367	101.034	77.6367	100.973	77.6367	100.972	77.6367	100.911	77.6367	100.91	77.6367	100.851	77.6367	100.851	77.6367	100.797	77.6367	100.796	77.6367	100.749	77.6367	100.748	77.6367	100.708	77.6367	100.708	77.6367	100.677	77.6367	100.676	77.6367	100.652	77.6367	100.653	77.6367	100.636	77.6367	100.636	77.6367	100.625	77.6367	100.625	77.6367	100.619	77.6367	100.619	77.6367	100.617
79.1016	101.235	79.1016	101.228	79.1016	101.228	79.1016	101.207	79.1016	101.207	79.1016	101.173	79.1016	101.173	79.1016	101.129	79.1016	101.129	79.1016	101.076	79.1016	101.075	79.1016	101.017	79.1016	101.015	79.1016	100.955	79.1016	100.952	79.1016	100.892	79.1016	100.888	79.1016	100.833	79.1016	100.828	79.1016	100.779	79.1016	100.772	79.1016	100.732	79.1016	100.724	79.1016	100.694	79.1016	100.684	79.1016	100.663	79.1016	100.653	79.1016	100.64	79.1016	100.63	79.1016	100.623	79.1016	100.615	79.1016	100.612	79.1016	100.606	79.1016	100.605	79.1016	100.602	79.1016	100.602
82.0312	101.216	82.0312	101.21	82.0312	101.208	82.0312	101.189	82.0312	101.185	82.0312	101.154	82.0312	101.148	82.0312	101.107	82.0312	101.1	82.0312	101.051	82.0312	101.042	82.0312	100.988	82.0312	100.977	82.0312	100.922	82.0312	100.909	82.0312	100.856	82.0312	100.84	82.0312	100.792	82.0312	100.774	82.0312	100.734	82.0312	100.713	82.0312	100.683	82.0312	100.66	82.0312	100.64	82.0312	100.616	82.0312	100.606	82.0312	100.581	82.0312	100.58	82.0312	100.556	82.0312	100.56	82.0312	100.54	82.0312	100.545	82.0312	100.531	82.0312	100.535	82.0312	100.528	82.0312	100.529
84.9609	101.163	84.9609	101.156	84.9609	101.155	84.9609	101.135	84.9609	101.131	84.9609	101.099	84.9609	101.094	84.9609	101.052	84.9609	101.045	84.9609	100.995	84.9609	100.986	84.9609	100.931	84.9609	100.92	84.9609	100.864	84.9609	100.851	84.9609	100.797	84.9609	100.781	84.9609	100.733	84.9609	100.714	84.9609	100.675	84.9609	100.653	84.9609	100.624	84.9609	100.6	84.9609	100.581	84.9609	100.555	84.9609	100.547	84.9609	100.52	84.9609	100.52	84.9609	100.495	84.9609	100.499	84.9609	100.478	84.9609	100.484	84.9609	100.469	84.9609	100.474	84.9609	100.466	84.9609	100.468
87.8906	101.002	87.8906	100.994	87.8906	100.995	87.8906	100.971	87.8906	100.973	87.8906	100.934	87.8906	100.937	87.8906	100.885	87.8906	100.888	87.8906	100.827	87.8906	100.831	87.8906	100.763	87.8906	100.767	87.8906	100.696	87.8906	100.701	87.8906	100.631	87.8906	100.636	87.8906	100.57	87.8906	100.574	87.8906	100.516	87.8906	100.52	87.8906	100.47	87.8906	100.474	87.8906	100.435	87.8906	100.438	87.8906	100.409	87.8906	100.411	87.8906	100.391	87.8906	100.392	87.8906	100.38	87.8906	100.381	87.8906	100.374	87.8906	100.374	87.8906	100.371	87.8906	100.371	87.8906	100.37
90.8203	100.885	90.8203	100.877	90.8203	100.877	90.8203	100.854	90.8203	100.854	90.8203	100.818	90.8203	100.816	90.8203	100.77	90.8203	100.767	90.8203	100.714	90.8203	100.709	90.8203	100.653	90.8203	100.645	90.8203	100.59	90.8203	100.579	90.8203	100.529	90.8203	100.515	90.8203	100.474	90.8203	100.456	90.8203	100.426	90.8203	100.405	90.8203	100.387	90.8203	100.365	90.8203	100.359	90.8203	100.336	90.8203	100.339	90.8203	100.317	90.8203	100.327	90.8203	100.307	90.8203	100.32	90.8203	100.304	90.8203	100.316	90.8203	100.305	90.8203	100.313	90.8203	100.308	90.8203	100.311
95.2148	100.78	95.2148	100.772	95.2148	100.771	95.2148	100.747	95.2148	100.745	95.2148	100.708	95.2148	100.704	95.2148	100.655	95.2148	100.65	95.2148	100.594	95.2148	100.585	95.2148	100.526	95.2148	100.514	95.2148	100.457	95.2148	100.44	95.2148	100.389	95.2148	100.368	95.2148	100.328	95.2148	100.301	95.2148	100.275	95.2148	100.244	95.2148	100.232	95.2148	100.199	95.2148	100.2	95.2148	100.166	95.2148	100.178	95.2148	100.144	95.2148	100.163	95.2148	100.132	95.2148	100.153	95.2148	100.128	95.2148	100.147	95.2148	100.128	95.2148	100.142	95.2148	100.132	95.2148	100.137
98.1445	100.687	98.1445	100.677	98.1445	100.679	98.1445	100.649	98.1445	100.654	98.1445	100.607	98.1445	100.613	98.1445	100.551	98.1445	100.558	98.1445	100.485	98.1445	100.492	98.1445	100.412	98.1445	100.418	98.1445	100.339	98.1445	100.341	98.1445	100.268	98.1445	100.264	98.1445	100.203	98.1445	100.193	98.1445	100.148	98.1445	100.13	98.1445	100.105	98.1445	100.079	98.1445	100.073	98.1445	100.041	98.1445	100.052	98.1445	100.015	98.1445	100.038	98.1445	100.001	98.1445	100.03	98.1445	99.9965	98.1445	100.023	98.1445	99.9982	98.1445	100.017	98.1445	100.004	98.1445	100.01
101.074	100.524	101.074	100.515	101.074	100.515	101.074	100.49	101.074	100.489	101.074	100.45	101.074	100.448	101.074	100.398	101.074	100.393	101.074	100.336	101.074	100.326	101.074	100.269	101.074	100.252	101.074	100.201	101.074	100.174	101.074	100.135	101.074	100.097	101.074	100.076	101.074	100.026	101.074	100.026	101.074	99.9649	101.074	99.9877	101.074	99.9174	101.074	99.9607	101.074	99.8857	101.074	99.9441	101.074	99.8698	101.074	99.9355	101.074	99.8675	101.074	99.9317	101.074	99.8755	101.074	99.9292	101.074	99.889	101.074	99.9248	101.074	99.9039	101.074	99.9164
105.469	100.338	105.469	100.324	105.469	100.333	105.469	100.291	105.469	100.308	105.469	100.24	105.469	100.266	105.469	100.175	105.469	100.21	105.469	100.099	105.469	100.143	105.469	100.019	105.469	100.07	105.469	99.9382	105.469	99.9945	105.469	99.8638	105.469	99.9212	105.469	99.8004	105.469	99.8541	105.469	99.7516	105.469	99.7963	105.469	99.7191	105.469	99.7506	105.469	99.7021	105.469	99.7182	105.469	99.6977	105.469	99.6992	105.469	99.7016	105.469	99.692	105.469	99.7088	105.469	99.6938	105.469	99.7151	105.469	99.7008	105.469	99.7177	105.469	99.7091	105.469	99.7155
108.398	100.363	108.398	100.351	108.398	100.355	108.398	100.32	108.398	100.328	108.398	100.271	108.398	100.283	108.398	100.206	108.398	100.224	108.398	100.129	108.398	100.155	108.398	100.044	108.398	100.079	108.398	99.9568	108.398	100.002	108.398	99.8712	108.398	99.9288	108.398	99.7929	108.398	99.8627	108.398	99.7263	108.398	99.8066	108.398	99.6746	108.398	99.7617	108.398	99.6393	108.398	99.7279	108.398	99.6198	108.398	99.7036	108.398	99.6135	108.398	99.6865	108.398	99.6165	108.398	99.6741	108.398	99.6247	108.398	99.664	108.398	99.6348	108.398	99.6546	108.398	99.645
112.793	100.291	112.793	100.285	112.793	100.275	112.793	100.259	112.793	100.238	112.793	100.213	112.793	100.182	112.793	100.152	112.793	100.109	112.793	100.078	112.793	100.024	112.793	99.9973	112.793	99.9321	112.793	99.9142	112.793	99.8404	112.793	99.8344	112.793	99.7552	112.793	99.7633	112.793	99.6826	112.793	99.7051	112.793	99.6274	112.793	99.6624	112.793	99.5917	112.793	99.636	112.793	99.5755	112.793	99.6245	112.793	99.5757	112.793	99.6246	112.793	99.5877	112.793	99.6317	112.793	99.6056	112.793	99.6404	112.793	99.624	112.793	99.6463	112.793	99.6383	112.793	99.646
117.188	100.298	117.188	100.291	117.188	100.282	117.188	100.262	117.188	100.244	117.188	100.213	117.188	100.184	117.188	100.148	117.188	100.106	117.188	100.072	117.188	100.014	117.188	99.9883	117.188	99.9127	117.188	99.9042	117.188	99.8096	117.188	99.825	117.188	99.7112	117.188	99.7559	117.188	99.6247	117.188	99.7009	117.188	99.5566	117.188	99.6619	117.188	99.5115	117.188	99.639	117.188	99.4911	117.188	99.6299	117.188	99.4936	117.188	99.6307	117.188	99.5142	117.188	99.6362	117.188	99.5454	117.188	99.6411	117.188	99.5794	117.188	99.6402	117.188	99.6091	117.188	99.6299
120.117	100.186	120.117	100.172	120.117	100.177	120.117	100.134	120.117	100.144	120.117	100.076	120.117	100.088	120.117	100	120.117	100.015	120.117	99.9128	120.117	99.9267	120.117	99.8187	120.117	99.83	120.117	99.7247	120.117	99.7311	120.117	99.6374	120.117	99.6366	120.117	99.5633	120.117	99.5534	120.117	99.5077	120.117	99.4878	120.117	99.4737	120.117	99.4446	120.117	99.4619	120.117	99.426	120.117	99.4695	120.117	99.4309	120.117	99.491	120.117	99.4546	120.117	99.5192	120.117	99.489	120.117	99.5457	120.117	99.5246	120.117	99.5631	120.117	99.5524	120.117	99.566
124.512	100.366	124.512	100.337	124.512	100.366	124.512	100.28	124.512	100.337	124.512	100.199	124.512	100.282	124.512	100.098	124.512	100.202	124.512	99.9815	124.512	100.104	124.512	99.8572	124.512	99.9935	124.512	99.7322	124.512	99.8772	124.512	99.614	124.512	99.7621	124.512	99.5098	124.512	99.6553	124.512	99.4257	124.512	99.5628	124.512	99.3659	124.512	99.4898	124.512	99.3319	124.512	99.439	124.512	99.3221	124.512	99.4107	124.512	99.3318	124.512	99.4017	124.512	99.3541	124.512	99.4058	124.512	99.3808	124.512	99.415	124.512	99.4041	124.512	99.4211	124.512	99.4182
128.906	100.394	128.906	100.365	128.906	100.391	128.906	100.307	128.906	100.357	128.906	100.223	128.906	100.292	128.906	100.118	128.906	100.201	128.906	99.9972	128.906	100.087	128.906	99.8665	128.906	99.9586	128.906	99.7328	128.906	99.8221	128.906	99.6024	128.906	99.6864	128.906	99.481	128.906	99.5592	128.906	99.373	128.906	99.4469	128.906	99.2818	128.906	99.3538	128.906	99.2089	128.906	99.2815	128.906	99.1551	128.906	99.2292	128.906	99.12	128.906	99.1932	128.906	99.1021	128.906	99.1687	128.906	99.0987	128.906	99.1504	128.906	99.1058	128.906	99.1343	128.906	99.119
133.301	100.131	133.301	100.121	133.301	100.115	133.301	100.086	133.301	100.074	133.301	100.027	133.301	100.009	133.301	99.9474	133.301	99.9229	133.301	99.8512	133.301	99.82	133.301	99.7433	133.301	99.7059	133.301	99.6302	133.301	99.5873	133.301	99.5186	133.301	99.4717	133.301	99.4154	133.301	99.3662	133.301	99.3264	133.301	99.2769	133.301	99.2554	133.301	99.2077	133.301	99.2037	133.301	99.1602	133.301	99.1702	133.301	99.1329	133.301	99.1515	133.301	99.1222	133.301	99.1435	133.301	99.123	133.301	99.1415	133.301	99.1293	133.301	99.1416	133.301	99.1361	133.301	99.1404
139.16	100.003	139.16	99.9954	139.16	99.9843	139.16	99.9611	139.16	99.9391	139.16	99.9035	139.16	99.8708	139.16	99.827	139.16	99.784	139.16	99.7375	139.16	99.6843	139.16	99.6419	139.16	99.5785	139.16	99.5472	139.16	99.4736	139.16	99.4601	139.16	99.3763	139.16	99.3859	139.16	99.2927	139.16	99.3282	139.16	99.2277	139.16	99.2886	139.16	99.1844	139.16	99.2662	139.16	99.1637	139.16	99.2582	139.16	99.1636	139.16	99.2602	139.16	99.1795	139.16	99.2671	139.16	99.2047	139.16	99.2737	139.16	99.2319	139.16	99.2756	139.16	99.2549	139.16	99.2698
143.555	100.097	143.555	100.073	143.555	100.087	143.555	100.016	143.555	100.045	143.555	99.929	143.555	99.9727	143.555	99.8179	143.555	99.8758	143.555	99.6899	143.555	99.7615	143.555	99.5541	143.555	99.6384	143.555	99.421	143.555	99.516	143.555	99.3015	143.555	99.4033	143.555	99.2048	143.555	99.3076	143.555	99.137	143.555	99.2339	143.555	99.1001	143.555	99.1841	143.555	99.091	143.555	99.1575	143.555	99.1031	143.555	99.1507	143.555	99.1278	143.555	99.1585	143.555	99.1564	143.555	99.1742	143.555	99.1821	143.555	99.1912	143.555	99.1998	143.555	99.2035	143.555	99.2071
147.949	100.155	147.949	100.139	147.949	100.136	147.949	100.09	147.949	100.083	147.949	100.009	147.949	99.9981	147.949	99.9006	147.949	99.8861	147.949	99.7699	147.949	99.7531	147.949	99.6237	147.949	99.6079	147.949	99.4704	147.949	99.4612	147.949	99.3195	147.949	99.3244	147.949	99.1815	147.949	99.2077	147.949	99.0659	147.949	99.118	147.949	98.98	147.949	99.0573	147.949	98.9271	147.949	99.0229	147.949	98.9053	147.949	99.0085	147.949	98.9084	147.949	99.0063	147.949	98.9275	147.949	99.0091	147.949	98.9533	147.949	99.0111	147.949	98.9782	147.949	99.0079	147.949	98.9971
153.809	99.9008	153.809	99.8904	153.809	99.8774	153.809	99.8469	153.809	99.8206	153.809	99.7728	153.809	99.7324	153.809	99.6723	153.809	99.6161	153.809	99.5515	153.809	99.4767	153.809	99.4186	153.809	99.3214	153.809	99.2828	153.809	99.1597	153.809	99.154	153.809	99.0038	153.809	99.0418	153.809	98.8675	153.809	98.9539	153.809	98.7637	153.809	98.8955	153.809	98.7012	153.809	98.8686	153.809	98.6819	153.809	98.8702	153.809	98.7001	153.809	98.8922	153.809	98.7445	153.809	98.9227	153.809	98.8024	153.809	98.9482	153.809	98.8616	153.809	98.9577	153.809	98.9119	153.809	98.9455
159.668	99.9634	159.668	99.9486	159.668	99.9475	159.668	99.9053	159.668	99.9	159.668	99.8374	159.668	99.8221	159.668	99.7491	159.668	99.7168	159.668	99.6453	159.668	99.5891	159.668	99.5312	159.668	99.4453	159.668	99.4123	159.668	99.2932	159.668	99.295	159.668	99.1419	159.668	99.1858	159.668	99.0018	159.668	99.0912	159.668	98.8839	159.668	99.0165	159.668	98.7981	159.668	98.9653	159.668	98.7511	159.668	98.9376	159.668	98.7433	159.668	98.9301	159.668	98.768	159.668	98.9357	159.668	98.813	159.668	98.9449	159.668	98.8638	159.668	98.9478	159.668	98.9077	159.668	98.9365
165.527	99.9682	165.527	99.9324	165.527	99.9682	165.527	99.8634	165.527	99.932	165.527	99.7667	165.527	99.8621	165.527	99.6501	165.527	99.7632	165.527	99.5233	165.527	99.6421	165.527	99.397	165.527	99.5074	165.527	99.2815	165.527	99.3689	165.527	99.1858	165.527	99.2374	165.527	99.1159	165.527	99.1233	165.527	99.0746	165.527	99.0354	165.527	99.061	165.527	98.9799	165.527	99.0704	165.527	98.9587	165.527	99.0955	165.527	98.9687	165.527	99.1272	165.527	99.0026	165.527	99.1569	165.527	99.05	165.527	99.1772	165.527	99.0998	165.527	99.1829	165.527	99.1425	165.527	99.1713
171.387	99.9109	171.387	99.8804	171.387	99.9038	171.387	99.8122	171.387	99.8607	171.387	99.7088	171.387	99.7851	171.387	99.5749	171.387	99.6817	171.387	99.4175	171.387	99.5563	171.387	99.2463	171.387	99.4158	171.387	99.0723	171.387	99.2684	171.387	98.9077	171.387	99.1231	171.387	98.7639	171.387	98.9898	171.387	98.6513	171.387	98.8785	171.387	98.5768	171.387	98.7975	171.387	98.5434	171.387	98.7515	171.387	98.549	171.387	98.7389	171.387	98.5857	171.387	98.7516	171.387	98.6415	171.387	98.7761	171.387	98.7024	171.387	98.798	171.387	98.7556	171.387	98.8054	171.387	98.7915
177.246	99.7313	177.246	99.7389	177.246	99.6879	177.246	99.7115	177.246	99.6102	177.246	99.6521	177.246	99.5026	177.246	99.5657	177.246	99.3715	177.246	99.4589	177.246	99.2255	177.246	99.3395	177.246	99.0741	177.246	99.2164	177.246	98.9274	177.246	99.0986	177.246	98.7947	177.246	98.9943	177.246	98.6838	177.246	98.9095	177.246	98.6002	177.246	98.8467	177.246	98.5466	177.246	98.8052	177.246	98.5232	177.246	98.7809	177.246	98.5278	177.246	98.7687	177.246	98.5554	177.246	98.7628	177.246	98.5984	177.246	98.7574	177.246	98.647	177.246	98.7467	177.246	98.6916	177.246	98.7256
183.105	99.7764	183.105	99.7171	183.105	99.7857	183.105	99.6122	183.105	99.7446	183.105	99.4697	183.105	99.656	183.105	99.3018	183.105	99.5266	183.105	99.124	183.105	99.3668	183.105	98.9541	183.105	99.1902	183.105	98.809	183.105	99.013	183.105	98.7016	183.105	98.8515	183.105	98.6383	183.105	98.7198	183.105	98.6183	183.105	98.6274	183.105	98.6345	183.105	98.5776	183.105	98.6767	183.105	98.5686	183.105	98.7333	183.105	98.5949	183.105	98.793	183.105	98.648	183.105	98.846	183.105	98.7169	183.105	98.8839	183.105	98.7887	183.105	98.8995	183.105	98.8494	183.105	98.8881
188.965	99.966	188.965	99.9849	188.965	99.8969	188.965	99.9511	188.965	99.7809	188.965	99.8643	188.965	99.6227	188.965	99.7264	188.965	99.4286	188.965	99.5435	188.965	99.2079	188.965	99.3269	188.965	98.9735	188.965	99.0943	188.965	98.7432	188.965	98.869	188.965	98.5385	188.965	98.6771	188.965	98.3807	188.965	98.5408	188.965	98.286	188.965	98.4719	188.965	98.259	188.965	98.4675	188.965	98.2914	188.965	98.5113	188.965	98.365	188.965	98.5802	188.965	98.4583	188.965	98.6511	188.965	98.5526	188.965	98.7057	188.965	98.6345	188.965	98.7333	188.965	98.6954	188.965	98.7296
196.289	99.8621	196.289	99.8437	196.289	99.8346	196.289	99.7814	196.289	99.7621	196.289	99.6808	196.289	99.6482	196.289	99.55	196.289	99.4986	196.289	99.3991	196.289	99.3204	196.289	99.239	196.289	99.1213	196.289	99.0802	196.289	98.9107	196.289	98.9316	196.289	98.6995	196.289	98.801	196.289	98.5019	196.289	98.6954	196.289	98.3348	196.289	98.6206	196.289	98.2162	196.289	98.5798	196.289	98.1596	196.289	98.5708	196.289	98.1677	196.289	98.5847	196.289	98.2294	196.289	98.6067	196.289	98.3231	196.289	98.6208	196.289	98.4244	196.289	98.6139	196.289	98.5136	196.289	98.5785
203.613	99.7362	203.613	99.6989	203.613	99.7194	203.613	99.6058	203.613	99.6533	203.613	99.4592	203.613	99.5452	203.613	99.2666	203.613	99.4046	203.613	99.0418	203.613	99.2431	203.613	98.8051	203.613	99.074	203.613	98.5812	203.613	98.9115	203.613	98.3958	203.613	98.7696	203.613	98.2691	203.613	98.6599	203.613	98.2118	203.613	98.59	203.613	98.2232	203.613	98.5615	203.613	98.2926	203.613	98.5705	203.613	98.4024	203.613	98.6085	203.613	98.5308	203.613	98.6645	203.613	98.6548	203.613	98.7269	203.613	98.7546	203.613	98.7845	203.613	98.8175	203.613	98.8258	203.613	98.8399
210.938	100.011	210.938	100.014	210.938	99.9491	210.938	99.9608	210.938	99.8308	210.938	99.8518	210.938	99.6595	210.938	99.6892	210.938	99.4423	210.938	99.4772	210.938	99.1913	210.938	99.2232	210.938	98.923	210.938	98.9405	210.938	98.6584	210.938	98.6503	210.938	98.422	210.938	98.3811	210.938	98.2379	210.938	98.1641	210.938	98.1258	210.938	98.0261	210.938	98.0945	210.938	97.98	210.938	98.1371	210.938	98.02	210.938	98.2316	210.938	98.1225	210.938	98.3471	210.938	98.2544	210.938	98.4532	210.938	98.3832	210.938	98.5281	210.938	98.4847	210.938	98.5602	210.938	98.5455
218.262	99.91	218.262	99.8918	218.262	99.8752	218.262	99.8219	218.262	99.7871	218.262	99.7032	218.262	99.6467	218.262	99.5406	218.262	99.4571	218.262	99.3423	218.262	99.2248	218.262	99.1195	218.262	98.9616	218.262	98.8871	218.262	98.6842	218.262	98.6624	218.262	98.4132	218.262	98.4638	218.262	98.1694	218.262	98.3068	218.262	97.9707	218.262	98.201	218.262	97.8293	218.262	98.1471	218.262	97.7505	218.262	98.1364	218.262	97.7327	218.262	98.1535	218.262	97.7686	218.262	98.1788	218.262	97.8453	218.262	98.1926	218.262	97.9448	218.262	98.1786	218.262	98.0461	218.262	98.1287
225.586	99.5272	225.586	99.53	225.586	99.4892	225.586	99.5013	225.586	99.4129	225.586	99.4447	225.586	99.2971	225.586	99.3627	225.586	99.1417	225.586	99.2569	225.586	98.9483	225.586	99.1296	225.586	98.7217	225.586	98.9858	225.586	98.4736	225.586	98.8335	225.586	98.2249	225.586	98.6827	225.586	98.0067	225.586	98.5422	225.586	97.8522	225.586	98.4191	225.586	97.7848	225.586	98.3212	225.586	97.8051	225.586	98.2566	225.586	97.8895	225.586	98.2294	225.586	98.0017	225.586	98.2335	225.586	98.1089	225.586	98.2528	225.586	98.1916	225.586	98.2687	225.586	98.244	225.586	98.2682
232.91	98.8177	232.91	98.8381	232.91	98.7305	232.91	98.7943	232.91	98.5835	232.91	98.7	232.91	98.3932	232.91	98.5787	232.91	98.1831	232.91	98.4602	232.91	97.9804	232.91	98.3723	232.91	97.8086	232.91	98.3319	232.91	97.6815	232.91	98.3402	232.91	97.6003	232.91	98.3865	232.91	97.5595	232.91	98.4556	232.91	97.5556	232.91	98.5345	232.91	97.5953	232.91	98.6159	232.91	97.6946	232.91	98.6992	232.91	97.867	232.91	98.7871	232.91	98.108	232.91	98.8782	232.91	98.3862	232.91	98.9589	232.91	98.6522	232.91	99.002	232.91	98.8583	232.91	98.9755
241.699	99.8272	241.699	99.7583	241.699	99.8041	241.699	99.6061	241.699	99.682	241.699	99.3796	241.699	99.4577	241.699	99.0871	241.699	99.1332	241.699	98.7385	241.699	98.7193	241.699	98.3514	241.699	98.2404	241.699	97.9579	241.699	97.7421	241.699	97.6098	241.699	97.2937	241.699	97.3708	241.699	96.9752	241.699	97.2914	241.699	96.8406	241.699	97.3747	241.699	96.8815	241.699	97.5664	241.699	97.0334	241.699	97.7847	241.699	97.2208	241.699	97.9614	241.699	97.3981	241.699	98.0639	241.699	97.556	241.699	98.0902	241.699	97.7032	241.699	98.0522	241.699	97.8427	241.699	97.9646
250.488	100.195	250.488	100.147	250.488	100.167	250.488	100.031	250.488	100.057	250.488	99.8509	250.488	99.8617	250.488	99.6143	250.488	99.5827	250.488	99.3299	250.488	99.2339	250.488	99.0112	250.488	98.8391	250.488	98.6771	250.488	98.4274	250.488	98.3515	250.488	98.0278	250.488	98.0627	250.488	97.6691	250.488	97.8401	250.488	97.3879	250.488	97.7068	250.488	97.2301	250.488	97.6698	250.488	97.2301	250.488	97.7132	250.488	97.3774	250.488	97.8035	250.488	97.6083	250.488	97.9053	250.488	97.8391	250.488	97.996	250.488	98.0078	250.488	98.0652	250.488	98.0923	250.488	98.1035
259.277	100.231	259.277	100.176	259.277	100.206	259.277	100.042	259.277	100.1	259.277	99.8383	259.277	99.913	259.277	99.5767	259.277	99.6499	259.277	99.2738	259.277	99.3168	259.277	98.9496	259.277	98.9251	259.277	98.6247	259.277	98.4934	259.277	98.3179	259.277	98.0503	259.277	98.046	259.277	97.6355	259.277	97.8277	259.277	97.2983	259.277	97.6877	259.277	97.0881	259.277	97.649	259.277	97.0369	259.277	97.7133	259.277	97.1405	259.277	97.8486	259.277	97.3561	259.277	98.0011	259.277	97.6187	259.277	98.1212	259.277	97.865	259.277	98.1778	259.277	98.051	259.277	98.1563
268.066	100.141	268.066	100.059	268.066	100.144	268.066	99.8986	268.066	100.066	268.066	99.6639	268.066	99.9044	268.066	99.362	268.066	99.6568	268.066	99.0087	268.066	99.3257	268.066	98.6308	268.066	98.9236	268.066	98.2678	268.066	98.4751	268.066	97.9652	268.066	98.0152	268.066	97.7591	268.066	97.5827	268.066	97.6584	268.066	97.2142	268.066	97.6416	268.066	96.9394	268.066	97.6741	268.066	96.7783	268.066	97.7262	268.066	96.7367	268.066	97.7784	268.066	96.8067	268.066	97.8129	268.066	96.9676	268.066	97.8085	268.066	97.185	268.066	97.7443	268.066	97.4139	268.066	97.61
276.855	99.9405	276.855	99.9183	276.855	99.9056	276.855	99.8315	276.855	99.8231	276.855	99.6769	276.855	99.7013	276.855	99.4556	276.855	99.5422	276.855	99.1733	276.855	99.3386	276.855	98.8403	276.855	99.0763	276.855	98.4726	276.855	98.745	276.855	98.0938	276.855	98.354	276.855	97.7387	276.855	97.9467	276.855	97.4539	276.855	97.6011	276.855	97.2882	276.855	97.3996	276.855	97.2694	276.855	97.3741	276.855	97.3817	276.855	97.4753	276.855	97.5633	276.855	97.6088	276.855	97.7338	276.855	97.7042	276.855	97.8337	276.855	97.7507	276.855	97.8511	276.855	97.7801	276.855	97.8184
287.109	99.51	287.109	99.4812	287.109	99.4853	287.109	99.4059	287.109	99.3989	287.109	99.2864	287.109	99.2456	287.109	99.121	287.109	99.0291	287.109	98.9081	287.109	98.767	287.109	98.6549	287.109	98.4904	287.109	98.3843	287.109	98.2333	287.109	98.1356	287.109	98.0102	287.109	97.9491	287.109	97.8066	287.109	97.8459	287.109	97.6008	287.109	97.8185	287.109	97.4059	287.109	97.8461	287.109	97.2879	287.109	97.9158	287.109	97.3209	287.109	98.0248	287.109	97.5128	287.109	98.1619	287.109	97.7917	287.109	98.2939	287.109	98.0646	287.109	98.3763	287.109	98.268	287.109	98.3731
297.363	100.513	297.363	100.456	297.363	100.464	297.363	100.296	297.363	100.309	297.363	100.044	297.363	100.055	297.363	99.7152	297.363	99.7069	297.363	99.3331	297.363	99.2762	297.363	98.9258	297.363	98.7762	297.363	98.5291	297.363	98.2347	297.363	98.1887	297.363	97.7048	297.363	97.9559	297.363	97.2618	297.363	97.8656	297.363	96.9696	297.363	97.9093	297.363	96.8428	297.363	98.0338	297.363	96.8549	297.363	98.1755	297.363	96.9823	297.363	98.2957	297.363	97.2176	297.363	98.3844	297.363	97.5381	297.363	98.4393	297.363	97.8829	297.363	98.4437	297.363	98.1755	297.363	98.3647
307.617	100.274	307.617	100.169	307.617	100.255	307.617	99.9499	307.617	100.112	307.617	99.6354	307.617	99.8592	307.617	99.2495	307.617	99.5177	307.617	98.8162	307.617	99.1136	307.617	98.3593	307.617	98.6735	307.617	97.9109	307.617	98.2218	307.617	97.5279	307.617	97.7814	307.617	97.2932	307.617	97.3806	307.617	97.2722	307.617	97.0693	307.617	97.4467	307.617	96.9205	307.617	97.7171	307.617	96.9823	307.617	97.9771	307.617	97.209	307.617	98.1682	307.617	97.4763	307.617	98.2741	307.617	97.6849	307.617	98.2915	307.617	97.8263	307.617	98.2228	307.617	97.9523	307.617	98.0936
319.336	100.036	319.336	99.8917	319.336	100.088	319.336	99.6524	319.336	100.036	319.336	99.3098	319.336	99.8632	319.336	98.8554	319.336	99.5493	319.336	98.2912	319.336	99.0859	319.336	97.6364	319.336	98.4905	319.336	96.9269	319.336	97.825	319.336	96.2081	319.336	97.2076	319.336	95.5482	319.336	96.7799	319.336	95.0969	319.336	96.6071	319.336	95.0983	319.336	96.6246	319.336	95.6608	319.336	96.7388	319.336	96.539	319.336	96.9399	319.336	97.3678	319.336	97.2606	319.336	97.9467	319.336	97.661	319.336	98.2604	319.336	98.0282	319.336	98.3841	319.336	98.2743	319.336	98.3854
329.59	100.019	329.59	99.9346	329.59	100.038	329.59	99.7903	329.59	99.9813	329.59	99.5835	329.59	99.8302	329.59	99.3061	329.59	99.5654	329.59	98.9504	329.59	99.1704	329.59	98.5192	329.59	98.6399	329.59	98.0341	329.59	97.9876	329.59	97.5319	329.59	97.2566	329.59	97.0419	329.59	96.5336	329.59	96.5686	329.59	95.9529	329.59	96.1237	329.59	95.6495	329.59	95.797	329.59	95.6697	329.59	95.7477	329.59	95.9468	329.59	96.0344	329.59	96.3675	329.59	96.5111	329.59	96.8218	329.59	96.9751	329.59	97.2056	329.59	97.309	329.59	97.4348	329.59	97.4689
341.309	100.506	341.309	100.497	341.309	100.396	341.309	100.366	341.309	100.179	341.309	100.112	341.309	99.8654	341.309	99.7335	341.309	99.4672	341.309	99.2289	341.309	98.984	341.309	98.6067	341.309	98.4024	341.309	97.9019	341.309	97.709	341.309	97.1973	341.309	96.9329	341.309	96.6207	341.309	96.2109	341.309	96.2815	341.309	95.7907	341.309	96.1842	341.309	95.8367	341.309	96.2432	341.309	96.2186	341.309	96.3865	341.309	96.6623	341.309	96.6036	341.309	97.0087	341.309	96.8949	341.309	97.2522	341.309	97.2114	341.309	97.4371	341.309	97.4654	341.309	97.5646	341.309	97.5874
353.027	100.246	353.027	100.18	353.027	100.23	353.027	100.038	353.027	100.12	353.027	99.8208	353.027	99.9055	353.027	99.5234	353.027	99.5855	353.027	99.1403	353.027	99.1663	353.027	98.6718	353.027	98.6584	353.027	98.1291	353.027	98.0578	353.027	97.5429	353.027	97.3284	353.027	96.9765	353.027	96.4197	353.027	96.5326	353.027	95.3689	353.027	96.325	353.027	94.4813	353.027	96.4037	353.027	94.2944	353.027	96.7056	353.027	94.9261	353.027	97.0947	353.027	95.8735	353.027	97.4438	353.027	96.6994	353.027	97.6807	353.027	97.2688	353.027	97.7861	353.027	97.6041	353.027	97.7634
366.211	100.556	366.211	100.465	366.211	100.551	366.211	100.261	366.211	100.466	366.211	99.9352	366.211	100.301	366.211	99.4888	366.211	100.038	366.211	98.9322	366.211	99.6506	366.211	98.2795	366.211	99.1247	366.211	97.5549	366.211	98.4821	366.211	96.8124	366.211	97.788	366.211	96.166	366.211	97.116	366.211	95.7736	366.211	96.4972	366.211	95.726	366.211	95.9311	366.211	95.9551	366.211	95.4755	366.211	96.322	366.211	95.2851	366.211	96.737	366.211	95.4779	366.211	97.1469	366.211	95.9771	366.211	97.4712	366.211	96.5833	366.211	97.6068	366.211	97.1249	366.211	97.4887
379.395	100.705	379.395	100.653	379.395	100.677	379.395	100.515	379.395	100.57	379.395	100.279	379.395	100.385	379.395	99.9268	379.395	100.114	379.395	99.4295	379.395	99.7512	379.395	98.7685	379.395	99.2875	379.395	97.9551	379.395	98.7096	379.395	97.0466	379.395	97.9974	379.395	96.1491	379.395	97.1583	379.395	95.4295	379.395	96.3136	379.395	95.118	379.395	95.7517	379.395	95.3615	379.395	95.7311	379.395	96.0136	379.395	96.167	379.395	96.7574	379.395	96.7614	379.395	97.3749	379.395	97.3087	379.395	97.8007	379.395	97.7318	379.395	98.0406	379.395	98.0024	379.395	98.1067
392.578	100.352	392.578	100.289	392.578	100.358	392.578	100.175	392.578	100.295	392.578	100.006	392.578	100.147	392.578	99.7614	392.578	99.8925	392.578	99.4118	392.578	99.4947	392.578	98.9175	392.578	98.9228	392.578	98.2429	392.578	98.1908	392.578	97.3958	392.578	97.389	392.578	96.4849	392.578	96.6391	392.578	95.7253	392.578	95.9878	392.578	95.3047	392.578	95.4305	392.578	95.2505	392.578	95.0945	392.578	95.4946	392.578	95.2145	392.578	95.9504	392.578	95.7708	392.578	96.4879	392.578	96.4484	392.578	96.9623	392.578	96.9888	392.578	97.2789	392.578	97.3063	392.578	97.3987
405.762	100.277	405.762	100.181	405.762	100.298	405.762	100.024	405.762	100.23	405.762	99.8061	405.762	100.063	405.762	99.5089	405.762	99.7978	405.762	99.1057	405.762	99.4303	405.762	98.5782	405.762	98.9299	405.762	97.9247	405.762	98.2377	405.762	97.1605	405.762	97.3138	405.762	96.3379	405.762	96.2357	405.762	95.5948	405.762	95.277	405.762	95.1551	405.762	94.7656	405.762	95.1683	405.762	94.7582	405.762	95.5377	405.762	95.0835	405.762	96.0228	405.762	95.5991	405.762	96.4415	405.762	96.1731	405.762	96.7306	405.762	96.6425	405.762	96.9023	405.762	96.9058	405.762	96.9718
420.41	100.487	420.41	100.489	420.41	100.423	420.41	100.403	420.41	100.309	420.41	100.213	420.41	100.146	420.41	99.9214	420.41	99.9243	420.41	99.5384	420.41	99.6464	420.41	99.0627	420.41	99.3088	420.41	98.4615	420.41	98.8675	420.41	97.6709	420.41	98.226	420.41	96.6419	420.41	97.2867	420.41	95.4627	420.41	96.0566	420.41	94.5338	420.41	94.7753	420.41	94.3998	420.41	93.9327	420.41	95.0202	420.41	93.8857	420.41	95.8601	420.41	94.4665	420.41	96.5753	420.41	95.2914	420.41	97.0582	420.41	96.1009	420.41	97.2636	420.41	96.7542	420.41	97.1601
435.059	100.359	435.059	100.303	435.059	100.337	435.059	100.192	435.059	100.224	435.059	100.04	435.059	100.018	435.059	99.8259	435.059	99.7158	435.059	99.4913	435.059	99.309	435.059	98.9647	435.059	98.8015	435.059	98.2015	435.059	98.2067	435.059	97.2271	435.059	97.505	435.059	96.1635	435.059	96.6237	435.059	95.2036	435.059	95.5538	435.059	94.5363	435.059	94.589	435.059	94.3229	435.059	94.3063	435.059	94.6688	435.059	94.8256	435.059	95.4615	435.059	95.6453	435.059	96.3743	435.059	96.4001	435.059	97.1144	435.059	97.0072	435.059	97.5452	435.059	97.4421	435.059	97.6433
451.172	100.489	451.172	100.474	451.172	100.471	451.172	100.41	451.172	100.428	451.172	100.263	451.172	100.353	451.172	99.9989	451.172	100.206	451.172	99.6099	451.172	99.9235	451.172	99.1261	451.172	99.454	451.172	98.5706	451.172	98.8076	451.172	97.8994	451.172	98.0578	451.172	97.0152	451.172	97.2387	451.172	95.8963	451.172	96.2253	451.172	94.7716	451.172	94.8591	451.172	94.1278	451.172	93.4482	451.172	94.2419	451.172	93.1009	451.172	94.8537	451.172	94.0572	451.172	95.5858	451.172	95.1985	451.172	96.2086	451.172	95.9877	451.172	96.587	451.172	96.4529	451.172	96.6614
465.82	100.418	465.82	100.29	465.82	100.462	465.82	100.099	465.82	100.415	465.82	99.8672	465.82	100.284	465.82	99.601	465.82	100.094	465.82	99.2715	465.82	99.8522	465.82	98.8252	465.82	99.5007	465.82	98.2202	465.82	98.9229	465.82	97.4527	465.82	98.0432	465.82	96.5658	465.82	96.9599	465.82	95.6677	465.82	95.9421	465.82	94.9619	465.82	95.1185	465.82	94.6891	465.82	94.3314	465.82	94.9209	465.82	93.6993	465.82	95.4675	465.82	93.9045	465.82	96.0524	465.82	94.968	465.82	96.493	465.82	96.0225	465.82	96.7396	465.82	96.616	465.82	96.8013
483.398	100.221	483.398	100.07	483.398	100.306	483.398	99.8741	483.398	100.312	483.398	99.6615	483.398	100.239	483.398	99.4418	483.398	100.089	483.398	99.1881	483.398	99.8593	483.398	98.8397	483.398	99.5346	483.398	98.3306	483.398	99.0827	483.398	97.6162	483.398	98.459	483.398	96.6682	483.398	97.5952	483.398	95.4838	483.398	96.4157	483.398	94.2296	483.398	94.9702	483.398	93.4824	483.398	93.6853	483.398	93.7891	483.398	93.2402	483.398	94.7254	483.398	93.6436	483.398	95.5764	483.398	94.3427	483.398	96.0772	483.398	95.0488	483.398	96.2329	483.398	95.6639	483.398	96.0839
499.512	100.372	499.512	100.208	499.512	100.432	499.512	99.9739	499.512	100.379	499.512	99.7152	499.512	100.22	499.512	99.4432	499.512	99.9643	499.512	99.111	499.512	99.6332	499.512	98.6497	499.512	99.2506	499.512	98.0191	499.512	98.7967	499.512	97.2249	499.512	98.185	499.512	96.3286	499.512	97.3416	499.512	95.4507	499.512	96.3207	499.512	94.7023	499.512	95.319	499.512	94.1547	499.512	94.5463	499.512	94.0149	499.512	94.1657	499.512	94.5262	499.512	94.327	499.512	95.4568	499.512	94.9626	499.512	96.2943	499.512	95.7471	499.512	96.7437	499.512	96.3942	499.512	96.7566
517.09	100.279	517.09	100.409	517.09	100.092	517.09	100.366	517.09	99.9641	517.09	100.098	517.09	99.9443	517.09	99.6419	517.09	99.9738	517.09	99.0857	517.09	99.9233	517.09	98.4753	517.09	99.6896	517.09	97.7339	517.09	99.2659	517.09	96.7013	517.09	98.7087	517.09	95.3076	517.09	98.009	517.09	93.8894	517.09	97.0424	517.09	93.3268	517.09	95.7494	517.09	93.8974	517.09	94.4881	517.09	94.7909	517.09	94.0749	517.09	95.5296	517.09	94.7033	517.09	96.1967	517.09	95.7041	517.09	96.8839	517.09	96.618	517.09	97.4178	517.09	97.2799	517.09	97.572
536.133	100.52	536.133	100.403	536.133	100.539	536.133	100.236	536.133	100.42	536.133	100.046	536.133	100.168	536.133	99.8288	536.133	99.8256	536.133	99.5645	536.133	99.4395	536.133	99.2085	536.133	99.0063	536.133	98.6911	536.133	98.4513	536.133	97.9318	536.133	97.6615	536.133	96.8183	536.133	96.5683	536.133	95.2042	536.133	95.2485	536.133	93.2287	536.133	93.976	536.133	92.2423	536.133	93.1771	536.133	93.3736	536.133	93.2674	536.133	94.9554	536.133	94.2368	536.133	95.9863	536.133	95.5106	536.133	96.5855	536.133	96.5393	536.133	96.9937	536.133	97.1049	536.133	97.2152
555.176	101.023	555.176	101.005	555.176	101.005	555.176	100.972	555.176	100.943	555.176	100.941	555.176	100.843	555.176	100.864	555.176	100.724	555.176	100.618	555.176	100.591	555.176	100.095	555.176	100.396	555.176	99.275	555.176	100.051	555.176	98.2053	555.176	99.4964	555.176	96.9388	555.176	98.6909	555.176	95.5077	555.176	97.531	555.176	93.8994	555.176	95.8679	555.176	92.1808	555.176	93.7928	555.176	91.2405	555.176	92.2458	555.176	92.3525	555.176	92.5118	555.176	94.2826	555.176	93.8682	555.176	95.6016	555.176	95.0804	555.176	96.1283	555.176	95.807	555.176	96.1341
574.219	100.954	574.219	100.787	574.219	101.034	574.219	100.614	574.219	100.967	574.219	100.476	574.219	100.766	574.219	100.381	574.219	100.502	574.219	100.314	574.219	100.264	574.219	100.2	574.219	100.109	574.219	99.8968	574.219	99.949	574.219	99.2541	574.219	99.5401	574.219	98.1786	574.219	98.7108	574.219	96.6487	574.219	97.5408	574.219	94.8187	574.219	96.2227	574.219	93.4289	574.219	94.8218	574.219	93.4792	574.219	93.6039	574.219	94.4733	574.219	93.4176	574.219	95.5631	574.219	94.4397	574.219	96.5927	574.219	95.8563	574.219	97.39	574.219	97.0392	574.219	97.601
594.727	101.23	594.727	101.325	594.727	100.998	594.727	101.204	594.727	100.747	594.727	100.871	594.727	100.563	594.727	100.431	594.727	100.444	594.727	100.028	594.727	100.279	594.727	99.7029	594.727	99.9402	594.727	99.3438	594.727	99.4473	594.727	98.7852	594.727	98.9477	594.727	97.9126	594.727	98.4126	594.727	96.6975	594.727	97.5255	594.727	95.2041	594.727	95.9843	594.727	93.7334	594.727	93.8872	594.727	93.2471	594.727	92.3953	594.727	94.4592	594.727	93.1963	594.727	96.232	594.727	95.1628	594.727	97.504	594.727	96.7449	594.727	98.0803	594.727	97.6773	594.727	98.1003
615.234	101.452	615.234	101.405	615.234	101.404	615.234	101.284	615.234	101.277	615.234	101.126	615.234	101.104	615.234	100.949	615.234	100.892	615.234	100.731	615.234	100.635	615.234	100.417	615.234	100.34	615.234	99.9193	615.234	99.996	615.234	99.1481	615.234	99.5038	615.234	98.0582	615.234	98.7185	615.234	96.6304	615.234	97.5672	615.234	94.863	615.234	96.0749	615.234	92.987	615.234	94.3386	615.234	91.8854	615.234	92.7401	615.234	92.3424	615.234	92.3589	615.234	93.7025	615.234	93.5678	615.234	95.1214	615.234	95.1246	615.234	96.1586	615.234	96.1958	615.234	96.5515
637.207	98.7096	637.207	98.6268	637.207	98.6475	637.207	98.4867	637.207	98.4365	637.207	98.3904	637.207	98.1531	637.207	98.3443	637.207	97.9132	637.207	98.2766	637.207	97.8157	637.207	98.1799	637.207	97.8538	637.207	98.0829	637.207	97.8726	637.207	97.8411	637.207	97.6971	637.207	97.1554	637.207	97.2359	637.207	95.8073	637.207	96.3849	637.207	93.8431	637.207	94.9693	637.207	91.8927	637.207	93.0501	637.207	91.354	637.207	91.5167	637.207	92.4684	637.207	91.6222	637.207	93.8762	637.207	92.8952	637.207	94.8748	637.207	94.2617	637.207	95.4324	637.207	95.2153	637.207	95.5828
659.18	98.3556	659.18	98.2485	659.18	98.372	659.18	97.9927	659.18	98.2615	659.18	97.5203	659.18	97.9866	659.18	96.9798	659.18	97.5692	659.18	96.6744	659.18	97.0578	659.18	96.5743	659.18	96.5576	659.18	96.3569	659.18	96.245	659.18	95.8922	659.18	96.0814	659.18	95.2244	659.18	95.7127	659.18	94.2155	659.18	94.8634	659.18	92.4951	659.18	93.4963	659.18	90.0189	659.18	91.5914	659.18	88.6946	659.18	89.3442	659.18	90.4243	659.18	88.7857	659.18	92.6156	659.18	90.6995	659.18	94.0725	659.18	92.5894	659.18	94.7219	659.18	93.8538	659.18	94.6003
682.617	99.6159	682.617	99.2879	682.617	99.6805	682.617	98.85	682.617	99.4594	682.617	98.4925	682.617	98.9947	682.617	98.1676	682.617	98.3814	682.617	97.7023	682.617	97.7868	682.617	97.1989	682.617	97.3651	682.617	96.8698	682.617	97.1063	682.617	96.495	682.617	96.8322	682.617	95.695	682.617	96.3349	682.617	94.4753	682.617	95.4319	682.617	93.1314	682.617	93.9311	682.617	91.7438	682.617	91.7477	682.617	90.448	682.617	89.5256	682.617	90.5442	682.617	89.2152	682.617	92.2502	682.617	90.9421	682.617	93.9441	682.617	92.9796	682.617	94.961	682.617	94.4996	682.617	95.1747
707.52	99.9188	707.52	99.8586	707.52	99.7523	707.52	99.5113	707.52	99.3611	707.52	98.8752	707.52	98.8054	707.52	98.1784	707.52	98.2685	707.52	97.6793	707.52	97.8853	707.52	97.3388	707.52	97.6041	707.52	97.0217	707.52	97.3325	707.52	96.7009	707.52	97.0568	707.52	96.2752	707.52	96.6925	707.52	95.4756	707.52	95.9827	707.52	93.9229	707.52	94.6246	707.52	91.3345	707.52	92.3736	707.52	88.9862	707.52	89.4604	707.52	90.0303	707.52	88.3579	707.52	92.1269	707.52	90.3745	707.52	93.5253	707.52	92.6252	707.52	94.3551	707.52	94.068	707.52	94.6046
732.422	99.2913	732.422	99.1707	732.422	99.2531	732.422	98.8795	732.422	99.0489	732.422	98.3282	732.422	98.7048	732.422	97.5879	732.422	98.194	732.422	97.0132	732.422	97.5182	732.422	96.7291	732.422	96.934	732.422	96.5079	732.422	96.7363	732.422	96.2663	732.422	96.7172	732.422	95.8054	732.422	96.4593	732.422	94.5918	732.422	95.8617	732.422	92.393	732.422	94.924	732.422	89.7865	732.422	93.3164	732.422	87.7586	732.422	90.6158	732.422	87.6833	732.422	88.0291	732.422	90.406	732.422	89.0694	732.422	93.1554	732.422	91.2958	732.422	94.3862	732.422	92.9797	732.422	94.1458
757.324	99.5864	757.324	99.2884	757.324	99.7077	757.324	98.9066	757.324	99.5015	757.324	98.4238	757.324	98.9006	757.324	97.7175	757.324	98.0529	757.324	96.7968	757.324	97.1714	757.324	96.0804	757.324	96.3559	757.324	95.9295	757.324	95.8783	757.324	95.91	757.324	95.9784	757.324	95.5511	757.324	96.1002	757.324	94.8002	757.324	95.6305	757.324	93.3438	757.324	94.5293	757.324	90.5101	757.324	92.8263	757.324	87.5812	757.324	90.2938	757.324	89.6421	757.324	88.2159	757.324	92.4555	757.324	89.5158	757.324	94.0423	757.324	91.8774	757.324	94.7721	757.324	93.6635	757.324	94.6668
785.156	100.111	785.156	100.006	785.156	99.9225	785.156	99.4374	785.156	99.5807	785.156	98.5586	785.156	98.9822	785.156	97.6934	785.156	98.108	785.156	96.833	785.156	97.2641	785.156	95.8777	785.156	96.6383	785.156	95.3396	785.156	96.0707	785.156	95.4616	785.156	95.7472	785.156	95.4641	785.156	95.873	785.156	94.9038	785.156	95.6972	785.156	93.9035	785.156	94.558	785.156	91.9159	785.156	92.5811	785.156	87.3906	785.156	90.2606	785.156	85.214	785.156	87.6615	785.156	89.662	785.156	87.7385	785.156	91.8287	785.156	91.2122	785.156	92.8542	785.156	93.2516	785.156	93.5139
811.523	100.519	811.523	100.337	811.523	100.515	811.523	100.052	811.523	100.19	811.523	99.4943	811.523	99.7006	811.523	98.5729	811.523	99.1952	811.523	97.6194	811.523	98.411	811.523	96.9948	811.523	97.3315	811.523	96.5574	811.523	96.7007	811.523	96.3221	811.523	96.4993	811.523	96.3413	811.523	96.0274	811.523	95.8251	811.523	95.6145	811.523	94.0448	811.523	95.4598	811.523	91.4161	811.523	94.2482	811.523	89.427	811.523	90.758	811.523	88.0058	811.523	86.5327	811.523	89.7715	811.523	88.573	811.523	92.9467	811.523	91.9309	811.523	94.3547	811.523	93.8526	811.523	94.5386
840.82	100.539	840.82	100.358	840.82	100.609	840.82	100.058	840.82	100.435	840.82	99.3993	840.82	99.9119	840.82	98.2969	840.82	99.0026	840.82	97.0074	840.82	97.8968	840.82	95.7949	840.82	96.8324	840.82	94.8525	840.82	95.8866	840.82	94.3515	840.82	95.5541	840.82	94.2657	840.82	95.9109	840.82	94.4239	840.82	95.7345	840.82	94.1861	840.82	94.6547	840.82	92.4805	840.82	93.2762	840.82	88.5093	840.82	91.257	840.82	86.1187	840.82	87.3946	840.82	88.6842	840.82	86.8703	840.82	91.1383	840.82	90.2593	840.82	93.1782	840.82	92.4807	840.82	93.6692
870.117	100.703	870.117	100.578	870.117	100.606	870.117	100.074	870.117	100.391	870.117	99.2607	870.117	99.9195	870.117	98.3464	870.117	99.0471	870.117	97.4148	870.117	97.9088	870.117	96.3598	870.117	96.8719	870.117	95.199	870.117	96.0117	870.117	94.6368	870.117	95.0753	870.117	94.7766	870.117	94.618	870.117	94.3843	870.117	94.8275	870.117	93.0639	870.117	94.4676	870.117	91.6936	870.117	93.0129	870.117	90.0293	870.117	91.0763	870.117	87.4935	870.117	88.8055	870.117	89.1252	870.117	88.0295	870.117	91.8765	870.117	91.1131	870.117	92.9109	870.117	93.18	870.117	93.3753
900.879	100.546	900.879	100.485	900.879	100.367	900.879	100.197	900.879	100.226	900.879	99.8385	900.879	100.003	900.879	99.103	900.879	99.4372	900.879	97.7853	900.879	98.5358	900.879	96.375	900.879	97.1025	900.879	95.2971	900.879	95.3864	900.879	94.2257	900.879	94.8307	900.879	93.4955	900.879	94.8424	900.879	93.7727	900.879	94.0316	900.879	93.7036	900.879	93.4463	900.879	91.824	900.879	92.8432	900.879	87.5002	900.879	89.9524	900.879	83.3545	900.879	84.2306	900.879	86.7947	900.879	86.3749	900.879	90.9585	900.879	90.3716	900.879	93.3311	900.879	92.698	900.879	93.8053
933.105	100.073	933.105	100.061	933.105	100.279	933.105	99.8755	933.105	100.004	933.105	98.9508	933.105	99.2352	933.105	98.0654	933.105	98.3909	933.105	97.5073	933.105	97.2947	933.105	96.1662	933.105	96.1595	933.105	94.5003	933.105	95.284	933.105	94.3678	933.105	94.07	933.105	94.7463	933.105	93.4229	933.105	94.4999	933.105	94.3025	933.105	93.763	933.105	94.7144	933.105	92.3667	933.105	93.584	933.105	89.3499	933.105	90.8773	933.105	85.5651	933.105	85.7593	933.105	86.7375	933.105	83.4872	933.105	89.6661	933.105	88.1156	933.105	91.731	933.105	90.9635	933.105	92.2032
965.332	100.716	965.332	100.605	965.332	100.413	965.332	100.15	965.332	100.351	965.332	99.8953	965.332	100.2	965.332	99.2017	965.332	99.489	965.332	97.5955	965.332	98.4606	965.332	96.0698	965.332	96.8829	965.332	95.1704	965.332	94.7561	965.332	94.1833	965.332	93.691	965.332	93.7396	965.332	93.7831	965.332	94.0493	965.332	93.9527	965.332	93.716	965.332	93.9505	965.332	92.2042	965.332	92.6375	965.332	89.4467	965.332	89.6508	965.332	84.9134	965.332	86.2507	965.332	85.268	965.332	84.2777	965.332	89.7821	965.332	89.0988	965.332	91.5644	965.332	92.4654	965.332	92.6622
1,000.49	100.751	1,000.49	100.609	1,000.49	100.649	1,000.49	100.281	1,000.49	100.212	1,000.49	99.6092	1,000.49	99.7612	1,000.49	98.7215	1,000.49	99.2437	1,000.49	97.8394	1,000.49	98.16	1,000.49	96.4807	1,000.49	96.6093	1,000.49	94.3449	1,000.49	94.9593	1,000.49	93.4389	1,000.49	92.9175	1,000.49	94.4706	1,000.49	91.6713	1,000.49	95.1558	1,000.49	92.8679	1,000.49	95.0982	1,000.49	93.6848	1,000.49	94.4021	1,000.49	93.2405	1,000.49	92.2302	1,000.49	91.8315	1,000.49	88.4094	1,000.49	87.9928	1,000.49	87.4288	1,000.49	85.1444	1,000.49	91.1534	1,000.49	89.528	1,000.49	93.7773	1,000.49	91.7687	1,000.49	93.5596
1,035.64	96.5344	1,035.64	96.6646	1,035.64	96.5949	1,035.64	96.5632	1,035.64	96.7031	1,035.64	96.0652	1,035.64	96.3874	1,035.64	95.2842	1,035.64	95.2804	1,035.64	94.34	1,035.64	93.9638	1,035.64	92.9305	1,035.64	92.9964	1,035.64	91.0493	1,035.64	91.3302	1,035.64	88.6532	1,035.64	88.5726	1,035.64	86.9307	1,035.64	87.3848	1,035.64	88.7519	1,035.64	87.9603	1,035.64	89.9774	1,035.64	88.6453	1,035.64	88.9444	1,035.64	88.6527	1,035.64	86.646	1,035.64	86.83	1,035.64	84.1485	1,035.64	83.4453	1,035.64	84.9655	1,035.64	81.0883	1,035.64	89.5491	1,035.64	85.2419	1,035.64	91.6591	1,035.64	90.3673	1,035.64	92.1145
1,072.27	93.9546	1,072.27	93.8833	1,072.27	93.9342	1,072.27	93.6461	1,072.27	93.696	1,072.27	93.0303	1,072.27	93.1165	1,072.27	92.1452	1,072.27	92.7333	1,072.27	91.5633	1,072.27	92.3154	1,072.27	90.493	1,072.27	90.5282	1,072.27	88.1039	1,072.27	88.2116	1,072.27	85.6624	1,072.27	87.3159	1,072.27	83.0286	1,072.27	86.0532	1,072.27	80.8494	1,072.27	83.5021	1,072.27	82.8345	1,072.27	81.1678	1,072.27	82.1018	1,072.27	79.6549	1,072.27	73.5004	1,072.27	79.5474	1,072.27	70.7467	1,072.27	73.5921	1,072.27	79.4949	1,072.27	77.7976	1,072.27	82.8718	1,072.27	83.596	1,072.27	84.0167	1,072.27	84.1621	1,072.27	84.2327
1,108.89	98.0154	1,108.89	97.518	1,108.89	98.2655	1,108.89	97.5766	1,108.89	97.656	1,108.89	97.2346	1,108.89	97.215	1,108.89	96.3635	1,108.89	96.9185	1,108.89	95.7567	1,108.89	96.038	1,108.89	94.7871	1,108.89	95.3754	1,108.89	92.9808	1,108.89	94.7199	1,108.89	91.7874	1,108.89	92.7982	1,108.89	91.4094	1,108.89	90.9281	1,108.89	90.9574	1,108.89	91.2063	1,108.89	90.7253	1,108.89	91.2821	1,108.89	89.9568	1,108.89	90.7719	1,108.89	88.4062	1,108.89	88.9241	1,108.89	85.2684	1,108.89	85.6334	1,108.89	79.8913	1,108.89	82.2374	1,108.89	82.9234	1,108.89	77.2172	1,108.89	84.7644	1,108.89	84.8687	1,108.89	86.017
1,148.44	97.6958	1,148.44	97.6051	1,148.44	98.2598	1,148.44	97.6201	1,148.44	98.0714	1,148.44	97.0441	1,148.44	97.3782	1,148.44	96.7347	1,148.44	97.104	1,148.44	96.0986	1,148.44	96.8958	1,148.44	94.8179	1,148.44	96.1841	1,148.44	93.7739	1,148.44	94.7692	1,148.44	91.9013	1,148.44	92.7658	1,148.44	89.6059	1,148.44	90.865	1,148.44	89.3873	1,148.44	89.3638	1,148.44	89.2433	1,148.44	89.0451	1,148.44	89.5795	1,148.44	89.7056	1,148.44	87.7762	1,148.44	88.9278	1,148.44	82.0452	1,148.44	86.2375	1,148.44	80.303	1,148.44	81.3165	1,148.44	85.2052	1,148.44	81.9531	1,148.44	88.3395	1,148.44	86.3214	1,148.44	88.1784
1,189.45	98.258	1,189.45	98.1838	1,189.45	98.2365	1,189.45	97.6083	1,189.45	98.4133	1,189.45	96.9237	1,189.45	98.0859	1,189.45	96.0441	1,189.45	97.2893	1,189.45	95.378	1,189.45	96.2592	1,189.45	94.3555	1,189.45	95.3125	1,189.45	92.245	1,189.45	94.5776	1,189.45	90.7665	1,189.45	93.3285	1,189.45	89.0872	1,189.45	91.4804	1,189.45	86.8919	1,189.45	89.7203	1,189.45	88.2389	1,189.45	88.7807	1,189.45	87.1572	1,189.45	88.8475	1,189.45	83.9946	1,189.45	88.3149	1,189.45	78.5816	1,189.45	84.9875	1,189.45	76.1737	1,189.45	77.5351	1,189.45	82.88	1,189.45	69.5415	1,189.45	86.482	1,189.45	83.9647	1,189.45	88.188
1,230.47	100.02	1,230.47	99.6124	1,230.47	100.124	1,230.47	99.1783	1,230.47	99.6809	1,230.47	98.5176	1,230.47	99.2119	1,230.47	97.8363	1,230.47	98.7149	1,230.47	96.9023	1,230.47	97.9606	1,230.47	95.8913	1,230.47	97.241	1,230.47	95.2419	1,230.47	96.2393	1,230.47	93.205	1,230.47	94.7952	1,230.47	90.4048	1,230.47	93.1355	1,230.47	90.8667	1,230.47	91.7905	1,230.47	91.0918	1,230.47	91.6385	1,230.47	90.3023	1,230.47	91.0676	1,230.47	88.7669	1,230.47	91.1122	1,230.47	85.1214	1,230.47	89.6642	1,230.47	76.5788	1,230.47	82.4111	1,230.47	85.999	1,230.47	80.2442	1,230.47	87.5464	1,230.47	85.9677	1,230.47	88.0274
1,274.41	100.763	1,274.41	100.43	1,274.41	100.784	1,274.41	99.8573	1,274.41	100.328	1,274.41	99.1141	1,274.41	99.6608	1,274.41	98.1827	1,274.41	98.7787	1,274.41	97.2124	1,274.41	98.0849	1,274.41	96.5478	1,274.41	97.6206	1,274.41	95.1871	1,274.41	96.4001	1,274.41	93.4981	1,274.41	94.7938	1,274.41	92.7048	1,274.41	93.1434	1,274.41	90.2095	1,274.41	91.246	1,274.41	87.5148	1,274.41	90.4121	1,274.41	88.908	1,274.41	91.4653	1,274.41	88.6137	1,274.41	90.9364	1,274.41	83.0014	1,274.41	88.0587	1,274.41	75.8452	1,274.41	84.4612	1,274.41	84.3358	1,274.41	81.1197	1,274.41	88.9579	1,274.41	87.5908	1,274.41	89.2721
1,319.82	101.098	1,319.82	100.919	1,319.82	101.013	1,319.82	100.458	1,319.82	100.706	1,319.82	99.5636	1,319.82	100.015	1,319.82	98.3838	1,319.82	98.8944	1,319.82	97.6111	1,319.82	97.5535	1,319.82	96.5526	1,319.82	96.6899	1,319.82	95.5218	1,319.82	96.0691	1,319.82	94.7548	1,319.82	94.9638	1,319.82	92.5069	1,319.82	93.5745	1,319.82	89.5162	1,319.82	91.9423	1,319.82	89.8331	1,319.82	91.0886	1,319.82	90.1673	1,319.82	90.8246	1,319.82	88.663	1,319.82	90.5555	1,319.82	85.8186	1,319.82	88.7078	1,319.82	75.3715	1,319.82	79.2963	1,319.82	85.2383	1,319.82	76.8556	1,319.82	89.2079	1,319.82	86.7199	1,319.82	90.5726
1,366.7	101.352	1,366.7	101.052	1,366.7	101.055	1,366.7	100.466	1,366.7	100.658	1,366.7	99.5854	1,366.7	100.085	1,366.7	98.6317	1,366.7	98.9387	1,366.7	97.4241	1,366.7	98.1133	1,366.7	95.9899	1,366.7	96.5956	1,366.7	94.8671	1,366.7	95.2465	1,366.7	93.0978	1,366.7	94.7461	1,366.7	91.6327	1,366.7	93.1877	1,366.7	90.7694	1,366.7	91.7908	1,366.7	89.8657	1,366.7	91.0961	1,366.7	91.1819	1,366.7	91.7744	1,366.7	90.4885	1,366.7	91.1944	1,366.7	86.9833	1,366.7	89.84	1,366.7	75.6683	1,366.7	85.2144	1,366.7	82.6209	1,366.7	67.6099	1,366.7	87.0557	1,366.7	84.5679	1,366.7	88.0583
1,413.57	101.166	1,413.57	101.164	1,413.57	101.163	1,413.57	100.638	1,413.57	100.992	1,413.57	99.9835	1,413.57	100.167	1,413.57	99.0974	1,413.57	99.3411	1,413.57	97.8143	1,413.57	98.4164	1,413.57	96.9355	1,413.57	97.2764	1,413.57	96.0324	1,413.57	96.2411	1,413.57	94.0349	1,413.57	95.1401	1,413.57	92.1875	1,413.57	93.6404	1,413.57	92.2015	1,413.57	90.9649	1,413.57	91.5224	1,413.57	89.0503	1,413.57	91.6089	1,413.57	89.7936	1,413.57	90.6787	1,413.57	90.0052	1,413.57	87.5265	1,413.57	89.4872	1,413.57	80.8789	1,413.57	86.3238	1,413.57	72.5055	1,413.57	72.5583	1,413.57	83.615	1,413.57	83.12	1,413.57	85.2546
1,463.38	101.24	1,463.38	100.937	1,463.38	101.36	1,463.38	100.626	1,463.38	100.867	1,463.38	99.9561	1,463.38	99.8116	1,463.38	98.7638	1,463.38	99.324	1,463.38	97.8926	1,463.38	98.1471	1,463.38	96.7138	1,463.38	96.4913	1,463.38	95.4975	1,463.38	95.8131	1,463.38	95.2178	1,463.38	93.9708	1,463.38	93.7598	1,463.38	92.7683	1,463.38	91.5373	1,463.38	91.055	1,463.38	91.352	1,463.38	89.4209	1,463.38	91.0504	1,463.38	89.4959	1,463.38	91.4025	1,463.38	91.0704	1,463.38	89.1124	1,463.38	90.4923	1,463.38	83.0109	1,463.38	84.0977	1,463.38	79.8793	1,463.38	75.0214	1,463.38	86.2435	1,463.38	83.0309	1,463.38	87.988
1,516.11	100.622	1,516.11	100.371	1,516.11	100.549	1,516.11	99.7688	1,516.11	99.837	1,516.11	98.8438	1,516.11	99.5468	1,516.11	98.2347	1,516.11	99.0804	1,516.11	97.1303	1,516.11	97.5242	1,516.11	95.7671	1,516.11	96.0621	1,516.11	93.9729	1,516.11	95.3273	1,516.11	93.2211	1,516.11	93.91	1,516.11	92.2205	1,516.11	92.1996	1,516.11	89.8527	1,516.11	90.4744	1,516.11	89.085	1,516.11	89.0964	1,516.11	88.5974	1,516.11	88.1952	1,516.11	88.652	1,516.11	90.0693	1,516.11	87.8363	1,516.11	89.1123	1,516.11	82.0927	1,516.11	85.105	1,516.11	81.5903	1,516.11	80.5939	1,516.11	85.4656	1,516.11	79.911	1,516.11	85.5965
1,568.85	100.074	1,568.85	99.5147	1,568.85	100.115	1,568.85	98.9391	1,568.85	99.3904	1,568.85	98.0019	1,568.85	98.8499	1,568.85	96.8821	1,568.85	98.3097	1,568.85	96.0782	1,568.85	96.8403	1,568.85	94.2459	1,568.85	96.1573	1,568.85	93.2145	1,568.85	94.7614	1,568.85	93.2246	1,568.85	93.4078	1,568.85	91.1393	1,568.85	92.7142	1,568.85	89.1716	1,568.85	91.1993	1,568.85	88.4396	1,568.85	89.0929	1,568.85	88.1611	1,568.85	89.0293	1,568.85	88.6184	1,568.85	89.357	1,568.85	87.0954	1,568.85	88.393	1,568.85	80.3918	1,568.85	86.5644	1,568.85	77.2862	1,568.85	79.2157	1,568.85	83.7685	1,568.85	79.1883	1,568.85	83.6291
1,624.51	100.212	1,624.51	99.8855	1,624.51	100.197	1,624.51	99.2142	1,624.51	99.6406	1,624.51	98.2092	1,624.51	99.2367	1,624.51	97.3369	1,624.51	98.6452	1,624.51	96.2037	1,624.51	97.3039	1,624.51	94.3837	1,624.51	96.0634	1,624.51	93.07	1,624.51	94.5006	1,624.51	92.2202	1,624.51	93.5201	1,624.51	90.5788	1,624.51	92.7454	1,624.51	88.2689	1,624.51	90.6397	1,624.51	87.3934	1,624.51	89.0649	1,624.51	87.5163	1,624.51	88.2765	1,624.51	88.5779	1,624.51	88.2312	1,624.51	87.3718	1,624.51	88.7881	1,624.51	79.9777	1,624.51	85.0752	1,624.51	75.9061	1,624.51	77.1446	1,624.51	84.5586	1,624.51	80.5825	1,624.51	84.4226
1,681.64	100.67	1,681.64	100.26	1,681.64	100.888	1,681.64	100.029	1,681.64	100.419	1,681.64	99.1571	1,681.64	99.8503	1,681.64	98.0015	1,681.64	99.1739	1,681.64	96.8072	1,681.64	97.9241	1,681.64	95.1627	1,681.64	96.7315	1,681.64	94.5756	1,681.64	95.4568	1,681.64	92.9495	1,681.64	93.804	1,681.64	92.144	1,681.64	92.4266	1,681.64	90.2992	1,681.64	90.7313	1,681.64	87.5973	1,681.64	89.4262	1,681.64	87.8278	1,681.64	88.9017	1,681.64	90.044	1,681.64	88.4085	1,681.64	89.3062	1,681.64	89.2011	1,681.64	85.8066	1,681.64	87.0359	1,681.64	75.3118	1,681.64	82.2198	1,681.64	82.8943	1,681.64	83.7503	1,681.64	84.3511
1,741.7	100.7	1,741.7	100.596	1,741.7	100.605	1,741.7	100.037	1,741.7	100.2	1,741.7	99.5426	1,741.7	99.4694	1,741.7	98.3623	1,741.7	98.8977	1,741.7	97.0364	1,741.7	97.5406	1,741.7	95.8245	1,741.7	96.6793	1,741.7	94.0971	1,741.7	95.4102	1,741.7	92.8336	1,741.7	93.3722	1,741.7	92.3675	1,741.7	91.764	1,741.7	89.0318	1,741.7	90.1122	1,741.7	88.3881	1,741.7	88.1965	1,741.7	86.8696	1,741.7	87.1665	1,741.7	88.6073	1,741.7	88.9744	1,741.7	88.3694	1,741.7	88.5734	1,741.7	85.8236	1,741.7	87.1751	1,741.7	77.0893	1,741.7	80.8951	1,741.7	82.6143	1,741.7	84.0485	1,741.7	85.2111
1,803.22	100.07	1,803.22	99.9012	1,803.22	99.8456	1,803.22	99.6423	1,803.22	99.4749	1,803.22	98.8775	1,803.22	98.4543	1,803.22	97.9855	1,803.22	97.822	1,803.22	97.1119	1,803.22	97.0272	1,803.22	95.8448	1,803.22	95.4093	1,803.22	94.6247	1,803.22	94.5919	1,803.22	93.468	1,803.22	93.2809	1,803.22	91.9289	1,803.22	91.8149	1,803.22	89.2836	1,803.22	90.7355	1,803.22	89.232	1,803.22	87.6239	1,803.22	87.9327	1,803.22	86.1124	1,803.22	87.955	1,803.22	85.8743	1,803.22	88.6985	1,803.22	87.5324	1,803.22	84.9393	1,803.22	85.5305	1,803.22	80.8953	1,803.22	76.8003	1,803.22	82.6788	1,803.22	79.5226	1,803.22	85.1357
1,866.21	98.9813	1,866.21	98.941	1,866.21	99.1081	1,866.21	98.5259	1,866.21	98.5179	1,866.21	97.8681	1,866.21	97.6273	1,866.21	97.1968	1,866.21	96.3106	1,866.21	96.2363	1,866.21	95.6871	1,866.21	94.5882	1,866.21	93.9545	1,866.21	94.0093	1,866.21	92.7898	1,866.21	92.2703	1,866.21	91.116	1,866.21	90.9894	1,866.21	90.2629	1,866.21	89.0077	1,866.21	88.2411	1,866.21	86.4574	1,866.21	86.0803	1,866.21	86.7531	1,866.21	85.4658	1,866.21	88.7389	1,866.21	82.161	1,866.21	88.0446	1,866.21	87.4655	1,866.21	83.9183	1,866.21	85.6927	1,866.21	78.5644	1,866.21	81.1061	1,866.21	82.3439	1,866.21	68.8287	1,866.21	81.9769
1,932.13	98.8366	1,932.13	98.6034	1,932.13	98.9179	1,932.13	97.8189	1,932.13	98.6362	1,932.13	97.1804	1,932.13	98.0782	1,932.13	95.8126	1,932.13	97.4342	1,932.13	95.2229	1,932.13	96.245	1,932.13	93.6152	1,932.13	94.6908	1,932.13	93.2378	1,932.13	93.5323	1,932.13	92.0389	1,932.13	91.63	1,932.13	89.0674	1,932.13	89.7056	1,932.13	87.54	1,932.13	87.6809	1,932.13	86.5652	1,932.13	87.2924	1,932.13	86.1684	1,932.13	85.8426	1,932.13	87.171	1,932.13	86.3131	1,932.13	86.1069	1,932.13	86.7066	1,932.13	82.5098	1,932.13	85.6631	1,932.13	78.459	1,932.13	82.457	1,932.13	83.9677	1,932.13	75.5608	1,932.13	80.5489
1,999.51	99.8321	1,999.51	99.9693	1,999.51	100.058	1,999.51	99.1044	1,999.51	100.07	1,999.51	98.4601	1,999.51	99.3483	1,999.51	97.1725	1,999.51	98.0849	1,999.51	95.1577	1,999.51	96.9207	1,999.51	92.7799	1,999.51	95.6473	1,999.51	92.9211	1,999.51	93.1438	1,999.51	88.9857	1,999.51	92.0131	1,999.51	87.934	1,999.51	92.5116	1,999.51	87.636	1,999.51	90.6954	1,999.51	87.141	1,999.51	87.7703	1,999.51	83.5679	1,999.51	88.4967	1,999.51	85.4593	1,999.51	88.2898	1,999.51	85.6218	1,999.51	87.5836	1,999.51	83.136	1,999.51	88.2367	1,999.51	77.8302	1,999.51	78.8612	1,999.51	81.6569	1,999.51	78.3874	1,999.51	83.4247
2,069.82	99.8007	2,069.82	99.5369	2,069.82	99.9056	2,069.82	99.5662	2,069.82	99.6303	2,069.82	98.1512	2,069.82	98.9763	2,069.82	96.9788	2,069.82	98.6483	2,069.82	95.2279	2,069.82	96.3979	2,069.82	92.4162	2,069.82	94.3476	2,069.82	91.6858	2,069.82	93.6313	2,069.82	92.2565	2,069.82	91.9413	2,069.82	89.2712	2,069.82	91.8829	2,069.82	87.8654	2,069.82	89.0139	2,069.82	87.2452	2,069.82	89.1212	2,069.82	84.4307	2,069.82	86.1601	2,069.82	84.0407	2,069.82	88.0561	2,069.82	83.5722	2,069.82	88.3103	2,069.82	84.7271	2,069.82	86.7797	2,069.82	60.5249	2,069.82	80.4727	2,069.82	82.144	2,069.82	75.1736	2,069.82	82.6209
2,143.07	98.7046	2,143.07	97.9125	2,143.07	97.3891	2,143.07	97.4137	2,143.07	97.2285	2,143.07	96.6378	2,143.07	96.6086	2,143.07	96.7494	2,143.07	96.1363	2,143.07	96.0527	2,143.07	94.9779	2,143.07	93.4745	2,143.07	94.2613	2,143.07	90.6817	2,143.07	92.1908	2,143.07	89.0826	2,143.07	89.6948	2,143.07	89.3348	2,143.07	88.0312	2,143.07	87.0175	2,143.07	89.7969	2,143.07	87.1749	2,143.07	83.4446	2,143.07	86.1056	2,143.07	80.2544	2,143.07	83.5602	2,143.07	86.3326	2,143.07	84.649	2,143.07	83.2247	2,143.07	81.0034	2,143.07	86.3223	2,143.07	81.5011	2,143.07	83.0577	2,143.07	74.0251	2,143.07	74.2017	2,143.07	78.6477
2,219.24	96.6162	2,219.24	96.3594	2,219.24	95.5517	2,219.24	96.3066	2,219.24	95.6671	2,219.24	95.3548	2,219.24	93.4794	2,219.24	95.0265	2,219.24	94.2826	2,219.24	94.4602	2,219.24	93.8169	2,219.24	94.2529	2,219.24	92.074	2,219.24	92.5847	2,219.24	91.3378	2,219.24	90.2512	2,219.24	89.1459	2,219.24	87.4783	2,219.24	87.7654	2,219.24	87.3336	2,219.24	84.1825	2,219.24	82.3239	2,219.24	85.7359	2,219.24	83.2207	2,219.24	85.4235	2,219.24	86.7069	2,219.24	80.3216	2,219.24	85.9481	2,219.24	85.4375	2,219.24	86.8296	2,219.24	78.6672	2,219.24	80.4572	2,219.24	80.9442	2,219.24	79.4695	2,219.24	71.2809	2,219.24	77.0081
2,296.88	98.3441	2,296.88	99.0391	2,296.88	99.0223	2,296.88	97.8707	2,296.88	98.1639	2,296.88	97.3029	2,296.88	97.6288	2,296.88	96.0852	2,296.88	97.4499	2,296.88	95.7454	2,296.88	95.0851	2,296.88	95.4313	2,296.88	92.4152	2,296.88	92.7431	2,296.88	91.0833	2,296.88	90.6466	2,296.88	90.5122	2,296.88	90.1295	2,296.88	89.5718	2,296.88	86.5359	2,296.88	88.0806	2,296.88	88.8463	2,296.88	85.0767	2,296.88	86.3201	2,296.88	83.953	2,296.88	83.4644	2,296.88	83.925	2,296.88	85.7338	2,296.88	78.9627	2,296.88	84.8913	2,296.88	87.3831	2,296.88	82.1491	2,296.88	78.9316	2,296.88	80.1634	2,296.88	83.0901	2,296.88	81.276
2,378.91	101.385	2,378.91	100.82	2,378.91	100.718	2,378.91	99.932	2,378.91	100.499	2,378.91	99.0616	2,378.91	100.464	2,378.91	96.935	2,378.91	99.4569	2,378.91	95.824	2,378.91	97.8484	2,378.91	95.4866	2,378.91	96.6631	2,378.91	93.961	2,378.91	96.1416	2,378.91	90.6084	2,378.91	93.3056	2,378.91	88.0411	2,378.91	91.7259	2,378.91	87.1001	2,378.91	91.1004	2,378.91	85.1863	2,378.91	87.9085	2,378.91	86.1165	2,378.91	88.3109	2,378.91	81.4769	2,378.91	85.408	2,378.91	82.0536	2,378.91	89.6684	2,378.91	85.8168	2,378.91	89.3311	2,378.91	82.4868	2,378.91	85.4467	2,378.91	85.2729	2,378.91	76.5453	2,378.91	73.9732
2,462.4	102.33	2,462.4	102.014	2,462.4	102.06	2,462.4	101.39	2,462.4	101.782	2,462.4	100.728	2,462.4	101.04	2,462.4	99.3216	2,462.4	100.153	2,462.4	97.6009	2,462.4	98.9291	2,462.4	96.2033	2,462.4	97.5164	2,462.4	94.9159	2,462.4	96.1194	2,462.4	91.759	2,462.4	93.9524	2,462.4	91.1064	2,462.4	91.9486	2,462.4	89.6501	2,462.4	90.8119	2,462.4	87.801	2,462.4	88.4636	2,462.4	86.4075	2,462.4	86.8978	2,462.4	84.8518	2,462.4	86.9869	2,462.4	87.5875	2,462.4	86.7076	2,462.4	87.7032	2,462.4	88.4539	2,462.4	83.087	2,462.4	86.1795	2,462.4	80.426	2,462.4	79.5993	2,462.4	83.9496
2,548.83	101.667	2,548.83	101.414	2,548.83	101.454	2,548.83	101.267	2,548.83	100.869	2,548.83	100.677	2,548.83	100.372	2,548.83	99.5637	2,548.83	99.2146	2,548.83	98.0905	2,548.83	98.0798	2,548.83	95.977	2,548.83	96.6765	2,548.83	94.3429	2,548.83	95.0312	2,548.83	93.1088	2,548.83	93.3156	2,548.83	91.9656	2,548.83	90.3316	2,548.83	90.8259	2,548.83	90.1859	2,548.83	89.241	2,548.83	87.3984	2,548.83	87.2836	2,548.83	85.1186	2,548.83	86.9313	2,548.83	85.2384	2,548.83	87.4111	2,548.83	83.8789	2,548.83	88.2342	2,548.83	86.471	2,548.83	84.5673	2,548.83	85.765	2,548.83	80.0975	2,548.83	79.2815	2,548.83	83.1286
2,639.65	100.515	2,639.65	100.227	2,639.65	100.532	2,639.65	100.266	2,639.65	99.8515	2,639.65	99.6504	2,639.65	99.5683	2,639.65	99.0345	2,639.65	98.6337	2,639.65	98.0493	2,639.65	97.2496	2,639.65	96.4058	2,639.65	95.6884	2,639.65	94.474	2,639.65	94.4369	2,639.65	93.91	2,639.65	93.1666	2,639.65	91.3908	2,639.65	91.3629	2,639.65	89.8892	2,639.65	89.432	2,639.65	88.7929	2,639.65	88.0167	2,639.65	86.7709	2,639.65	87.2112	2,639.65	85.4675	2,639.65	85.3898	2,639.65	85.669	2,639.65	83.0401	2,639.65	86.351	2,639.65	85.7933	2,639.65	81.6943	2,639.65	85.6004	2,639.65	81.8863	2,639.65	78.6061	2,639.65	80.5971
2,731.93	100.333	2,731.93	100.616	2,731.93	100.791	2,731.93	99.6805	2,731.93	100.351	2,731.93	98.9912	2,731.93	99.6136	2,731.93	98.2551	2,731.93	98.8369	2,731.93	97.6789	2,731.93	97.5779	2,731.93	95.8632	2,731.93	95.8383	2,731.93	94.6566	2,731.93	94.9566	2,731.93	94.1388	2,731.93	93.938	2,731.93	91.5086	2,731.93	90.9659	2,731.93	90.0572	2,731.93	89.0188	2,731.93	85.8873	2,731.93	88.9209	2,731.93	87.7484	2,731.93	87.1451	2,731.93	85.8006	2,731.93	86.1441	2,731.93	83.1043	2,731.93	85.9158	2,731.93	87.6778	2,731.93	85.3938	2,731.93	85.0383	2,731.93	86.5456	2,731.93	81.0744	2,731.93	81.439	2,731.93	80.1112
2,828.61	101.539	2,828.61	101.405	2,828.61	101.034	2,828.61	100.542	2,828.61	101.185	2,828.61	100.095	2,828.61	100.243	2,828.61	98.8871	2,828.61	99.2648	2,828.61	97.1276	2,828.61	98.0886	2,828.61	96.4723	2,828.61	97.2501	2,828.61	95.6939	2,828.61	95.7746	2,828.61	93.4964	2,828.61	93.8269	2,828.61	91.6169	2,828.61	90.7501	2,828.61	89.1185	2,828.61	89.7159	2,828.61	86.3183	2,828.61	89.8135	2,828.61	88.6879	2,828.61	87.289	2,828.61	87.5425	2,828.61	88.261	2,828.61	84.5605	2,828.61	85.9661	2,828.61	86.5638	2,828.61	85.8939	2,828.61	84.6076	2,828.61	87.363	2,828.61	80.1078	2,828.61	79.6678	2,828.61	75.4866
2,928.22	101.798	2,928.22	101.59	2,928.22	101.6	2,928.22	101.069	2,928.22	101.394	2,928.22	100.532	2,928.22	100.647	2,928.22	99.3412	2,928.22	99.925	2,928.22	97.733	2,928.22	99.091	2,928.22	96.6387	2,928.22	97.3621	2,928.22	95.2888	2,928.22	95.9504	2,928.22	92.2224	2,928.22	94.8131	2,928.22	92.3637	2,928.22	93.4313	2,928.22	91.0453	2,928.22	91.1758	2,928.22	88.5807	2,928.22	88.2041	2,928.22	87.6104	2,928.22	84.5439	2,928.22	89.724	2,928.22	88.1525	2,928.22	85.8793	2,928.22	85.9719	2,928.22	86.7923	2,928.22	85.9995	2,928.22	86.6388	2,928.22	86.3117	2,928.22	83.5874	2,928.22	82.1049	2,928.22	82.1248
3,030.76	101.64	3,030.76	101.463	3,030.76	101.271	3,030.76	101.347	3,030.76	101.087	3,030.76	100.914	3,030.76	100.539	3,030.76	100.082	3,030.76	99.7236	3,030.76	98.4102	3,030.76	98.8622	3,030.76	97.2652	3,030.76	97.9859	3,030.76	94.501	3,030.76	95.6827	3,030.76	93.0773	3,030.76	94.324	3,030.76	92.2331	3,030.76	92.3113	3,030.76	90.7796	3,030.76	91.0404	3,030.76	89.0159	3,030.76	89.1856	3,030.76	85.9273	3,030.76	86.6585	3,030.76	87.672	3,030.76	86.6142	3,030.76	86.0317	3,030.76	87.5716	3,030.76	86.5514	3,030.76	86.0457	3,030.76	84.497	3,030.76	86.3391	3,030.76	71.1217	3,030.76	82.8274	3,030.76	78.4176
3,137.7	101.218	3,137.7	100.906	3,137.7	101.518	3,137.7	100.807	3,137.7	100.726	3,137.7	100.473	3,137.7	100.599	3,137.7	99.7822	3,137.7	99.7261	3,137.7	98.8951	3,137.7	98.9576	3,137.7	97.5717	3,137.7	97.4788	3,137.7	95.2694	3,137.7	95.9371	3,137.7	94.2578	3,137.7	94.0407	3,137.7	92.4065	3,137.7	92.1112	3,137.7	91.0363	3,137.7	90.4809	3,137.7	89.6511	3,137.7	90.2748	3,137.7	86.4767	3,137.7	89.0076	3,137.7	87.7805	3,137.7	85.2153	3,137.7	87.1405	3,137.7	87.2853	3,137.7	86.4292	3,137.7	84.5706	3,137.7	83.4017	3,137.7	86.9215	3,137.7	81.623	3,137.7	82.2717	3,137.7	81.5819
3,249.02	100.746	3,249.02	100.877	3,249.02	100.908	3,249.02	100.644	3,249.02	100.585	3,249.02	99.8077	3,249.02	100.139	3,249.02	99.3694	3,249.02	99.3487	3,249.02	98.7199	3,249.02	98.6902	3,249.02	97.6975	3,249.02	97.6889	3,249.02	95.6076	3,249.02	96.8179	3,249.02	94.1162	3,249.02	94.5967	3,249.02	92.2262	3,249.02	93.0329	3,249.02	90.0021	3,249.02	90.8848	3,249.02	89.0987	3,249.02	89.3863	3,249.02	86.3123	3,249.02	88.3097	3,249.02	88.0198	3,249.02	87.0709	3,249.02	86.7981	3,249.02	87.9208	3,249.02	86.8724	3,249.02	84.4952	3,249.02	84.7016	3,249.02	86.4156	3,249.02	83.6118	3,249.02	84.033	3,249.02	84.8515
3,363.28	101.647	3,363.28	101.093	3,363.28	102.243	3,363.28	100.645	3,363.28	101.198	3,363.28	99.692	3,363.28	100.393	3,363.28	98.1301	3,363.28	99.6354	3,363.28	97.7259	3,363.28	98.6261	3,363.28	96.7891	3,363.28	97.1919	3,363.28	95.5994	3,363.28	96.0698	3,363.28	93.5059	3,363.28	94.0207	3,363.28	89.8761	3,363.28	92.9888	3,363.28	88.1546	3,363.28	90.3926	3,363.28	88.3587	3,363.28	88.4904	3,363.28	85.8946	3,363.28	86.2647	3,363.28	87.3487	3,363.28	86.6795	3,363.28	86.297	3,363.28	88.7967	3,363.28	86.402	3,363.28	85.3411	3,363.28	86.0289	3,363.28	86.9345	3,363.28	81.4088	3,363.28	85.196	3,363.28	82.9468
3,481.93	101.666	3,481.93	101.934	3,481.93	100.985	3,481.93	101.257	3,481.93	101.554	3,481.93	100.451	3,481.93	100.511	3,481.93	100.069	3,481.93	99.7663	3,481.93	98.8701	3,481.93	98.066	3,481.93	97.6317	3,481.93	96.9429	3,481.93	96.3214	3,481.93	95.7011	3,481.93	94.3729	3,481.93	93.5145	3,481.93	91.8348	3,481.93	91.6813	3,481.93	88.7449	3,481.93	90.541	3,481.93	88.5737	3,481.93	89.2087	3,481.93	87.1184	3,481.93	87.5472	3,481.93	87.4047	3,481.93	84.4471	3,481.93	87.2878	3,481.93	87.4435	3,481.93	87.77	3,481.93	85.1117	3,481.93	87.3556	3,481.93	85.5315	3,481.93	82.095	3,481.93	81.293	3,481.93	81.7247
3,604.98	101.049	3,604.98	100.848	3,604.98	100.494	3,604.98	100.638	3,604.98	100.704	3,604.98	99.7482	3,604.98	99.989	3,604.98	99.5646	3,604.98	99.4335	3,604.98	97.8267	3,604.98	98.7203	3,604.98	96.8836	3,604.98	98.2557	3,604.98	96.3413	3,604.98	97.2329	3,604.98	94.5711	3,604.98	94.5058	3,604.98	92.2663	3,604.98	93.2412	3,604.98	89.0282	3,604.98	91.0878	3,604.98	88.2789	3,604.98	89.7752	3,604.98	86.2477	3,604.98	88.8221	3,604.98	87.326	3,604.98	86.4403	3,604.98	87.8488	3,604.98	88.0081	3,604.98	87.3306	3,604.98	87.3664	3,604.98	86.4011	3,604.98	87.0158	3,604.98	81.2555	3,604.98	82.8013	3,604.98	81.6168
3,732.42	101.181	3,732.42	101.295	3,732.42	101.019	3,732.42	101.026	3,732.42	100.837	3,732.42	100.862	3,732.42	100.53	3,732.42	100.79	3,732.42	99.5302	3,732.42	98.8862	3,732.42	98.9843	3,732.42	97.3247	3,732.42	98.3854	3,732.42	96.5217	3,732.42	96.8386	3,732.42	95.0994	3,732.42	95.4714	3,732.42	92.8968	3,732.42	93.3365	3,732.42	90.8107	3,732.42	91.0282	3,732.42	89.1306	3,732.42	89.3381	3,732.42	87.8309	3,732.42	86.6684	3,732.42	87.1155	3,732.42	85.0021	3,732.42	88.9955	3,732.42	87.1721	3,732.42	87.026	3,732.42	86.8348	3,732.42	86.7334	3,732.42	87.0032	3,732.42	82.5713	3,732.42	82.8577	3,732.42	82.2242
3,864.26	100.953	3,864.26	100.573	3,864.26	101.515	3,864.26	100.297	3,864.26	100.303	3,864.26	100.783	3,864.26	100.014	3,864.26	99.6978	3,864.26	100.072	3,864.26	99.1262	3,864.26	99.9447	3,864.26	97.739	3,864.26	98.6936	3,864.26	96.8264	3,864.26	96.717	3,864.26	95.2301	3,864.26	94.6503	3,864.26	92.3568	3,864.26	93.061	3,864.26	91.7755	3,864.26	90.5659	3,864.26	89.3716	3,864.26	89.5664	3,864.26	87.6617	3,864.26	88.0391	3,864.26	88.1705	3,864.26	83.9046	3,864.26	89.5783	3,864.26	86.4005	3,864.26	87.4409	3,864.26	86.4202	3,864.26	87.3014	3,864.26	85.8172	3,864.26	82.0573	3,864.26	83.2942	3,864.26	81.9552
4,000.49	101.557	4,000.49	100.713	4,000.49	101.763	4,000.49	101.188	4,000.49	101.175	4,000.49	101.168	4,000.49	101.443	4,000.49	99.7023	4,000.49	101.101	4,000.49	100.02	4,000.49	100.691	4,000.49	98.1113	4,000.49	99.1127	4,000.49	96.8101	4,000.49	97.1718	4,000.49	95.193	4,000.49	96.6685	4,000.49	92.7933	4,000.49	94.3835	4,000.49	90.332	4,000.49	91.9302	4,000.49	88.5959	4,000.49	90.4104	4,000.49	87.7041	4,000.49	88.4339	4,000.49	83.6995	4,000.49	84.9128	4,000.49	89.057	4,000.49	87.8858	4,000.49	88.6053	4,000.49	89.0905	4,000.49	87.7599	4,000.49	87.0294	4,000.49	79.7456	4,000.49	85.7314	4,000.49	81.5224
4,141.11	101.957	4,141.11	102.655	4,141.11	101.122	4,141.11	101.94	4,141.11	102.418	4,141.11	101.804	4,141.11	102.135	4,141.11	102.212	4,141.11	102.295	4,141.11	101.513	4,141.11	101.469	4,141.11	99.9175	4,141.11	99.5855	4,141.11	98.4105	4,141.11	97.4732	4,141.11	95.8009	4,141.11	96.4199	4,141.11	93.8833	4,141.11	93.7953	4,141.11	90.432	4,141.11	91.4654	4,141.11	90.5369	4,141.11	88.0654	4,141.11	87.5619	4,141.11	89.8308	4,141.11	85.7575	4,141.11	86.6104	4,141.11	89.4199	4,141.11	84.8229	4,141.11	87.6903	4,141.11	87.5787	4,141.11	88.2277	4,141.11	87.0887	4,141.11	81.0354	4,141.11	85.4538	4,141.11	79.8997
4,287.6	102.661	4,287.6	103.153	4,287.6	102.766	4,287.6	102.425	4,287.6	102.842	4,287.6	102.44	4,287.6	102.876	4,287.6	102.759	4,287.6	102.107	4,287.6	101.196	4,287.6	101.261	4,287.6	99.4146	4,287.6	99.9102	4,287.6	97.7434	4,287.6	98.6307	4,287.6	95.1591	4,287.6	97.2593	4,287.6	94.4793	4,287.6	94.3144	4,287.6	92.9481	4,287.6	93.2898	4,287.6	89.7568	4,287.6	88.3024	4,287.6	88.1233	4,287.6	88.3463	4,287.6	85.6797	4,287.6	87.8207	4,287.6	87.8278	4,287.6	85.4035	4,287.6	87.0899	4,287.6	87.1975	4,287.6	87.4615	4,287.6	87.9841	4,287.6	79.6536	4,287.6	84.6175	4,287.6	80.7292
4,438.48	103.762	4,438.48	103.145	4,438.48	103.898	4,438.48	104.349	4,438.48	102.671	4,438.48	103.407	4,438.48	102.603	4,438.48	102.443	4,438.48	101.731	4,438.48	101.298	4,438.48	100.048	4,438.48	100.137	4,438.48	99.989	4,438.48	97.89	4,438.48	99.2401	4,438.48	95.5457	4,438.48	95.4338	4,438.48	92.8533	4,438.48	94.2553	4,438.48	91.4041	4,438.48	91.7195	4,438.48	87.8038	4,438.48	89.4471	4,438.48	87.1642	4,438.48	86.6043	4,438.48	87.1986	4,438.48	87.2556	4,438.48	86.8339	4,438.48	86.9112	4,438.48	86.4601	4,438.48	88.0078	4,438.48	86.439	4,438.48	87.9446	4,438.48	80.3413	4,438.48	86.4965	4,438.48	82.5705
4,595.21	102.415	4,595.21	102.695	4,595.21	102.055	4,595.21	102.764	4,595.21	102.623	4,595.21	102.242	4,595.21	101.659	4,595.21	100.808	4,595.21	101.985	4,595.21	99.412	4,595.21	101.688	4,595.21	99.2369	4,595.21	99.2831	4,595.21	98.0492	4,595.21	98.776	4,595.21	94.9375	4,595.21	96.8512	4,595.21	92.9543	4,595.21	93.4633	4,595.21	88.4825	4,595.21	91.0312	4,595.21	88.2002	4,595.21	87.6182	4,595.21	88.2785	4,595.21	88.2896	4,595.21	85.8286	4,595.21	86.1229	4,595.21	85.9056	4,595.21	85.0733	4,595.21	85.9499	4,595.21	87.2288	4,595.21	85.8336	4,595.21	83.9738	4,595.21	74.8366	4,595.21	85.2962	4,595.21	82.1283
4,756.35	103.195	4,756.35	103.6	4,756.35	103.775	4,756.35	102.321	4,756.35	103.925	4,756.35	102.711	4,756.35	103.573	4,756.35	101.527	4,756.35	102.975	4,756.35	100.174	4,756.35	101.843	4,756.35	98.01	4,756.35	100.576	4,756.35	95.932	4,756.35	98.3344	4,756.35	92.7967	4,756.35	95.4685	4,756.35	92.8572	4,756.35	94.5701	4,756.35	89.7899	4,756.35	91.7231	4,756.35	87.2422	4,756.35	90.5183	4,756.35	87.2024	4,756.35	86.5757	4,756.35	88.443	4,756.35	84.9447	4,756.35	85.937	4,756.35	85.8775	4,756.35	85.9057	4,756.35	87.6292	4,756.35	85.4002	4,756.35	86.5385	4,756.35	74.9953	4,756.35	83.0769	4,756.35	74.6211
4,924.8	103.861	4,924.8	103.656	4,924.8	104.239	4,924.8	104.732	4,924.8	103.348	4,924.8	103.493	4,924.8	103.703	4,924.8	103.48	4,924.8	101.886	4,924.8	102.038	4,924.8	100.305	4,924.8	100.355	4,924.8	99.2178	4,924.8	96.552	4,924.8	98.1069	4,924.8	96.0631	4,924.8	94.6714	4,924.8	92.8072	4,924.8	94.1954	4,924.8	93.7299	4,924.8	91.7572	4,924.8	88.9538	4,924.8	88.6684	4,924.8	86.2827	4,924.8	86.243	4,924.8	83.7832	4,924.8	87.4685	4,924.8	88.4205	4,924.8	85.9673	4,924.8	87.5945	4,924.8	86.5558	4,924.8	87.9308	4,924.8	85.7516	4,924.8	77.6334	4,924.8	83.5391	4,924.8	71.3982
5,097.66	103.698	5,097.66	103.676	5,097.66	103.12	5,097.66	103.72	5,097.66	103.795	5,097.66	102.978	5,097.66	102.683	5,097.66	101.74	5,097.66	102.338	5,097.66	100.048	5,097.66	100.841	5,097.66	98.4647	5,097.66	99.0865	5,097.66	96.159	5,097.66	97.0008	5,097.66	95.9586	5,097.66	96.4038	5,097.66	91.0353	5,097.66	93.396	5,097.66	92.4193	5,097.66	92.3694	5,097.66	89.0321	5,097.66	89.6554	5,097.66	86.4698	5,097.66	87.5709	5,097.66	84.2925	5,097.66	85.3242	5,097.66	85.2651	5,097.66	83.0036	5,097.66	86.832	5,097.66	86.679	5,097.66	87.5557	5,097.66	83.9025	5,097.66	66.5223	5,097.66	83.8868	5,097.66	62.7898
5,277.83	103.455	5,277.83	103.638	5,277.83	102.993	5,277.83	102.903	5,277.83	103.305	5,277.83	102.852	5,277.83	102.68	5,277.83	100.922	5,277.83	101.956	5,277.83	100.414	5,277.83	100.896	5,277.83	98.9252	5,277.83	98.9731	5,277.83	98.1999	5,277.83	97.2051	5,277.83	94.7421	5,277.83	95.7582	5,277.83	93.4284	5,277.83	92.4195	5,277.83	86.3035	5,277.83	90.9583	5,277.83	87.3657	5,277.83	89.8015	5,277.83	84.9624	5,277.83	85.1457	5,277.83	85.916	5,277.83	83.754	5,277.83	83.5906	5,277.83	82.2967	5,277.83	87.1537	5,277.83	85.9591	5,277.83	83.6573	5,277.83	85.1359	5,277.83	79.0011	5,277.83	85.4487	5,277.83	68.6533
5,463.87	103.616	5,463.87	103.34	5,463.87	104.331	5,463.87	102.551	5,463.87	103.219	5,463.87	101.192	5,463.87	103.368	5,463.87	100.712	5,463.87	101.344	5,463.87	99.209	5,463.87	99.124	5,463.87	98.0602	5,463.87	98.9012	5,463.87	97.7649	5,463.87	97.6087	5,463.87	94.8698	5,463.87	92.4996	5,463.87	93.5506	5,463.87	92.8657	5,463.87	91.4875	5,463.87	89.7805	5,463.87	88.8203	5,463.87	87.5616	5,463.87	83.7617	5,463.87	86.2316	5,463.87	83.8153	5,463.87	83.1894	5,463.87	86.4629	5,463.87	82.611	5,463.87	86.2019	5,463.87	86.1442	5,463.87	83.4584	5,463.87	85.5821	5,463.87	78.4916	5,463.87	85.7438	5,463.87	69.463
5,657.23	103.659	5,657.23	103.588	5,657.23	103.2	5,657.23	103.147	5,657.23	103.417	5,657.23	102.171	5,657.23	101.456	5,657.23	101.166	5,657.23	100.803	5,657.23	99.2787	5,657.23	99.2184	5,657.23	97.7959	5,657.23	97.33	5,657.23	93.8068	5,657.23	94.1317	5,657.23	93.5235	5,657.23	95.2289	5,657.23	89.4037	5,657.23	92.199	5,657.23	89.3649	5,657.23	89.7022	5,657.23	83.4218	5,657.23	87.6416	5,657.23	83.9299	5,657.23	84.829	5,657.23	81.7244	5,657.23	85.018	5,657.23	78.7	5,657.23	80.576	5,657.23	84.58	5,657.23	83.7225	5,657.23	81.9856	5,657.23	84.6853	5,657.23	63.1015	5,657.23	80.3587	5,657.23	62.4562
5,856.45	102.788	5,856.45	102.297	5,856.45	103.129	5,856.45	101.239	5,856.45	102.708	5,856.45	101.007	5,856.45	101.827	5,856.45	99.3443	5,856.45	100.415	5,856.45	98.3557	5,856.45	99.1146	5,856.45	96.6572	5,856.45	97.1321	5,856.45	96.0882	5,856.45	96.212	5,856.45	93.7109	5,856.45	93.9827	5,856.45	91.0078	5,856.45	90.6498	5,856.45	87.766	5,856.45	88.1089	5,856.45	85.0835	5,856.45	86.1885	5,856.45	83.101	5,856.45	82.2983	5,856.45	82.953	5,856.45	81.9968	5,856.45	83.1717	5,856.45	81.9698	5,856.45	86.2673	5,856.45	81.0826	5,856.45	81.1954	5,856.45	81.6248	5,856.45	77.9113	5,856.45	82.9762	5,856.45	71.8079
6,062.99	103.695	6,062.99	103.509	6,062.99	103.731	6,062.99	103.223	6,062.99	102.545	6,062.99	102.129	6,062.99	102.331	6,062.99	100.591	6,062.99	100.49	6,062.99	99.0557	6,062.99	97.9282	6,062.99	96.8417	6,062.99	97.1621	6,062.99	96.6223	6,062.99	95.0671	6,062.99	90.6547	6,062.99	93.1435	6,062.99	89.8978	6,062.99	91.0404	6,062.99	84.2396	6,062.99	89.3017	6,062.99	81.4165	6,062.99	85.9133	6,062.99	84.3173	6,062.99	84.2405	6,062.99	78.7678	6,062.99	80.8198	6,062.99	82.0638	6,062.99	82.9957	6,062.99	84.0612	6,062.99	83.2556	6,062.99	83.5721	6,062.99	83.8163	6,062.99	74.8555	6,062.99	83.0466	6,062.99	68.2388
6,276.86	103.402	6,276.86	102.904	6,276.86	102.886	6,276.86	102.28	6,276.86	102.81	6,276.86	101.207	6,276.86	101.038	6,276.86	100.141	6,276.86	101.117	6,276.86	97.7886	6,276.86	99.5176	6,276.86	95.6858	6,276.86	96.1988	6,276.86	91.9071	6,276.86	92.7785	6,276.86	91.5019	6,276.86	93.8791	6,276.86	88.7478	6,276.86	90.2274	6,276.86	88.9451	6,276.86	88.0061	6,276.86	87.4539	6,276.86	85.2465	6,276.86	81.9509	6,276.86	82.3499	6,276.86	82.5912	6,276.86	80.7567	6,276.86	83.0395	6,276.86	81.6422	6,276.86	83.8496	6,276.86	81.8158	6,276.86	83.5974	6,276.86	83.694	6,276.86	69.2067	6,276.86	79.8334	6,276.86	72.9354
6,498.05	103.69	6,498.05	103.159	6,498.05	103.669	6,498.05	102.586	6,498.05	102.548	6,498.05	101.933	6,498.05	102.141	6,498.05	100.44	6,498.05	100.359	6,498.05	99.3673	6,498.05	99.4447	6,498.05	97.0822	6,498.05	98.1604	6,498.05	94.0461	6,498.05	96.3621	6,498.05	92.4975	6,498.05	94.3007	6,498.05	90.3642	6,498.05	91.123	6,498.05	88.0007	6,498.05	90.426	6,498.05	88.2844	6,498.05	86.4954	6,498.05	84.7904	6,498.05	82.048	6,498.05	85.3792	6,498.05	79.637	6,498.05	83.7305	6,498.05	81.6499	6,498.05	82.21	6,498.05	83.0644	6,498.05	81.2456	6,498.05	83.4492	6,498.05	71.6012	6,498.05	81.0087	6,498.05	73.7731
6,726.56	103.735	6,726.56	103.099	6,726.56	103.123	6,726.56	102.511	6,726.56	102.438	6,726.56	101.527	6,726.56	101.749	6,726.56	100.749	6,726.56	100.664	6,726.56	99.5895	6,726.56	99.041	6,726.56	96.8724	6,726.56	97.6624	6,726.56	95.2039	6,726.56	95.8157	6,726.56	94.4116	6,726.56	93.589	6,726.56	92.0493	6,726.56	91.0095	6,726.56	89.2403	6,726.56	89.4716	6,726.56	87.8156	6,726.56	85.4156	6,726.56	81.7004	6,726.56	83.8665	6,726.56	85.4408	6,726.56	83.5206	6,726.56	82.6399	6,726.56	82.9405	6,726.56	84.4292	6,726.56	80.6727	6,726.56	83.4325	6,726.56	84.5212	6,726.56	67.0929	6,726.56	80.7225	6,726.56	75.295
6,963.87	103.605	6,963.87	102.991	6,963.87	103.378	6,963.87	102.184	6,963.87	102.93	6,963.87	101.121	6,963.87	101.548	6,963.87	100.27	6,963.87	101.002	6,963.87	97.1971	6,963.87	100.345	6,963.87	96.9273	6,963.87	97.9699	6,963.87	94.2219	6,963.87	95.8988	6,963.87	92.4943	6,963.87	93.5253	6,963.87	89.1281	6,963.87	91.2346	6,963.87	86.9044	6,963.87	88.912	6,963.87	83.0598	6,963.87	86.1848	6,963.87	82.9654	6,963.87	83.7954	6,963.87	82.7839	6,963.87	82.6031	6,963.87	82.7072	6,963.87	81.2468	6,963.87	83.6559	6,963.87	83.312	6,963.87	81.1548	6,963.87	83.6316	6,963.87	68.4235	6,963.87	80.3632	6,963.87	75.0548
7,209.96	103.696	7,209.96	103.312	7,209.96	104.115	7,209.96	102.158	7,209.96	103.041	7,209.96	101.37	7,209.96	102.485	7,209.96	100.168	7,209.96	101.185	7,209.96	98.6999	7,209.96	100.089	7,209.96	96.5185	7,209.96	98.9106	7,209.96	94.9073	7,209.96	97.7309	7,209.96	93.0769	7,209.96	93.5721	7,209.96	90.9286	7,209.96	92.1323	7,209.96	86.3777	7,209.96	90.2068	7,209.96	85.9575	7,209.96	87.7454	7,209.96	82.1037	7,209.96	83.3694	7,209.96	79.4658	7,209.96	85.0968	7,209.96	78.7384	7,209.96	82.7839	7,209.96	80.508	7,209.96	79.6025	7,209.96	79.9961	7,209.96	84.3062	7,209.96	72.795	7,209.96	79.0634	7,209.96	76.3174
7,464.84	103.445	7,464.84	102.901	7,464.84	103.41	7,464.84	101.888	7,464.84	102.389	7,464.84	100.845	7,464.84	101.331	7,464.84	99.9828	7,464.84	100.408	7,464.84	98.2589	7,464.84	98.7401	7,464.84	95.4831	7,464.84	97.43	7,464.84	93.9919	7,464.84	94.6344	7,464.84	92.0279	7,464.84	92.8907	7,464.84	90.3022	7,464.84	90.718	7,464.84	84.8786	7,464.84	88.6708	7,464.84	81.9378	7,464.84	85.2417	7,464.84	77.832	7,464.84	84.735	7,464.84	79.7137	7,464.84	81.3655	7,464.84	78.7429	7,464.84	78.2833	7,464.84	82.1151	7,464.84	81.0359	7,464.84	79.4541	7,464.84	83.3701	7,464.84	67.7653	7,464.84	79.0299	7,464.84	74.199
7,727.05	104.066	7,727.05	103.129	7,727.05	104.063	7,727.05	101.445	7,727.05	102.328	7,727.05	100.764	7,727.05	101.216	7,727.05	98.5379	7,727.05	100.515	7,727.05	96.7386	7,727.05	99.3363	7,727.05	94.9321	7,727.05	97.3157	7,727.05	93.6073	7,727.05	95.7549	7,727.05	90.6927	7,727.05	92.7602	7,727.05	88.3272	7,727.05	91.2732	7,727.05	83.326	7,727.05	88.5664	7,727.05	81.7379	7,727.05	86.8039	7,727.05	77.0146	7,727.05	85.2085	7,727.05	80.0454	7,727.05	78.1167	7,727.05	78.7545	7,727.05	80.0418	7,727.05	80.5036	7,727.05	81.4622	7,727.05	76.8652	7,727.05	83.4227	7,727.05	60.1239	7,727.05	77.7967	7,727.05	70.7323
7,999.51	103.093	7,999.51	101.906	7,999.51	102.796	7,999.51	100.468	7,999.51	102.091	7,999.51	99.9171	7,999.51	100.782	7,999.51	98.511	7,999.51	99.363	7,999.51	97.0924	7,999.51	97.7496	7,999.51	93.9734	7,999.51	95.8556	7,999.51	92.768	7,999.51	93.8587	7,999.51	90.5345	7,999.51	93.3083	7,999.51	86.9598	7,999.51	90.1067	7,999.51	85.7475	7,999.51	86.7735	7,999.51	80.0546	7,999.51	85.1316	7,999.51	80.2929	7,999.51	81.8467	7,999.51	78.0839	7,999.51	78.5303	7,999.51	79.0091	7,999.51	78.3498	7,999.51	82.6118	7,999.51	81.7959	7,999.51	78.3518	7,999.51	82.9475	7,999.51	61.765	7,999.51	78.4127	7,999.51	68.4661
8,282.23	102.695	8,282.23	102.042	8,282.23	102.722	8,282.23	100.473	8,282.23	101.623	8,282.23	99.4563	8,282.23	100.319	8,282.23	97.985	8,282.23	99.7158	8,282.23	95.8733	8,282.23	97.8525	8,282.23	94.0902	8,282.23	95.8956	8,282.23	91.7941	8,282.23	94.4102	8,282.23	90.1052	8,282.23	91.8157	8,282.23	86.4522	8,282.23	90.135	8,282.23	86.2739	8,282.23	86.9657	8,282.23	80.105	8,282.23	85.9274	8,282.23	79.8299	8,282.23	83.533	8,282.23	76.7003	8,282.23	77.4914	8,282.23	76.9283	8,282.23	77.6609	8,282.23	81.7299	8,282.23	79.5537	8,282.23	78.3425	8,282.23	81.5017	8,282.23	63.0769	8,282.23	75.4486	8,282.23	71.5466
8,573.73	102.952	8,573.73	101.895	8,573.73	102.431	8,573.73	100.595	8,573.73	101.301	8,573.73	98.8879	8,573.73	99.6183	8,573.73	97.9588	8,573.73	98.3445	8,573.73	96.7138	8,573.73	96.5783	8,573.73	94.6652	8,573.73	95.5098	8,573.73	93.0865	8,573.73	93.6307	8,573.73	90.4358	8,573.73	92.071	8,573.73	87.7038	8,573.73	90.1043	8,573.73	86.0583	8,573.73	87.3628	8,573.73	81.7201	8,573.73	84.9935	8,573.73	82.0113	8,573.73	78.0322	8,573.73	76.8705	8,573.73	77.4505	8,573.73	77.3588	8,573.73	77.2111	8,573.73	81.0109	8,573.73	80.706	8,573.73	76.1235	8,573.73	82.7192	8,573.73	67.2927	8,573.73	72.9105	8,573.73	73.0041
8,876.95	102.901	8,876.95	102.093	8,876.95	102.915	8,876.95	100.61	8,876.95	101.704	8,876.95	99.4788	8,876.95	100.008	8,876.95	98.0913	8,876.95	98.9093	8,876.95	96.5983	8,876.95	97.8228	8,876.95	94.5087	8,876.95	95.8307	8,876.95	92.0831	8,876.95	93.544	8,876.95	89.1769	8,876.95	91.2348	8,876.95	87.718	8,876.95	89.3706	8,876.95	85.364	8,876.95	87.4678	8,876.95	81.6178	8,876.95	83.6261	8,876.95	80.1728	8,876.95	80.7951	8,876.95	76.0422	8,876.95	76.918	8,876.95	75.187	8,876.95	76.6162	8,876.95	79.6813	8,876.95	79.1833	8,876.95	76.2188	8,876.95	81.7833	8,876.95	63.375	8,876.95	69.9398	8,876.95	73.4058
9,188.96	102.918	9,188.96	102.378	9,188.96	102.745	9,188.96	100.926	9,188.96	101.718	9,188.96	99.4154	9,188.96	100.002	9,188.96	98.101	9,188.96	98.7395	9,188.96	96.616	9,188.96	97.1345	9,188.96	94.3905	9,188.96	94.9024	9,188.96	91.3339	9,188.96	91.7944	9,188.96	89.8911	9,188.96	90.6818	9,188.96	87.7089	9,188.96	88.1602	9,188.96	84.3741	9,188.96	86.9009	9,188.96	82.9086	9,188.96	82.7412	9,188.96	80.1502	9,188.96	79.959	9,188.96	75.2508	9,188.96	75.4354	9,188.96	76.443	9,188.96	73.5133	9,188.96	79.9879	9,188.96	78.186	9,188.96	76.9553	9,188.96	81.7985	9,188.96	64.0245	9,188.96	71.4879	9,188.96	73.1923
9,514.16	103.052	9,514.16	102.42	9,514.16	102.889	9,514.16	100.871	9,514.16	101.8	9,514.16	99.3586	9,514.16	99.9574	9,514.16	97.6347	9,514.16	98.2637	9,514.16	95.9162	9,514.16	96.6042	9,514.16	94.1307	9,514.16	94.8492	9,514.16	90.7369	9,514.16	92.6551	9,514.16	89.7572	9,514.16	91.0246	9,514.16	87.1033	9,514.16	88.4032	9,514.16	85.7833	9,514.16	86.4009	9,514.16	82.9117	9,514.16	82.6469	9,514.16	79.6408	9,514.16	80.4213	9,514.16	79.0053	9,514.16	78.8251	9,514.16	74.4129	9,514.16	76.2803	9,514.16	79.306	9,514.16	78.4651	9,514.16	78.182	9,514.16	80.9334	9,514.16	61.9904	9,514.16	71.3279	9,514.16	71.7817
9,849.61	102.779	9,849.61	102.181	9,849.61	102.439	9,849.61	100.542	9,849.61	101.584	9,849.61	97.6362	9,849.61	99.1296	9,849.61	96.761	9,849.61	97.2271	9,849.61	95.385	9,849.61	96.0549	9,849.61	93.5334	9,849.61	94.7028	9,849.61	91.1387	9,849.61	92.6494	9,849.61	90.1271	9,849.61	91.0913	9,849.61	87.3172	9,849.61	88.2872	9,849.61	83.8889	9,849.61	85.5346	9,849.61	81.3023	9,849.61	84.091	9,849.61	77.3226	9,849.61	80.4564	9,849.61	78.0102	9,849.61	75.8818	9,849.61	76.9291	9,849.61	73.0225	9,849.61	77.617	9,849.61	76.0031	9,849.61	76.3335	9,849.61	79.5671	9,849.61	62.1554	9,849.61	72.862	9,849.61	72.6193
10,196.8	102.338	10,196.8	101.571	10,196.8	102.221	10,196.8	99.5597	10,196.8	101.134	10,196.8	97.8535	10,196.8	99.0011	10,196.8	96.2937	10,196.8	97.1302	10,196.8	95.0261	10,196.8	96.2327	10,196.8	93.2136	10,196.8	94.7806	10,196.8	92.2558	10,196.8	92.6028	10,196.8	89.2997	10,196.8	90.6514	10,196.8	87.748	10,196.8	88.6515	10,196.8	84.1312	10,196.8	86.3851	10,196.8	82.5124	10,196.8	83.8191	10,196.8	78.3653	10,196.8	80.2701	10,196.8	76.7178	10,196.8	77.0757	10,196.8	76.712	10,196.8	75.0652	10,196.8	77.2823	10,196.8	72.7867	10,196.8	75.5816	10,196.8	77.4498	10,196.8	62.4559	10,196.8	69.0956	10,196.8	72.2505
10,555.7	102.082	10,555.7	101.63	10,555.7	101.985	10,555.7	99.7109	10,555.7	101.029	10,555.7	97.5067	10,555.7	98.928	10,555.7	95.8231	10,555.7	96.9045	10,555.7	95.0999	10,555.7	95.6953	10,555.7	93.221	10,555.7	94.3523	10,555.7	91.9948	10,555.7	91.8682	10,555.7	89.5838	10,555.7	91.3526	10,555.7	86.7189	10,555.7	88.4584	10,555.7	84.0333	10,555.7	86.9754	10,555.7	81.633	10,555.7	83.8817	10,555.7	77.9485	10,555.7	79.5209	10,555.7	75.5923	10,555.7	79.4306	10,555.7	76.1203	10,555.7	75.8369	10,555.7	78.2695	10,555.7	74.5816	10,555.7	74.1815	10,555.7	76.7637	10,555.7	65.126	10,555.7	70.4883	10,555.7	71.786
10,927.7	102.072	10,927.7	101.652	10,927.7	102.093	10,927.7	99.5811	10,927.7	100.86	10,927.7	97.0465	10,927.7	98.0579	10,927.7	95.7567	10,927.7	95.9939	10,927.7	95.0189	10,927.7	95.2029	10,927.7	93.6335	10,927.7	94.7632	10,927.7	90.2996	10,927.7	92.8815	10,927.7	89.7528	10,927.7	90.811	10,927.7	86.5028	10,927.7	88.5062	10,927.7	84.2204	10,927.7	86.2028	10,927.7	81.2194	10,927.7	82.6519	10,927.7	78.0406	10,927.7	80.1841	10,927.7	74.0584	10,927.7	78.9714	10,927.7	75.0348	10,927.7	75.5916	10,927.7	76.7301	10,927.7	75.339	10,927.7	73.1263	10,927.7	75.6492	10,927.7	63.6353	10,927.7	64.8483	10,927.7	68.9703
11,313	102.338	11,313	101.65	11,313	102.348	11,313	99.3445	11,313	100.654	11,313	97.1768	11,313	98.3816	11,313	96.1516	11,313	96.5155	11,313	94.9567	11,313	95.9875	11,313	93.5648	11,313	94.6184	11,313	91.0665	11,313	93.1156	11,313	89.2068	11,313	90.7037	11,313	86.5798	11,313	88.3802	11,313	82.9324	11,313	85.2359	11,313	81.1635	11,313	82.1433	11,313	78.081	11,313	78.9867	11,313	72.3992	11,313	77.5796	11,313	71.9244	11,313	74.1455	11,313	77.1131	11,313	73.2019	11,313	72.5143	11,313	75.5282	11,313	64.2522	11,313	63.2306	11,313	70.0038
11,712.9	102.189	11,712.9	101.535	11,712.9	101.937	11,712.9	99.7117	11,712.9	100.936	11,712.9	97.831	11,712.9	98.8977	11,712.9	96.3053	11,712.9	97.0102	11,712.9	94.4655	11,712.9	95.0757	11,712.9	93.6353	11,712.9	94.503	11,712.9	92.4555	11,712.9	93.4024	11,712.9	88.8074	11,712.9	90.9714	11,712.9	87.2439	11,712.9	88.3111	11,712.9	82.5856	11,712.9	85.5854	11,712.9	81.4253	11,712.9	83.2678	11,712.9	75.5075	11,712.9	79.3137	11,712.9	68.4811	11,712.9	77.9937	11,712.9	72.2669	11,712.9	72.3976	11,712.9	77.0957	11,712.9	70.7422	11,712.9	70.7995	11,712.9	73.4224	11,712.9	67.8174	11,712.9	58.5203	11,712.9	66.3328
12,126	102.474	12,126	101.503	12,126	102.257	12,126	100.277	12,126	101.272	12,126	97.8216	12,126	99.2402	12,126	96.1298	12,126	97.1315	12,126	95.1406	12,126	95.4765	12,126	93.1398	12,126	94.5305	12,126	91.5191	12,126	92.5045	12,126	88.2982	12,126	89.8787	12,126	84.8353	12,126	87.085	12,126	82.5075	12,126	83.7463	12,126	78.1613	12,126	81.7833	12,126	73.0029	12,126	77.8532	12,126	69.1581	12,126	75.3004	12,126	73.0677	12,126	70.2148	12,126	75.3934	12,126	72.3742	12,126	71.2704	12,126	75.2697	12,126	67.3271	12,126	53.683	12,126	66.3654
12,553.7	102.602	12,553.7	101.74	12,553.7	102.352	12,553.7	100.423	12,553.7	101.13	12,553.7	98.2767	12,553.7	99.9399	12,553.7	95.9921	12,553.7	97.7836	12,553.7	94.5604	12,553.7	95.9402	12,553.7	92.3347	12,553.7	94.1034	12,553.7	88.7092	12,553.7	91.3507	12,553.7	87.6334	12,553.7	88.4137	12,553.7	83.6076	12,553.7	86.3757	12,553.7	81.3099	12,553.7	84.0163	12,553.7	75.2003	12,553.7	80.1684	12,553.7	75.7079	12,553.7	75.8465	12,553.7	70.5161	12,553.7	76.2805	12,553.7	69.7481	12,553.7	71.6608	12,553.7	74.3738	12,553.7	71.2484	12,553.7	72.7184	12,553.7	72.047	12,553.7	69.6717	12,553.7	57.0073	12,553.7	64.8677
12,996.1	102.663	12,996.1	101.823	12,996.1	102.555	12,996.1	100.843	12,996.1	101.313	12,996.1	98.7857	12,996.1	99.7611	12,996.1	96.1061	12,996.1	97.6384	12,996.1	94.0595	12,996.1	95.7723	12,996.1	91.9626	12,996.1	93.9727	12,996.1	88.3753	12,996.1	91.6212	12,996.1	85.427	12,996.1	88.2192	12,996.1	83.0371	12,996.1	85.3384	12,996.1	79.8488	12,996.1	82.299	12,996.1	76.6697	12,996.1	78.9471	12,996.1	75.3649	12,996.1	75.689	12,996.1	65.8032	12,996.1	75.6879	12,996.1	69.1421	12,996.1	69.7455	12,996.1	72.0895	12,996.1	69.7157	12,996.1	69.7866	12,996.1	70.3577	12,996.1	65.4232	12,996.1	47.7743	12,996.1	65.3377
13,454.6	102.676	13,454.6	101.789	13,454.6	102.509	13,454.6	100.681	13,454.6	101.354	13,454.6	98.619	13,454.6	99.596	13,454.6	96.0422	13,454.6	97.5828	13,454.6	93.5396	13,454.6	94.9532	13,454.6	90.6311	13,454.6	93.0062	13,454.6	88.1607	13,454.6	89.7487	13,454.6	83.3533	13,454.6	87.2424	13,454.6	81.0293	13,454.6	83.813	13,454.6	77.7599	13,454.6	79.1057	13,454.6	75.946	13,454.6	78.6559	13,454.6	72.5092	13,454.6	74.0682	13,454.6	66.1736	13,454.6	70.2361	13,454.6	64.813	13,454.6	65.581	13,454.6	73.8896	13,454.6	67.7841	13,454.6	64.7943	13,454.6	68.3326	13,454.6	67.1893	13,454.6	34.4533	13,454.6	62.3123
13,929.2	102.572	13,929.2	101.765	13,929.2	102.182	13,929.2	100.46	13,929.2	101.286	13,929.2	98.4769	13,929.2	99.5887	13,929.2	95.638	13,929.2	97.2595	13,929.2	92.6709	13,929.2	94.7863	13,929.2	89.6121	13,929.2	92.1933	13,929.2	86.4963	13,929.2	88.2302	13,929.2	83.327	13,929.2	85.6626	13,929.2	79.1731	13,929.2	82.3305	13,929.2	77.4135	13,929.2	79.7868	13,929.2	73.0297	13,929.2	77.1467	13,929.2	71.1955	13,929.2	72.3712	13,929.2	68.6083	13,929.2	69.5287	13,929.2	63.5905	13,929.2	67.7021	13,929.2	72.3674	13,929.2	69.1951	13,929.2	60.442	13,929.2	67.5611	13,929.2	61.9938	13,929.2	52.9068	13,929.2	59.9606
14,419.9	102.377	14,419.9	101.715	14,419.9	102.058	14,419.9	100.478	14,419.9	101.094	14,419.9	98.2221	14,419.9	99.5687	14,419.9	95.1009	14,419.9	97.1921	14,419.9	91.6635	14,419.9	94.9072	14,419.9	88.0352	14,419.9	91.7128	14,419.9	84.1024	14,419.9	87.7508	14,419.9	81.2836	14,419.9	84.009	14,419.9	78.6031	14,419.9	81.3157	14,419.9	75.0124	14,419.9	78.8053	14,419.9	72.9466	14,419.9	74.8549	14,419.9	69.7958	14,419.9	72.3851	14,419.9	65.2825	14,419.9	68.9548	14,419.9	59.6579	14,419.9	62.074	14,419.9	70.4156	14,419.9	67.2763	14,419.9	55.2446	14,419.9	66.4794	14,419.9	51.3613	14,419.9	50.1338	14,419.9	59.5471
14,928.2	102.745	14,928.2	101.989	14,928.2	102.553	14,928.2	100.68	14,928.2	101.352	14,928.2	98.3708	14,928.2	99.8246	14,928.2	95.2413	14,928.2	97.4885	14,928.2	91.6556	14,928.2	94.6845	14,928.2	87.9324	14,928.2	91.4681	14,928.2	83.4022	14,928.2	88.2204	14,928.2	79.7512	14,928.2	83.9334	14,928.2	78.0051	14,928.2	80.3548	14,928.2	73.1866	14,928.2	75.7576	14,928.2	70.6907	14,928.2	74.6828	14,928.2	69.0836	14,928.2	71.5349	14,928.2	57.4587	14,928.2	66.9944	14,928.2	59.1705	14,928.2	58.332	14,928.2	67.9233	14,928.2	66.0687	14,928.2	40.4855	14,928.2	67.8482	14,928.2	60.3842	14,928.2	46.5227	14,928.2	54.1872
15,455.6	103.457	15,455.6	102.718	15,455.6	103.327	15,455.6	101.086	15,455.6	102.19	15,455.6	98.8012	15,455.6	100.43	15,455.6	95.2986	15,455.6	97.7509	15,455.6	91.7444	15,455.6	93.7282	15,455.6	87.7407	15,455.6	90.4457	15,455.6	82.9316	15,455.6	86.1313	15,455.6	80.0985	15,455.6	80.3408	15,455.6	76.4795	15,455.6	77.2204	15,455.6	72.1272	15,455.6	73.2261	15,455.6	67.5224	15,455.6	73.3661	15,455.6	69.5078	15,455.6	67.7254	15,455.6	62.0572	15,455.6	63.1094	15,455.6	61.608	15,455.6	44.6776	15,455.6	65.3533	15,455.6	64.014	15,455.6	48.3316	15,455.6	61.9495	15,455.6	59.6146	15,455.6	55.832	15,455.6	53.514
16,000.5	104.062	16,000.5	103.262	16,000.5	103.912	16,000.5	101.419	16,000.5	102.814	16,000.5	99.1042	16,000.5	100.788	16,000.5	95.4356	16,000.5	97.8541	16,000.5	91.4864	16,000.5	93.2634	16,000.5	87.0961	16,000.5	88.4002	16,000.5	82.6767	16,000.5	81.9332	16,000.5	78.5353	16,000.5	76.3641	16,000.5	76.5322	16,000.5	73.6067	16,000.5	71.4188	16,000.5	70.9166	16,000.5	71.4608	16,000.5	69.5861	16,000.5	70.7032	16,000.5	67.0961	16,000.5	61.7143	16,000.5	64.4169	16,000.5	55.9461	16,000.5	50.6377	16,000.5	65.6594	16,000.5	62.6301	16,000.5	45.5832	16,000.5	47.1059	16,000.5	61.8669	16,000.5	56.8917	16,000.5	60.2432
16,564.5	104.408	16,564.5	103.433	16,564.5	104.422	16,564.5	101.538	16,564.5	103.157	16,564.5	98.7929	16,564.5	100.797	16,564.5	94.9018	16,564.5	97.2706	16,564.5	90.2501	16,564.5	92.3468	16,564.5	85.482	16,564.5	85.9888	16,564.5	81.6527	16,564.5	79.8282	16,564.5	77.8887	16,564.5	76.7282	16,564.5	75.6296	16,564.5	74.4481	16,564.5	71.0984	16,564.5	71.0424	16,564.5	71.4601	16,564.5	70.0832	16,564.5	69.4363	16,564.5	66.6906	16,564.5	61.8646	16,564.5	63.2359	16,564.5	53.0021	16,564.5	59.1472	16,564.5	65.4121	16,564.5	52.6938	16,564.5	47.1932	16,564.5	59.6636	16,564.5	60.8757	16,564.5	59.9011	16,564.5	60.8297
17,148.9	104.731	17,148.9	103.663	17,148.9	104.815	17,148.9	101.349	17,148.9	103.255	17,148.9	98.0528	17,148.9	100.507	17,148.9	93.6225	17,148.9	96.0344	17,148.9	88.0824	17,148.9	89.9205	17,148.9	83.6317	17,148.9	83.5053	17,148.9	80.2228	17,148.9	79.6005	17,148.9	77.523	17,148.9	78.864	17,148.9	75.0394	17,148.9	75.8203	17,148.9	70.6057	17,148.9	74.0543	17,148.9	69.7742	17,148.9	71.3618	17,148.9	66.278	17,148.9	67.1442	17,148.9	60.212	17,148.9	68.6853	17,148.9	57.0953	17,148.9	63.2543	17,148.9	64.3464	17,148.9	52.6654	17,148.9	40.9619	17,148.9	61.9184	17,148.9	59.0229	17,148.9	60.4406	17,148.9	57.3767
17,752.4	104.723	17,752.4	103.555	17,752.4	104.684	17,752.4	100.881	17,752.4	102.947	17,752.4	97.1437	17,752.4	99.719	17,752.4	91.5729	17,752.4	94.4507	17,752.4	84.6659	17,752.4	86.6979	17,752.4	81.2634	17,752.4	80.8558	17,752.4	79.8028	17,752.4	80.8436	17,752.4	77.3029	17,752.4	79.9974	17,752.4	74.0861	17,752.4	76.7417	17,752.4	71.7054	17,752.4	75.1734	17,752.4	69.7351	17,752.4	71.1129	17,752.4	66.9382	17,752.4	67.8991	17,752.4	55.3214	17,752.4	66.8108	17,752.4	50.3878	17,752.4	61.0661	17,752.4	62.6982	17,752.4	53.4971	17,752.4	46.2402	17,752.4	61.7731	17,752.4	59.3768	17,752.4	57.6444	17,752.4	58.7283
18,379.4	104.475	18,379.4	103.169	18,379.4	104.315	18,379.4	100.123	18,379.4	102.115	18,379.4	95.3991	18,379.4	98.1982	18,379.4	88.4773	18,379.4	91.9696	18,379.4	81.8421	18,379.4	82.8424	18,379.4	81.5444	18,379.4	81.1145	18,379.4	80.285	18,379.4	82.5079	18,379.4	77.8132	18,379.4	80.7534	18,379.4	73.7556	18,379.4	76.6674	18,379.4	71.8948	18,379.4	74.9001	18,379.4	69.4091	18,379.4	70.3183	18,379.4	66.4057	18,379.4	67.6048	18,379.4	56.8705	18,379.4	66.2001	18,379.4	45.453	18,379.4	60.6181	18,379.4	61.4307	18,379.4	48.4801	18,379.4	55.0714	18,379.4	57.5887	18,379.4	56.5252	18,379.4	48.9494	18,379.4	54.4062
19,026.9	103.976	19,026.9	102.539	19,026.9	103.651	19,026.9	99.1583	19,026.9	101.113	19,026.9	93.5598	19,026.9	96.1619	19,026.9	85.6072	19,026.9	88.5182	19,026.9	80.634	19,026.9	79.7879	19,026.9	82.0016	19,026.9	82.5296	19,026.9	80.3986	19,026.9	82.7764	19,026.9	77.5098	19,026.9	80.0199	19,026.9	73.2921	19,026.9	76.3485	19,026.9	71.2157	19,026.9	73.7169	19,026.9	68.5168	19,026.9	68.3925	19,026.9	66.0365	19,026.9	65.8583	19,026.9	57.3848	19,026.9	64.6089	19,026.9	47.4506	19,026.9	60.735	19,026.9	58.9476	19,026.9	52.4657	19,026.9	53.0371	19,026.9	57.952	19,026.9	57.1873	19,026.9	49.7486	19,026.9	54.3458
19,697.8	103.369	19,697.8	101.851	19,697.8	102.802	19,697.8	97.6938	19,697.8	99.7218	19,697.8	90.9233	19,697.8	93.766	19,697.8	81.891	19,697.8	84.1558	19,697.8	80.1089	19,697.8	81.6706	19,697.8	81.2321	19,697.8	82.8038	19,697.8	79.4101	19,697.8	81.5374	19,697.8	75.7723	19,697.8	78.5953	19,697.8	71.0984	19,697.8	73.8295	19,697.8	68.5585	19,697.8	71.0124	19,697.8	66.7926	19,697.8	66.1884	19,697.8	61.3919	19,697.8	62.5977	19,697.8	53.32	19,697.8	61.2842	19,697.8	38.5544	19,697.8	57.3645	19,697.8	55.2492	19,697.8	51.882	19,697.8	50.5661	19,697.8	56.3725	19,697.8	53.8274	19,697.8	42.6839	19,697.8	51.4837
19,999.5	102.979	19,999.5	101.118	19,999.5	102.333	19,999.5	97.1607	19,999.5	99.1572	19,999.5	89.5877	19,999.5	92.7569	19,999.5	79.9078	19,999.5	83.093	19,999.5	80.6404	19,999.5	81.9498	19,999.5	82.062	19,999.5	82.2005	19,999.5	77.7503	19,999.5	79.5445	19,999.5	75.8077	19,999.5	75.957	19,999.5	72.8934	19,999.5	71.5421	19,999.5	66.3837	19,999.5	69.9026	19,999.5	69.7212	19,999.5	58.04	19,999.5	61.5749	19,999.5	64.9438	19,999.5	66.383	19,999.5	57.6673	19,999.5	56.0815	19,999.5	64.5612	19,999.5	58.2718	19,999.5	60.0449	19,999.5	56.5719	19,999.5	56.6093	19,999.5	54.5661	19,999.5	57.7448	19,999.5	54.2602
