"SPL Vertical"
"On-Axis"		"10°"		"-10°"		"20°"		"-20°"		"30°"		"-30°"		"40°"		"-40°"		"50°"		"-50°"		"60°"		"-60°"		"70°"		"-70°"		"80°"		"-80°"		"90°"		"-90°"		"100°"		"-100°"		"110°"		"-110°"		"120°"		"-120°"		"130°"		"-130°"		"140°"		"-140°"		"150°"		"-150°"		"160°"		"-160°"		"170°"		"-170°"		"180°"
"Frequency [Hz]"	"Sound Pessure Level [dB]  / [2.83V 1m] "	"Frequency [Hz]"	"Sound Pessure Level [dB]  / [2.83V 1m] "	"Frequency [Hz]"	"Sound Pessure Level [dB]  / [2.83V 1m] "	"Frequency [Hz]"	"Sound Pessure Level [dB]  / [2.83V 1m] "	"Frequency [Hz]"	"Sound Pessure Level [dB]  / [2.83V 1m] "	"Frequency [Hz]"	"Sound Pessure Level [dB]  / [2.83V 1m] "	"Frequency [Hz]"	"Sound Pessure Level [dB]  / [2.83V 1m] "	"Frequency [Hz]"	"Sound Pessure Level [dB]  / [2.83V 1m] "	"Frequency [Hz]"	"Sound Pessure Level [dB]  / [2.83V 1m] "	"Frequency [Hz]"	"Sound Pessure Level [dB]  / [2.83V 1m] "	"Frequency [Hz]"	"Sound Pessure Level [dB]  / [2.83V 1m] "	"Frequency [Hz]"	"Sound Pessure Level [dB]  / [2.83V 1m] "	"Frequency [Hz]"	"Sound Pessure Level [dB]  / [2.83V 1m] "	"Frequency [Hz]"	"Sound Pessure Level [dB]  / [2.83V 1m] "	"Frequency [Hz]"	"Sound Pessure Level [dB]  / [2.83V 1m] "	"Frequency [Hz]"	"Sound Pessure Level [dB]  / [2.83V 1m] "	"Frequency [Hz]"	"Sound Pessure Level [dB]  / [2.83V 1m] "	"Frequency [Hz]"	"Sound Pessure Level [dB]  / [2.83V 1m] "	"Frequency [Hz]"	"Sound Pessure Level [dB]  / [2.83V 1m] "	"Frequency [Hz]"	"Sound Pessure Level [dB]  / [2.83V 1m] "	"Frequency [Hz]"	"Sound Pessure Level [dB]  / [2.83V 1m] "	"Frequency [Hz]"	"Sound Pessure Level [dB]  / [2.83V 1m] "	"Frequency [Hz]"	"Sound Pessure Level [dB]  / [2.83V 1m] "	"Frequency [Hz]"	"Sound Pessure Level [dB]  / [2.83V 1m] "	"Frequency [Hz]"	"Sound Pessure Level [dB]  / [2.83V 1m] "	"Frequency [Hz]"	"Sound Pessure Level [dB]  / [2.83V 1m] "	"Frequency [Hz]"	"Sound Pessure Level [dB]  / [2.83V 1m] "	"Frequency [Hz]"	"Sound Pessure Level [dB]  / [2.83V 1m] "	"Frequency [Hz]"	"Sound Pessure Level [dB]  / [2.83V 1m] "	"Frequency [Hz]"	"Sound Pessure Level [dB]  / [2.83V 1m] "	"Frequency [Hz]"	"Sound Pessure Level [dB]  / [2.83V 1m] "	"Frequency [Hz]"	"Sound Pessure Level [dB]  / [2.83V 1m] "	"Frequency [Hz]"	"Sound Pessure Level [dB]  / [2.83V 1m] "	"Frequency [Hz]"	"Sound Pessure Level [dB]  / [2.83V 1m] "	"Frequency [Hz]"	"Sound Pessure Level [dB]  / [2.83V 1m] "	"Frequency [Hz]"	"Sound Pessure Level [dB]  / [2.83V 1m] "
20.5078	67.1952	20.5078	67.2138	20.5078	67.1478	20.5078	67.1945	20.5078	67.0792	20.5078	67.1291	20.5078	66.9938	20.5078	67.0121	20.5078	66.8922	20.5078	66.8418	20.5078	66.7715	20.5078	66.6204	20.5078	66.6262	20.5078	66.3526	20.5078	66.4495	20.5078	66.0447	20.5078	66.2341	20.5078	65.7032	20.5078	65.9735	20.5078	65.3344	20.5078	65.6636	20.5078	64.9443	20.5078	65.3042	20.5078	64.5405	20.5078	64.9009	20.5078	64.1337	20.5078	64.4674	20.5078	63.7413	20.5078	64.0272	20.5078	63.3891	20.5078	63.6131	20.5078	63.1104	20.5078	63.2642	20.5078	62.9408	20.5078	63.0191	20.5078	62.9073
21.9727	57.34	21.9727	56.3087	21.9727	58.3893	21.9727	55.37	21.9727	59.4054	21.9727	54.616	21.9727	60.3574	21.9727	54.1394	21.9727	61.229	21.9727	54.0089	21.9727	62.012	21.9727	54.2458	21.9727	62.7034	21.9727	54.816	21.9727	63.3031	21.9727	55.644	21.9727	63.8141	21.9727	56.6401	21.9727	64.2416	21.9727	57.7241	21.9727	64.5929	21.9727	58.8354	21.9727	64.8759	21.9727	59.9307	21.9727	65.0967	21.9727	60.9788	21.9727	65.2562	21.9727	61.9542	21.9727	65.3486	21.9727	62.8342	21.9727	65.3601	21.9727	63.5984	21.9727	65.2716	21.9727	64.2299	21.9727	65.0631	21.9727	64.7186
23.4375	68.0267	23.4375	67.8592	23.4375	68.1998	23.4375	67.7019	23.4375	68.3742	23.4375	67.5604	23.4375	68.5465	23.4375	67.4401	23.4375	68.7135	23.4375	67.3466	23.4375	68.8719	23.4375	67.2848	23.4375	69.0183	23.4375	67.2584	23.4375	69.1495	23.4375	67.2704	23.4375	69.2625	23.4375	67.3226	23.4375	69.3556	23.4375	67.4158	23.4375	69.4279	23.4375	67.5496	23.4375	69.4792	23.4375	67.7219	23.4375	69.5095	23.4375	67.9278	23.4375	69.5176	23.4375	68.1596	23.4375	69.5005	23.4375	68.4056	23.4375	69.4535	23.4375	68.6515	23.4375	69.371	23.4375	68.8822	23.4375	69.2484	23.4375	69.0842
24.9023	70.0753	24.9023	70.0509	24.9023	70.116	24.9023	70.0385	24.9023	70.1769	24.9023	70.0343	24.9023	70.2598	24.9023	70.0373	24.9023	70.3637	24.9023	70.0485	24.9023	70.485	24.9023	70.0714	24.9023	70.6184	24.9023	70.1105	24.9023	70.758	24.9023	70.1705	24.9023	70.8988	24.9023	70.2552	24.9023	71.0375	24.9023	70.3669	24.9023	71.1724	24.9023	70.506	24.9023	71.3031	24.9023	70.6704	24.9023	71.4286	24.9023	70.8552	24.9023	71.5457	24.9023	71.052	24.9023	71.6476	24.9023	71.249	24.9023	71.7242	24.9023	71.4319	24.9023	71.7638	24.9023	71.5854	24.9023	71.7563	24.9023	71.6963
26.3672	68.0051	26.3672	67.9077	26.3672	68.134	26.3672	67.8415	26.3672	68.2931	26.3672	67.8056	26.3672	68.4782	26.3672	67.7997	26.3672	68.683	26.3672	67.8247	26.3672	68.8995	26.3672	67.883	26.3672	69.1194	26.3672	67.9776	26.3672	69.3355	26.3672	68.1111	26.3672	69.5428	26.3672	68.2854	26.3672	69.7395	26.3672	68.5004	26.3672	69.9263	26.3672	68.7536	26.3672	70.1048	26.3672	69.0391	26.3672	70.2754	26.3672	69.3472	26.3672	70.4346	26.3672	69.6636	26.3672	70.5733	26.3672	69.9703	26.3672	70.6776	26.3672	70.2467	26.3672	70.7311	26.3672	70.473	26.3672	70.7193	26.3672	70.6334
27.832	66.3826	27.832	66.4239	27.832	66.4214	27.832	66.531	27.832	66.546	27.832	66.6856	27.832	66.7503	27.832	66.871	27.832	67.0177	27.832	67.0744	27.832	67.3247	27.832	67.2886	27.832	67.647	27.832	67.5109	27.832	67.9641	27.832	67.7419	27.832	68.2627	27.832	67.9844	27.832	68.5384	27.832	68.2414	27.832	68.7944	27.832	68.5146	27.832	69.0383	27.832	68.8023	27.832	69.2771	27.832	69.0981	27.832	69.5119	27.832	69.3902	27.832	69.7349	27.832	69.661	27.832	69.9297	27.832	69.8902	27.832	70.0753	27.832	70.0574	27.832	70.1521	27.832	70.1472
29.2969	69.0035	29.2969	68.7987	29.2969	69.2292	29.2969	68.6199	29.2969	69.4685	29.2969	68.4698	29.2969	69.711	29.2969	68.3502	29.2969	69.9442	29.2969	68.2625	29.2969	70.154	29.2969	68.2079	29.2969	70.3263	29.2969	68.187	29.2969	70.4483	29.2969	68.1998	29.2969	70.5106	29.2969	68.2451	29.2969	70.509	29.2969	68.3204	29.2969	70.4459	29.2969	68.4218	29.2969	70.3309	29.2969	68.5441	29.2969	70.1795	29.2969	68.6806	29.2969	70.011	29.2969	68.8239	29.2969	69.8442	29.2969	68.9661	29.2969	69.6925	29.2969	69.1006	29.2969	69.5608	29.2969	69.2235	29.2969	69.4453	29.2969	69.3362
30.7617	69.3572	30.7617	68.8733	30.7617	69.8411	30.7617	68.403	30.7617	70.3115	30.7617	67.9605	30.7617	70.7545	30.7617	67.5594	30.7617	71.1547	30.7617	67.2115	30.7617	71.4942	30.7617	66.9259	30.7617	71.7541	30.7617	66.7096	30.7617	71.9167	30.7617	66.5667	30.7617	71.9684	30.7617	66.4991	30.7617	71.9024	30.7617	66.506	30.7617	71.7198	30.7617	66.5843	30.7617	71.4317	30.7617	66.7285	30.7617	71.058	30.7617	66.9307	30.7617	70.6263	30.7617	67.1816	30.7617	70.1676	30.7617	67.4706	30.7617	69.7102	30.7617	67.7881	30.7617	69.2736	30.7617	68.1271	30.7617	68.8658	30.7617	68.4853
32.2266	73.7771	32.2266	73.4913	32.2266	74.0848	32.2266	73.2334	32.2266	74.4042	32.2266	73.0051	32.2266	74.721	32.2266	72.8062	32.2266	75.0177	32.2266	72.6345	32.2266	75.276	32.2266	72.4879	32.2266	75.4787	32.2266	72.3648	32.2266	75.6119	32.2266	72.2647	32.2266	75.666	32.2266	72.1884	32.2266	75.6362	32.2266	72.1384	32.2266	75.5234	32.2266	72.1178	32.2266	75.3337	32.2266	72.1308	32.2266	75.078	32.2266	72.1814	32.2266	74.771	32.2266	72.2731	32.2266	74.4302	32.2266	72.4083	32.2266	74.0743	32.2266	72.5883	32.2266	73.7209	32.2266	72.8129	32.2266	73.3856	32.2266	73.0802
33.6914	75.5853	33.6914	75.2661	33.6914	75.9216	33.6914	74.974	33.6914	76.2617	33.6914	74.716	33.6914	76.5905	33.6914	74.4959	33.6914	76.892	33.6914	74.3149	33.6914	77.1506	33.6914	74.1728	33.6914	77.3525	33.6914	74.0682	33.6914	77.4871	33.6914	73.9997	33.6914	77.5472	33.6914	73.9663	33.6914	77.5301	33.6914	73.9675	33.6914	77.4375	33.6914	74.0038	33.6914	77.2757	33.6914	74.0757	33.6914	77.0547	33.6914	74.184	33.6914	76.7877	33.6914	74.3289	33.6914	76.4892	33.6914	74.5098	33.6914	76.1735	33.6914	74.7248	33.6914	75.8539	33.6914	74.9711	33.6914	75.5416	33.6914	75.2451
35.1562	76.612	35.1562	76.3167	35.1562	76.9359	35.1562	76.0604	35.1562	77.2753	35.1562	75.8507	35.1562	77.6159	35.1562	75.6918	35.1562	77.9429	35.1562	75.5851	35.1562	78.2421	35.1562	75.5295	35.1562	78.5006	35.1562	75.5223	35.1562	78.7076	35.1562	75.5605	35.1562	78.8559	35.1562	75.6406	35.1562	78.9416	35.1562	75.7596	35.1562	78.9649	35.1562	75.9143	35.1562	78.9298	35.1562	76.1015	35.1562	78.8427	35.1562	76.3175	35.1562	78.7114	35.1562	76.5573	35.1562	78.5435	35.1562	76.815	35.1562	78.3459	35.1562	77.0836	35.1562	78.1237	35.1562	77.3556	35.1562	77.8815	35.1562	77.6237
36.6211	78.5246	36.6211	78.2481	36.6211	78.8194	36.6211	77.9992	36.6211	79.1211	36.6211	77.7848	36.6211	79.417	36.6211	77.6092	36.6211	79.6942	36.6211	77.4743	36.6211	79.94	36.6211	77.3804	36.6211	80.143	36.6211	77.3264	36.6211	80.2939	36.6211	77.3107	36.6211	80.3861	36.6211	77.3315	36.6211	80.417	36.6211	77.3869	36.6211	80.3874	36.6211	77.4752	36.6211	80.3023	36.6211	77.5948	36.6211	80.1688	36.6211	77.7439	36.6211	79.9959	36.6211	77.9205	36.6211	79.7927	36.6211	78.1215	36.6211	79.5674	36.6211	78.3432	36.6211	79.3272	36.6211	78.5805	36.6211	79.0786	36.6211	78.8277
38.0859	80.5572	38.0859	80.2997	38.0859	80.821	38.0859	80.0565	38.0859	81.0817	38.0859	79.8338	38.0859	81.3292	38.0859	79.6364	38.0859	81.5523	38.0859	79.4674	38.0859	81.7404	38.0859	79.3294	38.0859	81.8836	38.0859	79.2238	38.0859	81.974	38.0859	79.1517	38.0859	82.0066	38.0859	79.1141	38.0859	81.9802	38.0859	79.1116	38.0859	81.8976	38.0859	79.1447	38.0859	81.7656	38.0859	79.2135	38.0859	81.5938	38.0859	79.3173	38.0859	81.3932	38.0859	79.4543	38.0859	81.1742	38.0859	79.6211	38.0859	80.9449	38.0859	79.8128	38.0859	80.7114	38.0859	80.0235	38.0859	80.4775	38.0859	80.2468
39.5508	82.4338	39.5508	82.1823	39.5508	82.6839	39.5508	81.9362	39.5508	82.9249	39.5508	81.7008	39.5508	83.1479	39.5508	81.4805	39.5508	83.3433	39.5508	81.2788	39.5508	83.5013	39.5508	81.0985	39.5508	83.6125	39.5508	80.9419	39.5508	83.6692	39.5508	80.8111	39.5508	83.6659	39.5508	80.7082	39.5508	83.6	39.5508	80.6353	39.5508	83.4729	39.5508	80.5947	39.5508	83.2898	39.5508	80.5888	39.5508	83.0595	39.5508	80.6202	39.5508	82.7934	39.5508	80.6912	39.5508	82.5047	39.5508	80.803	39.5508	82.2068	39.5508	80.9555	39.5508	81.9121	39.5508	81.1471	39.5508	81.6316	39.5508	81.3743
41.0156	83.9315	41.0156	83.7165	41.0156	84.1555	41.0156	83.5162	41.0156	84.3812	41.0156	83.334	41.0156	84.5993	41.0156	83.1716	41.0156	84.7994	41.0156	83.0297	41.0156	84.9709	41.0156	82.9083	41.0156	85.1037	41.0156	82.8073	41.0156	85.1891	41.0156	82.727	41.0156	85.2209	41.0156	82.668	41.0156	85.1957	41.0156	82.6318	41.0156	85.1138	41.0156	82.6201	41.0156	84.979	41.0156	82.6347	41.0156	84.7981	41.0156	82.6777	41.0156	84.5808	41.0156	82.7506	41.0156	84.3383	41.0156	82.8547	41.0156	84.0829	41.0156	82.9909	41.0156	83.8271	41.0156	83.1589	41.0156	83.5821	41.0156	83.3572
42.4805	85.2263	42.4805	85.0124	42.4805	85.4484	42.4805	84.8135	42.4805	85.6708	42.4805	84.6347	42.4805	85.8844	42.4805	84.4798	42.4805	86.0796	42.4805	84.3513	42.4805	86.247	42.4805	84.2505	42.4805	86.3778	42.4805	84.178	42.4805	86.4651	42.4805	84.1337	42.4805	86.5039	42.4805	84.117	42.4805	86.4925	42.4805	84.1269	42.4805	86.4323	42.4805	84.1623	42.4805	86.3278	42.4805	84.2221	42.4805	86.1858	42.4805	84.305	42.4805	86.015	42.4805	84.4099	42.4805	85.8242	42.4805	84.5355	42.4805	85.6224	42.4805	84.6806	42.4805	85.4173	42.4805	84.8439	42.4805	85.2158	42.4805	85.0233
43.9453	86.5834	43.9453	86.3747	43.9453	86.7973	43.9453	86.1777	43.9453	87.0087	43.9453	85.9976	43.9453	87.2091	43.9453	85.8386	43.9453	87.3896	43.9453	85.7036	43.9453	87.5414	43.9453	85.5945	43.9453	87.6565	43.9453	85.5122	43.9453	87.7286	43.9453	85.4573	43.9453	87.7536	43.9453	85.4299	43.9453	87.7305	43.9453	85.4295	43.9453	87.6611	43.9453	85.4558	43.9453	87.5505	43.9453	85.5079	43.9453	87.4058	43.9453	85.5846	43.9453	87.2357	43.9453	85.6847	43.9453	87.0488	43.9453	85.8062	43.9453	86.8533	43.9453	85.9472	43.9453	86.6563	43.9453	86.1055	43.9453	86.4632	43.9453	86.2784
45.4102	87.8195	45.4102	87.6161	45.4102	88.0246	45.4102	87.4205	45.4102	88.2243	45.4102	87.2378	45.4102	88.4106	45.4102	87.0719	45.4102	88.5752	45.4102	86.9259	45.4102	88.7098	45.4102	86.8021	45.4102	88.8067	45.4102	86.7022	45.4102	88.8601	45.4102	86.6273	45.4102	88.8662	45.4102	86.5785	45.4102	88.8242	45.4102	86.556	45.4102	88.7364	45.4102	86.5604	45.4102	88.6083	45.4102	86.5916	45.4102	88.4477	45.4102	86.6491	45.4102	88.2636	45.4102	86.732	45.4102	88.0655	45.4102	86.8391	45.4102	87.8622	45.4102	86.9685	45.4102	87.6608	45.4102	87.1179	45.4102	87.467	45.4102	87.2849
46.875	89.1301	46.875	88.9326	46.875	89.3274	46.875	88.7404	46.875	89.5178	46.875	88.5581	46.875	89.694	46.875	88.3895	46.875	89.8482	46.875	88.2377	46.875	89.9725	46.875	88.1052	46.875	90.0597	46.875	87.9937	46.875	90.1038	46.875	87.905	46.875	90.1011	46.875	87.8401	46.875	90.0506	46.875	87.8002	46.875	89.9541	46.875	87.7859	46.875	89.8165	46.875	87.7978	46.875	89.6451	46.875	87.8364	46.875	89.449	46.875	87.9017	46.875	89.2379	46.875	87.9936	46.875	89.0214	46.875	88.1114	46.875	88.8084	46.875	88.2541	46.875	88.606	46.875	88.4198
48.3398	90.4074	48.3398	90.2204	48.3398	90.5944	48.3398	90.0387	48.3398	90.775	48.3398	89.8669	48.3398	90.9421	48.3398	89.7085	48.3398	91.0881	48.3398	89.5662	48.3398	91.2056	48.3398	89.442	48.3398	91.2876	48.3398	89.3376	48.3398	91.3286	48.3398	89.2541	48.3398	91.325	48.3398	89.1923	48.3398	91.2758	48.3398	89.153	48.3398	91.1828	48.3398	89.1368	48.3398	91.0505	48.3398	89.1443	48.3398	90.8857	48.3398	89.1762	48.3398	90.697	48.3398	89.2329	48.3398	90.4937	48.3398	89.3148	48.3398	90.2853	48.3398	89.422	48.3398	90.0805	48.3398	89.5542	48.3398	89.8867	48.3398	89.7099
51.2695	92.634	51.2695	92.4569	51.2695	92.8107	51.2695	92.2848	51.2695	92.9807	51.2695	92.1223	51.2695	93.137	51.2695	91.9732	51.2695	93.2728	51.2695	91.8406	51.2695	93.3811	51.2695	91.7268	51.2695	93.4559	51.2695	91.6332	51.2695	93.4925	51.2695	91.5612	51.2695	93.4881	51.2695	91.5113	51.2695	93.4424	51.2695	91.4841	51.2695	93.3576	51.2695	91.4794	51.2695	93.2382	51.2695	91.4974	51.2695	93.0908	51.2695	91.5375	51.2695	92.9232	51.2695	91.5994	51.2695	92.7436	51.2695	91.6825	51.2695	92.5602	51.2695	91.7861	51.2695	92.3799	51.2695	91.9092	51.2695	92.2086	51.2695	92.0508
52.7344	93.674	52.7344	93.5016	52.7344	93.8446	52.7344	93.3327	52.7344	94.0073	52.7344	93.1719	52.7344	94.1557	52.7344	93.0233	52.7344	94.2833	52.7344	92.89	52.7344	94.3837	52.7344	92.7746	52.7344	94.4513	52.7344	92.6792	52.7344	94.4818	52.7344	92.6051	52.7344	94.4728	52.7344	92.5532	52.7344	94.4243	52.7344	92.524	52.7344	94.3385	52.7344	92.5176	52.7344	94.22	52.7344	92.5337	52.7344	94.0752	52.7344	92.572	52.7344	93.9116	52.7344	92.6317	52.7344	93.737	52.7344	92.7119	52.7344	93.5591	52.7344	92.8119	52.7344	93.3848	52.7344	92.9307	52.7344	93.2194	52.7344	93.0672
54.1992	94.6677	54.1992	94.4968	54.1992	94.8365	54.1992	94.3293	54.1992	94.9976	54.1992	94.1696	54.1992	95.1446	54.1992	94.0217	54.1992	95.2711	54.1992	93.8889	54.1992	95.3709	54.1992	93.7739	54.1992	95.4388	54.1992	93.6789	54.1992	95.4705	54.1992	93.6053	54.1992	95.4638	54.1992	93.5544	54.1992	95.4187	54.1992	93.5265	54.1992	95.3373	54.1992	93.522	54.1992	95.2239	54.1992	93.5406	54.1992	95.0844	54.1992	93.5816	54.1992	94.9259	54.1992	93.6444	54.1992	94.7557	54.1992	93.728	54.1992	94.5812	54.1992	93.8311	54.1992	94.4089	54.1992	93.9527	54.1992	94.2441	54.1992	94.091
55.6641	95.5845	55.6641	95.4169	55.6641	95.7499	55.6641	95.2526	55.6641	95.9071	55.6641	95.0966	55.6641	96.05	55.6641	94.9531	55.6641	96.1724	55.6641	94.8258	55.6641	96.2685	55.6641	94.7174	55.6641	96.3336	55.6641	94.63	55.6641	96.3641	55.6641	94.5649	55.6641	96.3583	55.6641	94.5231	55.6641	96.3166	55.6641	94.5045	55.6641	96.2415	55.6641	94.509	55.6641	96.1374	55.6641	94.5359	55.6641	96.0101	55.6641	94.5843	55.6641	95.866	55.6641	94.6528	55.6641	95.7116	55.6641	94.7401	55.6641	95.5528	55.6641	94.8445	55.6641	95.3948	55.6641	94.9642	55.6641	95.2419	55.6641	95.0975
58.5938	97.3251	58.5938	97.1659	58.5938	97.4797	58.5938	97.0073	58.5938	97.6238	58.5938	96.8543	58.5938	97.7518	58.5938	96.7113	58.5938	97.8578	58.5938	96.5821	58.5938	97.937	58.5938	96.4699	58.5938	97.985	58.5938	96.377	58.5938	97.9991	58.5938	96.3052	58.5938	97.9782	58.5938	96.2556	58.5938	97.9234	58.5938	96.2287	58.5938	97.8379	58.5938	96.2245	58.5938	97.7266	58.5938	96.2423	58.5938	97.5958	58.5938	96.281	58.5938	97.4521	58.5938	96.3393	58.5938	97.302	58.5938	96.4155	58.5938	97.1513	58.5938	96.5078	58.5938	97.0043	58.5938	96.6145	58.5938	96.8644	58.5938	96.7339
60.0586	98.0198	60.0586	97.865	60.0586	98.1691	60.0586	97.7099	60.0586	98.3074	60.0586	97.5593	60.0586	98.4294	60.0586	97.4174	60.0586	98.5295	60.0586	97.2879	60.0586	98.6031	60.0586	97.1741	60.0586	98.6461	60.0586	97.0786	60.0586	98.6559	60.0586	97.0032	60.0586	98.6317	60.0586	96.9493	60.0586	98.5745	60.0586	96.9177	60.0586	98.4875	60.0586	96.9086	60.0586	98.3756	60.0586	96.9214	60.0586	98.2449	60.0586	96.9555	60.0586	98.1018	60.0586	97.0095	60.0586	97.9528	60.0586	97.0818	60.0586	97.8033	60.0586	97.1707	60.0586	97.6579	60.0586	97.2745	60.0586	97.5198	60.0586	97.3914
62.9883	99.1976	62.9883	99.0454	62.9883	99.3434	62.9883	98.8921	62.9883	99.4775	62.9883	98.7423	62.9883	99.5947	62.9883	98.6006	62.9883	99.69	62.9883	98.4709	62.9883	99.7588	62.9883	98.3566	62.9883	99.7977	62.9883	98.2605	62.9883	99.8043	62.9883	98.1847	62.9883	99.7782	62.9883	98.1307	62.9883	99.7206	62.9883	98.0991	62.9883	99.6348	62.9883	98.0903	62.9883	99.5255	62.9883	98.1036	62.9883	99.3985	62.9883	98.138	62.9883	99.26	62.9883	98.1923	62.9883	99.1159	62.9883	98.2645	62.9883	98.9713	62.9883	98.3528	62.9883	98.8302	62.9883	98.4553	62.9883	98.6958	62.9883	98.5702
64.4531	99.6872	64.4531	99.5363	64.4531	99.8312	64.4531	99.3838	64.4531	99.9631	64.4531	99.2344	64.4531	100.078	64.4531	99.0927	64.4531	100.17	64.4531	98.9627	64.4531	100.236	64.4531	98.848	64.4531	100.272	64.4531	98.7514	64.4531	100.276	64.4531	98.675	64.4531	100.249	64.4531	98.6205	64.4531	100.19	64.4531	98.5885	64.4531	100.104	64.4531	98.5793	64.4531	99.9954	64.4531	98.5923	64.4531	99.8699	64.4531	98.6265	64.4531	99.7334	64.4531	98.6803	64.4531	99.5917	64.4531	98.752	64.4531	99.4496	64.4531	98.8397	64.4531	99.3109	64.4531	98.9412	64.4531	99.1786	64.4531	99.0547
67.3828	100.431	67.3828	100.282	67.3828	100.572	67.3828	100.129	67.3828	100.7	67.3828	99.9785	67.3828	100.809	67.3828	99.834	67.3828	100.895	67.3828	99.7002	67.3828	100.954	67.3828	99.5809	67.3828	100.984	67.3828	99.4793	67.3828	100.982	67.3828	99.3979	67.3828	100.949	67.3828	99.3386	67.3828	100.886	67.3828	99.3025	67.3828	100.798	67.3828	99.2898	67.3828	100.689	67.3828	99.3002	67.3828	100.564	67.3828	99.3326	67.3828	100.429	67.3828	99.3854	67.3828	100.289	67.3828	99.4567	67.3828	100.149	67.3828	99.5441	67.3828	100.013	67.3828	99.6454	67.3828	99.8816	67.3828	99.7586
68.8477	100.707	68.8477	100.56	68.8477	100.845	68.8477	100.409	68.8477	100.969	68.8477	100.258	68.8477	101.074	68.8477	100.114	68.8477	101.156	68.8477	99.9802	68.8477	101.211	68.8477	99.8603	68.8477	101.237	68.8477	99.758	68.8477	101.232	68.8477	99.676	68.8477	101.197	68.8477	99.6161	68.8477	101.135	68.8477	99.5795	68.8477	101.048	68.8477	99.5667	68.8477	100.941	68.8477	99.5773	68.8477	100.82	68.8477	99.61	68.8477	100.689	68.8477	99.6634	68.8477	100.554	68.8477	99.7352	68.8477	100.419	68.8477	99.8229	68.8477	100.286	68.8477	99.9241	68.8477	100.158	68.8477	100.036
71.7773	101.064	71.7773	100.923	71.7773	101.195	71.7773	100.777	71.7773	101.31	71.7773	100.631	71.7773	101.406	71.7773	100.489	71.7773	101.478	71.7773	100.356	71.7773	101.524	71.7773	100.237	71.7773	101.541	71.7773	100.134	71.7773	101.53	71.7773	100.052	71.7773	101.49	71.7773	99.9922	71.7773	101.424	71.7773	99.9558	71.7773	101.336	71.7773	99.9436	71.7773	101.232	71.7773	99.955	71.7773	101.117	71.7773	99.9888	71.7773	100.995	71.7773	100.043	71.7773	100.871	71.7773	100.114	71.7773	100.748	71.7773	100.199	71.7773	100.628	71.7773	100.296	71.7773	100.512	71.7773	100.4
74.707	101.234	74.707	101.097	74.707	101.36	74.707	100.956	74.707	101.472	74.707	100.815	74.707	101.565	74.707	100.678	74.707	101.634	74.707	100.55	74.707	101.677	74.707	100.436	74.707	101.692	74.707	100.338	74.707	101.678	74.707	100.259	74.707	101.635	74.707	100.201	74.707	101.567	74.707	100.166	74.707	101.478	74.707	100.153	74.707	101.373	74.707	100.162	74.707	101.256	74.707	100.192	74.707	101.135	74.707	100.24	74.707	101.012	74.707	100.304	74.707	100.892	74.707	100.381	74.707	100.777	74.707	100.469	74.707	100.668	74.707	100.565
77.6367	101.249	77.6367	101.114	77.6367	101.374	77.6367	100.973	77.6367	101.484	77.6367	100.833	77.6367	101.574	77.6367	100.697	77.6367	101.642	77.6367	100.571	77.6367	101.683	77.6367	100.459	77.6367	101.696	77.6367	100.364	77.6367	101.682	77.6367	100.289	77.6367	101.64	77.6367	100.235	77.6367	101.575	77.6367	100.205	77.6367	101.49	77.6367	100.196	77.6367	101.39	77.6367	100.209	77.6367	101.28	77.6367	100.243	77.6367	101.165	77.6367	100.293	77.6367	101.049	77.6367	100.359	77.6367	100.935	77.6367	100.436	77.6367	100.824	77.6367	100.523	77.6367	100.718	77.6367	100.617
79.1016	101.235	79.1016	101.099	79.1016	101.359	79.1016	100.959	79.1016	101.468	79.1016	100.818	79.1016	101.557	79.1016	100.681	79.1016	101.623	79.1016	100.554	79.1016	101.662	79.1016	100.441	79.1016	101.674	79.1016	100.345	79.1016	101.658	79.1016	100.269	79.1016	101.615	79.1016	100.216	79.1016	101.549	79.1016	100.185	79.1016	101.464	79.1016	100.177	79.1016	101.364	79.1016	100.191	79.1016	101.256	79.1016	100.226	79.1016	101.142	79.1016	100.277	79.1016	101.028	79.1016	100.344	79.1016	100.915	79.1016	100.422	79.1016	100.806	79.1016	100.508	79.1016	100.702	79.1016	100.602
82.0312	101.216	82.0312	101.08	82.0312	101.341	82.0312	100.937	82.0312	101.448	82.0312	100.793	82.0312	101.535	82.0312	100.652	82.0312	101.597	82.0312	100.52	82.0312	101.632	82.0312	100.402	82.0312	101.639	82.0312	100.3	82.0312	101.619	82.0312	100.218	82.0312	101.572	82.0312	100.158	82.0312	101.502	82.0312	100.122	82.0312	101.414	82.0312	100.11	82.0312	101.312	82.0312	100.12	82.0312	101.2	82.0312	100.151	82.0312	101.084	82.0312	100.201	82.0312	100.967	82.0312	100.267	82.0312	100.851	82.0312	100.345	82.0312	100.739	82.0312	100.433	82.0312	100.632	82.0312	100.529
84.9609	101.163	84.9609	101.028	84.9609	101.286	84.9609	100.885	84.9609	101.39	84.9609	100.741	84.9609	101.474	84.9609	100.6	84.9609	101.532	84.9609	100.467	84.9609	101.563	84.9609	100.348	84.9609	101.567	84.9609	100.246	84.9609	101.544	84.9609	100.164	84.9609	101.495	84.9609	100.105	84.9609	101.425	84.9609	100.069	84.9609	101.338	84.9609	100.056	84.9609	101.237	84.9609	100.066	84.9609	101.129	84.9609	100.096	84.9609	101.015	84.9609	100.144	84.9609	100.901	84.9609	100.209	84.9609	100.787	84.9609	100.285	84.9609	100.676	84.9609	100.373	84.9609	100.57	84.9609	100.468
87.8906	101.002	87.8906	100.871	87.8906	101.121	87.8906	100.731	87.8906	101.222	87.8906	100.589	87.8906	101.302	87.8906	100.45	87.8906	101.358	87.8906	100.319	87.8906	101.388	87.8906	100.201	87.8906	101.392	87.8906	100.101	87.8906	101.37	87.8906	100.021	87.8906	101.326	87.8906	99.965	87.8906	101.262	87.8906	99.933	87.8906	101.182	87.8906	99.9253	87.8906	101.092	87.8906	99.9407	87.8906	100.993	87.8906	99.9771	87.8906	100.89	87.8906	100.032	87.8906	100.785	87.8906	100.101	87.8906	100.68	87.8906	100.183	87.8906	100.574	87.8906	100.273	87.8906	100.471	87.8906	100.37
90.8203	100.885	90.8203	100.754	90.8203	101.002	90.8203	100.615	90.8203	101.102	90.8203	100.473	90.8203	101.181	90.8203	100.335	90.8203	101.234	90.8203	100.205	90.8203	101.262	90.8203	100.089	90.8203	101.265	90.8203	99.9912	90.8203	101.242	90.8203	99.9147	90.8203	101.199	90.8203	99.8622	90.8203	101.138	90.8203	99.8348	90.8203	101.063	90.8203	99.8325	90.8203	100.98	90.8203	99.8539	90.8203	100.89	90.8203	99.8967	90.8203	100.798	90.8203	99.9577	90.8203	100.703	90.8203	100.033	90.8203	100.606	90.8203	100.12	90.8203	100.509	90.8203	100.213	90.8203	100.41	90.8203	100.311
95.2148	100.78	95.2148	100.647	95.2148	100.896	95.2148	100.504	95.2148	100.991	95.2148	100.356	95.2148	101.061	95.2148	100.209	95.2148	101.105	95.2148	100.069	95.2148	101.121	95.2148	99.9435	95.2148	101.111	95.2148	99.8363	95.2148	101.076	95.2148	99.7519	95.2148	101.021	95.2148	99.6933	95.2148	100.95	95.2148	99.6617	95.2148	100.868	95.2148	99.6572	95.2148	100.781	95.2148	99.678	95.2148	100.691	95.2148	99.7214	95.2148	100.601	95.2148	99.7837	95.2148	100.51	95.2148	99.8607	95.2148	100.419	95.2148	99.9478	95.2148	100.327	95.2148	100.041	95.2148	100.233	95.2148	100.137
98.1445	100.687	98.1445	100.558	98.1445	100.798	98.1445	100.416	98.1445	100.886	98.1445	100.269	98.1445	100.949	98.1445	100.121	98.1445	100.985	98.1445	99.9798	98.1445	100.993	98.1445	99.8513	98.1445	100.975	98.1445	99.741	98.1445	100.934	98.1445	99.6533	98.1445	100.873	98.1445	99.5913	98.1445	100.798	98.1445	99.5565	98.1445	100.715	98.1445	99.549	98.1445	100.628	98.1445	99.5671	98.1445	100.541	98.1445	99.6079	98.1445	100.454	98.1445	99.6678	98.1445	100.368	98.1445	99.7423	98.1445	100.281	98.1445	99.827	98.1445	100.193	98.1445	99.9176	98.1445	100.103	98.1445	100.01
101.074	100.524	101.074	100.398	101.074	100.631	101.074	100.259	101.074	100.716	101.074	100.113	101.074	100.775	101.074	99.9675	101.074	100.806	101.074	99.8279	101.074	100.81	101.074	99.7012	101.074	100.789	101.074	99.593	101.074	100.745	101.074	99.5082	101.074	100.684	101.074	99.4501	101.074	100.611	101.074	99.4205	101.074	100.533	101.074	99.4193	101.074	100.453	101.074	99.445	101.074	100.375	101.074	99.4941	101.074	100.301	101.074	99.5621	101.074	100.229	101.074	99.6437	101.074	100.157	101.074	99.7334	101.074	100.082	101.074	99.8257	101.074	100.002	101.074	99.9164
105.469	100.338	105.469	100.205	105.469	100.452	105.469	100.059	105.469	100.543	105.469	99.9051	105.469	100.606	105.469	99.7514	105.469	100.64	105.469	99.6047	105.469	100.645	105.469	99.472	105.469	100.622	105.469	99.3598	105.469	100.574	105.469	99.2735	105.469	100.506	105.469	99.2167	105.469	100.426	105.469	99.1914	105.469	100.339	105.469	99.1969	105.469	100.251	105.469	99.2306	105.469	100.167	105.469	99.2879	105.469	100.088	105.469	99.3627	105.469	100.014	105.469	99.4487	105.469	99.9424	105.469	99.5393	105.469	99.8707	105.469	99.6295	105.469	99.7957	105.469	99.7155
108.398	100.363	108.398	100.236	108.398	100.469	108.398	100.093	108.398	100.549	108.398	99.9416	108.398	100.602	108.398	99.7875	108.398	100.624	108.398	99.638	108.398	100.617	108.398	99.5004	108.398	100.583	108.398	99.3811	108.398	100.526	108.398	99.2857	108.398	100.451	108.398	99.2181	108.398	100.367	108.398	99.1805	108.398	100.279	108.398	99.1729	108.398	100.193	108.398	99.1933	108.398	100.111	108.398	99.2378	108.398	100.034	108.398	99.3017	108.398	99.9607	108.398	99.3795	108.398	99.8874	108.398	99.4658	108.398	99.8115	108.398	99.5557	108.398	99.7307	108.398	99.645
112.793	100.291	112.793	100.161	112.793	100.399	112.793	100.013	112.793	100.48	112.793	99.8555	112.793	100.53	112.793	99.6954	112.793	100.548	112.793	99.5405	112.793	100.535	112.793	99.3988	112.793	100.493	112.793	99.2777	112.793	100.427	112.793	99.1837	112.793	100.344	112.793	99.1215	112.793	100.252	112.793	99.0933	112.793	100.161	112.793	99.0991	112.793	100.077	112.793	99.1357	112.793	100.004	112.793	99.1978	112.793	99.9423	112.793	99.2788	112.793	99.8891	112.793	99.3709	112.793	99.8384	112.793	99.467	112.793	99.7839	112.793	99.5604	112.793	99.7206	112.793	99.646
117.188	100.298	117.188	100.18	117.188	100.393	117.188	100.043	117.188	100.459	117.188	99.8938	117.188	100.495	117.188	99.7385	117.188	100.5	117.188	99.5849	117.188	100.473	117.188	99.4404	117.188	100.419	117.188	99.3127	117.188	100.342	117.188	99.2091	117.188	100.249	117.188	99.1356	117.188	100.15	117.188	99.0963	117.188	100.053	117.188	99.0929	117.188	99.9682	117.188	99.1236	117.188	99.8992	117.188	99.1837	117.188	99.8473	117.188	99.2659	117.188	99.8086	117.188	99.3608	117.188	99.7757	117.188	99.4588	117.188	99.7397	117.188	99.5508	117.188	99.6927	117.188	99.6299
120.117	100.186	120.117	100.06	120.117	100.29	120.117	99.9153	120.117	100.366	120.117	99.7602	120.117	100.412	120.117	99.6013	120.117	100.424	120.117	99.4463	120.117	100.404	120.117	99.3027	120.117	100.355	120.117	99.1781	120.117	100.279	120.117	99.0793	120.117	100.185	120.117	99.0121	120.117	100.081	120.117	98.9806	120.117	99.9776	120.117	98.9861	120.117	99.8842	120.117	99.0269	120.117	99.8082	120.117	99.0978	120.117	99.7524	120.117	99.1903	120.117	99.7144	120.117	99.2939	120.117	99.6868	120.117	99.3973	120.117	99.6592	120.117	99.4904	120.117	99.6214	120.117	99.566
124.512	100.366	124.512	100.232	124.512	100.475	124.512	100.08	124.512	100.554	124.512	99.9154	124.512	100.599	124.512	99.7462	124.512	100.606	124.512	99.579	124.512	100.577	124.512	99.4207	124.512	100.513	124.512	99.2781	124.512	100.419	124.512	99.1578	124.512	100.302	124.512	99.0658	124.512	100.171	124.512	99.0068	124.512	100.035	124.512	98.9832	124.512	99.9066	124.512	98.9947	124.512	99.7929	124.512	99.0372	124.512	99.6996	124.512	99.1036	124.512	99.6273	124.512	99.1843	124.512	99.5714	124.512	99.2691	124.512	99.5238	124.512	99.349	124.512	99.4753	124.512	99.4182
128.906	100.394	128.906	100.28	128.906	100.478	128.906	100.142	128.906	100.531	128.906	99.9856	128.906	100.549	128.906	99.8177	128.906	100.533	128.906	99.6449	128.906	100.484	128.906	99.4742	128.906	100.405	128.906	99.3124	128.906	100.3	128.906	99.1664	128.906	100.176	128.906	99.0424	128.906	100.04	128.906	98.9458	128.906	99.8977	128.906	98.8806	128.906	99.7575	128.906	98.8486	128.906	99.6261	128.906	98.8485	128.906	99.5087	128.906	98.8761	128.906	99.408	128.906	98.9247	128.906	99.3233	128.906	98.9859	128.906	99.2505	128.906	99.0524	128.906	99.1842	128.906	99.119
133.301	100.131	133.301	100.012	133.301	100.224	133.301	99.8717	133.301	100.287	133.301	99.7168	133.301	100.318	133.301	99.5545	133.301	100.318	133.301	99.3927	133.301	100.288	133.301	99.2387	133.301	100.232	133.301	99.0996	133.301	100.155	133.301	98.9813	133.301	100.062	133.301	98.8885	133.301	99.9595	133.301	98.8244	133.301	99.8525	133.301	98.7905	133.301	99.7457	133.301	98.7863	133.301	99.6424	133.301	98.8091	133.301	99.5451	133.301	98.8543	133.301	99.4548	133.301	98.916	133.301	99.371	133.301	98.9877	133.301	99.2924	133.301	99.0637	133.301	99.2162	133.301	99.1404
139.16	100.003	139.16	99.8711	139.16	100.108	139.16	99.7177	139.16	100.182	139.16	99.5509	139.16	100.222	139.16	99.38	139.16	100.228	139.16	99.2148	139.16	100.202	139.16	99.0651	139.16	100.149	139.16	98.9396	139.16	100.075	139.16	98.8448	139.16	99.9893	139.16	98.7844	139.16	99.8998	139.16	98.7589	139.16	99.8136	139.16	98.7661	139.16	99.7351	139.16	98.8013	139.16	99.6654	139.16	98.8586	139.16	99.6026	139.16	98.9315	139.16	99.543	139.16	99.0139	139.16	99.4826	139.16	99.1005	139.16	99.4179	139.16	99.1869	139.16	99.3471	139.16	99.2698
143.555	100.097	143.555	99.9566	143.555	100.205	143.555	99.7899	143.555	100.276	143.555	99.6047	143.555	100.308	143.555	99.4099	143.555	100.299	143.555	99.2157	143.555	100.252	143.555	99.0333	143.555	100.173	143.555	98.8737	143.555	100.069	143.555	98.747	143.555	99.9513	143.555	98.6611	143.555	99.8309	143.555	98.6198	143.555	99.7188	143.555	98.6224	143.555	99.6225	143.555	98.6637	143.555	99.545	143.555	98.7351	143.555	99.4843	143.555	98.8262	143.555	99.4347	143.555	98.9268	143.555	99.3884	143.555	99.0279	143.555	99.3383	143.555	99.1228	143.555	99.2788	143.555	99.2071
147.949	100.155	147.949	100.009	147.949	100.265	147.949	99.8356	147.949	100.336	147.949	99.6407	147.949	100.365	147.949	99.4326	147.949	100.349	147.949	99.2205	147.949	100.291	147.949	99.0141	147.949	100.196	147.949	98.824	147.949	100.071	147.949	98.661	147.949	99.9282	147.949	98.5346	147.949	99.7795	147.949	98.4521	147.949	99.6383	147.949	98.4171	147.949	99.5148	147.949	98.4286	147.949	99.4144	147.949	98.4809	147.949	99.3364	147.949	98.5648	147.949	99.2742	147.949	98.6693	147.949	99.2179	147.949	98.7827	147.949	99.1574	147.949	98.8947	147.949	99.085	147.949	98.9971
153.809	99.9008	153.809	99.7616	153.809	100	153.809	99.5882	153.809	100.056	153.809	99.3879	153.809	100.067	153.809	99.1698	153.809	100.035	153.809	98.9442	153.809	99.9629	153.809	98.7233	153.809	99.8588	153.809	98.5209	153.809	99.7318	153.809	98.3514	153.809	99.5932	153.809	98.2285	153.809	99.4554	153.809	98.1623	153.809	99.3309	153.809	98.1569	153.809	99.23	153.809	98.2088	153.809	99.1585	153.809	98.3073	153.809	99.1156	153.809	98.437	153.809	99.0935	153.809	98.5805	153.809	99.0791	153.809	98.7214	153.809	99.0573	153.809	98.8462	153.809	99.0153	153.809	98.9455
159.668	99.9634	159.668	99.8487	159.668	100.049	159.668	99.7087	159.668	100.101	159.668	99.5494	159.668	100.119	159.668	99.3767	159.668	100.104	159.668	99.1971	159.668	100.058	159.668	99.0169	159.668	99.9868	159.668	98.8426	159.668	99.8953	159.668	98.6813	159.668	99.7913	159.668	98.5417	159.668	99.6824	159.668	98.4333	159.668	99.5756	159.668	98.3657	159.668	99.477	159.668	98.3458	159.668	99.3903	159.668	98.3758	159.668	99.3161	159.668	98.451	159.668	99.2512	159.668	98.5599	159.668	99.189	159.668	98.6872	159.668	99.1207	159.668	98.8171	159.668	99.038	159.668	98.9365
165.527	99.9682	165.527	99.8401	165.527	100.061	165.527	99.685	165.527	100.113	165.527	99.5129	165.527	100.122	165.527	99.3351	165.527	100.089	165.527	99.1632	165.527	100.018	165.527	99.0076	165.527	99.9181	165.527	98.8771	165.527	99.8011	165.527	98.7773	165.527	99.6801	165.527	98.7113	165.527	99.5678	165.527	98.6792	165.527	99.4746	165.527	98.679	165.527	99.4062	165.527	98.7075	165.527	99.3625	165.527	98.7603	165.527	99.3378	165.527	98.832	165.527	99.3224	165.527	98.9164	165.527	99.3056	165.527	99.0062	165.527	99.2779	165.527	99.0936	165.527	99.2337	165.527	99.1713
171.387	99.9109	171.387	99.7633	171.387	100.015	171.387	99.5777	171.387	100.072	171.387	99.3616	171.387	100.081	171.387	99.1247	171.387	100.044	171.387	98.8786	171.387	99.9642	171.387	98.6361	171.387	99.8483	171.387	98.4115	171.387	99.7041	171.387	98.2196	171.387	99.5417	171.387	98.0748	171.387	99.373	171.387	97.9887	171.387	99.212	171.387	97.9682	171.387	99.0733	171.387	98.0123	171.387	98.9697	171.387	98.1117	171.387	98.9074	171.387	98.2502	171.387	98.882	171.387	98.4069	171.387	98.8784	171.387	98.5607	171.387	98.8748	171.387	98.6932	171.387	98.8505	171.387	98.7915
177.246	99.7313	177.246	99.587	177.246	99.8433	177.246	99.4179	177.246	99.9185	177.246	99.2336	177.246	99.9556	177.246	99.0449	177.246	99.9566	177.246	98.8628	177.246	99.9263	177.246	98.6966	177.246	99.8718	177.246	98.5535	177.246	99.8006	177.246	98.4376	177.246	99.719	177.246	98.3506	177.246	99.631	177.246	98.2933	177.246	99.5375	177.246	98.2658	177.246	99.438	177.246	98.2683	177.246	99.3327	177.246	98.3001	177.246	99.2239	177.246	98.3585	177.246	99.1159	177.246	98.4379	177.246	99.0125	177.246	98.5305	177.246	98.9147	177.246	98.6284	177.246	98.8203	177.246	98.7256
183.105	99.7764	183.105	99.6072	183.105	99.8956	183.105	99.3966	183.105	99.9604	183.105	99.1566	183.105	99.9695	183.105	98.9031	183.105	99.9255	183.105	98.6546	183.105	99.8358	183.105	98.4309	183.105	99.7125	183.105	98.2494	183.105	99.5727	183.105	98.1226	183.105	99.4363	183.105	98.0557	183.105	99.3216	183.105	98.0461	183.105	99.2402	183.105	98.0856	183.105	99.1936	183.105	98.1634	183.105	99.1727	183.105	98.2681	183.105	99.1623	183.105	98.3898	183.105	99.1471	183.105	98.5197	183.105	99.1153	183.105	98.6503	183.105	99.0615	183.105	98.775	183.105	98.985	183.105	98.8881
188.965	99.966	188.965	99.825	188.965	100.046	188.965	99.6304	188.965	100.061	188.965	99.3924	188.965	100.009	188.965	99.1238	188.965	99.8934	188.965	98.8402	188.965	99.7235	188.965	98.5605	188.965	99.5132	188.965	98.3061	188.965	99.2818	188.965	98.0985	188.965	99.0537	188.965	97.9553	188.965	98.8548	188.965	97.8862	188.965	98.7087	188.965	97.8903	188.965	98.6298	188.965	97.9569	188.965	98.6181	188.965	98.0694	188.965	98.6573	188.965	98.2093	188.965	98.72	188.965	98.3594	188.965	98.7764	188.965	98.5045	188.965	98.8035	188.965	98.6318	188.965	98.7886	188.965	98.7296
196.289	99.8621	196.289	99.7493	196.289	99.9248	196.289	99.5933	196.289	99.9337	196.289	99.4032	196.289	99.8892	196.289	99.1894	196.289	99.7964	196.289	98.963	196.289	99.6653	196.289	98.7353	196.289	99.51	196.289	98.5184	196.289	99.3465	196.289	98.325	196.289	99.1903	196.289	98.1679	196.289	99.053	196.289	98.0584	196.289	98.9411	196.289	98.0041	196.289	98.856	196.289	98.0061	196.289	98.7959	196.289	98.0585	196.289	98.7566	196.289	98.1489	196.289	98.7316	196.289	98.2614	196.289	98.7118	196.289	98.3795	196.289	98.6861	196.289	98.4887	196.289	98.644	196.289	98.5785
203.613	99.7362	203.613	99.6027	203.613	99.8042	203.613	99.4086	203.613	99.806	203.613	99.1634	203.613	99.7451	203.613	98.8813	203.613	99.6284	203.613	98.5811	203.613	99.4658	203.613	98.2862	203.613	99.2715	203.613	98.0223	203.613	99.0648	203.613	97.8149	203.613	98.8718	203.613	97.6839	203.613	98.7221	203.613	97.6392	203.613	98.6412	203.613	97.6783	203.613	98.6393	203.613	97.7877	203.613	98.704	203.613	97.9475	203.613	98.8045	203.613	98.1364	203.613	98.9031	203.613	98.3349	203.613	98.9682	203.613	98.5271	203.613	98.9812	203.613	98.6995	203.613	98.9369	203.613	98.8399
210.938	100.011	210.938	99.8435	210.938	100.126	210.938	99.6288	210.938	100.187	210.938	99.3714	210.938	100.189	210.938	99.0791	210.938	100.128	210.938	98.7623	210.938	100.002	210.938	98.4356	210.938	99.8093	210.938	98.119	210.938	99.5593	210.938	97.8377	210.938	99.2699	210.938	97.62	210.938	98.9702	210.938	97.4905	210.938	98.6984	210.938	97.4623	210.938	98.4944	210.938	97.5311	210.938	98.3868	210.938	97.676	210.938	98.3776	210.938	97.8672	210.938	98.4389	210.938	98.0739	210.938	98.5238	210.938	98.2693	210.938	98.587	210.938	98.432	210.938	98.5981	210.938	98.5455
218.262	99.91	218.262	99.844	218.262	99.9318	218.262	99.7396	218.262	99.9035	218.262	99.6004	218.262	99.8212	218.262	99.4274	218.262	99.6845	218.262	99.2185	218.262	99.4974	218.262	98.9708	218.262	99.2684	218.262	98.6845	218.262	99.0092	218.262	98.3674	218.262	98.7341	218.262	98.0403	218.262	98.4604	218.262	97.738	218.262	98.21	218.262	97.504	218.262	98.0098	218.262	97.3769	218.262	97.8872	218.262	97.3735	218.262	97.8574	218.262	97.4797	218.262	97.911	218.262	97.6562	218.262	98.0115	218.262	97.8525	218.262	98.1084	218.262	98.0216	218.262	98.1564	218.262	98.1287
225.586	99.5272	225.586	99.4864	225.586	99.4972	225.586	99.3832	225.586	99.3964	225.586	99.2324	225.586	99.2353	225.586	99.053	225.586	99.0356	225.586	98.8655	225.586	98.8285	225.586	98.688	225.586	98.6491	225.586	98.5335	225.586	98.5266	225.586	98.4077	225.586	98.473	225.586	98.3098	225.586	98.4773	225.586	98.2354	225.586	98.5099	225.586	98.1803	225.586	98.5363	225.586	98.1435	225.586	98.5318	225.586	98.1267	225.586	98.4917	225.586	98.1319	225.586	98.4302	225.586	98.1575	225.586	98.3695	225.586	98.1958	225.586	98.3244	225.586	98.2356	225.586	98.2944	225.586	98.2682
232.91	98.8177	232.91	98.7282	232.91	98.8143	232.91	98.5523	232.91	98.7212	232.91	98.3052	232.91	98.5498	232.91	98.0099	232.91	98.3172	232.91	97.6945	232.91	98.0447	232.91	97.3915	232.91	97.7608	232.91	97.1354	232.91	97.505	232.91	96.9591	232.91	97.3291	232.91	96.8895	232.91	97.2831	232.91	96.9404	232.91	97.3916	232.91	97.1074	232.91	97.6364	232.91	97.3677	232.91	97.9635	232.91	97.6859	232.91	98.3076	232.91	98.023	232.91	98.6137	232.91	98.344	232.91	98.8456	232.91	98.6218	232.91	98.9851	232.91	98.8369	232.91	99.0274	232.91	98.9755
241.699	99.8272	241.699	99.6616	241.699	99.9386	241.699	99.4579	241.699	99.9781	241.699	99.2308	241.699	99.9281	241.699	98.9934	241.699	99.775	241.699	98.7583	241.699	99.5126	241.699	98.5365	241.699	99.1466	241.699	98.3367	241.699	98.6973	241.699	98.1648	241.699	98.2044	241.699	98.0239	241.699	97.7288	241.699	97.916	241.699	97.3473	241.699	97.8433	241.699	97.1276	241.699	97.8081	241.699	97.0928	241.699	97.8102	241.699	97.2073	241.699	97.8441	241.699	97.4005	241.699	97.8965	241.699	97.6055	241.699	97.9477	241.699	97.7787	241.699	97.9765	241.699	97.9001	241.699	97.9646
250.488	100.195	250.488	100.006	250.488	100.301	250.488	99.7447	250.488	100.316	250.488	99.4237	250.488	100.236	250.488	99.0571	250.488	100.062	250.488	98.6611	250.488	99.7969	250.488	98.254	250.488	99.4531	250.488	97.8584	250.488	99.0504	250.488	97.5024	250.488	98.6184	250.488	97.2182	250.488	98.1964	250.488	97.0363	250.488	97.8312	250.488	96.9754	250.488	97.5713	250.488	97.034	250.488	97.4531	250.488	97.1889	250.488	97.4833	250.488	97.4033	250.488	97.6276	250.488	97.6368	250.488	97.8211	250.488	97.8519	250.488	97.9945	250.488	98.0163	250.488	98.0965	250.488	98.1035
259.277	100.231	259.277	99.9974	259.277	100.378	259.277	99.6841	259.277	100.434	259.277	99.3076	259.277	100.403	259.277	98.8918	259.277	100.291	259.277	98.4672	259.277	100.106	259.277	98.0674	259.277	99.8555	259.277	97.7232	259.277	99.5488	259.277	97.4564	259.277	99.1964	259.277	97.2772	259.277	98.8144	259.277	97.1861	259.277	98.4307	259.277	97.1788	259.277	98.0883	259.277	97.2487	259.277	97.84	259.277	97.3853	259.277	97.7268	259.277	97.5698	259.277	97.7516	259.277	97.7734	259.277	97.8713	259.277	97.9611	259.277	98.0172	259.277	98.0977	259.277	98.1255	259.277	98.1563
268.066	100.141	268.066	99.9588	268.066	100.229	268.066	99.6821	268.066	100.228	268.066	99.3169	268.066	100.147	268.066	98.8776	268.066	99.9952	268.066	98.3893	268.066	99.7875	268.066	97.8895	268.066	99.542	268.066	97.4263	268.066	99.2812	268.066	97.0485	268.066	99.0275	268.066	96.7896	268.066	98.7972	268.066	96.6549	268.066	98.5965	268.066	96.6252	268.066	98.4223	268.066	96.6724	268.066	98.2682	268.066	96.7747	268.066	98.1305	268.066	96.9191	268.066	98.0102	268.066	97.0938	268.066	97.9086	268.066	97.2816	268.066	97.8193	268.066	97.46	268.066	97.7263	268.066	97.61
276.855	99.9405	276.855	99.7578	276.855	100.045	276.855	99.5109	276.855	100.061	276.855	99.2115	276.855	99.9792	276.855	98.8672	276.855	99.8008	276.855	98.4797	276.855	99.537	276.855	98.0486	276.855	99.2125	276.855	97.5798	276.855	98.8653	276.855	97.0961	276.855	98.5427	276.855	96.6464	276.855	98.2915	276.855	96.3011	276.855	98.1434	276.855	96.1273	276.855	98.101	276.855	96.1511	276.855	98.1355	276.855	96.3415	276.855	98.1988	276.855	96.6323	276.855	98.2428	276.855	96.959	276.855	98.2346	276.855	97.2787	276.855	98.1596	276.855	97.569	276.855	98.0183	276.855	97.8184
287.109	99.51	287.109	99.4028	287.109	99.5409	287.109	99.2184	287.109	99.5033	287.109	98.9627	287.109	99.4111	287.109	98.6487	287.109	99.2814	287.109	98.2965	287.109	99.132	287.109	97.9337	287.109	98.9759	287.109	97.5939	287.109	98.8178	287.109	97.3115	287.109	98.6536	287.109	97.1141	287.109	98.4798	287.109	97.0154	287.109	98.3094	287.109	97.0132	287.109	98.1817	287.109	97.0939	287.109	98.1464	287.109	97.2402	287.109	98.2215	287.109	97.4358	287.109	98.3663	287.109	97.6663	287.109	98.5027	287.109	97.9153	287.109	98.5628	287.109	98.1609	287.109	98.517	287.109	98.3731
297.363	100.513	297.363	100.47	297.363	100.437	297.363	100.314	297.363	100.237	297.363	100.056	297.363	99.9125	297.363	99.7089	297.363	99.4632	297.363	99.2864	297.363	98.897	297.363	98.8032	297.363	98.2435	297.363	98.276	297.363	97.5779	297.363	97.7317	297.363	97.0341	297.363	97.2163	297.363	96.7634	297.363	96.8	297.363	96.8288	297.363	96.5628	297.363	97.1447	297.363	96.5564	297.363	97.5516	297.363	96.7677	297.363	97.9221	297.363	97.1222	297.363	98.1976	297.363	97.5236	297.363	98.371	297.363	97.8916	297.363	98.4539	297.363	98.1781	297.363	98.4534	297.363	98.3647
307.617	100.274	307.617	100.293	307.617	100.16	307.617	100.207	307.617	99.955	307.617	100.008	307.617	99.6615	307.617	99.6941	307.617	99.2782	307.617	99.2695	307.617	98.8091	307.617	98.7527	307.617	98.2717	307.617	98.1792	307.617	97.7027	307.617	97.6036	307.617	97.1553	307.617	97.0971	307.617	96.6959	307.617	96.7328	307.617	96.3996	307.617	96.5609	307.617	96.3358	307.617	96.5855	307.617	96.5296	307.617	96.7665	307.617	96.9221	307.617	97.0425	307.617	97.3863	307.617	97.3555	307.617	97.7917	307.617	97.6593	307.617	98.0554	307.617	97.9172	307.617	98.151	307.617	98.0936
319.336	100.036	319.336	99.685	319.336	100.306	319.336	99.3008	319.336	100.456	319.336	98.9373	319.336	100.458	319.336	98.6369	319.336	100.294	319.336	98.4137	319.336	99.9542	319.336	98.2469	319.336	99.4379	319.336	98.0918	319.336	98.755	319.336	97.9054	319.336	97.9352	319.336	97.6712	319.336	97.049	319.336	97.4161	319.336	96.2373	319.336	97.2087	319.336	95.71	319.336	97.128	319.336	95.6477	319.336	97.2157	319.336	96.0461	319.336	97.4489	319.336	96.7074	319.336	97.7589	319.336	97.395	319.336	98.0661	319.336	97.9444	319.336	98.2967	319.336	98.2783	319.336	98.3854
329.59	100.019	329.59	99.7789	329.59	100.159	329.59	99.4558	329.59	100.188	329.59	99.0747	329.59	100.095	329.59	98.6706	329.59	99.8688	329.59	98.2863	329.59	99.5025	329.59	97.9604	329.59	98.9961	329.59	97.7085	329.59	98.3655	329.59	97.5111	329.59	97.6486	329.59	97.326	329.59	96.9081	329.59	97.1182	329.59	96.2351	329.59	96.8915	329.59	95.7434	329.59	96.6984	329.59	95.5368	329.59	96.618	329.59	95.6507	329.59	96.702	329.59	96.02	329.59	96.9275	329.59	96.5118	329.59	97.2024	329.59	96.9834	329.59	97.4132	329.59	97.3233	329.59	97.4689
341.309	100.506	341.309	100.263	341.309	100.648	341.309	99.9367	341.309	100.674	341.309	99.5392	341.309	100.572	341.309	99.0823	341.309	100.331	341.309	98.5761	341.309	99.9466	341.309	98.0372	341.309	99.423	341.309	97.5001	341.309	98.7735	341.309	97.0262	341.309	98.0268	341.309	96.6929	341.309	97.2348	341.309	96.5553	341.309	96.488	341.309	96.6073	341.309	95.9226	341.309	96.7869	341.309	95.6784	341.309	97.0173	341.309	95.7995	341.309	97.2425	341.309	96.1852	341.309	97.4321	341.309	96.6654	341.309	97.568	341.309	97.1004	341.309	97.6292	341.309	97.415	341.309	97.5874
353.027	100.246	353.027	100.058	353.027	100.329	353.027	99.7744	353.027	100.306	353.027	99.4149	353.027	100.183	353.027	99.0007	353.027	99.9685	353.027	98.5503	353.027	99.6686	353.027	98.0768	353.027	99.2867	353.027	97.5929	353.027	98.8254	353.027	97.1214	353.027	98.2878	353.027	96.705	353.027	97.6822	353.027	96.4068	353.027	97.0377	353.027	96.2887	353.027	96.434	353.027	96.374	353.027	96.0189	353.027	96.6258	353.027	95.9461	353.027	96.9648	353.027	96.2351	353.027	97.3074	353.027	96.7299	353.027	97.5869	353.027	97.2269	353.027	97.7528	353.027	97.589	353.027	97.7634
366.211	100.556	366.211	100.319	366.211	100.702	366.211	99.9963	366.211	100.751	366.211	99.5989	366.211	100.691	366.211	99.1438	366.211	100.505	366.211	98.6515	366.211	100.175	366.211	98.1387	366.211	99.6937	366.211	97.6122	366.211	99.0732	366.211	97.0744	366.211	98.3544	366.211	96.5473	366.211	97.6181	366.211	96.102	366.211	96.9836	366.211	95.8567	366.211	96.5672	366.211	95.9045	366.211	96.4095	366.211	96.2203	366.211	96.4556	366.211	96.6664	366.211	96.6195	366.211	97.0894	366.211	96.844	366.211	97.3879	366.211	97.0946	366.211	97.5201	366.211	97.3286	366.211	97.4887
379.395	100.705	379.395	100.483	379.395	100.84	379.395	100.173	379.395	100.887	379.395	99.7782	379.395	100.841	379.395	99.3059	379.395	100.691	379.395	98.7747	379.395	100.424	379.395	98.2191	379.395	100.029	379.395	97.6876	379.395	99.4931	379.395	97.2274	379.395	98.7975	379.395	96.8613	379.395	97.9254	379.395	96.5821	379.395	96.9123	379.395	96.3765	379.395	95.9641	379.395	96.2606	379.395	95.5212	379.395	96.2856	379.395	95.8761	379.395	96.4971	379.395	96.7148	379.395	96.8787	379.395	97.5248	379.395	97.3452	379.395	98.0408	379.395	97.7873	379.395	98.2176	379.395	98.1067
392.578	100.352	392.578	100.09	392.578	100.53	392.578	99.7536	392.578	100.611	392.578	99.3534	392.578	100.575	392.578	98.9056	392.578	100.403	392.578	98.4265	392.578	100.082	392.578	97.9272	392.578	99.6214	392.578	97.4124	392.578	99.0474	392.578	96.8882	392.578	98.4008	392.578	96.3783	392.578	97.7236	392.578	95.9405	392.578	97.0458	392.578	95.6641	392.578	96.3832	392.578	95.6264	392.578	95.7826	392.578	95.8327	392.578	95.4025	392.578	96.2086	392.578	95.4662	392.578	96.6482	392.578	95.9834	392.578	97.0534	392.578	96.6571	392.578	97.3337	392.578	97.1752	392.578	97.3987
405.762	100.277	405.762	100.083	405.762	100.37	405.762	99.8009	405.762	100.354	405.762	99.4343	405.762	100.224	405.762	98.9773	405.762	99.9981	405.762	98.4186	405.762	99.7038	405.762	97.7565	405.762	99.3696	405.762	97.0226	405.762	98.9987	405.762	96.3005	405.762	98.5558	405.762	95.7137	405.762	97.9821	405.762	95.3646	405.762	97.2434	405.762	95.2738	405.762	96.3981	405.762	95.3898	405.762	95.6478	405.762	95.6465	405.762	95.2702	405.762	95.9907	405.762	95.3865	405.762	96.3687	405.762	95.8399	405.762	96.7111	405.762	96.3684	405.762	96.9364	405.762	96.7773	405.762	96.9718
420.41	100.487	420.41	100.318	420.41	100.537	420.41	100.044	420.41	100.47	420.41	99.6886	420.41	100.305	420.41	99.2701	420.41	100.075	420.41	98.7982	420.41	99.8053	420.41	98.2679	420.41	99.5007	420.41	97.6641	420.41	99.1449	420.41	96.9794	420.41	98.7066	420.41	96.2431	420.41	98.1518	420.41	95.5521	420.41	97.4673	420.41	95.0695	420.41	96.7068	420.41	94.9459	420.41	96.0356	420.41	95.2	420.41	95.6887	420.41	95.702	420.41	95.7786	420.41	96.273	420.41	96.174	420.41	96.7647	420.41	96.641	420.41	97.0781	420.41	97.0019	420.41	97.1601
435.059	100.359	435.059	100.197	435.059	100.425	435.059	99.9385	435.059	100.407	435.059	99.5916	435.059	100.317	435.059	99.1695	435.059	100.152	435.059	98.6837	435.059	99.8975	435.059	98.1436	435.059	99.544	435.059	97.5617	435.059	99.1004	435.059	96.9631	435.059	98.5922	435.059	96.3942	435.059	98.044	435.059	95.9292	435.059	97.4739	435.059	95.66	435.059	96.9172	435.059	95.6576	435.059	96.4648	435.059	95.9189	435.059	96.2564	435.059	96.356	435.059	96.378	435.059	96.8433	435.059	96.7533	435.059	97.2688	435.059	97.1902	435.059	97.5526	435.059	97.5166	435.059	97.6433
451.172	100.489	451.172	100.24	451.172	100.646	451.172	99.8984	451.172	100.706	451.172	99.4641	451.172	100.646	451.172	98.9444	451.172	100.433	451.172	98.3509	451.172	100.048	451.172	97.6924	451.172	99.5039	451.172	96.9685	451.172	98.8496	451.172	96.1722	451.172	98.149	451.172	95.3133	451.172	97.4486	451.172	94.4611	451.172	96.7444	451.172	93.7854	451.172	95.9836	451.172	93.5146	451.172	95.1606	451.172	93.7628	451.172	94.4852	451.172	94.4097	451.172	94.3746	451.172	95.2138	451.172	94.9519	451.172	95.958	451.172	95.7893	451.172	96.4806	451.172	96.426	451.172	96.6614
465.82	100.418	465.82	100.173	465.82	100.522	465.82	99.7993	465.82	100.491	465.82	99.3205	465.82	100.342	465.82	98.767	465.82	100.099	465.82	98.1573	465.82	99.7843	465.82	97.4857	465.82	99.4033	465.82	96.7306	465.82	98.9385	465.82	95.8849	465.82	98.3617	465.82	94.9938	465.82	97.6705	465.82	94.185	465.82	96.9257	465.82	93.6651	465.82	96.2468	465.82	93.6296	465.82	95.7402	465.82	94.0971	465.82	95.4418	465.82	94.8704	465.82	95.3742	465.82	95.6885	465.82	95.591	465.82	96.3538	465.82	96.0479	465.82	96.7454	465.82	96.5291	465.82	96.8013
483.398	100.221	483.398	100.067	483.398	100.25	483.398	99.7925	483.398	100.162	483.398	99.4168	483.398	99.9709	483.398	98.967	483.398	99.6849	483.398	98.4651	483.398	99.3127	483.398	97.9141	483.398	98.8772	483.398	97.2923	483.398	98.4188	483.398	96.5629	483.398	97.9654	483.398	95.7016	483.398	97.4949	483.398	94.7451	483.398	96.9528	483.398	93.856	483.398	96.3399	483.398	93.3202	483.398	95.7926	483.398	93.3405	483.398	95.5167	483.398	93.8289	483.398	95.5683	483.398	94.533	483.398	95.7971	483.398	95.2323	483.398	96.0271	483.398	95.7765	483.398	96.1491	483.398	96.0839
499.512	100.372	499.512	100.082	499.512	100.545	499.512	99.6873	499.512	100.588	499.512	99.211	499.512	100.489	499.512	98.6935	499.512	100.245	499.512	98.1848	499.512	99.8665	499.512	97.7188	499.512	99.3752	499.512	97.2852	499.512	98.789	499.512	96.8227	499.512	98.1224	499.512	96.2515	499.512	97.4026	499.512	95.5329	499.512	96.6828	499.512	94.7337	499.512	96.0445	499.512	94.065	499.512	95.5993	499.512	93.8135	499.512	95.4645	499.512	94.118	499.512	95.6763	499.512	94.8283	499.512	96.1171	499.512	95.6533	499.512	96.5675	499.512	96.3465	499.512	96.8214	499.512	96.7566
517.09	100.279	517.09	100.121	517.09	100.273	517.09	99.7874	517.09	100.153	517.09	99.3219	517.09	99.9807	517.09	98.8175	517.09	99.793	517.09	98.3872	517.09	99.5846	517.09	98.0939	517.09	99.3273	517.09	97.8875	517.09	99.0018	517.09	97.6174	517.09	98.6016	517.09	97.1195	517.09	98.0979	517.09	96.3044	517.09	97.4113	517.09	95.2267	517.09	96.4617	517.09	94.1716	517.09	95.3487	517.09	93.6689	517.09	94.6004	517.09	94.0809	517.09	94.8601	517.09	95.1292	517.09	95.8723	517.09	96.2707	517.09	96.8833	517.09	97.143	517.09	97.4866	517.09	97.572
536.133	100.52	536.133	100.177	536.133	100.611	536.133	99.6186	536.133	100.444	536.133	98.9006	536.133	100.04	536.133	98.0998	536.133	99.452	536.133	97.3198	536.133	98.7623	536.133	96.6977	536.133	98.0948	536.133	96.3611	536.133	97.6188	536.133	96.3031	536.133	97.4745	536.133	96.3317	536.133	97.6206	536.133	96.22	536.133	97.7924	536.133	95.8656	536.133	97.6665	536.133	95.3476	536.133	97.0563	536.133	94.9339	536.133	96.0911	536.133	94.9509	536.133	95.4119	536.133	95.4667	536.133	95.6725	536.133	96.2183	536.133	96.478	536.133	96.879	536.133	97.0874	536.133	97.2152
555.176	101.023	555.176	100.691	555.176	101.146	555.176	100.132	555.176	101.103	555.176	99.3842	555.176	100.916	555.176	98.5408	555.176	100.557	555.176	97.7333	555.176	100.002	555.176	97.0879	555.176	99.2774	555.176	96.6586	555.176	98.4456	555.176	96.3833	555.176	97.5449	555.176	96.1268	555.176	96.6284	555.176	95.7785	555.176	95.9374	555.176	95.3319	555.176	95.8109	555.176	94.9029	555.176	96.1118	555.176	94.651	555.176	96.3024	555.176	94.659	555.176	96.1377	555.176	94.9172	555.176	95.8803	555.176	95.3593	555.176	95.9074	555.176	95.8366	555.176	96.1151	555.176	96.1341
574.219	100.954	574.219	100.509	574.219	101.198	574.219	99.9098	574.219	101.215	574.219	99.211	574.219	100.989	574.219	98.4518	574.219	100.531	574.219	97.6438	574.219	99.8931	574.219	96.8173	574.219	99.1781	574.219	96.0941	574.219	98.4967	574.219	95.6411	574.219	97.8997	574.219	95.4582	574.219	97.356	574.219	95.3339	574.219	96.8295	574.219	95.0817	574.219	96.3727	574.219	94.7158	574.219	96.1036	574.219	94.4835	574.219	96.0777	574.219	94.7332	574.219	96.2655	574.219	95.5229	574.219	96.6365	574.219	96.496	574.219	97.1156	574.219	97.2565	574.219	97.5111	574.219	97.601
594.727	101.23	594.727	100.839	594.727	101.353	594.727	100.176	594.727	101.221	594.727	99.2893	594.727	100.847	594.727	98.2964	594.727	100.264	594.727	97.3371	594.727	99.5394	594.727	96.455	594.727	98.7618	594.727	95.5612	594.727	98.0441	594.727	94.6003	594.727	97.4995	594.727	93.7563	594.727	97.1162	594.727	93.3522	594.727	96.7126	594.727	93.414	594.727	96.1039	594.727	93.6411	594.727	95.3361	594.727	93.877	594.727	94.8483	594.727	94.3192	594.727	95.2224	594.727	95.2089	594.727	96.3419	594.727	96.3949	594.727	97.4788	594.727	97.4676	594.727	98.1181	594.727	98.1003
615.234	101.452	615.234	101.004	615.234	101.704	615.234	100.375	615.234	101.753	615.234	99.6011	615.234	101.595	615.234	98.7219	615.234	101.229	615.234	97.757	615.234	100.656	615.234	96.7103	615.234	99.8932	615.234	95.6326	615.234	98.9955	615.234	94.6827	615.234	98.0838	615.234	94.0554	615.234	97.3449	615.234	93.7648	615.234	96.9833	615.234	93.5879	615.234	97.0183	615.234	93.3289	615.234	97.1293	615.234	93.0952	615.234	96.9269	615.234	93.2818	615.234	96.3388	615.234	94.0995	615.234	95.8042	615.234	95.224	615.234	95.8883	615.234	96.1512	615.234	96.3598	615.234	96.5515
637.207	98.7096	637.207	97.8565	637.207	99.3486	637.207	96.8359	637.207	99.7624	637.207	95.7304	637.207	99.9773	637.207	94.6745	637.207	100.011	637.207	93.82	637.207	99.8163	637.207	93.2236	637.207	99.3287	637.207	92.7853	637.207	98.5885	637.207	92.343	637.207	97.7746	637.207	91.8169	637.207	97.0788	637.207	91.2317	637.207	96.5873	637.207	90.6161	637.207	96.3532	637.207	89.9686	637.207	96.4426	637.207	89.4503	637.207	96.7548	637.207	89.5835	637.207	97.0242	637.207	90.7559	637.207	97.0772	637.207	92.5395	637.207	96.8892	637.207	94.2646	637.207	96.4282	637.207	95.5828
659.18	98.3556	659.18	98.183	659.18	98.3841	659.18	97.8662	659.18	98.2813	659.18	97.4374	659.18	98.0334	659.18	96.9253	659.18	97.6083	659.18	96.3156	659.18	97.0164	659.18	95.5903	659.18	96.3404	659.18	94.8245	659.18	95.6576	659.18	94.1816	659.18	94.926	659.18	93.7357	659.18	94.0415	659.18	93.3664	659.18	93.0413	659.18	92.9235	659.18	92.1222	659.18	92.4106	659.18	91.4777	659.18	91.9461	659.18	91.4644	659.18	91.675	659.18	92.4091	659.18	91.8263	659.18	93.751	659.18	92.5816	659.18	94.7088	659.18	93.6815	659.18	94.9899	659.18	94.6003
682.617	99.6159	682.617	99.3771	682.617	99.6514	682.617	98.9386	682.617	99.4752	682.617	98.2911	682.617	99.0794	682.617	97.4316	682.617	98.4584	682.617	96.4321	682.617	97.6263	682.617	95.4811	682.617	96.7016	682.617	94.7493	682.617	96.0142	682.617	94.221	682.617	95.8622	682.617	93.8126	682.617	95.9366	682.617	93.5504	682.617	95.5933	682.617	93.4582	682.617	94.665	682.617	93.3815	682.617	93.7835	682.617	93.1661	682.617	93.5959	682.617	92.9459	682.617	93.7086	682.617	93.1081	682.617	93.8384	682.617	93.8201	682.617	94.3269	682.617	94.694	682.617	94.9828	682.617	95.1747
707.52	99.9188	707.52	99.5588	707.52	100.148	707.52	99.0589	707.52	100.197	707.52	98.4256	707.52	99.9624	707.52	97.7284	707.52	99.3743	707.52	97.0416	707.52	98.4537	707.52	96.3693	707.52	97.2898	707.52	95.7081	707.52	96.0022	707.52	95.1058	707.52	94.7754	707.52	94.4767	707.52	93.8364	707.52	93.553	707.52	93.1473	707.52	92.2373	707.52	92.2881	707.52	90.9664	707.52	91.136	707.52	90.6122	707.52	90.71	707.52	91.3032	707.52	91.7538	707.52	92.3206	707.52	93.1391	707.52	93.2869	707.52	94.1203	707.52	94.1077	707.52	94.6152	707.52	94.6046
732.422	99.2913	732.422	98.9675	732.422	99.3995	732.422	98.5156	732.422	99.2553	732.422	98.0366	732.422	98.8769	732.422	97.5724	732.422	98.2897	732.422	97.037	732.422	97.5044	732.422	96.2699	732.422	96.5844	732.422	95.1897	732.422	95.6374	732.422	93.9833	732.422	94.6483	732.422	93.1537	732.422	93.5588	732.422	92.996	732.422	92.832	732.422	93.0918	732.422	92.9347	732.422	92.8441	732.422	92.9931	732.422	92.1434	732.422	92.1596	732.422	91.4993	732.422	91.1635	732.422	91.5941	732.422	91.9761	732.422	92.4247	732.422	93.5331	732.422	93.4282	732.422	94.2767	732.422	94.1458
757.324	99.5864	757.324	99.2673	757.324	99.8029	757.324	98.8599	757.324	99.8671	757.324	98.3537	757.324	99.6794	757.324	97.7047	757.324	99.1321	757.324	96.8633	757.324	98.1924	757.324	95.8149	757.324	96.9614	757.324	94.5491	757.324	95.7523	757.324	93.0661	757.324	95.0425	757.324	91.6498	757.324	94.7716	757.324	91.0624	757.324	94.1727	757.324	91.3864	757.324	92.9569	757.324	91.6215	757.324	92.1531	757.324	91.347	757.324	92.5541	757.324	91.1269	757.324	93.1043	757.324	91.7653	757.324	93.3932	757.324	93.0522	757.324	93.8725	757.324	94.1705	757.324	94.4756	757.324	94.6668
785.156	100.111	785.156	99.6277	785.156	100.355	785.156	99.0228	785.156	100.325	785.156	98.4906	785.156	99.9853	785.156	98.0804	785.156	99.3338	785.156	97.5548	785.156	98.5057	785.156	96.6341	785.156	97.6729	785.156	95.3528	785.156	96.7592	785.156	94.0634	785.156	95.6217	785.156	92.9909	785.156	94.5443	785.156	91.9436	785.156	93.8778	785.156	90.8092	785.156	93.1702	785.156	90.1379	785.156	91.6178	785.156	90.2979	785.156	89.6197	785.156	90.6886	785.156	90.1048	785.156	90.9775	785.156	92.0609	785.156	91.6564	785.156	93.2159	785.156	92.7486	785.156	93.6409	785.156	93.5139
811.523	100.519	811.523	100.314	811.523	100.626	811.523	99.9314	811.523	100.616	811.523	99.3165	811.523	100.378	811.523	98.506	811.523	99.8857	811.523	97.621	811.523	99.2287	811.523	96.7123	811.523	98.3728	811.523	95.6985	811.523	97.1863	811.523	94.6924	811.523	95.7332	811.523	93.9708	811.523	94.3649	811.523	93.3995	811.523	93.7461	811.523	92.4342	811.523	94.1047	811.523	90.8717	811.523	94.1227	811.523	89.6424	811.523	92.6045	811.523	90.0983	811.523	90.258	811.523	91.4343	811.523	91.3605	811.523	92.6535	811.523	93.8003	811.523	93.7053	811.523	94.771	811.523	94.5386
840.82	100.539	840.82	100.155	840.82	100.627	840.82	99.7017	840.82	100.379	840.82	99.3511	840.82	99.9649	840.82	98.9675	840.82	99.4956	840.82	98.1811	840.82	98.8051	840.82	96.7767	840.82	97.8059	840.82	95.0746	840.82	96.8775	840.82	93.8675	840.82	96.3274	840.82	93.478	840.82	95.7295	840.82	93.3051	840.82	94.4762	840.82	92.824	840.82	92.64	840.82	92.1196	840.82	91.4632	840.82	91.4673	840.82	91.6671	840.82	90.9437	840.82	91.848	840.82	90.7344	840.82	91.72	840.82	91.3346	840.82	92.5455	840.82	92.6303	840.82	93.6413	840.82	93.6692
870.117	100.703	870.117	100.525	870.117	100.477	870.117	99.9177	870.117	99.9408	870.117	98.9528	870.117	99.2097	870.117	97.7036	870.117	98.502	870.117	96.2923	870.117	97.9811	870.117	94.971	870.117	97.2934	870.117	93.8339	870.117	95.9993	870.117	92.9356	870.117	94.5871	870.117	92.5361	870.117	94.0837	870.117	92.5631	870.117	94.2588	870.117	92.2529	870.117	94.1069	870.117	90.9114	870.117	93.1444	870.117	88.6615	870.117	91.2316	870.117	87.2756	870.117	89.2722	870.117	88.6712	870.117	90.3931	870.117	90.9179	870.117	92.5097	870.117	92.5585	870.117	93.4233	870.117	93.3753
900.879	100.546	900.879	100.24	900.879	100.549	900.879	99.7255	900.879	100.22	900.879	99.0079	900.879	99.6604	900.879	97.8262	900.879	99.0164	900.879	95.8421	900.879	98.2256	900.879	93.2012	900.879	97.1033	900.879	91.1188	900.879	95.6459	900.879	90.6834	900.879	93.9609	900.879	90.7918	900.879	92.2832	900.879	90.3596	900.879	91.1105	900.879	90.1088	900.879	91.0325	900.879	90.8321	900.879	91.9799	900.879	91.5509	900.879	92.7125	900.879	91.0938	900.879	92.2725	900.879	89.9086	900.879	91.3929	900.879	90.4434	900.879	92.2785	900.879	92.4632	900.879	93.6965	900.879	93.8053
933.105	100.073	933.105	99.8235	933.105	99.9527	933.105	99.3022	933.105	99.515	933.105	98.4598	933.105	98.9122	933.105	97.1358	933.105	97.9815	933.105	95.4458	933.105	96.6775	933.105	93.9168	933.105	95.6204	933.105	92.702	933.105	95.1189	933.105	91.2465	933.105	94.4543	933.105	89.6117	933.105	93.3109	933.105	88.8274	933.105	92.4149	933.105	88.8083	933.105	92.2199	933.105	88.3588	933.105	91.8137	933.105	87.5444	933.105	90.3636	933.105	87.3968	933.105	88.864	933.105	88.0495	933.105	89.1117	933.105	89.5193	933.105	90.3152	933.105	91.3453	933.105	91.6435	933.105	92.2032
965.332	100.716	965.332	100.516	965.332	100.654	965.332	99.965	965.332	100.31	965.332	99.0068	965.332	99.5285	965.332	97.5659	965.332	98.4571	965.332	95.6289	965.332	97.565	965.332	93.447	965.332	96.704	965.332	91.6562	965.332	95.2188	965.332	90.9949	965.332	93.3064	965.332	91.1779	965.332	91.965	965.332	90.9836	965.332	91.1899	965.332	89.7554	965.332	90.5345	965.332	88.4974	965.332	90.9008	965.332	89.1166	965.332	91.7564	965.332	90.4492	965.332	91.8049	965.332	90.7601	965.332	91.3599	965.332	90.4706	965.332	91.6754	965.332	91.4393	965.332	92.5771	965.332	92.6622
1,000.49	100.751	1,000.49	100.145	1,000.49	100.995	1,000.49	99.409	1,000.49	100.85	1,000.49	98.5345	1,000.49	100.34	1,000.49	96.9162	1,000.49	99.5011	1,000.49	93.7469	1,000.49	98.7296	1,000.49	89.1451	1,000.49	98.0724	1,000.49	86.2375	1,000.49	96.7977	1,000.49	87.5302	1,000.49	94.8265	1,000.49	89.092	1,000.49	93.1433	1,000.49	89.0838	1,000.49	92.4656	1,000.49	87.6835	1,000.49	92.6786	1,000.49	85.0435	1,000.49	92.4777	1,000.49	83.5622	1,000.49	91.0701	1,000.49	86.1371	1,000.49	88.8422	1,000.49	88.5767	1,000.49	88.902	1,000.49	90.5983	1,000.49	91.294	1,000.49	92.5946	1,000.49	93.0396	1,000.49	93.5596
1,035.64	96.5344	1,035.64	95.9418	1,035.64	97.1329	1,035.64	94.0325	1,035.64	98.4053	1,035.64	89.8977	1,035.64	99.2675	1,035.64	84.4551	1,035.64	99.2929	1,035.64	84.0567	1,035.64	99.3066	1,035.64	86.8934	1,035.64	99.0023	1,035.64	87.381	1,035.64	97.7291	1,035.64	86.1819	1,035.64	96.842	1,035.64	82.019	1,035.64	97.2503	1,035.64	72.2022	1,035.64	97.0202	1,035.64	77.9186	1,035.64	95.4687	1,035.64	78.7862	1,035.64	94.9623	1,035.64	79.2363	1,035.64	95.1807	1,035.64	78.9792	1,035.64	94.2548	1,035.64	70.142	1,035.64	92.8868	1,035.64	81.7591	1,035.64	92.691	1,035.64	89.3213	1,035.64	92.7268	1,035.64	92.1145
1,072.27	93.9546	1,072.27	94.0596	1,072.27	94.8977	1,072.27	95.1241	1,072.27	95.8949	1,072.27	96.2213	1,072.27	96.1836	1,072.27	96.6771	1,072.27	95.8583	1,072.27	96.2659	1,072.27	96.1949	1,072.27	95.4517	1,072.27	97.2068	1,072.27	95.3796	1,072.27	96.6423	1,072.27	95.3836	1,072.27	94.1443	1,072.27	93.4082	1,072.27	92.9953	1,072.27	90.0154	1,072.27	94.3176	1,072.27	89.8879	1,072.27	94.7822	1,072.27	90.917	1,072.27	93.48	1,072.27	89.5596	1,072.27	91.326	1,072.27	86.8626	1,072.27	90.503	1,072.27	87.0844	1,072.27	90.9664	1,072.27	85.5993	1,072.27	89.563	1,072.27	77.4153	1,072.27	87.3583	1,072.27	84.2327
1,108.89	98.0154	1,108.89	98.6949	1,108.89	97.6653	1,108.89	99.152	1,108.89	97.4246	1,108.89	98.9178	1,108.89	96.5556	1,108.89	98.2146	1,108.89	94.958	1,108.89	97.5731	1,108.89	93.2957	1,108.89	96.8506	1,108.89	91.8956	1,108.89	95.2944	1,108.89	90.9652	1,108.89	93.5154	1,108.89	91.0778	1,108.89	92.5774	1,108.89	90.6814	1,108.89	91.978	1,108.89	88.0317	1,108.89	91.4803	1,108.89	87.4133	1,108.89	92.1253	1,108.89	89.252	1,108.89	91.6826	1,108.89	90.5451	1,108.89	89.7221	1,108.89	90.7691	1,108.89	88.7096	1,108.89	88.8271	1,108.89	89.2333	1,108.89	85.8739	1,108.89	88.1757	1,108.89	85.1787	1,108.89	86.017
1,148.44	97.6958	1,148.44	97.7903	1,148.44	97.6808	1,148.44	97.8616	1,148.44	97.5503	1,148.44	96.9779	1,148.44	97.4355	1,148.44	94.8773	1,148.44	97.1821	1,148.44	93.8605	1,148.44	96.4849	1,148.44	94.9994	1,148.44	95.4233	1,148.44	94.7902	1,148.44	93.3163	1,148.44	91.9852	1,148.44	90.0942	1,148.44	90.227	1,148.44	88.8719	1,148.44	90.4783	1,148.44	88.8253	1,148.44	88.9388	1,148.44	88.5511	1,148.44	87.4477	1,148.44	90.2875	1,148.44	89.3129	1,148.44	90.2729	1,148.44	89.6122	1,148.44	88.2945	1,148.44	87.5165	1,148.44	90.1948	1,148.44	88.0259	1,148.44	90.12	1,148.44	88.9533	1,148.44	88.0899	1,148.44	88.1784
1,189.45	98.258	1,189.45	98.6222	1,189.45	97.9581	1,189.45	98.6575	1,189.45	97.5164	1,189.45	98.3218	1,189.45	96.2222	1,189.45	97.8561	1,189.45	94.2854	1,189.45	96.8292	1,189.45	93.0707	1,189.45	94.3231	1,189.45	93.0978	1,189.45	91.8048	1,189.45	92.9556	1,189.45	90.9123	1,189.45	92.2775	1,189.45	89.9119	1,189.45	90.9133	1,189.45	88.6397	1,189.45	88.6012	1,189.45	89.6785	1,189.45	85.9659	1,189.45	91.0118	1,189.45	85.8436	1,189.45	90.5764	1,189.45	88.6131	1,189.45	88.2865	1,189.45	89.885	1,189.45	85.4291	1,189.45	88.0365	1,189.45	84.9741	1,189.45	87.1177	1,189.45	86.8905	1,189.45	88.3714	1,189.45	88.188
1,230.47	100.02	1,230.47	99.9574	1,230.47	99.699	1,230.47	99.4963	1,230.47	98.8673	1,230.47	98.6108	1,230.47	97.4462	1,230.47	97.4392	1,230.47	95.3245	1,230.47	96.0756	1,230.47	93.4259	1,230.47	94.3136	1,230.47	92.8487	1,230.47	92.4794	1,230.47	91.6365	1,230.47	90.4926	1,230.47	87.8259	1,230.47	87.1109	1,230.47	85.1277	1,230.47	85.1055	1,230.47	84.9664	1,230.47	86.9454	1,230.47	82.5587	1,230.47	88.1873	1,230.47	86.0675	1,230.47	88.943	1,230.47	88.6386	1,230.47	89.4157	1,230.47	87.425	1,230.47	88.8501	1,230.47	85.4211	1,230.47	88.2969	1,230.47	86.7934	1,230.47	88.4863	1,230.47	87.5372	1,230.47	88.0274
1,274.41	100.763	1,274.41	100.329	1,274.41	100.253	1,274.41	99.0122	1,274.41	99.1129	1,274.41	97.3487	1,274.41	97.706	1,274.41	96.0182	1,274.41	96.1228	1,274.41	95.0678	1,274.41	94.5758	1,274.41	93.5893	1,274.41	93.1621	1,274.41	90.7086	1,274.41	91.9164	1,274.41	87.8436	1,274.41	90.5591	1,274.41	87.2833	1,274.41	88.1802	1,274.41	86.4192	1,274.41	84.5578	1,274.41	81.5555	1,274.41	83.7576	1,274.41	84.1913	1,274.41	85.6364	1,274.41	87.6645	1,274.41	83.6446	1,274.41	88.5237	1,274.41	84.1792	1,274.41	86.3123	1,274.41	87.9459	1,274.41	84.092	1,274.41	87.8602	1,274.41	87.0072	1,274.41	88.6166	1,274.41	89.2721
1,319.82	101.098	1,319.82	100.996	1,319.82	100.825	1,319.82	99.7861	1,319.82	100.325	1,319.82	97.7786	1,319.82	99.24	1,319.82	96.2747	1,319.82	97.4124	1,319.82	94.8899	1,319.82	94.3485	1,319.82	92.0081	1,319.82	92.1368	1,319.82	87.256	1,319.82	92.3821	1,319.82	83.2968	1,319.82	90.2435	1,319.82	84.6898	1,319.82	85.751	1,319.82	85.616	1,319.82	84.0869	1,319.82	81.9627	1,319.82	85.3785	1,319.82	79.1429	1,319.82	82.3055	1,319.82	85.9794	1,319.82	87.3611	1,319.82	88.3259	1,319.82	89.2242	1,319.82	86.0879	1,319.82	87.4005	1,319.82	81.628	1,319.82	87.1312	1,319.82	87.7429	1,319.82	89.4089	1,319.82	90.5726
1,366.7	101.352	1,366.7	100.989	1,366.7	101.312	1,366.7	99.7391	1,366.7	100.842	1,366.7	97.9458	1,366.7	99.6523	1,366.7	97.2468	1,366.7	97.0675	1,366.7	96.5298	1,366.7	94.4269	1,366.7	93.2193	1,366.7	93.1931	1,366.7	88.8224	1,366.7	91.7948	1,366.7	85.0877	1,366.7	91.2277	1,366.7	79.4347	1,366.7	89.9845	1,366.7	84.4086	1,366.7	86.5935	1,366.7	86.8729	1,366.7	82.0119	1,366.7	82.5262	1,366.7	83.0454	1,366.7	82.3185	1,366.7	87.735	1,366.7	88.0451	1,366.7	86.7747	1,366.7	89.8475	1,366.7	87.2206	1,366.7	89.6833	1,366.7	90.3835	1,366.7	87.8647	1,366.7	89.5558	1,366.7	88.0583
1,413.57	101.166	1,413.57	101.372	1,413.57	100.643	1,413.57	100.457	1,413.57	100.048	1,413.57	99.0768	1,413.57	98.8632	1,413.57	97.8105	1,413.57	96.8112	1,413.57	95.2349	1,413.57	93.7527	1,413.57	92.6044	1,413.57	91.8699	1,413.57	91.9243	1,413.57	90.4767	1,413.57	89.2496	1,413.57	87.4046	1,413.57	84.2289	1,413.57	86.6202	1,413.57	81.675	1,413.57	85.082	1,413.57	83.7041	1,413.57	78.3675	1,413.57	84.2147	1,413.57	83.7119	1,413.57	78.0922	1,413.57	81.9319	1,413.57	85.2448	1,413.57	84.8247	1,413.57	88.413	1,413.57	88.1602	1,413.57	87.1782	1,413.57	87.8929	1,413.57	83.053	1,413.57	88.1806	1,413.57	85.2546
1,463.38	101.24	1,463.38	101.106	1,463.38	101.263	1,463.38	100.461	1,463.38	100.508	1,463.38	99.0055	1,463.38	98.7401	1,463.38	97.2387	1,463.38	96.4111	1,463.38	94.7542	1,463.38	93.6373	1,463.38	90.7801	1,463.38	89.3263	1,463.38	90.3186	1,463.38	86.7034	1,463.38	88.8945	1,463.38	86.509	1,463.38	83.4752	1,463.38	84.293	1,463.38	85.5011	1,463.38	83.7224	1,463.38	85.4719	1,463.38	79.6521	1,463.38	79.9939	1,463.38	77.7091	1,463.38	77.5294	1,463.38	77.8881	1,463.38	80.3229	1,463.38	84.9415	1,463.38	83.2409	1,463.38	86.019	1,463.38	84.5642	1,463.38	86.679	1,463.38	87.0707	1,463.38	87.7067	1,463.38	87.988
1,516.11	100.622	1,516.11	100.013	1,516.11	100.483	1,516.11	99.2304	1,516.11	99.6809	1,516.11	98.5407	1,516.11	98.1462	1,516.11	95.7223	1,516.11	95.8978	1,516.11	90.9545	1,516.11	92.9787	1,516.11	89.4765	1,516.11	88.7923	1,516.11	88.4181	1,516.11	84.7362	1,516.11	84.7469	1,516.11	83.9442	1,516.11	79.842	1,516.11	83.2676	1,516.11	79.8866	1,516.11	80.4048	1,516.11	83.4231	1,516.11	80.7857	1,516.11	85.6777	1,516.11	71.8453	1,516.11	83.2639	1,516.11	82.1173	1,516.11	78.7808	1,516.11	86.3715	1,516.11	82.6225	1,516.11	82.8098	1,516.11	85.5715	1,516.11	85.6571	1,516.11	84.6549	1,516.11	87.3862	1,516.11	85.5965
1,568.85	100.074	1,568.85	98.873	1,568.85	99.817	1,568.85	97.9749	1,568.85	98.6766	1,568.85	97.7053	1,568.85	97.3623	1,568.85	95.134	1,568.85	95.4323	1,568.85	91.1041	1,568.85	92.3864	1,568.85	89.3924	1,568.85	88.5487	1,568.85	86.0822	1,568.85	84.7429	1,568.85	79.1741	1,568.85	82.0695	1,568.85	72.2692	1,568.85	79.1902	1,568.85	68.3869	1,568.85	74.0526	1,568.85	80.5087	1,568.85	78.2862	1,568.85	81.6307	1,568.85	73.1525	1,568.85	80.9902	1,568.85	78.5152	1,568.85	78.3579	1,568.85	75.6735	1,568.85	82.4769	1,568.85	81.7186	1,568.85	84.8638	1,568.85	85.9219	1,568.85	82.2721	1,568.85	87.0308	1,568.85	83.6291
1,624.51	100.212	1,624.51	99.1668	1,624.51	100.058	1,624.51	98.0988	1,624.51	98.3825	1,624.51	96.9939	1,624.51	96.1662	1,624.51	94.2212	1,624.51	94.0148	1,624.51	91.3123	1,624.51	90.5354	1,624.51	89.9607	1,624.51	86.2216	1,624.51	84.2149	1,624.51	81.6696	1,624.51	78.8119	1,624.51	79.1304	1,624.51	76.5895	1,624.51	78.9942	1,624.51	63.3787	1,624.51	72.6336	1,624.51	73.7279	1,624.51	67.6099	1,624.51	79.1234	1,624.51	64.3397	1,624.51	80.6222	1,624.51	78.0318	1,624.51	76.9911	1,624.51	72.4758	1,624.51	77.2523	1,624.51	82.5333	1,624.51	83.1917	1,624.51	82.8567	1,624.51	84.7642	1,624.51	83.8912	1,624.51	84.4226
1,681.64	100.67	1,681.64	99.793	1,681.64	100.371	1,681.64	98.3762	1,681.64	98.4886	1,681.64	96.0355	1,681.64	95.3655	1,681.64	92.9396	1,681.64	91.9092	1,681.64	91.5364	1,681.64	87.7072	1,681.64	88.2567	1,681.64	82.9575	1,681.64	80.7627	1,681.64	80.3735	1,681.64	78.1815	1,681.64	79.1246	1,681.64	64.0568	1,681.64	81.6124	1,681.64	71.5714	1,681.64	74.4781	1,681.64	71.6619	1,681.64	73.8215	1,681.64	73.6504	1,681.64	71.361	1,681.64	75.6237	1,681.64	77.5537	1,681.64	77.174	1,681.64	76.2333	1,681.64	79.118	1,681.64	81.07	1,681.64	83.7713	1,681.64	81.5321	1,681.64	84.9955	1,681.64	84.1692	1,681.64	84.3511
1,741.7	100.7	1,741.7	100.34	1,741.7	100.2	1,741.7	98.7412	1,741.7	98.7948	1,741.7	95.5277	1,741.7	95.5205	1,741.7	92.8346	1,741.7	90.4841	1,741.7	90.7338	1,741.7	85.9141	1,741.7	84.7041	1,741.7	80.7898	1,741.7	80.5901	1,741.7	76.7314	1,741.7	75.4923	1,741.7	79.1542	1,741.7	76.76	1,741.7	80.4215	1,741.7	76.6561	1,741.7	76.8613	1,741.7	77.9709	1,741.7	77.5138	1,741.7	70.1265	1,741.7	78.1362	1,741.7	60.7189	1,741.7	57.7897	1,741.7	66.9094	1,741.7	78.2698	1,741.7	80.0918	1,741.7	78.8856	1,741.7	80.2523	1,741.7	80.7056	1,741.7	79.841	1,741.7	84.2235	1,741.7	85.2111
1,803.22	100.07	1,803.22	99.9902	1,803.22	99.9217	1,803.22	98.3589	1,803.22	99.0762	1,803.22	95.0294	1,803.22	95.3642	1,803.22	92.2319	1,803.22	90.5798	1,803.22	89.1904	1,803.22	84.0165	1,803.22	83.9636	1,803.22	75.716	1,803.22	77.4763	1,803.22	80.1777	1,803.22	68.0016	1,803.22	82.0779	1,803.22	72.2516	1,803.22	83.0588	1,803.22	71.2857	1,803.22	83.2475	1,803.22	75.403	1,803.22	79.9667	1,803.22	73.3534	1,803.22	79.0511	1,803.22	70.0996	1,803.22	77.7869	1,803.22	74.6561	1,803.22	77.8789	1,803.22	71.8041	1,803.22	77.7687	1,803.22	66.2975	1,803.22	80.9903	1,803.22	81.1681	1,803.22	85.3766	1,803.22	85.1357
1,866.21	98.9813	1,866.21	99.1214	1,866.21	99.0366	1,866.21	98.1243	1,866.21	98.1372	1,866.21	95.1399	1,866.21	95.3704	1,866.21	91.0515	1,866.21	88.5146	1,866.21	87.248	1,866.21	80.7718	1,866.21	83.7713	1,866.21	70.2341	1,866.21	73.2407	1,866.21	74.5804	1,866.21	66.1383	1,866.21	76.4612	1,866.21	67.6516	1,866.21	79.2398	1,866.21	73.3396	1,866.21	78.7389	1,866.21	61.1716	1,866.21	78.6707	1,866.21	66.7252	1,866.21	65.0976	1,866.21	74.1654	1,866.21	74.5177	1,866.21	72.6204	1,866.21	68.9613	1,866.21	66.8984	1,866.21	61.2082	1,866.21	77.7729	1,866.21	77.486	1,866.21	79.749	1,866.21	83.8556	1,866.21	81.9769
1,932.13	98.8366	1,932.13	98.1801	1,932.13	98.4468	1,932.13	96.6708	1,932.13	97.0963	1,932.13	94.8494	1,932.13	94.8334	1,932.13	88.838	1,932.13	88.4914	1,932.13	79.6345	1,932.13	75.2549	1,932.13	61.8958	1,932.13	59.4029	1,932.13	79.9143	1,932.13	75.7855	1,932.13	69.3335	1,932.13	79.9115	1,932.13	78.2766	1,932.13	81.4536	1,932.13	80.907	1,932.13	81.4108	1,932.13	80.9506	1,932.13	76.0323	1,932.13	76.262	1,932.13	71.0234	1,932.13	68.5865	1,932.13	78.8223	1,932.13	65.8944	1,932.13	79.5463	1,932.13	72.6993	1,932.13	71.8433	1,932.13	73.7786	1,932.13	77.8489	1,932.13	78.5138	1,932.13	81.3409	1,932.13	80.5489
1,999.51	99.8321	1,999.51	98.2216	1,999.51	99.4407	1,999.51	94.8375	1,999.51	98.0487	1,999.51	92.21	1,999.51	94.1935	1,999.51	87.5103	1,999.51	82.7235	1,999.51	84.7338	1,999.51	74.7256	1,999.51	85.3684	1,999.51	85.9968	1,999.51	85.2962	1,999.51	85.3092	1,999.51	76.279	1,999.51	86.6177	1,999.51	78.3441	1,999.51	85.2146	1,999.51	72.7465	1,999.51	86.043	1,999.51	78.2863	1,999.51	79.511	1,999.51	79.2303	1,999.51	81.2952	1,999.51	83.2686	1,999.51	72.5332	1,999.51	76.273	1,999.51	82.1127	1,999.51	77.6109	1,999.51	74.9128	1,999.51	67.7687	1,999.51	78.6702	1,999.51	79.7679	1,999.51	84.9699	1,999.51	83.4247
2,069.82	99.8007	2,069.82	97.3944	2,069.82	99.8646	2,069.82	92.9125	2,069.82	98.5509	2,069.82	90.2836	2,069.82	93.4081	2,069.82	91.7238	2,069.82	87.6655	2,069.82	89.2595	2,069.82	83.0884	2,069.82	89.0555	2,069.82	84.9579	2,069.82	84.1216	2,069.82	88.4032	2,069.82	81.6286	2,069.82	92.5336	2,069.82	66.8227	2,069.82	90.9928	2,069.82	81.6792	2,069.82	91.7859	2,069.82	76.963	2,069.82	89.3241	2,069.82	81.0353	2,069.82	86.7464	2,069.82	87.1608	2,069.82	83.793	2,069.82	69.141	2,069.82	85.1464	2,069.82	80.9162	2,069.82	77.7441	2,069.82	73.9917	2,069.82	83.05	2,069.82	76.7684	2,069.82	85.2652	2,069.82	82.6209
2,143.07	98.7046	2,143.07	96.3694	2,143.07	99.5502	2,143.07	96.3052	2,143.07	98.6584	2,143.07	93.9219	2,143.07	95.2971	2,143.07	90.7223	2,143.07	93.2118	2,143.07	87.3015	2,143.07	80.97	2,143.07	78.9609	2,143.07	77.8786	2,143.07	72.8667	2,143.07	85.8257	2,143.07	75.7834	2,143.07	86.8192	2,143.07	80.5874	2,143.07	89.3559	2,143.07	84.5055	2,143.07	90.0868	2,143.07	81.5606	2,143.07	91.5954	2,143.07	84.2706	2,143.07	82.8755	2,143.07	85.9712	2,143.07	84.6386	2,143.07	74.4941	2,143.07	74.9714	2,143.07	74.5612	2,143.07	81.4841	2,143.07	74.4741	2,143.07	85.2338	2,143.07	73.7992	2,143.07	85.9185	2,143.07	78.6477
2,219.24	96.6162	2,219.24	98.5528	2,219.24	97.7349	2,219.24	98.5247	2,219.24	98.7187	2,219.24	94.8185	2,219.24	97.4878	2,219.24	89.4672	2,219.24	94.1173	2,219.24	86.3801	2,219.24	75.9608	2,219.24	87.053	2,219.24	77.4797	2,219.24	88.887	2,219.24	78.2388	2,219.24	91.0336	2,219.24	76.8795	2,219.24	86.0659	2,219.24	86.3535	2,219.24	87.4018	2,219.24	90.3463	2,219.24	90.0835	2,219.24	87.5292	2,219.24	85.7367	2,219.24	86.9152	2,219.24	89.5889	2,219.24	82.6468	2,219.24	77.4308	2,219.24	79.1738	2,219.24	78.1864	2,219.24	69.882	2,219.24	73.0076	2,219.24	85.6525	2,219.24	79.0237	2,219.24	85.4792	2,219.24	77.0081
2,296.88	98.3441	2,296.88	100.186	2,296.88	94.9189	2,296.88	98.3618	2,296.88	95.9652	2,296.88	92.3092	2,296.88	96.7353	2,296.88	77.9112	2,296.88	94.0823	2,296.88	90.7521	2,296.88	90.222	2,296.88	91.4959	2,296.88	90.0091	2,296.88	93.6318	2,296.88	87.4698	2,296.88	92.4975	2,296.88	76.5737	2,296.88	89.0412	2,296.88	70.4155	2,296.88	89.1822	2,296.88	84.8146	2,296.88	87.2566	2,296.88	84.0763	2,296.88	85.8355	2,296.88	84.6136	2,296.88	91.0766	2,296.88	74.2972	2,296.88	88.4891	2,296.88	74.4659	2,296.88	87.6977	2,296.88	79.8768	2,296.88	80.748	2,296.88	85.54	2,296.88	78.5938	2,296.88	80.4573	2,296.88	81.276
2,378.91	101.385	2,378.91	99.3908	2,378.91	97.8931	2,378.91	92.4908	2,378.91	93.7419	2,378.91	90.5352	2,378.91	94.3026	2,378.91	89.2284	2,378.91	94.1074	2,378.91	91.3865	2,378.91	93.47	2,378.91	91.6724	2,378.91	94.754	2,378.91	91.468	2,378.91	91.1285	2,378.91	90.974	2,378.91	86.714	2,378.91	86.1152	2,378.91	82.3133	2,378.91	87.2795	2,378.91	82.2883	2,378.91	87.4936	2,378.91	79.7871	2,378.91	78.7016	2,378.91	78.3208	2,378.91	81.2529	2,378.91	80.9849	2,378.91	86.611	2,378.91	78.941	2,378.91	80.3488	2,378.91	78.6396	2,378.91	79.755	2,378.91	79.8842	2,378.91	77.8939	2,378.91	83.3886	2,378.91	73.9732
2,462.4	102.33	2,462.4	99.8344	2,462.4	101.014	2,462.4	96.6059	2,462.4	95.4443	2,462.4	90.8037	2,462.4	88.7414	2,462.4	91.9129	2,462.4	93.1312	2,462.4	90.9224	2,462.4	93.7726	2,462.4	91.2412	2,462.4	94.7637	2,462.4	87.9282	2,462.4	92.8931	2,462.4	90.5703	2,462.4	84.9476	2,462.4	86.6684	2,462.4	87.6406	2,462.4	86.373	2,462.4	88.2752	2,462.4	84.7714	2,462.4	86.7879	2,462.4	84.0984	2,462.4	82.5144	2,462.4	83.9657	2,462.4	86.1766	2,462.4	83.5288	2,462.4	75.6376	2,462.4	80.5605	2,462.4	77.5209	2,462.4	72.2928	2,462.4	76.5364	2,462.4	78.6588	2,462.4	85.7228	2,462.4	83.9496
2,548.83	101.667	2,548.83	100.692	2,548.83	101.552	2,548.83	97.9239	2,548.83	98.0576	2,548.83	91.8759	2,548.83	88.4411	2,548.83	91.0774	2,548.83	91.7729	2,548.83	91.5013	2,548.83	93.9227	2,548.83	89.3477	2,548.83	94.1813	2,548.83	90.9559	2,548.83	92.8876	2,548.83	87.7954	2,548.83	90.1547	2,548.83	88.4433	2,548.83	90.8816	2,548.83	87.6597	2,548.83	90.0686	2,548.83	87.3836	2,548.83	88.8908	2,548.83	86.0265	2,548.83	86.5395	2,548.83	83.9196	2,548.83	86.9797	2,548.83	85.298	2,548.83	81.6214	2,548.83	79.7429	2,548.83	78.2606	2,548.83	76.2326	2,548.83	78.8455	2,548.83	78.2411	2,548.83	86.9248	2,548.83	83.1286
2,639.65	100.515	2,639.65	99.8661	2,639.65	100.62	2,639.65	96.9398	2,639.65	97.1038	2,639.65	94.4971	2,639.65	91.0772	2,639.65	91.2502	2,639.65	92.3464	2,639.65	92.7066	2,639.65	96.9888	2,639.65	91.241	2,639.65	96.081	2,639.65	93.929	2,639.65	94.9909	2,639.65	91.564	2,639.65	91.9191	2,639.65	90.7281	2,639.65	89.6539	2,639.65	88.2481	2,639.65	91.4282	2,639.65	85.3944	2,639.65	86.234	2,639.65	85.4963	2,639.65	87.7856	2,639.65	85.3614	2,639.65	85.1831	2,639.65	84.8475	2,639.65	81.2047	2,639.65	82.3664	2,639.65	83.4509	2,639.65	75.1892	2,639.65	79.1938	2,639.65	80.6988	2,639.65	87.5178	2,639.65	80.5971
2,731.93	100.333	2,731.93	98.7297	2,731.93	99.9631	2,731.93	95.1039	2,731.93	96.1337	2,731.93	94.0663	2,731.93	91.0562	2,731.93	92.568	2,731.93	93.6234	2,731.93	92.3943	2,731.93	96.6295	2,731.93	93.5427	2,731.93	96.255	2,731.93	90.5704	2,731.93	94.0523	2,731.93	90.763	2,731.93	91.4862	2,731.93	89.1818	2,731.93	89.3155	2,731.93	86.3907	2,731.93	90.7007	2,731.93	86.9098	2,731.93	86.7468	2,731.93	85.136	2,731.93	88.3162	2,731.93	85.7264	2,731.93	88.6008	2,731.93	84.267	2,731.93	79.0813	2,731.93	83.6909	2,731.93	82.1431	2,731.93	75.5381	2,731.93	78.2876	2,731.93	74.5511	2,731.93	85.641	2,731.93	80.1112
2,828.61	101.539	2,828.61	99.1954	2,828.61	100.578	2,828.61	96.2268	2,828.61	96.9026	2,828.61	92.8183	2,828.61	91.3118	2,828.61	93.1736	2,828.61	94.9608	2,828.61	93.2737	2,828.61	96.9142	2,828.61	94.4724	2,828.61	96.1624	2,828.61	92.1487	2,828.61	93.646	2,828.61	90.5573	2,828.61	94.5774	2,828.61	89.1674	2,828.61	92.3144	2,828.61	89.512	2,828.61	84.8529	2,828.61	89.0249	2,828.61	79.8078	2,828.61	85.974	2,828.61	90.8116	2,828.61	86.2851	2,828.61	87.0842	2,828.61	84.893	2,828.61	84.4715	2,828.61	81.9518	2,828.61	81.4884	2,828.61	76.1573	2,828.61	77.1247	2,828.61	78.0631	2,828.61	85.4584	2,828.61	75.4866
2,928.22	101.798	2,928.22	100.229	2,928.22	101.466	2,928.22	98.0054	2,928.22	97.9768	2,928.22	94.0041	2,928.22	91.6721	2,928.22	95.2103	2,928.22	95.7986	2,928.22	95.5048	2,928.22	97.5678	2,928.22	94.005	2,928.22	97.2261	2,928.22	92.7476	2,928.22	95.0314	2,928.22	93.2142	2,928.22	94.8116	2,928.22	92.5519	2,928.22	89.1354	2,928.22	89.6071	2,928.22	70.2045	2,928.22	86.8018	2,928.22	85.322	2,928.22	86.2046	2,928.22	89.6055	2,928.22	85.1857	2,928.22	87.2806	2,928.22	87.0156	2,928.22	85.3161	2,928.22	83.1721	2,928.22	83.0265	2,928.22	81.9455	2,928.22	78.4926	2,928.22	77.5333	2,928.22	85.7332	2,928.22	82.1248
3,030.76	101.64	3,030.76	100.559	3,030.76	101.671	3,030.76	97.5239	3,030.76	98.3789	3,030.76	95.011	3,030.76	89.8566	3,030.76	95.0762	3,030.76	95.5037	3,030.76	95.7431	3,030.76	98.7392	3,030.76	94.3076	3,030.76	98.2606	3,030.76	94.387	3,030.76	97.0437	3,030.76	92.3078	3,030.76	95.6728	3,030.76	88.02	3,030.76	71.8851	3,030.76	87.731	3,030.76	79.548	3,030.76	89.0112	3,030.76	90.8105	3,030.76	86.7318	3,030.76	86.9249	3,030.76	85.8132	3,030.76	90.4237	3,030.76	85.5887	3,030.76	85.0787	3,030.76	82.0371	3,030.76	81.288	3,030.76	80.3577	3,030.76	76.8053	3,030.76	79.3949	3,030.76	86.7552	3,030.76	78.4176
3,137.7	101.218	3,137.7	100.105	3,137.7	101.937	3,137.7	97.364	3,137.7	98.5632	3,137.7	96.3183	3,137.7	91.8059	3,137.7	96.9855	3,137.7	94.2074	3,137.7	96.1455	3,137.7	99.909	3,137.7	94.6398	3,137.7	97.2277	3,137.7	92.9724	3,137.7	96.3218	3,137.7	88.4106	3,137.7	94.6643	3,137.7	89.4631	3,137.7	77.1412	3,137.7	88.82	3,137.7	83.1915	3,137.7	88.839	3,137.7	87.0249	3,137.7	85.2515	3,137.7	88.754	3,137.7	86.5408	3,137.7	89.5976	3,137.7	85.2033	3,137.7	85.3718	3,137.7	84.1509	3,137.7	81.4005	3,137.7	79.7846	3,137.7	81.8765	3,137.7	77.1768	3,137.7	88.0931	3,137.7	81.5819
3,249.02	100.746	3,249.02	100.126	3,249.02	101.724	3,249.02	95.0175	3,249.02	99.2579	3,249.02	97.6601	3,249.02	94.3191	3,249.02	97.6838	3,249.02	96.0823	3,249.02	94.9247	3,249.02	98.8577	3,249.02	93.4323	3,249.02	97.2465	3,249.02	90.1276	3,249.02	96.718	3,249.02	94.3495	3,249.02	92.9488	3,249.02	92.2853	3,249.02	87.1164	3,249.02	89.7165	3,249.02	81.3355	3,249.02	86.788	3,249.02	86.9655	3,249.02	86.5059	3,249.02	86.0197	3,249.02	84.8434	3,249.02	91.5431	3,249.02	86.823	3,249.02	87.1827	3,249.02	84.6124	3,249.02	80.9411	3,249.02	79.1198	3,249.02	83.785	3,249.02	70.0799	3,249.02	86.758	3,249.02	84.8515
3,363.28	101.647	3,363.28	98.7761	3,363.28	101.028	3,363.28	97.1403	3,363.28	99.827	3,363.28	98.1051	3,363.28	95.3911	3,363.28	96.9657	3,363.28	96.1505	3,363.28	94.0619	3,363.28	98.0149	3,363.28	94.2544	3,363.28	97.5914	3,363.28	94.9477	3,363.28	98.4815	3,363.28	94.005	3,363.28	92.2424	3,363.28	90.1259	3,363.28	92.7933	3,363.28	89.3266	3,363.28	90.3987	3,363.28	89.5796	3,363.28	81.6563	3,363.28	89.3264	3,363.28	84.1014	3,363.28	85.6395	3,363.28	91.2538	3,363.28	86.4606	3,363.28	87.5243	3,363.28	84.9992	3,363.28	77.1653	3,363.28	81.1349	3,363.28	85.4954	3,363.28	73.2603	3,363.28	83.3359	3,363.28	82.9468
3,481.93	101.666	3,481.93	98.9634	3,481.93	101.436	3,481.93	99.2851	3,481.93	99.8708	3,481.93	98.5834	3,481.93	95.7727	3,481.93	96.5909	3,481.93	96.7216	3,481.93	96.2552	3,481.93	96.8944	3,481.93	95.9898	3,481.93	96.9864	3,481.93	95.9788	3,481.93	99.3553	3,481.93	91.6207	3,481.93	90.5385	3,481.93	93.913	3,481.93	94.3457	3,481.93	91.1622	3,481.93	90.9316	3,481.93	89.4873	3,481.93	80.8676	3,481.93	88.9519	3,481.93	80.5131	3,481.93	87.68	3,481.93	88.6013	3,481.93	86.6968	3,481.93	84.5159	3,481.93	85.9661	3,481.93	77.6028	3,481.93	79.7322	3,481.93	86.0092	3,481.93	76.4184	3,481.93	82.9663	3,481.93	81.7247
3,604.98	101.049	3,604.98	99.4082	3,604.98	101.252	3,604.98	100.292	3,604.98	99.2616	3,604.98	98.5152	3,604.98	96.2514	3,604.98	96.1232	3,604.98	97.5577	3,604.98	97.454	3,604.98	96.3989	3,604.98	97.2067	3,604.98	99.8689	3,604.98	95.6879	3,604.98	98.0053	3,604.98	94.6389	3,604.98	93.1353	3,604.98	91.9115	3,604.98	94.2694	3,604.98	89.8839	3,604.98	91.4344	3,604.98	89.3129	3,604.98	85.4475	3,604.98	87.342	3,604.98	83.8974	3,604.98	86.2368	3,604.98	85.2713	3,604.98	86.7286	3,604.98	84.7891	3,604.98	85.5162	3,604.98	76.4696	3,604.98	79.4814	3,604.98	83.3828	3,604.98	74.0807	3,604.98	83.9084	3,604.98	81.6168
3,732.42	101.181	3,732.42	100.517	3,732.42	102.321	3,732.42	99.6261	3,732.42	99.7903	3,732.42	97.84	3,732.42	95.7359	3,732.42	98.3815	3,732.42	95.1998	3,732.42	98.4207	3,732.42	95.8435	3,732.42	96.2697	3,732.42	100.877	3,732.42	96.1275	3,732.42	97.8172	3,732.42	93.8034	3,732.42	94.7076	3,732.42	91.0677	3,732.42	93.5192	3,732.42	90.0548	3,732.42	91.8613	3,732.42	87.0389	3,732.42	88.7967	3,732.42	88.0962	3,732.42	86.4658	3,732.42	85.4608	3,732.42	83.2371	3,732.42	87.5845	3,732.42	84.3964	3,732.42	85.9307	3,732.42	73.5127	3,732.42	81.4469	3,732.42	84.8112	3,732.42	72.3732	3,732.42	83.857	3,732.42	82.2242
3,864.26	100.953	3,864.26	100.604	3,864.26	101.686	3,864.26	100.773	3,864.26	101.541	3,864.26	98.7778	3,864.26	97.383	3,864.26	99.6006	3,864.26	95.3447	3,864.26	98.4683	3,864.26	96.6183	3,864.26	97.6166	3,864.26	101.944	3,864.26	96.1135	3,864.26	96.807	3,864.26	93.2185	3,864.26	94.0122	3,864.26	91.8117	3,864.26	87.8395	3,864.26	89.5634	3,864.26	90.6921	3,864.26	89.7481	3,864.26	89.8119	3,864.26	87.9929	3,864.26	84.9664	3,864.26	87.7618	3,864.26	85.4223	3,864.26	86.4544	3,864.26	85.2109	3,864.26	86.4436	3,864.26	66.0753	3,864.26	83.2681	3,864.26	85.9417	3,864.26	73.0696	3,864.26	83.9917	3,864.26	81.9552
4,000.49	101.557	4,000.49	101.867	4,000.49	101.323	4,000.49	101.324	4,000.49	100.869	4,000.49	101.017	4,000.49	98.9119	4,000.49	99.4654	4,000.49	92.1653	4,000.49	99.637	4,000.49	98.9472	4,000.49	98.2746	4,000.49	101.173	4,000.49	96.2468	4,000.49	97.072	4,000.49	96.6309	4,000.49	95.4344	4,000.49	93.2438	4,000.49	92.8316	4,000.49	92.5399	4,000.49	89.288	4,000.49	89.3511	4,000.49	85.9784	4,000.49	89.6403	4,000.49	85.0161	4,000.49	85.6527	4,000.49	85.7235	4,000.49	87.8467	4,000.49	86.5921	4,000.49	86.4822	4,000.49	71.8349	4,000.49	82.0571	4,000.49	85.0244	4,000.49	68.6826	4,000.49	84.4965	4,000.49	81.5224
4,141.11	101.957	4,141.11	103.738	4,141.11	102.241	4,141.11	100.97	4,141.11	100.829	4,141.11	99.3447	4,141.11	99.7915	4,141.11	100.218	4,141.11	95.9606	4,141.11	99.7169	4,141.11	99.8933	4,141.11	97.8616	4,141.11	99.7439	4,141.11	98.1813	4,141.11	97.4741	4,141.11	92.0784	4,141.11	96.0827	4,141.11	93.1279	4,141.11	96.3487	4,141.11	90.7181	4,141.11	83.9263	4,141.11	90.5293	4,141.11	80.1458	4,141.11	89.0381	4,141.11	80.9111	4,141.11	87.6235	4,141.11	86.8405	4,141.11	87.3668	4,141.11	85.0122	4,141.11	86.7417	4,141.11	66.1931	4,141.11	81.7168	4,141.11	84.0011	4,141.11	78.82	4,141.11	84.09	4,141.11	79.8997
4,287.6	102.661	4,287.6	102.415	4,287.6	101.337	4,287.6	101.067	4,287.6	102.094	4,287.6	101.188	4,287.6	98.8918	4,287.6	101.385	4,287.6	98.4822	4,287.6	99.6624	4,287.6	98.832	4,287.6	98.928	4,287.6	100.339	4,287.6	94.921	4,287.6	98.1221	4,287.6	96.306	4,287.6	97.2179	4,287.6	94.1036	4,287.6	93.9815	4,287.6	90.3101	4,287.6	79.6781	4,287.6	90.9555	4,287.6	86.795	4,287.6	89.3033	4,287.6	83.3723	4,287.6	87.8746	4,287.6	85.4831	4,287.6	87.1099	4,287.6	85.2608	4,287.6	86.6819	4,287.6	70.6327	4,287.6	84.1721	4,287.6	83.9937	4,287.6	79.1097	4,287.6	82.7564	4,287.6	80.7292
4,438.48	103.762	4,438.48	102.001	4,438.48	100.691	4,438.48	101.292	4,438.48	101.874	4,438.48	101.662	4,438.48	98.7654	4,438.48	101.432	4,438.48	98.0872	4,438.48	98.9465	4,438.48	100.266	4,438.48	96.9796	4,438.48	100.665	4,438.48	98.4641	4,438.48	100.006	4,438.48	94.5061	4,438.48	97.5384	4,438.48	92.052	4,438.48	86.119	4,438.48	91.0127	4,438.48	90.5156	4,438.48	87.5576	4,438.48	86.0813	4,438.48	88.6237	4,438.48	86.7645	4,438.48	85.924	4,438.48	81.8981	4,438.48	86.7169	4,438.48	86.8099	4,438.48	86.3988	4,438.48	62.9594	4,438.48	85.7023	4,438.48	84.3162	4,438.48	76.3193	4,438.48	81.2985	4,438.48	82.5705
4,595.21	102.415	4,595.21	103.341	4,595.21	100.334	4,595.21	100.846	4,595.21	101.729	4,595.21	101.162	4,595.21	100.392	4,595.21	100.355	4,595.21	99.235	4,595.21	100.114	4,595.21	100.16	4,595.21	98.3021	4,595.21	100.449	4,595.21	95.6752	4,595.21	99.5964	4,595.21	94.3845	4,595.21	97.5139	4,595.21	93.7683	4,595.21	85.1273	4,595.21	89.6043	4,595.21	91.3869	4,595.21	88.8857	4,595.21	87.8354	4,595.21	87.117	4,595.21	87.0009	4,595.21	87.1573	4,595.21	86.3109	4,595.21	86.1664	4,595.21	84.4747	4,595.21	81.9137	4,595.21	72.3585	4,595.21	84.1984	4,595.21	85.1453	4,595.21	65.1937	4,595.21	80.3213	4,595.21	82.1283
4,756.35	103.195	4,756.35	101.639	4,756.35	99.8101	4,756.35	101.613	4,756.35	100.985	4,756.35	103.614	4,756.35	101.841	4,756.35	100.63	4,756.35	97.5104	4,756.35	99.0241	4,756.35	98.8777	4,756.35	98.0032	4,756.35	99.9479	4,756.35	95.9069	4,756.35	99.0511	4,756.35	93.1954	4,756.35	95.1763	4,756.35	87.5825	4,756.35	92.5196	4,756.35	89.9909	4,756.35	85.0979	4,756.35	84.2329	4,756.35	79.0577	4,756.35	86.6372	4,756.35	85.2095	4,756.35	85.896	4,756.35	86.9542	4,756.35	82.9428	4,756.35	82.3419	4,756.35	85.1907	4,756.35	76.0253	4,756.35	83.8472	4,756.35	85.0287	4,756.35	78.6272	4,756.35	81.2372	4,756.35	74.6211
4,924.8	103.861	4,924.8	102.717	4,924.8	102.095	4,924.8	102.755	4,924.8	99.506	4,924.8	101.28	4,924.8	101.962	4,924.8	99.3091	4,924.8	97.0151	4,924.8	98.9501	4,924.8	97.2601	4,924.8	94.9258	4,924.8	99.5257	4,924.8	91.4293	4,924.8	97.3163	4,924.8	90.9631	4,924.8	88.5367	4,924.8	90.4094	4,924.8	93.042	4,924.8	86.0399	4,924.8	86.6222	4,924.8	87.7495	4,924.8	75.4673	4,924.8	84.6632	4,924.8	86.5178	4,924.8	84.2474	4,924.8	87.556	4,924.8	82.3035	4,924.8	82.341	4,924.8	84.9043	4,924.8	75.2338	4,924.8	82.2782	4,924.8	81.852	4,924.8	75.7967	4,924.8	82.508	4,924.8	71.3982
5,097.66	103.698	5,097.66	102.452	5,097.66	101.727	5,097.66	103.107	5,097.66	100.215	5,097.66	101.436	5,097.66	103.061	5,097.66	101.116	5,097.66	97.1819	5,097.66	97.6732	5,097.66	95.9716	5,097.66	94.6816	5,097.66	97.9458	5,097.66	94.2809	5,097.66	95.0019	5,097.66	92.3995	5,097.66	87.9798	5,097.66	90.5611	5,097.66	91.5822	5,097.66	89.8978	5,097.66	83.2186	5,097.66	88.2722	5,097.66	78.6614	5,097.66	87.2107	5,097.66	88.3954	5,097.66	85.8335	5,097.66	87.4927	5,097.66	84.52	5,097.66	85.4934	5,097.66	83.4479	5,097.66	77.8405	5,097.66	84.1399	5,097.66	84.0092	5,097.66	76.5938	5,097.66	80.9896	5,097.66	62.7898
5,277.83	103.455	5,277.83	103.066	5,277.83	102.091	5,277.83	102.531	5,277.83	99.2902	5,277.83	101.634	5,277.83	104.109	5,277.83	99.6699	5,277.83	99.778	5,277.83	96.2595	5,277.83	96.7097	5,277.83	96.077	5,277.83	95.1325	5,277.83	94.3409	5,277.83	94.6328	5,277.83	93.1793	5,277.83	94.0225	5,277.83	91.7064	5,277.83	90.9112	5,277.83	89.1123	5,277.83	84.5448	5,277.83	86.7643	5,277.83	80.0402	5,277.83	86.9775	5,277.83	86.0557	5,277.83	85.2142	5,277.83	86.9511	5,277.83	83.8971	5,277.83	83.2043	5,277.83	86.7223	5,277.83	76.8462	5,277.83	83.6528	5,277.83	80.6745	5,277.83	80.9389	5,277.83	80.1334	5,277.83	68.6533
5,463.87	103.616	5,463.87	103.303	5,463.87	103.04	5,463.87	102.877	5,463.87	99.9753	5,463.87	100.952	5,463.87	103.349	5,463.87	100.132	5,463.87	101.867	5,463.87	97.0373	5,463.87	94.2239	5,463.87	95.4615	5,463.87	94.0101	5,463.87	95.741	5,463.87	94.5092	5,463.87	91.69	5,463.87	94.0577	5,463.87	90.3086	5,463.87	91.5826	5,463.87	87.5138	5,463.87	80.2655	5,463.87	86.9749	5,463.87	77.9594	5,463.87	84.9736	5,463.87	87.669	5,463.87	85.8246	5,463.87	87.9867	5,463.87	84.407	5,463.87	83.6769	5,463.87	86.4086	5,463.87	67.9007	5,463.87	83.6113	5,463.87	79.6972	5,463.87	83.5753	5,463.87	81.8169	5,463.87	69.463
5,657.23	103.659	5,657.23	103.529	5,657.23	103.934	5,657.23	101.393	5,657.23	98.0551	5,657.23	102.019	5,657.23	101.789	5,657.23	98.9768	5,657.23	102.196	5,657.23	98.0077	5,657.23	94.388	5,657.23	96.7604	5,657.23	92.9192	5,657.23	94.3509	5,657.23	96.9098	5,657.23	92.2916	5,657.23	96.5527	5,657.23	89.746	5,657.23	88.202	5,657.23	87.9035	5,657.23	84.4977	5,657.23	83.8234	5,657.23	87.485	5,657.23	86.3497	5,657.23	88.2598	5,657.23	83.7684	5,657.23	86.2321	5,657.23	83.4045	5,657.23	82.2158	5,657.23	84.98	5,657.23	75.9378	5,657.23	84.9392	5,657.23	80.6465	5,657.23	74.5133	5,657.23	75.7987	5,657.23	62.4562
5,856.45	102.788	5,856.45	103.124	5,856.45	102.929	5,856.45	101.604	5,856.45	96.4185	5,856.45	101.685	5,856.45	101.286	5,856.45	98.5804	5,856.45	101.858	5,856.45	98.1199	5,856.45	93.8785	5,856.45	95.3457	5,856.45	96.1382	5,856.45	92.3182	5,856.45	98.2059	5,856.45	88.6647	5,856.45	96.171	5,856.45	87.7457	5,856.45	87.6284	5,856.45	86.0461	5,856.45	84.5709	5,856.45	84.5868	5,856.45	88.931	5,856.45	83.8147	5,856.45	86.1797	5,856.45	83.0339	5,856.45	82.8286	5,856.45	81.3277	5,856.45	71.9916	5,856.45	81.412	5,856.45	69.5088	5,856.45	84.6399	5,856.45	71.1914	5,856.45	80.4823	5,856.45	76.3206	5,856.45	71.8079
6,062.99	103.695	6,062.99	102.712	6,062.99	103.811	6,062.99	102.481	6,062.99	100.37	6,062.99	101.24	6,062.99	101.116	6,062.99	99.2442	6,062.99	102.045	6,062.99	96.7157	6,062.99	91.148	6,062.99	94.5904	6,062.99	97.6971	6,062.99	91.1655	6,062.99	98.183	6,062.99	90.8164	6,062.99	95.952	6,062.99	87.5263	6,062.99	86.4901	6,062.99	86.9908	6,062.99	82.9725	6,062.99	83.5813	6,062.99	86.3032	6,062.99	83.8572	6,062.99	81.6678	6,062.99	83.5874	6,062.99	81.3818	6,062.99	81.5889	6,062.99	77.2604	6,062.99	83.6228	6,062.99	76.576	6,062.99	83.0918	6,062.99	82.5327	6,062.99	80.8632	6,062.99	74.4495	6,062.99	68.2388
6,276.86	103.402	6,276.86	102.08	6,276.86	103.395	6,276.86	102.463	6,276.86	102.62	6,276.86	100.447	6,276.86	99.6094	6,276.86	99.646	6,276.86	101.926	6,276.86	95.3883	6,276.86	87.3386	6,276.86	94.0902	6,276.86	98.1352	6,276.86	91.8362	6,276.86	98.7628	6,276.86	90.2047	6,276.86	94.1713	6,276.86	88.7545	6,276.86	87.9283	6,276.86	87.4289	6,276.86	78.7359	6,276.86	83.3144	6,276.86	85.9255	6,276.86	85.26	6,276.86	78.7157	6,276.86	82.6691	6,276.86	84.5594	6,276.86	81.8359	6,276.86	79.5056	6,276.86	82.5909	6,276.86	76.5751	6,276.86	83.8754	6,276.86	82.9782	6,276.86	78.6983	6,276.86	73.5696	6,276.86	72.9354
6,498.05	103.69	6,498.05	102.825	6,498.05	102.214	6,498.05	102.538	6,498.05	101.821	6,498.05	100.552	6,498.05	99.9365	6,498.05	98.8511	6,498.05	99.194	6,498.05	95.9864	6,498.05	90.771	6,498.05	94.161	6,498.05	96.2951	6,498.05	92.715	6,498.05	97.6844	6,498.05	89.7521	6,498.05	93.2418	6,498.05	88.3097	6,498.05	91.7327	6,498.05	86.078	6,498.05	81.9646	6,498.05	85.218	6,498.05	79.8413	6,498.05	83.3719	6,498.05	77.355	6,498.05	80.0289	6,498.05	83.4896	6,498.05	82.897	6,498.05	82.6881	6,498.05	82.7747	6,498.05	75.8572	6,498.05	82.1909	6,498.05	79.4269	6,498.05	81.0191	6,498.05	62.5957	6,498.05	73.7731
6,726.56	103.735	6,726.56	102.466	6,726.56	102.736	6,726.56	101.769	6,726.56	100.616	6,726.56	101.2	6,726.56	99.9503	6,726.56	98.5289	6,726.56	96.0708	6,726.56	96.151	6,726.56	92.7949	6,726.56	94.7028	6,726.56	94.0359	6,726.56	92.0355	6,726.56	95.2482	6,726.56	89.6501	6,726.56	92.8577	6,726.56	87.657	6,726.56	90.8182	6,726.56	85.5233	6,726.56	86.2085	6,726.56	84.6441	6,726.56	64.6782	6,726.56	83.2703	6,726.56	70.3652	6,726.56	81.7141	6,726.56	76.2571	6,726.56	81.1408	6,726.56	78.1578	6,726.56	83.1678	6,726.56	71.8651	6,726.56	82.5364	6,726.56	77.7117	6,726.56	78.8612	6,726.56	71.8074	6,726.56	75.295
6,963.87	103.605	6,963.87	102.918	6,963.87	103.508	6,963.87	102.208	6,963.87	102.382	6,963.87	101.724	6,963.87	98.8157	6,963.87	98.4493	6,963.87	95.4635	6,963.87	97.3436	6,963.87	93.4912	6,963.87	94.883	6,963.87	91.6249	6,963.87	92.0641	6,963.87	94.2004	6,963.87	90.4252	6,963.87	94.5594	6,963.87	88.966	6,963.87	92.436	6,963.87	86.6151	6,963.87	82.4997	6,963.87	84.7662	6,963.87	66.1823	6,963.87	85.7325	6,963.87	76.6074	6,963.87	81.7451	6,963.87	72.72	6,963.87	82.3655	6,963.87	75.5708	6,963.87	82.8145	6,963.87	74.109	6,963.87	82.4629	6,963.87	74.4362	6,963.87	81.7544	6,963.87	73.0711	6,963.87	75.0548
7,209.96	103.696	7,209.96	102.785	7,209.96	103.786	7,209.96	102.584	7,209.96	103.022	7,209.96	101.515	7,209.96	97.4756	7,209.96	97.6473	7,209.96	98.4826	7,209.96	96.3262	7,209.96	96.0237	7,209.96	94.3873	7,209.96	88.2927	7,209.96	92.1201	7,209.96	95.8458	7,209.96	90.6043	7,209.96	94.8188	7,209.96	87.5731	7,209.96	91.6383	7,209.96	85.5504	7,209.96	85.077	7,209.96	84.71	7,209.96	60.4505	7,209.96	83.1561	7,209.96	78.6105	7,209.96	82.7386	7,209.96	76.3677	7,209.96	82.3451	7,209.96	77.0125	7,209.96	80.3504	7,209.96	73.9155	7,209.96	80.9581	7,209.96	78.9612	7,209.96	82.0952	7,209.96	71.9728	7,209.96	76.3174
7,464.84	103.445	7,464.84	102.246	7,464.84	103.352	7,464.84	102.449	7,464.84	103.155	7,464.84	99.8265	7,464.84	99.3	7,464.84	98.0805	7,464.84	100.9	7,464.84	95.9981	7,464.84	97.1348	7,464.84	95.6583	7,464.84	88.8843	7,464.84	91.4519	7,464.84	96.3098	7,464.84	90.8508	7,464.84	93.3716	7,464.84	87.1588	7,464.84	86.6938	7,464.84	86.4756	7,464.84	88.2702	7,464.84	82.5909	7,464.84	68.168	7,464.84	84.5415	7,464.84	77.8215	7,464.84	81.3846	7,464.84	77.3257	7,464.84	81.4892	7,464.84	75.9869	7,464.84	79.3955	7,464.84	75.7562	7,464.84	81.1938	7,464.84	74.3982	7,464.84	81.9917	7,464.84	69.9319	7,464.84	74.199
7,727.05	104.066	7,727.05	102.126	7,727.05	103.346	7,727.05	102.32	7,727.05	101.974	7,727.05	98.5525	7,727.05	102.115	7,727.05	98.3246	7,727.05	101.555	7,727.05	96.2122	7,727.05	97.919	7,727.05	94.8796	7,727.05	85.9093	7,727.05	91.4172	7,727.05	95.0583	7,727.05	88.6451	7,727.05	90.9471	7,727.05	86.1622	7,727.05	86.534	7,727.05	82.3707	7,727.05	87.2769	7,727.05	82.0002	7,727.05	68.9925	7,727.05	79.7496	7,727.05	78.0059	7,727.05	81.4237	7,727.05	76.64	7,727.05	78.387	7,727.05	75.2827	7,727.05	77.1039	7,727.05	76.6918	7,727.05	80.3935	7,727.05	67.7257	7,727.05	80.8229	7,727.05	70.1044	7,727.05	70.7323
7,999.51	103.093	7,999.51	102.312	7,999.51	103.759	7,999.51	101.153	7,999.51	101.798	7,999.51	99.4063	7,999.51	102.311	7,999.51	98.4465	7,999.51	101.108	7,999.51	95.4599	7,999.51	98.0713	7,999.51	93.5291	7,999.51	86.518	7,999.51	89.6123	7,999.51	92.4853	7,999.51	86.9032	7,999.51	84.0986	7,999.51	85.1483	7,999.51	86.0356	7,999.51	82.2567	7,999.51	81.0901	7,999.51	80.9041	7,999.51	77.4743	7,999.51	80.1628	7,999.51	72.6001	7,999.51	80.2694	7,999.51	78.1183	7,999.51	78.5049	7,999.51	68.9413	7,999.51	75.5207	7,999.51	76.479	7,999.51	79.6941	7,999.51	74.2053	7,999.51	78.3209	7,999.51	72.4046	7,999.51	68.4661
8,282.23	102.695	8,282.23	103.054	8,282.23	102.97	8,282.23	100.991	8,282.23	102.369	8,282.23	100.621	8,282.23	101.334	8,282.23	97.2467	8,282.23	97.8668	8,282.23	95.0267	8,282.23	98.2892	8,282.23	93.0348	8,282.23	86.365	8,282.23	88.8969	8,282.23	88.3418	8,282.23	87.0029	8,282.23	85.2919	8,282.23	85.7636	8,282.23	85.9241	8,282.23	81.2989	8,282.23	83.9434	8,282.23	83.0274	8,282.23	72.091	8,282.23	80.3986	8,282.23	73.3176	8,282.23	81.5346	8,282.23	76.1852	8,282.23	79.445	8,282.23	56.1038	8,282.23	77.7276	8,282.23	54.978	8,282.23	80.6223	8,282.23	74.0046	8,282.23	78.7067	8,282.23	68.9683	8,282.23	71.5466
8,573.73	102.952	8,573.73	102.621	8,573.73	104.138	8,573.73	100.641	8,573.73	101.414	8,573.73	100.029	8,573.73	99.9306	8,573.73	97.4269	8,573.73	93.8035	8,573.73	95.0701	8,573.73	98.7754	8,573.73	93.4189	8,573.73	80.3948	8,573.73	88.7883	8,573.73	86.9161	8,573.73	86.6267	8,573.73	89.1762	8,573.73	85.1886	8,573.73	88.5433	8,573.73	81.3387	8,573.73	81.4228	8,573.73	80.8876	8,573.73	74.6537	8,573.73	79.65	8,573.73	67.3354	8,573.73	79.5915	8,573.73	44.9137	8,573.73	77.9479	8,573.73	76.923	8,573.73	76.7419	8,573.73	70.4794	8,573.73	79.0875	8,573.73	70.2702	8,573.73	75.9925	8,573.73	67.3528	8,573.73	73.0041
8,876.95	102.901	8,876.95	102.391	8,876.95	103.55	8,876.95	100.771	8,876.95	102.878	8,876.95	99.934	8,876.95	99.5686	8,876.95	98.4081	8,876.95	95.9778	8,876.95	94.3806	8,876.95	98.0686	8,876.95	92.4117	8,876.95	82.0403	8,876.95	87.2687	8,876.95	89.1385	8,876.95	85.9808	8,876.95	90.4854	8,876.95	84.203	8,876.95	86.8068	8,876.95	80.6768	8,876.95	75.8878	8,876.95	79.6828	8,876.95	55.4663	8,876.95	80.1204	8,876.95	66.8873	8,876.95	78.1624	8,876.95	65.4853	8,876.95	77.2479	8,876.95	74.1089	8,876.95	76.1657	8,876.95	65.0657	8,876.95	76.3848	8,876.95	72.0995	8,876.95	74.0958	8,876.95	60.9652	8,876.95	73.4058
9,188.96	102.918	9,188.96	102.024	9,188.96	103.37	9,188.96	101.026	9,188.96	102.926	9,188.96	100.307	9,188.96	101.106	9,188.96	98.286	9,188.96	96.6937	9,188.96	93.5356	9,188.96	97.241	9,188.96	91.3816	9,188.96	86.0828	9,188.96	88.3174	9,188.96	89.4909	9,188.96	85.7412	9,188.96	91.2454	9,188.96	84.5351	9,188.96	87.41	9,188.96	82.3582	9,188.96	80.5386	9,188.96	79.5522	9,188.96	70.3183	9,188.96	79.0777	9,188.96	67.8624	9,188.96	80.8549	9,188.96	69.6128	9,188.96	77.6834	9,188.96	74.6491	9,188.96	74.117	9,188.96	69.0671	9,188.96	76.0042	9,188.96	69.2696	9,188.96	77.2011	9,188.96	47.6387	9,188.96	73.1923
9,514.16	103.052	9,514.16	102.047	9,514.16	102.789	9,514.16	101.523	9,514.16	101.406	9,514.16	100.417	9,514.16	101.846	9,514.16	97.2859	9,514.16	97.8767	9,514.16	93.8221	9,514.16	95.7523	9,514.16	92.6747	9,514.16	90.9848	9,514.16	87.7435	9,514.16	88.7045	9,514.16	87.1154	9,514.16	89.4191	9,514.16	83.5212	9,514.16	84.8737	9,514.16	81.9629	9,514.16	83.8631	9,514.16	82.5285	9,514.16	77.2548	9,514.16	81.4767	9,514.16	70.0725	9,514.16	77.1315	9,514.16	66.0675	9,514.16	77.9629	9,514.16	65.4076	9,514.16	76.9574	9,514.16	68.8016	9,514.16	78.1664	9,514.16	69.3234	9,514.16	75.1899	9,514.16	62.9686	9,514.16	71.7817
9,849.61	102.779	9,849.61	102.188	9,849.61	103.152	9,849.61	101.557	9,849.61	100.725	9,849.61	99.9356	9,849.61	100.368	9,849.61	96.9761	9,849.61	98.176	9,849.61	94.3925	9,849.61	92.8132	9,849.61	91.7669	9,849.61	92.6532	9,849.61	88.1198	9,849.61	85.5631	9,849.61	86.6412	9,849.61	89.5555	9,849.61	83.1249	9,849.61	84.0156	9,849.61	83.1888	9,849.61	81.7998	9,849.61	76.0357	9,849.61	73.3071	9,849.61	81.0002	9,849.61	66.3325	9,849.61	79.1501	9,849.61	67.3369	9,849.61	75.2251	9,849.61	68.0132	9,849.61	74.5885	9,849.61	72.1579	9,849.61	77.0202	9,849.61	73.1823	9,849.61	73.4977	9,849.61	61.7587	9,849.61	72.6193
10,196.8	102.338	10,196.8	102.306	10,196.8	103.09	10,196.8	101.516	10,196.8	100.879	10,196.8	99.7356	10,196.8	99.4322	10,196.8	96.8753	10,196.8	97.653	10,196.8	93.0752	10,196.8	88.8761	10,196.8	91.8622	10,196.8	93.3329	10,196.8	88.4563	10,196.8	74.1413	10,196.8	85.3817	10,196.8	88.0486	10,196.8	84.9884	10,196.8	76.94	10,196.8	79.9951	10,196.8	81.2596	10,196.8	83.0078	10,196.8	76.8561	10,196.8	80.2386	10,196.8	66.4469	10,196.8	79.8218	10,196.8	71.8339	10,196.8	78.812	10,196.8	72.127	10,196.8	74.6824	10,196.8	68.9323	10,196.8	74.5551	10,196.8	63.58	10,196.8	73.2336	10,196.8	61.7205	10,196.8	72.2505
10,555.7	102.082	10,555.7	102.696	10,555.7	102.752	10,555.7	101.323	10,555.7	101.232	10,555.7	99.4407	10,555.7	98.2876	10,555.7	96.3891	10,555.7	96.4798	10,555.7	92.7828	10,555.7	91.9074	10,555.7	92.4427	10,555.7	90.8799	10,555.7	88.4947	10,555.7	61.6944	10,555.7	86.2446	10,555.7	86.1998	10,555.7	83.0976	10,555.7	77.2213	10,555.7	78.8557	10,555.7	79.6918	10,555.7	78.6503	10,555.7	70.7333	10,555.7	79.6628	10,555.7	55.57	10,555.7	79.0459	10,555.7	63.1885	10,555.7	78.7143	10,555.7	71.8843	10,555.7	74.0165	10,555.7	71.1172	10,555.7	74.1579	10,555.7	66.5246	10,555.7	71.0829	10,555.7	60.9948	10,555.7	71.786
10,927.7	102.072	10,927.7	102.225	10,927.7	102.684	10,927.7	100.786	10,927.7	101.7	10,927.7	99.0395	10,927.7	99.1244	10,927.7	96.1235	10,927.7	93.3601	10,927.7	93.3277	10,927.7	94.7828	10,927.7	91.7769	10,927.7	90.9016	10,927.7	88.7521	10,927.7	82.0439	10,927.7	85.7487	10,927.7	82.906	10,927.7	82.6104	10,927.7	80.3999	10,927.7	80.1958	10,927.7	77.9056	10,927.7	79.2648	10,927.7	71.0507	10,927.7	78.0616	10,927.7	67.8651	10,927.7	79.3654	10,927.7	58.0208	10,927.7	77.1671	10,927.7	69.136	10,927.7	72.7509	10,927.7	68.2387	10,927.7	69.9886	10,927.7	61.6071	10,927.7	68.4526	10,927.7	56.9205	10,927.7	68.9703
11,313	102.338	11,313	102.02	11,313	101.907	11,313	100.771	11,313	100.624	11,313	98.4873	11,313	99.9474	11,313	96.1985	11,313	91.6538	11,313	93.001	11,313	95.8029	11,313	92.1446	11,313	89.5164	11,313	87.9846	11,313	80.8084	11,313	84.9904	11,313	84.2982	11,313	83.2841	11,313	77.8833	11,313	78.9416	11,313	75.9627	11,313	77.4411	11,313	71.2025	11,313	78.4249	11,313	73.6844	11,313	77.8264	11,313	73.3786	11,313	76.0265	11,313	74.7971	11,313	73.6637	11,313	71.7612	11,313	71.6515	11,313	52.2701	11,313	69.1637	11,313	55.4183	11,313	70.0038
11,712.9	102.189	11,712.9	102.225	11,712.9	101.925	11,712.9	100.575	11,712.9	100.239	11,712.9	98.2284	11,712.9	98.4395	11,712.9	96.3933	11,712.9	94.5769	11,712.9	93.5716	11,712.9	95.8587	11,712.9	92.264	11,712.9	91.1304	11,712.9	86.7197	11,712.9	77.8252	11,712.9	83.9664	11,712.9	76.8261	11,712.9	81.218	11,712.9	71.3863	11,712.9	78.2948	11,712.9	77.8268	11,712.9	76.3087	11,712.9	70.7543	11,712.9	76.7688	11,712.9	74.5289	11,712.9	77.8992	11,712.9	73.6006	11,712.9	76.0075	11,712.9	74.0773	11,712.9	72.729	11,712.9	67.7944	11,712.9	68.297	11,712.9	63.6582	11,712.9	66.5164	11,712.9	64.9418	11,712.9	66.3328
12,126	102.474	12,126	102.165	12,126	101.375	12,126	100.611	12,126	100.08	12,126	98.1168	12,126	98.4073	12,126	96.2539	12,126	97.7746	12,126	94.4878	12,126	94.3363	12,126	90.9671	12,126	89.8209	12,126	86.7518	12,126	83.5563	12,126	84.0456	12,126	77.675	12,126	79.7937	12,126	72.4448	12,126	77.2641	12,126	75.5576	12,126	78.1849	12,126	56.8628	12,126	76.9443	12,126	71.4797	12,126	76.7783	12,126	68.9132	12,126	74.4758	12,126	71.4562	12,126	71.363	12,126	63.3363	12,126	67.2431	12,126	60.7011	12,126	62.7691	12,126	65.4102	12,126	66.3654
12,553.7	102.602	12,553.7	102.035	12,553.7	101.468	12,553.7	100.479	12,553.7	100.174	12,553.7	98.0716	12,553.7	100.185	12,553.7	96.7913	12,553.7	97.6908	12,553.7	93.6874	12,553.7	92.5898	12,553.7	91.4085	12,553.7	88.4791	12,553.7	85.8685	12,553.7	83.2036	12,553.7	81.8145	12,553.7	79.7301	12,553.7	79.7605	12,553.7	79.0747	12,553.7	73.567	12,553.7	77.7327	12,553.7	75.6578	12,553.7	68.4855	12,553.7	74.9741	12,553.7	71.9831	12,553.7	75.7821	12,553.7	59.8902	12,553.7	73.8704	12,553.7	69.0468	12,553.7	70.4149	12,553.7	62.3705	12,553.7	63.0709	12,553.7	65.6193	12,553.7	63.6972	12,553.7	66.3673	12,553.7	64.8677
12,996.1	102.663	12,996.1	102.31	12,996.1	101.699	12,996.1	100.267	12,996.1	100.467	12,996.1	98.4284	12,996.1	99.8647	12,996.1	96.4149	12,996.1	95.7775	12,996.1	93.0078	12,996.1	93.076	12,996.1	90.1942	12,996.1	88.4838	12,996.1	84.1613	12,996.1	83.8806	12,996.1	82.0952	12,996.1	71.9867	12,996.1	78.9605	12,996.1	71.041	12,996.1	72.5989	12,996.1	78.4006	12,996.1	75.3207	12,996.1	73.3864	12,996.1	73.2272	12,996.1	68.7633	12,996.1	74.7878	12,996.1	61.2883	12,996.1	72.8516	12,996.1	66.507	12,996.1	70.1869	12,996.1	63.5041	12,996.1	64.4078	12,996.1	65.5227	12,996.1	64.9243	12,996.1	61.7997	12,996.1	65.3377
13,454.6	102.676	13,454.6	102.271	13,454.6	101.774	13,454.6	100.248	13,454.6	99.8587	13,454.6	98.3799	13,454.6	98.2104	13,454.6	95.8445	13,454.6	93.4036	13,454.6	91.9947	13,454.6	92.5252	13,454.6	88.8535	13,454.6	89.2868	13,454.6	83.4772	13,454.6	84.1835	13,454.6	79.2775	13,454.6	67.7331	13,454.6	76.6983	13,454.6	56.7204	13,454.6	71.726	13,454.6	78.2654	13,454.6	73.1365	13,454.6	74.0826	13,454.6	71.5417	13,454.6	68.8191	13,454.6	70.5609	13,454.6	60.77	13,454.6	70.8242	13,454.6	61.8244	13,454.6	66.935	13,454.6	63.1692	13,454.6	64.1538	13,454.6	63.5056	13,454.6	62.4907	13,454.6	60.0984	13,454.6	62.3123
13,929.2	102.572	13,929.2	102.104	13,929.2	101.711	13,929.2	100.108	13,929.2	100.386	13,929.2	98.1927	13,929.2	98.3174	13,929.2	95.3627	13,929.2	95.4462	13,929.2	91.029	13,929.2	91.3127	13,929.2	88.0527	13,929.2	87.7061	13,929.2	81.2495	13,929.2	84.2821	13,929.2	78.6727	13,929.2	70.6464	13,929.2	76.6557	13,929.2	68.9579	13,929.2	69.1841	13,929.2	77.8147	13,929.2	71.8661	13,929.2	76.0704	13,929.2	70.5296	13,929.2	67.9632	13,929.2	72.3396	13,929.2	67.3554	13,929.2	72.569	13,929.2	65.5132	13,929.2	68.1279	13,929.2	62.2018	13,929.2	62.2445	13,929.2	61.6094	13,929.2	59.7877	13,929.2	53.1002	13,929.2	59.9606
14,419.9	102.377	14,419.9	101.631	14,419.9	101.191	14,419.9	99.7983	14,419.9	99.5928	14,419.9	98.3122	14,419.9	99.3835	14,419.9	95.1787	14,419.9	95.73	14,419.9	91.0509	14,419.9	92.284	14,419.9	87.5327	14,419.9	88.68	14,419.9	81.9976	14,419.9	82.5854	14,419.9	76.6893	14,419.9	75.9607	14,419.9	75.0482	14,419.9	64.3097	14,419.9	64.8007	14,419.9	79.1285	14,419.9	71.1267	14,419.9	77.6509	14,419.9	67.8215	14,419.9	65.5191	14,419.9	71.6331	14,419.9	65.424	14,419.9	69.7929	14,419.9	64.2539	14,419.9	67.959	14,419.9	62.2238	14,419.9	64.7972	14,419.9	58.7554	14,419.9	61.4029	14,419.9	55.3639	14,419.9	59.5471
14,928.2	102.745	14,928.2	101.858	14,928.2	101.926	14,928.2	100.598	14,928.2	100.47	14,928.2	98.3212	14,928.2	98.8991	14,928.2	95.4254	14,928.2	96.3122	14,928.2	90.7863	14,928.2	92.8604	14,928.2	87.0085	14,928.2	88.3961	14,928.2	80.774	14,928.2	83.5817	14,928.2	77.3981	14,928.2	72.2683	14,928.2	73.7178	14,928.2	61.9512	14,928.2	64.8952	14,928.2	78.5089	14,928.2	71.3465	14,928.2	76.7513	14,928.2	66.7318	14,928.2	59.5435	14,928.2	70.138	14,928.2	59.8636	14,928.2	68.4045	14,928.2	59.8085	14,928.2	66.5538	14,928.2	55.6245	14,928.2	62.6794	14,928.2	48.3201	14,928.2	56.3585	14,928.2	60.4258	14,928.2	54.1872
15,455.6	103.457	15,455.6	102.769	15,455.6	103.011	15,455.6	101.485	15,455.6	101.193	15,455.6	98.8077	15,455.6	99.7467	15,455.6	95.0047	15,455.6	95.6924	15,455.6	90.5252	15,455.6	92.6702	15,455.6	85.7518	15,455.6	85.2601	15,455.6	78.2368	15,455.6	83.5599	15,455.6	72.2954	15,455.6	69.5063	15,455.6	71.5573	15,455.6	62.0185	15,455.6	64.5332	15,455.6	78.5677	15,455.6	69.2956	15,455.6	76.2209	15,455.6	66.5916	15,455.6	65.386	15,455.6	69.6151	15,455.6	58.3565	15,455.6	64.0316	15,455.6	61.8816	15,455.6	61.4688	15,455.6	49.7552	15,455.6	47.4154	15,455.6	58.6101	15,455.6	50.2951	15,455.6	60.713	15,455.6	53.514
16,000.5	104.062	16,000.5	103.465	16,000.5	103.687	16,000.5	101.98	16,000.5	102.363	16,000.5	99.1061	16,000.5	100.192	16,000.5	94.6086	16,000.5	93.9433	16,000.5	89.1146	16,000.5	92.8364	16,000.5	84.0185	16,000.5	85.7213	16,000.5	76.1445	16,000.5	79.9159	16,000.5	70.4657	16,000.5	72.4621	16,000.5	69.7321	16,000.5	63.4381	16,000.5	63.1097	16,000.5	77.3401	16,000.5	65.4656	16,000.5	76.0877	16,000.5	63.8823	16,000.5	62.4816	16,000.5	66.0678	16,000.5	60.8341	16,000.5	64.2949	16,000.5	62.0155	16,000.5	61.7851	16,000.5	57.8205	16,000.5	56.9408	16,000.5	56.1479	16,000.5	58.1821	16,000.5	60.8159	16,000.5	60.2432
16,564.5	104.408	16,564.5	103.932	16,564.5	104.012	16,564.5	102.114	16,564.5	102.378	16,564.5	98.7661	16,564.5	100.023	16,564.5	93.9293	16,564.5	95.2537	16,564.5	87.7467	16,564.5	91.6315	16,564.5	80.0498	16,564.5	84.4032	16,564.5	72.3262	16,564.5	78.6808	16,564.5	68.4151	16,564.5	70.2483	16,564.5	69.9998	16,564.5	64.2372	16,564.5	64.6873	16,564.5	76.5146	16,564.5	66.0644	16,564.5	75.9362	16,564.5	60.2263	16,564.5	58.8055	16,564.5	67.5243	16,564.5	57.6443	16,564.5	65.4765	16,564.5	62.5518	16,564.5	61.2509	16,564.5	58.1468	16,564.5	59.6592	16,564.5	49.2857	16,564.5	58.1329	16,564.5	55.4747	16,564.5	60.8297
17,148.9	104.731	17,148.9	104.197	17,148.9	104.157	17,148.9	102.119	17,148.9	102.38	17,148.9	98.2453	17,148.9	100.17	17,148.9	92.666	17,148.9	94.6871	17,148.9	85.4868	17,148.9	87.9312	17,148.9	76.218	17,148.9	79.3681	17,148.9	73.5074	17,148.9	76.0757	17,148.9	67.3116	17,148.9	70.0797	17,148.9	68.5841	17,148.9	64.9438	17,148.9	64.0793	17,148.9	74.5865	17,148.9	65.9482	17,148.9	76.6426	17,148.9	62.3299	17,148.9	61.5565	17,148.9	68.2394	17,148.9	60.2494	17,148.9	62.5486	17,148.9	64.7442	17,148.9	57.6558	17,148.9	56.9564	17,148.9	55.7814	17,148.9	48.9217	17,148.9	50.1987	17,148.9	47.8999	17,148.9	57.3767
17,752.4	104.723	17,752.4	104.031	17,752.4	104.229	17,752.4	101.629	17,752.4	102.132	17,752.4	97.1909	17,752.4	98.7747	17,752.4	90.9361	17,752.4	92.3395	17,752.4	81.8042	17,752.4	86.0337	17,752.4	73.7773	17,752.4	77.6384	17,752.4	74.6381	17,752.4	69.8903	17,752.4	68.7402	17,752.4	71.7207	17,752.4	67.862	17,752.4	62.8286	17,752.4	64.3248	17,752.4	73.7174	17,752.4	65.0031	17,752.4	76.6258	17,752.4	62.9531	17,752.4	60.248	17,752.4	66.0366	17,752.4	58.1026	17,752.4	62.4705	17,752.4	62.6651	17,752.4	57.0034	17,752.4	53.8123	17,752.4	51.389	17,752.4	50.5357	17,752.4	44.4709	17,752.4	42.1327	17,752.4	58.7283
18,379.4	104.475	18,379.4	103.58	18,379.4	103.955	18,379.4	100.791	18,379.4	101.569	18,379.4	95.7478	18,379.4	97.4258	18,379.4	88.2097	18,379.4	89.5503	18,379.4	77.9481	18,379.4	82.9857	18,379.4	74.821	18,379.4	75.7127	18,379.4	74.8199	18,379.4	74.0166	18,379.4	69.0688	18,379.4	69.3228	18,379.4	66.6432	18,379.4	63.6856	18,379.4	63.3019	18,379.4	73.6258	18,379.4	63.221	18,379.4	75.756	18,379.4	61.7284	18,379.4	55.2606	18,379.4	65.4047	18,379.4	53.6229	18,379.4	61.5342	18,379.4	56.9933	18,379.4	58.2251	18,379.4	45.2236	18,379.4	45.8242	18,379.4	50.6491	18,379.4	48.8853	18,379.4	44.5168	18,379.4	54.4062
19,026.9	103.976	19,026.9	103.046	19,026.9	103.467	19,026.9	99.6137	19,026.9	100.716	19,026.9	93.9409	19,026.9	96.0236	19,026.9	84.1081	19,026.9	87.5469	19,026.9	72.8328	19,026.9	79.1972	19,026.9	76.2677	19,026.9	74.2135	19,026.9	74.1618	19,026.9	73.0261	19,026.9	68.8103	19,026.9	68.2724	19,026.9	65.5163	19,026.9	59.6842	19,026.9	62.4815	19,026.9	71.6029	19,026.9	58.7865	19,026.9	75.1687	19,026.9	61.2118	19,026.9	53.1342	19,026.9	64.6069	19,026.9	47.6596	19,026.9	60.6584	19,026.9	47.255	19,026.9	56.065	19,026.9	46.6776	19,026.9	48.9613	19,026.9	48.4996	19,026.9	49.4845	19,026.9	42.246	19,026.9	54.3458
19,697.8	103.369	19,697.8	102.052	19,697.8	102.618	19,697.8	98.1889	19,697.8	99.6378	19,697.8	91.2956	19,697.8	93.7952	19,697.8	78.1476	19,697.8	83.5193	19,697.8	74.1706	19,697.8	75.9227	19,697.8	75.8118	19,697.8	76.0476	19,697.8	73.1962	19,697.8	68.8196	19,697.8	66.7728	19,697.8	69.5963	19,697.8	62.7494	19,697.8	61.8212	19,697.8	60.0056	19,697.8	67.9597	19,697.8	57.5041	19,697.8	72.8694	19,697.8	56.7294	19,697.8	49.8583	19,697.8	62.4614	19,697.8	48.6946	19,697.8	58.4382	19,697.8	50.5934	19,697.8	55.245	19,697.8	43.301	19,697.8	48.146	19,697.8	51.0182	19,697.8	48.6156	19,697.8	45.6094	19,697.8	51.4837
19,999.5	102.979	19,999.5	101.633	19,999.5	102.287	19,999.5	97.3173	19,999.5	99.1698	19,999.5	90.2489	19,999.5	92.1584	19,999.5	73.6377	19,999.5	81.9129	19,999.5	73.802	19,999.5	66.6602	19,999.5	76.552	19,999.5	71.6145	19,999.5	71.1348	19,999.5	66.5042	19,999.5	65.9254	19,999.5	75.3419	19,999.5	58.4877	19,999.5	57.7116	19,999.5	62.5901	19,999.5	68.1095	19,999.5	59.0128	19,999.5	71.1764	19,999.5	59.7731	19,999.5	65.6599	19,999.5	69.3417	19,999.5	66.7849	19,999.5	55.2942	19,999.5	57.6891	19,999.5	62.1973	19,999.5	68.5786	19,999.5	60.9422	19,999.5	58.3948	19,999.5	57.7039	19,999.5	59.3291	19,999.5	54.2602
